<?xml version="1.0" encoding="UTF-8" ?>
<OPUSDataFile><AB><Ydata ylabel="Absorbance Units"><values byteorder="INTEL" format="FLOAT32" numvalues="3497"> -0.07949283 -0.07948928 -0.079486 -0.07948317 -0.0794775 -0.07946888 -0.0794595 -0.07945035 -0.07945441 -0.07947213
 -0.07951462 -0.07957798 -0.07965554 -0.07974117 -0.07981589 -0.07987989 -0.07992299 -0.07995319 -0.07997607 -0.07999659
 -0.0800227 -0.08004867 -0.08007432 -0.08009148 -0.08009522 -0.08008926 -0.08007147 -0.08005825 -0.08005179 -0.08006494
 -0.08010026 -0.08014913 -0.08021118 -0.08026072 -0.08029726 -0.08030646 -0.08029235 -0.08027094 -0.08024714 -0.08024889
 -0.08027347 -0.08033072 -0.08041024 -0.08049992 -0.08059055 -0.0806658 -0.08072478 -0.08075973 -0.0807784 -0.0807817
 -0.08078063 -0.08077996 -0.08078422 -0.08079682 -0.08081105 -0.08082651 -0.0808359 -0.0808379 -0.08083683 -0.08083289
 -0.08083519 -0.08084339 -0.08085529 -0.08086925 -0.08087309 -0.08086807 -0.08085061 -0.08082669 -0.08080854 -0.08080121
 -0.08082007 -0.08086294 -0.0809361 -0.08102743 -0.08113222 -0.08123174 -0.08131483 -0.08136919 -0.0813845 -0.08137009
 -0.08132318 -0.08127103 -0.08121715 -0.08118427 -0.0811756 -0.08119595 -0.08124579 -0.08131622 -0.0814064 -0.08150346
 -0.08160634 -0.0817027 -0.0817912 -0.08185995 -0.08190942 -0.08193295 -0.08193632 -0.08192472 -0.08190662 -0.08189438
 -0.08189146 -0.08190715 -0.08193351 -0.08197108 -0.08200385 -0.0820249 -0.0820282 -0.08200768 -0.08197985 -0.08194532
 -0.08192713 -0.08192857 -0.08195207 -0.08199806 -0.08204515 -0.08209278 -0.08212732 -0.08215195 -0.08218022 -0.0822148
 -0.08227552 -0.08235659 -0.08245604 -0.08256196 -0.08265138 -0.08272227 -0.08276038 -0.08277622 -0.08277511 -0.08276063
 -0.08273659 -0.08270265 -0.08265479 -0.08261375 -0.08258133 -0.08258852 -0.08264317 -0.08274793 -0.08290742 -0.08307369
 -0.08324458 -0.08333179 -0.08333504 -0.08323061 -0.08303313 -0.08282897 -0.08262248 -0.08247694 -0.08238352 -0.08235193
 -0.08237301 -0.08243891 -0.08253443 -0.0826418 -0.08274106 -0.08280803 -0.0828384 -0.08281769 -0.08276829 -0.08269403
 -0.08261914 -0.08255161 -0.0825 -0.08246658 -0.08245709 -0.08247221 -0.08251806 -0.08259518 -0.0826953 -0.08281677
 -0.08293355 -0.08304328 -0.08311663 -0.08315488 -0.08314504 -0.08309454 -0.08301389 -0.0829128 -0.08281228 -0.08271913
 -0.08265025 -0.08260674 -0.08259629 -0.08261358 -0.08265886 -0.08272284 -0.08280288 -0.08288881 -0.08297825 -0.083061
 -0.08313569 -0.08319095 -0.08322563 -0.08322947 -0.08320165 -0.0831458 -0.08306312 -0.08297417 -0.08287998 -0.08279802
 -0.08272658 -0.08266801 -0.08262111 -0.08258317 -0.08255627 -0.08254312 -0.08254469 -0.08256584 -0.08259884 -0.08264148
 -0.0826788 -0.08270062 -0.08270109 -0.08267143 -0.08262859 -0.08257256 -0.08253273 -0.08251534 -0.08253167 -0.0825855
 -0.08265763 -0.08274728 -0.08282661 -0.08289498 -0.08293949 -0.08296235 -0.08297221 -0.08297136 -0.0829742 -0.08297926
 -0.08299021 -0.08300425 -0.08301722 -0.08302962 -0.08303904 -0.08305065 -0.08306663 -0.08309567 -0.08314358 -0.08321518
 -0.08331627 -0.08343768 -0.08358087 -0.08372271 -0.08385983 -0.08397312 -0.08405987 -0.08411293 -0.08413188 -0.08409896
 -0.08401389 -0.0838669 -0.08366507 -0.08345222 -0.08323695 -0.08308006 -0.08297717 -0.08295196 -0.08298601 -0.08306101
 -0.08315249 -0.08321919 -0.0832575 -0.08324457 -0.08320283 -0.08314005 -0.08307088 -0.08300565 -0.08294062 -0.08287735
 -0.08280729 -0.08272813 -0.08264118 -0.08254524 -0.08245494 -0.082371 -0.08231125 -0.0822762 -0.0822763 -0.08230983
 -0.0823727 -0.08245783 -0.0825367 -0.0825995 -0.08260076 -0.08254832 -0.08242906 -0.08227038 -0.08210412 -0.08194206
 -0.08181002 -0.0816955 -0.08159961 -0.08150509 -0.0814024 -0.08129228 -0.08116981 -0.08105607 -0.08095462 -0.08087798
 -0.08083037 -0.08079073 -0.0807585 -0.08068945 -0.08058299 -0.08042644 -0.08022768 -0.08004015 -0.07986698 -0.07975382
 -0.07968806 -0.07965766 -0.07965492 -0.07965846 -0.07967046 -0.07968829 -0.07970581 -0.07972278 -0.07971484 -0.07966773
 -0.07956367 -0.07938704 -0.07915093 -0.07885361 -0.07851981 -0.07815294 -0.07777538 -0.07738984 -0.07701328 -0.07664721
 -0.07629333 -0.07595159 -0.07561905 -0.07529715 -0.07499569 -0.07471595 -0.07447112 -0.07425605 -0.07406531 -0.07388984
 -0.07371036 -0.07352134 -0.07330973 -0.07306801 -0.07278559 -0.07245693 -0.0720678 -0.07164562 -0.07119407 -0.07075341
 -0.07034075 -0.06995449 -0.06959957 -0.0692512 -0.06890664 -0.06855291 -0.06818865 -0.06781859 -0.06744335 -0.06707725
 -0.06672003 -0.06637958 -0.06604921 -0.06570822 -0.06534395 -0.06490438 -0.06439874 -0.06380804 -0.06317714 -0.06256104
 -0.061979 -0.06147819 -0.06102818 -0.06062813 -0.0602342 -0.0598261 -0.05938215 -0.05888661 -0.05835965 -0.05780049
 -0.05724272 -0.05669232 -0.05614852 -0.05561249 -0.05504984 -0.05445968 -0.05382617 -0.05315438 -0.05247757 -0.05179907
 -0.05115413 -0.05053478 -0.04993703 -0.04935256 -0.04876195 -0.04816582 -0.04755678 -0.04693815 -0.04630952 -0.0456766
 -0.04504076 -0.04441362 -0.04380306 -0.04320573 -0.04262784 -0.04203515 -0.04142206 -0.04076294 -0.04004962 -0.03931642
 -0.0385643 -0.0378518 -0.03718018 -0.03656284 -0.03599527 -0.03544845 -0.03491804 -0.03436867 -0.0338024 -0.03320407
 -0.03258415 -0.03195604 -0.03132643 -0.03071527 -0.03010858 -0.02950495 -0.02887755 -0.02820386 -0.02748542 -0.0267083
 -0.02591754 -0.02512295 -0.0243608 -0.02364338 -0.02296622 -0.02233194 -0.02171534 -0.02111509 -0.02050445 -0.01988235
 -0.01923214 -0.01855488 -0.01785135 -0.01712348 -0.01638035 -0.01562211 -0.01485239 -0.01407371 -0.01329 -0.01251033
 -0.01174858 -0.01101064 -0.01031035 -0.009638553 -0.008995706 -0.008365295 -0.007739241 -0.007110788 -0.006474307 -0.00583783
 -0.005201874 -0.0045751 -0.003960502 -0.003344411 -0.002726795 -0.00207371 -0.001384052 -0.0006405446 0.0001523339 0.0009662194
 0.001794022 0.002586413 0.003345593 0.004049042 0.004710258 0.005344038 0.005963663 0.006595474 0.007240293 0.007911336
 0.008595607 0.009289394 0.009979155 0.01065577 0.01132057 0.01197012 0.01261772 0.01326542 0.01392323 0.01459306
 0.01527687 0.01597516 0.01668316 0.01740027 0.01811196 0.01881709 0.01949869 0.02015829 0.02079298 0.02140679
 0.02201028 0.02260537 0.02320119 0.02379699 0.02439555 0.02499552 0.02559683 0.02619745 0.02679472 0.02739201
 0.0279878 0.02859504 0.02921843 0.02986184 0.03053044 0.03120076 0.03187113 0.03251589 0.03313197 0.03372902
 0.03430812 0.03490115 0.03550748 0.03613698 0.03678348 0.03742342 0.03805208 0.0386407 0.03919442 0.03970688
 0.04019205 0.04066687 0.04114074 0.04163223 0.04213398 0.04264779 0.04316168 0.04366751 0.04417057 0.04466948
 0.04517694 0.04569751 0.04622548 0.04676184 0.04728893 0.04780506 0.04830831 0.04879903 0.04929232 0.04978931
 0.05030582 0.05084234 0.05141043 0.05200801 0.05263847 0.05329132 0.05394997 0.05459864 0.05520626 0.05576918
 0.05626724 0.05671951 0.05712941 0.05752448 0.05791993 0.05832598 0.05875247 0.0591846 0.05962175 0.06004566
 0.06045229 0.06084501 0.06122302 0.06160813 0.06200133 0.06241993 0.06286354 0.06333593 0.06383585 0.06436118
 0.06490766 0.06546435 0.06602097 0.06655134 0.06704859 0.06748614 0.06787918 0.06822627 0.06856321 0.06891488
 0.06930139 0.06974763 0.07022303 0.07072922 0.07120899 0.07164714 0.07202734 0.07234031 0.07263199 0.072905
 0.07320316 0.07352728 0.0738563 0.07418566 0.07446041 0.07468431 0.07484262 0.07495133 0.07505063 0.07515452
 0.07531426 0.07552758 0.07581827 0.07616414 0.07655533 0.07696216 0.07735787 0.07773652 0.07808051 0.0784246
 0.07877439 0.07916684 0.07961791 0.08010547 0.0806345 0.08112738 0.08157826 0.08192943 0.08217938 0.08234851
 0.08244275 0.08252953 0.08260858 0.0827158 0.08284169 0.08297067 0.08310593 0.08323977 0.08339592 0.08361005
 0.08388659 0.08425824 0.08467412 0.08511499 0.08552024 0.08584491 0.08609947 0.08626562 0.08642168 0.08658153
 0.08680197 0.08709858 0.08744874 0.08785418 0.08824539 0.08861906 0.08892266 0.08915808 0.08932161 0.08942188
 0.08949748 0.08955961 0.08966332 0.08981444 0.09005613 0.09037736 0.09078844 0.09125403 0.09174697 0.09222516
 0.09264573 0.09300254 0.09327134 0.09349878 0.09369094 0.09390388 0.09415281 0.09446003 0.09483077 0.09527282
 0.09578622 0.09639797 0.09710918 0.09793464 0.09886718 0.09984578 0.1008509 0.1017496 0.1025313 0.1030809
 0.1034272 0.1035605 0.1035509 0.1034933 0.1034523 0.103542 0.103757 0.1041477 0.1046262 0.1051723
 0.1056797 0.1061053 0.1064005 0.1065388 0.1065496 0.1064284 0.1062494 0.1060178 0.1057994 0.1055975
 0.1054371 0.1053168 0.1052294 0.1051737 0.1051408 0.1051319 0.1051487 0.1051881 0.1052498 0.1053158
 0.1053672 0.1053668 0.1052726 0.1050486 0.1046478 0.1040813 0.1033266 0.1024642 0.1015072 0.100559
 0.09964669 0.0988249 0.09810926 0.09748994 0.09696921 0.09650385 0.09609143 0.09567645 0.09525692 0.09478784
 0.0942763 0.09373183 0.09317107 0.09265776 0.09219261 0.09181909 0.09150311 0.09121526 0.09091703 0.09054727
 0.09011368 0.08958888 0.08903575 0.08847175 0.08797045 0.08756513 0.08727929 0.08713523 0.08707283 0.08709404
 0.08708309 0.08703015 0.0868498 0.08653815 0.08610805 0.08556677 0.08499949 0.08441193 0.08388063 0.08340082
 0.0829982 0.08266258 0.08238567 0.08215553 0.08195286 0.0817628 0.08156282 0.08134262 0.0810843 0.08079549
 0.0804716 0.08013606 0.07979519 0.07946905 0.07916509 0.07888469 0.0786308 0.07838733 0.07815362 0.07790907
 0.07765261 0.07737231 0.07706898 0.07674715 0.07640994 0.07607635 0.07574925 0.07544953 0.07517502 0.0749333
 0.07471541 0.07451215 0.07431257 0.07410102 0.07387225 0.07361579 0.07333598 0.07303049 0.07271125 0.07238153
 0.07205158 0.07172546 0.07140255 0.07108404 0.07076173 0.07043477 0.07010031 0.0697582 0.06941534 0.06907219
 0.06873651 0.06840795 0.06808867 0.06777774 0.06747338 0.06717424 0.06687658 0.0665791 0.06627734 0.06597294
 0.06566431 0.06535852 0.06505781 0.06477607 0.06451853 0.0643039 0.06414097 0.06403665 0.06400077 0.06399735
 0.06402834 0.06401467 0.06394958 0.06377015 0.063473 0.06307339 0.06257816 0.06207464 0.0615709 0.06116099
 0.06083987 0.06064728 0.06055773 0.06053869 0.06055357 0.0605277 0.060445 0.06024753 0.05996961 0.05960922
 0.05923091 0.05887125 0.05855948 0.05832321 0.05813014 0.05797862 0.05783239 0.05768003 0.05754469 0.05742503
 0.05738171 0.0574179 0.05755175 0.05777759 0.05803042 0.05829886 0.05848087 0.05857717 0.05852921 0.05836021
 0.05809072 0.05775214 0.0574072 0.05706606 0.05677027 0.05650033 0.05625381 0.0560148 0.05576681 0.05552943
 0.05530357 0.05511806 0.05498594 0.0548916 0.05483862 0.05477607 0.05469803 0.05458895 0.05444771 0.05431934
 0.05420603 0.05415146 0.05414917 0.0541843 0.05424648 0.05428798 0.05431057 0.05429165 0.05424487 0.05418438
 0.05411558 0.05405692 0.05398839 0.05390684 0.05377372 0.05356701 0.05326382 0.05284171 0.05233201 0.05172797
 0.05111591 0.05050558 0.04998266 0.0495594 0.04924833 0.0490509 0.04889174 0.04876522 0.0485746 0.0483231
 0.04797611 0.04755123 0.0470919 0.04661462 0.04618384 0.04579721 0.04548373 0.04522399 0.0450085 0.04481624
 0.04462728 0.04442984 0.04421 0.04397197 0.04371063 0.04344825 0.04318827 0.04295414 0.04275315 0.04257658
 0.04242678 0.04225825 0.0420685 0.04182364 0.04152593 0.04119932 0.04085089 0.04053985 0.04026302 0.04004561
 0.03986848 0.03969778 0.03951923 0.03928745 0.03901475 0.03869313 0.03835079 0.03800879 0.037683 0.03738988
 0.03712775 0.03689862 0.03670288 0.03653989 0.03641647 0.03633532 0.03628893 0.03627898 0.0362695 0.03625862
 0.03619608 0.03608052 0.03588081 0.03560239 0.03525978 0.0348661 0.03447615 0.03410152 0.03379977 0.03357019
 0.03343968 0.03339667 0.03343844 0.03355351 0.03373136 0.03396596 0.03425186 0.0345842 0.03496148 0.0353745
 0.03582167 0.03629109 0.03677963 0.03728599 0.03780766 0.03837181 0.03897965 0.03968299 0.04048367 0.04142017
 0.04248733 0.04367453 0.04497003 0.04632476 0.04773043 0.04914108 0.05055709 0.05195814 0.05334864 0.05472556
 0.05609437 0.05745628 0.05882298 0.06019846 0.06160149 0.06304003 0.06452662 0.06606945 0.06765613 0.06929023
 0.07092781 0.07256728 0.07414447 0.07565567 0.07703629 0.07828359 0.07934754 0.0802275 0.08089196 0.08134566
 0.08158153 0.08162174 0.0815047 0.08128093 0.08104489 0.08085781 0.08083274 0.08099556 0.08141615 0.08206037
 0.08293481 0.08397964 0.08517212 0.08647669 0.08787817 0.08936823 0.09094407 0.09259816 0.09433029 0.09612497
 0.09798138 0.09987874 0.1018155 0.1037643 0.1057251 0.1076804 0.1096401 0.1116287 0.1136649 0.1158137
 0.1180729 0.120495 0.1229967 0.1255531 0.1279279 0.1299835 0.1313307 0.1317331 0.1308606 0.1284721
 0.1246483 0.1192727 0.1129611 0.1057497 0.09847922 0.09123975 0.08463509 0.07871149 0.07362492 0.06936572
 0.0657691 0.06281164 0.06025986 0.05810455 0.05618967 0.05451233 0.05299154 0.05161697 0.05033622 0.04913748
 0.04798351 0.04687609 0.04580082 0.04477485 0.04380248 0.04290355 0.04208709 0.04136444 0.04074116 0.04021819
 0.03979696 0.03947318 0.03924614 0.0391173 0.03908655 0.03916523 0.03935277 0.03964471 0.04003214 0.04045613
 0.04089887 0.04125638 0.04152195 0.0416159 0.04156461 0.04136856 0.04108061 0.04076222 0.04046319 0.04024646
 0.04013962 0.04017588 0.04036527 0.04071653 0.04124234 0.04194115 0.04285502 0.04398644 0.04540351 0.047121
 0.04911708 0.05139758 0.05364015 0.05580871 0.0572355 0.05788194 0.05710856 0.05499572 0.05146245 0.04674276
 0.04138089 0.03561383 0.03013591 0.02501557 0.02064821 0.01691927 0.01387925 0.0113522 0.009247246 0.007443423
 0.00586788 0.004470952 0.003226579 0.002110756 0.001117466 0.0002210896 -0.0005811182 -0.001314027 -0.001979407 -0.002594816
 -0.003160742 -0.003684823 -0.004166787 -0.004607741 -0.005008614 -0.005372977 -0.005703831 -0.006010542 -0.006296282 -0.006570908
 -0.006836586 -0.00709926 -0.007361956 -0.007628875 -0.007903052 -0.00818923 -0.008482357 -0.008784533 -0.009078094 -0.009359717
 -0.009610434 -0.009824301 -0.01000308 -0.01014408 -0.01027677 -0.01040275 -0.01055255 -0.01072622 -0.01092166 -0.01113507
 -0.01133549 -0.01152364 -0.01168213 -0.01182267 -0.01196713 -0.01212725 -0.01233954 -0.01259696 -0.01291114 -0.01325539
 -0.01361215 -0.01395482 -0.01426087 -0.01452055 -0.0147222 -0.01487343 -0.01497104 -0.0150385 -0.01507669 -0.0151234
 -0.01518265 -0.01528604 -0.01543664 -0.01563096 -0.01586738 -0.01610905 -0.01635397 -0.01656846 -0.01675584 -0.01691163
 -0.01704139 -0.01715858 -0.01726498 -0.01737058 -0.01747394 -0.01757715 -0.01767858 -0.0177781 -0.01787249 -0.01796026
 -0.01803725 -0.01810022 -0.01815154 -0.01818883 -0.01822716 -0.01826807 -0.01832928 -0.01841397 -0.01852406 -0.01866043
 -0.01880457 -0.01895534 -0.01908952 -0.01920756 -0.01930137 -0.01937436 -0.01943645 -0.01949095 -0.01955304 -0.01962174
 -0.01970399 -0.01979306 -0.01988361 -0.01996831 -0.0200368 -0.02009094 -0.02012548 -0.02015606 -0.0201866 -0.02023493
 -0.02030845 -0.02041057 -0.0205451 -0.02069873 -0.020871 -0.02104388 -0.02121604 -0.02137651 -0.02152504 -0.02165935
 -0.02177994 -0.02188925 -0.02198802 -0.02208037 -0.02216738 -0.02225407 -0.02234118 -0.02243334 -0.02252834 -0.02262639
 -0.02272177 -0.0228089 -0.02288528 -0.02294537 -0.02299711 -0.02304108 -0.02309014 -0.02314931 -0.02322102 -0.02330808
 -0.02339972 -0.023495 -0.02358513 -0.02366912 -0.02375029 -0.02382881 -0.02390979 -0.02399206 -0.02406836 -0.02413693
 -0.02418425 -0.02421347 -0.02422448 -0.02422571 -0.0242338 -0.02425347 -0.02430047 -0.02436873 -0.02445951 -0.02456208
 -0.02466935 -0.02477632 -0.02487871 -0.02497642 -0.02506927 -0.02515454 -0.02523202 -0.02529732 -0.02534942 -0.02538987
 -0.02541845 -0.02544376 -0.02546627 -0.02549507 -0.0255302 -0.0255761 -0.02563221 -0.02569865 -0.02577452 -0.02585786
 -0.02594692 -0.02603809 -0.02612831 -0.02621216 -0.02628703 -0.02634776 -0.02639574 -0.02642914 -0.02645411 -0.02647267
 -0.02649034 -0.02650963 -0.02653132 -0.0265561 -0.02658288 -0.02661132 -0.02664332 -0.02667893 -0.0267221 -0.026773
 -0.02683393 -0.02690452 -0.02698281 -0.02706799 -0.02715522 -0.02724426 -0.02733164 -0.02741805 -0.02750345 -0.02758791
 -0.02767234 -0.02775418 -0.02783146 -0.02790179 -0.02796198 -0.0280146 -0.02805901 -0.02810185 -0.02814501 -0.02819309
 -0.02824788 -0.02830825 -0.02837445 -0.02844335 -0.02851474 -0.02858611 -0.02865732 -0.02872541 -0.02879014 -0.02884772
 -0.02889868 -0.0289427 -0.02898196 -0.02902254 -0.0290664 -0.0291214 -0.02918542 -0.02926005 -0.02933924 -0.02941774
 -0.02949117 -0.02955383 -0.02960812 -0.02965277 -0.0296945 -0.02973518 -0.02977935 -0.02982907 -0.0298814 -0.02993676
 -0.02998702 -0.03003156 -0.03006515 -0.0300878 -0.03010502 -0.03011789 -0.03013896 -0.03016818 -0.0302129 -0.03027024
 -0.03033605 -0.03040651 -0.03047148 -0.03053007 -0.03057582 -0.03061217 -0.03063975 -0.03066311 -0.03068609 -0.03070946
 -0.03073515 -0.03076024 -0.03078382 -0.03080536 -0.03082373 -0.03084476 -0.03086891 -0.03090249 -0.03094632 -0.03099815
 -0.03105765 -0.03111384 -0.0311662 -0.03120507 -0.03123165 -0.03124587 -0.03125048 -0.03125381 -0.03125761 -0.03127033
 -0.03129003 -0.03131852 -0.03135055 -0.03138161 -0.03140771 -0.03142338 -0.03143176 -0.03143125 -0.03143198 -0.03143659
 -0.03145336 -0.03148574 -0.03153052 -0.03158872 -0.03164717 -0.03170496 -0.03175094 -0.03178475 -0.03180624 -0.03181627
 -0.03182294 -0.03182707 -0.03183702 -0.03185266 -0.03187823 -0.03191232 -0.03195439 -0.03200231 -0.03205271 -0.03210448
 -0.03215484 -0.03220493 -0.03225433 -0.03230548 -0.03235939 -0.0324178 -0.0324817 -0.03255101 -0.03262645 -0.0327042
 -0.03278442 -0.03285895 -0.03292716 -0.03298253 -0.03302488 -0.03305687 -0.03307946 -0.033103 -0.03312777 -0.03316127
 -0.03320136 -0.03324552 -0.03329124 -0.03333126 -0.03336648 -0.0333941 -0.03341854 -0.03344333 -0.03347157 -0.03350737
 -0.03354917 -0.03359779 -0.03364921 -0.03370244 -0.03375399 -0.03380316 -0.03384659 -0.03388377 -0.03391209 -0.03393107
 -0.03394358 -0.03394989 -0.03395857 -0.03396996 -0.0339909 -0.0340207 -0.03405956 -0.03410626 -0.03415711 -0.0342112
 -0.03426512 -0.03431769 -0.03436589 -0.03440858 -0.03444313 -0.03447028 -0.03448914 -0.03450269 -0.03451187 -0.03451995
 -0.0345283 -0.03453836 -0.03455072 -0.03456586 -0.03458395 -0.03460496 -0.03462898 -0.03465467 -0.03468192 -0.03470804
 -0.03473305 -0.03475592 -0.03477721 -0.03479917 -0.03482215 -0.03484878 -0.03487814 -0.03490959 -0.03494214 -0.03497351
 -0.03500455 -0.03503531 -0.03506651 -0.03509953 -0.03513176 -0.03516297 -0.03518836 -0.03520607 -0.03521411 -0.03521096
 -0.03520054 -0.03518263 -0.03516549 -0.03514972 -0.03514289 -0.03514532 -0.03515832 -0.03518125 -0.03520807 -0.03523794
 -0.03526293 -0.03528365 -0.03529729 -0.0353061 -0.03531366 -0.03532154 -0.03533472 -0.03535073 -0.03537003 -0.0353865
 -0.03539551 -0.03539423 -0.0353782 -0.03535398 -0.03532177 -0.03529208 -0.03526778 -0.03525292 -0.03524909 -0.03525242
 -0.03526274 -0.03527607 -0.03529219 -0.03530999 -0.03532955 -0.03535129 -0.03537579 -0.03540572 -0.03544286 -0.03549409
 -0.03556148 -0.03565317 -0.03576957 -0.03591517 -0.03608877 -0.03628995 -0.03652023 -0.03677845 -0.0370732 -0.0374068
 -0.03779182 -0.03823447 -0.03873575 -0.03929975 -0.03990866 -0.04056142 -0.0412365 -0.04193182 -0.04263738 -0.04335237
 -0.044052 -0.04473076 -0.04531968 -0.04581146 -0.04612872 -0.04627293 -0.0462078 -0.04593955 -0.04545464 -0.04478344
 -0.04394844 -0.04302599 -0.0421023 -0.04124094 -0.04051994 -0.03995498 -0.03957454 -0.03937396 -0.03936076 -0.03951349
 -0.03983987 -0.04025733 -0.04076475 -0.04121387 -0.04158974 -0.04181558 -0.0418877 -0.04186412 -0.04175021 -0.04162696
 -0.04149276 -0.04138212 -0.04128601 -0.04119368 -0.04109541 -0.04096079 -0.04079359 -0.04058231 -0.04034488 -0.04009747
 -0.03985026 -0.0396199 -0.03939692 -0.03918139 -0.03896169 -0.03873106 -0.0384947 -0.03825054 -0.0380164 -0.03779449
 -0.03759919 -0.0374325 -0.03729557 -0.03718846 -0.0370976 -0.03702183 -0.03694271 -0.03686022 -0.03676418 -0.0366568
 -0.03653972 -0.03641609 -0.03629346 -0.03617461 -0.03606714 -0.03597272 -0.03589665 -0.03583758 -0.03579717 -0.03577032
 -0.0357553 -0.03574653 -0.03574131 -0.0357381 -0.03573569 -0.0357359 -0.03573909 -0.03574486 -0.03575354 -0.03575948
 -0.0357624 -0.03575725 -0.0357444 -0.0357267 -0.03570518 -0.03568773 -0.03567404 -0.03566768 -0.0356665 -0.03566701
 -0.03566819 -0.03566627 -0.03566269 -0.03565736 -0.03565258 -0.03565015 -0.03565134 -0.03565763 -0.03566816 -0.03568346
 -0.0357003 -0.03571802 -0.03573397 -0.03574737 -0.03575905 -0.03576899 -0.03577877 -0.03578848 -0.03579567 -0.0358001
 -0.03579766 -0.03578857 -0.03577175 -0.03574814 -0.03572008 -0.03568891 -0.03565838 -0.03563051 -0.03561044 -0.03559865
 -0.03559903 -0.03560696 -0.03562117 -0.03563448 -0.03564199 -0.03564207 -0.03563175 -0.03561696 -0.03559824 -0.03558244
 -0.03557101 -0.03556591 -0.03556764 -0.0355745 -0.0355864 -0.03560008 -0.03561535 -0.03562917 -0.03564152 -0.03565062
 -0.03565675 -0.03565998 -0.03566054 -0.03565895 -0.03565551 -0.03565065 -0.03564537 -0.03564067 -0.03563806 -0.03563938
 -0.03564439 -0.03565412 -0.03566554 -0.03567792 -0.03568845 -0.03569582 -0.03570119 -0.03570431 -0.0357084 -0.03571388
 -0.0357209 -0.03572948 -0.03573714 -0.03574399 -0.03575078 -0.03575815 -0.03577049 -0.03578763 -0.03581187 -0.03584124
 -0.03587242 -0.0359031 -0.03592777 -0.03594581 -0.03595383 -0.03595365 -0.03594492 -0.03593159 -0.03591513 -0.03590035
 -0.03588939 -0.03588495 -0.03588868 -0.03589856 -0.03591496 -0.0359324 -0.03595041 -0.03596434 -0.0359739 -0.03597958
 -0.03598168 -0.03598487 -0.03598904 -0.03599614 -0.03600499 -0.0360122 -0.03601704 -0.03601528 -0.03600862 -0.03599739
 -0.03598496 -0.03597556 -0.03597094 -0.03597464 -0.03598452 -0.03600092 -0.03601959 -0.03603892 -0.03605644 -0.03607082
 -0.03608323 -0.03609362 -0.03610339 -0.03611277 -0.03612129 -0.03612895 -0.03613595 -0.03614253 -0.03615213 -0.03616484
 -0.03618355 -0.03620691 -0.03623185 -0.03625599 -0.03627165 -0.03627827 -0.03627022 -0.03625132 -0.03622286 -0.03619138
 -0.03616267 -0.03614063 -0.03612991 -0.03612841 -0.03613684 -0.03615072 -0.0361688 -0.03618945 -0.03621224 -0.03623658
 -0.03626262 -0.03628692 -0.03630929 -0.03632587 -0.03633676 -0.03634274 -0.03634442 -0.03634617 -0.03634813 -0.03635311
 -0.03636086 -0.03637198 -0.03638674 -0.03640573 -0.03642941 -0.03645896 -0.03649326 -0.03653236 -0.03657328 -0.03661439
 -0.03665351 -0.03668898 -0.03672181 -0.03675165 -0.03678124 -0.03681115 -0.03684213 -0.03687447 -0.03690637 -0.03693774
 -0.03696597 -0.03699095 -0.03701041 -0.03702455 -0.03703289 -0.03703672 -0.03704023 -0.03704527 -0.03705935 -0.03708174
 -0.03711574 -0.03715693 -0.03720153 -0.03724542 -0.0372832 -0.03731515 -0.03733949 -0.03735903 -0.03737454 -0.03738765
 -0.03739889 -0.0374092 -0.03741852 -0.03742963 -0.03744268 -0.03746169 -0.03748693 -0.03751969 -0.03755973 -0.03760343
 -0.03765015 -0.03769358 -0.03773374 -0.03776701 -0.0377947 -0.03781819 -0.03783903 -0.03786084 -0.03788361 -0.03790898
 -0.0379358 -0.03796352 -0.03799172 -0.0380195 -0.03804855 -0.03807925 -0.0381132 -0.03815128 -0.03819225 -0.03823623
 -0.03828043 -0.03832445 -0.03836795 -0.03841086 -0.03845476 -0.03849956 -0.03854405 -0.03858779 -0.03862675 -0.03866135
 -0.03869062 -0.03871636 -0.03874271 -0.03877077 -0.03880484 -0.03884392 -0.03888886 -0.03893739 -0.03898793 -0.03903874
 -0.03908804 -0.0391362 -0.0391824 -0.03922973 -0.03927886 -0.03933213 -0.03939064 -0.0394513 -0.03951427 -0.03957246
 -0.03962541 -0.03966972 -0.03970563 -0.03973769 -0.03976666 -0.03980028 -0.0398384 -0.03988503 -0.03993848 -0.03999654
 -0.0400575 -0.04011697 -0.04017483 -0.04022902 -0.04028048 -0.04032927 -0.04037646 -0.04042246 -0.04046883 -0.04051618
 -0.0405661 -0.04061966 -0.04067498 -0.04073244 -0.04078637 -0.04083612 -0.04087842 -0.04091293 -0.04094178 -0.04096517
 -0.04098696 -0.04100722 -0.04102823 -0.0410501 -0.04107454 -0.04110163 -0.04113254 -0.04116686 -0.04120443 -0.04124487
 -0.04128734 -0.04133249 -0.0413804 -0.04143237 -0.04148962 -0.04155142 -0.04161874 -0.04168653 -0.04175428 -0.04181452
 -0.04186527 -0.04190559 -0.04193441 -0.04196089 -0.04198551 -0.0420181 -0.0420587 -0.04210693 -0.04216193 -0.04221683
 -0.04227192 -0.04232445 -0.04237601 -0.04242961 -0.04248588 -0.0425477 -0.04261404 -0.04268512 -0.04275885 -0.04283404
 -0.04290744 -0.04297711 -0.04303978 -0.04309303 -0.04313767 -0.04317245 -0.04320397 -0.04323288 -0.04326659 -0.04330636
 -0.04335355 -0.04340849 -0.04346529 -0.04352366 -0.04357775 -0.04362808 -0.04367563 -0.04372125 -0.04376951 -0.04381966
 -0.04387208 -0.04392559 -0.04397749 -0.04402873 -0.0440792 -0.04413059 -0.04418486 -0.0442415 -0.04430082 -0.04436192
 -0.04442427 -0.04448831 -0.04455438 -0.04462134 -0.04468944 -0.04475482 -0.04481705 -0.04487344 -0.04492369 -0.04496901
 -0.04500953 -0.04504822 -0.04508529 -0.04512379 -0.04516361 -0.04520605 -0.0452507 -0.04529701 -0.04534483 -0.0453935
 -0.04544319 -0.04549434 -0.04554571 -0.04559667 -0.04564514 -0.04568894 -0.04572938 -0.04576575 -0.04580267 -0.04584158
 -0.04588448 -0.04593256 -0.0459826 -0.04603442 -0.04608455 -0.04613265 -0.04617947 -0.04622526 -0.04627577 -0.04633153
 -0.04639999 -0.04648047 -0.04657527 -0.04668067 -0.0467886 -0.04689353 -0.04698022 -0.04704833 -0.04708841 -0.04711027
 -0.04711824 -0.04712456 -0.04713916 -0.0471656 -0.04720959 -0.04726382 -0.04732804 -0.04739222 -0.04745375 -0.04751059
 -0.04756163 -0.04761259 -0.04766378 -0.04772053 -0.04778295 -0.04785269 -0.04792928 -0.04801048 -0.04809478 -0.04817443
 -0.04824809 -0.04830672 -0.04835285 -0.04838645 -0.04841193 -0.0484358 -0.04845901 -0.04848442 -0.04851277 -0.04854434
 -0.04858293 -0.04863076 -0.04868823 -0.04875732 -0.04883029 -0.0489065 -0.04897644 -0.0490387 -0.04908903 -0.04912696
 -0.04915209 -0.04916458 -0.04916804 -0.04916326 -0.04915817 -0.04915324 -0.04915502 -0.04916272 -0.04917755 -0.04919831
 -0.04922362 -0.0492517 -0.04928009 -0.0493061 -0.04932539 -0.04933958 -0.04934689 -0.04935491 -0.0493672 -0.04938622
 -0.04941519 -0.04944547 -0.04947618 -0.04949848 -0.0495103 -0.04951516 -0.04951293 -0.0495147 -0.04952069 -0.04953289
 -0.04954938 -0.04955501 -0.04954761 -0.04950686 -0.04943752 -0.04934083 -0.0492266 -0.04911678 -0.04901204 -0.04892504
 -0.04884606 -0.0487698 -0.04869029 -0.04859933 -0.04850403 -0.04840451 -0.04831151 -0.0482294 -0.04815966 -0.04810517
 -0.04805346 -0.04800502 -0.04793207 -0.04783247 -0.04768762 -0.04749789 -0.04728842 -0.04706226 -0.04685891 -0.04667506
 -0.04651749 -0.04637824 -0.0462373 -0.04609025 -0.04591778 -0.04572183 -0.04549609 -0.04524637 -0.04497575 -0.04468965
 -0.04439501 -0.04408605 -0.04376596 -0.04341211 -0.04301715 -0.04257047 -0.04206375 -0.0415261 -0.04096016 -0.04038994
 -0.03981875 -0.03922653 -0.03861237 -0.03795637 -0.03726131 -0.03654533 -0.03580933 -0.03507191 -0.03432145 -0.03353195
 -0.03269591 -0.03177525 -0.03079645 -0.02977662 -0.0287502 -0.02776506 -0.02681466 -0.02591278 -0.02503356 -0.02416596
 -0.02330187 -0.02243521 -0.02157094 -0.0207137 -0.01983947 -0.01895156 -0.01797093 -0.01689092 -0.01566802 -0.01430425
 -0.01291822 -0.01151819 -0.01023708 -0.009057836 -0.007969092 -0.006949672 -0.005928844 -0.004900717 -0.003822429 -0.002689231
 -0.001487082 -0.0001836976 0.001243203 0.002861759 0.004725291 0.006873449 0.009369323 0.01209787 0.01506296 0.01803779
 0.02097131 0.02374248 0.02632011 0.02872528 0.03095412 0.03309678 0.03516009 0.03730625 0.03955141 0.04213072
 0.04502256 0.04828686 0.05181104 0.05525874 0.05860445 0.06159299 0.06435493 0.06697425 0.06954946 0.07222649
 0.07500123 0.07791715 0.08094151 0.08406296 0.08728264 0.09061082 0.09398982 0.0974177 0.1007943 0.1040969
 0.1073503 0.1105539 0.1137667 0.1169873 0.1200823 0.1230372 0.1256453 0.1279255 0.1298579 0.1314816
 0.1329188 0.1341632 0.1352688 0.1361934 0.1368737 0.1373511 0.1376254 0.137794 0.1379309 0.1380754
 0.1382774 0.1384952 0.1387295 0.1389236 0.1390598 0.1391362 0.1391451 0.1391425 0.139132 0.1391644
 0.1392402 0.1393065 0.139355 0.1392805 0.1390821 0.1387042 0.1381445 0.137368 0.1363704 0.1351142
 0.1336274 0.1319217 0.1300585 0.1281071 0.1260983 0.1240788 0.1220429 0.1199864 0.1179499 0.1159315
 0.1140299 0.1122703 0.1106929 0.1093132 0.1080852 0.1070067 0.1060362 0.105172 0.104415 0.1037658
 0.1032322 0.1028108 0.102489 0.1022634 0.1021169 0.1020498 0.1020555 0.1021331 0.1022784 0.102491
 0.1027653 0.1031125 0.1035341 0.1040546 0.1046823 0.1054485 0.1063602 0.1074593 0.1087545 0.110284
 0.11206 0.1140572 0.1162792 0.1186116 0.1210475 0.1234293 0.125743 0.1277973 0.1295697 0.1308332
 0.1315976 0.1317522 0.1313721 0.130553 0.1293861 0.1280367 0.1265928 0.1252022 0.1239215 0.1228496
 0.1219566 0.1212604 0.1206944 0.1202324 0.1198656 0.1195795 0.1194291 0.1194291 0.1195428 0.1197735
 0.1199858 0.1201739 0.1202973 0.1203612 0.1204069 0.1204391 0.1205049 0.1206031 0.120763 0.1209639
 0.1212084 0.121393 0.1214145 0.1210447 0.1199756 0.1181573 0.1153743 0.1119356 0.1079456 0.1036138
 0.0990313 0.09431493 0.08947737 0.08475701 0.08018589 0.0759624 0.07211527 0.06860784 0.06543781 0.06244878
 0.05963821 0.05692479 0.05431923 0.05184084 0.04949051 0.04728903 0.0452129 0.04322332 0.04129338 0.03936274
 0.03742363 0.03544733 0.03342851 0.03136699 0.02921811 0.02696135 0.02455696 0.02194442 0.01930556 0.0166444
 0.01427235 0.01226328 0.0105761 0.009224012 0.0079653 0.006788551 0.005564215 0.004298216 0.003015742 0.001728816
 0.0005188097 -0.0006185625 -0.001658905 -0.002603698 -0.003455167 -0.004185461 -0.004755415 -0.005135331 -0.005270238 -0.005170863
 -0.004823797 -0.004258144 -0.003486138 -0.002525013 -0.00138371 -6.993918E-05 0.001408061 0.003075701 0.004929956 0.00704591
 0.009435221 0.01207724 0.01496906 0.01780154 0.02055508 0.02289052 0.02483012 0.02632405 0.02740537 0.02816003
 0.02860054 0.02878614 0.02874354 0.02852496 0.02819046 0.02781338 0.02746771 0.02723849 0.02714258 0.02723517
 0.02741433 0.02765787 0.0278795 0.0280438 0.02816881 0.02824972 0.0283325 0.02842196 0.02853312 0.02866681
 0.02880359 0.02894256 0.0290648 0.02917452 0.02928292 0.02940044 0.02956866 0.0297946 0.03012074 0.03053316
 0.03103021 0.03159334 0.03219135 0.03284445 0.03354944 0.03435435 0.03528657 0.03636508 0.03761111 0.03899076
 0.04050183 0.04210411 0.04378906 0.04555089 0.04738971 0.04928688 0.05124108 0.05314633 0.05499438 0.05664949
 0.05811519 0.05934221 0.06034067 0.06112457 0.06168868 0.0620315 0.0621355 0.06196972 0.06152846 0.06078709
 0.05976591 0.05846745 0.05692652 0.05516001 0.05319796 0.0510515 0.04875094 0.04629591 0.04375869 0.04114148
 0.03856825 0.03605075 0.03367725 0.03145299 0.02936975 0.02742427 0.02557038 0.02380953 0.0221272 0.02052822
 0.01902657 0.01761493 0.01628888 0.01502574 0.01379003 0.01255685 0.01128468 0.009959722 0.00855352 0.007077565
 0.005521825 0.003932294 0.002318044 0.0007366967 -0.0007937713 -0.002250731 -0.00362407 -0.004937598 -0.006192139 -0.00741635
 -0.00861189 -0.009766284 -0.01087622 -0.01189268 -0.01281511 -0.01361255 -0.01429357 -0.01487163 -0.01535641 -0.0157772
 -0.01613942 -0.01646357 -0.01675476 -0.01702528 -0.0172814 -0.01753158 -0.01777991 -0.01803102 -0.01828537 -0.01854473
 -0.01880574 -0.01906813 -0.01932777 -0.01958323 -0.0198375 -0.02008986 -0.02035539 -0.02063488 -0.02094606 -0.02128865
 -0.02166398 -0.0220681 -0.02247909 -0.02289108 -0.02327108 -0.02361677 -0.0239047 -0.02413921 -0.02431651 -0.02444291
 -0.02452379 -0.0245652 -0.0245706 -0.02455382 -0.02451933 -0.02449105 -0.02447868 -0.02449815 -0.02455784 -0.02465096
 -0.02477927 -0.02492267 -0.0250793 -0.02523516 -0.02538928 -0.02554307 -0.02569767 -0.02586939 -0.02606012 -0.02629076
 -0.02656024 -0.02687723 -0.02723663 -0.02763091 -0.02805474 -0.02849612 -0.02895123 -0.02941248 -0.02987356 -0.03032849
 -0.03076851 -0.03118728 -0.03157976 -0.03194194 -0.03227514 -0.03257847 -0.03285651 -0.0331098 -0.03334222 -0.03355417
 -0.03374851 -0.03392541 -0.03408915 -0.03424031 -0.0343882 -0.03453354 -0.03468657 -0.03484576 -0.03501227 -0.03518123
 -0.03534184 -0.03548915 -0.03560922 -0.03570161 -0.03575884 -0.03578674 -0.03578619 -0.03576683 -0.03573413 -0.0356947
 -0.03565331 -0.03560849 -0.03556126 -0.03550644 -0.03544285 -0.0353703 -0.03528823 -0.03520278 -0.03511427 -0.03502956
 -0.03494877 -0.03487495 -0.03480739 -0.03474331 -0.0346817 -0.0346164 -0.03454873 -0.03447701 -0.0344074 -0.03434872
 -0.03430825 -0.03429928 -0.03432237 -0.03438429 -0.03447736 -0.03459931 -0.03474322 -0.03490439 -0.03508558 -0.03528544
 -0.03551379 -0.0357723 -0.03606652 -0.03639792 -0.03676048 -0.03715403 -0.03756373 -0.03798854 -0.03841074 -0.03882938
 -0.03922889 -0.03961004 -0.03996635 -0.04030138 -0.04062056 -0.04092738 -0.04123117 -0.04153154 -0.04183213 -0.04213045
 -0.04242512 -0.04271585 -0.04300161 -0.0432844 -0.0435645 -0.04384447 -0.04412422 -0.04440974 -0.0447016 -0.04500756
 -0.04532889 -0.04566632 -0.04602015 -0.04637893 -0.04674169 -0.04709089 -0.04742605 -0.04773495 -0.04801878 -0.04827568
 -0.048507 -0.04871627 -0.04890172 -0.04906288 -0.04919523 -0.0492928 -0.04935342 -0.04937286 -0.04935199 -0.04929173
 -0.04918745 -0.04903991 -0.04883519 -0.04857004 -0.04823297 -0.04781982 -0.04733587 -0.04677973 -0.0461751 -0.04552315
 -0.04485445 -0.04417031 -0.0434944 -0.04282625 -0.04217465 -0.04153759 -0.04091195 -0.0402962 -0.03968473 -0.03907737
 -0.03847132 -0.0378669 -0.03726319 -0.03666129 -0.03606097 -0.03546586 -0.03487645 -0.03430089 -0.03374107 -0.03320871
 -0.0327071 -0.03224492 -0.03182528 -0.0314453 -0.03110587 -0.03079342 -0.03050728 -0.03023136 -0.02996478 -0.02969243
 -0.02941304 -0.02911073 -0.02878405 -0.02841882 -0.02801411 -0.02756049 -0.02705737 -0.02649909 -0.02588651 -0.02521695
 -0.02449603 -0.02372551 -0.02291683 -0.02207508 -0.02121553 -0.02034369 -0.01947658 -0.01861924 -0.01778528 -0.0169785
 -0.01620215 -0.01545771 -0.01473781 -0.01404222 -0.01335855 -0.01268618 -0.01201276 -0.01133952 -0.01066649 -0.01000011
 -0.009365504 -0.008769818 -0.008248108 -0.007795071 -0.007421883 -0.00710878 -0.006837417 -0.006586579 -0.006332631 -0.006059905
 -0.005753174 -0.005402848 -0.004999947 -0.004547615 -0.004042974 -0.003501213 -0.0029247 -0.002323956 -0.001700975 -0.001055155
 -0.0003865404 0.0003044277 0.001017494 0.001747665 0.002494363 0.00325188 0.004018521 0.004785613 0.005549035 0.006294783
 0.00701664 0.007699673 0.008332319 0.008897217 0.009376932 0.009749701 0.01000718 0.01013323 0.01014424 0.01003893
 0.009849845 0.009584066 0.0092724 0.008920453 0.008554591 0.008177919 0.007813109 0.007462009 0.007134368 0.006830106
 0.006545058 0.00627871 0.006024904 0.005784649 0.005558622 0.005348763 0.005160464 0.004995432 0.00485913 0.00475286
 0.004679745 0.004642596 0.00464378 0.004688947 0.004782526 0.004926851 0.005126562 0.005371184 0.005661848 0.005974197
 0.006307094 0.006622573 0.006919017 0.007138863 0.007278725 0.007273849 0.007122174 0.006790151 0.006282375 0.005616485
 0.004800708 0.003878412 0.002855391 0.001768641 0.0006218686 -0.0005615386 -0.00177911 -0.003018053 -0.004278556 -0.00555718
 -0.006852761 -0.008165465 -0.00948807 -0.01081837 -0.01214805 -0.01347379 -0.01479323 -0.01610475 -0.01741227 -0.01871581
 -0.02002151 -0.02132986 -0.0226434 -0.02396189 -0.02527917 -0.02659417 -0.02789564 -0.02918329 -0.03044962 -0.03169568
 -0.03291975 -0.03412474 -0.03531399 -0.03649343 -0.03767293 -0.0388542 -0.04004685 -0.04123567 -0.04241816 -0.04356697
 -0.04466907 -0.04570989 -0.04667932 -0.04758787 -0.04843402 -0.04924067 -0.05000995 -0.05076253 -0.05150004 -0.05223556
 -0.05296939 -0.05370417 -0.05443891 -0.05516743 -0.05588819 -0.05659215 -0.05727674 -0.05793077 -0.05855126 -0.05912568
 -0.05965682 -0.06014044 -0.06058809 -0.06100838 -0.0614116 -0.06180874 -0.06219807 -0.06258239 -0.06295449 -0.06331123
 -0.0636553 -0.06398489 -0.06431542 -0.0646484 -0.06499708 -0.065363 -0.06574046 -0.06612865 -0.06650662 -0.06687422
 -0.06722002 -0.06754742 -0.06786625 -0.06817826 -0.06849551 -0.06881299 -0.06912665 -0.06943159 -0.06971744 -0.06998752
 -0.07024068 -0.07048236 -0.07071748 -0.07094331 -0.07116119 -0.0713627 -0.07154532 -0.07170459 -0.07183845 -0.07195
 -0.07203894 -0.07211255 -0.07217123 -0.0722219 -0.07226488 -0.07230561 -0.07234446 -0.07238716 -0.07243335 -0.07248571
 -0.07254101 -0.07259209 -0.0726345 -0.07265469 -0.07265395 -0.07262613 -0.07258029 -0.07252195 -0.07246082 -0.07240549
 -0.07235894 -0.07232574 -0.07230139 -0.07228659 -0.0722717 -0.07225568 -0.07222678 -0.0721837 -0.07211589 -0.07202251
 -0.07189548 -0.07173453 -0.071536 -0.07130114 -0.07103753 -0.07074863 -0.07045401 -0.07015675 -0.06987681 -0.06961298
 -0.06937342 -0.06915269 -0.06894726 -0.06875107 -0.06855701 -0.06836171 -0.06816062 -0.06795343 -0.06773856 -0.06751803
 -0.06729085 -0.06706505 -0.06684025 -0.06663433 -0.06644931 -0.0663005 -0.06618989 -0.06611009 -0.06606019 -0.06601362
 -0.06596971 -0.0659107 -0.0658389 -0.0657569 -0.06566491 -0.06556694 -0.06545715 -0.06532568 -0.06516775 -0.06496954
 -0.06473792 -0.06447121 -0.06418703 -0.06389688 -0.06361189 -0.06334342 -0.06308218 -0.06282911 -0.06256764 -0.06229242
 -0.06200608 -0.06170661 -0.06141511 -0.06113329 -0.06087133 -0.06062923 -0.06039586 -0.06017052 -0.05994189 -0.05971162
 -0.05948254 -0.05925507 -0.05903371 -0.058814 -0.05858942 -0.05835514 -0.05809985 -0.05782605 -0.05752926 -0.05722191
 -0.05690919 -0.05660675 -0.05632336 -0.05606713 -0.05584363 -0.0556502 -0.05548852 -0.05534732 -0.05522646 -0.05510699
 -0.05498778 -0.05484645 -0.05468203 -0.05448211 -0.05424792 -0.05398554 -0.05369717 -0.0533972 -0.05308497 -0.05276657
 -0.05243883 -0.05209671 -0.05174151 -0.05136954 -0.05099255 -0.05061957 -0.05026339 -0.04993924 -0.04964058 -0.04937203
 -0.04911015 -0.04884659 -0.04857393 -0.048286 -0.04800167 -0.04772331 -0.04746052 -0.04721547 -0.04696659 -0.04671273
 -0.04642833 -0.0461142 -0.04576821 -0.04539299 -0.0450003 -0.04459136 -0.04417552 -0.04375341 -0.04333061 -0.04290762
 -0.04248722 -0.0420703 -0.04165776 -0.04125331 -0.04085915 -0.04047978 -0.04011825 -0.03977553 -0.03945262 -0.03914928
 -0.03886599 -0.03860045 -0.03835353 -0.03811279 -0.03787745 -0.03763449 -0.03738359 -0.0371307 -0.0368772 -0.03664046
 -0.03641868 -0.03621319 -0.03601854 -0.03581791 -0.03560891 -0.03537695 -0.03512596 -0.03485414 -0.03456948 -0.03427882
 -0.03398977 -0.03371071 -0.03344215 -0.03318725 -0.03294134 -0.03270283 -0.03247171 -0.03224823 -0.03203001 -0.03181851
 -0.03159533 -0.03135915 -0.03109437 -0.03080063 -0.03049187 -0.03016947 -0.02985572 -0.0295462 -0.0292316 -0.02890353
 -0.02852895 -0.0281069 -0.02761643 -0.02706788 -0.02646407 -0.02582438 -0.0251666 -0.02451389 -0.02388759 -0.0233022
 -0.02277034 -0.02229664 -0.02188418 -0.02153886 -0.02126349 -0.02105619 -0.02092052 -0.02082326 -0.02076343 -0.02068757
 -0.020593 -0.02044 -0.02022883 -0.01994582 -0.01959583 -0.01919303 -0.01874824 -0.01830267 -0.01786525 -0.01747806
 -0.01713691 -0.01685459 -0.01662172 -0.01643045 -0.01628232 -0.01617486 -0.01611442 -0.01610647 -0.01614358 -0.01622851
 -0.01633559 -0.01646248 -0.01657339 -0.01666323 -0.01670481 -0.01669413 -0.01663749 -0.01653535 -0.01641581 -0.01627851
 -0.01612904 -0.01596477 -0.01577116 -0.01555331 -0.01531966 -0.01507752 -0.01485055 -0.01463356 -0.01442857 -0.01423038
 -0.01403174 -0.01383728 -0.01365322 -0.01346556 -0.01327579 -0.01304508 -0.01275142 -0.01241269 -0.01201756 -0.01165751
 -0.01134881 -0.01111466 -0.01096103 -0.01085033 -0.01078087 -0.01072684 -0.01068754 -0.01064677 -0.01060419 -0.01054693
 -0.01047953 -0.01040961 -0.01034252 -0.01029647 -0.01026712 -0.01025644 -0.01025729 -0.01026244 -0.01026799 -0.01027203
 -0.01026165 -0.01023088 -0.01016735 -0.01006137 -0.009926404 -0.009762424 -0.009589928 -0.009413466 -0.009231552 -0.009043751
 -0.008857593 -0.00867386 -0.008540669 -0.008461142 -0.008487407 -0.008617848 -0.008871989 -0.009243526 -0.009728452 -0.01030713
 -0.01094536 -0.01159907 -0.01218488 -0.01267483 -0.01299016 -0.01317619 -0.01323137 -0.01323316 -0.01322604 -0.0132384
 -0.0132975 -0.01337553 -0.01347623 -0.0135419 -0.01356521 -0.01349757 -0.01333074 -0.01308767 -0.0127696 -0.01244878
 -0.01212481 -0.01181526 -0.01151351 -0.01118631 -0.01083983 -0.01047746 -0.01010869 -0.009763656 -0.009429908 -0.00910281
 -0.008765184 -0.008391731 -0.00798681 -0.007543412 -0.007075904 -0.006589252 -0.006096132 -0.005599866 -0.00511827 -0.004656635
 -0.004223146 -0.003821578 -0.003439283 -0.003074911 -0.002727326 -0.002396491 -0.002099273 -0.001834572 -0.001593881 -0.001374169
 -0.001149187 -0.0009263079 -0.000716361 -0.0005292612 -0.0003989387 -0.0003156164 -0.0002812908 -0.0002779638 -0.0002834543 -0.0002952554
 -0.0003039452 -0.000312573 -0.0003211166 -0.0003295749 -0.0003363636 -0.000349117 -0.0003698457 -0.0004014885 -0.000446297 -0.0004916093
 -0.000535623 -0.000581584 -0.0006296632 -0.00070825 -0.0008174161 -0.0009672511 -0.001153294 -0.001354442 -0.001567765 -0.001772502
 -0.001967549 -0.002140626 -0.002290805 -0.002407777 -0.002501421 -0.00257559 -0.002648543 -0.002735914 -0.00284792 -0.002992811
 -0.003179403 -0.003411104 -0.003700093 -0.004054418 -0.00445556 -0.004906306 -0.005352777 -0.005789352 -0.006189336 -0.006551057
 -0.006903929 -0.007249457 -0.007617379 -0.008002653 -0.008392301 -0.008777102 -0.009118324 -0.009409508 -0.009612319 -0.009735513
 -0.009767379 -0.009743019 -0.009694032 -0.009657112 -0.009677311 -0.009752739 -0.00990188 -0.01008629 -0.01030013 -0.01049599
 -0.01066364 -0.01075881 -0.01077125 -0.01068678 -0.01049884 -0.01027076 -0.01000584</values></Ydata></AB><ScSm><Ydata ylabel="Single channel"><values byteorder="INTEL" format="FLOAT32" numvalues="1814"> 0.07321631 0.07323748 0.07332268 0.07349123 0.07371663 0.07394058 0.07410932 0.07420616 0.07424377 0.07423139
 0.07418028 0.07414305 0.07420145 0.07438707 0.07463351 0.07482257 0.07487874 0.07483426 0.07481004 0.07489868
 0.07503882 0.07503168 0.07472666 0.0741953 0.07368617 0.07339439 0.07333978 0.07351771 0.07402174 0.07479875
 0.07537858 0.07521299 0.07436384 0.07353276 0.07327965 0.07348677 0.07368866 0.0736102 0.07324947 0.0727752
 0.07257948 0.07317085 0.07467377 0.07641757 0.07717531 0.07593264 0.07260941 0.06830259 0.06489163 0.06403016
 0.0659744 0.06923975 0.07171683 0.07235795 0.07168251 0.07071327 0.06988029 0.0691461 0.06870344 0.0690119
 0.07015395 0.07140721 0.07161218 0.07015361 0.0676939 0.06571849 0.06518918 0.06592936 0.06740186 0.06929752
 0.07074009 0.06981927 0.06546223 0.05982674 0.05735151 0.06053736 0.06727749 0.07292806 0.07444659 0.07208
 0.06800205 0.0645111 0.06318573 0.06445311 0.06748591 0.07089834 0.07360182 0.07486001 0.07409585 0.07138754
 0.06796163 0.06559645 0.06552587 0.06795877 0.0720374 0.07590723 0.07755782 0.07631341 0.07328552 0.07019311
 0.06822659 0.068056 0.07000007 0.07368386 0.07802273 0.08186254 0.08445507 0.08551352 0.08525917 0.08428566
 0.08310895 0.08208777 0.08175064 0.0824687 0.08359347 0.08370312 0.08215863 0.07996033 0.07871532 0.07897289
 0.07978694 0.07986474 0.07887307 0.07721697 0.07475394 0.07078667 0.06564942 0.06111939 0.05863998 0.05822536
 0.05952302 0.06238109 0.06560132 0.06684757 0.06519063 0.06275292 0.06259682 0.06546424 0.06939219 0.07213309
 0.07323987 0.07392944 0.07550283 0.0780049 0.08003636 0.07979973 0.07687871 0.07325283 0.07189941 0.07387109
 0.07729051 0.07967646 0.08057018 0.08126102 0.08253106 0.08344086 0.0823006 0.07866611 0.07443058 0.0726689
 0.07496221 0.07981265 0.08372346 0.08378705 0.07964382 0.07357652 0.06873032 0.06693387 0.06819144 0.07186376
 0.07737681 0.0836154 0.08864249 0.0907798 0.08983101 0.08697993 0.08344492 0.07935489 0.07439068 0.06965603
 0.06790803 0.07094429 0.07729653 0.0834545 0.08700316 0.08782822 0.08673917 0.08396594 0.07938774 0.07398539
 0.07032384 0.07056461 0.07387542 0.07690164 0.07728618 0.07581603 0.07469562 0.07477467 0.07523359 0.07529431
 0.07531983 0.07619748 0.07808833 0.08008899 0.08111909 0.0809125 0.08006318 0.07932211 0.0789147 0.07838631
 0.07724562 0.07594894 0.07584436 0.07769569 0.08062825 0.08302547 0.08414616 0.08439048 0.08422925 0.08339006
 0.08126868 0.07808284 0.07534555 0.07474597 0.07651202 0.0792666 0.0814615 0.08249183 0.0825401 0.08201092
 0.08126113 0.08048795 0.07978427 0.07938428 0.07960819 0.0804047 0.08124594 0.08165608 0.08159969 0.08124795
 0.08064397 0.07976632 0.078767 0.07798152 0.07768964 0.07790269 0.07840253 0.07894168 0.07933021 0.07939532
 0.07904498 0.0784032 0.0777351 0.07720527 0.07682036 0.07659011 0.07658334 0.07678889 0.0770452 0.07717254
 0.07711676 0.0769303 0.07666688 0.07634045 0.07596461 0.07559576 0.075328 0.07522797 0.07525741 0.07529494
 0.0752733 0.07524855 0.0752759 0.07527643 0.07511867 0.07479868 0.07445344 0.07421029 0.07408651 0.07402162
 0.07394245 0.07377914 0.07346679 0.07300062 0.07250559 0.07218999 0.07217854 0.07241835 0.07276268 0.07308376
 0.07328992 0.07332967 0.0732322 0.07308281 0.07292287 0.07271848 0.07244188 0.07214726 0.07195328 0.07195275
 0.07212582 0.07234674 0.07249136 0.07252251 0.07247247 0.07239645 0.07235345 0.07236708 0.07238197 0.07231341
 0.07215646 0.07200186 0.0719337 0.07194208 0.07194306 0.07187217 0.07175452 0.07167651 0.07168752 0.07175159
 0.07180291 0.07181914 0.07182474 0.07184064 0.07184324 0.07177599 0.07161412 0.07141149 0.07125528 0.07117816
 0.07114796 0.0711357 0.07114956 0.07119627 0.07124645 0.07125618 0.07121243 0.07114343 0.07107995 0.07101342
 0.07090679 0.07074621 0.07056465 0.07041027 0.07030427 0.07023122 0.07015892 0.07006462 0.06994566 0.06980895
 0.06965767 0.06949084 0.06930737 0.06910981 0.0689148 0.06875643 0.06865738 0.06859294 0.06850174 0.06834145
 0.06812737 0.06791303 0.06773661 0.06759006 0.06744152 0.06728018 0.06712747 0.06700718 0.06692158 0.06685829
 0.06680421 0.06675062 0.06670435 0.06669986 0.0667792 0.06694366 0.06713505 0.06728192 0.06736269 0.06741346
 0.06748032 0.06757897 0.06769893 0.0678301 0.06797832 0.06815635 0.06835666 0.0685387 0.06866203 0.06873503
 0.06881005 0.06892783 0.06908786 0.0692706 0.06945622 0.06961848 0.06973562 0.06982055 0.06991544 0.07004381
 0.07018797 0.07032207 0.07044864 0.0705892 0.07075366 0.07093588 0.07113402 0.07135928 0.07162137 0.07191104
 0.072198 0.07244672 0.0726437 0.07281713 0.07302296 0.07329983 0.0736353 0.07397839 0.07428545 0.07455373
 0.07481153 0.07508048 0.07535795 0.07564058 0.07594773 0.07630127 0.07668997 0.07707659 0.0774388 0.07778461
 0.07812884 0.07847314 0.07881211 0.07914806 0.07949425 0.07986317 0.08024816 0.08061945 0.08094857 0.08123773
 0.08151785 0.08182004 0.08215344 0.08249961 0.0828177 0.08307116 0.08326912 0.08347003 0.08372173 0.08400702
 0.08427331 0.08450814 0.0847545 0.08504851 0.08537124 0.0856746 0.08593705 0.08617939 0.08643319 0.08670297
 0.08695798 0.08716013 0.08730373 0.08742475 0.08756745 0.08775152 0.08798034 0.08826283 0.08860113 0.08896358
 0.08929659 0.08956572 0.08977149 0.08993509 0.09008908 0.09027004 0.09049465 0.09074526 0.09099071 0.09120989
 0.09139048 0.09153248 0.09166767 0.09184785 0.09209453 0.09238248 0.09268695 0.09301798 0.09338644 0.09376493
 0.09411702 0.09445317 0.0948181 0.09521675 0.09558722 0.09586574 0.09605235 0.09619044 0.09631132 0.09643525
 0.0966051 0.09687001 0.09723273 0.09764289 0.09804565 0.09841824 0.09876344 0.09908818 0.09939101 0.09965958
 0.09987824 0.100042 0.1001659 0.100282 0.1004256 0.1006107 0.1008117 0.1009772 0.1010643 0.1010519
 0.1009249 0.1006721 0.1003161 0.09992134 0.09954026 0.09915197 0.09867481 0.09804311 0.09725413 0.09633971
 0.09531925 0.09419918 0.09300698 0.09180593 0.09067494 0.08968362 0.08889174 0.08836542 0.08817538 0.08835582
 0.08885235 0.08951285 0.09013628 0.09053741 0.09058687 0.09022938 0.08949162 0.08846778 0.08727687 0.08602077
 0.08476897 0.08355691 0.08238344 0.08122703 0.08009204 0.07904622 0.07821421 0.0777626 0.07791878 0.07896473
 0.08110322 0.08424479 0.08793484 0.09155652 0.09465571 0.09710492 0.09901914 0.1005819 0.1019407 0.1031802
 0.1043238 0.1053606 0.1062857 0.1071136 0.1078536 0.1084924 0.1090044 0.1093689 0.1095817 0.1096638
 0.1096579 0.1096112 0.1095654 0.109556 0.1095987 0.1096601 0.1096542 0.1094785 0.1090573 0.1083588
 0.1073905 0.1062107 0.1050114 0.104228 0.1044861 0.1062594 0.1094705 0.1134514 0.1173513 0.1206004
 0.1230516 0.124825 0.126116 0.1271012 0.1279119 0.1286305 0.1293004 0.129935 0.1305277 0.1310681
 0.1315594 0.1320218 0.1324828 0.1329598 0.1334469 0.1339194 0.1343592 0.134775 0.1351957 0.1356452
 0.1361225 0.1366019 0.1370578 0.1374892 0.1379126 0.1383324 0.1387368 0.1391215 0.1395002 0.1398881
 0.1402915 0.140709 0.1411286 0.1415262 0.1418842 0.14221 0.1425254 0.1428431 0.1431623 0.1434804
 0.1437989 0.1441197 0.1444417 0.1447653 0.1450968 0.1454397 0.1457785 0.146082 0.1463363 0.1465655
 0.1468095 0.1470848 0.1473758 0.1476586 0.1479282 0.1482031 0.1485075 0.1488456 0.1491916 0.1495086
 0.1497801 0.1500219 0.1502649 0.1505286 0.1508124 0.1511054 0.1513988 0.1516884 0.1519745 0.1522597
 0.1525444 0.152824 0.1530939 0.153357 0.1536201 0.1538865 0.1541558 0.1544288 0.1547078 0.1549965
 0.1552987 0.1556109 0.1559154 0.1561892 0.156424 0.1566336 0.156839 0.1570528 0.1572769 0.1575096
 0.1577509 0.1580009 0.1582568 0.1585147 0.158776 0.1590462 0.1593241 0.1595987 0.1598587 0.1601045
 0.1603474 0.1605996 0.1608654 0.1611377 0.1614039 0.1616557 0.1618955 0.1621335 0.1623794 0.1626368
 0.1629008 0.1631636 0.1634215 0.1636771 0.1639324 0.164186 0.1644363 0.1646841 0.1649325 0.165183
 0.165432 0.1656735 0.1659082 0.166146 0.1663952 0.1666538 0.1669144 0.1671724 0.1674262 0.1676768
 0.1679282 0.1681825 0.1684362 0.168684 0.1689269 0.1691713 0.1694206 0.1696701 0.1699101 0.1701361
 0.1703555 0.1705807 0.1708158 0.1710552 0.1712928 0.1715288 0.1717677 0.1720127 0.1722604 0.1725039
 0.1727409 0.1729775 0.1732182 0.173461 0.1737024 0.1739415 0.1741793 0.1744211 0.1746749 0.174941
 0.1752091 0.1754697 0.1757223 0.1759712 0.1762183 0.1764609 0.1766947 0.1769202 0.177145 0.177375
 0.1776081 0.1778429 0.1780835 0.1783317 0.1785804 0.178823 0.179061 0.1792994 0.1795409 0.1797836
 0.1800249 0.1802675 0.1805186 0.1807795 0.181042 0.1813011 0.1815579 0.1818104 0.1820535 0.1822901
 0.1825281 0.1827703 0.1830169 0.1832692 0.1835262 0.183784 0.1840407 0.1842933 0.1845366 0.1847723
 0.1850083 0.1852476 0.1854897 0.1857372 0.1859895 0.1862383 0.1864806 0.186723 0.1869695 0.1872178
 0.1874672 0.1877165 0.1879615 0.1882024 0.1884411 0.1886733 0.1888994 0.1891335 0.1893843 0.1896415
 0.1898933 0.1901373 0.1903732 0.1906028 0.1908327 0.1910627 0.191285 0.1915022 0.1917198 0.1919205
 0.1920534 0.1919997 0.1914614 0.1898386 0.1862127 0.1795341 0.1690427 0.154745 0.137577 0.1190756
 0.1008179 0.08400807 0.06935147 0.05714481 0.04743935 0.04014836 0.03510636 0.03216445 0.0312987 0.03273068
 0.03705601 0.04488884 0.05552389 0.06575753 0.07114228 0.06950469 0.06302346 0.05624064 0.05228904 0.05138781
 0.05220304 0.05359957 0.05521341 0.057237 0.06001291 0.06364717 0.06798998 0.07304908 0.07918477 0.08664909
 0.09504454 0.1034926 0.1113828 0.1188466 0.1264542 0.134523 0.1427787 0.1506214 0.1575996 0.1636321
 0.1689129 0.1737028 0.1781826 0.1824336 0.1864937 0.1903594 0.1938948 0.1967896 0.1987099 0.1995536
 0.1995692 0.1992113 0.1988736 0.1987404 0.1988338 0.1991268 0.1995939 0.2002103 0.2009497 0.2017839
 0.2026773 0.2035943 0.2045082 0.205396 0.2062349 0.2070138 0.2077361 0.2084069 0.2090243 0.2095847
 0.2100874 0.2105378 0.210953 0.211355 0.2117543 0.212147 0.2125258 0.2128837 0.2132131 0.2135095
 0.2137762 0.2140227 0.2142611 0.2145016 0.2147441 0.2149787 0.2151996 0.2154133 0.2156298 0.2158526
 0.21608 0.2163109 0.2165451 0.2167816 0.217016 0.2172397 0.2174473 0.2176441 0.2178417 0.2180478
 0.2182638 0.2184872 0.2187117 0.21893 0.219141 0.2193495 0.2195601 0.2197752 0.2199965 0.2202227
 0.220451 0.2206843 0.2209265 0.2211727 0.2214141 0.2216506 0.2218867 0.222124 0.2223665 0.2226199
 0.2228751 0.2231036 0.2232848 0.2234322 0.2235892 0.2237959 0.2240549 0.2243301 0.2245845 0.2248143
 0.2250374 0.2252631 0.2254853 0.2256952 0.2258934 0.2260988 0.2263382 0.2266167 0.2269115 0.2272037
 0.2274951 0.2277871 0.2280736 0.2283571 0.2286395 0.2288966 0.2290966 0.2292529 0.229436 0.2297218
 0.2301215 0.2305622 0.2309486 0.2312475 0.2314994 0.2317637 0.2320728 0.2324039 0.2326622 0.2327518
 0.2327209 0.2327809 0.2331103 0.2336756 0.2342919 0.234813 0.2352195 0.2355645 0.2358877 0.2361766
 0.2363817 0.2364721 0.2365012 0.2366203 0.2369744 0.2375505 0.2381711 0.238672 0.2390333 0.2393163
 0.2395683 0.2398096 0.2399976 0.2399826 0.239666 0.2392616 0.2392318 0.2398407 0.2408594 0.2418109
 0.2424402 0.2428426 0.243196 0.2435409 0.243833 0.2439806 0.2437398 0.2428565 0.241566 0.240724
 0.241098 0.2425956 0.2444133 0.2458364 0.2466874 0.2471505 0.2474602 0.2477434 0.2479245 0.2477354
 0.2470132 0.2460923 0.2457192 0.2463622 0.2476857 0.2489145 0.2496295 0.2499842 0.2502841 0.2506435
 0.2509099 0.250622 0.2492677 0.2470423 0.2452318 0.2453108 0.247503 0.2505131 0.2528095 0.2539397
 0.254415 0.2545878 0.2541327 0.2526349 0.2502046 0.2474286 0.2452155 0.2446932 0.246455 0.2496056
 0.2522687 0.2534436 0.2538476 0.2546993 0.2562523 0.2577957 0.2585925 0.2584552 0.2576115 0.2562922
 0.2546247 0.2530286 0.2524485 0.2536803 0.2564085 0.2593191 0.2613163 0.2623537 0.2628652 0.2624851
 0.259786 0.2539955 0.2471522 0.2435439 0.2459173 0.2525993 0.2592966 0.2633194 0.265045 0.2658967
 0.2664437 0.266249 0.2640972 0.2586354 0.2504822 0.2435975 0.2426168 0.248259 0.2565077 0.2623703
 0.2633154 0.2595577 0.2531232 0.2472209 0.2449437 0.2474036 0.253248 0.2599941 0.2655178 0.2686278
 0.2690534 0.2673292 0.2647436 0.2630258 0.2631066 0.2637381 0.2624235 0.2585748 0.2545009 0.2520033
 0.2495582 0.2451153 0.2406152 0.2407035 0.2467095 0.2544416 0.2589027 0.2593513 0.2583939 0.2572129
 0.2535042 0.2447763 0.2330712 0.2250271 0.2260716 0.2348044 0.2442646 0.248746 0.2483237 0.2467957
 0.2465947 0.24631 0.2426898 0.2348953 0.2266021 0.2229018 0.2248747 0.2285991 0.2297587 0.2271018
 0.2209195 0.2115972 0.2020216 0.1984569 0.2052364 0.2194088 0.2330854 0.2399676 0.237616 0.2259323
 0.2079593 0.1917005 0.1862385 0.1936103 0.2063506 0.2143839 0.2130076 0.2036624 0.1896085 0.1737092
 0.1598064 0.153053 0.1567644 0.1690955 0.1832708 0.1910045 0.1870198 0.1730708 0.1582221 0.1523074
 0.1570456 0.1649446 0.1677667 0.1640229 0.1577248 0.1530889 0.152061 0.1542402 0.1573589 0.1593097
 0.159835 0.1583461 0.1516311 0.1378181 0.1218957 0.1125296 0.1130194 0.1194898 0.1278858 0.1375922
 0.1470202 0.1511175 0.1470483 0.1396046 0.1372036 0.142993 0.1521572 0.1578751 0.1581485 0.1562213
 0.1555394 0.1559899 0.1557227 0.1553258 0.1579389 0.1648899 0.1733055 0.1792648 0.1818376 0.1827526
 0.1834429 0.1839597 0.1839567 0.1833246 0.1821271 0.1806931 0.179507 0.178635 0.177634 0.1761446
 0.1738881 0.1698536 0.1626024 0.1525294 0.1431806 0.138567 0.1390541 0.141632 0.1441976 0.1467136
 0.1473332 0.1413409 0.1272773 0.1119251 0.1054032 0.1114529 0.1246785 0.136708 0.1426112 0.141353
 0.133306 0.1204231 0.108309 0.10456 0.1127156 0.1289859 0.1463495 0.1604959 0.1703915 0.1751901
 0.1737376 0.167095 0.1594944 0.1559969 0.1594746 0.1692922 0.1814542 0.1895709 0.18795 0.1772781
 0.1673843 0.1700417 0.1864912 0.2052796 0.2151152 0.2164027 0.216747 0.2191332 0.2203555 0.2193451
 0.220607 0.2279143 0.2386154 0.2461956 0.2460227 0.237197 0.2218539 0.205534 0.1958145 0.1964089
 0.2031447 0.208639 0.209529 0.206087 0.1978107 0.1852667 0.174872 0.1750513 0.1864184 0.2004851
 0.2093329 0.2128765 0.2153932 0.2181374 0.2178243 0.2116363 0.2019295 0.1948139 0.1941001 0.1979164
 0.2018214 0.2034607 0.2026907 0.1990031 0.1918248 0.1833319 0.1784353 0.1805677 0.1882087 0.1963817
 0.2011594 0.2021417 0.2012165 0.200157 0.1994515 0.1984985 0.1967946 0.1954673 0.1970652 0.2027502
 0.2102792 0.2162149 0.2198322 0.2233823 0.228588 0.2342889 0.2378753 0.2381763 0.2366239 0.2360396
 0.23836 0.243057 0.2474954 0.249153 0.2479944 0.2467124 0.2482484 0.2529837 0.2586853 0.2630372
 0.2655465 0.2670618 0.2683829 0.269582 0.2699684 0.2686208 0.265692 0.2631847 0.2635478 0.2672586
 0.2723633 0.2764791 0.2787034 0.2795344 0.2796142 0.2790266 0.27766 0.2758372 0.2743286 0.273756
 0.2741477 0.275103 0.2762119 0.2772453 0.2781274 0.2788902 0.2796084 0.2803147 0.2809982 0.2816657
 0.2823206 0.2828901 0.2832828 0.2835442 0.2838624 0.2843567 0.2849273 0.2853716 0.2855798 0.2855273
 0.2851412 0.2843179 0.2830769 0.2815698 0.2798999 0.2780486 0.2760973 0.2744823 0.2738795 0.2747146
 0.2767713 0.2793166 0.281602 0.2832421 0.2842195 0.2846965 0.2848796 0.2849565 0.2850435 0.2851576
 0.2852575 0.2853147 0.2853429 0.285372 0.285419 0.2854932 0.2856089 0.2857669 0.2859312 0.2860413
 0.2860488 0.2859428 0.2857522 0.285528 0.2853046 0.2850657 0.2847567 0.284332 0.283789 0.2831678
 0.2825308 0.2819341 0.2813875 0.2808366 0.2801968 0.279408 0.2784342 0.2772276 0.2757531 0.2740719
 0.2723442 0.2707047 0.2691628 0.2676474 0.2661025 0.2645047 0.2628333 0.2610758 0.2592484 0.2573806
 0.2554919 0.2535942 0.2517019 0.2498238 0.2479505 0.2460583 0.2441229 0.2421307 0.2400835 0.237983
 0.235794 0.2334157 0.2307026 0.2275207 0.2237823 0.2194451 0.2145189 0.209097 0.2033624 0.1975417
 0.1918437 0.1864295 0.1814182 0.1769156 0.1730375 0.1698914 0.1675309 0.1659404 0.1650686 0.1648656
 0.1652929 0.1663132 0.16787 0.1698654 0.1721577 0.1745796 0.1769594 0.1791506 0.1810807 0.1827871
 0.1843887 0.1860014 0.1876673 0.189356 0.1910176 0.1926159 0.1941096 0.1954384 0.196559 0.1974875
 0.1982817 0.1989856 0.1996054 0.2001281 0.2005449 0.2008539 0.2010497 0.2011266 0.2010978 0.2010072
 0.2009189 0.2009082 0.2010702 0.2015107 0.2022999 0.2034333 0.2048387 0.2064203 0.2081041 0.2098608
 0.2116913 0.2136001 0.2155942 0.2177044 0.2199772 0.222439 0.2250739 0.2278307 0.2306347 0.233394
 0.2360101 0.2383975 0.2405092 0.2423456 0.2439295 0.2452699 0.2463593 0.2471973 0.2478042 0.2482221
 0.2485094 0.2487206 0.248878 0.2489721 0.2489827 0.2488908 0.2486876 0.2483958 0.2480669 0.2477399
 0.2474135 0.2470686 0.246707 0.2463564 0.2460446 0.2457726 0.2455133 0.2452393 0.2449433 0.244627
 0.2442816 0.2438886 0.2434229 0.242849 0.2421293 0.2412437 0.2401899 0.2389715 0.2376011 0.2361087
 0.2345319 0.232891 0.2311756 0.2293555 0.227408 0.2253333 0.2231378 0.2208219 0.2184081 0.2159694
 0.2136016 0.2113663 0.2092695 0.2072776 0.2053466 0.2034538 0.2016157 0.1998639 0.1982115 0.1966514
 0.1951747 0.1937701 0.1924202 0.1911187 0.1898904 0.1887866 0.1878526 0.1870884 0.1864396 0.1858397
 0.1852617 0.1847206 0.1842471 0.1838739 0.1836243 0.1834799 0.1833675 0.183199 0.1829292 0.1825774
 0.1822023 0.1818529 0.181538 0.1812434 0.1809601 0.1806694 0.1803079 0.1797714 0.1789531 0.1777776
 0.1762239 0.174336 0.1722101 0.1699703 0.1677563 0.1657039 0.1639093 0.1624158 0.161224 0.1602875
 0.1595168 0.1588338 0.1582341 0.1577835 0.157554 0.1575439 0.1576368 0.1576631 0.1575473 0.1573831
 0.1573446 0.1575458 0.1579806 0.158544 0.1590933 0.1595262 0.1598123 0.159954 0.1599596 0.1598572
 0.1596828 0.1594421 0.1591223 0.1587303 0.1582874 0.1578019 0.1572657 0.1566576 0.1559526 0.1551485
 0.1542649 0.1533061 0.1522631 0.1511388 0.1499177 0.1485547 0.1470826 0.1457072 0.1447219 0.1443265
 0.1445194 0.1451093 0.1458474 0.1465932 0.1472916 0.1477778 0.1478174 0.147509 0.147491 0.1484829
 0.1505794 0.1531137 0.1552312 0.1564972 0.1569467 0.156754 0.1560358 0.1548628 0.1532454 0.1511329
 0.1485407 0.1456065 0.1424696 0.139234 0.1360667 0.1331661 0.1306454 0.1285446 0.1268798 0.1257046
 0.1251558 0.1248375 0.1227868 0.1165048 0.106803 0.09952039 0.1006225 0.1094947 0.1193613 0.1244453
 0.1245729 0.1228054 0.121261 0.120268 0.1197268 0.1197823 0.1205595 0.1219004 0.1233808 0.1245617
 0.1252761 0.125587 0.1254619 0.124544 0.1221219 0.117365 0.1099799 0.1008229 0.09162734 0.0839866
 0.07863244 0.07545432 0.07384157 0.0730374 0.07251039 0.07219811 0.07240428 0.07344232 0.07536675 0.07800739
 0.08114874 0.08454157 0.08779563 0.09050301 0.09254264 0.09409621 0.0953223 0.09617154 0.09653538 0.09641442
 0.0959091 0.09515414 0.0942805 0.09336647 0.09239183 0.09127353 0.09000748 0.08879051 0.08792014 0.08751994
 0.08743896 0.08745452 0.0874642 0.0874548 0.08742397 0.08738525 0.08736995 0.08742027 0.08761365 0.08801708
 0.08856861 0.0890868 0.08943497 0.0896221 0.089742 0.0898331 0.08977529 0.08939214 0.08874172 0.08815901
 0.08781829 0.08741453 0.08655149 0.08534248 0.08435497 0.08400264 0.08419609 0.0845494 0.08473741 0.08465482
 0.08441868 0.08430983 0.08457875 0.0851544</values></Ydata></ScSm><ScRf><Ydata ylabel="Single channel"><values byteorder="INTEL" format="FLOAT32" numvalues="1820"> 0.06069516 0.06083923 0.06092685 0.06096252 0.06096967 0.06098825 0.0610601 0.06120268 0.06139246 0.06157443
 0.06169898 0.06175692 0.06176962 0.06174953 0.0617011 0.061663 0.06170537 0.06185938 0.06206866 0.06222663
 0.06226366 0.06221066 0.06218062 0.06225683 0.06237931 0.06236832 0.06209508 0.06162877 0.06118757 0.06093769
 0.06089184 0.06103934 0.06145439 0.06209562 0.06257634 0.06243959 0.0617326 0.06103926 0.06083003 0.06100783
 0.06117846 0.06110451 0.06078281 0.0603617 0.06017988 0.06066824 0.06192707 0.06338689 0.06401712 0.0629728
 0.06019351 0.05659781 0.05375004 0.05302357 0.05463102 0.05733889 0.05939227 0.05991781 0.05934908 0.05854248
 0.05785827 0.05725803 0.05689064 0.05713524 0.05806889 0.05909912 0.05925971 0.05803335 0.05597287 0.05432046
 0.05387653 0.05448994 0.05571374 0.05729215 0.05849052 0.05771331 0.05407488 0.04938531 0.04734073 0.05000971
 0.0556275 0.06032838 0.06158391 0.05960419 0.05620611 0.05330854 0.05222047 0.05328533 0.05580833 0.05863789
 0.06086897 0.06188869 0.06122527 0.05895917 0.05611856 0.05417484 0.05413907 0.05617324 0.05955942 0.06275849
 0.06410837 0.06305697 0.06053161 0.05795918 0.05632764 0.05619362 0.05781891 0.06088645 0.06449274 0.06768177
 0.06983475 0.07071143 0.07049255 0.0696751 0.06869806 0.06786388 0.06760038 0.06819758 0.06911145 0.06917595
 0.06787923 0.06605522 0.06502606 0.06523749 0.06590617 0.06596673 0.06514461 0.06377067 0.06172103 0.05841774
 0.05414412 0.05037854 0.04831711 0.04797214 0.04905929 0.05145836 0.05416537 0.05522297 0.05385095 0.0518177
 0.05167674 0.05405013 0.05730979 0.05959072 0.06052257 0.06111416 0.06244077 0.06453311 0.06622405 0.06601989
 0.06358111 0.06056479 0.05945484 0.061124 0.06400014 0.06601223 0.06678097 0.06738494 0.0684744 0.06925896
 0.06832755 0.06532156 0.06183357 0.06042052 0.06237517 0.06643438 0.06969352 0.06974383 0.06628977 0.06123808
 0.05722192 0.05577437 0.0568991 0.06006094 0.06477851 0.07011502 0.07444362 0.07634775 0.07564488 0.07331671
 0.07039353 0.06699824 0.06287035 0.05894816 0.05757139 0.06026509 0.06577975 0.07113253 0.0742716 0.07509714
 0.07428893 0.07202812 0.06820191 0.06366249 0.06064196 0.06101603 0.06404906 0.06681438 0.06726721 0.06611072
 0.06527909 0.06550983 0.06607305 0.06628558 0.06648224 0.0674555 0.06933717 0.07131162 0.07241807 0.07242441
 0.0718599 0.07139444 0.07122757 0.07094154 0.07009049 0.06910472 0.06922788 0.07115196 0.07405806 0.07645541
 0.07767215 0.07809255 0.0781557 0.07759351 0.07582424 0.07305071 0.07070635 0.07038717 0.07230183 0.07514166
 0.07744059 0.07863096 0.07889533 0.07862456 0.07815617 0.07767221 0.0772588 0.07713869 0.07761417 0.07863034
 0.07967848 0.08030398 0.08047556 0.08035455 0.07997587 0.07932487 0.0785716 0.07805942 0.07805149 0.07853243
 0.07927368 0.08004072 0.08066307 0.08097246 0.08086339 0.08044691 0.07999188 0.07967644 0.07951599 0.07952371
 0.07976943 0.080234 0.08073933 0.08109561 0.0812525 0.08127081 0.08120839 0.08107875 0.08089389 0.08071578
 0.08065465 0.08078652 0.08105717 0.08132005 0.08150785 0.0817006 0.08196352 0.08219381 0.08222754 0.08205776
 0.08185112 0.08176382 0.08181395 0.08192585 0.08202071 0.08202928 0.08187579 0.0815427 0.08116738 0.08099318
 0.08117259 0.08165605 0.08227975 0.08288273 0.08333236 0.08355419 0.08359297 0.08357041 0.08354589 0.08347226
 0.08330464 0.08310649 0.08302878 0.08319113 0.08357468 0.08403215 0.08440831 0.08463612 0.08473313 0.08477275
 0.08485992 0.08504758 0.08525302 0.0853337 0.08526782 0.08519097 0.08523151 0.08536397 0.085453 0.08541539
 0.08531483 0.08529503 0.08542982 0.08565792 0.08586746 0.08601844 0.08616361 0.08635734 0.0865588 0.08664637
 0.08654922 0.08634624 0.08618933 0.08614234 0.08615674 0.08619831 0.08631 0.08651768 0.08674305 0.08687133
 0.08688238 0.08686583 0.08690423 0.08697533 0.08698602 0.0868822 0.08670327 0.0865399 0.08646241 0.08648422
 0.08656479 0.08663566 0.08664051 0.08656952 0.08645873 0.08635211 0.08626982 0.08622342 0.08625169 0.08640359
 0.08665893 0.08688703 0.08692924 0.08674303 0.08645189 0.08623678 0.08617584 0.08619255 0.08615187 0.08599003
 0.08574912 0.08551136 0.08532706 0.08519924 0.08510701 0.08503321 0.08498645 0.08500505 0.08511521 0.08526605
 0.08533232 0.08521974 0.0849628 0.0846913 0.08451046 0.08443724 0.08442859 0.08443289 0.08442831 0.08444154
 0.08450986 0.08460802 0.08465023 0.08458976 0.08448049 0.08442175 0.08447785 0.08465138 0.08488008 0.08505133
 0.08507817 0.08498488 0.08488249 0.08485353 0.08489383 0.0849625 0.08504165 0.08513215 0.08522794 0.08532324
 0.08543396 0.08559072 0.08580813 0.08606447 0.08630891 0.08649065 0.08659764 0.08667827 0.08681455 0.08705601
 0.08737642 0.08769795 0.08795795 0.08815415 0.08832969 0.08851919 0.08872025 0.08892347 0.08914946 0.08942845
 0.08975262 0.09007981 0.09038231 0.09066602 0.09094469 0.09122084 0.09149578 0.09178688 0.09212825 0.09254256
 0.09299569 0.09339266 0.09365188 0.09378782 0.09390458 0.09411106 0.09444375 0.09484258 0.09518413 0.09537488
 0.09544581 0.09553054 0.09572275 0.09598391 0.09622499 0.09644715 0.0967446 0.09717083 0.09765078 0.09804641
 0.09828872 0.09842896 0.09856847 0.09875198 0.09893555 0.09905814 0.09912717 0.09920929 0.09934521 0.09951784
 0.09971792 0.09998953 0.1003677 0.1008022 0.1011918 0.1014803 0.1016839 0.1018406 0.1019684 0.1020641
 0.1021159 0.1021263 0.1021347 0.1021926 0.1022994 0.1023941 0.1024334 0.1024501 0.1025111 0.1026481
 0.1028572 0.1031314 0.1034515 0.1037665 0.1040356 0.1042899 0.1046005 0.1049672 0.1052844 0.1054549
 0.1055008 0.1055199 0.1055635 0.1056167 0.1056829 0.1058163 0.1060544 0.1063685 0.1067032 0.1070353
 0.1073739 0.1077198 0.1080398 0.1082761 0.1083857 0.1083808 0.1083336 0.1083364 0.1084529 0.1086908
 0.1090059 0.1093316 0.1096142 0.1098206 0.1099221 0.1099044 0.1098161 0.1097727 0.1098641 0.1100541
 0.1102024 0.1101865 0.1099791 0.1096112 0.109109 0.1084925 0.1078127 0.1071562 0.1066051 0.1062038
 0.1059694 0.1059279 0.1061244 0.1065769 0.1072221 0.1079303 0.1085811 0.1090975 0.1094083 0.1094304
 0.1091271 0.1085611 0.107857 0.1071269 0.1064403 0.1058217 0.1052467 0.1046768 0.1041467 0.1038057
 0.1038458 0.1043852 0.1054123 0.1067971 0.1083312 0.1097909 0.1110235 0.1120042 0.1128074 0.1135215
 0.1141931 0.1148425 0.1154943 0.1161604 0.1168066 0.1173769 0.1178547 0.1182751 0.118676 0.1190609
 0.119407 0.1196899 0.1199079 0.1200935 0.1202835 0.120463 0.1205664 0.1205554 0.1204683 0.1203698
 0.1202729 0.1201299 0.1198825 0.1195123 0.1190673 0.1186699 0.1184943 0.1187013 0.1193564 0.1203894
 0.121641 0.1229583 0.1242426 0.1254127 0.1263746 0.127066 0.1275142 0.1278176 0.1280737 0.1283368
 0.1286232 0.1289277 0.1292357 0.1295352 0.1298243 0.1301112 0.1304094 0.1307265 0.1310481 0.1313436
 0.1316 0.1318471 0.1321363 0.132491 0.1328798 0.1332459 0.133567 0.1338748 0.1341999 0.1345156
 0.1347657 0.1349412 0.1350977 0.1352999 0.1355776 0.1359255 0.1363049 0.1366482 0.136902 0.1370768
 0.1372339 0.1374225 0.1376457 0.137884 0.1381261 0.1383713 0.1386206 0.1388796 0.1391608 0.1394659
 0.1397623 0.1399991 0.1401596 0.1402873 0.1404465 0.1406615 0.1409039 0.1411326 0.141336 0.1415435
 0.1417952 0.1420971 0.1424043 0.1426559 0.1428282 0.1429508 0.1430742 0.1432307 0.1434227 0.1436369
 0.1438591 0.1440786 0.1442901 0.1444988 0.1447161 0.1449446 0.145171 0.1453803 0.1455734 0.1457651
 0.1459656 0.1461726 0.1463839 0.146612 0.1468757 0.1471679 0.1474461 0.1476668 0.1478256 0.1479532
 0.1480808 0.1482229 0.1483849 0.1485707 0.1487786 0.1489985 0.1492167 0.1494238 0.1496214 0.149818
 0.1500195 0.1502251 0.1504332 0.1506443 0.1508606 0.1510845 0.1513177 0.1515543 0.1517801 0.1519825
 0.1521612 0.1523282 0.1524994 0.1526823 0.1528726 0.1530627 0.1532542 0.1534548 0.1536641 0.1538714
 0.1540678 0.1542546 0.1544386 0.1546246 0.1548132 0.1550033 0.1551948 0.1553876 0.1555789 0.1557672
 0.155958 0.1561578 0.1563644 0.1565695 0.1567694 0.1569692 0.1571757 0.1573902 0.1576066 0.1578147
 0.1580094 0.1581938 0.1583746 0.1585566 0.1587431 0.1589366 0.1591376 0.1593443 0.1595521 0.1597535
 0.1599449 0.160132 0.1603259 0.160532 0.1607473 0.1609647 0.1611765 0.1613805 0.1615844 0.1617976
 0.1620188 0.1622379 0.1624491 0.1626556 0.1628646 0.1630821 0.1633081 0.1635356 0.1637547 0.1639572
 0.1641412 0.1643133 0.1644854 0.1646623 0.1648382 0.1650082 0.165176 0.1653485 0.16553 0.1657231
 0.1659254 0.1661278 0.1663232 0.1665147 0.1667108 0.1669163 0.1671293 0.1673424 0.1675486 0.1677492
 0.1679511 0.1681579 0.1683684 0.1685814 0.1687925 0.1689953 0.1691897 0.1693831 0.1695806 0.1697848
 0.1699985 0.1702192 0.1704372 0.1706482 0.1708562 0.1710633 0.1712687 0.1714768 0.1716906 0.1719037
 0.1721099 0.1723118 0.1725146 0.1727199 0.1729262 0.1731309 0.1733345 0.173545 0.1737684 0.1739955
 0.1742151 0.1744291 0.1746438 0.1748588 0.1750742 0.1752911 0.1755025 0.1757026 0.1759005 0.1761086
 0.1763281 0.1765528 0.1767708 0.1769584 0.1770732 0.1770111 0.1764996 0.1749847 0.1716152 0.1654141
 0.1556737 0.1424049 0.126485 0.1093426 0.09243289 0.07686456 0.06329341 0.05200197 0.04303714 0.03630804
 0.03165374 0.0289368 0.0281352 0.02944951 0.03343042 0.04065643 0.05048918 0.05996963 0.06497248 0.06346843
 0.05746385 0.05116911 0.0474985 0.0466627 0.04742324 0.04871981 0.05020898 0.05207165 0.0546347 0.0580015
 0.06202728 0.06671001 0.07238299 0.07928777 0.08706308 0.0948931 0.1022025 0.1091042 0.1161291 0.1235846
 0.13123 0.138513 0.1450076 0.1506252 0.1555331 0.1599682 0.1641032 0.1680219 0.1717627 0.1753203
 0.1785702 0.1812345 0.1830126 0.1838062 0.1838323 0.1835048 0.1831931 0.1830727 0.1831629 0.1834335
 0.1838575 0.1844126 0.1850795 0.1858369 0.1866513 0.187488 0.1883262 0.1891506 0.1899417 0.1906845
 0.1913744 0.1920055 0.1925707 0.1930751 0.1935339 0.1939586 0.1943564 0.1947357 0.1951019 0.195454
 0.1957901 0.1961091 0.1964066 0.1966785 0.1969265 0.1971581 0.197381 0.1976 0.1978143 0.1980201
 0.1982174 0.1984111 0.1986056 0.1988035 0.1990068 0.1992126 0.1994139 0.1996072 0.1997956 0.199983
 0.2001706 0.2003613 0.2005573 0.2007551 0.2009496 0.201141 0.2013323 0.2015247 0.2017162 0.2019044
 0.2020908 0.2022839 0.2024921 0.202711 0.2029276 0.2031367 0.2033441 0.2035537 0.2037632 0.2039715
 0.2041803 0.2043917 0.2046084 0.2048302 0.2050448 0.2052331 0.2053908 0.2055394 0.2057114 0.2059253
 0.2061705 0.2064146 0.2066318 0.2068222 0.207004 0.2071916 0.2073855 0.207576 0.2077564 0.2079388
 0.2081465 0.2083826 0.2086241 0.2088557 0.209086 0.2093222 0.2095576 0.2097899 0.2100195 0.2102267
 0.2103872 0.2105168 0.2106802 0.210938 0.2112868 0.2116555 0.2119684 0.2122094 0.2124193 0.2126478
 0.2129208 0.2132153 0.213439 0.213497 0.2134316 0.2134434 0.2137069 0.2141973 0.2147414 0.2151976
 0.2155451 0.2158345 0.2161035 0.2163377 0.2164885 0.2165291 0.2165135 0.2165811 0.2168623 0.2173475
 0.217881 0.2183133 0.2186169 0.2188399 0.2190247 0.219196 0.2193202 0.2192611 0.218923 0.2184968
 0.2184097 0.2189148 0.2198085 0.2206473 0.2211846 0.2215011 0.2217644 0.2220212 0.2222353 0.2223225
 0.2220575 0.2212054 0.2199774 0.2191557 0.2194487 0.2207778 0.2224081 0.2236825 0.224435 0.22483
 0.2250785 0.2252968 0.2254177 0.225196 0.2244808 0.2235771 0.2231731 0.2237083 0.2248805 0.2259698
 0.2265785 0.2268465 0.2270634 0.227337 0.2275226 0.2271964 0.225896 0.2238053 0.2220989 0.2221204
 0.2240711 0.2267658 0.2288032 0.2297709 0.2301422 0.2302465 0.2297876 0.2283829 0.2261325 0.2235725
 0.2215227 0.2209966 0.2225284 0.2253102 0.2276472 0.2286391 0.2289411 0.2296579 0.231016 0.2323685
 0.2330457 0.2328764 0.2320675 0.2308285 0.2292743 0.2277867 0.2272215 0.2282932 0.2307073 0.2332763
 0.2350194 0.2359019 0.2363129 0.2359126 0.2334055 0.2280995 0.2218497 0.2185374 0.2206374 0.2266254
 0.2326144 0.236174 0.2376545 0.238354 0.2387896 0.2385598 0.2365662 0.2315961 0.2242126 0.2179774
 0.2170515 0.2220708 0.2294254 0.2346413 0.2354507 0.2320382 0.226216 0.2208682 0.2187749 0.2209352
 0.2261407 0.2321678 0.2371049 0.2398755 0.2402354 0.2386673 0.2363303 0.2347792 0.2348434 0.2353921
 0.2341887 0.2307248 0.2270781 0.2248502 0.2226626 0.2186846 0.2146759 0.2148138 0.2202796 0.2272911
 0.231361 0.2318417 0.2310809 0.2301241 0.2268856 0.2191278 0.2086994 0.2015891 0.2026907 0.2107263
 0.2193983 0.2235672 0.2233319 0.2221417 0.2221962 0.2222137 0.2192399 0.212511 0.20538 0.2024844
 0.2047888 0.2087123 0.2103456 0.2085504 0.2035331 0.1955934 0.1874246 0.1849011 0.1920893 0.2062397
 0.219966 0.2273341 0.225974 0.2156876 0.1993303 0.1846379 0.1804495 0.1887489 0.2022419 0.2110879
 0.2106916 0.2024451 0.1895291 0.1748083 0.1622344 0.1571606 0.1630991 0.1782041 0.1953516 0.2056304
 0.2032198 0.1899601 0.1758665 0.1719021 0.1799243 0.1913801 0.1969086 0.1948557 0.1898523 0.1868706
 0.1883879 0.1940048 0.2008486 0.2062578 0.2099003 0.210684 0.2038523 0.1866899 0.1660824 0.1540002
 0.1550623 0.1641018 0.1757412 0.1892532 0.2024202 0.208177 0.2025834 0.1923265 0.1890748 0.1970863
 0.2095471 0.216922 0.216403 0.2124426 0.2098378 0.2086034 0.2063808 0.2039903 0.2056026 0.2130158
 0.2225332 0.2290844 0.2314788 0.2319636 0.2323838 0.2327802 0.2326813 0.2319332 0.2306047 0.2291029
 0.2280659 0.2276387 0.227333 0.2267747 0.2256651 0.2226034 0.2153907 0.2041175 0.1931442 0.1876502
 0.188132 0.1907414 0.1929895 0.1951912 0.1951474 0.1866679 0.167768 0.1473633 0.1387821 0.1468857
 0.1644488 0.1803745 0.1881956 0.1866114 0.1761347 0.1592594 0.1431191 0.1372938 0.1460102 0.1640708
 0.1823848 0.1957991 0.2037515 0.2059534 0.2013639 0.1912401 0.1804276 0.1746159 0.1768395 0.1861054
 0.1977685 0.2047911 0.201158 0.1878028 0.1752772 0.1760281 0.1913736 0.2093681 0.2182342 0.2183149
 0.2174232 0.2186949 0.2189663 0.2172128 0.2180114 0.225211 0.2362436 0.2446553 0.2457765 0.2385623
 0.2250157 0.2106947 0.2032782 0.2063724 0.2153496 0.2223361 0.2238179 0.2201827 0.2110733 0.1973688
 0.1861505 0.1864415 0.1987551 0.2139018 0.2234264 0.2273023 0.2301231 0.2331965 0.2329784 0.2264785
 0.2162926 0.209024 0.2087531 0.2134488 0.2183827 0.2211196 0.22154 0.2189894 0.2126839 0.2049339
 0.2011828 0.2052535 0.2153589 0.2257611 0.2319005 0.2332311 0.2318337 0.2297146 0.2274857 0.2245622
 0.2204824 0.21661 0.2158751 0.219654 0.2255697 0.2299251 0.2319347 0.2339938 0.237922 0.2424667
 0.2448334 0.2437346 0.2406072 0.2383486 0.2389844 0.2420611 0.2449893 0.2452583 0.2428271 0.2403868
 0.2408827 0.2447076 0.2496532 0.253421 0.2554919 0.2566498 0.2576339 0.2584953 0.2585673 0.2569779
 0.2538877 0.2512068 0.2512382 0.254391 0.2587924 0.2622257 0.2639192 0.2644082 0.2643095 0.2636826
 0.262396 0.2607105 0.2592879 0.2586704 0.2588927 0.2596163 0.2604842 0.2612768 0.2618871 0.2623004
 0.2625709 0.2627516 0.2628672 0.2629523 0.263039 0.2630909 0.2630423 0.2629366 0.2629387 0.2631497
 0.2634698 0.263701 0.2637215 0.2634882 0.2629358 0.2619998 0.2607354 0.2592985 0.2577707 0.2561056
 0.2543562 0.2529235 0.2524409 0.2533023 0.2552978 0.2577378 0.259926 0.2615124 0.2624929 0.2630155
 0.2632412 0.2633041 0.2632962 0.2632497 0.2631466 0.2629579 0.2626755 0.2623141 0.2619019 0.2614803
 0.2611018 0.2608004 0.2605553 0.2602956 0.2599537 0.259512 0.2590018 0.2584716 0.2579482 0.2574103
 0.256795 0.2560449 0.2551568 0.2541914 0.2532417 0.2523829 0.251627 0.2509183 0.250186 0.2493943
 0.2485231 0.2475301 0.2463939 0.2451984 0.2441113 0.2432426 0.2425531 0.2419167 0.2412351 0.2404693
 0.2396072 0.2386495 0.2376167 0.2365372 0.2354259 0.2342844 0.2331062 0.2318731 0.2305577 0.229143
 0.2276323 0.226045 0.2244129 0.2227688 0.2211066 0.2193495 0.2173688 0.2150344 0.2122422 0.2089141
 0.2050148 0.2005899 0.1957844 0.1908094 0.1858805 0.1811766 0.1768343 0.1729562 0.1696199 0.1668886
 0.1648167 0.1634407 0.1627713 0.1628044 0.1635294 0.1649136 0.1668862 0.1693392 0.1721349 0.1751086
 0.178083 0.1809009 0.1834711 0.1858012 0.1879741 0.1900577 0.1920341 0.1938335 0.1954218 0.1968169
 0.1980338 0.1990598 0.1998911 0.2005627 0.2011285 0.201625 0.2020609 0.2024346 0.2027495 0.2030126
 0.2032293 0.2034088 0.2035722 0.2037464 0.2039522 0.2041969 0.2044765 0.2047887 0.2051488 0.2055816
 0.2060896 0.2066448 0.2072198 0.2078119 0.2084305 0.2090839 0.2097931 0.2106044 0.2115675 0.2126994
 0.2139717 0.215329 0.2167107 0.218051 0.2192732 0.2203029 0.2210893 0.2216128 0.2218843 0.2219477
 0.2218641 0.2216761 0.2213915 0.2210075 0.2205378 0.2200064 0.2194292 0.21881 0.2181507 0.2174596
 0.2167534 0.216053 0.2153722 0.2147122 0.2140673 0.2134332 0.2128078 0.2121885 0.2115764 0.2109816
 0.2104152 0.2098712 0.2093256 0.2087608 0.2081806 0.2075897 0.2069654 0.2062653 0.20546 0.2045479
 0.2035366 0.2024249 0.2012107 0.1999077 0.1985376 0.1971086 0.1956097 0.1940308 0.1923769 0.1906536
 0.1888461 0.1869292 0.184911 0.1828588 0.1808695 0.1790141 0.1773136 0.1757508 0.1742913 0.1729017
 0.1715647 0.1702772 0.1690405 0.1678593 0.1667428 0.1656924 0.1646965 0.163747 0.1628537 0.1620362
 0.1613138 0.1606967 0.1601723 0.1597063 0.1592727 0.1588824 0.158579 0.1584098 0.1583882 0.1584664
 0.1585567 0.1585911 0.1585525 0.158456 0.158327 0.1581948 0.1580805 0.1579852 0.1578978 0.1577985
 0.1576441 0.1573602 0.1568541 0.1560376 0.1548625 0.1533506 0.1515875 0.1496977 0.1478288 0.1461276
 0.1446927 0.1435544 0.1426966 0.1420725 0.1416094 0.1412381 0.1409334 0.1407282 0.1406901 0.1408475
 0.1411097 0.1413062 0.1413581 0.1413723 0.1415334 0.141947 0.1425946 0.1433703 0.1441374 0.1447986
 0.1453218 0.1457017 0.145937 0.1460496 0.1460719 0.1460123 0.1458731 0.1456753 0.1454313 0.1451297
 0.1447638 0.1443366 0.1438426 0.1432784 0.142646 0.1419326 0.1411248 0.1402301 0.1392348 0.1381007
 0.1368777 0.1357731 0.135046 0.1348631 0.1352394 0.1360376 0.1370496 0.1381327 0.1391957 0.140034
 0.1403906 0.1403435 0.1404902 0.1415198 0.1435616 0.146043 0.1481991 0.1496319 0.1503501 0.1504584
 0.1500077 0.1490487 0.1476039 0.1456263 0.1431242 0.1402412 0.1371461 0.1339832 0.1309424 0.1282064
 0.1258549 0.1239207 0.1224308 0.1214257 0.121014 0.1208141 0.1189334 0.1129416 0.1036302 0.09669468
 0.09793164 0.1067071 0.1164032 0.1214014 0.1215489 0.1198475 0.1183742 0.1174401 0.11693 0.1169864
 0.1177426 0.1190531 0.1205214 0.1217361 0.1225237 0.1229243 0.1229034 0.1220996 0.1197665 0.1150421
 0.1076386 0.09843627 0.08920139 0.08156942 0.07628386 0.07319012 0.07162581 0.07082593 0.07028691 0.06998204
 0.07023429 0.07133818 0.07331198 0.07598355 0.07916354 0.08260761 0.08591603 0.08869635 0.09085195 0.09256338
 0.0939732 0.09501761 0.09557018 0.09562016 0.09527268 0.09466083 0.09390362 0.09308618 0.09220565 0.09116773
 0.08994329 0.08873372 0.08786047 0.08745717 0.08737293 0.08738511 0.08738583 0.08735941 0.08731127 0.08725233
 0.08719528 0.08717628 0.08728798 0.08761306 0.08810003 0.08857468 0.088892 0.0890394 0.08909537 0.08908768
 0.08888717 0.08833306 0.08752275 0.08680673 0.08633711 0.08579469 0.0848031 0.08350548 0.08248352 0.08213922
 0.08234455 0.08267421 0.08279882 0.08264218 0.08235697 0.08225147 0.08258107 0.08324091 0.08375219 0.08371133
</values></Ydata></ScRf><Data_Parameters_AB><parameter name="DPF">1</parameter><parameter name="NPT">3497</parameter><parameter name="FXV">3996</parameter><parameter name="LXV">500</parameter><parameter name="CSF">1</parameter><parameter name="MXY">0.139355033636093</parameter><parameter name="MNY">-0.0841318815946579</parameter><parameter name="DAT">27/05/2022</parameter><parameter name="TIM">12:27:27.664 (GMT+2)</parameter><parameter name="DXU">WN</parameter></Data_Parameters_AB><AB__Qtest><MainReport name="Quality Test Report"><Header><Line><Legend>Test result ok/not ok [1/0]: </Legend><Value>0</Value></Line><Line><Legend>Method file: </Legend><Value>C:\Users\Public\Documents\Bruker\OPUS_8.2.28\QT\IRBT_v3_default.QT</Value></Line></Header><Matrix><Line><Legend></Legend><Legend>min</Legend><Legend>max</Legend><Legend>measured</Legend></Line><Line><Value>Absorption (X-Range 1):</Value><Value>0.400000</Value><Value>2.000000</Value><Value>0.188910</Value></Line><Line><Value>Noise (X-Range 4):</Value><Value></Value><Value>0.000300</Value><Value>0.000047</Value></Line><Line><Value>Signal/Noise (X-Range 2):</Value><Value>200.000000</Value><Value></Value><Value>112.816089</Value></Line><Line><Value>Signal/Noise (X-Range 3):</Value><Value>40.000000</Value><Value></Value><Value>45.817277</Value></Line><Line><Value>Water vapour (X-Range 5):</Value><Value></Value><Value>0.000300</Value><Value>0.000042</Value></Line><Line><Value>Signal/Water (X-Range 2):</Value><Value>100.000000</Value><Value></Value><Value>128.017189</Value></Line><Line><Value>Signal/Water (X-Range 3):</Value><Value>20.000000</Value><Value></Value><Value>51.990803</Value></Line><Line><Value>Fringes (X-Range 6):</Value><Value></Value><Value>0.000100</Value><Value>0.000070</Value></Line></Matrix></MainReport></AB__Qtest><Data_Parameters_ScSm><parameter name="DPF">1</parameter><parameter name="NPT">1814</parameter><parameter name="FXV">3996.33169228125</parameter><parameter name="LXV">499.541461535156</parameter><parameter name="CSF">1</parameter><parameter name="MXY">0.286048799753189</parameter><parameter name="MNY">0.0312987044453621</parameter><parameter name="DAT">27/05/2022</parameter><parameter name="TIM">12:27:27.664 (GMT+2)</parameter><parameter name="DXU">WN</parameter></Data_Parameters_ScSm><Data_Parameters_ScRf><parameter name="DPF">1</parameter><parameter name="NPT">1820</parameter><parameter name="FXV">4004.04661832813</parameter><parameter name="LXV">495.683998511719</parameter><parameter name="CSF">1</parameter><parameter name="MXY">0.26440817117691</parameter><parameter name="MNY">0.0281352028250694</parameter><parameter name="DAT">27/05/2022</parameter><parameter name="TIM">12:27:00.585 (GMT+2)</parameter><parameter name="DXU">WN</parameter></Data_Parameters_ScRf><Optic_Parameters_Rf><parameter name="APR">0</parameter><parameter name="APT">Open</parameter><parameter name="BMS">KBr</parameter><parameter name="DTC">RT-DLaTGS_IR-Biotyper [Microplate reader]</parameter><parameter name="HPF">0</parameter><parameter name="LPF">10.0</parameter><parameter name="LPV">4000</parameter><parameter name="PGR">0</parameter><parameter name="RCH">Module port</parameter><parameter name="RDX">0</parameter><parameter name="SRC">MIR</parameter><parameter name="VEL">10.0</parameter><parameter name="SON">Off</parameter></Optic_Parameters_Rf><Acquisition_Parameters_Rf><parameter name="ADT">1</parameter><parameter name="AQM">DD</parameter><parameter name="CFE">0</parameter><parameter name="COR">0</parameter><parameter name="DEL">0</parameter><parameter name="DLY">0</parameter><parameter name="HFW">8000</parameter><parameter name="LFW">0</parameter><parameter name="NSR">32</parameter><parameter name="PLF">AB</parameter><parameter name="RES">6</parameter><parameter name="RGN">-1</parameter><parameter name="STR">0</parameter><parameter name="TCL">MakeCompatibleScalar (0, {WSV=1.000000, ARV=0});</parameter><parameter name="TDL">37</parameter><parameter name="RPO">0</parameter></Acquisition_Parameters_Rf><FT_-_Parameters_Rf><parameter name="APF">B3</parameter><parameter name="HFQ">500</parameter><parameter name="LFQ">4000</parameter><parameter name="NLI">0</parameter><parameter name="PHR">24</parameter><parameter name="PHZ">ML</parameter><parameter name="SPZ">NO</parameter><parameter name="ZFF">1</parameter></FT_-_Parameters_Rf><Optic_Parameters_><parameter name="APR">0</parameter><parameter name="APT">Open</parameter><parameter name="BMS">KBr</parameter><parameter name="CHN">Module port</parameter><parameter name="DTC">RT-DLaTGS_IR-Biotyper [Microplate reader]</parameter><parameter name="HPF">0</parameter><parameter name="LPF">10.0</parameter><parameter name="LPV">4000</parameter><parameter name="PGN">0</parameter><parameter name="RDX">0</parameter><parameter name="SRC">MIR</parameter><parameter name="VEL">10.0</parameter><parameter name="SON">Off</parameter></Optic_Parameters_><FT_-_Parameters_><parameter name="APF">B3</parameter><parameter name="HFQ">500</parameter><parameter name="LFQ">4000</parameter><parameter name="NLI">0</parameter><parameter name="PHR">24</parameter><parameter name="PHZ">ML</parameter><parameter name="SPZ">NO</parameter><parameter name="ZFF">1</parameter></FT_-_Parameters_><Acquisition_Parameters_><parameter name="ADT">1</parameter><parameter name="AQM">DD</parameter><parameter name="CFE">0</parameter><parameter name="COR">0</parameter><parameter name="DEL">0</parameter><parameter name="DLY">0</parameter><parameter name="HFW">8000</parameter><parameter name="LFW">0</parameter><parameter name="NSS">32</parameter><parameter name="PLF">AB</parameter><parameter name="RES">6</parameter><parameter name="SOT">0</parameter><parameter name="TCL">MakeCompatibleScalar (0, {WSV=1.000000, ARV=0});</parameter><parameter name="TDL">37</parameter><parameter name="SPO">0</parameter><parameter name="SGN">-1</parameter></Acquisition_Parameters_><Instrument_Parameters_Rf><parameter name="HFL">15800.168544</parameter><parameter name="LFL">0</parameter><parameter name="LWN">15800.168544</parameter><parameter name="ABP">32197</parameter><parameter name="SSP">1</parameter><parameter name="ARG">2</parameter><parameter name="ASG">2</parameter><parameter name="ASS">32</parameter><parameter name="GFW">16</parameter><parameter name="GBW">16</parameter><parameter name="BFW">0</parameter><parameter name="BBW">0</parameter><parameter name="PKA">7270</parameter><parameter name="PKL">4996</parameter><parameter name="PRA">7454</parameter><parameter name="PRL">5001</parameter><parameter name="P2A">1</parameter><parameter name="P2L">1</parameter><parameter name="P2R">1</parameter><parameter name="P2K">1</parameter><parameter name="DAQ">0</parameter><parameter name="AG2">1</parameter><parameter name="SSM">1</parameter><parameter name="RSN">24978</parameter><parameter name="CRR">0</parameter><parameter name="SRT">1653654420.585</parameter><parameter name="DUR">19.635986328125</parameter><parameter name="TSC">28</parameter><parameter name="MVD">0.406014144420624</parameter><parameter name="AN1">0.225807969012621</parameter><parameter name="AN2">0</parameter><parameter name="VSN">2.485 Apr  4 2017</parameter><parameter name="SRN">0085</parameter><parameter name="CAM">0</parameter><parameter name="INS">IR-Biotyper</parameter><parameter name="FOC">69</parameter><parameter name="RDY">1</parameter><parameter name="ARS">32</parameter></Instrument_Parameters_Rf><Sample_Parameters_><parameter name="BLD"></parameter><parameter name="CNM">Admin</parameter><parameter name="CPY"></parameter><parameter name="DPM"></parameter><parameter name="EXP">IRBT_v3_32Scans.XPM</parameter><parameter name="LCT"></parameter><parameter name="SFM">Microplate, HTS-XT</parameter><parameter name="SNM">220527-1039(v.2)_AMA28F (D_2)_A12_c27b7e0a-9ea6-4687-8947-b1a49d0682ea.0</parameter><parameter name="XPP">C:\Users\Public\Documents\Bruker\OPUS_8.2.28\XPM</parameter><parameter name="IST">OK</parameter><parameter name="CPG">1252</parameter><parameter name="UID">e7ac9ffa-db68-4c53-ae4f-52f3f5fe42f2</parameter></Sample_Parameters_><Instrument_Parameters_><parameter name="HFL">15800.168544</parameter><parameter name="LFL">0</parameter><parameter name="LWN">15800.168544</parameter><parameter name="ABP">32197</parameter><parameter name="SSP">1</parameter><parameter name="ASG">2</parameter><parameter name="ARG">2</parameter><parameter name="ASS">32</parameter><parameter name="GFW">16</parameter><parameter name="GBW">16</parameter><parameter name="BFW">0</parameter><parameter name="BBW">0</parameter><parameter name="PKA">7462</parameter><parameter name="PKL">4988</parameter><parameter name="PRA">7760</parameter><parameter name="PRL">4993</parameter><parameter name="P2A">1</parameter><parameter name="P2L">1</parameter><parameter name="P2R">1</parameter><parameter name="P2K">1</parameter><parameter name="DAQ">0</parameter><parameter name="AG2">1</parameter><parameter name="SSM">1</parameter><parameter name="RSN">13115</parameter><parameter name="CRR">0</parameter><parameter name="SRT">1653654447.665</parameter><parameter name="DUR">19.6369934082031</parameter><parameter name="TSC">28</parameter><parameter name="MVD">0.569718897342682</parameter><parameter name="AN1">0.225778152561136</parameter><parameter name="AN2">0</parameter><parameter name="VSN">2.485 Apr  4 2017</parameter><parameter name="SRN">0085</parameter><parameter name="CAM">0</parameter><parameter name="INS">IR-Biotyper</parameter><parameter name="FOC">69</parameter><parameter name="RDY">1</parameter></Instrument_Parameters_><History/></OPUSDataFile>
