<?xml version="1.0" encoding="UTF-8" ?>
<OPUSDataFile><AB><Ydata ylabel="Absorbance Units"><values byteorder="INTEL" format="FLOAT32" numvalues="3497"> -0.08213177 -0.08212665 -0.08211781 -0.08210515 -0.08209028 -0.08207326 -0.08204907 -0.08201788 -0.08197995 -0.08193693
 -0.08189903 -0.08186693 -0.08184954 -0.08184384 -0.08184756 -0.0818571 -0.08186448 -0.081871 -0.08187429 -0.08187858
 -0.08188735 -0.08190028 -0.08191927 -0.08193877 -0.08195698 -0.08197085 -0.08197832 -0.08198366 -0.08198687 -0.08199476
 -0.08200821 -0.08202888 -0.08205691 -0.08208632 -0.08211675 -0.08214137 -0.08216111 -0.08217769 -0.08219326 -0.08221705
 -0.08224871 -0.08229351 -0.08234623 -0.08240145 -0.08245295 -0.08249033 -0.08251388 -0.08251846 -0.08251262 -0.08249906
 -0.08248641 -0.08248007 -0.08247751 -0.08248064 -0.08247719 -0.08246491 -0.08243915 -0.08239809 -0.08235669 -0.0823157
 -0.08229606 -0.08229747 -0.0823218 -0.08236545 -0.08240709 -0.08244543 -0.08246223 -0.08246363 -0.08245441 -0.08244214
 -0.08244288 -0.08245686 -0.08249279 -0.0825418 -0.08260134 -0.08265879 -0.08270645 -0.08273726 -0.08274508 -0.0827352
 -0.08270612 -0.08267237 -0.08263575 -0.08260869 -0.08259274 -0.08259322 -0.08261052 -0.08264621 -0.0827001 -0.08277106
 -0.08285721 -0.08294804 -0.08303885 -0.08310597 -0.08314853 -0.08314881 -0.08311781 -0.0830641 -0.08300214 -0.08295382
 -0.0829224 -0.08292162 -0.08293706 -0.08296712 -0.08298969 -0.08299323 -0.08297658 -0.08293254 -0.08289085 -0.08285473
 -0.08285193 -0.08288758 -0.08295105 -0.08304214 -0.0831214 -0.08318801 -0.08322158 -0.08322652 -0.08322011 -0.08320706
 -0.08321552 -0.08324332 -0.08330163 -0.0833807 -0.08347039 -0.08355971 -0.08363088 -0.08368047 -0.08369896 -0.08368947
 -0.08364963 -0.08358885 -0.08350692 -0.08342502 -0.08334604 -0.08329795 -0.0832857 -0.08332897 -0.08343224 -0.08358371
 -0.08378351 -0.0839468 -0.08406863 -0.08405011 -0.08390482 -0.08366964 -0.08336418 -0.08308447 -0.0828318 -0.0826577
 -0.08255407 -0.08253431 -0.0825786 -0.08267356 -0.08278946 -0.0828961 -0.08298045 -0.08302079 -0.08303785 -0.08303402
 -0.08303031 -0.08303632 -0.08304376 -0.08305348 -0.08305021 -0.08303139 -0.08300145 -0.08296041 -0.08292615 -0.08289921
 -0.08289094 -0.08289997 -0.08292383 -0.08295932 -0.08299398 -0.08302369 -0.08303156 -0.08301628 -0.08296561 -0.08288652
 -0.08277969 -0.08266012 -0.08253862 -0.08243129 -0.08234946 -0.08230478 -0.08230529 -0.08235232 -0.08245049 -0.08258366
 -0.08275209 -0.08292627 -0.08310413 -0.08325231 -0.08336872 -0.08342466 -0.0834199 -0.08334683 -0.08320934 -0.08302823
 -0.08280928 -0.08258495 -0.08235994 -0.08216219 -0.08199377 -0.08187278 -0.08179365 -0.08176046 -0.08175613 -0.08176918
 -0.08178279 -0.08178098 -0.08176666 -0.08173466 -0.0817022 -0.08167438 -0.08165535 -0.08164816 -0.08164147 -0.08163388
 -0.08162333 -0.08160944 -0.08160409 -0.0816075 -0.08162537 -0.08165541 -0.08168447 -0.08171046 -0.08171587 -0.08170526
 -0.08167995 -0.0816484 -0.08162796 -0.08161892 -0.08163179 -0.08165473 -0.08168035 -0.08170249 -0.08170996 -0.08172121
 -0.08173919 -0.08178664 -0.08187531 -0.08199172 -0.08213989 -0.08227246 -0.08238461 -0.08244546 -0.08245264 -0.08239631
 -0.08227645 -0.08208864 -0.08183866 -0.08156139 -0.08126763 -0.08102088 -0.08082275 -0.08071412 -0.08068001 -0.08071932
 -0.08079947 -0.08087908 -0.08093745 -0.08093408 -0.08089009 -0.08080322 -0.08070658 -0.0806157 -0.08054069 -0.08049151
 -0.0804479 -0.08040946 -0.08034676 -0.08025503 -0.08013216 -0.07997716 -0.07981965 -0.07966132 -0.07953412 -0.0794377
 -0.07938747 -0.07937755 -0.07939663 -0.07943078 -0.07943609 -0.07940749 -0.07930824 -0.07915957 -0.07897301 -0.07876819
 -0.07857066 -0.07837636 -0.07819227 -0.07800329 -0.07780309 -0.07758819 -0.07735338 -0.07711448 -0.07687291 -0.07664572
 -0.07643615 -0.07624173 -0.07606294 -0.0758748 -0.07567632 -0.07544678 -0.07518991 -0.07492345 -0.07465141 -0.07440222
 -0.07417127 -0.07396023 -0.07376458 -0.07357655 -0.07339444 -0.07321611 -0.07303155 -0.07283374 -0.07260781 -0.07233974
 -0.07203265 -0.07168382 -0.07130174 -0.0708928 -0.07043804 -0.06993464 -0.06936964 -0.06873838 -0.06806713 -0.06735706
 -0.06663983 -0.06591646 -0.06520253 -0.06449936 -0.06382418 -0.06317854 -0.06258072 -0.0620257 -0.06151101 -0.06102746
 -0.0605576 -0.06009385 -0.05962484 -0.0591306 -0.05859487 -0.05798732 -0.05727449 -0.05647783 -0.055587 -0.05467321
 -0.05375962 -0.05286786 -0.05200979 -0.05116185 -0.05032201 -0.04947799 -0.04862837 -0.04778439 -0.04694692 -0.04613477
 -0.04534665 -0.04458634 -0.04384329 -0.04307934 -0.04227655 -0.04135671 -0.04033339 -0.03917947 -0.03795627 -0.03673922
 -0.03555256 -0.03445677 -0.03341599 -0.0324268 -0.03145107 -0.03046907 -0.0294692 -0.02844266 -0.02739524 -0.02632744
 -0.02524046 -0.02413601 -0.02299787 -0.02182541 -0.0205907 -0.01929365 -0.01793483 -0.01652135 -0.01510874 -0.01370292
 -0.01236268 -0.01107995 -0.009864669 -0.008702145 -0.00757059 -0.006456543 -0.005334684 -0.004194222 -0.003013469 -0.001798399
 -0.0005418839 0.0007314232 0.002009323 0.00328863 0.004559734 0.00585748 0.007188815 0.00856836 0.01000368 0.01144529
 0.01289053 0.01429058 0.01564509 0.01696244 0.01824584 0.01952523 0.0208 0.02208435 0.02337312 0.02466021
 0.02593898 0.02719123 0.0284207 0.02961825 0.03080858 0.03200848 0.03324487 0.03454709 0.03590247 0.03732008
 0.03875346 0.0401894 0.04160286 0.04298493 0.04433658 0.04565653 0.0469507 0.04821893 0.04948124 0.05073903
 0.05202198 0.05332932 0.05466916 0.05603704 0.05741668 0.05880678 0.06019491 0.06158301 0.06297119 0.06435568
 0.06573395 0.06709555 0.06842955 0.06973017 0.07098613 0.07221141 0.0734043 0.07459795 0.07580209 0.07703821
 0.07831628 0.07961901 0.08094679 0.08226962 0.08358476 0.0848899 0.08618534 0.08748482 0.08878767 0.09009379
 0.09140211 0.09270694 0.09400964 0.0953126 0.09661404 0.09791278 0.09920376 0.1004787 0.1017369 0.102974
 0.1041932 0.1053945 0.1065845 0.1077637 0.1089466 0.1101379 0.1113473 0.1125802 0.1138238 0.1150777
 0.1163252 0.1175643 0.1188003 0.1200335 0.1212756 0.1225255 0.1237786 0.1250334 0.1262795 0.1275168
 0.1287393 0.1299463 0.1311328 0.1323012 0.1334515 0.1345881 0.1357173 0.1368351 0.137941 0.1390304
 0.1400968 0.1411544 0.1422052 0.1432652 0.1443409 0.1454227 0.1465104 0.1475926 0.1486679 0.1497511
 0.150843 0.1519551 0.1530847 0.1542117 0.1553342 0.1564313 0.157508 0.1585691 0.1596193 0.160672
 0.1617272 0.1627912 0.1638604 0.1649357 0.1660059 0.1670645 0.1681015 0.1691066 0.1700933 0.1710604
 0.1720361 0.1730274 0.1740448 0.1750922 0.1761577 0.1772411 0.1783209 0.179396 0.1804383 0.1814477
 0.1824096 0.183331 0.1842373 0.185136 0.1860664 0.1870205 0.1880021 0.1889959 0.1899784 0.1909487
 0.1918955 0.1928277 0.1937498 0.1946618 0.1955661 0.196457 0.1973325 0.1981922 0.1990352 0.1998646
 0.2006804 0.2014897 0.2022927 0.2030995 0.2039103 0.2047275 0.2055509 0.2063787 0.2072124 0.2080603
 0.2089208 0.2097976 0.210679 0.2115426 0.2123791 0.2131592 0.2138972 0.214591 0.2152708 0.2159584
 0.2166663 0.2174122 0.2181729 0.2189478 0.2197014 0.220423 0.2211085 0.2217524 0.2223914 0.2230283
 0.223686 0.2243641 0.2250206 0.225651 0.2261906 0.2266471 0.2270185 0.2273259 0.2276343 0.2279563
 0.2283541 0.2288166 0.2293588 0.2299533 0.2305792 0.2312126 0.2318254 0.2324252 0.2329998 0.2335953
 0.2342239 0.2349189 0.2356998 0.2365198 0.2373824 0.2381794 0.2389019 0.2394798 0.2399117 0.2402306
 0.2404447 0.2406475 0.2408405 0.2410838 0.2413665 0.2416833 0.2420307 0.242393 0.2427861 0.2432295
 0.2437274 0.244304 0.2449177 0.245553 0.2461572 0.246692 0.2471651 0.2475592 0.2479475 0.2483413
 0.2488042 0.2493521 0.249974 0.2506738 0.2513698 0.2520576 0.2526456 0.2531355 0.2535007 0.2537581
 0.2539752 0.254174 0.2544627 0.2548431 0.2553806 0.2560435 0.2568219 0.2576624 0.2585088 0.2593201
 0.2600419 0.2606842 0.2612269 0.2617312 0.26221 0.2627238 0.2632909 0.2639301 0.264647 0.2654428
 0.2663169 0.2672877 0.2683558 0.2695279 0.2707967 0.2720965 0.2734081 0.2745976 0.2756547 0.2764653
 0.277059 0.2774285 0.2776451 0.2778065 0.2779766 0.2782698 0.2786795 0.2792553 0.2799101 0.2806257
 0.2812909 0.2818653 0.282279 0.2825025 0.2825425 0.2823883 0.2821202 0.281742 0.2813545 0.2809625
 0.2806156 0.2803103 0.2800298 0.27977 0.279499 0.2792201 0.2789277 0.2786245 0.27832 0.2779993
 0.277653 0.2772416 0.2767255 0.2760611 0.275198 0.2741385 0.2728543 0.271424 0.2698567 0.2682652
 0.2666765 0.2651621 0.2637395 0.262415 0.261192 0.2600424 0.2589646 0.2579171 0.2568974 0.2558641
 0.254821 0.2537632 0.2527033 0.2516837 0.2507034 0.2497912 0.2489138 0.2480353 0.2471235 0.2461177
 0.2450425 0.2438812 0.2427146 0.2415756 0.2405344 0.23963 0.2388641 0.2382541 0.2377288 0.2372862
 0.2368193 0.2363188 0.2357049 0.2349739 0.2341295 0.2331787 0.2322005 0.2312023 0.2302677 0.2293925
 0.2286093 0.2279054 0.2272698 0.2266885 0.2261371 0.2256007 0.225055 0.2244898 0.223887 0.2232534
 0.222584 0.2219011 0.2212111 0.220531 0.219868 0.2192179 0.2185826 0.2179422 0.2172953 0.2166263
 0.2159344 0.2152208 0.2144866 0.2137465 0.2130015 0.2122653 0.2115364 0.2108176 0.2101067 0.2094001
 0.2086972 0.2079965 0.207296 0.2065949 0.2058852 0.2051613 0.2044162 0.2036423 0.202846 0.2020257
 0.2011977 0.2003665 0.1995364 0.1987103 0.1978757 0.1970314 0.1961696 0.1952898 0.1944038 0.1935126
 0.1926338 0.1917666 0.1909163 0.1900804 0.1892524 0.1884298 0.1876033 0.1867714 0.1859262 0.1850705
 0.1842012 0.1833311 0.1824643 0.1816255 0.1808255 0.1800907 0.179436 0.1788627 0.1783823 0.177942
 0.1775416 0.1770876 0.1765712 0.1759287 0.1751564 0.1742811 0.1733103 0.1723424 0.171385 0.1705339
 0.1697826 0.1691661 0.1686582 0.1682228 0.167823 0.1673819 0.1668833 0.1662673 0.165572 0.1647956
 0.1640124 0.1632637 0.1625858 0.162012 0.1615039 0.1610606 0.1606336 0.1602087 0.1598071 0.1594262
 0.1591387 0.1589483 0.1588813 0.158931 0.159021 0.1591363 0.159148 0.1590564 0.1587841 0.1583629
 0.157821 0.1572049 0.1566057 0.1560407 0.1555742 0.1551753 0.1548426 0.1545405 0.1542407 0.1539566
 0.153682 0.153455 0.1532903 0.1531771 0.153121 0.1530641 0.1529996 0.1529083 0.1527889 0.1526939
 0.1526258 0.1526347 0.1527132 0.1528441 0.1530164 0.1531788 0.1533321 0.1534516 0.1535457 0.1536199
 0.1536735 0.1537128 0.1537198 0.1536872 0.1535844 0.1533932 0.1530928 0.1526626 0.152133 0.1514955
 0.1508465 0.150196 0.1496473 0.1492151 0.1489127 0.1487418 0.1486016 0.148485 0.1482657 0.1479484
 0.1474898 0.1469125 0.146273 0.1455916 0.1449487 0.1443414 0.1438049 0.1433177 0.1428698 0.14244
 0.1420075 0.1415619 0.1410897 0.1405968 0.1400783 0.1395607 0.1390484 0.1385682 0.1381291 0.1377143
 0.1373264 0.1369023 0.1364382 0.1358926 0.1352688 0.1346041 0.1339071 0.1332547 0.1326411 0.1320916
 0.1315827 0.1310683 0.1305364 0.1299372 0.1292953 0.1286138 0.1279342 0.1272933 0.1267096 0.1262079
 0.1257739 0.1254088 0.1250926 0.1248191 0.1245832 0.1243835 0.1242172 0.1240857 0.123964 0.123851
 0.1236955 0.1234953 0.1232053 0.1228309 0.122377 0.1218605 0.1213439 0.1208448 0.1204396 0.120132
 0.1199658 0.1199305 0.1200319 0.1202558 0.1205934 0.1210326 0.1215647 0.1221811 0.1228762 0.123647
 0.1244906 0.1254119 0.1264093 0.1275014 0.1286877 0.1300118 0.1314761 0.1331433 0.1350154 0.1371326
 0.1394871 0.1420543 0.1448162 0.1476937 0.1506715 0.1536704 0.1566896 0.1596895 0.1626842 0.1656723
 0.1686759 0.1717096 0.1747986 0.1779574 0.1812131 0.1845775 0.1880745 0.191715 0.1955011 0.1994413
 0.2034889 0.2076464 0.2118016 0.2159492 0.2199104 0.2236711 0.2269968 0.2298708 0.2320575 0.2335684
 0.2342899 0.2343097 0.2337496 0.2327819 0.2317339 0.2307867 0.2302936 0.2303252 0.2310857 0.232482
 0.2345385 0.2370786 0.2400395 0.2433 0.2468071 0.2505479 0.2545075 0.2587303 0.2632191 0.2680119
 0.2731111 0.278533 0.2842796 0.2903756 0.2968342 0.3037436 0.311137 0.3191871 0.3279214 0.3375258
 0.3479355 0.3592158 0.3710423 0.3832408 0.3949727 0.4057374 0.414109 0.4192308 0.4198576 0.4150717
 0.4052464 0.3899702 0.3715624 0.3502111 0.328714 0.3073955 0.2880148 0.2707109 0.2558638 0.2434452
 0.2329737 0.2243823 0.2170022 0.2107989 0.2052912 0.200466 0.1960569 0.1920456 0.1882844 0.1847559
 0.1813789 0.1781556 0.1750576 0.1721075 0.1693084 0.1666878 0.164256 0.1620365 0.1600361 0.1582758
 0.1567592 0.155506 0.1545184 0.1538122 0.1533887 0.1532449 0.1533772 0.1537275 0.1542785 0.1548877
 0.1555288 0.156015 0.1563446 0.1563983 0.1562378 0.1558947 0.1554888 0.1551672 0.1550528 0.1552964
 0.1559774 0.1571802 0.1589486 0.1613039 0.1643258 0.1680077 0.1725697 0.1780235 0.1847249 0.1927324
 0.2021328 0.2129587 0.2241708 0.235625 0.2446687 0.2510964 0.2519755 0.2476147 0.2374344 0.2224077
 0.2047282 0.1852603 0.1666398 0.1490642 0.1339084 0.1208427 0.1100804 0.1011318 0.09377611 0.08762195
 0.08246633 0.07806494 0.07432046 0.07107248 0.06828254 0.06583259 0.06370728 0.06181509 0.06014952 0.05863186
 0.05725855 0.05596696 0.05475678 0.05359484 0.05248399 0.05141778 0.05039916 0.04943332 0.04852011 0.04766365
 0.04685737 0.04609799 0.04536995 0.04466083 0.04395254 0.04322897 0.0424864 0.04171424 0.04093611 0.04015254
 0.03940349 0.03869732 0.03805456 0.03748161 0.03695344 0.03646944 0.03598072 0.03548583 0.03495924 0.03440426
 0.03383376 0.03325056 0.0326749 0.03210296 0.03153473 0.03096551 0.03038409 0.02979461 0.02919545 0.02859828
 0.02801231 0.0274477 0.02691352 0.026414 0.02595406 0.0255305 0.02514605 0.02478375 0.02444349 0.02409447
 0.02373319 0.02333686 0.0229031 0.02244043 0.0219503 0.02146455 0.02098446 0.0205353 0.02011457 0.01972579
 0.01936467 0.01902179 0.01869343 0.01836849 0.01804471 0.01771354 0.01737774 0.01703425 0.01669459 0.01636358
 0.01605474 0.0157769 0.0155297 0.01531885 0.01512079 0.01493424 0.01472557 0.01448986 0.01421308 0.01389312
 0.01355164 0.01319043 0.01284721 0.01252189 0.01223234 0.01197347 0.01173327 0.01150659 0.01127179 0.01102968
 0.01076997 0.01050001 0.01022428 0.009951722 0.0096934 0.009450219 0.009229604 0.009016827 0.008810046 0.008586559
 0.00833858 0.008055811 0.007732597 0.007381207 0.007001236 0.006616126 0.006227478 0.005852265 0.005490898 0.005147377
 0.004820794 0.004506185 0.004202348 0.003901556 0.003603179 0.00330088 0.002996162 0.002687784 0.002380401 0.002079298
 0.001789033 0.001517463 0.001261013 0.00102243 0.00078802 0.0005528628 0.0003058409 4.023995E-05 -0.0002373364 -0.000528731
 -0.0008133629 -0.001088846 -0.001341459 -0.001569598 -0.001779055 -0.00197039 -0.002157935 -0.002341061 -0.002521837 -0.002697146
 -0.002853171 -0.002989861 -0.003096927 -0.003183116 -0.003258517 -0.003335699 -0.003436912 -0.003566271 -0.003738073 -0.003943684
 -0.004183392 -0.004443343 -0.004718273 -0.004996077 -0.005272496 -0.005538755 -0.005792192 -0.006029747 -0.006250191 -0.006457888
 -0.006652934 -0.006842641 -0.007027311 -0.007211569 -0.007395416 -0.007580841 -0.007767863 -0.007957986 -0.008150581 -0.008344978
 -0.008539764 -0.00873161 -0.008920281 -0.009103122 -0.009283207 -0.009461903 -0.00964358 -0.009832184 -0.01002779 -0.01023299
 -0.01044035 -0.01064878 -0.01084954 -0.01103985 -0.01121974 -0.01138799 -0.01155481 -0.01172078 -0.01189642 -0.01208199
 -0.01227867 -0.01248555 -0.01269544 -0.01290764 -0.01311452 -0.0133177 -0.01351694 -0.01371632 -0.01392378 -0.01414212
 -0.01438026 -0.01463413 -0.01490515 -0.01518253 -0.01546016 -0.01572891 -0.01598213 -0.01621961 -0.01643909 -0.01664631
 -0.01684194 -0.01703113 -0.01721453 -0.01739599 -0.01757576 -0.01775846 -0.01794431 -0.0181366 -0.01833501 -0.01853818
 -0.01874555 -0.01895359 -0.01916255 -0.01937141 -0.01958037 -0.01978992 -0.01999864 -0.02020488 -0.02040738 -0.02060332
 -0.02079552 -0.02098411 -0.02117471 -0.0213708 -0.02157228 -0.02178161 -0.02198898 -0.02219342 -0.02238335 -0.02255643
 -0.02271205 -0.02284949 -0.02298208 -0.02311053 -0.02324944 -0.02339826 -0.02355863 -0.02372837 -0.02389748 -0.02406571
 -0.02422626 -0.02438226 -0.02453697 -0.02469275 -0.02485551 -0.02502266 -0.02519434 -0.02536633 -0.02553509 -0.02570062
 -0.02586134 -0.02602089 -0.02618041 -0.02634107 -0.02650399 -0.02666503 -0.02682388 -0.02697617 -0.02712132 -0.02726114
 -0.02739584 -0.02753247 -0.02767116 -0.0278164 -0.02796715 -0.028121 -0.02827674 -0.02842923 -0.02857856 -0.02872212
 -0.02886117 -0.02899623 -0.02912895 -0.02926088 -0.02939402 -0.02953034 -0.02967047 -0.02981606 -0.02996356 -0.03011309
 -0.03025757 -0.03039556 -0.03052208 -0.03063576 -0.03073859 -0.03083034 -0.03091901 -0.03100505 -0.03109784 -0.03119771
 -0.03131149 -0.03143892 -0.03158282 -0.03174197 -0.03191464 -0.03209856 -0.03228856 -0.0324821 -0.0326732 -0.03286079
 -0.03304159 -0.03321557 -0.03338196 -0.03354037 -0.03369016 -0.03383226 -0.03396563 -0.0340969 -0.03422645 -0.03436454
 -0.03451288 -0.03467584 -0.03485436 -0.03504152 -0.03523689 -0.0354286 -0.03561645 -0.0357937 -0.0359611 -0.03611884
 -0.03626737 -0.03640814 -0.03654103 -0.0366659 -0.03678412 -0.03689664 -0.03700747 -0.03712071 -0.03723998 -0.03736977
 -0.03750915 -0.03765963 -0.03781632 -0.0379781 -0.03814073 -0.03830279 -0.03846391 -0.03862367 -0.03878415 -0.03894551
 -0.0391091 -0.0392749 -0.03944092 -0.03960681 -0.03976843 -0.03992555 -0.04007478 -0.04021623 -0.04034831 -0.04047168
 -0.04058611 -0.04069427 -0.04079913 -0.04090505 -0.04101805 -0.0411393 -0.04127318 -0.0414136 -0.04155963 -0.04170284
 -0.04183988 -0.04196751 -0.04208381 -0.04219175 -0.0422913 -0.04238693 -0.04247897 -0.04257123 -0.04266389 -0.04275916
 -0.0428569 -0.04295663 -0.04305812 -0.04315963 -0.04326152 -0.04336392 -0.04346731 -0.04357314 -0.04368085 -0.04379031
 -0.04390082 -0.04401125 -0.04412243 -0.0442345 -0.04434867 -0.04446629 -0.04458516 -0.0447057 -0.04482191 -0.04493259
 -0.04503334 -0.04512282 -0.04520339 -0.04527483 -0.04534557 -0.04541604 -0.04549354 -0.04557791 -0.04567039 -0.0457703
 -0.04587495 -0.04598361 -0.04609286 -0.04620155 -0.0463058 -0.04640441 -0.04649339 -0.04657372 -0.04664399 -0.04670826
 -0.04676876 -0.04682917 -0.04689242 -0.04695819 -0.04702738 -0.04709719 -0.04716687 -0.04723606 -0.04730426 -0.04737451
 -0.04744703 -0.04752422 -0.0476062 -0.04769254 -0.04778332 -0.04787869 -0.04797944 -0.04808958 -0.04821009 -0.04834631
 -0.04849868 -0.04867029 -0.04886216 -0.04907624 -0.04931588 -0.04958423 -0.04988713 -0.05022854 -0.0506163 -0.05105377
 -0.0515517 -0.05211392 -0.05274975 -0.05346356 -0.05425137 -0.05511583 -0.0560299 -0.05699249 -0.05796617 -0.0589489
 -0.05990984 -0.06084575 -0.06171776 -0.0625124 -0.06314156 -0.06358375 -0.06371442 -0.06353739 -0.06297535 -0.06210547
 -0.06099181 -0.05975793 -0.05856492 -0.05747597 -0.05659613 -0.05591694 -0.05546114 -0.05520572 -0.05514865 -0.05526688
 -0.0555631 -0.05597438 -0.05650104 -0.05701795 -0.05751392 -0.05790101 -0.05817488 -0.05835515 -0.05844486 -0.05848679
 -0.0584784 -0.05842615 -0.05832712 -0.05817096 -0.05796576 -0.05772154 -0.05745409 -0.0571949 -0.05694697 -0.05672992
 -0.05652782 -0.0563348 -0.05613823 -0.0559268 -0.05570672 -0.05547671 -0.0552481 -0.05502401 -0.05480754 -0.05459941
 -0.05440202 -0.05421531 -0.05404685 -0.05389701 -0.05377003 -0.05366521 -0.05357584 -0.05350035 -0.05342627 -0.05335348
 -0.05327404 -0.0531911 -0.05310696 -0.05302678 -0.05296015 -0.05290898 -0.05288088 -0.05287012 -0.05287642 -0.05288933
 -0.05290345 -0.05291167 -0.05290944 -0.05289735 -0.05287391 -0.05284538 -0.05281213 -0.05278221 -0.05275642 -0.05274016
 -0.05273374 -0.05273815 -0.05275325 -0.05277783 -0.05281157 -0.05285255 -0.05289987 -0.05294964 -0.05300067 -0.05304785
 -0.0530915 -0.0531295 -0.05316354 -0.05319493 -0.05322425 -0.05325283 -0.05327919 -0.05330283 -0.05332273 -0.05333785
 -0.05335025 -0.05335988 -0.05337061 -0.05338311 -0.05339951 -0.05342031 -0.05344279 -0.05346681 -0.05348635 -0.05350125
 -0.0535075 -0.05350564 -0.05349655 -0.05348111 -0.0534628 -0.05344222 -0.05342242 -0.05340375 -0.05338825 -0.05337579
 -0.05336728 -0.05336175 -0.05335908 -0.05335736 -0.05335568 -0.05335225 -0.05334591 -0.05333708 -0.05332512 -0.05331384
 -0.05330364 -0.05329844 -0.05329891 -0.05330367 -0.05331266 -0.05332032 -0.05332653 -0.05332847 -0.0533264 -0.05332065
 -0.0533109 -0.05329594 -0.05327597 -0.05324979 -0.05322054 -0.05319243 -0.05316905 -0.05315757 -0.0531555 -0.05316484
 -0.05317733 -0.05318895 -0.05319456 -0.05319007 -0.05317907 -0.05316111 -0.053143 -0.05312613 -0.05311218 -0.05310176
 -0.05309055 -0.05307832 -0.05306122 -0.05303938 -0.05301349 -0.05298417 -0.0529555 -0.05292778 -0.05290427 -0.05288465
 -0.05286997 -0.05285948 -0.05285255 -0.05284824 -0.05284522 -0.05284292 -0.05284022 -0.05283778 -0.05283544 -0.05283463
 -0.05283587 -0.05283994 -0.05284728 -0.05285741 -0.05287056 -0.05288454 -0.05289932 -0.05291092 -0.0529191 -0.05292019
 -0.05291421 -0.05290041 -0.0528793 -0.05285344 -0.05282363 -0.05279412 -0.05276553 -0.05274167 -0.05272217 -0.0527086
 -0.05269896 -0.05269168 -0.05268486 -0.05267624 -0.05266568 -0.05265253 -0.05263693 -0.05261908 -0.05259772 -0.05257228
 -0.05254337 -0.05251026 -0.05247928 -0.05245077 -0.05243252 -0.05242503 -0.05242807 -0.05244093 -0.05245319 -0.05246408
 -0.05246265 -0.05245066 -0.05242804 -0.05239841 -0.05237111 -0.05234725 -0.05233416 -0.05232804 -0.05232769 -0.05232849
 -0.05232555 -0.05231864 -0.05230567 -0.05228971 -0.05227141 -0.05225326 -0.05223597 -0.05222116 -0.05220922 -0.05220091
 -0.05219656 -0.05219396 -0.05219302 -0.05218921 -0.05218247 -0.05217109 -0.05215581 -0.05214067 -0.05212636 -0.05211803
 -0.05211481 -0.05211749 -0.05212412 -0.05213145 -0.05213901 -0.05214432 -0.05214941 -0.05215509 -0.05216307 -0.05217522
 -0.05218992 -0.0522074 -0.05222429 -0.05223953 -0.05225211 -0.05226147 -0.05226914 -0.05227522 -0.05228087 -0.05228617
 -0.05229071 -0.05229449 -0.05229755 -0.05230014 -0.05230385 -0.05230887 -0.05231684 -0.05232745 -0.05234065 -0.05235628
 -0.0523737 -0.05239386 -0.05241751 -0.052446 -0.05248126 -0.05252231 -0.05257003 -0.05261993 -0.05267097 -0.05271784
 -0.0527587 -0.05279161 -0.05281544 -0.05283337 -0.05284537 -0.05285746 -0.05287001 -0.05288675 -0.05290753 -0.05292981
 -0.05295298 -0.0529713 -0.05298544 -0.0529943 -0.05300032 -0.05300924 -0.05302252 -0.05304608 -0.05307823 -0.05311983
 -0.05316727 -0.05321766 -0.05326898 -0.0533189 -0.05336785 -0.05341547 -0.05346244 -0.0535093 -0.05355426 -0.05359731
 -0.05363539 -0.05366809 -0.05369435 -0.05371404 -0.05372888 -0.05373895 -0.05374594 -0.05374986 -0.05375135 -0.05375079
 -0.05374986 -0.05374945 -0.05375291 -0.05376032 -0.0537738 -0.05379167 -0.05381301 -0.05383543 -0.05385607 -0.05387506
 -0.05389064 -0.05390735 -0.05392617 -0.05395244 -0.05398857 -0.05403373 -0.05408902 -0.05414672 -0.05420627 -0.05426003
 -0.05430742 -0.05434572 -0.054375 -0.0543966 -0.05441092 -0.05442126 -0.05442809 -0.05443518 -0.05444249 -0.05445194
 -0.05446293 -0.0544751 -0.05448836 -0.05450225 -0.05451734 -0.05453396 -0.05455258 -0.05457343 -0.05459737 -0.05462494
 -0.05465614 -0.05469205 -0.05472716 -0.05476146 -0.05478481 -0.05479576 -0.05479094 -0.05476984 -0.0547424 -0.05470933
 -0.05468423 -0.05466677 -0.0546616 -0.05466673 -0.05467672 -0.05468986 -0.05469878 -0.05470328 -0.05469942 -0.0546884
 -0.05466978 -0.05464588 -0.05461801 -0.05458984 -0.05456395 -0.05454252 -0.05452795 -0.05451705 -0.05451 -0.0545007
 -0.05448756 -0.05446987 -0.05444681 -0.05442548 -0.05440631 -0.054395 -0.05439147 -0.05439354 -0.05440041 -0.05440519
 -0.05440779 -0.05440373 -0.05439425 -0.05437988 -0.054363 -0.05434826 -0.05433712 -0.05433446 -0.05433742 -0.05434617
 -0.05435472 -0.05435909 -0.05435679 -0.05434467 -0.054327 -0.05430406 -0.05428107 -0.05425942 -0.05423985 -0.05422281
 -0.05420607 -0.05418948 -0.05417172 -0.05415291 -0.05413613 -0.05412169 -0.05411388 -0.05411173 -0.05411387 -0.05411829
 -0.05411832 -0.05411407 -0.05410217 -0.05408483 -0.05406442 -0.05404003 -0.054012 -0.05397817 -0.05393551 -0.05388943
 -0.05384011 -0.05379783 -0.05376653 -0.0537478 -0.05374403 -0.05374461 -0.05374889 -0.05374517 -0.05373245 -0.05370818
 -0.05367263 -0.05363281 -0.05358947 -0.05355199 -0.05351993 -0.05349691 -0.05348116 -0.05346956 -0.05346112 -0.05345232
 -0.05344344 -0.05343382 -0.0534227 -0.05340925 -0.05339272 -0.05337133 -0.05334884 -0.05332576 -0.05330781 -0.05329742
 -0.0532946 -0.05330066 -0.05330855 -0.05331789 -0.05331982 -0.05331361 -0.05329601 -0.05326732 -0.05323473 -0.05319945
 -0.05317461 -0.05315996 -0.05316235 -0.05317879 -0.05320517 -0.05323747 -0.05326642 -0.05328907 -0.05329731 -0.05329111
 -0.05326665 -0.05322813 -0.05317624 -0.05311754 -0.05305513 -0.0529927 -0.05293217 -0.05287388 -0.05281796 -0.05276575
 -0.05271714 -0.05267584 -0.05264201 -0.05262089 -0.05261277 -0.05262389 -0.0526534 -0.05269978 -0.05275805 -0.05280609
 -0.05283888 -0.05282692 -0.05277785 -0.05268985 -0.05257828 -0.0524649 -0.05235419 -0.05225899 -0.05217587 -0.05210516
 -0.05204719 -0.05200205 -0.05197052 -0.0519546 -0.05194585 -0.05194436 -0.05193422 -0.05191363 -0.05186984 -0.05180151
 -0.05170919 -0.05159346 -0.05146995 -0.05133977 -0.05122004 -0.05110914 -0.05100909 -0.05091726 -0.0508262 -0.05073699
 -0.05064865 -0.05056172 -0.05047859 -0.05039337 -0.0503011 -0.05019835 -0.05007871 -0.04995078 -0.04981661 -0.04968385
 -0.0495569 -0.04943144 -0.04930769 -0.049179 -0.04904414 -0.04890344 -0.04875674 -0.04860796 -0.04845726 -0.04830755
 -0.04815793 -0.04800341 -0.04784095 -0.04765295 -0.04743969 -0.04718993 -0.0469125 -0.04661975 -0.04631791 -0.04602285
 -0.0457306 -0.04544322 -0.04515555 -0.04486343 -0.0445684 -0.04426984 -0.04397094 -0.04367295 -0.04337602 -0.04308147
 -0.04278246 -0.04248003 -0.04215081 -0.04179318 -0.04138703 -0.04093269 -0.04045401 -0.03995368 -0.03946827 -0.03899251
 -0.03852254 -0.03804917 -0.03754181 -0.03699961 -0.03640466 -0.03576426 -0.0350808 -0.03436146 -0.03361462 -0.03284261
 -0.03205503 -0.03123199 -0.03037646 -0.02943299 -0.02838435 -0.02719642 -0.02584833 -0.02439774 -0.02284701 -0.02126892
 -0.01967105 -0.01804955 -0.01640418 -0.01471841 -0.01299649 -0.01127348 -0.009549199 -0.00784845 -0.006152841 -0.004416554
 -0.002633932 -0.0007559166 0.001173086 0.00311243 0.005023368 0.006838728 0.008587174 0.01026294 0.01191265 0.01356005
 0.0152197 0.01690173 0.01860462 0.02032172 0.02209997 0.02393634 0.02595346 0.02816306 0.03060151 0.03326381
 0.03592221 0.03856636 0.040993 0.0432363 0.04535281 0.04737812 0.04945162 0.0515779 0.05382843 0.05620519
 0.05872107 0.06143237 0.06437166 0.06766617 0.07141288 0.07568661 0.08060296 0.08595597 0.09175161 0.09759073
 0.1033825 0.1089199 0.1141493 0.1191087 0.1237916 0.1283528 0.1328043 0.1374301 0.1422572 0.1476897
 0.1536817 0.1602953 0.1673262 0.1741332 0.1806886 0.1865516 0.191979 0.1971622 0.2022892 0.2076498
 0.2132332 0.2191282 0.2252531 0.2315825 0.2380893 0.2447813 0.2515396 0.258355 0.2650463 0.2715717
 0.2779801 0.2842704 0.2905485 0.2968115 0.3028097 0.308516 0.313547 0.317933 0.3216194 0.3246608
 0.3272179 0.3292722 0.3308546 0.3319512 0.3325084 0.332654 0.3324853 0.332133 0.3317212 0.3313042
 0.3309425 0.3306336 0.3304002 0.3301746 0.3299546 0.3296358 0.3292063 0.3285722 0.3277224 0.326647
 0.3253473 0.3239159 0.3223523 0.3206945 0.31892 0.3169402 0.3147267 0.3121394 0.3091784 0.3057498
 0.3019366 0.2978018 0.2934649 0.2890903 0.2846855 0.2803201 0.2759215 0.2714394 0.2669481 0.2624224
 0.2581172 0.2540919 0.2504677 0.2472862 0.2444443 0.2419371 0.2396756 0.2376572 0.2359182 0.2344626
 0.2333458 0.2325588 0.2320836 0.2319106 0.2319964 0.2323474 0.2329543 0.2338288 0.2349822 0.2364292
 0.2381809 0.2402737 0.2427236 0.2456004 0.2489239 0.2528082 0.2572742 0.2624934 0.2685044 0.2754403
 0.2833492 0.2920983 0.3017005 0.3116753 0.3219928 0.3319458 0.3414655 0.3496128 0.3563048 0.3605428
 0.3624466 0.3617818 0.3589123 0.3544832 0.3488196 0.3426329 0.3362351 0.3301796 0.3247148 0.3202371
 0.3166618 0.3140806 0.3122343 0.3110329 0.3104008 0.3102867 0.3107947 0.3119603 0.3136193 0.3157709
 0.3180811 0.320537 0.3231413 0.325911 0.3290304 0.3325045 0.336456 0.3408695 0.3457789 0.3511238
 0.3569104 0.3627752 0.3684385 0.3728535 0.3747862 0.3736391 0.3681884 0.3596712 0.3483344 0.335405
 0.3213573 0.3068753 0.2921109 0.2779209 0.2644435 0.2522745 0.2415056 0.2319807 0.2236908 0.2161326
 0.2092936 0.2028705 0.1968835 0.1912937 0.1861008 0.181298 0.1768363 0.1726097 0.168566 0.1645743
 0.1606247 0.156663 0.1526792 0.1486804 0.1445569 0.1402671 0.1356847 0.13067 0.1255648 0.1203572
 0.1157323 0.1118423 0.1086713 0.1062535 0.1041179 0.1022423 0.1003588 0.09847764 0.0966294 0.09483719
 0.09324435 0.0918504 0.09071726 0.08985773 0.08930963 0.0891367 0.08945121 0.09030511 0.09181157 0.09394534
 0.09673106 0.1001093 0.1040666 0.10852 0.1134544 0.1187392 0.1243424 0.130177 0.1362233 0.1424738
 0.1489428 0.1553694 0.1617364 0.1673318 0.1721376 0.1757027 0.1780936 0.1794574 0.1798403 0.1794637
 0.1783528 0.1766382 0.1744114 0.1718514 0.1690784 0.1662739 0.1635553 0.1610504 0.1588755 0.1571497
 0.1558224 0.1549315 0.1542747 0.1538058 0.1534157 0.1530745 0.1527857 0.152546 0.1523847 0.1523032
 0.1523136 0.1524159 0.152613 0.1529079 0.1533193 0.1538483 0.1545203 0.1553063 0.1561684 0.15704
 0.1577866 0.1584 0.1587833 0.1590626 0.1592769 0.159612 0.1601759 0.1610783 0.1624036 0.1640966
 0.1661789 0.1684776 0.1709788 0.1734854 0.1759822 0.1782678 0.1803305 0.1820072 0.1832987 0.18417
 0.1846344 0.1847514 0.1845259 0.1840074 0.1831906 0.1820856 0.1806903 0.1789999 0.1770287 0.1747833
 0.1722979 0.1695962 0.1667152 0.1636813 0.1605101 0.1572109 0.1537953 0.1502544 0.1466692 0.1430383
 0.1395262 0.1361482 0.1330217 0.1301537 0.1275286 0.1251411 0.1229188 0.1208608 0.118927 0.1171209
 0.1154402 0.113875 0.1124117 0.1110148 0.1096306 0.108206 0.1066644 0.104962 0.1030304 0.1008852
 0.09849394 0.09596707 0.09332242 0.09071004 0.08817387 0.08578493 0.08357047 0.08148324 0.07952392 0.07760893
 0.07573359 0.07388463 0.07206825 0.07036481 0.06878184 0.06740879 0.06623813 0.06529319 0.06455681 0.06400281
 0.06361198 0.06334554 0.06318063 0.06307878 0.06302007 0.06297617 0.06293964 0.06289806 0.06285468 0.06280687
 0.06276425 0.06272858 0.06270851 0.0627085 0.06271247 0.06272227 0.06268135 0.06258669 0.06237559 0.06204855
 0.06159513 0.06102587 0.06039505 0.05971921 0.05908455 0.05850461 0.05805605 0.05773967 0.05759465 0.0576055
 0.05777566 0.05807168 0.05847836 0.05893787 0.05942364 0.05986543 0.06022984 0.06048196 0.06059806 0.06061399
 0.06052647 0.0604119 0.06027749 0.06017698 0.06011396 0.06009014 0.06010301 0.06011795 0.06013117 0.06010225
 0.06003012 0.0598891 0.05968095 0.05939622 0.05903937 0.05861044 0.05812204 0.0575837 0.05702043 0.05645201
 0.05590574 0.05540308 0.05495423 0.05457145 0.05424075 0.05396323 0.05371298 0.05348543 0.05326604 0.05305143
 0.05285367 0.05267317 0.05253376 0.0524351 0.05237804 0.05235758 0.05234179 0.05232809 0.05228594 0.052225
 0.05215006 0.05207948 0.05204667 0.05206323 0.05215946 0.0523287 0.05257908 0.05289005 0.0532527 0.05365097
 0.05407491 0.05452424 0.05499704 0.05549622 0.05602434 0.056566 0.05712131 0.05765922 0.05817788 0.0586551
 0.0590912 0.05948785 0.05984761 0.06018806 0.06051022 0.06082882 0.06113965 0.06144119 0.06172554 0.06197785
 0.06219461 0.06236412 0.06249086 0.06257547 0.0626196 0.06262872 0.062587 0.06249304 0.06231955 0.06205823
 0.06169638 0.06122737 0.06066992 0.06002372 0.05932468 0.05857495 0.05779903 0.05699725 0.05617596 0.05533573
 0.05448228 0.05361907 0.05276192 0.05191462 0.05109493 0.05030378 0.04955169 0.04883556 0.04815835 0.04750894
 0.04688301 0.04625936 0.04562693 0.04496421 0.04425947 0.04350452 0.04269326 0.04183259 0.04092103 0.03997757
 0.03900257 0.03802792 0.03705535 0.03612397 0.03523537 0.03441881 0.03367344 0.03300839 0.03242145 0.0319093
 0.03147006 0.03109857 0.03079096 0.03054005 0.03033787 0.03017164 0.03003707 0.02992105 0.02983996 0.029792
 0.0298191 0.02993367 0.03018026 0.03057528 0.03113342 0.03186404 0.03274061 0.03376404 0.03487966 0.03608452
 0.03731486 0.03856761 0.03978758 0.04097454 0.042098 0.04316288 0.04416979 0.04512834 0.04606195 0.04698065
 0.04791348 0.04886384 0.04985029 0.05086371 0.05190584 0.05295733 0.0540098 0.05504111 0.05604203 0.05699298
 0.05788698 0.05871276 0.0594656 0.06015183 0.06077009 0.06134474 0.06187697 0.06239855 0.06291132 0.06344764
 0.06400998 0.06463113 0.06531278 0.06607976 0.06693082 0.06787527 0.06891122 0.07003913 0.07125859 0.07257066
 0.07397082 0.07545909 0.07702032 0.07864922 0.08032214 0.08203034 0.08375034 0.08547358 0.0871888 0.08889017
 0.09059011 0.09228744 0.09401561 0.09577653 0.09760431 0.09949908 0.1014662 0.1034967 0.1055371 0.107564
 0.1094583 0.1111954 0.1126424 0.1138083 0.1146322 0.1151776 0.1154856 0.1156514 0.1157656 0.1159077
 0.1161536 0.1165299 0.1170731 0.1177513 0.1185681 0.1194634 0.1204273 0.1214143 0.1224171 0.1234201
 0.1244215 0.1254239 0.1264277 0.1274447 0.1284754 0.1295321 0.1306114 0.131709 0.132815 0.1339033
 0.1349611 0.1359554 0.1368716 0.1376811 0.1383654 0.1388995 0.1392696 0.1394571 0.1394682 0.1392954
 0.1389709 0.1384963 0.1379251 0.1372641 0.136573 0.1358593 0.1351632 0.134488 0.1338411 0.1332223
 0.1326252 0.1320504 0.1314985 0.1309702 0.1304687 0.1299937 0.1295443 0.1291238 0.1287365 0.1283886
 0.1280908 0.1278448 0.1276568 0.1275237 0.1274457 0.1274173 0.1274389 0.1274953 0.1275863 0.1276808
 0.1277757 0.1278328 0.1278485 0.127784 0.127637 0.1273638 0.1269619 0.126386 0.125635 0.1246788
 0.1235219 0.1221644 0.1206179 0.118912 0.1170617 0.1151073 0.113061 0.1109534 0.1087949 0.106603
 0.1043905 0.1021701 0.09994905 0.0977364 0.0955214 0.09330477 0.09106658 0.08880275 0.08650306 0.08416528
 0.08178977 0.07937625 0.0769295 0.0744504 0.07195627 0.06945068 0.06696878 0.06451421 0.06212291 0.05979244
 0.05753732 0.05534694 0.05320958 0.05111257 0.04903189 0.04696769 0.04490523 0.04286904 0.04086486 0.03893098
 0.03708513 0.03535175 0.03374538 0.03225814 0.03089573 0.02961577 0.0284167 0.02723659 0.02607098 0.02487534
 0.02364934 0.02240088 0.02113566 0.01990264 0.01870592 0.01759039 0.01655363 0.01561299 0.0147619 0.01399813
 0.01331036 0.01268494 0.01210693 0.01155717 0.01102901 0.0105095 0.01000892 0.009527172 0.009079718 0.008672922
 0.008307884 0.007989176 0.007693622 0.007421411 0.007129215 0.006814262 0.00643543 0.005991655 0.005472738 0.004882068
 0.004242231 0.003557182 0.002855995 0.002140529 0.001429546 0.0007263265 4.457437E-05 -0.0006101336 -0.0012248 -0.001795907
 -0.002315127 -0.002783049 -0.003197129 -0.003560765 -0.003873971 -0.004143018 -0.00436856 -0.004560794 -0.004720578 -0.004862762
 -0.004988534 -0.005115622 -0.005245392 -0.005390469 -0.005551144 -0.005728462 -0.005921389 -0.006122583 -0.006329984 -0.006532147
 -0.006724389 -0.006888013 -0.007018263 -0.007093713 -0.007121147 -0.00709525 -0.007040047 -0.006973785 -0.006922069 -0.00690995
 -0.006940439 -0.007026148 -0.007142528 -0.007287625 -0.007427556 -0.007555288 -0.007648588 -0.007703003 -0.007714302 -0.007681691
 -0.007608312 -0.007494136 -0.007336921 -0.007136133 -0.006885125 -0.006585288 -0.006237719 -0.005847826 -0.005430778 -0.004993433
 -0.004556964 -0.004124019 -0.003708288 -0.003306084 -0.002919298 -0.002542109 -0.002170414 -0.001803132 -0.001436976 -0.001079384
 -0.0007292902 -0.0004055776 -0.0001094923 0.0001300956 0.0003095073 0.0004068506 0.0004192082 0.0003562565 0.0002195418 5.417442E-05
 -0.0001357946 -0.0002955425 -0.0004240062 -0.00048562 -0.0004851838 -0.000416469 -0.0002888358 -0.0001169925 8.962227E-05 0.0003116915
 0.0005440484 0.0007741677 0.001002672 0.001224321 0.00144828 0.001674635 0.001922108 0.002196126 0.002511374 0.00287459
 0.003275987 0.003717673 0.004165637 0.004617799 0.0050405 0.00543246 0.005780146 0.006085161 0.006355172 0.006593803
 0.006822014 0.007042284 0.007274318 0.007515182 0.007769083 0.008030439 0.008291053 0.0085531 0.008812859 0.009082414
 0.009369488 0.009680216 0.01002405 0.01038409 0.01076095 0.01112131 0.01145753 0.0117517 0.01199727 0.01221578
 0.01240733 0.01261519 0.01284119 0.01310991 0.01341977 0.01376593 0.01414602 0.01454696 0.01496657 0.01539349
 0.01582203 0.0162356 0.01662905 0.01698568 0.01731013 0.01759831 0.01786396 0.01811401 0.01836256 0.01861794
 0.018888 0.01917819 0.01948577 0.01981243 0.02014604 0.02048505 0.0208213 0.02115331 0.02149131 0.02183618
 0.02221413 0.02262638 0.02309682 0.02362204 0.02420077 0.0248233 0.02545951 0.02610162 0.02671743 0.02730841
 0.02786439 0.02838532 0.02887093 0.02931071 0.02969488 0.03002493 0.03029059 0.03052967 0.03074751 0.03099472
 0.03128513 0.03163795 0.03206106 0.03253081 0.03304739 0.03356144 0.03407037 0.03452609 0.03492916 0.0352644
 0.03553822 0.03577413 0.03597785 0.03617973 0.03638081 0.03659596 0.03682889 0.03709024 0.03738517 0.03772508
 0.03810506 0.0385269 0.03897936 0.03945713 0.03995429 0.04046872 0.04099338 0.04152766 0.04205927 0.0425861
 0.04310331 0.04361021 0.04410678 0.04459304 0.04506655 0.04553067 0.04601176 0.04652373 0.04714959 0.04790333
 0.04888015 0.05006749 0.05149795 0.05312007 0.05488249 0.05671477 0.05852528 0.06027253 0.06189371 0.06339414
 0.06477121 0.06599759 0.06708808 0.06790521 0.0684258 0.06851996 0.06814577 0.06740767 0.06629891 0.06514282
 0.06395569 0.06301624 0.06232129 0.06194282 0.06185686 0.0619817 0.06229525 0.06268471 0.06314238 0.0635983
 0.06405188 0.06447802 0.06486373 0.06519105 0.06543729 0.0655755 0.06561147 0.06553015 0.06538494 0.06518584
 0.06499364 0.06482559 0.06470658 0.06464453 0.06463224 0.06467049 0.0647383 0.06483468 0.06494319 0.06506565
 0.06521489 0.06539529 0.06563941 0.06594405 0.06631841 0.06675132 0.06722354 0.06772523 0.06823505 0.06874257
 0.06922745 0.06968934 0.07011111 0.07053273 0.07096329 0.07145909 0.07206056 0.07270943 0.07341588 0.07402581
 0.07450927 0.07484306 0.07501913 0.07509669 0.07507835 0.0749948 0.07484728 0.07465833 0.0744305 0.07419251
 0.07394041 0.07367541 0.07339473 0.07308523 0.07276574 0.07245746 0.07218134 0.07197525 0.07182649 0.07174224
 0.0716924 0.07166078 0.07163834 0.07161531 0.07160457 0.0716059 0.0716392 0.07170744 0.0718248 0.07199458
 0.07219604 0.07242779 0.07262813 0.07279386 0.07286749 0.0728515 0.07272779 0.07250387 0.07219207 0.07180465
 0.07137362 0.0709101 0.07045154 0.06998461 0.06951161 0.06901086 0.068451 0.0678737 0.06727854 0.06675294
 0.06633462 0.06604543 0.06590814 0.06586014 0.0658978 0.0659503 0.06601036 0.06604036 0.06603836 0.06601423
 0.06597312 0.0659805 0.06603868 0.06620211 0.06645241 0.06675816 0.06709679 0.06739627 0.0676593 0.06785574
 0.06800291 0.06810827 0.06818654 0.06824794 0.06831238 0.06839214 0.06850138 0.06865229 0.0688297 0.06903408
 0.06924104 0.0694461 0.06964171 0.06982753 0.06998767 0.07012116 0.070195 0.07020989 0.07016239 0.07005952
 0.06993996 0.06980771 0.06969745 0.06960729 0.06954986 0.06952173 0.06952623 0.06955115 0.0695857 0.06961641
 0.06962456 0.06962045 0.06960315 0.06958856 0.06958743 0.0695849 0.06958036 0.06955445 0.06950136 0.06943277
 0.06934947 0.06925887 0.06916132 0.06902824 0.06885827 0.06862487 0.06833117 0.0679819 0.06758089 0.06714346
 0.06667221 0.0661791 0.065669 0.06515416 0.06463967 0.06413488 0.06364531 0.06317846 0.06273592 0.06232658
 0.06192618 0.06153407 0.06110331 0.06062089 0.06006486 0.05942601 0.05872675 0.05796731 0.05718149 0.05637115
 0.05556033 0.05474973 0.05395538 0.0531756 0.05240871 0.05165317 0.05089883 0.05015402 0.04943295 0.04874385
 0.04811343 0.04752557 0.04697482 0.0464389 0.04589258 0.04534329 0.04478569 0.04423938 0.04371167 0.04320924
 0.0427306 0.04230321 0.04192612 0.0416618 0.04151762 0.04151284 0.04164886</values></Ydata></AB><ScSm><Ydata ylabel="Single channel"><values byteorder="INTEL" format="FLOAT32" numvalues="1814"> 0.07363887 0.07366328 0.0737499 0.07391504 0.07412671 0.07432456 0.07446232 0.07453725 0.07456973 0.07456195
 0.07451092 0.0744628 0.07450531 0.07468042 0.07492667 0.07512234 0.07518362 0.07513741 0.07510652 0.07518892
 0.07532452 0.07531097 0.07499535 0.07445215 0.07393517 0.07364302 0.07359587 0.07378592 0.07429946 0.07507504
 0.07563978 0.0754526 0.07458694 0.07375072 0.07350142 0.07371558 0.07392358 0.07384715 0.07348229 0.07300079
 0.07280269 0.07340112 0.07491453 0.07665998 0.07740315 0.0761326 0.0727786 0.06845 0.06503367 0.06418152
 0.06613944 0.06941228 0.07188831 0.07252353 0.07183842 0.07085288 0.0699987 0.06924834 0.06880394 0.0691236
 0.07027864 0.0715358 0.07173312 0.07026215 0.06779482 0.06581955 0.06529129 0.06602634 0.06749018 0.06938073
 0.07082055 0.06989297 0.06552964 0.05990245 0.05745122 0.06065527 0.06738564 0.07300146 0.07448418 0.07210025
 0.06802364 0.06454097 0.06322174 0.06449219 0.06752698 0.07093889 0.07363483 0.07487752 0.07409644 0.07137851
 0.06795176 0.06558681 0.06550933 0.06792759 0.07198779 0.07583864 0.07747392 0.07622446 0.07320462 0.07012872
 0.06818187 0.06803153 0.06998982 0.07366987 0.0779811 0.08177699 0.08432393 0.08534668 0.08507024 0.08408502
 0.08290257 0.0818803 0.08154415 0.08225714 0.08336552 0.08345495 0.0818987 0.07969867 0.07845104 0.0786954
 0.07948892 0.07955326 0.078564 0.07691709 0.07445624 0.07048853 0.06536399 0.06085851 0.05839588 0.05797946
 0.05926202 0.06209379 0.06527291 0.06647414 0.06479353 0.06236436 0.06222914 0.0651004 0.06900723 0.07171911
 0.07280652 0.07348482 0.07504127 0.07751282 0.07950477 0.07923179 0.07628912 0.07265723 0.07130054 0.07325919
 0.07665768 0.07902139 0.07988584 0.08052804 0.08173122 0.08257654 0.08140047 0.07776915 0.07355513 0.07178996
 0.07402208 0.0787596 0.08254765 0.08252858 0.0783679 0.07233037 0.06751399 0.06570664 0.06689441 0.07043149
 0.07574569 0.08174665 0.0865452 0.0885088 0.08745891 0.08456427 0.08101831 0.07694706 0.07203939 0.06735797
 0.06555539 0.06835145 0.07431905 0.08007622 0.08330952 0.08392361 0.08270667 0.07988995 0.07537082 0.07008797
 0.06646528 0.06652994 0.06948034 0.07214832 0.07232212 0.07075609 0.06952795 0.06942815 0.06967711 0.06954131
 0.06935966 0.0699607 0.07149761 0.07313859 0.07389024 0.07350933 0.07253847 0.07165958 0.07107859 0.07039057
 0.06915698 0.06778781 0.06748971 0.06893712 0.07133153 0.07322265 0.07396476 0.073939 0.07358007 0.07265161
 0.07061796 0.06766236 0.0650983 0.0643878 0.06571753 0.0678874 0.06956485 0.07024147 0.07008258 0.06943677
 0.06860992 0.06777149 0.06699969 0.06648755 0.06649582 0.0669755 0.06749049 0.06765297 0.06742923 0.0669487
 0.06624904 0.06533207 0.06433848 0.06354162 0.06315598 0.06317407 0.06340979 0.06366797 0.06380783 0.0636977
 0.06326286 0.06259762 0.06190844 0.06132754 0.06086973 0.06054796 0.06040752 0.06042638 0.06047439 0.06041625
 0.06021656 0.0599213 0.05957343 0.05918219 0.05875952 0.05835221 0.05802917 0.05783276 0.05772982 0.05762999
 0.05748554 0.05734316 0.05724668 0.05712988 0.05688338 0.05650325 0.0561009 0.05577926 0.05555365 0.05537815
 0.05519429 0.05494525 0.05458178 0.05410329 0.05360837 0.05326042 0.05315779 0.05325617 0.05343517 0.0535927
 0.05365732 0.05358706 0.05340396 0.05317914 0.05295164 0.05269934 0.05240108 0.05209421 0.05186234 0.05177348
 0.05181702 0.05190273 0.05193688 0.05188815 0.05177687 0.05164203 0.05153058 0.05146662 0.05141132 0.0512972
 0.05111474 0.05092929 0.05080679 0.05074827 0.05069773 0.05060272 0.05046935 0.05035438 0.05029851 0.05028437
 0.05026843 0.0502303 0.0501781 0.05012256 0.05005585 0.04995299 0.04980241 0.04963385 0.04949445 0.04939725
 0.04931992 0.04925158 0.04920837 0.04919783 0.04919372 0.04915776 0.04907761 0.04897511 0.04887533 0.04877398
 0.04864743 0.0484911 0.04832945 0.04818617 0.04806103 0.04793954 0.04781191 0.04767852 0.04754207 0.047398
 0.04723562 0.04704926 0.04684333 0.04662748 0.04641705 0.0462363 0.04610355 0.0460067 0.04590547 0.04576569
 0.04558892 0.04540682 0.04524804 0.04511305 0.04498557 0.04486406 0.04476868 0.0447144 0.0446922 0.04468316
 0.04467884 0.04468334 0.04470975 0.04478124 0.04492075 0.04512543 0.04535723 0.04557125 0.04575385 0.04592684
 0.04611695 0.04632977 0.04655192 0.04677057 0.04698834 0.04721867 0.04746363 0.04770169 0.04791002 0.04809484
 0.04828354 0.04849055 0.04871005 0.04893573 0.04916276 0.04937351 0.04954927 0.04969935 0.04985656 0.05003839
 0.05023045 0.05041238 0.05058464 0.05076171 0.0509511 0.05115134 0.05136681 0.05161209 0.05189709 0.05221108
 0.05252358 0.05280308 0.05304184 0.0532678 0.05352712 0.05384659 0.0542112 0.0545797 0.05492143 0.05523793
 0.05555164 0.05587752 0.05621253 0.05655377 0.05691472 0.0573101 0.05773117 0.05815205 0.05855944 0.05896283
 0.05937593 0.05979912 0.06022142 0.0606329 0.06103368 0.06143248 0.06183452 0.06223193 0.06261119 0.06296935
 0.06331818 0.06367471 0.06404978 0.06443717 0.06480852 0.0651319 0.06540813 0.06567777 0.06597587 0.06628998
 0.06658155 0.06684104 0.0670983 0.06737994 0.06767887 0.06797235 0.06825218 0.06852728 0.06880441 0.06907417
 0.06931308 0.06949896 0.06963071 0.06973465 0.06984709 0.06999046 0.07016952 0.07038321 0.07062458 0.07086992
 0.0710849 0.07124902 0.07136796 0.07146463 0.07156862 0.07170852 0.07189585 0.07211328 0.07232665 0.07250796
 0.07264821 0.0727642 0.0728986 0.07309365 0.07335345 0.07364751 0.0739568 0.07429317 0.07466367 0.07504168
 0.07539706 0.07574107 0.07611303 0.07652149 0.07692198 0.07726274 0.07753451 0.0777625 0.07797181 0.07818581
 0.0784418 0.07877111 0.07916166 0.07956499 0.07994382 0.08029616 0.08063295 0.08095226 0.08124116 0.0814914
 0.08170427 0.0818835 0.08203137 0.08215559 0.08227216 0.08238932 0.0824874 0.0825252 0.08246759 0.08229668
 0.08199768 0.08155494 0.08097373 0.08029099 0.07954419 0.07873139 0.07781667 0.07677408 0.07561214 0.07435356
 0.07300796 0.0715749 0.07006597 0.06851569 0.06697499 0.06550311 0.06417335 0.0630916 0.06239714 0.06220737
 0.06252097 0.06316006 0.06381807 0.06418689 0.06407626 0.06345873 0.06243137 0.06113152 0.05966491 0.05808685
 0.05642381 0.05468693 0.05285946 0.05089322 0.04874796 0.04645119 0.04413627 0.04206857 0.04068804 0.04059556
 0.04233938 0.04603171 0.05111615 0.05658435 0.06151585 0.06548099 0.0685316 0.07093447 0.07294589 0.07473116
 0.07636589 0.07786763 0.07923806 0.08048414 0.08160533 0.08257862 0.08336489 0.08392604 0.08424453 0.08434413
 0.08429523 0.0841938 0.0841289 0.08414777 0.08421867 0.08421876 0.08397825 0.08335085 0.08224535 0.08059478
 0.07830296 0.07527974 0.07169971 0.0683846 0.06681836 0.06840616 0.07342325 0.08068246 0.08831622 0.09490098
 0.09994283 0.1036088 0.1062697 0.1082572 0.1098117 0.1110893 0.112186 0.1131622 0.1140545 0.1148826
 0.1156594 0.1163976 0.1171095 0.1178036 0.1184799 0.1191312 0.1197558 0.1203658 0.1209783 0.1216017
 0.1222303 0.1228507 0.1234555 0.1240536 0.1246566 0.125253 0.1258123 0.1263213 0.126802 0.1272908
 0.1278113 0.128363 0.1289223 0.1294535 0.1299364 0.1303822 0.1308181 0.1312592 0.1317025 0.13214
 0.132571 0.1329995 0.1334265 0.1338499 0.1342716 0.1346936 0.1351072 0.1354944 0.1358472 0.1361793
 0.1365132 0.1368615 0.1372217 0.1375844 0.1379456 0.1383163 0.138715 0.1391456 0.1395864 0.1400065
 0.1403928 0.1407568 0.1411186 0.1414911 0.1418778 0.1422771 0.1426829 0.1430863 0.143481 0.143867
 0.1442475 0.1446242 0.1449987 0.1453731 0.1457463 0.146112 0.1464644 0.1468059 0.1471462 0.1474952
 0.1478565 0.1482241 0.1485852 0.1489279 0.1492482 0.1495514 0.1498471 0.1501439 0.1504471 0.1507598
 0.1510835 0.1514167 0.1517554 0.152096 0.1524379 0.1527815 0.1531253 0.1534672 0.1538088 0.154155
 0.1545089 0.1548683 0.1552276 0.1555811 0.1559257 0.1562625 0.1565952 0.1569291 0.1572695 0.1576192
 0.1579765 0.1583378 0.1587028 0.1590731 0.1594468 0.1598167 0.1601753 0.1605193 0.160851 0.1611782
 0.1615105 0.1618529 0.1622034 0.1625572 0.1629112 0.1632653 0.1636199 0.1639737 0.1643243 0.1646703
 0.1650109 0.1653441 0.1656699 0.1659948 0.1663284 0.1666719 0.1670159 0.1673514 0.1676781 0.1680024
 0.1683275 0.16865 0.1689664 0.1692792 0.1695943 0.1699133 0.1702344 0.1705586 0.1708901 0.1712291
 0.1715723 0.1719145 0.1722496 0.172574 0.1728922 0.1732139 0.1735432 0.1738766 0.1742092 0.1745384
 0.1748639 0.1751879 0.1755147 0.1758483 0.1761914 0.1765403 0.176883 0.1772083 0.1775169 0.1778192
 0.1781228 0.1784301 0.1787415 0.1790591 0.1793876 0.1797318 0.180088 0.1804431 0.1807885 0.1811249
 0.1814537 0.1817752 0.1820946 0.1824202 0.1827548 0.1830973 0.1834449 0.1837945 0.1841461 0.1845035
 0.1848645 0.1852177 0.1855569 0.1858865 0.1862113 0.1865351 0.1868656 0.1872055 0.1875463 0.1878804
 0.1882088 0.188533 0.1888525 0.1891708 0.1894908 0.18981 0.1901294 0.1904554 0.1907875 0.1911174
 0.1914409 0.1917596 0.1920772 0.192399 0.1927243 0.1930415 0.1933447 0.1936455 0.1939554 0.1942727
 0.1945949 0.1949221 0.1952463 0.1955579 0.1958597 0.1961574 0.1964525 0.1967498 0.1970501 0.1973313
 0.1975414 0.1975568 0.1970673 0.1954554 0.1917796 0.1849578 0.1741981 0.1595024 0.1418439 0.1228171
 0.1040445 0.0867544 0.07166702 0.05909678 0.04910897 0.04161597 0.03643898 0.03341921 0.03253542 0.03402113
 0.03849018 0.04657483 0.05755325 0.06812797 0.07370684 0.07203299 0.06534743 0.05834783 0.05428316 0.05338173
 0.05425299 0.05570883 0.05736863 0.05944315 0.06230699 0.06607997 0.07059707 0.07585031 0.08221313 0.08996178
 0.09869215 0.1074839 0.1156906 0.1234483 0.13136 0.1397638 0.1483715 0.1565497 0.1638243 0.1701143
 0.1756258 0.1806293 0.1853105 0.1897516 0.1939874 0.1980096 0.2016799 0.2046885 0.2067 0.2076094
 0.2076679 0.2073415 0.2070352 0.2069365 0.2070648 0.2073906 0.2078875 0.2085291 0.2092906 0.21015
 0.2110769 0.2120346 0.2129928 0.2139284 0.2148186 0.2156465 0.2164067 0.217099 0.2177258 0.2182955
 0.2188176 0.2192985 0.2197463 0.2201727 0.2205845 0.2209801 0.2213564 0.2217097 0.2220322 0.2223194
 0.2225795 0.2228278 0.2230758 0.2233248 0.2235685 0.2238013 0.2240281 0.2242592 0.2244951 0.2247228
 0.2249316 0.2251252 0.2253148 0.2255082 0.2257057 0.2259033 0.2261022 0.2263114 0.2265372 0.2267717
 0.2270008 0.2272185 0.2274269 0.2276288 0.2278276 0.2280281 0.2282333 0.2284432 0.2286545 0.2288613
 0.2290609 0.2292625 0.2294787 0.2297071 0.2299342 0.2301558 0.2303802 0.2306124 0.2308491 0.2310817
 0.2312978 0.2314871 0.2316546 0.2318225 0.2320152 0.2322431 0.2324946 0.2327431 0.2329696 0.2331798
 0.2333916 0.2336125 0.2338345 0.2340444 0.2342399 0.2344439 0.234689 0.2349772 0.2352734 0.2355511
 0.2358164 0.2360815 0.2363482 0.2366198 0.2368947 0.2371454 0.2373399 0.2374935 0.2376786 0.2379716
 0.2383799 0.2388249 0.2392108 0.2395136 0.2397826 0.2400733 0.2404053 0.2407476 0.2410059 0.2410863
 0.2410411 0.2410887 0.2414144 0.2419872 0.2426217 0.2431683 0.2435998 0.243962 0.2442955 0.2445925
 0.2448018 0.2448833 0.2448878 0.2449743 0.2452981 0.2458521 0.2464612 0.2469615 0.2473289 0.2476162
 0.2478603 0.2480788 0.2482356 0.2481903 0.2478485 0.2474263 0.2473919 0.248013 0.2490522 0.2500156
 0.2506389 0.2510218 0.2513489 0.2516626 0.25192 0.2520344 0.2517602 0.2508332 0.2494867 0.2485944
 0.2489439 0.2504385 0.2522528 0.2536612 0.2544934 0.2549385 0.2552238 0.255465 0.2555803 0.2553022
 0.254478 0.2534629 0.2530251 0.2536393 0.2549529 0.2561632 0.2568352 0.2571296 0.2573655 0.2576596
 0.2578509 0.2574696 0.2559988 0.2536403 0.25171 0.2517226 0.2539102 0.256936 0.2592158 0.2602838
 0.2606767 0.2607719 0.2602402 0.2586464 0.2560923 0.2531787 0.2508385 0.2502207 0.2519264 0.255046
 0.2576733 0.2587885 0.2591182 0.2599009 0.2613947 0.2628788 0.2636056 0.263382 0.2624359 0.2610064
 0.2592313 0.2575397 0.2568874 0.258081 0.260796 0.2636899 0.2656439 0.2666132 0.267045 0.2665728
 0.2637486 0.2577879 0.2507627 0.2470288 0.2493675 0.2560671 0.2627637 0.2667332 0.2683674 0.2691175
 0.269567 0.2692712 0.2669956 0.2613816 0.2530721 0.2460614 0.2449975 0.2505825 0.258772 0.2645526
 0.2653864 0.2614942 0.2549159 0.2488769 0.2464807 0.2488346 0.2545749 0.2612178 0.2666417 0.2696432
 0.2699368 0.2680651 0.2653365 0.263482 0.2634166 0.2638827 0.2623903 0.2583656 0.254124 0.2514613
 0.2488479 0.244242 0.2395871 0.2395008 0.2452828 0.2527548 0.2569613 0.2571768 0.2559915 0.2545806
 0.2506665 0.241794 0.2299933 0.2218145 0.2225836 0.2308929 0.2398765 0.2439174 0.2430908 0.2411349
 0.2404417 0.2396335 0.2355506 0.2273875 0.218685 0.2143228 0.215326 0.2179402 0.2180552 0.214529
 0.2077329 0.198105 0.1883533 0.1842786 0.1898454 0.2022423 0.2141199 0.2196696 0.2167112 0.205248
 0.1881127 0.1725482 0.1666992 0.1723583 0.182822 0.1890833 0.1869672 0.1778046 0.1645349 0.1496727
 0.1364788 0.129265 0.1307314 0.139238 0.1491453 0.1537578 0.1489714 0.1363135 0.1229646 0.116577
 0.1184721 0.1229048 0.1235783 0.1193439 0.1132218 0.1083299 0.1060151 0.1059457 0.1065595 0.1064142
 0.1053449 0.1031004 0.09778439 0.08827807 0.07775366 0.07167515 0.07205515 0.07634215 0.0819148 0.0883614
 0.09462051 0.097424 0.09499914 0.09052789 0.08949761 0.0939272 0.1006453 0.1051876 0.1062634 0.1060265
 0.106724 0.1081938 0.1091492 0.1100554 0.1131432 0.1192945 0.1263807 0.131552 0.1341166 0.1352793
 0.1360373 0.1364246 0.1362043 0.1352962 0.133734 0.1317422 0.1296383 0.1274036 0.1246256 0.1209464
 0.1161587 0.1098291 0.1015725 0.09230778 0.08472841 0.08142458 0.08241984 0.08551073 0.08898286 0.09234896
 0.09404203 0.09090505 0.08208854 0.07209648 0.06752287 0.07078692 0.07839136 0.08493311 0.08727749 0.08489694
 0.07828726 0.06896333 0.06060166 0.05800441 0.06355178 0.07527812 0.08910431 0.1020654 0.112655 0.1194299
 0.121205 0.1187209 0.1150709 0.114012 0.1178281 0.1262848 0.1365856 0.1439593 0.143981 0.137074
 0.1308146 0.1343421 0.1485287 0.1642828 0.1727173 0.1742378 0.1749112 0.1770523 0.1780034 0.1768121
 0.1769696 0.1813467 0.1876992 0.1908804 0.1875524 0.1775553 0.1630145 0.1483296 0.1391749 0.1383008
 0.14267 0.146887 0.1484395 0.1473519 0.1429543 0.1353389 0.1290165 0.1301546 0.1392784 0.1502006
 0.1571171 0.1600014 0.1620406 0.1641319 0.1637695 0.1588411 0.151191 0.1455499 0.144926 0.1479565
 0.1511787 0.1525902 0.1519052 0.148751 0.1428884 0.1361946 0.132505 0.1344062 0.1406991 0.1475943
 0.1520935 0.1538291 0.1541526 0.1543541 0.1547693 0.1549045 0.1543615 0.1540444 0.1559807 0.1610858
 0.1675594 0.1726508 0.1757897 0.1788039 0.183102 0.1877791 0.1907934 0.1913016 0.1905499 0.1908236
 0.1935897 0.1982753 0.2026444 0.2046475 0.2043186 0.203896 0.2057535 0.2101246 0.215109 0.2187884
 0.2207985 0.2219049 0.2228187 0.2236214 0.2237419 0.2224057 0.2197324 0.2174085 0.2175361 0.220588
 0.2249657 0.2286302 0.2307101 0.2314932 0.231442 0.2306382 0.2290735 0.2271378 0.2255782 0.2249476
 0.2252139 0.2259445 0.2267331 0.227393 0.2279072 0.2283472 0.2288044 0.229325 0.2299067 0.230536
 0.2311708 0.2317052 0.2320436 0.2322369 0.2324718 0.2328668 0.2333223 0.2336307 0.2336883 0.2335152
 0.2331033 0.2323694 0.2312737 0.2298782 0.2282457 0.2263837 0.2243945 0.2226534 0.2217144 0.221935
 0.2231717 0.2248631 0.2264077 0.2274684 0.2280037 0.2281424 0.2280677 0.227942 0.2278547 0.2278232
 0.2278482 0.2279595 0.2281945 0.2285499 0.228983 0.2294652 0.2300077 0.2306191 0.2312572 0.2318418
 0.2323036 0.2326205 0.232832 0.2330276 0.2332944 0.2336515 0.2340362 0.2343539 0.2345347 0.2345592
 0.2344569 0.2342775 0.2340399 0.2337093 0.2332403 0.2326301 0.2318891 0.2309636 0.2297512 0.2282216
 0.2264756 0.2246567 0.2228429 0.22105 0.2192856 0.2175508 0.2158165 0.2140405 0.2122032 0.2103115
 0.2083832 0.20644 0.2045087 0.2026156 0.2007745 0.1989759 0.197188 0.1953709 0.1934898 0.1915125
 0.1893931 0.1870572 0.1844057 0.1813388 0.1777839 0.1737125 0.1691553 0.1642163 0.1590578 0.1538488
 0.1487196 0.1437622 0.1390742 0.1348073 0.1311676 0.128339 0.1263808 0.1251984 0.1246149 0.1244749
 0.1247034 0.1252976 0.1262694 0.1275831 0.1291356 0.1307839 0.1323828 0.1338179 0.1350432 0.1361039
 0.137108 0.138157 0.1392969 0.1405257 0.1418257 0.1431696 0.1444969 0.1457209 0.146782 0.1476823
 0.1484592 0.1491428 0.1497503 0.1502942 0.1507765 0.1511832 0.1514945 0.1517001 0.1518126 0.1518742
 0.1519483 0.1520998 0.1523916 0.1528943 0.153683 0.1548059 0.1562497 0.1579418 0.1597962 0.1617593
 0.1638091 0.1659349 0.168144 0.1704803 0.1730012 0.1757342 0.1786653 0.1817538 0.1849332 0.1880996
 0.1911284 0.1939223 0.1964547 0.1987581 0.2008581 0.202724 0.2042957 0.2055476 0.2065167 0.2072902
 0.2079721 0.2086296 0.2092503 0.2097636 0.2101069 0.2102631 0.2102561 0.2101399 0.2099758 0.2097916
 0.2095677 0.2092759 0.2089242 0.2085659 0.2082804 0.2081331 0.2081322 0.2082225 0.208329 0.2084027
 0.208424 0.2083739 0.2082088 0.2078695 0.207321 0.2065802 0.2056944 0.2047014 0.2036198 0.202463
 0.2012452 0.1999729 0.1986311 0.197179 0.1955749 0.1938175 0.1919526 0.1900304 0.1880778 0.1861173
 0.1841871 0.1823272 0.1805551 0.1788572 0.1771992 0.1755512 0.17391 0.1722948 0.1707242 0.1692115
 0.167773 0.1664208 0.1651497 0.1639509 0.1628464 0.1618959 0.1611557 0.1606226 0.1602232 0.1598653
 0.1594951 0.1591064 0.158722 0.1583859 0.1581462 0.1580085 0.1579067 0.1577386 0.1574411 0.1570324
 0.1565915 0.1561975 0.1558824 0.1556337 0.1554201 0.1551988 0.1549014 0.1544322 0.1536886 0.1525964
 0.1511517 0.1494328 0.1475557 0.1456233 0.1437204 0.1419309 0.1403312 0.1389733 0.1378751 0.1370098
 0.1363094 0.1357094 0.1352009 0.1348321 0.1346582 0.1346725 0.1347633 0.1347703 0.1346234 0.1344134
 0.1343017 0.1343839 0.1346453 0.1349981 0.1353376 0.1356001 0.1357836 0.1359076 0.1359688 0.1359447
 0.1358096 0.1355434 0.1351552 0.1346975 0.1342281 0.1337653 0.133288 0.1327588 0.1321438 0.1314307
 0.1306242 0.1297227 0.128726 0.1276466 0.1264723 0.1251602 0.1237456 0.1224302 0.1214828 0.1210438
 0.121024 0.1211675 0.1212429 0.1212157 0.1211702 0.1210459 0.120648 0.120079 0.119987 0.1210916
 0.1234244 0.1261969 0.1284593 0.1297726 0.1302323 0.1300714 0.1294321 0.1283984 0.1270158 0.1252734
 0.1231783 0.1208041 0.1182272 0.1155271 0.1128646 0.1104296 0.1083204 0.1065525 0.1051172 0.1040541
 0.1034928 0.1031313 0.1013632 0.09612145 0.08805874 0.08197725 0.0827958 0.09002227 0.09809566 0.1022756
 0.1024194 0.1010294 0.09983203 0.09909996 0.09876063 0.09892511 0.09967202 0.1008592 0.1021508 0.1032049
 0.1038826 0.1042126 0.104142 0.1033624 0.1012916 0.09727204 0.09110101 0.08350278 0.07589076 0.06956569
 0.06515281 0.06258769 0.06134911 0.06076448 0.06037612 0.06016035 0.06039935 0.06134739 0.06301922 0.06525645
 0.06789453 0.07075503 0.07352942 0.07587656 0.07768983 0.07911614 0.08027627 0.08110963 0.08151108 0.08148341
 0.08112808 0.08057748 0.07994795 0.07929242 0.07856935 0.07768871 0.07664496 0.07562052 0.07488398 0.07453865
 0.07444393 0.07441553 0.07439701 0.07440381 0.0744272 0.07445014 0.07448383 0.074572 0.07479119 0.07519931
 0.07574637 0.07628793 0.07670535 0.07698055 0.07716921 0.07730989 0.07732694 0.0770888 0.07664865 0.07628851
 0.07614677 0.07594734 0.07534365 0.07444029 0.07373701 0.07359557 0.07393423 0.07440656 0.07472049 0.07478955
 0.07472795 0.07477479 0.07512049 0.07568052</values></Ydata></ScSm><ScRf><Ydata ylabel="Single channel"><values byteorder="INTEL" format="FLOAT32" numvalues="1820"> 0.0606661 0.06081602 0.06090698 0.0609426 0.06095011 0.06097183 0.06104696 0.06118846 0.061372 0.0615471
 0.06167019 0.06173476 0.06175964 0.0617513 0.06170803 0.0616653 0.06169527 0.06183562 0.06203751 0.06219828
 0.06224511 0.06219938 0.06216566 0.06222815 0.06233586 0.06231648 0.06204158 0.06157764 0.06114174 0.06090011
 0.06086468 0.06102332 0.06144776 0.06209318 0.06257114 0.06242675 0.06171054 0.06100813 0.06079166 0.06096718
 0.06114221 0.06107678 0.06076352 0.06034959 0.06017469 0.0606685 0.06192739 0.06337982 0.06399822 0.0629428
 0.06015591 0.05655728 0.0537132 0.05299783 0.05461938 0.05733712 0.059393 0.05991615 0.05934296 0.05852939
 0.05783449 0.05722187 0.05684549 0.05708808 0.05802529 0.05906048 0.05922598 0.05800564 0.05595091 0.05429909
 0.05384879 0.05445345 0.05567237 0.05725249 0.05845889 0.05769386 0.05406701 0.04938339 0.0473389 0.05000658
 0.05562559 0.06033045 0.0615909 0.05961504 0.0562178 0.05331649 0.05221924 0.05326935 0.05577456 0.05859094
 0.06082278 0.06185973 0.0612215 0.05897416 0.05613491 0.05417389 0.05411165 0.0561259 0.05951071 0.06272633
 0.06409831 0.06306064 0.06053416 0.05794783 0.05629636 0.05614448 0.05776104 0.06083229 0.06445198 0.06765646
 0.06981891 0.07069611 0.07047279 0.06965241 0.06867485 0.06783756 0.06756675 0.06815993 0.06908083 0.06915864
 0.06786793 0.06603685 0.06499572 0.06519995 0.06586593 0.06592331 0.06509827 0.06372677 0.06168546 0.05839122
 0.05412358 0.05036122 0.04830109 0.04795568 0.04904179 0.05143952 0.05414187 0.05518964 0.05380861 0.05177664
 0.05164841 0.05403659 0.05730244 0.05957706 0.06049356 0.06106927 0.06238894 0.06448683 0.06618924 0.06599095
 0.06354541 0.0605126 0.05938729 0.06105349 0.06394155 0.06597062 0.0667474 0.06734515 0.06842269 0.06920344
 0.06828107 0.06528798 0.06180527 0.06038954 0.06234165 0.06640105 0.06965684 0.06969784 0.06623733 0.06119139
 0.05718847 0.0557463 0.0568601 0.06000344 0.06471212 0.070058 0.0744081 0.07633412 0.07564677 0.07332735
 0.07040698 0.06700753 0.06286809 0.0589309 0.05754367 0.06023724 0.0657608 0.07112549 0.07427448 0.07510424
 0.07429029 0.07201275 0.06816573 0.06361225 0.06058981 0.06097168 0.06401652 0.06679158 0.06724574 0.06607889
 0.06523003 0.06544695 0.06600612 0.06622295 0.06643048 0.06742434 0.06933615 0.07133731 0.07244927 0.0724355
 0.07183879 0.07134639 0.07116598 0.07087839 0.07003293 0.06905621 0.06919067 0.07112701 0.07404251 0.07644234
 0.07765616 0.07807423 0.07813859 0.07757817 0.07580726 0.07302772 0.07067417 0.07034548 0.07225537 0.07509887
 0.07740638 0.07860179 0.07886481 0.0785924 0.07812752 0.07764954 0.0772399 0.07712275 0.07760299 0.078622
 0.07966554 0.08028189 0.08044857 0.08033097 0.07996024 0.0793151 0.07856025 0.07803737 0.07801548 0.07849081
 0.07924052 0.08002174 0.08064976 0.08095114 0.08082704 0.08039758 0.07993592 0.07962094 0.07946703 0.07948332
 0.07973504 0.08020341 0.08071528 0.08108267 0.08125082 0.08127564 0.08121498 0.08108534 0.08090034 0.08072008
 0.08064973 0.08076182 0.08100787 0.08125567 0.08144638 0.08165182 0.08192154 0.08214819 0.0821775 0.0820114
 0.08181414 0.08173369 0.08178367 0.08188801 0.08196869 0.08196087 0.08179852 0.08147122 0.08111086 0.08094724
 0.08112584 0.08160235 0.08222158 0.08282703 0.08328716 0.08352603 0.08358073 0.08356215 0.08352734 0.08344036
 0.08326931 0.083078 0.08300672 0.08316781 0.08354633 0.08400378 0.084388 0.08462657 0.08472957 0.08476698
 0.08484568 0.08502319 0.08522198 0.08530316 0.08524436 0.08517704 0.0852259 0.08536477 0.08545829 0.08542185
 0.08531758 0.08528882 0.08541052 0.0856258 0.08583 0.08598698 0.08614471 0.08634953 0.08655822 0.0866518
 0.08655992 0.08635715 0.08619111 0.08612636 0.08612055 0.08614687 0.0862522 0.08646183 0.08669427 0.08682919
 0.08684016 0.08681726 0.08685426 0.08693933 0.08697378 0.08688571 0.08670441 0.08652763 0.08643857 0.08645593
 0.08653788 0.08661555 0.08663277 0.08657422 0.08646585 0.08634784 0.08624788 0.08618699 0.08620509 0.08634776
 0.08659756 0.08683209 0.08689559 0.08673674 0.0864647 0.08625251 0.08618328 0.08619248 0.08615105 0.08599045
 0.08574703 0.08550463 0.08531662 0.08518177 0.08507306 0.08497681 0.08491389 0.08493094 0.0850515 0.08521708
 0.08529697 0.0851941 0.08494166 0.08467094 0.08449094 0.08442101 0.08441769 0.08442819 0.0844297 0.08444609
 0.08451118 0.08459987 0.08463193 0.0845672 0.08446127 0.08440815 0.08446421 0.08463018 0.08485035 0.08501837
 0.08504546 0.08495082 0.08484666 0.0848214 0.08487207 0.08495218 0.08503726 0.08512498 0.08520938 0.0852887
 0.08538717 0.08554355 0.08577254 0.08604266 0.0862923 0.08647045 0.08657533 0.08666259 0.08680904 0.08705443
 0.08737164 0.08769054 0.08795297 0.08815337 0.08833106 0.08852205 0.08872579 0.08892956 0.08914897 0.08941472
 0.08972491 0.09004268 0.09034207 0.09062973 0.09092039 0.0912153 0.09151117 0.09181897 0.09216655 0.09257273
 0.09300615 0.09338282 0.09363269 0.09377161 0.09389408 0.09409979 0.09442687 0.09482379 0.09517027 0.09536719
 0.09544046 0.09552633 0.09572285 0.09598964 0.09623232 0.09645049 0.09674102 0.09716022 0.09763443 0.09802587
 0.09826489 0.09840342 0.09854692 0.09874325 0.09894434 0.09908019 0.09915334 0.09923305 0.09936593 0.09953959
 0.09974498 0.1000202 0.1003929 0.1008133 0.1011888 0.1014689 0.1016665 0.101815 0.1019351 0.1020303
 0.1020897 0.1021108 0.1021285 0.1021928 0.1023051 0.1024073 0.1024566 0.1024809 0.1025412 0.1026694
 0.1028681 0.103135 0.103448 0.1037506 0.1040028 0.1042437 0.1045523 0.1049276 0.1052566 0.1054353
 0.1054846 0.1055037 0.1055428 0.1055855 0.1056381 0.1057609 0.1059945 0.1063088 0.1066482 0.1069918
 0.1073472 0.107708 0.108034 0.1082692 0.1083779 0.1083752 0.1083295 0.108329 0.1084388 0.1086719
 0.1089857 0.1093082 0.1095802 0.1097719 0.1098663 0.1098582 0.1097922 0.1097709 0.1098754 0.110072
 0.1102261 0.1102134 0.1099996 0.1096172 0.1091047 0.1084912 0.1078215 0.1071694 0.1066137 0.1062062
 0.1059693 0.1059284 0.1061263 0.1065796 0.1072227 0.1079246 0.1085687 0.1090835 0.1093978 0.1094221
 0.1091158 0.1085452 0.107841 0.1071163 0.1064353 0.1058178 0.1052396 0.1046662 0.1041344 0.1037934
 0.1038355 0.1043814 0.1054206 0.1068186 0.1083589 0.1098133 0.1110338 0.112005 0.1128081 0.1135291
 0.1142067 0.1148563 0.1155052 0.1161698 0.116815 0.1173802 0.1178477 0.1182567 0.1186497 0.1190321
 0.1193813 0.1196722 0.1199016 0.1201001 0.1203021 0.1204892 0.1205931 0.1205738 0.120471 0.1203536
 0.1202416 0.1200941 0.1198551 0.1195 0.1190669 0.1186745 0.1185021 0.1187161 0.1193783 0.1204108
 0.1216546 0.1229664 0.1242515 0.1254213 0.1263737 0.1270494 0.1274854 0.1277857 0.1280476 0.1283247
 0.1286301 0.1289505 0.1292625 0.1295539 0.1298339 0.1301234 0.1304393 0.1307803 0.131118 0.1314117
 0.1316479 0.1318648 0.1321278 0.1324717 0.1328661 0.1332454 0.1335744 0.1338767 0.1341856 0.1344873
 0.1347366 0.1349227 0.1350897 0.135297 0.1355795 0.135935 0.1363185 0.1366572 0.1369034 0.137078
 0.1372446 0.1374472 0.1376857 0.1379386 0.1381894 0.1384308 0.1386645 0.1389054 0.1391769 0.1394846
 0.1397931 0.1400436 0.1402106 0.140332 0.1404728 0.1406652 0.1408908 0.1411127 0.1413162 0.1415235
 0.1417729 0.1420756 0.1423912 0.1426569 0.142843 0.1429734 0.1430956 0.1432432 0.143425 0.143633
 0.1438513 0.1440635 0.1442635 0.1444619 0.1446737 0.144899 0.14512 0.1453215 0.1455081 0.1456973
 0.1459006 0.1461148 0.146334 0.1465669 0.1468337 0.1471379 0.1474463 0.1477103 0.147905 0.1480426
 0.1481541 0.1482673 0.1484016 0.1485651 0.1487544 0.1489596 0.1491708 0.1493817 0.1495899 0.1497976
 0.150008 0.1502219 0.150436 0.1506466 0.1508546 0.1510672 0.1512909 0.1515215 0.151744 0.1519466
 0.1521316 0.152313 0.1525051 0.1527089 0.1529096 0.1530917 0.1532578 0.1534285 0.1536194 0.1538277
 0.1540394 0.1542443 0.1544392 0.1546254 0.1548083 0.1549944 0.1551862 0.1553804 0.1555743 0.155771
 0.1559748 0.1561807 0.1563773 0.1565616 0.1567454 0.1569426 0.1571547 0.1573715 0.1575841 0.1577922
 0.158 0.1582066 0.1584062 0.1585962 0.1587818 0.1589677 0.1591525 0.159334 0.1595156 0.1597038
 0.1599024 0.1601103 0.1603225 0.1605338 0.1607448 0.160958 0.161171 0.1613786 0.1615811 0.1617827
 0.1619852 0.1621898 0.1624022 0.1626277 0.1628638 0.1631022 0.1633339 0.1635533 0.1637594 0.1639524
 0.1641306 0.1642942 0.1644506 0.1646112 0.1647845 0.1649711 0.1651622 0.1653452 0.1655177 0.165693
 0.1658832 0.1660856 0.1662921 0.1665013 0.1667142 0.1669269 0.1671341 0.1673336 0.1675271 0.1677205
 0.1679182 0.1681187 0.1683194 0.1685223 0.168728 0.1689321 0.1691339 0.1693394 0.169552 0.1697675
 0.16998 0.170186 0.1703861 0.1705878 0.1707987 0.1710173 0.1712367 0.1714545 0.1716702 0.1718822
 0.1720936 0.1723098 0.1725282 0.1727421 0.1729494 0.1731505 0.1733463 0.1735449 0.1737546 0.1739721
 0.1741892 0.1744047 0.1746187 0.1748279 0.1750342 0.175244 0.1754569 0.1756712 0.1758897 0.1761098
 0.1763245 0.1765371 0.1767519 0.1769501 0.177081 0.1770304 0.1765209 0.1749991 0.1716177 0.1654047
 0.155655 0.1423794 0.1264565 0.1093186 0.09242111 0.07686355 0.06329136 0.05198948 0.0430195 0.03629778
 0.03165106 0.02892533 0.02810063 0.02939504 0.0333681 0.04058965 0.05041307 0.0598876 0.06490338 0.06343263
 0.05746521 0.05119331 0.04752612 0.0466793 0.04741959 0.04869195 0.05016242 0.05202026 0.05458916 0.05795992
 0.06197959 0.06664909 0.07230884 0.07920459 0.08697683 0.09481178 0.1021347 0.1090558 0.1161005 0.1235712
 0.1312245 0.138508 0.1449967 0.1506027 0.1554956 0.1599191 0.1640548 0.1679901 0.1717585 0.1753447
 0.1786143 0.1812839 0.1830539 0.1838331 0.1838476 0.1835175 0.1832098 0.1830934 0.1831822 0.1834479
 0.1838692 0.1844248 0.18509 0.1858391 0.1866418 0.1874694 0.1883042 0.1891319 0.1899306 0.1906793
 0.1913677 0.1919917 0.192552 0.1930577 0.1935214 0.1939528 0.1943588 0.1947439 0.1951076 0.1954505
 0.1957782 0.196092 0.196385 0.1966552 0.1969098 0.1971518 0.1973772 0.1975881 0.1977953 0.1980068
 0.1982229 0.1984418 0.1986602 0.198873 0.1990768 0.1992733 0.1994657 0.1996552 0.1998407 0.2000205
 0.2001989 0.2003865 0.200588 0.2007937 0.2009896 0.2011707 0.2013427 0.2015147 0.2016956 0.2018909
 0.2020983 0.2023099 0.202516 0.2027093 0.2028924 0.2030795 0.2032837 0.2035031 0.2037278 0.2039534
 0.2041765 0.2043892 0.2045891 0.2047861 0.2049865 0.2051792 0.2053504 0.2055075 0.205678 0.2058842
 0.2061201 0.206357 0.206573 0.2067699 0.2069619 0.2071593 0.2073623 0.2075617 0.2077482 0.2079334
 0.2081459 0.2083946 0.2086525 0.2088927 0.2091158 0.2093349 0.2095577 0.20979 0.210028 0.2102453
 0.2104142 0.2105477 0.2107073 0.2109577 0.2113059 0.2116824 0.2119999 0.2122327 0.2124253 0.212636
 0.2128931 0.2131743 0.2133909 0.2134496 0.2133904 0.2134112 0.2136854 0.2141857 0.214736 0.2151925
 0.2155316 0.2158034 0.2160508 0.2162679 0.2164084 0.2164401 0.2164133 0.2164705 0.2167464 0.2172318
 0.21777 0.2182124 0.2185312 0.2187694 0.2189637 0.2191373 0.2192602 0.2191995 0.2188607 0.2184346
 0.2183478 0.2188505 0.2197382 0.2205729 0.2211152 0.2214457 0.2217239 0.2219881 0.2222008 0.2222844
 0.2220209 0.2211753 0.2199535 0.219136 0.219435 0.2207717 0.2224016 0.2236612 0.2243922 0.2247727
 0.2250184 0.2252391 0.2253622 0.225145 0.2244423 0.2235605 0.2231821 0.2237377 0.2249185 0.2260045
 0.2266017 0.2268558 0.2270612 0.2273287 0.2275137 0.22719 0.2258919 0.223802 0.2220969 0.2221216
 0.2240745 0.2267661 0.2287958 0.2297555 0.230121 0.2302197 0.2297538 0.2283431 0.2260912 0.2235338
 0.2214898 0.2209743 0.222524 0.2253265 0.2276762 0.2286656 0.2289547 0.22966 0.2310149 0.2323698
 0.2330461 0.2328668 0.2320403 0.2307853 0.2292264 0.2277455 0.2271907 0.228268 0.2306782 0.2332319
 0.2349523 0.2358168 0.2362272 0.2358447 0.2333627 0.2280759 0.2218308 0.2185032 0.2205711 0.2265281
 0.2325084 0.2360862 0.2375958 0.2383183 0.2387666 0.2385392 0.2365317 0.2315305 0.2241159 0.217873
 0.2169665 0.2220134 0.2293835 0.234601 0.2354093 0.2319989 0.2261773 0.2208234 0.218721 0.2208773
 0.2260856 0.2321166 0.2370544 0.2398232 0.2401801 0.2386075 0.2362669 0.2347166 0.2347864 0.2353414
 0.2341422 0.2306789 0.2270284 0.2247955 0.2226077 0.2186335 0.2146212 0.2147415 0.2201879 0.2271962
 0.2312786 0.2317682 0.2310007 0.2300324 0.2267955 0.2190558 0.2086499 0.2015536 0.2026563 0.2106836
 0.2193457 0.2235106 0.2232794 0.2220961 0.2221498 0.2221503 0.219144 0.2123823 0.2052402 0.2023664
 0.204714 0.2086754 0.2103174 0.2084979 0.2034433 0.1954834 0.1873262 0.1848345 0.1920533 0.206222
 0.2199541 0.2273165 0.2259423 0.2156438 0.1992876 0.1846105 0.1804418 0.188754 0.2022497 0.2110939
 0.2106982 0.2024544 0.1895371 0.174808 0.1622216 0.1571334 0.1630535 0.1781375 0.1952727 0.2055605
 0.2031822 0.189966 0.1759088 0.1719595 0.1799729 0.1914035 0.1969022 0.1948252 0.1898109 0.186834
 0.1883659 0.1939967 0.2008493 0.2062667 0.2099188 0.2107076 0.2038693 0.1866887 0.1660571 0.1539514
 0.1549955 0.1640287 0.1756784 0.1892143 0.2024062 0.2081749 0.2025763 0.1923052 0.1890384 0.1970366
 0.2094839 0.216844 0.2163104 0.2123428 0.2097452 0.2085281 0.2063189 0.2039313 0.2055432 0.2129582
 0.2224729 0.2290111 0.23139 0.2318696 0.2322966 0.2327017 0.2326027 0.2318453 0.2305089 0.2290128
 0.227995 0.2275874 0.2272912 0.2267342 0.2256256 0.22257 0.2153681 0.2041045 0.1931316 0.1876277
 0.1880974 0.1907027 0.1929592 0.1951803 0.1951612 0.1867017 0.1678061 0.1473859 0.1387778 0.1468597
 0.1644164 0.1803459 0.188166 0.1865677 0.1760683 0.159171 0.1430142 0.1371777 0.1458873 0.163945
 0.1822599 0.1956784 0.2036362 0.2058438 0.2012626 0.1911512 0.1803508 0.1745439 0.1767629 0.1860205
 0.1976797 0.2047087 0.2010906 0.187749 0.1752232 0.1759585 0.1912853 0.2092724 0.2181452 0.2182359
 0.2173454 0.2186081 0.2188667 0.2170999 0.2178848 0.2250755 0.2361161 0.2445571 0.245714 0.2385191
 0.2249658 0.2106246 0.2031939 0.2062848 0.2152584 0.222233 0.2237013 0.2200638 0.2109682 0.1972902
 0.1861047 0.1864252 0.1987552 0.2139029 0.2234197 0.2272873 0.2301019 0.2331702 0.2329464 0.2264415
 0.2162553 0.2089904 0.2087172 0.2133943 0.2182962 0.2210026 0.2214062 0.2188536 0.2125562 0.2048196
 0.2010826 0.205165 0.2152784 0.2256826 0.2318117 0.233119 0.2316993 0.2295793 0.2273749 0.2244806
 0.2204098 0.2165228 0.2157687 0.2195437 0.2254725 0.2298452 0.2318649 0.2339262 0.2378533 0.2423939
 0.2447523 0.2436459 0.2405198 0.2382723 0.2389194 0.2419997 0.2449265 0.2451963 0.2427696 0.2403289
 0.2408092 0.2446034 0.2495199 0.2532808 0.2553715 0.2565602 0.2575703 0.2584499 0.2585363 0.2569558
 0.2538655 0.2511792 0.2512099 0.2543732 0.258792 0.2622375 0.2639273 0.2643961 0.2642716 0.2636271
 0.2623389 0.260665 0.2592565 0.2586433 0.258853 0.2595489 0.2603825 0.2611469 0.2617484 0.2621784
 0.2624826 0.2626933 0.2628185 0.2628932 0.262963 0.2630057 0.2629592 0.262859 0.2628588 0.2630578
 0.2633654 0.2635946 0.2636261 0.2634121 0.2628827 0.2619714 0.2607305 0.2593101 0.2577852 0.2561088
 0.2543449 0.2529082 0.2524334 0.2533025 0.255297 0.2577339 0.2599272 0.2615243 0.2625045 0.2630031
 0.2631879 0.2632157 0.2631933 0.2631458 0.2630369 0.2628336 0.262544 0.2622001 0.2618284 0.2614506
 0.2610966 0.2607926 0.2605297 0.2602608 0.2599336 0.2595231 0.2590395 0.2585171 0.2579872 0.2574409
 0.2568198 0.2560623 0.2551631 0.2541863 0.2532262 0.2523554 0.2515853 0.250862 0.2501113 0.2492909
 0.2483855 0.247372 0.2462429 0.2450736 0.2440103 0.2431535 0.2424729 0.241854 0.2411927 0.2404317
 0.2395477 0.2385536 0.2374983 0.2364292 0.2353527 0.2342421 0.2330684 0.231813 0.230466 0.229029
 0.2275135 0.2259362 0.2243206 0.2226912 0.2210386 0.2192884 0.2173172 0.2149951 0.2122088 0.2088694
 0.2049412 0.2004836 0.1956595 0.1906896 0.1857845 0.1811062 0.1767761 0.1728971 0.1695597 0.1668348
 0.1647713 0.1633979 0.1627264 0.1627563 0.1634779 0.1648643 0.1668552 0.169342 0.1721668 0.1751445
 0.1780986 0.1808904 0.1834428 0.1857623 0.1879228 0.1899884 0.191949 0.1937467 0.1953501 0.1967694
 0.1980121 0.1990635 0.1999145 0.2005869 0.2011255 0.2015743 0.2019625 0.2023091 0.2026304 0.2029326
 0.203203 0.2034251 0.2036046 0.2037686 0.2039449 0.2041511 0.2044002 0.2047086 0.2050959 0.2055711
 0.2061152 0.2066875 0.2072568 0.2078233 0.2084092 0.209042 0.2097527 0.2105781 0.2115477 0.2126668
 0.2139089 0.2152282 0.2165748 0.2178925 0.2191066 0.2201362 0.2209277 0.2214708 0.2217816 0.2218848
 0.2218145 0.2216148 0.2213263 0.2209698 0.2205446 0.2200429 0.219468 0.218837 0.2181693 0.2174793
 0.2167795 0.2160831 0.2153975 0.2147196 0.2140425 0.2133682 0.2127099 0.2120818 0.2114879 0.2109234
 0.2103799 0.2098419 0.2092876 0.2087067 0.208112 0.2075158 0.2068954 0.2061965 0.2053791 0.2044471
 0.2034275 0.2023304 0.2011432 0.1998581 0.1984882 0.1970537 0.195563 0.1940122 0.1923941 0.1907009
 0.1889165 0.1870212 0.1850215 0.1829774 0.1809835 0.1791168 0.1774024 0.1758223 0.1743446 0.1729463
 0.1716176 0.1703489 0.169122 0.1679278 0.1667831 0.165711 0.1647107 0.163764 0.1628658 0.1620363
 0.1613036 0.1606793 0.160151 0.1597003 0.1593201 0.1590084 0.1587602 0.1585844 0.1585058 0.1585245
 0.1585867 0.1586185 0.1585791 0.1584758 0.1583442 0.1582201 0.1581189 0.1580391 0.1579787 0.1579208
 0.1577992 0.157504 0.1569295 0.1560194 0.1547818 0.153274 0.1515688 0.1497467 0.1479202 0.1462272
 0.1447752 0.143612 0.1427395 0.1421134 0.141639 0.1412282 0.1408724 0.1406438 0.1406249 0.1408238
 0.1411237 0.141343 0.1413984 0.1413965 0.1415374 0.1419487 0.1426108 0.1433911 0.1441356 0.14476
 0.1452551 0.1456221 0.1458546 0.1459762 0.1460279 0.1460176 0.145929 0.1457592 0.1455136 0.1451963
 0.1448153 0.1443698 0.1438453 0.1432467 0.1425948 0.1418841 0.1410968 0.1402351 0.1392742 0.138151
 0.1368971 0.135735 0.1349655 0.1347851 0.1351996 0.1360365 0.1370609 0.1381315 0.1391768 0.1400084
 0.1403722 0.1403399 0.1405011 0.1415397 0.1435856 0.1460679 0.1482199 0.1496414 0.1503465 0.1504507
 0.1500134 0.1490829 0.1476672 0.1457042 0.1432026 0.1403212 0.1372327 0.1340648 0.1309965 0.1282235
 0.125843 0.1238869 0.1223761 0.1213617 0.1209703 0.1208205 0.1189993 0.1130571 0.1037823 0.09687753
 0.09813968 0.1069244 0.1166059 0.1215685 0.1216646 0.1198967 0.118345 0.1173333 0.1167676 0.116811
 0.1175997 0.1189635 0.1204717 0.1217044 0.1225086 0.122939 0.1229476 0.1221473 0.119786 0.1150307
 0.1076374 0.09850077 0.08934233 0.08172791 0.07637852 0.07318687 0.07155706 0.07075483 0.07026401 0.07002287
 0.07031759 0.07142137 0.07335736 0.07598004 0.07913202 0.08258574 0.08592936 0.08873877 0.09089646 0.0925909
 0.09398617 0.09502833 0.09558491 0.09563849 0.09529835 0.09470577 0.09397402 0.09316586 0.09226416 0.0911913
 0.08995061 0.08875471 0.08790316 0.08749897 0.08738145 0.08734734 0.08732171 0.08730865 0.08730385 0.08729126
 0.08726478 0.08725786 0.08736349 0.08766065 0.08810104 0.08852829 0.08881623 0.08895425 0.08901136 0.08901355
 0.08883606 0.08830918 0.08751047 0.08678809 0.08631636 0.08579183 0.08482371 0.08352904 0.08248286 0.08210333
 0.08228254 0.0826071 0.08275197 0.08263735 0.08239871 0.08232021 0.08265235 0.08331855 0.08387147 0.08389839
</values></Ydata></ScRf><Data_Parameters_AB><parameter name="DPF">1</parameter><parameter name="NPT">3497</parameter><parameter name="FXV">3996</parameter><parameter name="LXV">500</parameter><parameter name="CSF">1</parameter><parameter name="MXY">0.419857561588287</parameter><parameter name="MNY">-0.08406862616539</parameter><parameter name="DAT">27/05/2022</parameter><parameter name="TIM">12:29:21.398 (GMT+2)</parameter><parameter name="DXU">WN</parameter></Data_Parameters_AB><AB__Qtest><MainReport name="Quality Test Report"><Header><Line><Legend>Test result ok/not ok [1/0]: </Legend><Value>0</Value></Line><Line><Legend>Method file: </Legend><Value>C:\Users\Public\Documents\Bruker\OPUS_8.2.28\QT\IRBT_v3_default.QT</Value></Line></Header><Matrix><Line><Legend></Legend><Legend>min</Legend><Legend>max</Legend><Legend>measured</Legend></Line><Line><Value>Absorption (X-Range 1):</Value><Value>0.400000</Value><Value>2.000000</Value><Value>0.387450</Value></Line><Line><Value>Noise (X-Range 4):</Value><Value></Value><Value>0.000300</Value><Value>0.000050</Value></Line><Line><Value>Signal/Noise (X-Range 2):</Value><Value>200.000000</Value><Value></Value><Value>221.708861</Value></Line><Line><Value>Signal/Noise (X-Range 3):</Value><Value>40.000000</Value><Value></Value><Value>88.672773</Value></Line><Line><Value>Water vapour (X-Range 5):</Value><Value></Value><Value>0.000300</Value><Value>0.000113</Value></Line><Line><Value>Signal/Water (X-Range 2):</Value><Value>100.000000</Value><Value></Value><Value>98.370390</Value></Line><Line><Value>Signal/Water (X-Range 3):</Value><Value>20.000000</Value><Value></Value><Value>39.343377</Value></Line><Line><Value>Fringes (X-Range 6):</Value><Value></Value><Value>0.000100</Value><Value>0.000069</Value></Line></Matrix></MainReport></AB__Qtest><Data_Parameters_ScSm><parameter name="DPF">1</parameter><parameter name="NPT">1814</parameter><parameter name="FXV">3996.33169228125</parameter><parameter name="LXV">499.541461535156</parameter><parameter name="CSF">1</parameter><parameter name="MXY">0.269936800003052</parameter><parameter name="MNY">0.0325354188680649</parameter><parameter name="DAT">27/05/2022</parameter><parameter name="TIM">12:29:21.398 (GMT+2)</parameter><parameter name="DXU">WN</parameter></Data_Parameters_ScSm><Data_Parameters_ScRf><parameter name="DPF">1</parameter><parameter name="NPT">1820</parameter><parameter name="FXV">4004.04661832813</parameter><parameter name="LXV">495.683998511719</parameter><parameter name="CSF">1</parameter><parameter name="MXY">0.264396131038666</parameter><parameter name="MNY">0.0281006321310997</parameter><parameter name="DAT">27/05/2022</parameter><parameter name="TIM">12:28:54.318 (GMT+2)</parameter><parameter name="DXU">WN</parameter></Data_Parameters_ScRf><Optic_Parameters_Rf><parameter name="APR">0</parameter><parameter name="APT">Open</parameter><parameter name="BMS">KBr</parameter><parameter name="DTC">RT-DLaTGS_IR-Biotyper [Microplate reader]</parameter><parameter name="HPF">0</parameter><parameter name="LPF">10.0</parameter><parameter name="LPV">4000</parameter><parameter name="PGR">0</parameter><parameter name="RCH">Module port</parameter><parameter name="RDX">0</parameter><parameter name="SRC">MIR</parameter><parameter name="VEL">10.0</parameter><parameter name="SON">Off</parameter></Optic_Parameters_Rf><Acquisition_Parameters_Rf><parameter name="ADT">1</parameter><parameter name="AQM">DD</parameter><parameter name="CFE">0</parameter><parameter name="COR">0</parameter><parameter name="DEL">0</parameter><parameter name="DLY">0</parameter><parameter name="HFW">8000</parameter><parameter name="LFW">0</parameter><parameter name="NSR">32</parameter><parameter name="PLF">AB</parameter><parameter name="RES">6</parameter><parameter name="RGN">-1</parameter><parameter name="STR">0</parameter><parameter name="TCL">MakeCompatibleScalar (0, {WSV=1.000000, ARV=0});</parameter><parameter name="TDL">37</parameter><parameter name="RPO">0</parameter></Acquisition_Parameters_Rf><FT_-_Parameters_Rf><parameter name="APF">B3</parameter><parameter name="HFQ">500</parameter><parameter name="LFQ">4000</parameter><parameter name="NLI">0</parameter><parameter name="PHR">24</parameter><parameter name="PHZ">ML</parameter><parameter name="SPZ">NO</parameter><parameter name="ZFF">1</parameter></FT_-_Parameters_Rf><Optic_Parameters_><parameter name="APR">0</parameter><parameter name="APT">Open</parameter><parameter name="BMS">KBr</parameter><parameter name="CHN">Module port</parameter><parameter name="DTC">RT-DLaTGS_IR-Biotyper [Microplate reader]</parameter><parameter name="HPF">0</parameter><parameter name="LPF">10.0</parameter><parameter name="LPV">4000</parameter><parameter name="PGN">0</parameter><parameter name="RDX">0</parameter><parameter name="SRC">MIR</parameter><parameter name="VEL">10.0</parameter><parameter name="SON">Off</parameter></Optic_Parameters_><FT_-_Parameters_><parameter name="APF">B3</parameter><parameter name="HFQ">500</parameter><parameter name="LFQ">4000</parameter><parameter name="NLI">0</parameter><parameter name="PHR">24</parameter><parameter name="PHZ">ML</parameter><parameter name="SPZ">NO</parameter><parameter name="ZFF">1</parameter></FT_-_Parameters_><Acquisition_Parameters_><parameter name="ADT">1</parameter><parameter name="AQM">DD</parameter><parameter name="CFE">0</parameter><parameter name="COR">0</parameter><parameter name="DEL">0</parameter><parameter name="DLY">0</parameter><parameter name="HFW">8000</parameter><parameter name="LFW">0</parameter><parameter name="NSS">32</parameter><parameter name="PLF">AB</parameter><parameter name="RES">6</parameter><parameter name="SOT">0</parameter><parameter name="TCL">MakeCompatibleScalar (0, {WSV=1.000000, ARV=0});</parameter><parameter name="TDL">37</parameter><parameter name="SPO">0</parameter><parameter name="SGN">-1</parameter></Acquisition_Parameters_><Instrument_Parameters_Rf><parameter name="HFL">15800.168544</parameter><parameter name="LFL">0</parameter><parameter name="LWN">15800.168544</parameter><parameter name="ABP">32197</parameter><parameter name="SSP">1</parameter><parameter name="ARG">2</parameter><parameter name="ASG">2</parameter><parameter name="ASS">32</parameter><parameter name="GFW">16</parameter><parameter name="GBW">16</parameter><parameter name="BFW">0</parameter><parameter name="BBW">0</parameter><parameter name="PKA">7267</parameter><parameter name="PKL">4996</parameter><parameter name="PRA">7454</parameter><parameter name="PRL">5001</parameter><parameter name="P2A">1</parameter><parameter name="P2L">1</parameter><parameter name="P2R">1</parameter><parameter name="P2K">1</parameter><parameter name="DAQ">0</parameter><parameter name="AG2">1</parameter><parameter name="SSM">1</parameter><parameter name="RSN">24982</parameter><parameter name="CRR">0</parameter><parameter name="SRT">1653654534.318</parameter><parameter name="DUR">19.635986328125</parameter><parameter name="TSC">28</parameter><parameter name="MVD">0.465230852365494</parameter><parameter name="AN1">0.225786409941564</parameter><parameter name="AN2">0</parameter><parameter name="VSN">2.485 Apr  4 2017</parameter><parameter name="SRN">0085</parameter><parameter name="CAM">0</parameter><parameter name="INS">IR-Biotyper</parameter><parameter name="FOC">69</parameter><parameter name="RDY">1</parameter><parameter name="ARS">32</parameter></Instrument_Parameters_Rf><Sample_Parameters_><parameter name="BLD"></parameter><parameter name="CNM">Admin</parameter><parameter name="CPY"></parameter><parameter name="DPM"></parameter><parameter name="EXP">IRBT_v3_32Scans.XPM</parameter><parameter name="LCT"></parameter><parameter name="SFM">Microplate, HTS-XT</parameter><parameter name="SNM">220527-1039(v.2)_AMA28F (D_2)_C12_8ffd5519-6678-4efd-967e-841bede2c555.0</parameter><parameter name="XPP">C:\Users\Public\Documents\Bruker\OPUS_8.2.28\XPM</parameter><parameter name="IST">OK</parameter><parameter name="CPG">1252</parameter><parameter name="UID">1a13f8ba-576c-4179-91e5-11e889ac92ba</parameter></Sample_Parameters_><Instrument_Parameters_><parameter name="HFL">15800.168544</parameter><parameter name="LFL">0</parameter><parameter name="LWN">15800.168544</parameter><parameter name="ABP">32197</parameter><parameter name="SSP">1</parameter><parameter name="ASG">2</parameter><parameter name="ARG">2</parameter><parameter name="ASS">32</parameter><parameter name="GFW">16</parameter><parameter name="GBW">16</parameter><parameter name="BFW">0</parameter><parameter name="BBW">0</parameter><parameter name="PKA">6798</parameter><parameter name="PKL">4988</parameter><parameter name="PRA">7076</parameter><parameter name="PRL">4993</parameter><parameter name="P2A">1</parameter><parameter name="P2L">1</parameter><parameter name="P2R">1</parameter><parameter name="P2K">1</parameter><parameter name="DAQ">0</parameter><parameter name="AG2">1</parameter><parameter name="SSM">1</parameter><parameter name="RSN">13117</parameter><parameter name="CRR">0</parameter><parameter name="SRT">1653654561.398</parameter><parameter name="DUR">19.635986328125</parameter><parameter name="TSC">28</parameter><parameter name="MVD">0.430177628993988</parameter><parameter name="AN1">0.225786162301908</parameter><parameter name="AN2">0</parameter><parameter name="VSN">2.485 Apr  4 2017</parameter><parameter name="SRN">0085</parameter><parameter name="CAM">0</parameter><parameter name="INS">IR-Biotyper</parameter><parameter name="FOC">69</parameter><parameter name="RDY">1</parameter></Instrument_Parameters_><History/></OPUSDataFile>
