<?xml version="1.0" encoding="UTF-8" ?>
<OPUSDataFile><AB><Ydata ylabel="Absorbance Units"><values byteorder="INTEL" format="FLOAT32" numvalues="3497"> -0.06563196 -0.06564408 -0.06565224 -0.06565659 -0.06565505 -0.06564751 -0.06563189 -0.0656083 -0.06557654 -0.06553812
 -0.06550124 -0.0654681 -0.06545176 -0.06545074 -0.06546941 -0.06550187 -0.0655399 -0.06558103 -0.0656174 -0.06565457
 -0.06569513 -0.06574108 -0.06579775 -0.0658517 -0.06590017 -0.06592847 -0.06592918 -0.06591306 -0.06587832 -0.06585518
 -0.06584697 -0.06586579 -0.06591243 -0.06596334 -0.06601697 -0.06604535 -0.06605159 -0.06603879 -0.06601334 -0.06600102
 -0.06600191 -0.06603108 -0.06608066 -0.06614488 -0.06621598 -0.06628241 -0.06634131 -0.06638634 -0.06641862 -0.06643649
 -0.06644386 -0.06644151 -0.06643364 -0.0664219 -0.06640608 -0.06638657 -0.06636066 -0.0663277 -0.06629206 -0.06625395
 -0.06622562 -0.06620748 -0.06620841 -0.06622682 -0.06625798 -0.06629914 -0.06633743 -0.06637245 -0.06639575 -0.06641106
 -0.06641986 -0.06642791 -0.06644316 -0.06646682 -0.06650504 -0.06654845 -0.06659547 -0.06663156 -0.06664969 -0.06664638
 -0.06661674 -0.06657587 -0.06652386 -0.06648516 -0.06646185 -0.06647569 -0.06652804 -0.06662919 -0.06677797 -0.06696302
 -0.06717823 -0.06738248 -0.06756724 -0.06767564 -0.06771233 -0.06765285 -0.06752326 -0.06735383 -0.06717058 -0.06701832
 -0.06690205 -0.06684595 -0.06682807 -0.066847 -0.06686823 -0.06687535 -0.06686053 -0.0668134 -0.06676421 -0.06671591
 -0.0666964 -0.06671073 -0.06674852 -0.06680957 -0.06686358 -0.06691051 -0.06694333 -0.06696589 -0.06699944 -0.06704537
 -0.06712268 -0.06722394 -0.06734271 -0.06746651 -0.06756983 -0.0676496 -0.06768897 -0.06769911 -0.06768408 -0.06765152
 -0.0676072 -0.06755351 -0.06748886 -0.06743079 -0.06738032 -0.06736768 -0.06739865 -0.06748962 -0.06764572 -0.06783994
 -0.0680716 -0.0682397 -0.06834029 -0.06828733 -0.0680978 -0.06783878 -0.06752781 -0.06726878 -0.06705957 -0.06694711
 -0.06692149 -0.0669931 -0.06713548 -0.06733 -0.06753045 -0.06769243 -0.06778894 -0.06778048 -0.06770445 -0.06755964
 -0.06740891 -0.0672726 -0.06716732 -0.06710213 -0.06705596 -0.067027 -0.06700557 -0.0669908 -0.06699576 -0.06702086
 -0.06707598 -0.06715771 -0.0672502 -0.06734694 -0.06741314 -0.06744856 -0.06743149 -0.06737368 -0.0672843 -0.0671766
 -0.06707083 -0.0669725 -0.06689257 -0.06683319 -0.0667977 -0.0667891 -0.06681035 -0.06685846 -0.0669361 -0.06702439
 -0.06712215 -0.06720335 -0.0672649 -0.06729303 -0.06728662 -0.06724624 -0.06717222 -0.06706963 -0.06693967 -0.06679138
 -0.06662806 -0.06646618 -0.06631056 -0.06618189 -0.06608219 -0.06602682 -0.06600879 -0.06602918 -0.06607074 -0.06612034
 -0.06616315 -0.06618382 -0.0661872 -0.06616926 -0.06614731 -0.06612653 -0.0661117 -0.0661058 -0.06609967 -0.0660923
 -0.06608094 -0.06606525 -0.06605117 -0.06603862 -0.06602726 -0.06601581 -0.06599418 -0.06596322 -0.06591903 -0.06586737
 -0.06582059 -0.06578457 -0.06577728 -0.06579607 -0.06584807 -0.06591945 -0.0660007 -0.06608222 -0.06615075 -0.06622089
 -0.06629341 -0.06638988 -0.06652132 -0.06667412 -0.06685271 -0.0670057 -0.06712802 -0.06718361 -0.06716969 -0.06707586
 -0.06690246 -0.06665052 -0.06632689 -0.06597634 -0.06561092 -0.06530363 -0.06505815 -0.06492542 -0.06489194 -0.06496704
 -0.06510943 -0.06527492 -0.06542389 -0.06549743 -0.06550874 -0.06544396 -0.06534103 -0.06521421 -0.06508092 -0.06495136
 -0.06481818 -0.06468188 -0.06453212 -0.06436614 -0.0641968 -0.06402435 -0.06387996 -0.06376491 -0.06370392 -0.0636949
 -0.06373952 -0.06382713 -0.06392027 -0.06400124 -0.06399768 -0.06391654 -0.0637264 -0.06346875 -0.06318637 -0.06290081
 -0.0626522 -0.06242591 -0.06222602 -0.0620308 -0.06182991 -0.06161923 -0.06139345 -0.06116421 -0.06093287 -0.06070846
 -0.0604932 -0.06028025 -0.06006968 -0.05983618 -0.05957889 -0.05927985 -0.05894397 -0.05859872 -0.05824917 -0.05793426
 -0.05764718 -0.0573891 -0.05715336 -0.05692718 -0.05671015 -0.05649956 -0.05628755 -0.05607132 -0.05582901 -0.05554618
 -0.0552108 -0.05481121 -0.05435728 -0.0538502 -0.05329495 -0.05269222 -0.05204694 -0.05135839 -0.0506457 -0.04991001
 -0.04916772 -0.0484197 -0.04767921 -0.04694895 -0.04625631 -0.04560228 -0.04501021 -0.04446978 -0.04396686 -0.043488
 -0.04299886 -0.04250008 -0.04198066 -0.04143824 -0.04087527 -0.04026339 -0.03958306 -0.03882601 -0.03797209 -0.037073
 -0.0361386 -0.03521191 -0.03430528 -0.03342338 -0.03256873 -0.03173429 -0.03091982 -0.03011763 -0.02932766 -0.02854971
 -0.02778453 -0.0270413 -0.02631475 -0.02559322 -0.02485909 -0.02405292 -0.02317562 -0.02218526 -0.02113268 -0.02006831
 -0.01902745 -0.01807049 -0.01717684 -0.01635591 -0.01556681 -0.01479497 -0.01400989 -0.01319683 -0.0123559 -0.01148221
 -0.01059904 -0.009709273 -0.008822815 -0.007941242 -0.007043871 -0.006129764 -0.005179109 -0.004195057 -0.003193108 -0.00217734
 -0.001174881 -0.0001838724 0.0007879979 0.001741643 0.002675622 0.003589348 0.00447842 0.005351715 0.006214753 0.007077549
 0.007951328 0.008829011 0.00970961 0.01058868 0.01145973 0.01234693 0.01325362 0.01420077 0.01519513 0.01620684
 0.017235 0.01823013 0.01919103 0.02010365 0.02097094 0.021809 0.02262166 0.02343385 0.02424708 0.02508082
 0.02592861 0.02678863 0.02765112 0.02849879 0.02933626 0.03015647 0.03098219 0.03182609 0.03270299 0.03362855
 0.03458315 0.03556738 0.0365477 0.03751675 0.03845894 0.0393701 0.04025726 0.04112021 0.04197899 0.04283442
 0.04370051 0.04457615 0.04545822 0.0463457 0.04723189 0.04811807 0.04900533 0.04989288 0.05078107 0.05166506
 0.05253848 0.05339792 0.05423735 0.05505719 0.05585465 0.05663564 0.05739965 0.05816133 0.05892474 0.05970095
 0.06049506 0.06129763 0.06210875 0.06291273 0.06370798 0.06449757 0.06528188 0.06607267 0.06686876 0.06766552
 0.0684605 0.06923922 0.07000249 0.07074455 0.07146869 0.07217746 0.07287636 0.0735726 0.07427369 0.07499042
 0.07572319 0.07647808 0.07724388 0.07801761 0.07878876 0.07955302 0.08030743 0.08105082 0.08178163 0.08249928
 0.08320507 0.08389878 0.08458945 0.08527737 0.08596694 0.08665713 0.08734047 0.08801699 0.08868242 0.08933881
 0.08999075 0.09063809 0.0912831 0.09192408 0.09255891 0.09318852 0.09381313 0.09443343 0.09504972 0.09566315
 0.09627257 0.09688614 0.09750661 0.09813777 0.09878381 0.09942621 0.1000638 0.1006744 0.1012554 0.1018165
 0.1023588 0.1029177 0.1034938 0.1041095 0.1047593 0.1054316 0.1061171 0.1067825 0.1074228 0.1080092
 0.1085505 0.109043 0.1095068 0.1099598 0.1104157 0.1108909 0.1113848 0.1119014 0.1124361 0.112989
 0.1135531 0.1141289 0.1146992 0.1152624 0.1158009 0.1163128 0.1167979 0.1172566 0.1177026 0.1181373
 0.1185782 0.1190272 0.1195029 0.1200048 0.120544 0.1211129 0.1217037 0.1223053 0.1228986 0.1234775
 0.1240283 0.1245505 0.1250389 0.1254972 0.1259244 0.1263299 0.1267163 0.1270913 0.1274579 0.1278141
 0.1281599 0.1284945 0.1288173 0.1291442 0.1294762 0.1298354 0.1302212 0.1306397 0.1310874 0.1315506
 0.1320248 0.1324892 0.1329415 0.1333659 0.1337665 0.1341402 0.1344998 0.1348559 0.1352211 0.1356106
 0.1360199 0.1364565 0.1368918 0.1373204 0.1377109 0.1380523 0.1383478 0.138593 0.1388288 0.1390584
 0.1393113 0.1395879 0.1398667 0.1401446 0.1403815 0.1405815 0.1407407 0.14087 0.1410013 0.1411402
 0.1413155 0.1415228 0.1417693 0.1420448 0.142342 0.1426518 0.1429631 0.1432803 0.1435984 0.1439412
 0.1443158 0.1447379 0.1452184 0.1457261 0.146263 0.1467578 0.147205 0.1475535 0.147802 0.1479675
 0.148056 0.1481337 0.1482028 0.1483113 0.1484504 0.1486157 0.1488023 0.1489925 0.1491984 0.1494316
 0.1496988 0.1500207 0.1503691 0.1507356 0.1510812 0.1513783 0.151632 0.1518307 0.1520224 0.1522164
 0.1524439 0.1527144 0.1530067 0.1533212 0.1536103 0.153872 0.154075 0.1542216 0.154319 0.1543747
 0.1544286 0.1544891 0.1546039 0.1547731 0.1550242 0.1553428 0.1557248 0.156143 0.1565705 0.1569812
 0.1573452 0.1576616 0.157916 0.1581395 0.1583363 0.1585432 0.1587697 0.1590332 0.1593373 0.1596903
 0.1600929 0.16056 0.1610923 0.1616918 0.1623538 0.1630343 0.1637212 0.16433 0.164854 0.1652199
 0.1654454 0.1655215 0.1654961 0.1654313 0.1653775 0.1654181 0.1655532 0.1658261 0.1661634 0.1665515
 0.1668902 0.1671408 0.1672529 0.1671993 0.1670147 0.1666941 0.1663256 0.1659158 0.1655387 0.1651978
 0.1649096 0.1646709 0.1644541 0.164258 0.1640598 0.1638658 0.1636852 0.1635233 0.1634027 0.1633089
 0.1632397 0.1631538 0.1630112 0.16277 0.1623804 0.1618455 0.1611415 0.1603305 0.1594212 0.1584948
 0.1575705 0.1567029 0.1559034 0.1551918 0.154572 0.1540327 0.1535729 0.1531441 0.1527424 0.1523064
 0.1518404 0.1513305 0.1507923 0.1502725 0.1497745 0.1493375 0.1489356 0.1485485 0.1481477 0.1476867
 0.1471765 0.1465999 0.1460076 0.1454171 0.1448786 0.1444166 0.1440431 0.1437723 0.1435631 0.1434169
 0.1432521 0.1430624 0.142776 0.1423896 0.1418971 0.1413043 0.1406717 0.1400063 0.1393784 0.1387864
 0.1382634 0.1378001 0.1373934 0.1370317 0.1366975 0.1363796 0.1360595 0.135731 0.1353822 0.1350168
 0.134632 0.1342393 0.1338419 0.1334494 0.1330652 0.1326915 0.13233 0.1319743 0.1316244 0.1312673
 0.1309022 0.1305156 0.130108 0.1296764 0.129224 0.1287651 0.1283045 0.1278667 0.1274527 0.1270796
 0.1267388 0.1264277 0.1261299 0.1258271 0.1255064 0.12515 0.1247586 0.1243255 0.1238645 0.1233784
 0.1228813 0.1223775 0.1218729 0.1213693 0.1208673 0.1203669 0.1198711 0.11938 0.1188955 0.1184169
 0.1179378 0.1174575 0.116967 0.1164684 0.1159625 0.1154532 0.1149508 0.114455 0.1139718 0.1134952
 0.1130203 0.1125443 0.112059 0.1115783 0.1111023 0.110662 0.1102689 0.109941 0.1096923 0.1094867
 0.1093274 0.1091291 0.1088846 0.1085268 0.1080522 0.1074749 0.1068016 0.1061165 0.1054271 0.104823
 0.1042999 0.1038976 0.103593 0.1033598 0.1031615 0.1029282 0.1026389 0.1022326 0.1017377 0.1011447
 0.1005212 0.09990063 0.09932529 0.09882604 0.09838317 0.09799959 0.09764071 0.09729697 0.09698316 0.09669748
 0.09649209 0.09636968 0.09634624 0.09641627 0.09651724 0.09663717 0.09667217 0.09662108 0.09641725 0.09608372
 0.09563494 0.09510705 0.09456652 0.0940306 0.09355073 0.09311013 0.09271352 0.09233889 0.09196969 0.09161525
 0.09127195 0.09096565 0.09070586 0.09048782 0.09031562 0.09015318 0.0899966 0.0898319 0.08965814 0.08950778
 0.08938257 0.08931658 0.08930463 0.08933531 0.08939804 0.08944809 0.08948185 0.08946579 0.08940871 0.0893088
 0.08917854 0.08903448 0.08887535 0.08871225 0.08851878 0.08828704 0.08798493 0.0875925 0.08711956 0.08655428
 0.08596973 0.08537181 0.08484734 0.08440798 0.08407304 0.08384432 0.08365139 0.08348863 0.08326051 0.08296984
 0.08257972 0.08210792 0.08159676 0.08106449 0.08057971 0.0801401 0.07977834 0.07946939 0.07919949 0.07894089
 0.07866522 0.07836268 0.07801632 0.07764028 0.07723176 0.07682298 0.07642 0.07605378 0.07573333 0.07545351
 0.07521791 0.07497279 0.07471533 0.07439239 0.07400553 0.07356478 0.07307857 0.07260694 0.07214895 0.07173795
 0.07135679 0.0709791 0.07059461 0.07016671 0.0697135 0.06923696 0.06876881 0.06833711 0.06795552 0.06764268
 0.06738872 0.06719466 0.06704781 0.06694432 0.06688077 0.06685653 0.06686767 0.06691524 0.06697711 0.06705224
 0.06709476 0.06710203 0.06702569 0.06686775 0.0666123 0.0662709 0.06587451 0.06543927 0.06501939 0.06462514
 0.06429934 0.06404123 0.063868 0.06377064 0.0637485 0.06378996 0.06388906 0.06403589 0.06422619 0.06445106
 0.0647082 0.0649884 0.06528897 0.06561008 0.06594968 0.06633288 0.06676082 0.06727904 0.067889 0.0686221
 0.06947369 0.07043222 0.07148801 0.07259876 0.07375857 0.0749306 0.07611673 0.07730363 0.07849512 0.07969154
 0.08089329 0.08210031 0.0833143 0.08453361 0.08576938 0.08702467 0.0883114 0.08963725 0.09098773 0.09236789
 0.09371807 0.09503575 0.09623637 0.09731471 0.09821055 0.09892403 0.09944967 0.09979284 0.09998472 0.1000301
 0.09996015 0.09978327 0.09952716 0.09921913 0.09890893 0.09864267 0.09849332 0.09849449 0.09870475 0.09911522
 0.09974243 0.1005496 0.1015257 0.1026461 0.103901 0.1052848 0.1067975 0.1084216 0.1101583 0.111959
 0.1138212 0.1156745 0.1175146 0.119266 0.1209243 0.1224242 0.1237646 0.1249066 0.1258526 0.1265919
 0.127119 0.1274272 0.1274905 0.127283 0.1267607 0.1258818 0.1246075 0.1228976 0.1207572 0.1181611
 0.1151986 0.1118668 0.1083475 0.1046584 0.1010209 0.097459 0.09414107 0.09107988 0.08832747 0.08588086
 0.08368989 0.08174563 0.07996456 0.07834231 0.07681839 0.07539222 0.0740339 0.07274003 0.07149171 0.07028579
 0.06910792 0.06796676 0.06686111 0.06581115 0.06482804 0.06392614 0.06311601 0.06239461 0.06176417 0.06121427
 0.06074255 0.0603475 0.06002737 0.05979806 0.05966024 0.05964004 0.05973725 0.05995489 0.06028319 0.0606618
 0.06107089 0.061398 0.06163445 0.06169037 0.06159309 0.06133784 0.06098543 0.06060249 0.06025304 0.06001366
 0.05992183 0.0600241 0.06032094 0.06082772 0.06151666 0.06238784 0.06339541 0.06453768 0.06574098 0.06700489
 0.06819086 0.06929266 0.07008013 0.07053872 0.07039944 0.06966066 0.06816044 0.06594586 0.06309336 0.05970336
 0.05606398 0.05227542 0.04865678 0.04523756 0.04219756 0.03948165 0.03710995 0.03500108 0.0331092 0.03138984
 0.02981122 0.02836718 0.02705176 0.02585863 0.02478852 0.02381856 0.02294742 0.02214616 0.02141292 0.02072251
 0.02007378 0.01944713 0.01884233 0.01824787 0.01766517 0.01709269 0.01653419 0.01599808 0.01548887 0.01501991
 0.01459013 0.01420754 0.01385762 0.01353403 0.01321355 0.0128795 0.012521 0.01212426 0.01170893 0.01127348
 0.01085757 0.01046877 0.01013089 0.00985033 0.009607866 0.009403315 0.009190912 0.008969216 0.00871244 0.008424186
 0.008119405 0.007801646 0.007496397 0.00719806 0.006905855 0.00661015 0.00628972 0.005946863 0.005571716 0.005181244
 0.004785638 0.004402523 0.004046325 0.003724026 0.003443356 0.003200146 0.002997262 0.002817149 0.002659697 0.002493084
 0.00231382 0.002096873 0.001839657 0.001550848 0.001232127 0.0009206418 0.0006175551 0.0003507622 0.0001153975 -9.351723E-05
 -0.0002826148 -0.0004737674 -0.0006674188 -0.0008759219 -0.001093674 -0.001318341 -0.001545185 -0.001769208 -0.001987373 -0.002197699
 -0.002394043 -0.002573825 -0.002731059 -0.002861189 -0.002972863 -0.003064141 -0.003162263 -0.003269787 -0.003411333 -0.003589315
 -0.003800968 -0.004045164 -0.004294947 -0.00454895 -0.004782948 -0.004999954 -0.00519912 -0.00538594 -0.005576287 -0.005770735
 -0.005980601 -0.0061968 -0.006413214 -0.006618711 -0.006798376 -0.006954312 -0.007078985 -0.007193003 -0.007301209 -0.007427932
 -0.007582508 -0.007772957 -0.008004491 -0.008264783 -0.008554196 -0.008849395 -0.009148878 -0.009432389 -0.009699421 -0.00994419
 -0.01016825 -0.01038104 -0.01058423 -0.01079082 -0.0109996 -0.01121448 -0.01143201 -0.0116472 -0.0118581 -0.01205908
 -0.01225255 -0.01243789 -0.01262039 -0.01280356 -0.01298968 -0.01318192 -0.01337536 -0.01356996 -0.01375753 -0.01393603
 -0.01410288 -0.01425686 -0.01440369 -0.0145435 -0.01468571 -0.01483069 -0.0149849 -0.01514742 -0.01531467 -0.01548367
 -0.01563905 -0.01577923 -0.0158892 -0.01597523 -0.01603967 -0.01609559 -0.01616139 -0.01624628 -0.01636727 -0.01652198
 -0.0167159 -0.01693737 -0.01718422 -0.0174411 -0.01770382 -0.01795865 -0.01820201 -0.01842716 -0.01863227 -0.01881999
 -0.01899022 -0.01915012 -0.01930014 -0.01944871 -0.01959643 -0.0197523 -0.01991615 -0.02009301 -0.02028036 -0.02047396
 -0.02067087 -0.02086253 -0.02104954 -0.02122855 -0.02140265 -0.02157419 -0.02174357 -0.02191273 -0.02207788 -0.02223768
 -0.0223896 -0.02253143 -0.02266765 -0.02279784 -0.02293184 -0.02307083 -0.02322165 -0.02338516 -0.02355888 -0.02374253
 -0.02392768 -0.02411398 -0.02429473 -0.02447023 -0.02463804 -0.02479906 -0.02495402 -0.02510485 -0.02525518 -0.02540765
 -0.02556807 -0.02573596 -0.02591454 -0.02609734 -0.02628209 -0.02646035 -0.02662679 -0.02678041 -0.02691804 -0.02704917
 -0.02717416 -0.02730712 -0.02745014 -0.02761046 -0.02778921 -0.02797957 -0.02818087 -0.02837587 -0.02856383 -0.02873027
 -0.02887687 -0.02900287 -0.02911218 -0.02921587 -0.0293168 -0.02942649 -0.02954455 -0.02967553 -0.02981731 -0.02996932
 -0.0301301 -0.03029892 -0.03047342 -0.03065328 -0.03083314 -0.03101146 -0.0311836 -0.03134767 -0.03150545 -0.03165663
 -0.0318065 -0.03195558 -0.0321041 -0.03225191 -0.03239297 -0.03252731 -0.03265181 -0.03276806 -0.03288184 -0.03299501
 -0.03311686 -0.03324647 -0.03338744 -0.03353543 -0.03368602 -0.03383513 -0.03397626 -0.03411026 -0.03423484 -0.03435501
 -0.0344727 -0.03459076 -0.03471139 -0.0348313 -0.03495064 -0.03506367 -0.03516934 -0.03526668 -0.03535521 -0.03544216
 -0.035528 -0.035624 -0.03573038 -0.03585448 -0.03599485 -0.03614904 -0.03631425 -0.03648082 -0.03664669 -0.03680252
 -0.03694898 -0.03708249 -0.03720593 -0.03732073 -0.03742948 -0.03753468 -0.03763669 -0.03773658 -0.03783294 -0.03792509
 -0.03801399 -0.03809895 -0.03818607 -0.03827586 -0.03837514 -0.03848465 -0.03860481 -0.03873549 -0.03887015 -0.03900832
 -0.03914286 -0.03927388 -0.03939802 -0.03951588 -0.0396273 -0.0397334 -0.03983591 -0.0399368 -0.0400395 -0.04014549
 -0.04025817 -0.04037585 -0.04049904 -0.04062378 -0.04074809 -0.04087041 -0.04098917 -0.04110726 -0.04122482 -0.04134562
 -0.04147046 -0.04159931 -0.04173239 -0.04186645 -0.04200136 -0.04213421 -0.04226506 -0.04239327 -0.04251892 -0.04264217
 -0.04276267 -0.04287898 -0.04299177 -0.04310088 -0.0432093 -0.04332112 -0.04343906 -0.0435687 -0.04370702 -0.04385496
 -0.0440048 -0.04415258 -0.04429521 -0.04442948 -0.04456108 -0.04469038 -0.04482408 -0.04496369 -0.04510854 -0.04525899
 -0.0454082 -0.04555579 -0.045693 -0.04581953 -0.04592837 -0.04602055 -0.04609637 -0.04615912 -0.04621904 -0.04627913
 -0.04635198 -0.04643552 -0.04653332 -0.04663911 -0.04674729 -0.04685465 -0.04695576 -0.04705444 -0.04715093 -0.04724952
 -0.04735258 -0.04745828 -0.04756697 -0.04767438 -0.04777961 -0.04788287 -0.04798399 -0.04808562 -0.04818783 -0.04828953
 -0.04839048 -0.04848757 -0.04858122 -0.04867177 -0.04876005 -0.04884925 -0.048939 -0.04903016 -0.04912189 -0.04921293
 -0.04930359 -0.04939354 -0.04948386 -0.04957525 -0.04966836 -0.04976398 -0.0498613 -0.04996084 -0.05005879 -0.05015479
 -0.05024342 -0.05032349 -0.05039432 -0.0504553 -0.05051493 -0.05057368 -0.05064288 -0.05072249 -0.05081649 -0.05092323
 -0.05103673 -0.05115474 -0.05126655 -0.05137169 -0.05146288 -0.05154328 -0.05161376 -0.0516793 -0.05174621 -0.05181536
 -0.05189081 -0.05196693 -0.0520423 -0.05211106 -0.05216983 -0.05222038 -0.05226156 -0.05230132 -0.05234047 -0.05238622
 -0.05243941 -0.05250182 -0.05257352 -0.05265182 -0.05273659 -0.05282522 -0.05291833 -0.05301762 -0.05312453 -0.05324449
 -0.05337888 -0.05353318 -0.05370849 -0.0539085 -0.05413464 -0.05438928 -0.05467484 -0.05499305 -0.05534805 -0.05574111
 -0.05617964 -0.05666608 -0.05720698 -0.05780555 -0.0584583 -0.05916765 -0.0599093 -0.06068274 -0.06144592 -0.06219655
 -0.06289338 -0.06353542 -0.06410082 -0.06458657 -0.06497131 -0.06523969 -0.0653304 -0.06522956 -0.06485699 -0.06425785
 -0.06344492 -0.06252213 -0.06160752 -0.06076534 -0.06008778 -0.05957343 -0.05924598 -0.05908629 -0.05909435 -0.05924692
 -0.05954652 -0.0599321 -0.0604028 -0.06084758 -0.06125608 -0.06155622 -0.06174445 -0.06184319 -0.06185606 -0.06183244
 -0.06177212 -0.06169996 -0.06161097 -0.06150093 -0.06136694 -0.06119658 -0.06099913 -0.0607816 -0.06055786 -0.06034899
 -0.06015294 -0.05997871 -0.05980828 -0.0596333 -0.05944617 -0.05923817 -0.05902629 -0.05881121 -0.05861726 -0.05844913
 -0.05831526 -0.05821791 -0.05814359 -0.0580916 -0.05803696 -0.05797906 -0.05790227 -0.05780888 -0.05770299 -0.05758821
 -0.05747918 -0.05737744 -0.05729416 -0.05722785 -0.05718185 -0.05715182 -0.05713519 -0.05712587 -0.05711866 -0.05710921
 -0.05709305 -0.05707169 -0.05704356 -0.05701584 -0.05698952 -0.05697243 -0.05696618 -0.05697339 -0.05699498 -0.05702417
 -0.05706061 -0.05709284 -0.05712068 -0.05713851 -0.05714776 -0.05715367 -0.0571579 -0.05716955 -0.05718784 -0.057216
 -0.05725115 -0.05729038 -0.05733084 -0.05736817 -0.05740099 -0.05742638 -0.05744559 -0.0574577 -0.05746719 -0.05747516
 -0.0574862 -0.05750214 -0.0575227 -0.05754869 -0.05757447 -0.05759973 -0.05761766 -0.0576279 -0.05762758 -0.05761709
 -0.05760011 -0.0575777 -0.05755803 -0.05754155 -0.05753473 -0.05753604 -0.05754563 -0.05756058 -0.0575761 -0.0575906
 -0.05759973 -0.05760524 -0.0576066 -0.05760717 -0.05760919 -0.05761255 -0.05761871 -0.05762233 -0.05762234 -0.05761493
 -0.05759848 -0.05757794 -0.05755322 -0.05753472 -0.057523 -0.05752262 -0.05753314 -0.05754996 -0.05757221 -0.05759229
 -0.05761034 -0.0576227 -0.05763045 -0.05763441 -0.05763531 -0.05763472 -0.057633 -0.0576309 -0.05762934 -0.05762899
 -0.05763148 -0.05763815 -0.05764894 -0.05766467 -0.05768244 -0.05770183 -0.05771988 -0.05773578 -0.05774983 -0.0577619
 -0.05777358 -0.05778497 -0.05779563 -0.05780546 -0.05781269 -0.0578176 -0.05782085 -0.05782336 -0.05782897 -0.05783813
 -0.05785441 -0.05787641 -0.05790404 -0.05793411 -0.05796308 -0.0579882 -0.05800579 -0.05801576 -0.05801636 -0.05801087
 -0.05799937 -0.05798777 -0.0579773 -0.0579735 -0.05797781 -0.05799101 -0.05801379 -0.05803973 -0.05806853 -0.05809123
 -0.05810776 -0.0581147 -0.05811299 -0.05810668 -0.05809683 -0.05808962 -0.05808502 -0.05808626 -0.05809232 -0.05810297
 -0.05811718 -0.05813368 -0.05815189 -0.05817127 -0.05819042 -0.0582088 -0.05822412 -0.05823494 -0.05824186 -0.05824369
 -0.05824732 -0.05825329 -0.05827005 -0.05829893 -0.05833975 -0.05839264 -0.05844643 -0.05850036 -0.05854105 -0.05856907
 -0.05858034 -0.05857791 -0.05857052 -0.0585614 -0.0585638 -0.0585768 -0.05860624 -0.05864614 -0.05869191 -0.05873834
 -0.05877849 -0.05881363 -0.05884168 -0.05886802 -0.0588945 -0.05892374 -0.05895738 -0.05899303 -0.05903086 -0.0590663
 -0.05909891 -0.05912523 -0.05914501 -0.0591585 -0.05916603 -0.05917227 -0.05917765 -0.05918752 -0.05920138 -0.05922037
 -0.0592435 -0.05926852 -0.05929561 -0.05932372 -0.05935422 -0.05938863 -0.05942703 -0.0594708 -0.05951694 -0.05956464
 -0.05960988 -0.05965073 -0.05968561 -0.0597133 -0.05973573 -0.05975259 -0.05976881 -0.05978452 -0.05980756 -0.05983838
 -0.05988396 -0.05994413 -0.0600176 -0.0601027 -0.06018797 -0.06027191 -0.06034194 -0.06039951 -0.06044126 -0.06047084
 -0.06049323 -0.06051061 -0.06052799 -0.06054509 -0.06056306 -0.06058208 -0.06060196 -0.06062506 -0.06065238 -0.06068503
 -0.06072399 -0.06076691 -0.06081361 -0.06086142 -0.06090979 -0.06096037 -0.06101325 -0.06107071 -0.06113254 -0.0611954
 -0.06125867 -0.06131596 -0.06136795 -0.06141343 -0.06145432 -0.06149533 -0.06153676 -0.06158211 -0.06162884 -0.06167567
 -0.0617193 -0.06175601 -0.06178551 -0.0618052 -0.06182086 -0.06183297 -0.06185132 -0.06187908 -0.06192022 -0.06197739
 -0.06204134 -0.06211193 -0.06217431 -0.06222743 -0.06226685 -0.06229312 -0.06231627 -0.06233722 -0.06236789 -0.06240705
 -0.06245678 -0.06251419 -0.06257278 -0.06263108 -0.06268292 -0.06272962 -0.06277022 -0.06280649 -0.06283993 -0.06287064
 -0.06289878 -0.06292531 -0.06294984 -0.06297648 -0.06300621 -0.06304208 -0.06308534 -0.06313347 -0.0631866 -0.06323908
 -0.06329052 -0.06333739 -0.06337962 -0.06341619 -0.06344745 -0.06347499 -0.06349975 -0.06352646 -0.06355557 -0.06359159
 -0.06363206 -0.06367543 -0.06371733 -0.06375118 -0.06377581 -0.06378635 -0.0637884 -0.0637827 -0.06377816 -0.06377916
 -0.06378887 -0.06381062 -0.06383666 -0.06386688 -0.06388944 -0.06390265 -0.06390301 -0.06389003 -0.06387081 -0.06384584
 -0.06382439 -0.06380653 -0.06379748 -0.06379635 -0.06380291 -0.06381516 -0.06382784 -0.06383941 -0.06384367 -0.06384285
 -0.06383619 -0.06382918 -0.06382677 -0.0638314 -0.06384767 -0.06386973 -0.06389745 -0.06392084 -0.06393675 -0.06394061
 -0.06393012 -0.06391042 -0.06388142 -0.06385222 -0.06382347 -0.06379949 -0.06378028 -0.0637648 -0.0637529 -0.06374315
 -0.06373562 -0.06373013 -0.06372615 -0.06372191 -0.06371748 -0.06371143 -0.06370611 -0.06370385 -0.06370669 -0.06371859
 -0.06373602 -0.06375928 -0.06378032 -0.06379551 -0.06380104 -0.06379399 -0.06377891 -0.06375571 -0.06373156 -0.06370743
 -0.06368605 -0.06366772 -0.0636514 -0.0636372 -0.06362706 -0.06362163 -0.06362717 -0.06364321 -0.06367224 -0.06371117
 -0.06375308 -0.06379499 -0.06382767 -0.06385135 -0.06386247 -0.06386241 -0.06385135 -0.06382992 -0.06379756 -0.06375837
 -0.0637129 -0.06366839 -0.06362751 -0.06359218 -0.06356412 -0.06353701 -0.06351048 -0.06347739 -0.06343709 -0.0633906
 -0.06333827 -0.06328823 -0.06324085 -0.06320321 -0.0631743 -0.06315393 -0.06314033 -0.06312815 -0.06311748 -0.06310551
 -0.0630942 -0.06308562 -0.06307944 -0.06307745 -0.06307471 -0.06306893 -0.06305552 -0.06303099 -0.06299701 -0.06295229
 -0.06290428 -0.06285381 -0.06280905 -0.06277133 -0.06274308 -0.06272475 -0.06271088 -0.0627012 -0.06269021 -0.06267866
 -0.06266991 -0.06266505 -0.06267186 -0.06268808 -0.06271336 -0.06274065 -0.06275661 -0.06275578 -0.06272244 -0.06266337
 -0.06257639 -0.06247774 -0.06237696 -0.06228498 -0.06221075 -0.06215086 -0.06210755 -0.06206871 -0.06203214 -0.06199089
 -0.06194326 -0.06189206 -0.06183724 -0.06178628 -0.06173966 -0.06170676 -0.06168757 -0.06168812 -0.061705 -0.06172806
 -0.06175099 -0.06174892 -0.0617227 -0.06165941 -0.06156984 -0.06146324 -0.06134781 -0.06123499 -0.06112695 -0.06102808
 -0.06093919 -0.06086225 -0.06079473 -0.0607375 -0.06068212 -0.06062742 -0.06056508 -0.06049358 -0.06041177 -0.06031936
 -0.06021903 -0.06011091 -0.05999748 -0.05987878 -0.05975601 -0.05962922 -0.0594986 -0.05936558 -0.05923369 -0.05910579
 -0.05899064 -0.05888576 -0.05879442 -0.05870484 -0.05860698 -0.05849301 -0.05835104 -0.05819207 -0.05801608 -0.057841
 -0.05767347 -0.0575183 -0.05737907 -0.05724637 -0.05711985 -0.0569879 -0.05684949 -0.0567019 -0.05654515 -0.0563839
 -0.05621739 -0.05604232 -0.05585573 -0.05564063 -0.05539856 -0.05512215 -0.05482148 -0.05451366 -0.05420416 -0.05391034
 -0.05362564 -0.05335081 -0.05307667 -0.05279607 -0.05250806 -0.05220912 -0.05190583 -0.05159937 -0.05129572 -0.05099777
 -0.05069977 -0.05040378 -0.05007962 -0.0497255 -0.04930886 -0.04882941 -0.04830026 -0.04772413 -0.04713349 -0.04652324
 -0.04588879 -0.04521944 -0.04448054 -0.04366787 -0.04275411 -0.04174653 -0.04064116 -0.03945348 -0.03819521 -0.03688265
 -0.03553233 -0.03414462 -0.03272659 -0.03126246 -0.02974193 -0.02818684 -0.02658914 -0.0250392 -0.02354742 -0.02218029
 -0.02094585 -0.01982645 -0.01882068 -0.01788757 -0.01702712 -0.01622398 -0.01547804 -0.01478361 -0.01413368 -0.01350801
 -0.01289258 -0.01225058 -0.01157085 -0.01081787 -0.01000077 -0.009112744 -0.00817363 -0.007195993 -0.006188615 -0.005159413
 -0.004108316 -0.003037889 -0.001942503 -0.0008268577 0.0003470966 0.001577257 0.002958793 0.004500113 0.006247417 0.008197801
 0.01019549 0.01223058 0.01413763 0.01593892 0.01765433 0.01930923 0.02099279 0.0227083 0.02450294 0.02637572
 0.02833343 0.03040714 0.03261269 0.03502696 0.03770505 0.04070136 0.04408809 0.04775189 0.05170302 0.05569361
 0.05967025 0.06349028 0.06711952 0.07056475 0.07382105 0.07696299 0.07999629 0.08306044 0.08616906 0.08952423
 0.09310336 0.09693917 0.1009301 0.1047574 0.1084096 0.1116729 0.1146732 0.1175054 0.1202585 0.1230696
 0.1259386 0.1289081 0.1319534 0.1350694 0.1382518 0.1415113 0.1447809 0.1480568 0.1512326 0.1542857
 0.1572241 0.1600449 0.1628063 0.1655083 0.1680766 0.1705003 0.1726372 0.1744938 0.1760278 0.1772555
 0.1782042 0.178884 0.1793164 0.179536 0.1795959 0.1795368 0.1794244 0.1792618 0.1790671 0.178847
 0.178607 0.178358 0.1781153 0.1778342 0.1775213 0.1770583 0.176436 0.17551 0.1742628 0.1726945
 0.1708096 0.1688565 0.1668427 0.1649467 0.1631395 0.161364 0.1595984 0.1577349 0.1557953 0.1537587
 0.15169 0.1496744 0.1477603 0.1460417 0.1444969 0.1431438 0.1419388 0.1408571 0.1399023 0.1390653
 0.1383807 0.1378596 0.1374955 0.1372931 0.1372069 0.1372333 0.1373428 0.1375343 0.1378134 0.1381816
 0.1386571 0.1392378 0.1399235 0.1407075 0.1415684 0.1425016 0.1434858 0.1445224 0.1456031 0.1467333
 0.1479143 0.1491535 0.1504558 0.1518273 0.1532727 0.154793 0.1563889 0.1580633 0.1598169 0.1616523
 0.1635734 0.1655511 0.1675855 0.1696137 0.1716327 0.1736022 0.1755225 0.1773892 0.1791932 0.1808887
 0.1824574 0.1838054 0.1849477 0.1858622 0.186591 0.1871907 0.1876828 0.1881141 0.1884814 0.1887979
 0.1890514 0.189247 0.1893425 0.1893374 0.1891393 0.1887202 0.1880582 0.1871255 0.1861156 0.185045
 0.1840192 0.1830416 0.1820017 0.180894 0.1796212 0.1781913 0.1765961 0.1748443 0.1729738 0.1709549
 0.1687689 0.1663156 0.1634168 0.1600592 0.1560585 0.1517644 0.1473726 0.1431416 0.1393306 0.1357397
 0.1323544 0.1289974 0.1255971 0.1222254 0.1188766 0.1156836 0.112663 0.1098007 0.1070953 0.1044353
 0.1018194 0.09919085 0.09656277 0.09397667 0.0914437 0.08902895 0.08671926 0.08452203 0.08240958 0.080342
 0.07830236 0.07626277 0.07420014 0.07210824 0.06990699 0.06755956 0.06499079 0.06210834 0.05915153 0.05611914
 0.05345157 0.05125129 0.04947133 0.04813105 0.04689922 0.04576025 0.04453642 0.04323707 0.04191065 0.04057487
 0.03935973 0.03825058 0.03726606 0.03638515 0.03555509 0.03480202 0.03413389 0.03360358 0.03328127 0.03316896
 0.03330076 0.03363064 0.03414235 0.03480703 0.03560646 0.03654726 0.03762087 0.03887565 0.04030935 0.04203151
 0.04405329 0.04644122 0.04919701 0.05209656 0.0551142 0.0578668 0.06036261 0.06244678 0.06415632 0.06553438
 0.06660704 0.0674472 0.06808166 0.06857301 0.06896629 0.06932291 0.06970397 0.07018038 0.07076468 0.07150596
 0.07230263 0.07313095 0.07390775 0.07459783 0.07522276 0.07577752 0.07631642 0.07684422 0.07739537 0.07797175
 0.07857306 0.07919805 0.07982998 0.08047066 0.08111972 0.0817843 0.08248941 0.08323872 0.08405712 0.08493414
 0.08586288 0.08683737 0.08784045 0.08889461 0.09000926 0.09120949 0.09251803 0.09392077 0.09542496 0.09698176
 0.09858108 0.1001878 0.1017933 0.103394 0.10499 0.1065644 0.108116 0.1095656 0.1109074 0.1120461
 0.1129836 0.1136825 0.1141469 0.114375 0.1143598 0.1140858 0.1135425 0.1127018 0.1115713 0.110141
 0.1084443 0.1064996 0.1043459 0.1020109 0.0995091 0.09685173 0.09404195 0.09107017 0.08800585 0.08484493
 0.0817511 0.07873917 0.07592954 0.07332931 0.07091382 0.06867751 0.06653849 0.06449926 0.06253183 0.06064723
 0.05887412 0.05720995 0.05566946 0.05422969 0.05286294 0.0515431 0.05023015 0.04890924 0.04755314 0.046167
 0.04474033 0.04330456 0.04186422 0.04046356 0.03911547 0.03784107 0.0366492 0.03551942 0.03445165 0.03341186
 0.03239812 0.03141125 0.03045481 0.02957712 0.02878144 0.02811455 0.02757003 0.02715064 0.02684661 0.02663577
 0.02651343 0.02646274 0.02648095 0.02656082 0.02669462 0.02687816 0.02709281 0.02733256 0.02756594 0.0277831
 0.0279506 0.02805804 0.02808769 0.02803339 0.02790084 0.02768891 0.02741942 0.02709352 0.02673126 0.02633302
 0.02590668 0.02545363 0.02498349 0.02450353 0.02404323 0.02361284 0.02325286 0.02296559 0.02277612 0.02267349
 0.02265713 0.02270957 0.02281847 0.02296655 0.02314253 0.02333165 0.02352646 0.02371728 0.02390049 0.02407083
 0.02422742 0.02436411 0.02448039 0.0245696 0.0246313 0.02466464 0.02466994 0.02465186 0.02461077 0.02455124
 0.02447338 0.02438002 0.02427094 0.02414737 0.02400826 0.02385207 0.02367888 0.02348661 0.02328035 0.02306197
 0.02284051 0.02262105 0.0224107 0.02221345 0.02203203 0.0218677 0.0217223 0.02159594 0.02149253 0.0214124
 0.0213597 0.02133469 0.02133712 0.02136658 0.02141682 0.0214873 0.02157098 0.02166861 0.02177878 0.02190363
 0.02204703 0.02221214 0.02240511 0.02263051 0.02289606 0.02320455 0.02356276 0.02396483 0.02441154 0.02488948
 0.02539396 0.02591492 0.0264482 0.02699249 0.02754707 0.02811177 0.02868707 0.02926595 0.02984809 0.03041937
 0.03097873 0.03150845 0.0320075 0.03246018 0.03286712 0.03322173 0.03352677 0.03378593 0.034001 0.03417819
 0.03431405 0.03440843 0.03445345 0.03444279 0.03437046 0.03423017 0.03402377 0.03374929 0.03341484 0.03302133
 0.0325789 0.03208869 0.03156246 0.03100121 0.03041726 0.02981143 0.02919033 0.0285539 0.0279014 0.02723292
 0.02654848 0.02584945 0.02514089 0.02442454 0.02370675 0.02298971 0.02227937 0.02157904 0.02089563 0.02022926
 0.01958423 0.01895335 0.01833441 0.01771927 0.01710263 0.01648671 0.01586921 0.01526342 0.01467067 0.01410513
 0.01356863 0.01306783 0.01260331 0.01217438 0.011781 0.01142161 0.01109697 0.01081111 0.01056566 0.01036884
 0.01022198 0.01013258 0.0101011 0.01013201 0.01022423 0.0103788 0.01059281 0.0108638 0.01119091 0.01157116
 0.01201131 0.01251228 0.01308397 0.01373035 0.01445161 0.01525037 0.01611114 0.01703383 0.01799108 0.01898139
 0.01997282 0.02096389 0.02192721 0.02286314 0.0237593 0.02461928 0.02544908 0.02625466 0.027054 0.02785164
 0.0286654 0.02949259 0.03033969 0.03119463 0.03205077 0.03289425 0.03371501 0.03450557 0.03526094 0.03597685
 0.03665158 0.03728116 0.03786377 0.03840314 0.03889867 0.03936328 0.03979765 0.04021497 0.04061615 0.04101573
 0.04141613 0.0418412 0.04229315 0.04279498 0.04334399 0.04394537 0.04459426 0.04528348 0.04601208 0.04677671
 0.0475755 0.04840866 0.04926539 0.0501413 0.05102193 0.05189979 0.05276901 0.05362557 0.05447283 0.0553111
 0.05614192 0.05696637 0.05777482 0.05856687 0.05932648 0.0600533 0.06074064 0.06138987 0.06200787 0.06259515
 0.06315773 0.06369436 0.06420335 0.06468712 0.06514731 0.06559143 0.06602952 0.06646708 0.06691295 0.06736755
 0.06783416 0.0683097 0.06879486 0.06928179 0.06976849 0.07024916 0.07072045 0.0711931 0.07166655 0.07216611
 0.07269344 0.07326668 0.07388563 0.07454556 0.07524282 0.07595038 0.076662 0.07733816 0.07797395 0.07853587
 0.07902328 0.07942091 0.07972685 0.07993469 0.08003739 0.08002526 0.07989858 0.07965014 0.07929918 0.07884832
 0.07832737 0.07774269 0.07712585 0.07648089 0.07584604 0.07522478 0.07465767 0.07414774 0.0737194 0.07337282
 0.07310735 0.07291991 0.07278945 0.07270996 0.07264661 0.07259271 0.07251186 0.07240221 0.07224226 0.07203656
 0.07178164 0.07148433 0.07114888 0.07078258 0.07039091 0.06997877 0.06955053 0.06910387 0.06863917 0.06815274
 0.06764254 0.067116 0.06657295 0.06602851 0.06548373 0.06494763 0.06442021 0.06389972 0.06338475 0.06286457
 0.06233684 0.06178515 0.06120988 0.06060184 0.05996701 0.05931312 0.05864298 0.05796729 0.05727515 0.05656323
 0.05581332 0.0550131 0.05415149 0.05321999 0.05221743 0.05114039 0.04999705 0.04878598 0.04753016 0.04623047
 0.04492113 0.04360433 0.04231215 0.04104597 0.03982865 0.03866043 0.03755437 0.03650935 0.03552818 0.03460847
 0.0337457 0.03293671 0.03217473 0.03145428 0.03076661 0.03010453 0.02945846 0.02882438 0.02819709 0.02757511
 0.02695764 0.02634019 0.02572184 0.02509701 0.02446439 0.02382134 0.02316756 0.02249966 0.02181732 0.02111952
 0.02040696 0.01969622 0.01899043 0.01832289 0.01769453 0.01712908 0.01662114 0.016169 0.0157646 0.01539204
 0.01504519 0.01470951 0.01438168 0.01405356 0.01372459 0.01339225 0.01305667 0.01271832 0.01237344 0.01202164
 0.01165702 0.01127811 0.0108826 0.01046956 0.01004253 0.009601399 0.009157033 0.008710339 0.008280793 0.007869419
 0.007494268 0.007153619 0.006850094 0.006580022 0.006333685 0.006110216 0.005902774 0.005713436 0.00554268 0.005391052
 0.005259511 0.005147367 0.005053638 0.004980713 0.004928419 0.00490272 0.004905311 0.004940515 0.005010231 0.005111776
 0.005245755 0.005402541 0.005581695 0.005770425 0.005967972 0.006160166 0.006346125 0.006511442 0.006657011 0.006777444
 0.006877734 0.006969125 0.007056407 0.007156523 0.007265648 0.007387916 0.007511903 0.007628208 0.007728788 0.007804088
 0.00785597 0.007881141 0.007890061 0.007883154 0.007878423 0.007878089 0.007903645 0.007957965 0.008055967 0.008199208
 0.008391045 0.008631333 0.008912786 0.009234056 0.009580823 0.009951648 0.01033191 0.01072206 0.01111576 0.01151422
 0.01191753 0.01232469 0.01273454 0.01314557 0.01355578 0.0139646 0.01437261 0.01477403 0.01516829 0.01554341
 0.01589494 0.01621835 0.0165106 0.01677933 0.01702512 0.01725431 0.01746756 0.01766444 0.01784525 0.01801831
 0.01818557 0.01836861 0.0185679 0.01879827 0.01905633 0.01933928 0.01964518 0.01996764 0.02030932 0.02067305
 0.02105612 0.02146098 0.02187209 0.02228103 0.02267275 0.02303523 0.02337311 0.02368259 0.02398364 0.02427977
 0.02458519 0.02490336 0.02523128 0.02556956 0.02590132 0.02622561 0.02652229 0.02679188 0.02702878 0.02723757
 0.02743643 0.02763012 0.02784408 0.02807606 0.02833501 0.02861366 0.02890495 0.02920474 0.02950578 0.02980829
 0.03011045 0.03041268 0.03071509 0.03101671 0.03131777 0.03161506 0.03190789 0.03219401 0.03247209 0.03275011
 0.03302821 0.03332256 0.03363375 0.03396766 0.03432287 0.03468856 0.03506347 0.03543577 0.03580587 0.03616964
 0.03652633 0.03687311 0.03720765 0.03752562 0.03782507 0.03810223 0.03835696 0.03858534 0.03879735 0.03899226
 0.0391956 0.0394143 0.03967093 0.03997467 0.04031822 0.04070481 0.04109777 0.041495 0.04185723 0.0421829
 0.04245767 0.04268468 0.04288711 0.04307067 0.0432772 0.04350621 0.04378024 0.04409068 0.04443066 0.04479209
 0.04516177 0.04553094 0.04589031 0.04622127 0.04650857 0.04673954 0.04689757 0.04700492 0.04705943 0.04710858
 0.04716225 0.04725207 0.04738569 0.04756168 0.04778141 0.04802345 0.0482866 0.0485452 0.04879897 0.04903407
 0.04925371 0.04946595 0.04967504 0.04989915 0.05013856 0.0504038 0.05069013 0.05099695 0.05131461 0.05163442
 0.05194561 0.0522361 0.05250679 0.05275231 0.05298683 0.05321473 0.053442 0.05367229 0.05389765 0.05411653
 0.05433057 0.05453907 0.05475871 0.05499022 0.05524356 0.05551823 0.05581226 0.05612599 0.05645985 0.05681563
 0.05719864 0.05761178 0.05806275 0.05855616 0.05910388 0.05970329 0.0603617 0.06105772 0.06178445 0.06250545
 0.06320588 0.06384481 0.06440665 0.06486201 0.065196 0.06542812 0.06555261 0.06564774 0.06571894 0.06583633
 0.06600283 0.06622411 0.06649754 0.06679682 0.06712237 0.06746419 0.06782301 0.06819844 0.06858492 0.06897134
 0.06935024 0.06970667 0.07003359 0.07031937 0.07055692 0.0707361 0.07085904 0.0709209 0.07093842 0.07091441
 0.07086907 0.07080613 0.07074548 0.07068942 0.07065951 0.07065804 0.07069393 0.07076757 0.0708728 0.07101023
 0.07118447 0.07139717 0.07166245 0.07197538 0.07232891 0.07271434 0.07310865 0.0735079 0.07389748 0.07427301
 0.07462263 0.07495048 0.07524623 0.07554833 0.07586948 0.07625306 0.07673527 0.07725107 0.07780285 0.07826768
 0.07861732 0.07886773 0.07901505 0.07913265 0.07922373 0.07931051 0.0793919 0.07946222 0.07952186 0.07957278
 0.07961236 0.07963574 0.07963388 0.07958385 0.07948089 0.07930555 0.07906328 0.07874832 0.07838026 0.07796485
 0.07753987 0.07712413 0.07674788 0.07642928 0.0761655 0.07595927 0.07580248 0.07569282 0.07563933 0.07564408
 0.07569087 0.07577839 0.07584148 0.07587685 0.07582503 0.07568947 0.0754569 0.07513525 0.07473899 0.07428399
 0.07380557 0.07333246 0.07292882 0.07259964 0.07238898 0.07224634 0.07215092 0.0720531 0.07191305 0.07173921
 0.07152036 0.07129671 0.07107308 0.07089418 0.07076797 0.07072 0.0707568 0.07083382 0.07094869 0.07102146
 0.07105423 0.07104475 0.07100518 0.07100644 0.07104789 0.07116757 0.07135109 0.07158353 0.07185562 0.07214811
 0.07245175 0.07275175 0.07303553 0.07328679 0.0735067 0.07369111 0.0738458 0.07397407 0.07406931 0.07412734
 0.0741613 0.07416815 0.07419772 0.07425515 0.07436335 0.07452345 0.07469264 0.07486758 0.07499403 0.07507381
 0.07508831 0.07504438 0.07495113 0.07482325 0.0746951 0.07458581 0.07454617 0.07457107 0.07468242 0.07484476
 0.07503828 0.07523605 0.07541785 0.07557397 0.07569892 0.07577872 0.07580592 0.07578999 0.0757257 0.07567036
 0.07562887 0.07564372 0.07571724 0.07582153 0.07595278 0.07605413 0.07612629 0.07614251 0.07611054 0.07604142
 0.07594526 0.07585269 0.07576455 0.07570139 0.07564434 0.07558043 0.0754938 0.07536017 0.07519858 0.07500944
 0.07482234 0.07465393 0.07449575 0.07435339 0.07418968 0.07400011 0.07375445 0.07344905 0.07306895 0.07261317
 0.07209586 0.07152115 0.07094526 0.07037325 0.06986638 0.06941986 0.06905308 0.06875019 0.06848704 0.06824344
 0.06797576 0.06767292 0.0672989 0.06687216 0.06638744 0.06588963 0.06539927 0.06495409 0.06457257 0.06427386
 0.06406627 0.06395812 0.06395724 0.06402549 0.06416453 0.06426968 0.06433508</values></Ydata></AB><ScSm><Ydata ylabel="Single channel"><values byteorder="INTEL" format="FLOAT32" numvalues="1814"> 0.07094221 0.07094935 0.07102108 0.07118117 0.07140151 0.0716157 0.07176577 0.07184085 0.07186097 0.07183446
 0.0717681 0.07171621 0.07176617 0.07194952 0.07219361 0.07237591 0.07242168 0.07236595 0.07233153 0.07241227
 0.0725456 0.07252616 0.07219458 0.07162204 0.07107075 0.07075328 0.07069519 0.07088459 0.07140528 0.07219474
 0.0727684 0.07256751 0.07166678 0.07080089 0.07054986 0.07078116 0.07099815 0.07091121 0.0705271 0.07002989
 0.06982312 0.07042365 0.07195581 0.07373033 0.07449062 0.0732076 0.069817 0.06544848 0.06200487 0.06114127
 0.06309984 0.06638093 0.06886956 0.06952056 0.06885367 0.06788339 0.06702916 0.06625187 0.0657574 0.06602632
 0.06715367 0.06840885 0.06861307 0.06714545 0.06468184 0.06271656 0.06219915 0.06293721 0.0643958 0.06628013
 0.0677267 0.06683914 0.06255479 0.05700978 0.05458567 0.05774091 0.06438521 0.06992719 0.07136188 0.06894898
 0.06486738 0.06140862 0.06012238 0.0614061 0.06442851 0.06781636 0.07048541 0.07169899 0.07089265 0.06816435
 0.06474688 0.06240754 0.06236543 0.06481966 0.06890789 0.07277754 0.07442535 0.07317916 0.07014535 0.0670366
 0.06504399 0.0648417 0.06675163 0.07040628 0.07473312 0.07858026 0.08118327 0.08223549 0.0819532 0.08094071
 0.07972959 0.07869146 0.07835874 0.07909267 0.08022588 0.08032173 0.0787403 0.07649474 0.07520752 0.07543345
 0.07622107 0.07627273 0.07525765 0.07359028 0.07114407 0.06723499 0.06218602 0.05773763 0.0553061 0.05490744
 0.05619207 0.05899355 0.06211642 0.06327468 0.06160032 0.05922947 0.0591809 0.0621331 0.06608135 0.06877893
 0.06981315 0.07043505 0.07195294 0.07439946 0.07636996 0.07608101 0.07313715 0.06952388 0.06820329 0.07020713
 0.07364591 0.07603234 0.07690246 0.07754502 0.07874692 0.07957506 0.07835221 0.07465363 0.07037672 0.06856737
 0.07076622 0.07546408 0.0791977 0.07911918 0.07491534 0.06886345 0.06404953 0.06223591 0.06339743 0.06690054
 0.07219052 0.07818057 0.08297402 0.08493249 0.08387598 0.08096988 0.07740177 0.07329784 0.06835749 0.06365538
 0.06184668 0.06464879 0.07063863 0.07644255 0.0797444 0.08043153 0.07927804 0.07652056 0.07207491 0.06688862
 0.06337145 0.06352375 0.06652708 0.06921697 0.06939463 0.06782256 0.06658576 0.06649378 0.0667939 0.06676769
 0.0667467 0.06753623 0.06926212 0.07106857 0.07194856 0.07166263 0.07077357 0.0699859 0.06951006 0.06892119
 0.06776067 0.06645305 0.06625304 0.06787115 0.07049517 0.07262647 0.07358077 0.07372937 0.07350429 0.07264927
 0.07060759 0.06758903 0.06499834 0.06439278 0.06597424 0.06846714 0.07044283 0.0713409 0.07132763 0.07078233
 0.07004357 0.06929433 0.06861515 0.06822009 0.06840414 0.06911588 0.06986488 0.07021452 0.07013448 0.06978077
 0.06919254 0.06835552 0.06741671 0.06668712 0.06642142 0.06662571 0.06709568 0.06760016 0.06796009 0.06801377
 0.06767946 0.06707764 0.06645505 0.06596154 0.06560361 0.06539487 0.06540184 0.06561156 0.06586944 0.06600517
 0.06596708 0.06580395 0.06556677 0.06527013 0.0649284 0.06459565 0.06436011 0.06428364 0.06433083 0.06438848
 0.06439026 0.06438082 0.06440616 0.06439739 0.06424539 0.06395696 0.06365775 0.06345516 0.06335542 0.0632994
 0.06322202 0.06306449 0.06277427 0.0623524 0.06191375 0.06164522 0.06165748 0.06190174 0.06224364 0.06256216
 0.06276719 0.06281039 0.06272455 0.06259394 0.06245657 0.06227855 0.06203467 0.06177689 0.06161405 0.06163059
 0.06181149 0.06204678 0.06222114 0.06228752 0.06226004 0.06218611 0.06213351 0.06214239 0.06217046 0.06213478
 0.06201898 0.0618973 0.0618458 0.06185997 0.06186599 0.06180298 0.06169245 0.06161792 0.06163157 0.06170244
 0.06176558 0.06179464 0.06181 0.06183257 0.06184252 0.06178775 0.06164451 0.06146238 0.06132059 0.06124504
 0.06120357 0.06117619 0.06118406 0.06124039 0.06130896 0.06133229 0.06129152 0.06122349 0.06117321 0.06113797
 0.06107416 0.06095655 0.06080984 0.06067965 0.06059095 0.06053781 0.06049642 0.06044191 0.06036091 0.0602541
 0.06012926 0.05999313 0.05984799 0.05969822 0.05956505 0.05948477 0.05947275 0.0594889 0.0594596 0.05934415
 0.0591721 0.0590098 0.05889583 0.05881453 0.05872867 0.05862597 0.05852591 0.05845077 0.05840539 0.05838286
 0.05837376 0.05836871 0.05836897 0.05839979 0.0584959 0.05865814 0.05883411 0.05896114 0.0590276 0.05907715
 0.05915399 0.05926178 0.05937725 0.05948712 0.05960462 0.05975402 0.05993638 0.06011289 0.06023881 0.06031592
 0.06039187 0.06050772 0.06066938 0.0608642 0.06107027 0.06124938 0.06137048 0.06145103 0.06154625 0.06168785
 0.06185575 0.06201614 0.0621635 0.06231417 0.06247731 0.06265114 0.06284137 0.06306683 0.06334025 0.06364743
 0.06394841 0.06420271 0.06440178 0.06458186 0.06480017 0.06508967 0.06543331 0.06578175 0.06609592 0.06637521
 0.06664662 0.0669293 0.06721811 0.06750816 0.06781991 0.06817982 0.06858155 0.06898782 0.0693702 0.06973085
 0.07008699 0.07045043 0.07082345 0.07120435 0.07159416 0.07199711 0.0724088 0.07280693 0.07316686 0.07348835
 0.07379884 0.0741307 0.07449871 0.07488874 0.07525885 0.07556827 0.07582312 0.07608082 0.07638839 0.0767272
 0.07704329 0.07732293 0.07760733 0.07793102 0.07827549 0.07859772 0.07888448 0.07916172 0.07945792 0.07976969
 0.08006147 0.08029678 0.08047301 0.08062513 0.08079264 0.08099253 0.08123069 0.08151931 0.0818582 0.08220987
 0.08252133 0.08276911 0.08296523 0.08313051 0.08328549 0.08345601 0.08365923 0.08388648 0.08411379 0.08432063
 0.08449252 0.08462924 0.08476396 0.08494808 0.08519964 0.08548993 0.085794 0.08612509 0.08649753 0.08688568
 0.08725418 0.08761278 0.08800143 0.08842044 0.08881189 0.089123 0.0893583 0.08955359 0.08973008 0.08990423
 0.0901181 0.09041657 0.09079558 0.09120174 0.09158482 0.09193076 0.09224486 0.09252588 0.09276505 0.09295912
 0.09311558 0.09324958 0.09338206 0.09354007 0.09374826 0.0940076 0.09428161 0.09451509 0.0946703 0.0947364
 0.09470636 0.09456855 0.09433613 0.09406213 0.09379511 0.09352045 0.09316635 0.09266889 0.09201476 0.09122413
 0.09031764 0.08931416 0.08825035 0.08719018 0.08621395 0.08539939 0.08481157 0.08450501 0.08451897 0.08484977
 0.0854226 0.08610208 0.08673564 0.08718349 0.08732541 0.0870798 0.08644075 0.0854866 0.08433944 0.08311736
 0.08191394 0.08078994 0.07976848 0.07885981 0.07811537 0.07765518 0.07763223 0.07816894 0.07931598 0.08103584
 0.08319503 0.08557731 0.08794075 0.09009911 0.09197244 0.09357513 0.0949687 0.09622474 0.09740472 0.09853882
 0.09961505 0.1006026 0.1014887 0.1022849 0.103001 0.103629 0.1041492 0.1045411 0.1047939 0.1049186
 0.1049491 0.1049284 0.1048996 0.1049033 0.1049569 0.105021 0.1049987 0.104781 0.1043014 0.1035642
 0.102656 0.1017576 0.101146 0.1011492 0.1020348 0.1038699 0.106451 0.1093803 0.1122413 0.1147448
 0.116771 0.1183357 0.1195355 0.1204926 0.1213094 0.1220496 0.1227454 0.1234093 0.1240442 0.1246505
 0.1252314 0.1257925 0.1263418 0.1268845 0.1274141 0.1279134 0.1283765 0.1288228 0.1292839 0.1297754
 0.1302862 0.1307935 0.1312869 0.1317761 0.1322696 0.1327527 0.1331991 0.1336026 0.1339872 0.1343853
 0.1348166 0.1352817 0.1357585 0.1362108 0.1366147 0.1369782 0.137327 0.1376774 0.1380329 0.1383967
 0.1387722 0.1391547 0.139534 0.1399084 0.1402876 0.1406754 0.1410533 0.1413932 0.1416889 0.1419668
 0.1422614 0.1425853 0.142926 0.1432658 0.1436005 0.1439438 0.1443156 0.1447198 0.1451321 0.1455163
 0.1458559 0.146168 0.1464823 0.1468146 0.1471617 0.1475139 0.1478648 0.1482112 0.1485533 0.1488951
 0.1492417 0.1495934 0.149942 0.1502762 0.1505917 0.150897 0.1512056 0.1515246 0.1518546 0.1521991
 0.1525643 0.1529444 0.1533151 0.153652 0.1539525 0.1542352 0.1545206 0.1548159 0.1551186 0.1554273
 0.155745 0.1560729 0.1564086 0.1567491 0.1570931 0.1574388 0.1577831 0.1581239 0.1584607 0.1587927
 0.1591213 0.1594543 0.1598009 0.16016 0.160516 0.1608528 0.1611692 0.1614796 0.1617992 0.1621317
 0.1624674 0.1627938 0.1631063 0.1634106 0.1637164 0.1640309 0.1643556 0.1646858 0.1650143 0.1653372
 0.1656546 0.165969 0.1662835 0.1666011 0.1669208 0.1672387 0.1675553 0.1678766 0.1682062 0.1685394
 0.1688692 0.1691936 0.1695163 0.1698411 0.1701683 0.1704942 0.1708155 0.1711321 0.1714443 0.1717524
 0.1720586 0.1723672 0.1726796 0.1729922 0.1732999 0.1736003 0.1738968 0.1741983 0.1745117 0.1748368
 0.1751714 0.1755149 0.1758631 0.1762059 0.1765338 0.1768452 0.1771453 0.1774436 0.1777507 0.1780727
 0.1784076 0.1787484 0.1790874 0.179419 0.1797383 0.1800409 0.180325 0.1806002 0.1808833 0.1811809
 0.1814824 0.1817771 0.1820695 0.1823713 0.1826873 0.1830135 0.1833415 0.1836651 0.1839859 0.1843085
 0.1846313 0.1849509 0.1852706 0.1855942 0.1859181 0.1862398 0.1865627 0.1868902 0.1872226 0.1875604
 0.1878978 0.1882219 0.1885279 0.1888276 0.1891339 0.1894486 0.1897662 0.190081 0.1903914 0.1907036
 0.1910229 0.1913447 0.1916626 0.1919807 0.1923037 0.1926289 0.1929536 0.1932769 0.193593 0.1938996
 0.1942063 0.1945193 0.1948314 0.1951391 0.1954485 0.1957613 0.1960739 0.1963894 0.1967125 0.1970405
 0.1973696 0.1976952 0.1980071 0.1983051 0.1986046 0.1989126 0.1992159 0.1995063 0.1997893 0.2000566
 0.2002601 0.2002667 0.1997584 0.1981209 0.1944249 0.1876016 0.176868 0.1622241 0.1446272 0.1256491
 0.106895 0.08958711 0.07444771 0.06179357 0.05169309 0.0440694 0.03876594 0.03565207 0.03472988 0.03624564
 0.04081642 0.04906578 0.06024019 0.07098624 0.07665902 0.07499084 0.06825987 0.06121337 0.05712562 0.05622105
 0.05709346 0.05854312 0.06019011 0.06225642 0.06512479 0.06890821 0.07342745 0.07867118 0.0850222 0.09276441
 0.1014912 0.1102753 0.1184654 0.1261936 0.1340623 0.1424186 0.1509905 0.159156 0.1664407 0.1727551
 0.1782944 0.1833172 0.1880006 0.1924289 0.1966484 0.2006595 0.2043229 0.2073238 0.2093278 0.2102364
 0.2103054 0.2099999 0.2097187 0.2096409 0.2097782 0.2100983 0.2105795 0.2112064 0.2119618 0.2128203
 0.213743 0.2146891 0.2156318 0.2165523 0.2174319 0.2182589 0.21903 0.2197385 0.2203788 0.2209607
 0.2215017 0.2220077 0.2224736 0.2228987 0.2232915 0.2236657 0.2240337 0.2243996 0.2247559 0.2250915
 0.2253986 0.2256738 0.2259224 0.2261608 0.2264033 0.22665 0.2268949 0.2271394 0.227389 0.2276427
 0.2278935 0.2281369 0.2283733 0.2286087 0.2288491 0.2290912 0.2293237 0.2295414 0.2297525 0.2299698
 0.2302012 0.2304466 0.2306989 0.2309465 0.231181 0.2314022 0.2316159 0.2318314 0.2320573 0.2322963
 0.232545 0.2328025 0.2330674 0.2333314 0.2335888 0.2338484 0.2341211 0.2344023 0.2346801 0.2349487
 0.2352012 0.235426 0.2356238 0.2358206 0.23605 0.2363254 0.2366265 0.236917 0.2371787 0.2374258
 0.2376793 0.2379388 0.2381878 0.2384141 0.2386245 0.2388491 0.2391239 0.2394508 0.2397919 0.2401154
 0.240423 0.2407255 0.2410249 0.2413262 0.2416295 0.2419076 0.2421303 0.2423184 0.2425488 0.2428913
 0.2433413 0.2438159 0.2442268 0.2445552 0.2448452 0.2451482 0.2454914 0.2458545 0.246139 0.2462371
 0.2461979 0.2462593 0.2466297 0.2472805 0.2480033 0.2486201 0.2490901 0.2494626 0.2497891 0.2500725
 0.2502696 0.2503444 0.2503473 0.2504404 0.2507906 0.2513983 0.2520798 0.2526513 0.2530721 0.2533892
 0.2536471 0.2538779 0.254047 0.2539901 0.2535924 0.2530959 0.2530318 0.2537044 0.2548453 0.2558967
 0.2565627 0.2569606 0.2573048 0.2576429 0.2579162 0.2580177 0.2576787 0.2566218 0.2551154 0.2541207
 0.2544957 0.2561278 0.2581114 0.2596546 0.2605722 0.2610656 0.2613739 0.2616236 0.2617375 0.2614327
 0.2605346 0.2594161 0.2589143 0.2595627 0.2609905 0.2623172 0.2630494 0.2633487 0.2635714 0.2638675
 0.264072 0.2636573 0.2620386 0.2594377 0.2573094 0.2573171 0.259706 0.2630074 0.2654939 0.2666622
 0.2670949 0.2671922 0.2665881 0.2648166 0.262014 0.2588607 0.2563735 0.2557678 0.2576491 0.2610068
 0.2637902 0.2649321 0.2652481 0.2660841 0.2677084 0.2693251 0.270112 0.2698539 0.2688009 0.2672214
 0.265276 0.2634321 0.2627151 0.2639835 0.2668829 0.2699713 0.272054 0.27309 0.2735559 0.2730392
 0.269962 0.2634765 0.2558278 0.2517287 0.2541938 0.2613874 0.2686028 0.2728944 0.2746749 0.2754959
 0.2759642 0.275586 0.2730508 0.2669458 0.2580032 0.2505053 0.249386 0.2553484 0.2640607 0.2701919
 0.2710403 0.2668188 0.2596929 0.2531334 0.2504999 0.2530013 0.2591664 0.2662953 0.2720837 0.2752498
 0.2755112 0.273452 0.270467 0.268421 0.2683069 0.26877 0.2671323 0.2627842 0.2582165 0.2553605
 0.2525893 0.2477164 0.2427928 0.242724 0.2488924 0.2568493 0.2613162 0.2615202 0.2602257 0.2587039
 0.2545638 0.2452062 0.2327564 0.2241193 0.2249221 0.2336743 0.2430968 0.2472163 0.2460782 0.2436214
 0.2424008 0.2410186 0.2361884 0.2270868 0.2174832 0.2126032 0.2136573 0.2168137 0.2177669 0.2151912
 0.2092748 0.2003209 0.1911309 0.1878509 0.1947295 0.208851 0.2224315 0.2292186 0.2267493 0.214924
 0.1968079 0.1803499 0.1745059 0.1812629 0.193264 0.2005988 0.1986737 0.1889999 0.1749048 0.1592247
 0.1455645 0.1386993 0.1416698 0.1526566 0.1652346 0.1716855 0.1672588 0.153778 0.1397063 0.1340516
 0.1382942 0.1454999 0.1480979 0.1446971 0.138946 0.1347383 0.1339274 0.1361705 0.139357 0.1415349
 0.1424576 0.1415156 0.1356675 0.1231931 0.108755 0.1003395 0.1009313 0.1069991 0.1149716 0.1243723
 0.133594 0.137762 0.1342909 0.1279306 0.126744 0.1335555 0.1434984 0.1498665 0.150701 0.1491403
 0.1485158 0.1487187 0.1479837 0.1469423 0.148709 0.1546145 0.161894 0.1667815 0.1684257 0.1685254
 0.1684547 0.1682449 0.1675599 0.1662965 0.1645164 0.1625455 0.1608725 0.1595921 0.1583182 0.1567532
 0.1546773 0.1511571 0.1447853 0.1357571 0.1271288 0.1224435 0.1220346 0.1232697 0.1244088 0.1256218
 0.1254475 0.1197814 0.1073156 0.09397627 0.08859821 0.09440312 0.106634 0.1179691 0.1240826 0.1239689
 0.1177829 0.1071507 0.09714067 0.09467061 0.1028352 0.1179396 0.1334854 0.1457348 0.1540424 0.1577863
 0.1559182 0.1494175 0.1422018 0.1389184 0.1421725 0.1513538 0.1627364 0.1703167 0.1687491 0.1587588
 0.1496767 0.1525162 0.1682469 0.1859779 0.1951788 0.1963811 0.1967317 0.1989002 0.199827 0.1986713
 0.1998955 0.2071157 0.2177148 0.2253935 0.2256815 0.2176803 0.2034068 0.1881475 0.1790956 0.1797054
 0.1859484 0.1908322 0.1912163 0.187393 0.1789563 0.1665608 0.1563216 0.1560994 0.1663518 0.1790816
 0.1869331 0.1898834 0.1919114 0.194136 0.1934884 0.1873965 0.178089 0.1712065 0.1702136 0.1733566
 0.1765823 0.1777958 0.1769242 0.173535 0.1671076 0.1596076 0.1554846 0.1578506 0.1653122 0.1733119
 0.1782266 0.1796502 0.1792928 0.1787806 0.1785433 0.1779788 0.1766096 0.1755616 0.1773167 0.182979
 0.1903694 0.1962019 0.1998286 0.2034355 0.2086399 0.2142487 0.2176888 0.2178209 0.2160608 0.2151834
 0.2171057 0.2213439 0.2253519 0.2266783 0.2252846 0.2237874 0.2250404 0.2293999 0.2346783 0.2386091
 0.2406943 0.2417382 0.2425117 0.2431139 0.2429383 0.241169 0.2380132 0.2354259 0.2357434 0.2393654
 0.2443504 0.2483747 0.2505591 0.2513678 0.2514004 0.250736 0.249279 0.2473433 0.245661 0.2448327
 0.2449189 0.2455836 0.2464609 0.2473112 0.2480055 0.2485199 0.2489107 0.2492346 0.2495234 0.2498186
 0.2501429 0.2504328 0.2505929 0.2506484 0.2507604 0.2510341 0.2513737 0.2515836 0.2515493 0.2512362
 0.2505755 0.2494861 0.2480073 0.2462888 0.2444163 0.2423598 0.2401899 0.2383012 0.2372931 0.2375323
 0.2388244 0.240543 0.2420724 0.2431194 0.2436878 0.2439058 0.2439264 0.2439012 0.243941 0.2440762
 0.2442763 0.2445092 0.2447702 0.2450598 0.2453658 0.2456854 0.2460489 0.2464919 0.2470073 0.2475368
 0.2480059 0.2483658 0.2486195 0.2488131 0.2489866 0.2491209 0.2491424 0.248984 0.248636 0.2481433
 0.2475722 0.2469758 0.2463646 0.2456929 0.2448887 0.2439051 0.2427261 0.2413268 0.2396798 0.2378329
 0.2359342 0.2341301 0.2324581 0.2308618 0.2292753 0.2276606 0.2259963 0.224273 0.2224968 0.2206825
 0.2188498 0.2170258 0.2152349 0.21348 0.2117394 0.2099843 0.2081968 0.2063735 0.2045149 0.2026083
 0.2006148 0.1984624 0.1960507 0.1932738 0.1900507 0.1863391 0.1821413 0.1775204 0.1726161 0.1676261
 0.1627534 0.158157 0.1539374 0.1501613 0.146894 0.1441977 0.1421052 0.1406164 0.1397237 0.1394282
 0.1397281 0.1405987 0.1419768 0.1437518 0.1457764 0.1478928 0.1499589 0.1518737 0.153608 0.1552164
 0.156803 0.1584527 0.1601786 0.1619273 0.1636316 0.1652476 0.166738 0.1680493 0.1691323 0.1699792
 0.1706225 0.1711143 0.1715189 0.1719047 0.1723184 0.1727656 0.1732247 0.1736777 0.1741334 0.174626
 0.1751839 0.1758039 0.1764636 0.1771561 0.1779 0.178719 0.1796182 0.1805798 0.1815826 0.1826326
 0.1837665 0.1850275 0.1864523 0.1880791 0.1899393 0.1920254 0.1942764 0.1965997 0.1988959 0.201069
 0.2030295 0.2047107 0.2060903 0.2071938 0.2080674 0.2087503 0.2092771 0.2096876 0.2100138 0.21027
 0.2104677 0.2106203 0.2107176 0.2107194 0.210591 0.2103343 0.2099834 0.2095873 0.2091924 0.2088254
 0.2084909 0.2081883 0.207922 0.2076958 0.2075031 0.207323 0.207124 0.2068824 0.2065978 0.2062826
 0.205934 0.205523 0.2050075 0.2043524 0.2035443 0.2025937 0.2015176 0.2003222 0.1990074 0.197583
 0.1960744 0.1945091 0.1928991 0.1912372 0.1895137 0.1877285 0.1858796 0.1839549 0.1819605 0.179947
 0.1779847 0.1761142 0.1743319 0.1726103 0.1709246 0.1692719 0.1676711 0.1661364 0.1646607 0.1632327
 0.1618578 0.1605491 0.1593121 0.1581482 0.157067 0.1560898 0.1552403 0.1545204 0.1538942 0.1533095
 0.1527383 0.1521866 0.1516794 0.1512551 0.150952 0.1507652 0.150627 0.1504532 0.1502039 0.1498944
 0.1495652 0.1492537 0.148979 0.148738 0.148511 0.1482616 0.1479324 0.1474497 0.1467388 0.1457406
 0.1444315 0.1428411 0.1410474 0.1391558 0.1372809 0.1355299 0.1339813 0.1326778 0.1316304 0.1308131
 0.1301625 0.1296157 0.1291607 0.1288427 0.128711 0.1287452 0.1288245 0.1288031 0.1286471 0.128479
 0.1284653 0.1286811 0.129087 0.1295854 0.1300766 0.1304941 0.1308137 0.131034 0.1311609 0.1312066
 0.1311747 0.1310483 0.1308196 0.130515 0.1301691 0.1297913 0.1293695 0.1288815 0.1283022 0.1276264
 0.1268729 0.1260556 0.1251751 0.1242322 0.1232096 0.1220725 0.1208585 0.1197467 0.1189766 0.118696
 0.118885 0.1193814 0.1199874 0.120589 0.1211316 0.1214771 0.1214511 0.1211619 0.1211423 0.1219581
 0.1236531 0.1256772 0.1273645 0.1283948 0.1287966 0.1286812 0.1281135 0.1271437 0.1257955 0.12405
 0.1219307 0.1195456 0.1170009 0.1143827 0.1118325 0.1095106 0.1074994 0.1058233 0.1044908 0.103538
 0.1030655 0.1027508 0.1010091 0.09581341 0.08781628 0.08176848 0.08254608 0.08967282 0.09763679 0.1017273
 0.1018039 0.1003646 0.09912708 0.09834461 0.09793738 0.09804524 0.09878591 0.1000183 0.101368 0.1024589
 0.103151 0.1034914 0.1034502 0.1027398 0.1007781 0.09687008 0.09076326 0.08316709 0.07551935 0.06914183
 0.0646583 0.06200879 0.06070196 0.06009129 0.05970602 0.05948323 0.0596852 0.0605856 0.06223379 0.06448731
 0.06716763 0.07006446 0.07283986 0.07514488 0.07689261 0.07826111 0.07939145 0.08022906 0.08066937 0.08070567
 0.08040894 0.07987539 0.07921489 0.07851312 0.07776778 0.07689652 0.07586562 0.07482249 0.07402746 0.07361096
 0.07347003 0.07343474 0.07343127 0.07344484 0.07344112 0.07338475 0.07328015 0.07318896 0.07322963 0.07349648
 0.07394049 0.07438996 0.07470664 0.07487793 0.07497048 0.07501596 0.07492079 0.07454881 0.07396913 0.07348342
 0.07323386 0.072932 0.07222343 0.07122607 0.07045993 0.07028077 0.07057258 0.0709668 0.07118717 0.07117181
 0.071033 0.07100002 0.07128482 0.0718419</values></Ydata></ScSm><ScRf><Ydata ylabel="Single channel"><values byteorder="INTEL" format="FLOAT32" numvalues="1820"> 0.06069049 0.06085994 0.06096299 0.060998 0.06099267 0.06099567 0.06105634 0.06119608 0.06139175 0.06158592
 0.06172408 0.06179013 0.06179991 0.06176618 0.06169907 0.06164276 0.06167048 0.06181639 0.06202665 0.06219165
 0.06223236 0.06217265 0.06212925 0.0621959 0.06231629 0.06230026 0.06200381 0.06149344 0.06100307 0.06071988
 0.0606662 0.06082973 0.06127999 0.06196316 0.06246453 0.06230208 0.06153364 0.06078603 0.06056024 0.06074916
 0.06093048 0.06085365 0.06051882 0.06008136 0.05989251 0.0604044 0.06172708 0.06326273 0.06392013 0.06280415
 0.05985723 0.05606043 0.05306707 0.05231483 0.05401567 0.05686932 0.05903669 0.05960525 0.05902836 0.05819636
 0.05747571 0.05681974 0.05639196 0.05660841 0.05756306 0.05863224 0.05879568 0.05751399 0.05537379 0.05366987
 0.05322129 0.05385824 0.05511805 0.05674654 0.05799543 0.05722499 0.05352014 0.0487294 0.0466377 0.04936956
 0.05512228 0.05992577 0.06117053 0.05907265 0.05552665 0.05253456 0.05144158 0.0525737 0.05519281 0.05811152
 0.06040654 0.06145008 0.06075232 0.05839445 0.05544376 0.05343028 0.05340454 0.05553084 0.05906004 0.06239637
 0.06381643 0.06273983 0.06011779 0.05742978 0.0557086 0.05553699 0.0571909 0.06035563 0.06411005 0.0674572
 0.06972569 0.07063998 0.07038762 0.06950352 0.06845915 0.06757336 0.06729338 0.06792566 0.06890133 0.0689882
 0.06763375 0.06570853 0.0646112 0.06481943 0.06550774 0.06554985 0.06465962 0.06320414 0.06108439 0.05770752
 0.05334197 0.04948884 0.0473811 0.04704306 0.0481796 0.05065113 0.05341706 0.05447604 0.05305042 0.05098259
 0.05090496 0.05343333 0.05684862 0.05920301 0.0601281 0.0607012 0.06205466 0.06421227 0.06594615 0.06570128
 0.06313772 0.05999675 0.05887151 0.06066319 0.06371506 0.06584947 0.0666617 0.06727961 0.06839101 0.06918073
 0.06818298 0.06502644 0.06137137 0.05988083 0.06189618 0.06609152 0.06943648 0.06943569 0.06580803 0.06055299
 0.0563957 0.0549001 0.05605348 0.05931095 0.06419674 0.06975019 0.07427223 0.07627171 0.07554407 0.07310656
 0.07003643 0.06646892 0.06213526 0.0580115 0.0565409 0.05933045 0.06509588 0.07072708 0.07406227 0.07497142
 0.07415617 0.07182081 0.06786819 0.06319 0.06009479 0.06051484 0.06367309 0.06652133 0.06693213 0.06564188
 0.06467988 0.06484158 0.06539173 0.06562345 0.06587018 0.0669396 0.06895922 0.07107066 0.07225797 0.07226611
 0.07164922 0.07112378 0.07091532 0.07058994 0.06967188 0.06860556 0.06870122 0.07069866 0.07374585 0.076271
 0.07755491 0.07799292 0.07804653 0.07743441 0.0755403 0.07257542 0.07005956 0.06969535 0.07171899 0.07474799
 0.07721621 0.07850191 0.0787868 0.07848866 0.07797569 0.07744579 0.07698955 0.07684796 0.07735227 0.07844593
 0.07957515 0.08024506 0.08042709 0.08030444 0.07991402 0.07922668 0.0784118 0.07783756 0.07780138 0.07830693
 0.07911539 0.07995941 0.08063492 0.0809585 0.0808326 0.0803892 0.0799129 0.07958093 0.07940142 0.07939341
 0.07964507 0.08014548 0.08070292 0.08110618 0.08129331 0.08132403 0.08125868 0.08111502 0.0809111 0.08071513
 0.08064368 0.08077854 0.08106522 0.08134779 0.08154829 0.08174542 0.08201133 0.08224837 0.08229063 0.08212481
 0.08191383 0.08181792 0.08186454 0.0819821 0.08208402 0.08208825 0.08191343 0.08154777 0.08114028 0.08094569
 0.08112343 0.08162436 0.08227929 0.08292004 0.08340852 0.08366545 0.08372812 0.08370993 0.08366874 0.08356551
 0.0833658 0.0831394 0.08304373 0.08320769 0.08361568 0.08410949 0.08451674 0.08476105 0.08486141 0.08489626
 0.08497421 0.0851509 0.08534747 0.08542487 0.0853598 0.08528112 0.08531349 0.08543684 0.08552338 0.08548871
 0.08538786 0.08535858 0.08547702 0.0856907 0.08589797 0.08606313 0.08623268 0.08644935 0.0866648 0.08675581
 0.08665235 0.08643615 0.08626536 0.08620951 0.08621989 0.08625781 0.08636527 0.08657344 0.08680846 0.08695073
 0.08696972 0.08695135 0.0869845 0.08705288 0.08706157 0.08695299 0.08676925 0.08660716 0.08653936 0.08657598
 0.08667155 0.08675526 0.08677185 0.08671249 0.08661018 0.08650438 0.08641441 0.08635432 0.08636489 0.08649793
 0.08674139 0.08697335 0.08703433 0.08687042 0.08659536 0.08639042 0.08633818 0.08636077 0.08631591 0.08613583
 0.08586791 0.0856064 0.08541137 0.08528511 0.08519559 0.08511461 0.0850518 0.08505747 0.08516818 0.08533294
 0.08541867 0.08532269 0.08507434 0.08480278 0.08461708 0.08453912 0.08452754 0.08452936 0.08452259 0.08453551
 0.08460405 0.08469699 0.08472605 0.08465216 0.08453947 0.08448668 0.08454781 0.08472069 0.08494814 0.08511981
 0.08514219 0.08503594 0.08492079 0.08489035 0.08493964 0.08501682 0.08509599 0.08517964 0.08526788 0.08535817
 0.08546703 0.08562829 0.08586158 0.08614316 0.08640952 0.08659685 0.0866928 0.08675827 0.08688907 0.08714062
 0.08748274 0.08782721 0.08810148 0.08830008 0.08846898 0.08864582 0.08882959 0.08901513 0.08923143 0.08951399
 0.08984935 0.09018244 0.09047795 0.09074734 0.09101683 0.09129587 0.09158243 0.09188572 0.0922351 0.09265425
 0.09311244 0.09351625 0.09378222 0.09392078 0.09403307 0.09423015 0.09455743 0.09496326 0.09532078 0.09552163
 0.09558601 0.09565374 0.09583412 0.09609668 0.09634774 0.09657976 0.09688285 0.09731042 0.09778717 0.09817401
 0.09840316 0.09853053 0.09866296 0.0988477 0.09903887 0.09916957 0.09924068 0.09931725 0.09944664 0.09962241
 0.0998405 0.1001404 0.1005473 0.101003 0.1014025 0.1016879 0.1018757 0.10201 0.1021204 0.1022129
 0.1022735 0.1022946 0.1023082 0.1023642 0.1024633 0.1025484 0.1025817 0.1025986 0.1026633 0.1028049
 0.1030189 0.1032955 0.1036101 0.1039104 0.1041625 0.104408 0.1047244 0.1051094 0.1054502 0.1056407
 0.1056968 0.1057121 0.105737 0.1057625 0.1058059 0.1059335 0.1061837 0.1065205 0.106882 0.1072403
 0.1075972 0.1079467 0.1082581 0.1084862 0.1085975 0.1085989 0.1085495 0.1085388 0.1086417 0.1088769
 0.1091968 0.1095237 0.109801 0.1100053 0.1101189 0.1101279 0.11007 0.1100468 0.1101415 0.1103237
 0.110466 0.1104539 0.1102551 0.1098914 0.1093856 0.1087606 0.1080704 0.1074046 0.10685 0.1064522
 0.1062218 0.1061791 0.1063719 0.1068255 0.1074773 0.1081932 0.1088511 0.1093768 0.1096994 0.1097277
 0.1094156 0.108826 0.1080962 0.1073539 0.1066724 0.1060672 0.1055029 0.1049378 0.1044098 0.1040723
 0.1041187 0.1046683 0.1057098 0.1071104 0.1086537 0.110109 0.111326 0.1122892 0.1130821 0.1137965
 0.1144771 0.1151394 0.1158007 0.116466 0.1171 0.1176535 0.1181211 0.1185448 0.1189599 0.11936
 0.1197143 0.1199991 0.1202184 0.1204095 0.1206088 0.1207967 0.1209018 0.1208821 0.1207758 0.1206523
 0.1205328 0.1203758 0.1201233 0.1197514 0.1193056 0.1189135 0.118756 0.118992 0.1196732 0.1207133
 0.1219502 0.1232461 0.1245176 0.125681 0.1266264 0.1272857 0.1277006 0.1279888 0.1282532 0.1285388
 0.1288492 0.1291704 0.1294843 0.1297796 0.1300594 0.1303418 0.130652 0.1310005 0.1313594 0.1316734
 0.1319145 0.1321214 0.1323714 0.1327099 0.1331071 0.133492 0.1338273 0.134139 0.134462 0.1347766
 0.1350296 0.1352082 0.1353625 0.1355577 0.1358301 0.1361785 0.1365603 0.1369023 0.137152 0.1373265
 0.1374921 0.137695 0.137931 0.138176 0.1384192 0.1386615 0.1389028 0.1391488 0.1394189 0.1397258
 0.1400422 0.1403089 0.140491 0.1406173 0.1407522 0.1409348 0.141152 0.1413661 0.141562 0.1417675
 0.142027 0.1423485 0.1426814 0.1429552 0.1431392 0.1432627 0.1433822 0.1435372 0.1437313 0.1439436
 0.1441524 0.1443512 0.1445478 0.1447537 0.1449722 0.1451949 0.145409 0.1456085 0.1458001 0.1459957
 0.1462025 0.1464162 0.1466302 0.1468535 0.1471122 0.1474171 0.1477356 0.1480106 0.1482103 0.1483477
 0.1484576 0.1485696 0.1487017 0.148863 0.149054 0.1492672 0.1494894 0.1497066 0.1499123 0.1501117
 0.1503139 0.1505206 0.150727 0.1509304 0.1511372 0.1513588 0.1515992 0.1518447 0.1520718 0.1522677
 0.1524417 0.1526157 0.1528073 0.1530178 0.1532315 0.1534273 0.1535985 0.1537606 0.1539373 0.1541395
 0.1543572 0.1545672 0.1547531 0.1549194 0.1550879 0.1552787 0.1554942 0.1557206 0.1559398 0.156142
 0.1563292 0.15651 0.1566921 0.1568795 0.1570727 0.1572686 0.1574641 0.157663 0.1578722 0.1580915
 0.1583094 0.1585132 0.1587 0.1588794 0.1590653 0.1592637 0.1594688 0.1596721 0.1598725 0.1600752
 0.1602848 0.1605003 0.1607133 0.1609146 0.1611066 0.1613036 0.161516 0.1617388 0.1619593 0.1621701
 0.162374 0.1625815 0.1628008 0.1630294 0.1632562 0.1634741 0.1636845 0.163892 0.1640967 0.1642942
 0.1644793 0.1646539 0.1648278 0.1650082 0.1651921 0.1653731 0.1655521 0.1657342 0.1659236 0.1661207
 0.1663216 0.1665219 0.1667231 0.166931 0.1671426 0.1673464 0.1675362 0.1677179 0.1679017 0.1680923
 0.1682861 0.1684767 0.1686644 0.1688589 0.1690675 0.1692876 0.1695128 0.1697368 0.1699521 0.1701576
 0.1703612 0.1705679 0.1707727 0.1709739 0.171178 0.1713864 0.1715938 0.1718007 0.1720129 0.1722317
 0.1724538 0.172674 0.1728861 0.1730901 0.1732945 0.1735028 0.1737071 0.1739049 0.1741078 0.1743253
 0.1745555 0.1747895 0.1750155 0.1752263 0.1754283 0.1756342 0.1758454 0.1760571 0.1762699 0.1764838
 0.1766956 0.1769087 0.1771269 0.1773318 0.1774697 0.1774195 0.1769032 0.175381 0.1720286 0.1658954
 0.1562875 0.1432112 0.1275239 0.1106263 0.0939438 0.07855786 0.06510605 0.05386947 0.04491103 0.03816125
 0.03347299 0.03071655 0.0298833 0.03119374 0.03520782 0.04248867 0.05236993 0.06187962 0.066905 0.06543583
 0.05948016 0.05323215 0.04959087 0.04876386 0.04951479 0.05078376 0.05223221 0.05405581 0.05659343 0.05994012
 0.06392874 0.06854662 0.07413927 0.08096536 0.08866447 0.09640813 0.1036133 0.1104002 0.1173152 0.1246777
 0.1322475 0.1394635 0.1458939 0.1514536 0.1563188 0.1607283 0.1648477 0.1687514 0.17247 0.1759913
 0.1791875 0.1817914 0.1835262 0.1843137 0.18437 0.1840887 0.1838156 0.1837149 0.1838064 0.1840682
 0.1844806 0.1850224 0.1856703 0.1864013 0.1871895 0.1880099 0.1888432 0.1896669 0.1904514 0.1911767
 0.1918411 0.1924488 0.1930033 0.1935121 0.1939838 0.1944223 0.1948318 0.1952184 0.1955824 0.1959198
 0.1962342 0.1965365 0.1968326 0.1971186 0.1973858 0.1976279 0.1978472 0.1980553 0.1982605 0.1984622
 0.19866 0.1988602 0.199068 0.19928 0.199491 0.1996993 0.1999037 0.2001024 0.2002951 0.2004811
 0.2006603 0.200838 0.201024 0.2012243 0.2014345 0.2016442 0.2018451 0.2020372 0.2022275 0.2024211
 0.2026159 0.2028091 0.2030028 0.2032004 0.2034023 0.2036101 0.2038261 0.2040481 0.2042708 0.2044903
 0.2047018 0.2049012 0.2050965 0.2053043 0.2055241 0.2057279 0.2058923 0.2060317 0.2061898 0.2063955
 0.2066332 0.2068617 0.207059 0.2072407 0.2074327 0.207641 0.2078503 0.2080423 0.2082138 0.2083895
 0.2086048 0.2088626 0.2091264 0.2093668 0.2095914 0.2098188 0.2100548 0.2103013 0.2105494 0.2107618
 0.2109006 0.2109872 0.2111097 0.2113506 0.2117103 0.2121049 0.2124461 0.2127144 0.2129467 0.2131829
 0.2134437 0.2137151 0.2139161 0.2139508 0.2138587 0.2138526 0.2141238 0.2146485 0.2152364 0.2157274
 0.2160918 0.2163826 0.2166482 0.2168803 0.2170215 0.2170311 0.2169679 0.2169982 0.2172742 0.2177791
 0.218333 0.2187745 0.2190821 0.219309 0.2194948 0.2196631 0.2197825 0.2197086 0.2193342 0.2188621
 0.2187558 0.2192878 0.2202325 0.2211096 0.2216598 0.2219753 0.2222343 0.2224842 0.2226912 0.2227722
 0.2224847 0.2215686 0.2202462 0.2193601 0.2196724 0.221093 0.2228284 0.2241783 0.2249733 0.2253888
 0.225643 0.2258573 0.2259627 0.2256989 0.2249052 0.2239137 0.2234678 0.2240388 0.2252991 0.2264725
 0.2271245 0.2273954 0.2275959 0.227856 0.2280371 0.2276847 0.2262866 0.2240261 0.2221662 0.2221609
 0.224232 0.2271054 0.2292764 0.2303041 0.2306922 0.2307818 0.2302456 0.228679 0.2262169 0.2234673
 0.2213149 0.2208074 0.2224661 0.2254103 0.227854 0.2288693 0.2291707 0.2299341 0.23139 0.232836
 0.233548 0.233341 0.232442 0.2310881 0.2294132 0.2278209 0.2272095 0.2283343 0.2308883 0.2336108
 0.2354513 0.2363678 0.2367822 0.2363466 0.2336883 0.2280604 0.2214138 0.2178603 0.2200396 0.2263596
 0.2327088 0.2365003 0.2380886 0.2388406 0.2392972 0.2390261 0.236875 0.2315997 0.2238284 0.2173025
 0.2163493 0.2215997 0.2292741 0.234713 0.2355493 0.231957 0.2258195 0.2201711 0.2179509 0.2202175
 0.2256912 0.2320209 0.2371969 0.240098 0.2404638 0.2387821 0.23627 0.2345921 0.234647 0.2352351
 0.2339724 0.230306 0.2264319 0.2240659 0.2217878 0.2176698 0.2135194 0.2136823 0.2193974 0.2267222
 0.2309613 0.2314234 0.2305678 0.2295253 0.2261588 0.2181345 0.2073374 0.1999636 0.201104 0.2094568
 0.218491 0.2228478 0.2226008 0.2213303 0.2213486 0.2213447 0.2182277 0.2111576 0.2036041 0.2004389
 0.2027531 0.2068776 0.2087266 0.2070569 0.2020423 0.1939675 0.1855789 0.1829335 0.1902963 0.2049246
 0.2192109 0.2269417 0.2255735 0.214885 0.1978734 0.1825821 0.1781794 0.1867408 0.2007209 0.2098935
 0.2094608 0.2008987 0.1875909 0.1725275 0.1597016 0.1545351 0.1606375 0.1761477 0.1937414 0.2042442
 0.2016997 0.1880354 0.1735364 0.1694503 0.1777116 0.1895642 0.1953519 0.1932861 0.1880928 0.1849558
 0.1865224 0.1924034 0.1995825 0.2052605 0.209084 0.2099483 0.2029786 0.1853853 0.1642156 0.1517119
 0.1526027 0.1616789 0.1735675 0.1875568 0.2012352 0.2071907 0.2013684 0.1907612 0.1874537 0.1957922
 0.20867 0.2162209 0.2155823 0.2114097 0.208698 0.2074696 0.2052619 0.2028785 0.2045927 0.2122529
 0.2220551 0.2287852 0.2312355 0.2317441 0.2322265 0.2327207 0.2327118 0.2320021 0.2306505 0.2291136
 0.2280991 0.2277659 0.2275758 0.2271033 0.2260191 0.2228707 0.2153926 0.203694 0.1922873 0.1865164
 0.1868911 0.189454 0.1916637 0.1938769 0.1938582 0.1852347 0.1659131 0.1449898 0.136133 0.1443749
 0.162362 0.1787353 0.186828 0.1852416 0.1744616 0.1570639 0.1404127 0.1343445 0.1431514 0.1614735
 0.1800314 0.1936145 0.2016586 0.2038134 0.1989779 0.1884704 0.1772898 0.1712519 0.1734506 0.1829016
 0.1948732 0.2021021 0.1983512 0.184612 0.1718304 0.1728249 0.188838 0.2074659 0.2166023 0.2166931
 0.2158074 0.2170921 0.217221 0.2152159 0.2159726 0.2235536 0.2352172 0.2441234 0.2453467 0.2378217
 0.2236944 0.2088042 0.2011686 0.2045256 0.2140131 0.2213933 0.2229913 0.2192242 0.2097596 0.1955486
 0.183952 0.1843108 0.197125 0.2128494 0.2227328 0.2267853 0.2297948 0.2331008 0.232984 0.2263134
 0.2157779 0.2082285 0.2079004 0.2127077 0.217775 0.2205811 0.2209833 0.2182939 0.2117114 0.2036436
 0.1997434 0.2039921 0.2145515 0.2254504 0.2319016 0.2332927 0.2317934 0.2295336 0.2271688 0.2240569
 0.2196845 0.2155051 0.2146498 0.2185892 0.2248021 0.2293755 0.2314908 0.2336871 0.2378673 0.2426653
 0.2450991 0.2438185 0.2403827 0.2378916 0.2384999 0.2417223 0.2448073 0.2450806 0.2424799 0.2398514
 0.2403351 0.2443704 0.249618 0.2536248 0.2558281 0.2570595 0.2581077 0.2590212 0.2590662 0.2572821
 0.2538425 0.2508458 0.2508249 0.2542331 0.2590122 0.2627223 0.2645182 0.2650031 0.2648728 0.2641943
 0.2628059 0.2609743 0.2594218 0.2587538 0.259021 0.2598549 0.2608545 0.2617638 0.2624551 0.2629135
 0.2632046 0.2633909 0.2635019 0.2635801 0.2636648 0.2637171 0.2636601 0.2635311 0.2635052 0.2637019
 0.2640293 0.2642811 0.2643236 0.2641055 0.2635524 0.26259 0.2612788 0.2597993 0.2582562 0.2566044
 0.2548823 0.2534801 0.2530318 0.253934 0.2559734 0.2584547 0.2606782 0.2622899 0.263276 0.2637817
 0.2639838 0.2640383 0.2640377 0.2639916 0.2638661 0.2636448 0.2633475 0.2630027 0.2626247 0.2622259
 0.261838 0.2615003 0.2612176 0.2609451 0.2606227 0.2602199 0.2597477 0.259238 0.2587097 0.2581443
 0.2574941 0.2567223 0.2558354 0.2548801 0.2539222 0.2530258 0.2522199 0.2514746 0.2507254 0.2499235
 0.2490421 0.2480491 0.2469281 0.2457479 0.2446608 0.2437859 0.243106 0.2424975 0.2418366 0.2410607
 0.240164 0.2391793 0.2381524 0.2371053 0.2360263 0.2349022 0.2337343 0.2325135 0.2312088 0.2297966
 0.2282825 0.2266901 0.2250508 0.223397 0.2217265 0.2199646 0.21798 0.2156403 0.2128402 0.2094985
 0.2055764 0.2011227 0.1962948 0.1913173 0.186408 0.18173 0.1773965 0.1735019 0.1701371 0.1673798
 0.1652814 0.1638679 0.1631531 0.1631482 0.1638519 0.1652285 0.1671985 0.1696492 0.1724446 0.1754272
 0.1784235 0.1812707 0.1838666 0.1862151 0.1884059 0.1905181 0.1925392 0.1943935 0.196029 0.1974469
 0.1986627 0.1996822 0.2005194 0.2012096 0.2017923 0.202291 0.2027169 0.2030825 0.2034021 0.2036792
 0.2039038 0.2040747 0.2042163 0.204367 0.2045542 0.2047851 0.2050583 0.2053808 0.2057703 0.2062339
 0.2067481 0.207278 0.2078158 0.2083835 0.2089998 0.2096658 0.2103876 0.2111963 0.2121363 0.213235
 0.2144823 0.2158323 0.2172191 0.2185645 0.2197801 0.2207876 0.221549 0.2220695 0.2223724 0.2224836
 0.2224341 0.2222574 0.2219766 0.2216012 0.2211382 0.2206025 0.2200167 0.2194 0.2187578 0.2180835
 0.2173746 0.2166456 0.2159222 0.2152242 0.2145548 0.2139057 0.21327 0.2126468 0.2120353 0.2114342
 0.2108456 0.2102756 0.2097262 0.2091914 0.2086556 0.2080906 0.2074557 0.206714 0.2058566 0.2049049
 0.2038844 0.2027966 0.2016243 0.2003546 0.1989883 0.1975302 0.1959875 0.1943757 0.1927142 0.1910036
 0.1892143 0.1873102 0.1852961 0.1832414 0.181248 0.1793915 0.1776907 0.1761215 0.1746457 0.1732379
 0.1718949 0.170622 0.1694114 0.1682486 0.1671352 0.1660827 0.1650871 0.1641319 0.1632188 0.1623798
 0.1616488 0.1610299 0.1604986 0.1600292 0.1596109 0.1592452 0.1589501 0.1587691 0.1587384 0.1588255
 0.15893 0.1589641 0.1589115 0.1588089 0.1586964 0.1585923 0.1584916 0.1583865 0.1582827 0.1581759
 0.1580148 0.1577064 0.1571565 0.156297 0.1551011 0.1535977 0.1518654 0.1500145 0.1481781 0.1464906
 0.1450433 0.1438697 0.1429689 0.1423078 0.1418136 0.1414112 0.1410818 0.1408733 0.1408532 0.1410341
 0.1413157 0.1415329 0.1416066 0.1416256 0.141758 0.1421162 0.1427069 0.1434482 0.1442179 0.1449186
 0.1454972 0.1459139 0.1461473 0.1462342 0.1462394 0.1461885 0.1460744 0.1459018 0.1456785 0.1453995
 0.1450627 0.1446664 0.1441942 0.1436342 0.1429867 0.1422441 0.1414025 0.1404795 0.1394648 0.138312
 0.137065 0.1359445 0.1352338 0.1351011 0.1355273 0.1363375 0.1373203 0.1383623 0.1394032 0.1402514
 0.1406449 0.1406425 0.1408173 0.1418471 0.1438719 0.1463352 0.1484751 0.1498891 0.1505951 0.1507161
 0.1503058 0.1493937 0.1479824 0.1460303 0.1435657 0.1407396 0.1377065 0.1345948 0.131595 0.128904
 0.1266126 0.1247533 0.1233474 0.1224265 0.1220829 0.1219169 0.120031 0.1140077 0.104651 0.09765525
 0.09881489 0.1075076 0.1171362 0.1220955 0.1222318 0.1205365 0.1190723 0.1181351 0.1176025 0.117621
 0.1183303 0.1195834 0.1209809 0.122118 0.1228355 0.123185 0.1231383 0.1223343 0.1200147 0.1152973
 0.1078849 0.09866457 0.089403 0.08172128 0.07636204 0.07320179 0.0716109 0.07082174 0.07030164 0.07000388
 0.07025186 0.07134411 0.07329665 0.07594096 0.0791095 0.08258157 0.08595094 0.08878869 0.09097186 0.09268898
 0.09410048 0.09514363 0.09568893 0.09573821 0.09541299 0.09484428 0.09413011 0.09333146 0.09243311 0.0913503
 0.09007921 0.08883923 0.08794876 0.08752996 0.08742939 0.08743091 0.08743432 0.08742815 0.08741106 0.08737064
 0.08729343 0.08721346 0.08725394 0.08753796 0.08803177 0.08854355 0.08889104 0.08903734 0.0890729 0.08906127
 0.08888935 0.08836935 0.08756075 0.08681117 0.08630033 0.08572853 0.08472291 0.0834334 0.08244401 0.08212958
 0.08232415 0.0826038 0.08268604 0.08253706 0.08230785 0.08227116 0.08264669 0.08331683 0.08381718 0.08377445
</values></Ydata></ScRf><Data_Parameters_AB><parameter name="DPF">1</parameter><parameter name="NPT">3497</parameter><parameter name="FXV">3996</parameter><parameter name="LXV">500</parameter><parameter name="CSF">1</parameter><parameter name="MXY">0.189342468976974</parameter><parameter name="MNY">-0.0683402866125107</parameter><parameter name="DAT">31/05/2022</parameter><parameter name="TIM">11:56:37.783 (GMT+2)</parameter><parameter name="DXU">WN</parameter></Data_Parameters_AB><AB__Qtest><MainReport name="Quality Test Report"><Header><Line><Legend>Test result ok/not ok [1/0]: </Legend><Value>0</Value></Line><Line><Legend>Method file: </Legend><Value>C:\Users\Public\Documents\Bruker\OPUS_8.2.28\QT\IRBT_v3_default.QT</Value></Line></Header><Matrix><Line><Legend></Legend><Legend>min</Legend><Legend>max</Legend><Legend>measured</Legend></Line><Line><Value>Absorption (X-Range 1):</Value><Value>0.400000</Value><Value>2.000000</Value><Value>0.243537</Value></Line><Line><Value>Noise (X-Range 4):</Value><Value></Value><Value>0.000300</Value><Value>0.000068</Value></Line><Line><Value>Signal/Noise (X-Range 2):</Value><Value>200.000000</Value><Value></Value><Value>84.705648</Value></Line><Line><Value>Signal/Noise (X-Range 3):</Value><Value>40.000000</Value><Value></Value><Value>33.116853</Value></Line><Line><Value>Water vapour (X-Range 5):</Value><Value></Value><Value>0.000300</Value><Value>0.000104</Value></Line><Line><Value>Signal/Water (X-Range 2):</Value><Value>100.000000</Value><Value></Value><Value>55.156233</Value></Line><Line><Value>Signal/Water (X-Range 3):</Value><Value>20.000000</Value><Value></Value><Value>21.564098</Value></Line><Line><Value>Fringes (X-Range 6):</Value><Value></Value><Value>0.000100</Value><Value>0.000054</Value></Line></Matrix></MainReport></AB__Qtest><Data_Parameters_ScSm><parameter name="DPF">1</parameter><parameter name="NPT">1814</parameter><parameter name="FXV">3996.33169228125</parameter><parameter name="LXV">499.541461535156</parameter><parameter name="CSF">1</parameter><parameter name="MXY">0.275964200496674</parameter><parameter name="MNY">0.0347298756241798</parameter><parameter name="DAT">31/05/2022</parameter><parameter name="TIM">11:56:37.783 (GMT+2)</parameter><parameter name="DXU">WN</parameter></Data_Parameters_ScSm><Data_Parameters_ScRf><parameter name="DPF">1</parameter><parameter name="NPT">1820</parameter><parameter name="FXV">4004.04661832813</parameter><parameter name="LXV">495.683998511719</parameter><parameter name="CSF">1</parameter><parameter name="MXY">0.265003144741058</parameter><parameter name="MNY">0.0298832952976227</parameter><parameter name="DAT">31/05/2022</parameter><parameter name="TIM">11:56:11.052 (GMT+2)</parameter><parameter name="DXU">WN</parameter></Data_Parameters_ScRf><Optic_Parameters_Rf><parameter name="APR">0</parameter><parameter name="APT">Open</parameter><parameter name="BMS">KBr</parameter><parameter name="DTC">RT-DLaTGS_IR-Biotyper [Microplate reader]</parameter><parameter name="HPF">0</parameter><parameter name="LPF">10.0</parameter><parameter name="LPV">4000</parameter><parameter name="PGR">0</parameter><parameter name="RCH">Module port</parameter><parameter name="RDX">0</parameter><parameter name="SRC">MIR</parameter><parameter name="VEL">10.0</parameter><parameter name="SON">Off</parameter></Optic_Parameters_Rf><Acquisition_Parameters_Rf><parameter name="ADT">1</parameter><parameter name="AQM">DD</parameter><parameter name="CFE">0</parameter><parameter name="COR">0</parameter><parameter name="DEL">0</parameter><parameter name="DLY">0</parameter><parameter name="HFW">8000</parameter><parameter name="LFW">0</parameter><parameter name="NSR">32</parameter><parameter name="PLF">AB</parameter><parameter name="RES">6</parameter><parameter name="RGN">-1</parameter><parameter name="STR">0</parameter><parameter name="TCL">MakeCompatibleScalar (0, {WSV=1.000000, ARV=0});</parameter><parameter name="TDL">37</parameter><parameter name="RPO">0</parameter></Acquisition_Parameters_Rf><FT_-_Parameters_Rf><parameter name="APF">B3</parameter><parameter name="HFQ">500</parameter><parameter name="LFQ">4000</parameter><parameter name="NLI">0</parameter><parameter name="PHR">24</parameter><parameter name="PHZ">ML</parameter><parameter name="SPZ">NO</parameter><parameter name="ZFF">1</parameter></FT_-_Parameters_Rf><Optic_Parameters_><parameter name="APR">0</parameter><parameter name="APT">Open</parameter><parameter name="BMS">KBr</parameter><parameter name="CHN">Module port</parameter><parameter name="DTC">RT-DLaTGS_IR-Biotyper [Microplate reader]</parameter><parameter name="HPF">0</parameter><parameter name="LPF">10.0</parameter><parameter name="LPV">4000</parameter><parameter name="PGN">0</parameter><parameter name="RDX">0</parameter><parameter name="SRC">MIR</parameter><parameter name="VEL">10.0</parameter><parameter name="SON">Off</parameter></Optic_Parameters_><FT_-_Parameters_><parameter name="APF">B3</parameter><parameter name="HFQ">500</parameter><parameter name="LFQ">4000</parameter><parameter name="NLI">0</parameter><parameter name="PHR">24</parameter><parameter name="PHZ">ML</parameter><parameter name="SPZ">NO</parameter><parameter name="ZFF">1</parameter></FT_-_Parameters_><Acquisition_Parameters_><parameter name="ADT">1</parameter><parameter name="AQM">DD</parameter><parameter name="CFE">0</parameter><parameter name="COR">0</parameter><parameter name="DEL">0</parameter><parameter name="DLY">0</parameter><parameter name="HFW">8000</parameter><parameter name="LFW">0</parameter><parameter name="NSS">32</parameter><parameter name="PLF">AB</parameter><parameter name="RES">6</parameter><parameter name="SOT">0</parameter><parameter name="TCL">MakeCompatibleScalar (0, {WSV=1.000000, ARV=0});</parameter><parameter name="TDL">37</parameter><parameter name="SPO">0</parameter><parameter name="SGN">-1</parameter></Acquisition_Parameters_><Instrument_Parameters_Rf><parameter name="HFL">15800.168544</parameter><parameter name="LFL">0</parameter><parameter name="LWN">15800.168544</parameter><parameter name="ABP">32197</parameter><parameter name="SSP">1</parameter><parameter name="ARG">2</parameter><parameter name="ASG">2</parameter><parameter name="ASS">32</parameter><parameter name="GFW">16</parameter><parameter name="GBW">16</parameter><parameter name="BFW">0</parameter><parameter name="BBW">0</parameter><parameter name="PKA">7267</parameter><parameter name="PKL">4996</parameter><parameter name="PRA">7448</parameter><parameter name="PRL">5001</parameter><parameter name="P2A">1</parameter><parameter name="P2L">1</parameter><parameter name="P2R">1</parameter><parameter name="P2K">1</parameter><parameter name="DAQ">0</parameter><parameter name="AG2">1</parameter><parameter name="SSM">1</parameter><parameter name="RSN">25519</parameter><parameter name="CRR">0</parameter><parameter name="SRT">1653998171.053</parameter><parameter name="DUR">19.6369934082031</parameter><parameter name="TSC">28.9</parameter><parameter name="MVD">0.212946444749832</parameter><parameter name="AN1">0.22580929401132</parameter><parameter name="AN2">0</parameter><parameter name="VSN">2.485 Apr  4 2017</parameter><parameter name="SRN">0085</parameter><parameter name="CAM">0</parameter><parameter name="INS">IR-Biotyper</parameter><parameter name="FOC">69</parameter><parameter name="RDY">1</parameter><parameter name="ARS">32</parameter></Instrument_Parameters_Rf><Sample_Parameters_><parameter name="BLD"></parameter><parameter name="CNM">Admin</parameter><parameter name="CPY"></parameter><parameter name="DPM"></parameter><parameter name="EXP">IRBT_v3_32Scans.XPM</parameter><parameter name="LCT"></parameter><parameter name="SFM">Microplate, HTS-XT</parameter><parameter name="SNM">220531-1021(v.3)_AML29F (D_3)_E11_62c7d8a5-78d9-4221-a076-2b0b7b746850.0</parameter><parameter name="XPP">C:\Users\Public\Documents\Bruker\OPUS_8.2.28\XPM</parameter><parameter name="IST">OK</parameter><parameter name="CPG">1252</parameter><parameter name="UID">df2a8af3-3c91-4fd2-88bb-626e67a8adb5</parameter></Sample_Parameters_><Instrument_Parameters_><parameter name="HFL">15800.168544</parameter><parameter name="LFL">0</parameter><parameter name="LWN">15800.168544</parameter><parameter name="ABP">32197</parameter><parameter name="SSP">1</parameter><parameter name="ASG">2</parameter><parameter name="ARG">2</parameter><parameter name="ASS">32</parameter><parameter name="GFW">16</parameter><parameter name="GBW">16</parameter><parameter name="BFW">0</parameter><parameter name="BBW">0</parameter><parameter name="PKA">7174</parameter><parameter name="PKL">4988</parameter><parameter name="PRA">7377</parameter><parameter name="PRL">4993</parameter><parameter name="P2A">1</parameter><parameter name="P2L">1</parameter><parameter name="P2R">1</parameter><parameter name="P2K">1</parameter><parameter name="DAQ">0</parameter><parameter name="AG2">1</parameter><parameter name="SSM">1</parameter><parameter name="RSN">13385</parameter><parameter name="CRR">0</parameter><parameter name="SRT">1653998197.784</parameter><parameter name="DUR">19.6389923095703</parameter><parameter name="TSC">28.9</parameter><parameter name="MVD">0.207040652632713</parameter><parameter name="AN1">0.225822109256903</parameter><parameter name="AN2">0</parameter><parameter name="VSN">2.485 Apr  4 2017</parameter><parameter name="SRN">0085</parameter><parameter name="CAM">0</parameter><parameter name="INS">IR-Biotyper</parameter><parameter name="FOC">69</parameter><parameter name="RDY">1</parameter></Instrument_Parameters_><History/></OPUSDataFile>
