<?xml version="1.0" encoding="UTF-8" ?>
<OPUSDataFile><AB><Ydata ylabel="Absorbance Units"><values byteorder="INTEL" format="FLOAT32" numvalues="3497"> -0.08208413 -0.08211826 -0.0821578 -0.08220476 -0.08222863 -0.08222789 -0.08219428 -0.08212938 -0.08205084 -0.08196131
 -0.08188609 -0.08182417 -0.08178648 -0.08176819 -0.08176262 -0.08176798 -0.08177642 -0.08179342 -0.08182227 -0.08186712
 -0.08193599 -0.08201807 -0.08211323 -0.08219935 -0.08226758 -0.08230723 -0.0823108 -0.08229291 -0.08225326 -0.08221696
 -0.0821868 -0.08217361 -0.08217812 -0.08218933 -0.08220616 -0.08221108 -0.08220496 -0.08218301 -0.08214882 -0.0821126
 -0.08207675 -0.08205315 -0.08203965 -0.08203898 -0.08204598 -0.08205572 -0.08206502 -0.0820687 -0.08206913 -0.08206584
 -0.08206283 -0.08206254 -0.08206286 -0.08206476 -0.0820599 -0.08204649 -0.08202308 -0.08198842 -0.08195672 -0.08192872
 -0.08192021 -0.08193064 -0.08195657 -0.08199513 -0.08202603 -0.08204985 -0.08205622 -0.08205126 -0.08204507 -0.08204088
 -0.08205047 -0.0820693 -0.08209785 -0.08212835 -0.0821553 -0.0821719 -0.08217354 -0.08215447 -0.08211029 -0.08204372
 -0.08195179 -0.08185373 -0.08175061 -0.08166919 -0.08161221 -0.08159745 -0.08162607 -0.0817006 -0.08182006 -0.08197316
 -0.08215609 -0.08234194 -0.08252425 -0.08266353 -0.0827599 -0.08278969 -0.08276677 -0.08270226 -0.08261155 -0.08251785
 -0.08242689 -0.08235201 -0.0822898 -0.08224265 -0.08220343 -0.0821692 -0.08213843 -0.08210853 -0.08208889 -0.08208036
 -0.08209311 -0.08212927 -0.08218149 -0.08224957 -0.08230839 -0.08235729 -0.0823807 -0.08238181 -0.08237243 -0.08235639
 -0.08235581 -0.08236852 -0.08240245 -0.08244862 -0.08249509 -0.08253628 -0.08255886 -0.08256727 -0.08256144 -0.08254363
 -0.08251645 -0.08247582 -0.08241805 -0.08235206 -0.08227555 -0.08221773 -0.08218241 -0.08219624 -0.08226427 -0.08237956
 -0.08254254 -0.08267737 -0.08277994 -0.08276672 -0.08264998 -0.08246718 -0.08223342 -0.08202794 -0.08184932 -0.08173364
 -0.08167333 -0.08167503 -0.08172248 -0.08180376 -0.08189245 -0.0819616 -0.08199991 -0.08198577 -0.08194695 -0.08188676
 -0.08183907 -0.08181745 -0.08181914 -0.08184776 -0.08188069 -0.08191545 -0.08194263 -0.08196142 -0.08197764 -0.08199152
 -0.08200733 -0.08202457 -0.08204189 -0.08205919 -0.08207642 -0.08209193 -0.08210347 -0.08210506 -0.08208431 -0.08204001
 -0.08196162 -0.08186273 -0.08174822 -0.08163824 -0.08154543 -0.08148253 -0.08145962 -0.08147258 -0.08152586 -0.08159412
 -0.08167536 -0.0817384 -0.08177904 -0.08178627 -0.08175896 -0.08170958 -0.08163884 -0.08156017 -0.08147312 -0.08138028
 -0.08128201 -0.08117972 -0.08107711 -0.08098408 -0.08090388 -0.08084869 -0.08081433 -0.08080342 -0.08080275 -0.08080252
 -0.08079215 -0.0807599 -0.08071192 -0.0806452 -0.08057845 -0.08051616 -0.08047088 -0.08044665 -0.08044153 -0.08045616
 -0.0804825 -0.08052012 -0.08056188 -0.08060738 -0.08064963 -0.08068793 -0.08071418 -0.08072805 -0.08072321 -0.0807014
 -0.08066259 -0.08061151 -0.08055554 -0.0805007 -0.08045717 -0.08042896 -0.08042247 -0.08044043 -0.08048533 -0.08056139
 -0.08067257 -0.08081411 -0.08099088 -0.08116936 -0.08134753 -0.08147759 -0.08155308 -0.08155658 -0.08148637 -0.08134723
 -0.08114014 -0.08087929 -0.08057102 -0.08026463 -0.07996798 -0.07974097 -0.07958153 -0.07951897 -0.07953719 -0.07962769
 -0.07975845 -0.0798859 -0.07999043 -0.08003224 -0.08003191 -0.07998854 -0.07992917 -0.07986787 -0.07980726 -0.07975359
 -0.07968918 -0.07961124 -0.07950974 -0.07938115 -0.0792459 -0.07910475 -0.07899038 -0.07890368 -0.07886158 -0.07886183
 -0.07889976 -0.07896788 -0.07903641 -0.07909377 -0.07908933 -0.07902931 -0.07889416 -0.07871387 -0.07852146 -0.07832957
 -0.07816695 -0.07801547 -0.07787368 -0.07772025 -0.07754134 -0.07734445 -0.07712476 -0.07691397 -0.07671757 -0.07655472
 -0.07643029 -0.07633065 -0.07625582 -0.07616527 -0.07605715 -0.07589559 -0.07568461 -0.0754356 -0.07515578 -0.07488312
 -0.07461599 -0.07436916 -0.07413835 -0.07392231 -0.07371809 -0.07352418 -0.07333045 -0.07312924 -0.07290813 -0.07265417
 -0.0723732 -0.07206427 -0.07173556 -0.07139377 -0.07101898 -0.07060774 -0.07014979 -0.06964061 -0.06911027 -0.06856032
 -0.0680222 -0.06749645 -0.06698944 -0.0665003 -0.06602634 -0.06556649 -0.0651161 -0.06467219 -0.06422334 -0.06377008
 -0.06330679 -0.06283855 -0.06237447 -0.06190366 -0.06142645 -0.06091114 -0.06033211 -0.0596923 -0.05897607 -0.05823833
 -0.05749404 -0.05676918 -0.05607456 -0.05539615 -0.05473363 -0.05407302 -0.05341306 -0.05275454 -0.05209794 -0.05145508
 -0.05082576 -0.0502177 -0.04962311 -0.04901751 -0.04838511 -0.04766286 -0.0468592 -0.04594653 -0.04497561 -0.04400562
 -0.04306069 -0.04219327 -0.0413773 -0.04061463 -0.03986922 -0.03912663 -0.03836151 -0.03756145 -0.03672512 -0.03584692
 -0.03495379 -0.0340479 -0.03315462 -0.03227665 -0.03140176 -0.03052853 -0.02962279 -0.0286865 -0.02771778 -0.02672382
 -0.02573617 -0.02475592 -0.02380373 -0.0228736 -0.02196468 -0.02106914 -0.02017715 -0.01928107 -0.01836843 -0.01744235
 -0.01649764 -0.0155518 -0.01461347 -0.01368507 -0.01277482 -0.01185106 -0.01090902 -0.009924246 -0.008889333 -0.007833248
 -0.006756841 -0.005707281 -0.004685641 -0.003703252 -0.002757456 -0.001832976 -0.0009271188 -2.018158E-05 0.000888255 0.001811287
 0.002743611 0.003681484 0.004619595 0.005545117 0.006467859 0.007388094 0.008328302 0.009305462 0.01032433 0.01139746
 0.01249694 0.01361846 0.01473369 0.01583508 0.01691498 0.01797083 0.01900774 0.02002559 0.02103815 0.02204615
 0.0230637 0.0240903 0.02512807 0.0261759 0.02722975 0.02828968 0.02935482 0.03042303 0.03149096 0.03255382
 0.03360264 0.03463798 0.03565545 0.03666236 0.03766176 0.03866034 0.03966208 0.04066948 0.0416851 0.04270456
 0.04372855 0.0447455 0.04575377 0.04674839 0.04772856 0.0487023 0.0496698 0.05063434 0.05159461 0.05254012
 0.05347147 0.0543845 0.05528381 0.05618066 0.05707823 0.05798798 0.0589113 0.05985502 0.0608186 0.06180703
 0.06280894 0.06382123 0.06482529 0.06581007 0.06677277 0.06770741 0.06863005 0.06954334 0.07045645 0.07137164
 0.07228553 0.07319801 0.07410781 0.07501484 0.07591707 0.07681376 0.07769655 0.07856635 0.0794222 0.08026658
 0.08110733 0.08194327 0.08277578 0.08360313 0.08442163 0.08523561 0.08604775 0.08686189 0.08768179 0.08850773
 0.0893393 0.0901823 0.0910386 0.0919117 0.09280577 0.09370118 0.09459709 0.09546594 0.09630487 0.09711424
 0.09789481 0.09867276 0.09944911 0.1002447 0.1010568 0.1018857 0.1027254 0.1035589 0.1043818 0.1051739
 0.1059412 0.1066809 0.1074075 0.1081365 0.1088688 0.1096138 0.1103543 0.1110834 0.1117956 0.1124844
 0.1131664 0.1138443 0.1145271 0.115218 0.1159056 0.1165894 0.1172607 0.1179193 0.1185732 0.1192237
 0.119886 0.1205602 0.1212557 0.1219687 0.1226938 0.1234241 0.1241416 0.1248446 0.1255209 0.1261785
 0.1268207 0.1274543 0.1280864 0.1287154 0.1293423 0.1299652 0.1305835 0.1311969 0.1318063 0.1324032
 0.1329867 0.1335479 0.1340855 0.1346082 0.1351169 0.1356342 0.1361606 0.136711 0.1372828 0.1378721
 0.1384732 0.1390667 0.1396479 0.1401953 0.1407143 0.1411995 0.1416699 0.1421412 0.1426308 0.1431594
 0.1437212 0.1443247 0.1449363 0.1455493 0.1461282 0.146661 0.1471482 0.1475849 0.1480107 0.1484288
 0.1488639 0.1493162 0.1497513 0.1501656 0.150508 0.1507859 0.1510049 0.1511823 0.1513766 0.1515943
 0.1518819 0.1522261 0.1526298 0.1530737 0.1535383 0.154014 0.1544844 0.1549591 0.1554341 0.1559374
 0.1564781 0.1570729 0.1577341 0.1584259 0.1591506 0.1598268 0.1604482 0.1609555 0.1613471 0.1616424
 0.1618481 0.1620381 0.1622144 0.1624274 0.1626674 0.1629274 0.1632044 0.1634826 0.1637788 0.1641128
 0.1644923 0.1649437 0.1654325 0.1659485 0.1664445 0.1668874 0.167282 0.167613 0.1679398 0.168272
 0.168659 0.1691133 0.1696235 0.1701923 0.1707561 0.1713113 0.171787 0.1721839 0.1724763 0.1726769
 0.1728317 0.1729597 0.1731462 0.1733969 0.1737718 0.1742487 0.1748282 0.1754663 0.176121 0.1767527
 0.1773152 0.1778075 0.1782078 0.178564 0.1788824 0.1792226 0.1796001 0.1800427 0.1805576 0.1811455
 0.1818067 0.1825472 0.1833673 0.1842705 0.1852512 0.1862603 0.1872798 0.1881933 0.1889874 0.1895466
 0.1898962 0.1900169 0.1899815 0.1898834 0.1897942 0.1898362 0.190002 0.1903474 0.1907672 0.1912358
 0.1916273 0.1918886 0.1919717 0.1918447 0.1915654 0.191131 0.1906504 0.1901325 0.1896528 0.1892147
 0.1888198 0.1884641 0.1881067 0.1877468 0.1873572 0.1869451 0.186519 0.186085 0.1856648 0.1852482
 0.1848376 0.1843985 0.1839015 0.1833033 0.1825595 0.1816603 0.1805772 0.1793617 0.1780146 0.1766259
 0.175213 0.1738536 0.1725621 0.1713774 0.1703054 0.1693409 0.168483 0.167681 0.1669305 0.1661632
 0.1653817 0.1645598 0.1637111 0.1628687 0.162038 0.1612543 0.1604974 0.1597541 0.1590006 0.1581988
 0.1573592 0.1564667 0.1555709 0.1546885 0.1538722 0.1531475 0.1525255 0.1520222 0.1515837 0.1512102
 0.1508067 0.1503646 0.1498184 0.149165 0.1484251 0.1476055 0.1467876 0.1459752 0.1452326 0.1445515
 0.1439395 0.1433841 0.1428607 0.1423625 0.1418684 0.1413766 0.1408774 0.1403704 0.1398523 0.139324
 0.1387845 0.1382374 0.1376828 0.1371277 0.1365732 0.1360275 0.1354922 0.1349703 0.1344627 0.1339613
 0.1334656 0.1329613 0.1324476 0.1319119 0.1313551 0.1307741 0.1301725 0.1295602 0.1289424 0.1283369
 0.127744 0.1271754 0.1266217 0.1260795 0.1255343 0.1249738 0.1243907 0.1237753 0.1231358 0.1224713
 0.1217986 0.1211223 0.1204498 0.1197845 0.1191178 0.1184492 0.1177696 0.1170783 0.1163813 0.1156793
 0.1149857 0.1142996 0.1136242 0.1129565 0.1122876 0.1116166 0.1109358 0.1102491 0.1095581 0.1088678
 0.1081842 0.1075106 0.1068499 0.1062077 0.1055845 0.1049959 0.1044471 0.1039517 0.1035198 0.1031268
 0.102777 0.1023959 0.1019779 0.1014528 0.1008168 0.1000746 0.09923311 0.09837522 0.09750981 0.09673281
 0.09604049 0.09547763 0.09502054 0.09464402 0.09431081 0.09394989 0.09353977 0.09301833 0.09241464 0.09171969
 0.09100085 0.09029324 0.08963345 0.08905189 0.08851909 0.08803462 0.08756289 0.08709218 0.08665046 0.08623669
 0.08591758 0.08569665 0.08559065 0.0855931 0.08562931 0.08568648 0.08564907 0.08551735 0.08522251 0.08479137
 0.08424611 0.08362576 0.08300667 0.0824023 0.08186523 0.08137013 0.08091386 0.08047425 0.08002977 0.07960221
 0.07919218 0.07883118 0.07853407 0.07827988 0.07807162 0.07785401 0.07762005 0.07736076 0.0770753 0.07681606
 0.07658491 0.07642262 0.07632249 0.07626568 0.07624386 0.07621519 0.07618184 0.07612775 0.07605939 0.07598332
 0.07589576 0.07579947 0.07567658 0.07551774 0.07529773 0.0750007 0.07461092 0.0741124 0.07352833 0.0728514
 0.07215915 0.07145849 0.0708406 0.07031768 0.06991272 0.06962778 0.0693839 0.06917424 0.06888456 0.06851741
 0.06802423 0.06742533 0.06676558 0.06606646 0.06540471 0.06478211 0.06423988 0.06376051 0.06334202 0.06296146
 0.06260145 0.06224221 0.06186818 0.0614699 0.06103709 0.06058194 0.0601028 0.05962722 0.05916122 0.05870996
 0.05827709 0.05782629 0.05735568 0.05683254 0.0562592 0.05566159 0.05504639 0.05447283 0.05393432 0.05344346
 0.05297843 0.05248873 0.051969 0.05137685 0.05074498 0.05009036 0.04945438 0.04888129 0.04837704 0.04796259
 0.04761169 0.04731832 0.04706505 0.0468437 0.04666014 0.04651461 0.04641087 0.04635122 0.04631203 0.04629225
 0.04624484 0.0461676 0.04601822 0.04579954 0.04550441 0.04514373 0.04475136 0.04434084 0.04396214 0.04362198
 0.04335564 0.04315936 0.04304386 0.04299892 0.04302019 0.0430983 0.04322629 0.04340117 0.04361999 0.04388336
 0.04419174 0.04454111 0.04493062 0.04535822 0.04582179 0.04634396 0.04692567 0.04761918 0.04842662 0.04939195
 0.05050952 0.05176948 0.05315661 0.05460954 0.05611609 0.05761231 0.05910236 0.06056066 0.06200598 0.0634497
 0.06490971 0.06640627 0.06794326 0.06953061 0.07115894 0.07282938 0.07452296 0.07623941 0.07794208 0.07962984
 0.08124007 0.08276846 0.0841423 0.085357 0.08636234 0.08715791 0.08773115 0.08808556 0.08823488 0.08818609
 0.0879662 0.08759389 0.08711834 0.08657976 0.08605978 0.08561189 0.08533068 0.08525111 0.08543941 0.08588713
 0.08661353 0.08757972 0.08877659 0.09016812 0.09174388 0.09347939 0.09537141 0.09738897 0.09953097 0.1017463
 0.1040323 0.1063214 0.1086091 0.1108205 0.1129507 0.1149301 0.1167554 0.1183771 0.1197931 0.1209771
 0.1219179 0.1225952 0.1229712 0.123008 0.1226315 0.1217777 0.1203662 0.1183226 0.1156433 0.112278
 0.1083788 0.103943 0.09926499 0.09437906 0.08960272 0.08497369 0.08069544 0.07678424 0.07327558 0.07016483
 0.06737195 0.06488772 0.06261242 0.06054327 0.0586183 0.05683627 0.05516638 0.05360017 0.05211024 0.05068697
 0.04930442 0.0479683 0.04667035 0.0454324 0.04426421 0.04318378 0.04220234 0.04132144 0.04054386 0.03986624
 0.03928664 0.03881476 0.03845007 0.03821743 0.03811844 0.03817186 0.03837575 0.03870191 0.03913706 0.0395805
 0.04001262 0.04029815 0.04043563 0.04034064 0.0400511 0.03958272 0.03900533 0.0384037 0.03784977 0.0374311
 0.0371948 0.03719518 0.03744097 0.03795336 0.03870529 0.0396993 0.04088247 0.04225327 0.04372573 0.04529975
 0.04681039 0.04825057 0.04933256 0.05003753 0.05001583 0.04926471 0.04756929 0.04499027 0.04162429 0.03759843
 0.03327875 0.02878794 0.02452335 0.02051838 0.01699256 0.01387566 0.01119082 0.008833135 0.006744337 0.004861384
 0.003141513 0.001571071 0.0001393662 -0.001159202 -0.002324693 -0.003376769 -0.004316606 -0.005169401 -0.005936706 -0.006642457
 -0.007288123 -0.007899656 -0.008478698 -0.009050361 -0.009613905 -0.01018187 -0.01074808 -0.0113038 -0.01184078 -0.01233783
 -0.01279585 -0.01320249 -0.01357589 -0.01392488 -0.01427284 -0.01463919 -0.01502724 -0.01544848 -0.01587703 -0.01631048
 -0.01671495 -0.01708234 -0.01740111 -0.01766668 -0.01790131 -0.01810573 -0.01831768 -0.01853825 -0.01878708 -0.01906114
 -0.01934702 -0.01964193 -0.01992424 -0.02020004 -0.02047295 -0.02075373 -0.02106746 -0.02141123 -0.02179748 -0.02220279
 -0.02261327 -0.02300267 -0.02334892 -0.02364499 -0.02387893 -0.0240668 -0.02420714 -0.02433233 -0.02444609 -0.02458525
 -0.02475515 -0.02497325 -0.02524185 -0.02554104 -0.02586893 -0.02618614 -0.02649237 -0.02676607 -0.02701124 -0.02723384
 -0.02743633 -0.02762925 -0.02781098 -0.02798245 -0.0281441 -0.02829569 -0.02844128 -0.02858533 -0.02872769 -0.02887136
 -0.02900873 -0.02913644 -0.02925237 -0.02935208 -0.02945171 -0.02955194 -0.02967685 -0.02983029 -0.03001869 -0.03024343
 -0.03048343 -0.03073722 -0.03097449 -0.03119541 -0.03138594 -0.03155024 -0.03169788 -0.03183398 -0.03197869 -0.03213187
 -0.03230555 -0.03249003 -0.03267919 -0.03285986 -0.03301509 -0.03314625 -0.03324357 -0.03333185 -0.03341698 -0.03352758
 -0.03367573 -0.03386543 -0.03410254 -0.03436437 -0.03464974 -0.03493221 -0.03520972 -0.03546861 -0.03570864 -0.03592857
 -0.03612933 -0.03631697 -0.03649309 -0.0366677 -0.03684197 -0.03702496 -0.03721536 -0.03741615 -0.0376222 -0.03782906
 -0.03802928 -0.03821398 -0.03838006 -0.03852079 -0.0386435 -0.03874748 -0.03884854 -0.03895073 -0.03906692 -0.03920123
 -0.03935451 -0.03952821 -0.03971278 -0.03990786 -0.04010076 -0.04029081 -0.0404661 -0.04062597 -0.04075945 -0.04086688
 -0.04094205 -0.04098929 -0.04101525 -0.04102937 -0.04105241 -0.04109229 -0.04117044 -0.04128376 -0.04144014 -0.04162412
 -0.0418299 -0.04203955 -0.04224335 -0.04243275 -0.04260164 -0.04275495 -0.04289151 -0.04302402 -0.04315393 -0.04329031
 -0.04343415 -0.04358387 -0.04373925 -0.04389397 -0.04404816 -0.04420024 -0.04435075 -0.04450172 -0.04465267 -0.04480325
 -0.04495304 -0.04510041 -0.04524704 -0.04539459 -0.0455442 -0.04569868 -0.04585472 -0.04601197 -0.04616423 -0.04630849
 -0.04644137 -0.04656026 -0.04666847 -0.04676521 -0.04686027 -0.04695448 -0.04705827 -0.04717265 -0.04730074 -0.0474424
 -0.04759112 -0.04774626 -0.04789919 -0.0480504 -0.04819739 -0.04834139 -0.04848502 -0.04862821 -0.04877286 -0.04891641
 -0.04905648 -0.04918991 -0.04931207 -0.04942362 -0.04952183 -0.04961444 -0.04970336 -0.04979798 -0.04990247 -0.05001795
 -0.05014652 -0.05027958 -0.05041647 -0.0505489 -0.05067594 -0.05079827 -0.05091609 -0.05103626 -0.05115901 -0.05128936
 -0.05142639 -0.051569 -0.05171517 -0.05185857 -0.05199758 -0.05212528 -0.05224299 -0.05234857 -0.05244672 -0.05254096
 -0.0526356 -0.0527352 -0.05283961 -0.05295057 -0.05306412 -0.05317949 -0.05329309 -0.05340367 -0.05351143 -0.05361587
 -0.05372124 -0.05382776 -0.05394052 -0.05405969 -0.0541863 -0.05431986 -0.05445661 -0.05459606 -0.05473385 -0.05487004
 -0.05500272 -0.05513164 -0.0552557 -0.05537396 -0.0554846 -0.05558721 -0.05568038 -0.05576516 -0.05584108 -0.05591168
 -0.05597741 -0.05604503 -0.05611632 -0.05619793 -0.05629244 -0.05639784 -0.05651517 -0.05663254 -0.05674914 -0.0568551
 -0.05695022 -0.05703758 -0.05711805 -0.05720126 -0.05728677 -0.05737778 -0.05747244 -0.05756624 -0.05765907 -0.05774786
 -0.05783502 -0.05792306 -0.05801292 -0.05810758 -0.05820363 -0.05830009 -0.05839269 -0.05847836 -0.058558 -0.05863059
 -0.0587008 -0.05876959 -0.05883928 -0.05891056 -0.05898216 -0.05905398 -0.05912597 -0.05919817 -0.05927307 -0.05935071
 -0.05943239 -0.05951784 -0.05960637 -0.0596979 -0.05979201 -0.05988842 -0.05998666 -0.06008573 -0.06018394 -0.06028065
 -0.06037397 -0.06046575 -0.06055605 -0.06064865 -0.06074525 -0.06084872 -0.06096091 -0.06108058 -0.06120854 -0.06133852
 -0.06146999 -0.06159622 -0.06171645 -0.06183011 -0.06193725 -0.0620428 -0.06214676 -0.06225152 -0.06235615 -0.06245717
 -0.06255409 -0.06264287 -0.06272507 -0.06280162 -0.06287507 -0.06294969 -0.06302669 -0.0631094 -0.06319646 -0.06328841
 -0.06338219 -0.06347656 -0.06356896 -0.06365801 -0.06374372 -0.06382542 -0.06390616 -0.06398609 -0.06406935 -0.06415635
 -0.06424891 -0.06434705 -0.06444776 -0.06455054 -0.06464916 -0.06474356 -0.06482986 -0.06490918 -0.06498273 -0.06505219
 -0.06512193 -0.06519245 -0.06526694 -0.06534349 -0.06542209 -0.06549868 -0.06557027 -0.06563463 -0.06568868 -0.06573652
 -0.06577791 -0.06582078 -0.06586709 -0.06592055 -0.06598239 -0.06605008 -0.06612359 -0.06619935 -0.06627724 -0.06635667
 -0.06643765 -0.06652042 -0.06660461 -0.06668869 -0.0667718 -0.06685053 -0.06692431 -0.06699001 -0.0670483 -0.06709826
 -0.06714226 -0.06718241 -0.06722046 -0.06725851 -0.06729669 -0.0673354 -0.06737506 -0.06741532 -0.0674592 -0.0675071
 -0.06756245 -0.06762612 -0.06769728 -0.06777627 -0.06785573 -0.06793525 -0.06800485 -0.06806468 -0.06811175 -0.06814812
 -0.06818286 -0.0682178 -0.06826482 -0.06832157 -0.06838956 -0.06846377 -0.06853668 -0.06860645 -0.06866739 -0.0687223
 -0.06877154 -0.06881746 -0.06886184 -0.06890389 -0.06894375 -0.0689804 -0.06901333 -0.06904389 -0.0690719 -0.06910133
 -0.06913247 -0.06916936 -0.06921218 -0.06926082 -0.06931496 -0.06937024 -0.06942718 -0.06948513 -0.06954697 -0.06962124
 -0.06971163 -0.06983078 -0.06997963 -0.07016583 -0.07038665 -0.07064231 -0.07092929 -0.0712444 -0.07158772 -0.07195709
 -0.07235871 -0.07279376 -0.07326923 -0.0737881 -0.07434785 -0.07495032 -0.07557727 -0.07622796 -0.07687695 -0.07752281
 -0.07814112 -0.07872935 -0.07925452 -0.07970955 -0.08004007 -0.08023818 -0.08024602 -0.08006729 -0.07966959 -0.07909173
 -0.07836448 -0.0775618 -0.07677279 -0.07605065 -0.07546619 -0.07502939 -0.07476456 -0.07466223 -0.07472827 -0.07493436
 -0.07528514 -0.07570062 -0.07617657 -0.07659475 -0.07694225 -0.077172 -0.07728164 -0.07731386 -0.07727101 -0.07719254
 -0.07707769 -0.07694009 -0.07678179 -0.0766158 -0.07644705 -0.07629392 -0.07615729 -0.07604991 -0.07596117 -0.07588791
 -0.07580993 -0.07571116 -0.07557841 -0.07539631 -0.07517672 -0.07491662 -0.07464531 -0.07436857 -0.07410966 -0.07387356
 -0.07366834 -0.07349568 -0.0733517 -0.0732362 -0.07313669 -0.07305229 -0.0729686 -0.07288622 -0.07280019 -0.07271323
 -0.07263215 -0.07255869 -0.07250153 -0.07245777 -0.07242775 -0.07240552 -0.07238427 -0.07236124 -0.0723309 -0.07229688
 -0.07225934 -0.07222272 -0.07218943 -0.07215866 -0.07213089 -0.0721034 -0.07207534 -0.07204899 -0.07202432 -0.07200593
 -0.07199403 -0.07198846 -0.07198896 -0.07199173 -0.07199695 -0.0720036 -0.07201241 -0.07202585 -0.07204353 -0.07206634
 -0.07209214 -0.07211781 -0.07214194 -0.07216114 -0.07217675 -0.07218825 -0.07219876 -0.07220984 -0.07222331 -0.07224051
 -0.07226065 -0.07228408 -0.07230826 -0.07233316 -0.07235438 -0.07237165 -0.0723798 -0.07237854 -0.07236733 -0.07234669
 -0.07232333 -0.07229771 -0.0722766 -0.07225875 -0.07224318 -0.07222863 -0.07221055 -0.07219125 -0.07217177 -0.07215621
 -0.07215053 -0.07215443 -0.07217148 -0.07219418 -0.07222041 -0.07224105 -0.07225142 -0.07225011 -0.07223451 -0.07221336
 -0.07218727 -0.07216633 -0.07215194 -0.07214538 -0.0721468 -0.07214918 -0.07215226 -0.07215057 -0.07214478 -0.07213584
 -0.07212482 -0.07211599 -0.07210994 -0.07211041 -0.07211696 -0.07213118 -0.07215056 -0.07217331 -0.0721961 -0.07221525
 -0.07223038 -0.07223967 -0.07224607 -0.07225042 -0.07225447 -0.0722592 -0.07226337 -0.072267 -0.07226847 -0.07226757
 -0.07226386 -0.07225733 -0.07224823 -0.07223676 -0.07222533 -0.07221437 -0.07220792 -0.07220584 -0.07221001 -0.07221932
 -0.07223196 -0.07224722 -0.07226281 -0.07227937 -0.07229678 -0.07231569 -0.07233696 -0.07235972 -0.07238419 -0.07240783
 -0.07242978 -0.072448 -0.07246142 -0.0724711 -0.07247671 -0.07248203 -0.07248738 -0.07249562 -0.07250692 -0.07252087
 -0.07253732 -0.07255393 -0.07257079 -0.07258704 -0.07260323 -0.07262094 -0.0726402 -0.07266258 -0.07268602 -0.07270811
 -0.07272606 -0.0727349 -0.07273546 -0.07272533 -0.0727108 -0.07269448 -0.07268176 -0.07267636 -0.0726762 -0.07268204
 -0.07268803 -0.07269294 -0.07269579 -0.07269607 -0.07269804 -0.07270194 -0.07270953 -0.07272052 -0.0727307 -0.07273983
 -0.07274372 -0.07274365 -0.07274181 -0.0727401 -0.07274476 -0.07275544 -0.0727751 -0.07280082 -0.07283041 -0.07286135
 -0.07289049 -0.07291786 -0.07294249 -0.07296535 -0.0729866 -0.07300709 -0.07302713 -0.07304693 -0.07306679 -0.07308497
 -0.07310145 -0.07311316 -0.07311991 -0.07312229 -0.07312068 -0.07312093 -0.07312328 -0.07313262 -0.07314791 -0.07316793
 -0.07319134 -0.07321402 -0.07323581 -0.07325447 -0.07327062 -0.07328418 -0.0732955 -0.07330452 -0.0733127 -0.07332015
 -0.07333062 -0.07334547 -0.07336765 -0.07339905 -0.07343636 -0.07348005 -0.0735212 -0.07355881 -0.07358753 -0.07360689
 -0.07362143 -0.07363159 -0.07364543 -0.07366247 -0.07368384 -0.07370807 -0.07372957 -0.07374843 -0.07376138 -0.07377073
 -0.07377903 -0.07378805 -0.07380139 -0.07381842 -0.07383976 -0.07386465 -0.07389221 -0.07392414 -0.07396071 -0.07400417
 -0.07405597 -0.07411332 -0.07417681 -0.07423761 -0.07429499 -0.07434056 -0.07437368 -0.07439391 -0.07440172 -0.0744044
 -0.07440285 -0.07440661 -0.07441576 -0.07443628 -0.07446641 -0.07450528 -0.07454966 -0.07459316 -0.0746346 -0.07466898
 -0.07469954 -0.07472692 -0.07475521 -0.07478774 -0.07482406 -0.07486558 -0.07490772 -0.0749495 -0.07498769 -0.07502139
 -0.07505023 -0.07507396 -0.07509404 -0.07511052 -0.07512521 -0.07513814 -0.07515021 -0.07516124 -0.0751706 -0.07517831
 -0.07518383 -0.07518818 -0.07519335 -0.07520114 -0.07521562 -0.07523801 -0.07527208 -0.07531629 -0.0753719 -0.07543308
 -0.07549754 -0.0755583 -0.07561142 -0.0756555 -0.0756884 -0.07571574 -0.07573812 -0.07576049 -0.07578376 -0.07580708
 -0.07583049 -0.07585192 -0.07587145 -0.07589053 -0.07590923 -0.07592946 -0.07595036 -0.07596963 -0.07598658 -0.07599764
 -0.07600432 -0.07600712 -0.07600891 -0.07601368 -0.07602258 -0.07603847 -0.07605974 -0.07608619 -0.07611648 -0.07614987
 -0.07618626 -0.0762259 -0.07626671 -0.07630903 -0.07634652 -0.07637861 -0.07639921 -0.07640776 -0.07640536 -0.07639246
 -0.07637785 -0.07636229 -0.07635572 -0.07635765 -0.07637197 -0.07639641 -0.07642736 -0.07646222 -0.07649475 -0.07652349
 -0.07654399 -0.07655612 -0.07655779 -0.07655085 -0.07653522 -0.07651478 -0.07649075 -0.0764671 -0.07644531 -0.07642684
 -0.07641216 -0.07640202 -0.07639654 -0.07639702 -0.07640363 -0.07641456 -0.07642949 -0.07644206 -0.07645203 -0.07645445
 -0.07645021 -0.07644023 -0.07642577 -0.07641067 -0.07639541 -0.07638244 -0.07637233 -0.07636654 -0.07636591 -0.07637213
 -0.07638395 -0.07640233 -0.07642153 -0.07643984 -0.07645126 -0.07645282 -0.07644619 -0.07643025 -0.07641414 -0.07639893
 -0.07638951 -0.07638647 -0.07638375 -0.07638104 -0.07637151 -0.07635599 -0.07633734 -0.07631678 -0.07630159 -0.07629079
 -0.07628557 -0.0762843 -0.07628419 -0.07628495 -0.07628529 -0.07628466 -0.07628229 -0.07627742 -0.07626887 -0.07625826
 -0.07624593 -0.07623341 -0.07622178 -0.07620867 -0.0761939 -0.07617494 -0.07615125 -0.07612402 -0.07609326 -0.07606059
 -0.07602606 -0.0759903 -0.07595383 -0.07592075 -0.07589158 -0.07587143 -0.0758587 -0.07585225 -0.0758489 -0.07584188
 -0.07583009 -0.07580834 -0.07577967 -0.07574436 -0.07570731 -0.07567212 -0.07564007 -0.07561388 -0.07558785 -0.07556093
 -0.07552818 -0.0754873 -0.0754439 -0.07539794 -0.07535917 -0.07532845 -0.07530588 -0.07529123 -0.07527731 -0.07526444
 -0.07525174 -0.07524023 -0.07523485 -0.075234 -0.07523694 -0.07523919 -0.07523159 -0.07521198 -0.0751719 -0.07511654
 -0.07504636 -0.07497051 -0.07489525 -0.0748251 -0.07476518 -0.07471005 -0.07465977 -0.07460592 -0.07454574 -0.07448145
 -0.07441211 -0.07435011 -0.07429627 -0.07425854 -0.074237 -0.07423083 -0.07423918 -0.07425632 -0.07427977 -0.0742965
 -0.07430312 -0.07428176 -0.0742348 -0.0741564 -0.07405535 -0.07394076 -0.07381967 -0.0737012 -0.07359073 -0.07349361
 -0.07341467 -0.07335905 -0.07332161 -0.07330462 -0.0732891 -0.07327264 -0.07323583 -0.07317526 -0.07308674 -0.07296931
 -0.07283354 -0.07268021 -0.07252649 -0.07237308 -0.0722339 -0.07210727 -0.07199354 -0.07188975 -0.07178698 -0.07168534
 -0.07158047 -0.07147457 -0.07136971 -0.07126506 -0.07116086 -0.07105535 -0.07094687 -0.07083642 -0.07072465 -0.07060992
 -0.07049246 -0.07036791 -0.0702348 -0.07009451 -0.06994651 -0.06979819 -0.06965008 -0.06950604 -0.06936613 -0.06922972
 -0.06909607 -0.06895959 -0.0688178 -0.06865539 -0.06847243 -0.0682587 -0.06802166 -0.06777149 -0.0675133 -0.0672603
 -0.0670087 -0.06675935 -0.06650879 -0.06625318 -0.065997 -0.06574097 -0.06549044 -0.06524822 -0.06501262 -0.06478521
 -0.06455497 -0.06432243 -0.06406123 -0.06376946 -0.06342566 -0.06302995 -0.06260138 -0.0621419 -0.0616799 -0.06120918
 -0.06071786 -0.0601953 -0.05960293 -0.05893804 -0.05817429 -0.05732066 -0.05637643 -0.05535661 -0.05427429 -0.05314289
 -0.05197814 -0.05077586 -0.04954178 -0.04825361 -0.04689895 -0.04549477 -0.04403126 -0.04259918 -0.04120878 -0.03992708
 -0.03876217 -0.03769537 -0.03672554 -0.03581956 -0.0349787 -0.03420345 -0.03349247 -0.03284455 -0.03224668 -0.03166278
 -0.03107537 -0.03042972 -0.02972313 -0.02892325 -0.02805026 -0.02711233 -0.02612606 -0.02510878 -0.02405608 -0.02297131
 -0.02184375 -0.02067057 -0.01944598 -0.01817287 -0.01682053 -0.0153921 -0.01379479 -0.01202061 -0.01002012 -0.007796387
 -0.005513876 -0.003183695 -0.0009871084 0.001099788 0.00309585 0.005029671 0.006999237 0.009010492 0.01111797 0.01332761
 0.01565362 0.01814777 0.02084256 0.02384892 0.0272513 0.03111918 0.03555317 0.04038523 0.0456239 0.05093016
 0.05622843 0.06133612 0.06620833 0.07085803 0.07527903 0.0795709 0.08374181 0.08799619 0.09235557 0.09713285
 0.1022931 0.1078887 0.113759 0.1193998 0.124794 0.1296037 0.1340351 0.1382487 0.1423922 0.1466958
 0.1511527 0.1558334 0.1606789 0.1656705 0.1707956 0.176064 0.1813844 0.1867537 0.1920101 0.1971209
 0.2020871 0.2069045 0.2116392 0.2162894 0.2206984 0.2248476 0.228486 0.2316268 0.2342064 0.2362455
 0.2377807 0.2388095 0.2393163 0.2393661 0.2390239 0.2384058 0.2376644 0.2368294 0.2359624 0.2350785
 0.2341955 0.2333342 0.2325253 0.2316795 0.2308093 0.2296791 0.2282698 0.2263002 0.2237361 0.2205874
 0.2168631 0.213043 0.2091392 0.2054737 0.2019901 0.1985649 0.19516 0.1915734 0.1878469 0.1839458
 0.1799847 0.176117 0.1724239 0.1690696 0.1660071 0.1632644 0.1607488 0.1584072 0.1562402 0.1542217
 0.1524411 0.1509197 0.1496832 0.1487464 0.1480376 0.1475528 0.1472274 0.1470587 0.1470372 0.1471639
 0.1474467 0.1478821 0.148456 0.1491629 0.1499782 0.1509014 0.1519207 0.1530368 0.1542462 0.1555487
 0.15694 0.1584298 0.1600193 0.1617297 0.1635705 0.1655594 0.167704 0.1700139 0.1724944 0.1751385
 0.1779513 0.1808763 0.1839115 0.1869685 0.1900434 0.1931007 0.196142 0.1991849 0.2022117 0.2051488
 0.2079589 0.2104653 0.2126882 0.2145702 0.2161837 0.2176187 0.2189104 0.2201368 0.2212845 0.2223654
 0.2233686 0.2242923 0.2251255 0.2258736 0.226484 0.226947 0.2272169 0.2272762 0.2271911 0.2269666
 0.2266426 0.22622 0.2256234 0.2248493 0.2238303 0.2225722 0.2210714 0.2193318 0.2173836 0.2151815
 0.2126802 0.2097397 0.2061032 0.2017511 0.1964198 0.1906029 0.1845742 0.1787039 0.1733593 0.1682648
 0.1634009 0.1585286 0.1535466 0.1485799 0.1436232 0.1388882 0.1344012 0.1301519 0.1261391 0.1222104
 0.1183644 0.1145332 0.1107342 0.1070298 0.1034265 0.09998756 0.09668614 0.0934951 0.09038649 0.08730051
 0.08423693 0.08118044 0.07811447 0.0750525 0.07187821 0.06855065 0.06492992 0.06088201 0.05669282 0.05234185
 0.04845562 0.0451717 0.04248129 0.04041714 0.03853567 0.036816 0.03499173 0.03307425 0.03110597 0.02911298
 0.02727062 0.0255624 0.02402637 0.02263089 0.02130627 0.02007758 0.01894004 0.01795909 0.01721356 0.01671583
 0.01651227 0.01655588 0.01683315 0.01731225 0.01797375 0.0188253 0.0198575 0.02112458 0.02262392 0.02447932
 0.02670341 0.02937126 0.03248474 0.03578307 0.03923626 0.04239704 0.0452746 0.047686 0.0496735 0.05128353
 0.05254484 0.05353616 0.05428952 0.05487517 0.05535046 0.05579348 0.05627176 0.05687268 0.05758843 0.05846419
 0.059373 0.06027505 0.06110192 0.06181711 0.062468 0.06305486 0.06363595 0.0642176 0.0648227 0.06545254
 0.06609792 0.06675762 0.06741287 0.06806572 0.06871488 0.0693699 0.07006084 0.07079951 0.07163057 0.07255262
 0.07358365 0.07471673 0.0759442 0.07728176 0.07873677 0.08032843 0.08207754 0.08396003 0.08598045 0.08807807
 0.09023843 0.09242546 0.09462839 0.09685766 0.09911488 0.1013898 0.1036817 0.1058767 0.1079655 0.1097942
 0.1113653 0.1126147 0.1135515 0.1141789 0.1144893 0.1144692 0.1141023 0.1133499 0.1122201 0.1106957
 0.1088221 0.1066232 0.1041504 0.1014397 0.09850942 0.09537376 0.09203565 0.08848365 0.08479958 0.08097818
 0.07721598 0.07353035 0.07007204 0.06684988 0.06384031 0.06103624 0.05833523 0.05573978 0.05320937 0.05076086
 0.0484365 0.04623963 0.04420792 0.04231477 0.04053912 0.03884336 0.03717746 0.03551691 0.03382223 0.03209897
 0.03033189 0.02856167 0.0267956 0.02508279 0.02343954 0.02187923 0.02041038 0.01900272 0.0176546 0.01633408
 0.0150393 0.01378634 0.01257951 0.01148157 0.01049474 0.009667137 0.008990272 0.008459877 0.008066031 0.007782579
 0.007605829 0.007519521 0.007519664 0.007599066 0.007744986 0.007949702 0.008189731 0.008454561 0.008713976 0.008956932
 0.009155017 0.00930013 0.009370971 0.009362708 0.009265124 0.009075684 0.008804047 0.008450583 0.008042179 0.007580177
 0.007087541 0.006565636 0.006031242 0.005490783 0.004974187 0.004491604 0.004084093 0.003752583 0.003520521 0.003374794
 0.003310591 0.003312714 0.003367353 0.00346578 0.003600412 0.003764587 0.003955841 0.004163688 0.004386672 0.004609457
 0.004830486 0.005030992 0.005209197 0.005349182 0.00544991 0.005507288 0.005521921 0.00550141 0.00544716 0.005371353
 0.005275081 0.005169311 0.005053131 0.004930821 0.004798536 0.00465147 0.004487484 0.004300256 0.00409507 0.003872724
 0.003642308 0.003408947 0.00317871 0.002954313 0.002741769 0.002541717 0.002365399 0.002214451 0.002098822 0.002020124
 0.001978469 0.001973998 0.001998814 0.00205261 0.002129045 0.00222894 0.002353672 0.002505429 0.002692966 0.002917949
 0.003189273 0.003506327 0.003872469 0.004285443 0.004743985 0.005245995 0.005789603 0.006372728 0.006993771 0.007651443
 0.008344928 0.009073697 0.009838471 0.0106338 0.01146067 0.01230182 0.01315659 0.01399938 0.01482868 0.01562244
 0.01638003 0.01708916 0.01774991 0.01835693 0.01890991 0.01940525 0.01984129 0.02021265 0.02051656 0.02074641
 0.02089892 0.02096808 0.02095074 0.02084231 0.0206415 0.02034514 0.01995756 0.0194782 0.0189173 0.01827663
 0.01756725 0.01679073 0.01595783 0.01506916 0.01413998 0.01317115 0.01218246 0.0111748 0.01016464 0.009151836
 0.008143947 0.007139691 0.006138698 0.005138969 0.004135411 0.00312657 0.002106879 0.001077895 3.823845E-05 -0.001007113
 -0.00205559 -0.003099919 -0.004136237 -0.005156437 -0.006156772 -0.00713132 -0.008077081 -0.008995118 -0.00988456 -0.01075183
 -0.0115978 -0.01242397 -0.01323064 -0.01400725 -0.01475273 -0.01544866 -0.01609424 -0.0166747 -0.01719096 -0.01763856
 -0.01801917 -0.01833519 -0.01858657 -0.01877509 -0.0188981 -0.01895382 -0.01893783 -0.018847 -0.01867461 -0.01841654
 -0.01806654 -0.01762 -0.01707882 -0.01644072 -0.01571858 -0.01491314 -0.01404201 -0.01310641 -0.01212674 -0.01110408
 -0.01006798 -0.009020327 -0.007995546 -0.00699395 -0.006036243 -0.005118074 -0.004235426 -0.003379875 -0.002528849 -0.001674192
 -0.0007899828 0.0001242515 0.001083317 0.002072905 0.003089811 0.004109101 0.0051171 0.00609136 0.007020199 0.007889776
 0.008694119 0.009426709 0.01008437 0.01067213 0.01118881 0.01165518 0.01207216 0.01247181 0.0128562 0.01326173
 0.01369067 0.0141769 0.01472081 0.01534322 0.01604062 0.01681506 0.01766143 0.01857183 0.01954209 0.02056478
 0.02163496 0.02274734 0.02389453 0.02507236 0.02627068 0.0274863 0.02870517 0.02992357 0.03112879 0.03231711
 0.03348744 0.03463877 0.03577799 0.03690566 0.03801851 0.03911554 0.04017798 0.0412039 0.04217067 0.04307744
 0.04390729 0.04466337 0.04534217 0.04595483 0.04651745 0.04704511 0.04756372 0.04808104 0.04861374 0.04916025
 0.04972472 0.05030201 0.0508914 0.05148678 0.05208502 0.05268864 0.05329429 0.05392838 0.05459189 0.05532387
 0.05612722 0.05701909 0.05799845 0.05904414 0.06015046 0.06126915 0.06239097 0.06345485 0.06445026 0.06531908
 0.06605392 0.06661487 0.06699925 0.06718717 0.06718104 0.06697246 0.06657781 0.06599721 0.0652703 0.06440595
 0.06346276 0.06245334 0.06144322 0.06044401 0.05951297 0.05865852 0.05790988 0.05727008 0.05673452 0.05630225
 0.05595358 0.05568646 0.05547928 0.05532654 0.05519644 0.05507885 0.0549304 0.05474422 0.05448584 0.05415823
 0.05374887 0.05327013 0.05272579 0.05213544 0.05151036 0.05086948 0.05022469 0.04958067 0.04894288 0.0483019
 0.04765693 0.04699956 0.04632848 0.04564106 0.04493705 0.04421433 0.0434729 0.04271301 0.0419352 0.04114425
 0.04033966 0.03952255 0.03869043 0.0378379 0.03696101 0.03605176 0.03510241 0.03410145 0.03303846 0.0318991
 0.0306807 0.02937558 0.02799135 0.02652954 0.0249959 0.02339212 0.02172244 0.01998523 0.01820095 0.01636951
 0.01453083 0.01268728 0.01087932 0.009108562 0.00740093 0.005756356 0.004186267 0.002690168 0.001271645 -6.851442E-05
 -0.001326095 -0.00250064 -0.003586876 -0.004591448 -0.005517519 -0.006380906 -0.00719534 -0.007977244 -0.008739959 -0.009495459
 -0.01025054 -0.01101708 -0.01179963 -0.01260612 -0.01344054 -0.01429507 -0.0151706 -0.01604586 -0.0169196 -0.0177704
 -0.01859721 -0.01938263 -0.02012592 -0.0208129 -0.02144394 -0.02201253 -0.02252057 -0.02296942 -0.02336202 -0.02370316
 -0.02399868 -0.02425577 -0.02448589 -0.02469984 -0.02491232 -0.02513428 -0.02537929 -0.02565574 -0.02597115 -0.02633103
 -0.02673024 -0.02717044 -0.0276345 -0.02812086 -0.02861396 -0.02911248 -0.02960999 -0.03010604 -0.03059346 -0.03107102
 -0.03152537 -0.03195555 -0.03235013 -0.0327092 -0.0330273 -0.03330451 -0.03353801 -0.03372914 -0.03387758 -0.03398753
 -0.03406259 -0.03410647 -0.03412285 -0.03411273 -0.0340768 -0.03401763 -0.03393493 -0.03383617 -0.03372201 -0.03360266
 -0.03347948 -0.03335922 -0.03324279 -0.03312575 -0.03300753 -0.03287356 -0.03272355 -0.03254781 -0.03234895 -0.03213333
 -0.03190449 -0.03167603 -0.03144964 -0.03123418 -0.03103194 -0.03084883 -0.03068844 -0.03055714 -0.0304539 -0.03038095
 -0.03033283 -0.0303068 -0.03030234 -0.03031821 -0.03035778 -0.03042332 -0.03050613 -0.03060758 -0.03069884 -0.0307784
 -0.03081108 -0.03079542 -0.03070914 -0.03055334 -0.03032663 -0.03003291 -0.02968782 -0.02929677 -0.02888311 -0.02845095
 -0.02802029 -0.02759022 -0.02716874 -0.02675055 -0.02633259 -0.02591305 -0.02548751 -0.02506385 -0.02464371 -0.02423646
 -0.02384613 -0.02347421 -0.02312182 -0.02278775 -0.02247175 -0.02217585 -0.02190047 -0.02164024 -0.0213945 -0.02114472
 -0.02089041 -0.02061798 -0.02033037 -0.02003428 -0.01973241 -0.01943803 -0.01914765 -0.01886129 -0.01857315 -0.01827308
 -0.01796323 -0.01763943 -0.0173131 -0.01698994 -0.01668058 -0.01639256 -0.01612633 -0.01588476 -0.0156603 -0.01545199
 -0.01525312 -0.01506229 -0.01487956 -0.01470466 -0.01454241 -0.01439294 -0.01425702 -0.01413332 -0.01401064 -0.01388657
 -0.01374316 -0.01358041 -0.01338786 -0.01316953 -0.01292819 -0.01266849 -0.01239843 -0.0121201 -0.01183945 -0.01155365
 -0.0112642 -0.01096243 -0.01064393 -0.01030579 -0.009942167 -0.009572198 -0.009196989 -0.008844238 -0.008520082 -0.008220468
 -0.007946935 -0.007661189 -0.007361613 -0.007023115 -0.006648114 -0.006249445 -0.005830153 -0.005412207 -0.004994767 -0.004585581
 -0.004184964 -0.00379634 -0.00342245 -0.003069847 -0.00273679 -0.002425432 -0.002128885 -0.001843686 -0.001562893 -0.001282305
 -0.0009983968 -0.0007083683 -0.0004148077 -0.0001170381 0.0001774497 0.0004674688 0.000750257 0.001025223 0.001297325 0.00156677
 0.00183693 0.002107621 0.002377999 0.002648335 0.002919266 0.003191841 0.003468935 0.003752918 0.004049663 0.00436188
 0.004698941 0.005053442 0.005427246 0.00579494 0.006141011 0.00644301 0.006680884 0.006865604 0.006991061 0.007095938
 0.00718603 0.007297538 0.007436481 0.007622149 0.007857183 0.008141683 0.008475211 0.008833894 0.009214748 0.00957918
 0.009925887 0.01022618 0.0104848 0.01069896 0.01087928 0.01104591 0.01120842 0.01139176 0.01159361 0.01182237
 0.01206833 0.01232374 0.01259372 0.01287592 0.01318721 0.01353617 0.01391697 0.01433343 0.01475599 0.01518045
 0.01559189 0.01598818 0.01637303 0.01674643 0.01710336 0.01744423 0.01776815 0.01808097 0.01841235 0.01876706
 0.01917913 0.01964147 0.02015632 0.02071323 0.021296 0.02190257 0.02252505 0.02316336 0.02381863 0.02447918
 0.02514531 0.02578612 0.02639505 0.02693385 0.02738955 0.0277588 0.02803372 0.02826842 0.0284655 0.0286906
 0.02894674 0.02926333 0.02963968 0.03008053 0.03058334 0.0311415 0.03174624 0.03236805 0.03299559 0.0335887
 0.03414515 0.03464554 0.03508821 0.03546812 0.03577351 0.03599191 0.03612494 0.03616226 0.03613938 0.03606289
 0.03597324 0.03588171 0.0358056 0.03574854 0.03572123 0.03572442 0.03577421 0.03587133 0.03602197 0.03622498
 0.0364713 0.03675799 0.03706581 0.03739095 0.03770863 0.03802238 0.03832496 0.03862844 0.03895125 0.03929273
 0.03966122 0.04004692 0.04043683 0.0408533 0.0412994 0.04181253 0.04242557 0.04306801 0.04374154 0.04431273
 0.04475032 0.04507622 0.04528607 0.04547331 0.04564202 0.04581846 0.04599859 0.04614554 0.04625602 0.04629162
 0.04625763 0.04614935 0.0459777 0.04576385 0.04551677 0.04526243 0.04499611 0.04472372 0.04443496 0.04411826
 0.04378668 0.04343943 0.04310506 0.0427959 0.04251751 0.04227507 0.0420577 0.04186338 0.04169457 0.04155181
 0.0414309 0.04133134 0.04121692 0.04108554 0.04090047 0.04066394 0.04036902 0.04001969 0.03962377 0.03918735
 0.0387238 0.03824711 0.03778593 0.03734579 0.03694842 0.03657834 0.03622741 0.03589454 0.03557128 0.03528195
 0.03503616 0.03483731 0.03469133 0.03457671 0.03449092 0.0344202 0.03436376 0.03430169 0.03423284 0.03412916
 0.03399362 0.03384886 0.03370624 0.03364427 0.03366385 0.03381686 0.03408056 0.03443401 0.03484464 0.03525165
 0.03563677 0.03594947 0.03620818 0.03640402 0.03657976 0.03676176 0.03695309 0.03717142 0.03736069 0.03750914
 0.03758426 0.03757241 0.03751729 0.03742059 0.03733561 0.03726511 0.03721229 0.03717642 0.03714785 0.03712913
 0.03713136 0.03715539 0.03721094 0.03729497 0.03740646 0.03753941 0.0376884 0.03783622 0.03796235 0.03805357
 0.03808454 0.03807984 0.03804033 0.03800766 0.03800127 0.03802714 0.03809389 0.03817819 0.03827787 0.03837406
 0.03846508 0.03853439 0.03858104 0.03859338 0.03857259 0.03853073 0.03846918 0.03840365 0.03833072 0.03824451
 0.03814634 0.0380343 0.03791587 0.03780692 0.03769935 0.03759428 0.03747093 0.03731038 0.0371102 0.03686104
 0.036577 0.03626168 0.03592315 0.03556247 0.03519292 0.03481542 0.0344508 0.03410273 0.03376086 0.03342476
 0.03305234 0.03264329 0.03218155 0.03167228 0.03113924 0.0305839 0.03002552 0.02945861 0.02887789 0.02828315
 0.02766571 0.0270438 0.02642868 0.02585307 0.02534841 0.02492689 0.02461435 0.02436993 0.02418856 0.02401807
 0.02383743 0.02365693 0.02347147 0.02332763 0.02323245 0.0231687 0.02313573</values></Ydata></AB><ScSm><Ydata ylabel="Single channel"><values byteorder="INTEL" format="FLOAT32" numvalues="1814"> 0.07361701 0.07363024 0.07370882 0.07387361 0.07409447 0.07430516 0.07444932 0.07451789 0.07453276 0.07450379
 0.07443791 0.07438849 0.07444221 0.07463086 0.074881 0.07506619 0.07510695 0.07503916 0.07499442 0.07507442
 0.07521272 0.07519104 0.074843 0.07424613 0.07367325 0.07333958 0.07326759 0.07344925 0.07398106 0.0748039
 0.07541274 0.07521985 0.07429297 0.07338689 0.07310398 0.07331808 0.07352912 0.07344272 0.07305898 0.07255726
 0.07234837 0.072965 0.07453708 0.07635765 0.07713426 0.07580242 0.07228775 0.06775507 0.06418113 0.06329054
 0.06533641 0.06875521 0.07134099 0.07200466 0.07129443 0.07027893 0.06940016 0.06860825 0.06810254 0.0683773
 0.06953762 0.07083252 0.0710402 0.06951405 0.06695301 0.06490522 0.06435467 0.06510521 0.06660852 0.06856076
 0.07006068 0.06913631 0.06468745 0.05893286 0.05641443 0.05967898 0.06656322 0.07231303 0.07381159 0.07131883
 0.06708669 0.06349368 0.06215569 0.06349045 0.06663292 0.07015206 0.07292169 0.0741822 0.0733514 0.07052828
 0.06698853 0.06456691 0.06452871 0.0670732 0.07129683 0.07528074 0.0769619 0.07565508 0.07250679 0.0692852
 0.0672204 0.06701197 0.06899649 0.0727936 0.07728687 0.08127487 0.08396255 0.08503722 0.08473118 0.0836758
 0.08242249 0.08135231 0.08101051 0.0817686 0.08294058 0.08304676 0.08142573 0.07911841 0.07779483 0.07802623
 0.07883149 0.07887185 0.07780701 0.07606876 0.07353091 0.0694872 0.06426769 0.05966849 0.05715398 0.05674212
 0.0580739 0.06098246 0.06423476 0.06546007 0.06374672 0.06129549 0.06123378 0.06427652 0.06835975 0.07115921
 0.07224023 0.07288904 0.0744566 0.0769798 0.07901032 0.07870635 0.0756603 0.07192834 0.07057701 0.07267222
 0.07625365 0.07874297 0.0796587 0.08033587 0.08159263 0.08246782 0.08122618 0.07742395 0.07302329 0.07118157
 0.07349765 0.0784061 0.08231379 0.08226405 0.077927 0.07166322 0.0666829 0.06482829 0.0660795 0.06977473
 0.07533254 0.08162446 0.08668113 0.08879195 0.0877533 0.08476575 0.08106813 0.07680213 0.0716617 0.06677358
 0.06491955 0.06790267 0.07423376 0.08037283 0.08388597 0.08465293 0.08348541 0.08062689 0.07598048 0.07054016
 0.0668513 0.06703396 0.07023077 0.0730992 0.07331184 0.07167179 0.07038293 0.0703004 0.07062789 0.07060911
 0.07059948 0.07144968 0.07328627 0.07519984 0.07612633 0.07581414 0.07485916 0.07400965 0.07349318 0.07286181
 0.07162679 0.07023387 0.07001011 0.07170579 0.07445633 0.07667287 0.07763762 0.07775608 0.07749318 0.07657437
 0.07440054 0.07118537 0.06841199 0.06772837 0.0693493 0.07192761 0.07395718 0.07485208 0.0747906 0.07416839
 0.07333635 0.07248783 0.07171357 0.07124136 0.07137754 0.07206272 0.07278061 0.07307574 0.07292023 0.07248105
 0.07180267 0.07087331 0.0698476 0.06904741 0.06873088 0.06889404 0.06931637 0.06975785 0.07004137 0.07001121
 0.06959163 0.06891017 0.06821902 0.06766649 0.06725173 0.0669819 0.06692286 0.06706588 0.06726065 0.06733721
 0.06724101 0.06701904 0.06672239 0.06636526 0.06596093 0.06556255 0.0652577 0.06510837 0.06508164 0.06506941
 0.06501108 0.06495385 0.06493866 0.06488412 0.06467049 0.06430574 0.06392553 0.06364626 0.06347893 0.06336737
 0.063246 0.06304981 0.06271823 0.06224879 0.06175848 0.06143768 0.06139848 0.06159286 0.06189005 0.06217309
 0.06234863 0.06235695 0.06222232 0.06203109 0.06182886 0.06158731 0.06128521 0.06097859 0.06077731 0.06076087
 0.06090658 0.06109969 0.06122695 0.06124901 0.06118646 0.06108564 0.0610068 0.06098251 0.06096676 0.06087763
 0.06070399 0.06052678 0.06042751 0.06040615 0.0603915 0.06031801 0.06019452 0.06009417 0.06007016 0.0600988
 0.06011866 0.06010208 0.06006819 0.06003854 0.05999594 0.05989431 0.05971675 0.05951292 0.05935393 0.05925751
 0.05918995 0.05913302 0.05910736 0.0591251 0.05915245 0.05913657 0.05905968 0.05895389 0.05885746 0.05876577
 0.0586422 0.05847393 0.05829325 0.05814037 0.05802544 0.0579308 0.05783359 0.05772019 0.05758838 0.05744139
 0.05728076 0.05710483 0.05691256 0.05671037 0.05652034 0.05637544 0.05629164 0.05624332 0.05617778 0.0560592
 0.05589739 0.05573482 0.05560758 0.05551732 0.0554414 0.0553661 0.05530028 0.05525798 0.05524223 0.05524903
 0.05527451 0.05531526 0.05537584 0.05547953 0.05565435 0.05589583 0.0561545 0.05637655 0.05655428 0.05672401
 0.05691792 0.05713305 0.05734642 0.05754636 0.05774657 0.05797415 0.05823755 0.05850385 0.05872445 0.05888934
 0.0590392 0.05921922 0.05944254 0.05969799 0.05996294 0.06020182 0.06038465 0.06052235 0.06066184 0.06083483
 0.06102976 0.06122172 0.06140887 0.06160621 0.06182 0.06204666 0.06229069 0.06256635 0.06287929 0.06321247
 0.06353185 0.06380809 0.06404315 0.06427901 0.06457003 0.06493663 0.06534723 0.06574737 0.06610492 0.06642976
 0.06675352 0.06709244 0.06743681 0.06778114 0.06814989 0.06857276 0.06904116 0.0695128 0.06995888 0.07038651
 0.07081442 0.07124733 0.07168043 0.07211567 0.07256326 0.07302828 0.07349889 0.07395111 0.07436805 0.07475375
 0.07512861 0.07551613 0.07593109 0.07636508 0.07677966 0.07713389 0.07743374 0.07773812 0.07809576 0.07848771
 0.0788561 0.07918221 0.07950498 0.07986096 0.08023664 0.08059426 0.08092284 0.08124453 0.08158097 0.08192678
 0.08225083 0.08251895 0.08272437 0.08289935 0.08308907 0.08331749 0.08358843 0.08390674 0.08427081 0.08464769
 0.08498398 0.08524801 0.08544729 0.08561122 0.08577538 0.08597314 0.08621827 0.08649437 0.08677073 0.0870214
 0.08723025 0.08740304 0.08758275 0.08782555 0.08814688 0.08851276 0.08889277 0.08929227 0.08971861 0.09014714
 0.0905529 0.09095903 0.09141442 0.09191956 0.09240589 0.09280291 0.0931019 0.09334065 0.09355742 0.09378763
 0.09407831 0.09446205 0.09491818 0.09538756 0.09582615 0.09622756 0.09660019 0.09694201 0.09723981 0.09748156
 0.0976674 0.09781376 0.09794984 0.09810922 0.09831773 0.09857599 0.0988481 0.09907662 0.09921637 0.09924827
 0.09916317 0.09895355 0.0986364 0.09826424 0.09788239 0.09747466 0.09697247 0.09632026 0.09551367 0.09457344
 0.0935096 0.09233025 0.09107617 0.08983214 0.08870246 0.08777693 0.08711848 0.08677562 0.08678886 0.08716106
 0.08781546 0.08859606 0.08931775 0.08981253 0.08994561 0.08963348 0.08887783 0.08777173 0.08645342 0.08505143
 0.08366364 0.08235364 0.08114862 0.08006304 0.07915279 0.07854529 0.07840712 0.07888472 0.080066 0.08195449
 0.0844359 0.08726757 0.09013885 0.09278578 0.09507945 0.09702674 0.09870686 0.1002098 0.1016057 0.1029272
 0.1041654 0.1052953 0.106311 0.1072271 0.1080502 0.1087641 0.1093419 0.10976 0.1100087 0.1101082
 0.1101137 0.1100942 0.1101079 0.1101913 0.110345 0.110508 0.1105604 0.110373 0.1098652 0.1090361
 0.1079748 0.1068776 0.1060639 0.1059396 0.106863 0.1089517 0.1119695 0.1154149 0.1187605 0.1216554
 0.1239764 0.1257635 0.1271343 0.1282209 0.1291326 0.1299433 0.1306955 0.1314081 0.1320851 0.1327285
 0.1333439 0.1339388 0.1345206 0.1350958 0.1356624 0.1362066 0.1367161 0.1372004 0.1376901 0.1382095
 0.1387514 0.1392857 0.1397963 0.140298 0.1408094 0.1413196 0.1417993 0.1422376 0.1426532 0.1430739
 0.1435183 0.1439902 0.144472 0.1449295 0.1453372 0.145703 0.1460576 0.1464244 0.1468054 0.1471904
 0.1475719 0.1479481 0.1483199 0.1486928 0.1490774 0.1494779 0.1498782 0.1502483 0.150574 0.1508734
 0.1511786 0.1515047 0.1518433 0.1521807 0.1525171 0.1528681 0.1532488 0.1536575 0.1540713 0.15446
 0.1548087 0.1551294 0.1554493 0.1557871 0.1561421 0.1565033 0.156862 0.157213 0.1575533 0.1578849
 0.1582134 0.1585433 0.1588763 0.1592144 0.1595598 0.1599104 0.1602586 0.1605961 0.1609222 0.1612479
 0.1615901 0.1619546 0.1623257 0.1626772 0.1629937 0.1632786 0.1635451 0.1638074 0.1640789 0.164371
 0.1646885 0.1650267 0.1653751 0.1657244 0.1660703 0.1664117 0.1667498 0.1670866 0.1674226 0.1677559
 0.1680868 0.1684207 0.1687626 0.169109 0.1694494 0.1697777 0.1700971 0.1704156 0.1707395 0.1710674
 0.171389 0.1716932 0.1719801 0.1722627 0.1725546 0.1728615 0.1731803 0.1735039 0.1738251 0.1741422
 0.1744604 0.1747858 0.1751179 0.1754481 0.1757663 0.1760698 0.1763664 0.1766651 0.1769691 0.1772772
 0.1775883 0.1779009 0.1782136 0.1785274 0.1788452 0.1791672 0.1794901 0.1798099 0.1801237 0.1804315
 0.1807367 0.1810395 0.1813361 0.1816275 0.1819226 0.1822267 0.1825346 0.1828411 0.183149 0.1834625
 0.1837801 0.1840974 0.1844112 0.1847213 0.18503 0.1853391 0.1856487 0.1859605 0.1862793 0.1866056
 0.1869331 0.1872552 0.1875708 0.187882 0.1881891 0.1884887 0.1887759 0.1890533 0.189333 0.1896242
 0.189924 0.1902249 0.1905242 0.1908231 0.1911248 0.1914338 0.1917512 0.1920712 0.1923874 0.1926961
 0.1929949 0.1932884 0.1935893 0.1939045 0.194225 0.1945402 0.1948509 0.1951629 0.1954788 0.195798
 0.1961165 0.1964297 0.196741 0.1970577 0.1973778 0.197693 0.1979988 0.1982934 0.1985763 0.1988574
 0.199151 0.199458 0.1997685 0.2000782 0.2003863 0.2006893 0.2009898 0.2012956 0.2016051 0.2019085
 0.2022031 0.202491 0.2027735 0.2030579 0.2033547 0.2036634 0.2039767 0.2042917 0.2046025 0.2048996
 0.2051889 0.2054866 0.2057939 0.2061011 0.2064056 0.2067049 0.2069909 0.2072642 0.2075307 0.2077764
 0.2079518 0.2079297 0.2073872 0.2056799 0.2018311 0.1947308 0.1835765 0.1683757 0.1501198 0.1304339
 0.1109792 0.09302221 0.07731159 0.06417526 0.05368509 0.04576465 0.04025503 0.0370219 0.03606718 0.03764571
 0.042395 0.05095781 0.06255155 0.07370074 0.07958835 0.0778577 0.0708677 0.06354497 0.0592926 0.05834801
 0.05925161 0.06075553 0.06246502 0.06461452 0.06760435 0.07154635 0.07624125 0.08166633 0.08821907 0.09620443
 0.1052126 0.1142887 0.1227593 0.13076 0.1389107 0.1475621 0.1564263 0.1648617 0.1723839 0.1788996
 0.1846045 0.189768 0.194586 0.1991544 0.2035129 0.2076462 0.2114056 0.2144772 0.2165275 0.2174545
 0.2175142 0.217184 0.2168813 0.216795 0.216936 0.2172688 0.2177705 0.2184213 0.2191995 0.2200807
 0.2210295 0.2220028 0.2229676 0.2239031 0.2247915 0.2256201 0.2263868 0.2270965 0.2277551 0.2283663
 0.2289276 0.2294353 0.2298973 0.2303327 0.2307549 0.2311656 0.2315645 0.2319493 0.23231 0.2326356
 0.2329255 0.2331902 0.2334439 0.2336998 0.233963 0.2342278 0.2344859 0.2347351 0.2349774 0.2352163
 0.2354571 0.2357027 0.2359501 0.2361962 0.2364428 0.2366894 0.236929 0.2371575 0.2373812 0.2376097
 0.2378488 0.2381007 0.2383616 0.2386188 0.2388598 0.2390848 0.2393068 0.2395404 0.2397896 0.2400438
 0.2402924 0.2405402 0.2408002 0.2410724 0.2413442 0.2416079 0.2418656 0.2421201 0.2423743 0.24263
 0.2428778 0.2431002 0.2432941 0.2434827 0.2436997 0.2439643 0.2442645 0.2445643 0.2448356 0.2450812
 0.2453202 0.2455623 0.2458043 0.2460393 0.2462662 0.2465024 0.2467762 0.2470891 0.247407 0.2477036
 0.2479883 0.2482809 0.2485883 0.2489098 0.249229 0.2495055 0.2497105 0.2498766 0.2500886 0.2504179
 0.2508594 0.2513279 0.2517298 0.2520451 0.2523242 0.2526242 0.2529698 0.2533321 0.2536058 0.2536806
 0.2536117 0.2536475 0.2540036 0.2546488 0.255367 0.255976 0.2564382 0.256811 0.2571514 0.2574568
 0.257669 0.2577432 0.2577367 0.2578263 0.2581821 0.2587931 0.2594622 0.2600081 0.2604074 0.2607211
 0.2609912 0.2612359 0.2614084 0.2613369 0.2609055 0.2603692 0.2602805 0.2609554 0.262119 0.2632
 0.2638916 0.2643038 0.2646469 0.2649753 0.265245 0.2653555 0.2650246 0.2639548 0.2624137 0.26139
 0.261773 0.2634528 0.2654956 0.2670788 0.2680101 0.2685091 0.2688379 0.2691256 0.2692701 0.2689559
 0.2680041 0.2668236 0.2662992 0.2669789 0.2684638 0.2698376 0.2705986 0.2709215 0.2711695 0.2714866
 0.2717017 0.2712806 0.2696274 0.2669653 0.2647861 0.2648022 0.2672675 0.2706688 0.2732261 0.2744234
 0.2748649 0.2749643 0.2743398 0.2725041 0.2695989 0.2663374 0.2637762 0.2631618 0.265109 0.2685764
 0.2714529 0.2726358 0.2729633 0.2738279 0.2755083 0.277178 0.2779853 0.2777156 0.2766363 0.2750219
 0.273024 0.2711154 0.2703605 0.2716596 0.274652 0.2778436 0.2799925 0.28105 0.2815047 0.2809365
 0.2777349 0.2710394 0.2631627 0.2589497 0.2614988 0.2689143 0.2763416 0.2807417 0.2825452 0.2833664
 0.2838483 0.283489 0.2809242 0.2746729 0.2654703 0.2577294 0.2565499 0.2626716 0.2716351 0.277945
 0.2788213 0.2744907 0.2671803 0.2604489 0.2577428 0.260307 0.2666383 0.2739721 0.2799441 0.283226
 0.2835086 0.281384 0.2782999 0.2761996 0.2761213 0.2766626 0.2750366 0.2705904 0.2658944 0.2629666
 0.2601476 0.2551747 0.2501446 0.2501117 0.2565132 0.2647694 0.2694295 0.2696871 0.2683998 0.2668945
 0.2627075 0.2531419 0.2403746 0.2315296 0.2324295 0.2415559 0.2514033 0.255797 0.2547752 0.2524083
 0.2513369 0.2501014 0.2452832 0.2360235 0.2262323 0.2213304 0.222563 0.2259303 0.2269499 0.2242663
 0.2181096 0.2088008 0.1992307 0.1957848 0.2029046 0.2175716 0.2316708 0.2386661 0.2359837 0.2235419
 0.2045569 0.1872879 0.1810056 0.1877561 0.1999259 0.2072708 0.2050451 0.194808 0.1799817 0.1634615
 0.1489158 0.1412018 0.1433889 0.1535958 0.1653259 0.1708865 0.16564 0.1514602 0.1366753 0.1300801
 0.1331266 0.139108 0.140696 0.1365314 0.1301126 0.1251254 0.1232473 0.124126 0.1258595 0.1266986
 0.1264377 0.1246407 0.1187831 0.1074413 0.09467654 0.08739045 0.08809973 0.09365582 0.100921 0.109483
 0.1179208 0.1219471 0.1193317 0.1143463 0.1141701 0.1212843 0.1312862 0.1381148 0.1399774 0.1396945
 0.1402488 0.1414507 0.1416203 0.1414057 0.1438294 0.150168 0.1577275 0.1628535 0.1647296 0.1650206
 0.1650786 0.1649475 0.1642986 0.163021 0.1611739 0.1590819 0.1572136 0.1556376 0.1539657 0.1519189
 0.1493112 0.1452818 0.1385254 0.1292632 0.1204214 0.1153737 0.1144475 0.1151497 0.1158011 0.1165239
 0.1159676 0.110365 0.0985402 0.08595487 0.08068894 0.08565056 0.09648684 0.1065603 0.1119849 0.1118822
 0.1064024 0.09701431 0.08832182 0.08663388 0.09478699 0.1094271 0.1246407 0.1369969 0.1457962 0.1502865
 0.149364 0.1439216 0.1376962 0.1351811 0.1389774 0.1486039 0.1604909 0.1687148 0.1678995 0.1586979
 0.1504307 0.1541549 0.1708194 0.1894087 0.1992994 0.2010827 0.2020283 0.2048116 0.2062732 0.2055566
 0.20726 0.2151063 0.2263861 0.2345728 0.2350104 0.2267352 0.2118263 0.1957797 0.186081 0.186352
 0.1924762 0.1972639 0.1974868 0.1934421 0.1846837 0.1718399 0.1611816 0.1608265 0.1712927 0.1843607
 0.1924299 0.1954446 0.1974944 0.1997456 0.199056 0.1927809 0.1831957 0.1760708 0.1749382 0.1779741
 0.1810068 0.1818939 0.1805874 0.1766834 0.1696832 0.1615951 0.1569189 0.1587876 0.1658064 0.1734248
 0.1780448 0.179292 0.1788969 0.1784846 0.178468 0.1782245 0.1772582 0.1766858 0.178995 0.1852866
 0.1933353 0.1997907 0.2039879 0.2081527 0.2139294 0.2200925 0.2240116 0.2245273 0.223093 0.2225542
 0.2248786 0.2295714 0.2340153 0.2356827 0.2345253 0.2332334 0.2347493 0.2394359 0.2450218 0.2491569
 0.2513366 0.2524148 0.2532085 0.2538248 0.2536246 0.2517494 0.2484215 0.2456991 0.2460317 0.2498332
 0.2550741 0.2593335 0.2616946 0.2626301 0.2627508 0.26213 0.2606615 0.2586669 0.2569062 0.2560053
 0.2560314 0.2566473 0.2574926 0.2583348 0.2590435 0.2595851 0.2600047 0.2603533 0.2606657 0.2609894
 0.2613483 0.2616738 0.2618655 0.2619475 0.2620807 0.2623705 0.2627172 0.2629165 0.2628435 0.2624547
 0.2616704 0.2603981 0.2586784 0.25668 0.2545089 0.2521387 0.2496324 0.2473894 0.2460365 0.245975
 0.2470277 0.2485594 0.2499314 0.2508352 0.2512802 0.251416 0.2514175 0.2514472 0.2516148 0.2519444
 0.2523985 0.2529378 0.2535491 0.254224 0.2549406 0.2556825 0.2564599 0.25729 0.2581638 0.2590457
 0.2598972 0.2606897 0.26141 0.2620643 0.2626627 0.2631878 0.2635902 0.2638201 0.2638597 0.2637299
 0.2634806 0.2631681 0.2628142 0.2623766 0.2617771 0.2609582 0.2598857 0.258512 0.2568046 0.2548385
 0.2527982 0.2508449 0.2490115 0.2472448 0.2454952 0.2437316 0.2419159 0.2400122 0.2380112 0.2359297
 0.2337995 0.2316605 0.2295522 0.227502 0.2255193 0.2235927 0.2216907 0.2197704 0.2177899 0.2157097
 0.2134821 0.2110367 0.2082782 0.2051066 0.2014401 0.1972291 0.1924786 0.1872789 0.1818076 0.1762813
 0.1708992 0.16582 0.1611648 0.1570275 0.1534822 0.1505764 0.1483206 0.1466991 0.1456973 0.1453125
 0.1455418 0.1463636 0.147709 0.1494413 0.1513778 0.1533434 0.1552088 0.156902 0.1584295 0.1598903
 0.1614348 0.1631722 0.1651056 0.1671516 0.1692112 0.1712023 0.1730371 0.1746144 0.1758705 0.1768212
 0.1775366 0.1780951 0.1785726 0.1790455 0.1795708 0.1801652 0.1808073 0.1814599 0.1821018 0.1827481
 0.1834349 0.1841861 0.1850067 0.1859013 0.1868797 0.1879452 0.1890907 0.1903105 0.1916186 0.1930516
 0.1946482 0.196427 0.1983999 0.200599 0.2030621 0.2057835 0.2086934 0.2116807 0.2146251 0.2174121
 0.2199376 0.2221147 0.2238941 0.2252909 0.2263774 0.2272437 0.2279644 0.2285905 0.2291468 0.2296321
 0.2300305 0.2303208 0.2304766 0.230475 0.2303126 0.2300035 0.2295729 0.2290652 0.2285427 0.2280606
 0.2276477 0.2273142 0.227062 0.226883 0.2267566 0.2266507 0.2265241 0.2263398 0.2260806 0.2257466
 0.2253381 0.2248438 0.2242356 0.2234764 0.2225454 0.2214581 0.2202481 0.2189341 0.217515 0.2159857
 0.2143479 0.2126128 0.2107958 0.2089067 0.2069528 0.2049497 0.2029082 0.2008165 0.1986694 0.1965167
 0.1944484 0.1925229 0.1907269 0.1889991 0.1872785 0.1855426 0.1838152 0.1821335 0.1805093 0.1789319
 0.1774007 0.1759317 0.1745398 0.1732323 0.1720218 0.1709338 0.1699893 0.1691753 0.1684393 0.1677324
 0.1670507 0.1664246 0.1658837 0.1654496 0.165142 0.1649541 0.1648332 0.164706 0.1645262 0.1642944
 0.1640457 0.1638182 0.163625 0.163452 0.1632707 0.1630378 0.1626867 0.162141 0.161335 0.1602173
 0.1587608 0.1569912 0.1549968 0.152902 0.1508342 0.1489046 0.1471958 0.1457543 0.1445871 0.1436602
 0.1429131 0.1422961 0.1417986 0.1414461 0.1412741 0.1412757 0.1413509 0.14135 0.1412168 0.1410626
 0.1410621 0.1413021 0.1417449 0.1422803 0.1427886 0.1431932 0.143483 0.143681 0.1438071 0.1438688
 0.1438522 0.1437171 0.1434329 0.1430188 0.1425302 0.1420201 0.1415156 0.1409974 0.1404071 0.139706
 0.1389081 0.1380344 0.1370762 0.1360139 0.1348258 0.133497 0.1320931 0.1308193 0.129936 0.1296011
 0.1297857 0.1303039 0.1309413 0.1315872 0.1321904 0.1325839 0.1325443 0.1321706 0.1320547 0.1328418
 0.1346018 0.1367407 0.1385222 0.1395765 0.1399195 0.1396786 0.1389469 0.1378014 0.1362844 0.1343826
 0.1321117 0.1295621 0.1268262 0.1239958 0.1212356 0.1187245 0.1165477 0.1147237 0.113259 0.1121996
 0.1116636 0.1113026 0.109395 0.1037454 0.09506039 0.08847481 0.08926376 0.09692898 0.1055238 0.1099434
 0.1100157 0.1084451 0.1071127 0.1063041 0.1059156 0.1060673 0.1068685 0.1081754 0.1096105 0.1107904
 0.1115699 0.111991 0.1120036 0.1112777 0.1091738 0.1049426 0.09832028 0.09008925 0.08182765 0.0749788
 0.0701995 0.06738819 0.0659958 0.06533809 0.06493218 0.06472339 0.06498817 0.06600371 0.06781341 0.07027051
 0.07318875 0.07633263 0.07933168 0.08182418 0.08373114 0.08523227 0.08645342 0.08732666 0.08775308 0.08774688
 0.08740315 0.08683416 0.08614972 0.08541955 0.08462045 0.08365937 0.08251798 0.08138803 0.08057442 0.08020935
 0.08014102 0.08013958 0.08010468 0.08004288 0.07997323 0.0799074 0.07985245 0.07983162 0.07992817 0.08023331
 0.0807111 0.08119583 0.08154897 0.08176144 0.08190601 0.08201076 0.08195849 0.08158096 0.08094282 0.08038367
 0.08008467 0.07975134 0.07899927 0.07795234 0.07718036 0.07707451 0.07749221 0.07799327 0.078242 0.07817374
 0.07795784 0.07790148 0.07825492 0.07893619</values></Ydata></ScSm><ScRf><Ydata ylabel="Single channel"><values byteorder="INTEL" format="FLOAT32" numvalues="1820"> 0.0606429 0.06079535 0.06089402 0.06093744 0.0609403 0.06094188 0.06099558 0.06113245 0.06133161 0.06152938
 0.06166632 0.06172973 0.06174169 0.06171409 0.0616495 0.0615882 0.06160756 0.06174725 0.06195417 0.06211754
 0.06215888 0.06210203 0.06206108 0.06212864 0.06225163 0.06224352 0.06196012 0.06146497 0.06098809 0.06071125
 0.06065252 0.06080295 0.0612432 0.06192845 0.06244154 0.0622889 0.06151903 0.06075931 0.06051844 0.06069606
 0.06087207 0.06079652 0.06047088 0.06004956 0.0598782 0.06040204 0.06172862 0.0632637 0.06392179 0.06281
 0.05986731 0.05606965 0.05306952 0.05230805 0.05399988 0.05684562 0.05900777 0.05957509 0.05899909 0.05816731
 0.0574469 0.05679257 0.05636488 0.05657619 0.05752408 0.05859387 0.05876912 0.05750424 0.0553754 0.05367132
 0.0532124 0.05383563 0.05508653 0.05671611 0.05797506 0.05721671 0.05351823 0.04872467 0.04662286 0.04934249
 0.05508766 0.05989527 0.06115816 0.05908531 0.05555796 0.05256928 0.0514667 0.05258489 0.05519165 0.05809949
 0.06038444 0.06142291 0.06073108 0.05838928 0.05545452 0.0534461 0.05341329 0.05552793 0.05904789 0.06237861
 0.06379485 0.06271514 0.06009066 0.05740146 0.05568178 0.05551544 0.05717665 0.06034618 0.0640987 0.06743677
 0.06969301 0.07059854 0.07034616 0.06947131 0.06844227 0.06757346 0.0673068 0.06794313 0.06891249 0.06898956
 0.06762964 0.06570217 0.06459846 0.06479552 0.06547782 0.06552747 0.0646531 0.06320755 0.06108351 0.05769362
 0.05331854 0.04946631 0.04736762 0.04704095 0.04818792 0.05066808 0.05344012 0.05450227 0.05307803 0.05101109
 0.05093336 0.05345876 0.05686721 0.05921207 0.06012681 0.060689 0.06202906 0.06416976 0.06588753 0.06563576
 0.06307882 0.05995189 0.05883634 0.06062661 0.06366888 0.0657934 0.06660173 0.06722282 0.06833994 0.06913112
 0.0681278 0.0649622 0.06130029 0.0598083 0.06182873 0.0660364 0.06940036 0.06942284 0.06581934 0.06058519
 0.05644089 0.05494792 0.05609565 0.05934298 0.06421445 0.06974632 0.0742401 0.07621418 0.07547772 0.07305267
 0.07000634 0.06645992 0.06214054 0.05802895 0.05656867 0.05935793 0.06510542 0.07070681 0.07401536 0.07491128
 0.0740934 0.07175712 0.06780207 0.06312308 0.0600288 0.06044672 0.0635994 0.06644563 0.06686309 0.06558546
 0.06463777 0.06481434 0.06537761 0.06561607 0.06586336 0.06693322 0.0689553 0.07106479 0.07224046 0.07223262
 0.07160644 0.07108326 0.07088413 0.0705677 0.06965405 0.06858854 0.0686846 0.07068288 0.07372776 0.07624418
 0.07751648 0.07794867 0.07800639 0.07740328 0.07551514 0.07255046 0.07003205 0.06966577 0.07168828 0.07471665
 0.07718556 0.07847415 0.07876226 0.07846369 0.07794459 0.07740569 0.07694267 0.0767984 0.07730201 0.0783958
 0.07952887 0.08020805 0.08039942 0.08027868 0.07988355 0.07919387 0.07838404 0.07781704 0.07778218 0.07828025
 0.0790747 0.07990338 0.08056884 0.08089073 0.08076711 0.08032426 0.0798486 0.07952403 0.07935835 0.07936078
 0.07961078 0.08009918 0.08064354 0.08103982 0.08122561 0.08125623 0.08119026 0.08104777 0.08084869 0.08065906
 0.0805914 0.08072638 0.08101286 0.08129963 0.08151056 0.08172098 0.08199601 0.08223192 0.08226237 0.08208114
 0.08186166 0.08176884 0.08182351 0.08194262 0.08203588 0.08202854 0.08184736 0.08148125 0.08107682 0.08088975
 0.08108003 0.08159299 0.08225228 0.08288892 0.0833692 0.08361694 0.08367051 0.08364542 0.08360147 0.08349947
 0.08330426 0.08308589 0.08300035 0.08317237 0.08358227 0.08406994 0.08446407 0.08469361 0.08478647 0.08482714
 0.08492169 0.08511641 0.08532251 0.08539648 0.0853193 0.0852298 0.08525905 0.08538465 0.08547382 0.08544206
 0.08534726 0.08532707 0.08545444 0.0856739 0.08588213 0.08604346 0.08620718 0.08641902 0.08663051 0.08671767
 0.08661348 0.08640338 0.08624262 0.08619185 0.08619744 0.08622518 0.08632505 0.08653123 0.08676693 0.0869084
 0.08692367 0.08690143 0.0869365 0.08701698 0.08704431 0.08694954 0.08676569 0.0865916 0.08650962 0.0865367
 0.08662681 0.08670498 0.08671257 0.0866399 0.08652311 0.08640777 0.08631749 0.08626547 0.08628926 0.08643827
 0.08669682 0.08693702 0.08699551 0.08682108 0.08653378 0.0863205 0.08626731 0.08629604 0.08625935 0.08608408
 0.08581839 0.08556062 0.0853699 0.08524255 0.08514492 0.08505401 0.08498429 0.08498554 0.08509243 0.08525534
 0.08534361 0.08525349 0.08500957 0.08473758 0.08454759 0.08446585 0.08445507 0.08446267 0.08446285 0.08447964
 0.08454995 0.0846478 0.08468507 0.08461421 0.08449335 0.08442816 0.08448465 0.08466147 0.08489108 0.08505659
 0.08506961 0.08496016 0.08485116 0.08483105 0.08488651 0.08496171 0.08503516 0.08511813 0.0852156 0.08532243
 0.08544736 0.08561528 0.08583997 0.08610018 0.08634399 0.08652152 0.08662698 0.08671609 0.08687086 0.08713256
 0.08746564 0.08778915 0.08804353 0.08823153 0.08839966 0.08858252 0.08877413 0.08896217 0.08917241 0.0894472
 0.08978386 0.09012866 0.09043729 0.09071389 0.09098583 0.0912665 0.09155539 0.09186169 0.09221293 0.09262839
 0.09307572 0.09346819 0.09373096 0.0938734 0.09398645 0.09417443 0.09448642 0.09487911 0.09523007 0.09543096
 0.09550221 0.09558394 0.09578134 0.09605545 0.09630763 0.09653448 0.09683347 0.09726017 0.09773646 0.09812196
 0.09835128 0.09848274 0.09862243 0.0988137 0.09900696 0.09913655 0.09920891 0.09929093 0.09942338 0.09959197
 0.09979287 0.1000713 0.100456 0.1008909 0.1012771 0.1015632 0.1017633 0.1019092 0.102021 0.1021067
 0.102161 0.1021816 0.1021988 0.1022611 0.1023709 0.1024704 0.1025169 0.1025397 0.1026022 0.1027374
 0.1029467 0.1032263 0.1035537 0.1038717 0.1041362 0.104382 0.1046888 0.1050624 0.1053955 0.1055824
 0.1056373 0.105652 0.1056747 0.1056953 0.1057336 0.1058605 0.106115 0.1064542 0.1068096 0.1071555
 0.1075038 0.1078547 0.1081728 0.1084028 0.1085085 0.1085051 0.1084615 0.1084676 0.1085889 0.1088355
 0.1091582 0.1094809 0.1097481 0.109938 0.1100367 0.1100341 0.1099695 0.1099469 0.1100536 0.1102572
 0.1104169 0.1104032 0.1101863 0.1098071 0.1093043 0.1086963 0.1080211 0.1073582 0.1067972 0.1063925
 0.1061611 0.1061233 0.1063216 0.1067753 0.1074208 0.1081279 0.1087767 0.1092914 0.1095996 0.1096143
 0.1092964 0.1087102 0.1079881 0.1072517 0.1065726 0.1059701 0.1054137 0.104863 0.1043508 0.1040225
 0.1040721 0.1046267 0.1056781 0.1070833 0.1086162 0.1100522 0.1112569 0.1122213 0.1130206 0.1137351
 0.1144087 0.1150642 0.1157261 0.1163997 0.1170433 0.1176011 0.1180667 0.1184849 0.118891 0.1192757
 0.1196104 0.119881 0.120102 0.1203121 0.1205373 0.1207435 0.1208522 0.1208243 0.1207067 0.1205741
 0.1204496 0.120294 0.120051 0.119693 0.119255 0.1188561 0.11868 0.1188982 0.1195738 0.1206218
 0.1218717 0.1231768 0.1244528 0.1256232 0.1265849 0.127267 0.1277002 0.1279923 0.1282459 0.1285159
 0.1288184 0.1291457 0.1294737 0.1297777 0.1300519 0.1303174 0.1306082 0.1309402 0.1312863 0.131594
 0.1318385 0.1320562 0.1323166 0.1326592 0.1330549 0.1334352 0.133764 0.1340703 0.1343931 0.1347134
 0.1349718 0.1351507 0.1353041 0.1355059 0.1357938 0.1361564 0.1365385 0.1368636 0.1370865 0.1372357
 0.1373834 0.137575 0.1378055 0.1380531 0.1383091 0.1385703 0.1388302 0.139092 0.1393748 0.1396869
 0.1399949 0.1402424 0.140408 0.1405319 0.1406778 0.1408748 0.1411019 0.1413209 0.14152 0.1417291
 0.1419909 0.1423102 0.1426341 0.1428934 0.1430639 0.1431809 0.1433012 0.1434592 0.1436561 0.1438739
 0.1440918 0.1442937 0.1444751 0.1446483 0.1448357 0.1450515 0.1452894 0.1455299 0.1457564 0.1459641
 0.1461566 0.146342 0.1465347 0.1467583 0.147034 0.1473536 0.1476695 0.1479258 0.1481023 0.1482247
 0.1483354 0.1484642 0.1486199 0.1487975 0.1489897 0.1491934 0.1494061 0.1496214 0.1498331 0.1500412
 0.150248 0.1504521 0.1506508 0.1508466 0.1510498 0.1512716 0.1515132 0.1517592 0.1519868 0.1521865
 0.1523689 0.1525517 0.1527434 0.1529393 0.1531289 0.1533076 0.1534838 0.1536704 0.1538687 0.1540689
 0.1542649 0.1544602 0.1546589 0.1548592 0.1550574 0.155253 0.1554479 0.1556441 0.1558421 0.1560409
 0.1562382 0.1564324 0.1566239 0.1568166 0.1570149 0.157218 0.1574192 0.157613 0.1578007 0.1579875
 0.1581764 0.1583667 0.1585582 0.1587542 0.1589597 0.1591738 0.1593875 0.159591 0.159782 0.1599666
 0.1601553 0.1603558 0.1605672 0.1607811 0.1609925 0.1612038 0.1614157 0.1616232 0.1618247 0.1620268
 0.1622371 0.1624575 0.162686 0.1629194 0.1631533 0.1633818 0.1636008 0.1638106 0.1640123 0.1642035
 0.1643816 0.164552 0.1647277 0.1649142 0.1651025 0.1652803 0.1654464 0.1656102 0.1657838 0.1659722
 0.1661703 0.1663704 0.1665721 0.1667769 0.1669802 0.1671777 0.167375 0.1675785 0.1677857 0.1679922
 0.1681993 0.1684083 0.1686154 0.1688176 0.1690157 0.1692144 0.1694216 0.1696409 0.1698635 0.1700775
 0.1702818 0.1704832 0.1706869 0.1708965 0.1711124 0.1713288 0.1715398 0.1717464 0.1719492 0.1721452
 0.1723392 0.1725438 0.1727622 0.1729863 0.1732087 0.1734259 0.1736377 0.1738494 0.1740652 0.1742796
 0.1744872 0.1746962 0.1749149 0.1751387 0.1753584 0.1755708 0.1757772 0.1759839 0.1761985 0.1764165
 0.1766264 0.1768289 0.1770307 0.1772178 0.1773422 0.1772897 0.1767854 0.1752859 0.1719589 0.1658463
 0.1562509 0.1431821 0.1275044 0.1106236 0.0939647 0.07860489 0.06517663 0.05395738 0.04500797 0.03825854
 0.03356508 0.03080612 0.02998167 0.03131096 0.03534112 0.0426249 0.05249935 0.06200095 0.06701629 0.0655293
 0.05955159 0.05329002 0.04965018 0.04883375 0.04959692 0.05088004 0.05234712 0.05418871 0.05673206 0.06006592
 0.06402881 0.06861919 0.07418919 0.08099876 0.08868995 0.09643972 0.1036663 0.1104805 0.1174127 0.1247713
 0.1323171 0.1394992 0.1458957 0.1514274 0.1562715 0.1606652 0.1647716 0.1686645 0.172377 0.1758994
 0.179103 0.1817149 0.1834524 0.1842338 0.1842775 0.1839843 0.1837078 0.1836144 0.1837196 0.1839924
 0.1844075 0.1849439 0.1855835 0.1863098 0.1870996 0.1879245 0.1887573 0.18957 0.1903379 0.1910521
 0.1917174 0.1923333 0.192892 0.1933928 0.1938474 0.1942712 0.1946763 0.1950662 0.1954356 0.1957832
 0.196119 0.1964493 0.1967639 0.1970455 0.1972873 0.1974964 0.1976912 0.1978925 0.1981081 0.1983285
 0.1985431 0.1987512 0.1989574 0.1991654 0.199379 0.1995964 0.1998085 0.20001 0.2002061 0.2004005
 0.2005872 0.2007612 0.200929 0.2011038 0.2012948 0.2015027 0.2017182 0.2019257 0.2021153 0.2022907
 0.2024639 0.2026445 0.2028346 0.2030318 0.2032378 0.2034582 0.2036918 0.2039256 0.2041505 0.2043695
 0.2045867 0.2047982 0.2050039 0.205212 0.2054207 0.2056102 0.2057664 0.2059047 0.2060604 0.2062581
 0.20649 0.2067241 0.206935 0.2071247 0.2073122 0.2075104 0.2077155 0.2079117 0.2080905 0.2082695
 0.2084804 0.2087288 0.2089858 0.2092283 0.2094609 0.2096921 0.2099214 0.2101533 0.2103889 0.2106036
 0.2107659 0.2108904 0.2110475 0.2113071 0.2116697 0.2120568 0.2123815 0.2126259 0.2128339 0.2130503
 0.2132917 0.2135382 0.2137163 0.213748 0.2136809 0.2137111 0.2140031 0.2145205 0.215085 0.2155575
 0.2159156 0.2162029 0.2164569 0.216674 0.2168133 0.216844 0.2168158 0.216875 0.2171617 0.2176647
 0.2182197 0.2186743 0.2190033 0.2192487 0.2194375 0.2195865 0.21967 0.2195607 0.2191672 0.2186945
 0.2185975 0.2191418 0.2200996 0.2209887 0.2215492 0.221878 0.222158 0.2224315 0.2226512 0.2227258
 0.2224205 0.221489 0.220157 0.2192583 0.2195498 0.2209503 0.2226745 0.2240166 0.2247973 0.2251943
 0.2254365 0.2256474 0.2257523 0.225491 0.2247104 0.2237443 0.2233253 0.2239091 0.2251592 0.2263051
 0.2269294 0.2271902 0.2274012 0.2276803 0.227876 0.2275343 0.2261508 0.2239093 0.2220632 0.2220608
 0.2241284 0.2269961 0.2291551 0.2301633 0.2305372 0.2306355 0.2301318 0.228604 0.2261695 0.2234329
 0.2212844 0.2207724 0.2224152 0.2253366 0.2277622 0.2287706 0.2290698 0.2298264 0.2312721 0.2327108
 0.2334192 0.2332081 0.2323064 0.2309607 0.2293088 0.2277424 0.2271426 0.2282606 0.2308042 0.2335286
 0.235381 0.236302 0.236701 0.236237 0.2335567 0.2279284 0.2213022 0.2177736 0.2199644 0.2262754
 0.2326007 0.2363659 0.2379387 0.2386945 0.2391719 0.2389245 0.2367865 0.2315113 0.2237337 0.2172016
 0.2162447 0.2214952 0.2291738 0.2346172 0.2354512 0.2318458 0.2256889 0.2200239 0.2177996 0.2200801
 0.2255832 0.2319442 0.2371358 0.2400296 0.2403781 0.2386885 0.2361822 0.2345089 0.2345561 0.2351337
 0.2338757 0.2302321 0.2263845 0.2240383 0.2217747 0.2176655 0.2135093 0.2136502 0.2193418 0.2266581
 0.230906 0.2313833 0.2305406 0.2295066 0.2261477 0.2181351 0.2073529 0.1999861 0.2011124 0.2094302
 0.2184235 0.2227511 0.2224947 0.2212301 0.2212567 0.2212525 0.2181297 0.2110649 0.2035397 0.2004167
 0.202764 0.206898 0.2087364 0.2070468 0.2020106 0.1939155 0.185511 0.182856 0.1902132 0.204835
 0.21911 0.2268301 0.2254659 0.2148062 0.1978387 0.1825806 0.1781828 0.1867301 0.2007025 0.2098894
 0.2094876 0.2009557 0.1876634 0.1725994 0.1597639 0.1545859 0.1606757 0.1761717 0.1937526 0.2042503
 0.2017138 0.1880706 0.1735954 0.1695144 0.1777462 0.1895459 0.1952941 0.1932307 0.1880689 0.1849493
 0.1864925 0.1923271 0.1994743 0.205149 0.208979 0.2098386 0.2028576 0.1852668 0.1641203 0.1516423
 0.1525375 0.1615916 0.1734523 0.1874371 0.2011456 0.207149 0.2013581 0.1907433 0.1873964 0.1956915
 0.2085422 0.2160825 0.215443 0.2112794 0.2085906 0.2073943 0.2052127 0.2028341 0.2045285 0.212156
 0.2219299 0.2286474 0.2311018 0.2316259 0.2321279 0.2326384 0.2326402 0.2319399 0.2305989 0.2290638
 0.2280266 0.2276438 0.2273975 0.2268902 0.2258056 0.2226822 0.2152395 0.2035805 0.192218 0.1864912
 0.1869006 0.1894853 0.1917074 0.193925 0.1939008 0.1852663 0.1659385 0.1450175 0.1361621 0.1443907
 0.1623474 0.1786881 0.1867702 0.1852095 0.1744828 0.1571398 0.1405233 0.1344677 0.1432735 0.161581
 0.180104 0.1936357 0.2016287 0.2037485 0.1988976 0.1883914 0.1772264 0.1712116 0.1734251 0.18287
 0.1948207 0.2020388 0.1983068 0.1846077 0.1718549 0.1728403 0.1888152 0.2074086 0.2165351 0.2166309
 0.2157488 0.2170411 0.2171974 0.2152304 0.2160023 0.2235565 0.2351735 0.2440525 0.2452835 0.237788
 0.223694 0.20883 0.2012047 0.2045504 0.2140145 0.221379 0.2229804 0.2192321 0.2097923 0.1955996
 0.1839963 0.1843145 0.1970771 0.2127772 0.2226748 0.2267531 0.2297716 0.2330691 0.2329394 0.2262539
 0.2156986 0.2081294 0.2077923 0.2126043 0.2176836 0.220501 0.2209089 0.2182194 0.2116373 0.2035785
 0.199693 0.2039448 0.2144817 0.2253412 0.2317594 0.2331345 0.2316266 0.2293581 0.2269917 0.2238938
 0.2195468 0.2153935 0.2145632 0.2185326 0.2247812 0.2293829 0.2314974 0.2336522 0.2377666 0.242514
 0.2449436 0.2437017 0.2403167 0.2378617 0.2384859 0.2417119 0.2447948 0.2450652 0.2424663 0.2398463
 0.2403367 0.2443631 0.2495819 0.2535511 0.2557269 0.2569525 0.2580124 0.2589421 0.2590013 0.2572324
 0.2538076 0.2508104 0.2507613 0.2541221 0.2588597 0.2625555 0.2643688 0.2648917 0.2647984 0.2641366
 0.2627425 0.2608999 0.2593491 0.2586944 0.2589691 0.2597921 0.2607636 0.2616383 0.2622999 0.262742
 0.2630346 0.2632368 0.2633693 0.2634666 0.2635644 0.2636207 0.2635553 0.2634106 0.263375 0.2635773
 0.2639189 0.2641788 0.2642189 0.2639999 0.263462 0.2625315 0.2612534 0.2597887 0.2582334 0.2565501
 0.2547948 0.2533714 0.2529132 0.2538067 0.255829 0.2582835 0.2604795 0.2620771 0.2630702 0.2635957
 0.2638144 0.2638758 0.2638777 0.2638374 0.2637236 0.2635195 0.2632387 0.2628987 0.2625116 0.2621042
 0.2617227 0.2614005 0.2611256 0.2608484 0.2605172 0.2601044 0.2596133 0.2590749 0.2585243 0.2579624
 0.2573415 0.2566018 0.2557247 0.2547548 0.2537793 0.2528834 0.2520959 0.2513701 0.2506281 0.2498225
 0.2489354 0.2479406 0.2468225 0.2456474 0.2445628 0.2436842 0.2429989 0.2423941 0.2417528 0.2410057
 0.2401299 0.2391453 0.238103 0.2370448 0.2359693 0.2348465 0.2336522 0.2323769 0.231015 0.2295663
 0.2280406 0.2264579 0.2248456 0.2232267 0.2215868 0.2198491 0.2178884 0.2155707 0.2127802 0.2094319
 0.2054943 0.2010244 0.1961816 0.1911931 0.1862855 0.1816305 0.1773393 0.1734923 0.1701606 0.1674109
 0.1653002 0.1638693 0.1631401 0.1631211 0.163808 0.1651722 0.1671447 0.1696121 0.1724271 0.1754212
 0.1784193 0.1812622 0.1838505 0.1861891 0.1883697 0.1904712 0.1924784 0.1943148 0.1959363 0.1973587
 0.1986051 0.1996683 0.2005354 0.2012253 0.2017884 0.2022739 0.2027056 0.2030853 0.2034106 0.2036804
 0.2038938 0.2040571 0.2041937 0.2043376 0.2045164 0.2047411 0.2050107 0.2053257 0.205697 0.2061344
 0.2066291 0.2071611 0.2077226 0.2083182 0.208948 0.2096109 0.2103257 0.2111336 0.2120781 0.2131834
 0.2144421 0.2158101 0.2172138 0.2185639 0.2197709 0.2207645 0.2215102 0.22201 0.2222902 0.222389
 0.2223436 0.2221747 0.221889 0.2214986 0.2210276 0.220497 0.2199157 0.219289 0.2186253 0.2179334
 0.2172225 0.2165087 0.2158107 0.2151348 0.2144701 0.2138051 0.2131483 0.212522 0.211935 0.211371
 0.2108057 0.2102288 0.2096453 0.2090656 0.2084945 0.2079189 0.2073007 0.2065931 0.2057718 0.2048449
 0.203829 0.2027228 0.2015137 0.2002037 0.1988173 0.197378 0.1958867 0.1943268 0.1926868 0.1909669
 0.1891642 0.1872668 0.1852803 0.183255 0.1812719 0.1793996 0.1776688 0.1760726 0.1745847 0.1731818
 0.1718578 0.1706078 0.1694098 0.1682426 0.1671133 0.1660425 0.1650333 0.1640777 0.1631841 0.1623781
 0.1616789 0.1610826 0.1605638 0.160092 0.1596538 0.1592616 0.1589467 0.1587459 0.1586797 0.158723
 0.1588047 0.1588498 0.1588223 0.1587324 0.1586146 0.1585001 0.1584021 0.1583226 0.1582584 0.1581801
 0.1580166 0.1576788 0.1570923 0.156208 0.1550114 0.1535317 0.15183 0.1499923 0.1481475 0.1464491
 0.1450066 0.1438507 0.1429633 0.1423014 0.1418002 0.1414026 0.1410989 0.1409253 0.1409301 0.1411139
 0.1413751 0.1415557 0.1415954 0.1416106 0.1417804 0.1421923 0.1428104 0.1435295 0.1442383 0.1448699
 0.1454027 0.1458161 0.1460872 0.1462291 0.1462753 0.1462331 0.1460977 0.1458885 0.1456318 0.1453346
 0.144991 0.144583 0.1440826 0.1434863 0.1428171 0.1420836 0.1412804 0.1404078 0.1394385 0.1383227
 0.137109 0.1360119 0.1352993 0.1351408 0.1355444 0.136356 0.1373525 0.1383957 0.1394197 0.1402436
 0.1406115 0.1405823 0.1407332 0.1417456 0.1437562 0.1462096 0.148359 0.1498149 0.1505785 0.1507368
 0.1503273 0.1493988 0.1479805 0.1460346 0.1435783 0.1407585 0.137733 0.1346281 0.1316357 0.1289648
 0.126711 0.1248822 0.1234631 0.1224793 0.1220583 0.1218438 0.1199562 0.1139637 0.1046409 0.09765911
 0.09881261 0.1075007 0.1171477 0.1221481 0.122324 0.1206382 0.1191464 0.1181672 0.1176128 0.1176449
 0.1183861 0.1196622 0.1210654 0.1222054 0.1229351 0.1232944 0.1232303 0.1223742 0.1199888 0.1152212
 0.1077891 0.09857976 0.08935216 0.08171015 0.07637145 0.07320127 0.07158969 0.07080291 0.07031897 0.07006621
 0.0703342 0.07141024 0.07332595 0.07593685 0.07909179 0.08257356 0.08596629 0.08882311 0.09100886 0.09271745
 0.09412315 0.0951619 0.09568255 0.09567009 0.09525765 0.0946083 0.09384671 0.09304329 0.09218091 0.09116454
 0.08997069 0.08879732 0.08795244 0.08756017 0.08747131 0.0874708 0.08745946 0.08742969 0.08738747 0.08733305
 0.0872665 0.08722156 0.08729938 0.08759582 0.08807205 0.08855848 0.08889881 0.08906038 0.08911443 0.08910117
 0.08890156 0.08834521 0.08751833 0.08678163 0.08630225 0.08575234 0.08473673 0.08340445 0.0823625 0.08202328
 0.0822496 0.08260882 0.08276591 0.08262761 0.08233353 0.08220974 0.08254805 0.08325444 0.08381994 0.08380549
</values></Ydata></ScRf><Data_Parameters_AB><parameter name="DPF">1</parameter><parameter name="NPT">3497</parameter><parameter name="FXV">3996</parameter><parameter name="LXV">500</parameter><parameter name="CSF">1</parameter><parameter name="MXY">0.239366084337234</parameter><parameter name="MNY">-0.0827896893024445</parameter><parameter name="DAT">31/05/2022</parameter><parameter name="TIM">11:41:56.525 (GMT+2)</parameter><parameter name="DXU">WN</parameter></Data_Parameters_AB><AB__Qtest><MainReport name="Quality Test Report"><Header><Line><Legend>Test result ok/not ok [1/0]: </Legend><Value>0</Value></Line><Line><Legend>Method file: </Legend><Value>C:\Users\Public\Documents\Bruker\OPUS_8.2.28\QT\IRBT_v3_default.QT</Value></Line></Header><Matrix><Line><Legend></Legend><Legend>min</Legend><Legend>max</Legend><Legend>measured</Legend></Line><Line><Value>Absorption (X-Range 1):</Value><Value>0.400000</Value><Value>2.000000</Value><Value>0.315924</Value></Line><Line><Value>Noise (X-Range 4):</Value><Value></Value><Value>0.000300</Value><Value>0.000048</Value></Line><Line><Value>Signal/Noise (X-Range 2):</Value><Value>200.000000</Value><Value></Value><Value>189.606058</Value></Line><Line><Value>Signal/Noise (X-Range 3):</Value><Value>40.000000</Value><Value></Value><Value>62.726497</Value></Line><Line><Value>Water vapour (X-Range 5):</Value><Value></Value><Value>0.000300</Value><Value>0.000103</Value></Line><Line><Value>Signal/Water (X-Range 2):</Value><Value>100.000000</Value><Value></Value><Value>87.985579</Value></Line><Line><Value>Signal/Water (X-Range 3):</Value><Value>20.000000</Value><Value></Value><Value>29.107863</Value></Line><Line><Value>Fringes (X-Range 6):</Value><Value></Value><Value>0.000100</Value><Value>0.000053</Value></Line></Matrix></MainReport></AB__Qtest><Data_Parameters_ScSm><parameter name="DPF">1</parameter><parameter name="NPT">1814</parameter><parameter name="FXV">3996.33169228125</parameter><parameter name="LXV">499.541461535156</parameter><parameter name="CSF">1</parameter><parameter name="MXY">0.283848285675049</parameter><parameter name="MNY">0.036067184060812</parameter><parameter name="DAT">31/05/2022</parameter><parameter name="TIM">11:41:56.525 (GMT+2)</parameter><parameter name="DXU">WN</parameter></Data_Parameters_ScSm><Data_Parameters_ScRf><parameter name="DPF">1</parameter><parameter name="NPT">1820</parameter><parameter name="FXV">4004.04661832813</parameter><parameter name="LXV">495.683998511719</parameter><parameter name="CSF">1</parameter><parameter name="MXY">0.264891684055328</parameter><parameter name="MNY">0.0299816727638245</parameter><parameter name="DAT">31/05/2022</parameter><parameter name="TIM">11:41:30.428 (GMT+2)</parameter><parameter name="DXU">WN</parameter></Data_Parameters_ScRf><Optic_Parameters_Rf><parameter name="APR">0</parameter><parameter name="APT">Open</parameter><parameter name="BMS">KBr</parameter><parameter name="DTC">RT-DLaTGS_IR-Biotyper [Microplate reader]</parameter><parameter name="HPF">0</parameter><parameter name="LPF">10.0</parameter><parameter name="LPV">4000</parameter><parameter name="PGR">0</parameter><parameter name="RCH">Module port</parameter><parameter name="RDX">0</parameter><parameter name="SRC">MIR</parameter><parameter name="VEL">10.0</parameter><parameter name="SON">Off</parameter></Optic_Parameters_Rf><Acquisition_Parameters_Rf><parameter name="ADT">1</parameter><parameter name="AQM">DD</parameter><parameter name="CFE">0</parameter><parameter name="COR">0</parameter><parameter name="DEL">0</parameter><parameter name="DLY">0</parameter><parameter name="HFW">8000</parameter><parameter name="LFW">0</parameter><parameter name="NSR">32</parameter><parameter name="PLF">AB</parameter><parameter name="RES">6</parameter><parameter name="RGN">-1</parameter><parameter name="STR">0</parameter><parameter name="TCL">MakeCompatibleScalar (0, {WSV=1.000000, ARV=0});</parameter><parameter name="TDL">37</parameter><parameter name="RPO">0</parameter></Acquisition_Parameters_Rf><FT_-_Parameters_Rf><parameter name="APF">B3</parameter><parameter name="HFQ">500</parameter><parameter name="LFQ">4000</parameter><parameter name="NLI">0</parameter><parameter name="PHR">24</parameter><parameter name="PHZ">ML</parameter><parameter name="SPZ">NO</parameter><parameter name="ZFF">1</parameter></FT_-_Parameters_Rf><Optic_Parameters_><parameter name="APR">0</parameter><parameter name="APT">Open</parameter><parameter name="BMS">KBr</parameter><parameter name="CHN">Module port</parameter><parameter name="DTC">RT-DLaTGS_IR-Biotyper [Microplate reader]</parameter><parameter name="HPF">0</parameter><parameter name="LPF">10.0</parameter><parameter name="LPV">4000</parameter><parameter name="PGN">0</parameter><parameter name="RDX">0</parameter><parameter name="SRC">MIR</parameter><parameter name="VEL">10.0</parameter><parameter name="SON">Off</parameter></Optic_Parameters_><FT_-_Parameters_><parameter name="APF">B3</parameter><parameter name="HFQ">500</parameter><parameter name="LFQ">4000</parameter><parameter name="NLI">0</parameter><parameter name="PHR">24</parameter><parameter name="PHZ">ML</parameter><parameter name="SPZ">NO</parameter><parameter name="ZFF">1</parameter></FT_-_Parameters_><Acquisition_Parameters_><parameter name="ADT">1</parameter><parameter name="AQM">DD</parameter><parameter name="CFE">0</parameter><parameter name="COR">0</parameter><parameter name="DEL">0</parameter><parameter name="DLY">0</parameter><parameter name="HFW">8000</parameter><parameter name="LFW">0</parameter><parameter name="NSS">32</parameter><parameter name="PLF">AB</parameter><parameter name="RES">6</parameter><parameter name="SOT">0</parameter><parameter name="TCL">MakeCompatibleScalar (0, {WSV=1.000000, ARV=0});</parameter><parameter name="TDL">37</parameter><parameter name="SPO">0</parameter><parameter name="SGN">-1</parameter></Acquisition_Parameters_><Instrument_Parameters_Rf><parameter name="HFL">15800.168544</parameter><parameter name="LFL">0</parameter><parameter name="LWN">15800.168544</parameter><parameter name="ABP">32197</parameter><parameter name="SSP">1</parameter><parameter name="ARG">2</parameter><parameter name="ASG">2</parameter><parameter name="ASS">32</parameter><parameter name="GFW">16</parameter><parameter name="GBW">16</parameter><parameter name="BFW">0</parameter><parameter name="BBW">0</parameter><parameter name="PKA">7264</parameter><parameter name="PKL">4996</parameter><parameter name="PRA">7446</parameter><parameter name="PRL">5001</parameter><parameter name="P2A">1</parameter><parameter name="P2L">1</parameter><parameter name="P2R">1</parameter><parameter name="P2K">1</parameter><parameter name="DAQ">0</parameter><parameter name="AG2">1</parameter><parameter name="SSM">1</parameter><parameter name="RSN">25487</parameter><parameter name="CRR">0</parameter><parameter name="SRT">1653997290.429</parameter><parameter name="DUR">19.6379852294922</parameter><parameter name="TSC">28.9</parameter><parameter name="MVD">0.192399308085442</parameter><parameter name="AN1">0.225827375208508</parameter><parameter name="AN2">0</parameter><parameter name="VSN">2.485 Apr  4 2017</parameter><parameter name="SRN">0085</parameter><parameter name="CAM">0</parameter><parameter name="INS">IR-Biotyper</parameter><parameter name="FOC">69</parameter><parameter name="RDY">1</parameter><parameter name="ARS">32</parameter></Instrument_Parameters_Rf><Sample_Parameters_><parameter name="BLD"></parameter><parameter name="CNM">Admin</parameter><parameter name="CPY"></parameter><parameter name="DPM"></parameter><parameter name="EXP">IRBT_v3_32Scans.XPM</parameter><parameter name="LCT"></parameter><parameter name="SFM">Microplate, HTS-XT</parameter><parameter name="SNM">220531-1021(v.3)_AML29F (D_3)_E9_7b8e6733-cd9c-4e96-98e8-0ecaa9640c51.0</parameter><parameter name="XPP">C:\Users\Public\Documents\Bruker\OPUS_8.2.28\XPM</parameter><parameter name="IST">OK</parameter><parameter name="CPG">1252</parameter><parameter name="UID">b5c6ac13-ba2a-4634-8485-af3fa1011121</parameter></Sample_Parameters_><Instrument_Parameters_><parameter name="HFL">15800.168544</parameter><parameter name="LFL">0</parameter><parameter name="LWN">15800.168544</parameter><parameter name="ABP">32197</parameter><parameter name="SSP">1</parameter><parameter name="ASG">2</parameter><parameter name="ARG">2</parameter><parameter name="ASS">32</parameter><parameter name="GFW">16</parameter><parameter name="GBW">16</parameter><parameter name="BFW">0</parameter><parameter name="BBW">0</parameter><parameter name="PKA">7381</parameter><parameter name="PKL">4988</parameter><parameter name="PRA">7697</parameter><parameter name="PRL">4993</parameter><parameter name="P2A">1</parameter><parameter name="P2L">1</parameter><parameter name="P2R">1</parameter><parameter name="P2K">1</parameter><parameter name="DAQ">0</parameter><parameter name="AG2">1</parameter><parameter name="SSM">1</parameter><parameter name="RSN">13369</parameter><parameter name="CRR">0</parameter><parameter name="SRT">1653997316.525</parameter><parameter name="DUR">19.6379852294922</parameter><parameter name="TSC">28.9</parameter><parameter name="MVD">0.201083242893219</parameter><parameter name="AN1">0.225762330468834</parameter><parameter name="AN2">0</parameter><parameter name="VSN">2.485 Apr  4 2017</parameter><parameter name="SRN">0085</parameter><parameter name="CAM">0</parameter><parameter name="INS">IR-Biotyper</parameter><parameter name="FOC">69</parameter><parameter name="RDY">1</parameter></Instrument_Parameters_><History/></OPUSDataFile>
