<?xml version="1.0" encoding="UTF-8" ?>
<OPUSDataFile><AB><Ydata ylabel="Absorbance Units"><values byteorder="INTEL" format="FLOAT32" numvalues="3497"> -0.09232436 -0.09232774 -0.09234083 -0.09236521 -0.09237687 -0.09237456 -0.09234508 -0.0922897 -0.09222021 -0.09213974
 -0.09207369 -0.09202106 -0.09199356 -0.09198448 -0.09198377 -0.09198657 -0.09197893 -0.09196361 -0.09193731 -0.09190693
 -0.09187646 -0.09185191 -0.09183799 -0.09183612 -0.09184951 -0.09187049 -0.09189955 -0.09192035 -0.09193039 -0.0919184
 -0.09188221 -0.09182834 -0.09175706 -0.09168695 -0.09161866 -0.09156564 -0.09152678 -0.0915028 -0.09149165 -0.09148643
 -0.09148596 -0.09148353 -0.09148023 -0.09147432 -0.09146849 -0.0914654 -0.09146588 -0.09147257 -0.09148171 -0.09149303
 -0.09149954 -0.091499 -0.09148514 -0.09145538 -0.09140946 -0.09134549 -0.09127583 -0.09120072 -0.09114102 -0.09109794
 -0.09108438 -0.09109942 -0.09113383 -0.09118481 -0.09122985 -0.09126936 -0.09129181 -0.09130158 -0.09130403 -0.09130089
 -0.09129858 -0.09129401 -0.09128578 -0.0912721 -0.0912501 -0.09122232 -0.09118976 -0.0911531 -0.09111407 -0.09106686
 -0.09100969 -0.0909415 -0.09085982 -0.09078072 -0.09070457 -0.09065763 -0.09064142 -0.09067279 -0.09075079 -0.09086777
 -0.09101824 -0.09116666 -0.09130565 -0.09138691 -0.09141307 -0.09136129 -0.09124991 -0.0910975 -0.09092343 -0.09075864
 -0.0906103 -0.09049691 -0.09041011 -0.0903527 -0.09030685 -0.09026492 -0.09022183 -0.09017105 -0.09013359 -0.09011129
 -0.09012646 -0.09018354 -0.09026915 -0.09038292 -0.09048172 -0.09056472 -0.09060986 -0.09062234 -0.0906238 -0.09061886
 -0.09063897 -0.09067806 -0.09074083 -0.09081056 -0.09086021 -0.09088085 -0.09084536 -0.09076983 -0.09065518 -0.09052655
 -0.09039976 -0.09028464 -0.0901896 -0.09011243 -0.09005275 -0.09001486 -0.08999823 -0.09001624 -0.0900714 -0.09015977
 -0.09028178 -0.09037241 -0.09042802 -0.09037422 -0.09022267 -0.09001157 -0.08975473 -0.08952735 -0.08932642 -0.08918152
 -0.08908574 -0.08904136 -0.08904035 -0.08907671 -0.08913682 -0.08920965 -0.08927977 -0.08933392 -0.08937014 -0.08938259
 -0.08938241 -0.08937275 -0.08935479 -0.08933049 -0.08928914 -0.08922922 -0.08915038 -0.08905233 -0.08895543 -0.08886106
 -0.08879394 -0.08875323 -0.08874785 -0.0887721 -0.08881089 -0.08885583 -0.08887737 -0.08887352 -0.08882354 -0.08873983
 -0.08862608 -0.08850227 -0.08838599 -0.08829042 -0.08822984 -0.08820225 -0.08821227 -0.08824606 -0.08830143 -0.08836508
 -0.08843379 -0.08850504 -0.08857878 -0.08864784 -0.08871205 -0.08874375 -0.08874188 -0.08868381 -0.08857321 -0.08842169
 -0.08823621 -0.08804944 -0.08786545 -0.08771154 -0.08758643 -0.08750203 -0.08745053 -0.08742945 -0.08742533 -0.08742661
 -0.08742275 -0.08740226 -0.08736878 -0.08731896 -0.08726723 -0.08721691 -0.08717766 -0.0871524 -0.08714073 -0.08714309
 -0.08715645 -0.08718069 -0.08721291 -0.0872525 -0.08729008 -0.08732405 -0.08733836 -0.08733308 -0.08729817 -0.08723857
 -0.08716086 -0.08707158 -0.08698558 -0.08690555 -0.08684152 -0.08679111 -0.08675511 -0.08673245 -0.08672097 -0.08672655
 -0.08675122 -0.08679887 -0.08687405 -0.08696196 -0.08706291 -0.08714906 -0.08721712 -0.08725293 -0.08725534 -0.08721843
 -0.08714201 -0.0870197 -0.08685561 -0.08667289 -0.08648006 -0.08632479 -0.08620881 -0.0861659 -0.08618076 -0.08624914
 -0.08633648 -0.08639522 -0.08641137 -0.08634549 -0.08623295 -0.0860818 -0.08592805 -0.08579207 -0.08567751 -0.08559172
 -0.08551845 -0.08545553 -0.085393 -0.08532844 -0.08526977 -0.08521725 -0.08518351 -0.08516885 -0.08517894 -0.08521267
 -0.08526733 -0.0853375 -0.08540265 -0.0854528 -0.08544691 -0.08538991 -0.08526452 -0.08509839 -0.08492082 -0.08474805
 -0.08460934 -0.08449411 -0.08440701 -0.08432609 -0.08424194 -0.08414603 -0.08403118 -0.08391058 -0.08378487 -0.08366979
 -0.08356794 -0.08348054 -0.08340806 -0.08333901 -0.08327296 -0.08320106 -0.08312452 -0.0830484 -0.08297344 -0.0829061
 -0.08284479 -0.08278751 -0.08273537 -0.08268883 -0.08265105 -0.08262818 -0.0826164 -0.08261815 -0.08261756 -0.08260629
 -0.08257157 -0.08250372 -0.08240701 -0.08228084 -0.08212975 -0.08195484 -0.08175607 -0.0815327 -0.08129412 -0.0810407
 -0.08078797 -0.08053674 -0.08030088 -0.08008125 -0.07989128 -0.07973038 -0.07960545 -0.0795109 -0.07943567 -0.07937399
 -0.07930718 -0.07924043 -0.07917213 -0.07910996 -0.07906698 -0.07902575 -0.07898556 -0.07890932 -0.07877535 -0.07858602
 -0.07833188 -0.07805166 -0.07775117 -0.07745746 -0.07717496 -0.07691208 -0.07666975 -0.07644888 -0.07624953 -0.0760728
 -0.07591861 -0.07578864 -0.07567994 -0.07558426 -0.07549223 -0.07537387 -0.07522338 -0.07500912 -0.07474861 -0.07444869
 -0.074134 -0.07383092 -0.07354865 -0.07330143 -0.07308739 -0.07291092 -0.0727604 -0.07263518 -0.07251676 -0.07240131
 -0.07227854 -0.07214651 -0.07200339 -0.07184912 -0.07167631 -0.07148451 -0.07126347 -0.0710144 -0.07074093 -0.07044622
 -0.07014575 -0.06984131 -0.06954546 -0.06925907 -0.06898975 -0.0687369 -0.06850468 -0.06828634 -0.06807828 -0.06787183
 -0.06765874 -0.06744079 -0.06721537 -0.06699153 -0.06677262 -0.0665587 -0.06635141 -0.06614182 -0.06592869 -0.06570946
 -0.06548366 -0.06525815 -0.06503317 -0.06481273 -0.06459653 -0.06438386 -0.06417447 -0.06396703 -0.06376113 -0.06355473
 -0.06334805 -0.06313957 -0.06293232 -0.06272942 -0.06253418 -0.06235293 -0.06218026 -0.06201829 -0.06184873 -0.0616643
 -0.06145205 -0.06120322 -0.06092939 -0.06062933 -0.06032741 -0.06002652 -0.05974258 -0.05947722 -0.05923104 -0.05900368
 -0.05878536 -0.05857503 -0.05836026 -0.0581398 -0.05790095 -0.05764442 -0.05736322 -0.05706459 -0.0567571 -0.05645222
 -0.05617059 -0.05591398 -0.05569535 -0.05549986 -0.05532295 -0.05514864 -0.05496651 -0.05477688 -0.05457539 -0.05437707
 -0.05418404 -0.05400858 -0.05385369 -0.05371413 -0.05359029 -0.05346122 -0.05332584 -0.0531639 -0.05297625 -0.05276008
 -0.05251903 -0.05226792 -0.05200923 -0.05175879 -0.05151445 -0.05128013 -0.05105137 -0.05082266 -0.05059402 -0.0503616
 -0.05013254 -0.04990971 -0.04970078 -0.04951166 -0.04933907 -0.04918578 -0.04903505 -0.04888513 -0.04871654 -0.0485261
 -0.04830634 -0.04805585 -0.0477873 -0.04750175 -0.04722412 -0.04695502 -0.04671136 -0.04649037 -0.04628865 -0.04610298
 -0.04592128 -0.04574466 -0.04556891 -0.04539778 -0.04523555 -0.04508259 -0.04494229 -0.04480937 -0.04468245 -0.0445537
 -0.04441962 -0.04427394 -0.04411317 -0.04393846 -0.04374838 -0.04355219 -0.04335103 -0.04315098 -0.042953 -0.0427496
 -0.04254033 -0.0423132 -0.0420694 -0.04181282 -0.04154796 -0.04129789 -0.04106558 -0.0408738 -0.0407178 -0.04060121
 -0.04051285 -0.04043874 -0.04037089 -0.04029457 -0.04021274 -0.04012183 -0.04003023 -0.0399421 -0.03985844 -0.0397823
 -0.03970378 -0.0396219 -0.03952562 -0.03941289 -0.03928143 -0.03913047 -0.03897022 -0.0388013 -0.03863847 -0.03848115
 -0.03833136 -0.03818572 -0.03802848 -0.0378589 -0.03766385 -0.037451 -0.03722794 -0.03700567 -0.03680404 -0.03662609
 -0.0364836 -0.03637058 -0.0362872 -0.03622525 -0.0361817 -0.03614844 -0.03612321 -0.03609687 -0.03606726 -0.03602812
 -0.03597784 -0.03591803 -0.0358486 -0.03577412 -0.0356947 -0.03560973 -0.03551874 -0.03541676 -0.03530419 -0.03517976
 -0.0350454 -0.03490628 -0.03476391 -0.03462436 -0.03448686 -0.03435334 -0.03422112 -0.03408782 -0.03395271 -0.03381287
 -0.03367436 -0.03353756 -0.03341421 -0.03330858 -0.03322612 -0.03317085 -0.03313134 -0.03310763 -0.03308002 -0.03304655
 -0.03300177 -0.03294582 -0.03289393 -0.03284706 -0.03282147 -0.03281514 -0.03282789 -0.03285509 -0.03288316 -0.0329078
 -0.03291319 -0.03289881 -0.03285497 -0.03278946 -0.03270424 -0.03261318 -0.03252763 -0.03245207 -0.03239548 -0.03234201
 -0.03228948 -0.03221984 -0.03212577 -0.03201573 -0.03188744 -0.0317733 -0.03167581 -0.0316174 -0.03159863 -0.03161087
 -0.03165197 -0.0316971 -0.03174635 -0.03178671 -0.03182089 -0.03185195 -0.0318789 -0.03190284 -0.03191755 -0.03191336
 -0.03188903 -0.0318361 -0.03176683 -0.03168518 -0.03160756 -0.03154435 -0.03149906 -0.03147751 -0.03146715 -0.03146719
 -0.03146166 -0.03144785 -0.0314189 -0.03137342 -0.03131941 -0.03125751 -0.03120812 -0.03117235 -0.0311702 -0.03119939
 -0.03126116 -0.03134802 -0.03143778 -0.03152361 -0.03157813 -0.03160441 -0.03159188 -0.03155523 -0.03150456 -0.03145425
 -0.03141986 -0.03140103 -0.0314043 -0.03141528 -0.03143122 -0.03143834 -0.03143252 -0.03140973 -0.03136885 -0.03130861
 -0.03122898 -0.03112533 -0.03099752 -0.03084568 -0.03067161 -0.03049232 -0.03031193 -0.03016082 -0.03004055 -0.02997472
 -0.02995612 -0.02998422 -0.03004319 -0.03010987 -0.03017188 -0.03020463 -0.03021298 -0.03018891 -0.03015307 -0.03011262
 -0.03008586 -0.03008182 -0.0301039 -0.0301559 -0.03022848 -0.03032146 -0.03042173 -0.0305282 -0.0306312 -0.03073028
 -0.03082308 -0.03090989 -0.03099339 -0.03107289 -0.03114689 -0.03121311 -0.03126285 -0.03129578 -0.03130439 -0.0312959
 -0.03127484 -0.03125631 -0.03125684 -0.03128944 -0.03137146 -0.03149889 -0.03167891 -0.03188661 -0.0321174 -0.03234253
 -0.03255389 -0.03273927 -0.03289476 -0.03302467 -0.03312883 -0.03321439 -0.03328176 -0.03333936 -0.03338819 -0.03344269
 -0.03350288 -0.03357805 -0.03366423 -0.03375311 -0.03384159 -0.03391591 -0.03398253 -0.03404374 -0.03411018 -0.03419628
 -0.03430152 -0.03443387 -0.03457742 -0.03472788 -0.03486709 -0.0349871 -0.03508104 -0.03514394 -0.0351854 -0.03520428
 -0.03522469 -0.03524823 -0.03529959 -0.03537994 -0.03549395 -0.03563972 -0.03579758 -0.03596533 -0.03611981 -0.03626272
 -0.03638684 -0.03649608 -0.03659591 -0.03668828 -0.03677885 -0.03686715 -0.03695492 -0.03704086 -0.03712504 -0.03720476
 -0.03727914 -0.03734456 -0.03739889 -0.03744306 -0.03747541 -0.03750612 -0.03753568 -0.03757882 -0.03763716 -0.03771659
 -0.03781734 -0.03792945 -0.03805172 -0.03816668 -0.03827433 -0.03836478 -0.03844063 -0.03850514 -0.03856119 -0.03861733
 -0.03867383 -0.03873512 -0.03879977 -0.03886708 -0.03893832 -0.0390132 -0.0390962 -0.03918982 -0.03929584 -0.0394168
 -0.03954674 -0.03968554 -0.03982357 -0.0399592 -0.04008763 -0.04020799 -0.04032237 -0.04043086 -0.04053804 -0.04064403
 -0.04075199 -0.04086155 -0.04097269 -0.04108439 -0.04119322 -0.04129848 -0.04139653 -0.04148821 -0.04157274 -0.0416524
 -0.04172954 -0.04180524 -0.04188196 -0.04195682 -0.04203015 -0.04209489 -0.04214863 -0.04218652 -0.04220497 -0.04221304
 -0.04220955 -0.04221929 -0.04224417 -0.04230667 -0.04240798 -0.04254529 -0.04271619 -0.04289076 -0.0430658 -0.04320626
 -0.0433142 -0.04337509 -0.04339956 -0.0434026 -0.04339842 -0.04341786 -0.04346471 -0.04356013 -0.04368675 -0.04384171
 -0.04399796 -0.04413804 -0.04425494 -0.04433757 -0.04440771 -0.04446826 -0.044539 -0.0446265 -0.04471735 -0.04481235
 -0.04487633 -0.04490744 -0.04488939 -0.04482462 -0.04473829 -0.04463606 -0.04456453 -0.04452441 -0.04454589 -0.04461928
 -0.0447391 -0.04489128 -0.04504918 -0.0452084 -0.04535111 -0.04548589 -0.04561476 -0.04574188 -0.04587419 -0.04599739
 -0.04610853 -0.04619317 -0.04624353 -0.04627292 -0.04628025 -0.04629516 -0.04632147 -0.04636323 -0.04642083 -0.04646472
 -0.04649384 -0.04648497 -0.04644246 -0.04637939 -0.04630203 -0.04624119 -0.04619601 -0.04618131 -0.04618986 -0.04621585
 -0.04625501 -0.04629868 -0.0463498 -0.04640714 -0.04647643 -0.0465607 -0.04666274 -0.0467853 -0.0469248 -0.04708261
 -0.04724589 -0.04741414 -0.04756721 -0.04770301 -0.04780851 -0.04788283 -0.04793561 -0.04796859 -0.04800826 -0.04805511
 -0.048127 -0.04821948 -0.04832696 -0.04844322 -0.04854994 -0.04864548 -0.04871767 -0.04877108 -0.04880513 -0.04882776
 -0.04884442 -0.04886263 -0.04888858 -0.04892369 -0.04897175 -0.04902392 -0.04907937 -0.04912693 -0.04916317 -0.04919253
 -0.04921389 -0.04924987 -0.04930169 -0.04938406 -0.04949553 -0.04961879 -0.04975004 -0.04985489 -0.04993572 -0.04998016
 -0.04999889 -0.05001227 -0.05002663 -0.05006536 -0.0501198 -0.05019072 -0.05026415 -0.05032676 -0.05037749 -0.05040944
 -0.0504349 -0.05045765 -0.05048395 -0.05051871 -0.05054978 -0.05057675 -0.05058223 -0.05056339 -0.05052222 -0.05045851
 -0.05040116 -0.05035192 -0.05034331 -0.05037348 -0.0504492 -0.05056332 -0.05069371 -0.0508337 -0.0509554 -0.05105747
 -0.05112495 -0.05115981 -0.05115836 -0.05112394 -0.05105649 -0.0509639 -0.05084843 -0.05072333 -0.05059338 -0.05047018
 -0.0503583 -0.05026026 -0.05017811 -0.05010511 -0.05004144 -0.04997298 -0.04989899 -0.04980112 -0.04967871 -0.04951787
 -0.04932052 -0.04909045 -0.04883257 -0.04856732 -0.04829782 -0.04804317 -0.04780098 -0.047576 -0.04736434 -0.04716246
 -0.04696978 -0.04678519 -0.04660707 -0.0464361 -0.04626395 -0.04608787 -0.04590076 -0.04569811 -0.04548792 -0.04526897
 -0.04506277 -0.04487127 -0.04471144 -0.04458451 -0.04449025 -0.04442786 -0.04438424 -0.04435875 -0.04434007 -0.04432958
 -0.04432693 -0.04433268 -0.04435008 -0.04437391 -0.0443982 -0.04441445 -0.04440871 -0.04438007 -0.04432066 -0.04424024
 -0.04414201 -0.0440345 -0.04392338 -0.04380623 -0.04368396 -0.04355058 -0.04340439 -0.04324714 -0.04307822 -0.0429073
 -0.04273482 -0.04257486 -0.04242834 -0.04231192 -0.04222613 -0.04218375 -0.04218284 -0.04222373 -0.04230218 -0.04240775
 -0.04253752 -0.04268107 -0.04283905 -0.04300691 -0.04318989 -0.04338832 -0.04361499 -0.04387514 -0.04418569 -0.04455642
 -0.04498905 -0.04549131 -0.04603221 -0.04661128 -0.04717716 -0.0477243 -0.04821755 -0.04865402 -0.04903493 -0.04936145
 -0.04965499 -0.04991616 -0.05015946 -0.05038341 -0.0505891 -0.05077679 -0.05094656 -0.05110202 -0.05124965 -0.05139209
 -0.05153693 -0.05167989 -0.05182181 -0.0519524 -0.05206601 -0.05215529 -0.05221429 -0.05224686 -0.05225135 -0.05224029
 -0.05221552 -0.05218679 -0.05215598 -0.05212128 -0.0520828 -0.05203119 -0.05196643 -0.05188686 -0.05179506 -0.05170723
 -0.05162722 -0.05158015 -0.05156522 -0.05159553 -0.05166265 -0.05175912 -0.05187372 -0.05198939 -0.05209964 -0.0521923
 -0.05226803 -0.052323 -0.05236273 -0.05238808 -0.05240544 -0.05241672 -0.0524259 -0.05243392 -0.05244299 -0.05245291
 -0.05247119 -0.05249804 -0.0525521 -0.05263477 -0.052772 -0.05296413 -0.05322845 -0.05355961 -0.05394879 -0.05438314
 -0.05482599 -0.05526466 -0.05565699 -0.05600389 -0.05628551 -0.05651904 -0.05671117 -0.05688076 -0.05704254 -0.05720156
 -0.05736507 -0.05752586 -0.05768372 -0.05783028 -0.05796373 -0.05808047 -0.05817951 -0.05826333 -0.05833189 -0.05839374
 -0.05844936 -0.05850793 -0.0585691 -0.05863529 -0.05870461 -0.05877079 -0.05883206 -0.05887997 -0.05891522 -0.05893402
 -0.0589408 -0.05893844 -0.05893421 -0.05893509 -0.0589469 -0.05897623 -0.05902176 -0.05908642 -0.05915976 -0.05924107
 -0.05931412 -0.05937582 -0.05941526 -0.05942988 -0.05942424 -0.05939814 -0.05936957 -0.05933924 -0.05932078 -0.05931276
 -0.05931104 -0.05931375 -0.05930937 -0.05930061 -0.05928766 -0.05927661 -0.05928027 -0.05929882 -0.05934064 -0.05939535
 -0.05945802 -0.05951598 -0.05955914 -0.05958373 -0.05958423 -0.05956692 -0.05953142 -0.05948871 -0.05944013 -0.05939747
 -0.05936223 -0.05934275 -0.05933989 -0.0593526 -0.05938046 -0.0594135 -0.05945116 -0.05948417 -0.05951326 -0.05953638
 -0.05955505 -0.05957234 -0.05958933 -0.05960955 -0.05963313 -0.05966208 -0.05969492 -0.05973216 -0.05976876 -0.05980302
 -0.05982675 -0.05983598 -0.05982599 -0.05979256 -0.05974425 -0.05968009 -0.05962082 -0.05956881 -0.05953854 -0.05953164
 -0.05953911 -0.05955995 -0.05957207 -0.05957588 -0.05956354 -0.0595389 -0.05951493 -0.05949333 -0.05948737 -0.0594921
 -0.05950523 -0.05951986 -0.05952512 -0.05951906 -0.05949477 -0.05945664 -0.05940394 -0.05934599 -0.05928522 -0.05923385
 -0.05919563 -0.05917967 -0.0591896 -0.05922164 -0.05927698 -0.05933863 -0.05940565 -0.05946024 -0.05950199 -0.05952652
 -0.05953507 -0.05953588 -0.05952955 -0.05952374 -0.05951667 -0.05950705 -0.05949359 -0.05947155 -0.05944491 -0.05941566
 -0.05939123 -0.05938002 -0.05938388 -0.05940927 -0.05944564 -0.05949166 -0.05953193 -0.05956069 -0.05957303 -0.0595655
 -0.05954719 -0.05951835 -0.05949096 -0.05946602 -0.05944742 -0.05943518 -0.05942822 -0.05942637 -0.05942835 -0.05943351
 -0.05943872 -0.05944263 -0.05943917 -0.05942901 -0.05940951 -0.05938461 -0.05935853 -0.05933438 -0.05931724 -0.05930635
 -0.05930277 -0.05930501 -0.05931228 -0.05932514 -0.05934416 -0.05936716 -0.05939481 -0.05941868 -0.05943795 -0.05944497
 -0.05943884 -0.05942282 -0.05939734 -0.05937402 -0.05935303 -0.05934145 -0.05933757 -0.05933748 -0.05933971 -0.05933722
 -0.05933143 -0.05932161 -0.05930994 -0.05929986 -0.05929055 -0.05928293 -0.05927435 -0.05926268 -0.05924856 -0.05923079
 -0.05921426 -0.05920004 -0.05919257 -0.05919329 -0.05920234 -0.05922027 -0.05924273 -0.05926952 -0.05929504 -0.0593191
 -0.05933899 -0.05935491 -0.05936764 -0.05937701 -0.05938292 -0.05938441 -0.05937814 -0.05936468 -0.05934257 -0.05931529
 -0.05928695 -0.05926039 -0.05924078 -0.05922627 -0.05921796 -0.05921094 -0.05920288 -0.05919205 -0.05917684 -0.05915974
 -0.059141 -0.05912271 -0.05910537 -0.05908812 -0.05907096 -0.05905211 -0.05903158 -0.05900999 -0.05898752 -0.05896614
 -0.05894567 -0.0589264 -0.05890813 -0.05889021 -0.05887306 -0.05885734 -0.05884315 -0.05883146 -0.05882052 -0.05880913
 -0.05879555 -0.05877735 -0.05875698 -0.05873393 -0.05871466 -0.05870144 -0.05869687 -0.05870311 -0.05871285 -0.05872604
 -0.05873057 -0.05872538 -0.05870562 -0.05867138 -0.05863034 -0.05858349 -0.05854284 -0.05850837 -0.0584867 -0.05847629
 -0.05847628 -0.05848465 -0.05849719 -0.05851185 -0.05852427 -0.05853256 -0.05853318 -0.05852569 -0.05850813 -0.05848283
 -0.05844969 -0.05841339 -0.05837481 -0.05833984 -0.0583098 -0.05828876 -0.05827778 -0.05827562 -0.05828256 -0.05829079
 -0.05829986 -0.05830009 -0.0582914 -0.05826867 -0.05823303 -0.05818662 -0.05813148 -0.05807454 -0.05801776 -0.05796868
 -0.05792765 -0.05789892 -0.05788029 -0.05787158 -0.05786917 -0.05787072 -0.05787311 -0.05787428 -0.05787277 -0.05786779
 -0.05785834 -0.05784412 -0.05782432 -0.05779863 -0.05776809 -0.05773259 -0.0576963 -0.05765947 -0.05762774 -0.05760116
 -0.05758255 -0.05757127 -0.05756591 -0.05756538 -0.05756562 -0.05756592 -0.05756264 -0.0575561 -0.05754488 -0.05753046
 -0.05751391 -0.05749617 -0.05747844 -0.05746041 -0.05744203 -0.05742363 -0.05740484 -0.05738812 -0.0573741 -0.05736355
 -0.05735718 -0.05735015 -0.05734221 -0.05732768 -0.05730642 -0.05727997 -0.05724908 -0.05722194 -0.05719877 -0.05718559
 -0.05718064 -0.05718207 -0.05718703 -0.0571886 -0.05718534 -0.05717171 -0.05714886 -0.05711531 -0.05707449 -0.05702782
 -0.05697966 -0.05693196 -0.0568894 -0.05685384 -0.05682825 -0.05681416 -0.05680962 -0.05681522 -0.05682314 -0.05683293
 -0.05683588 -0.05683165 -0.05681784 -0.05679514 -0.05676931 -0.05674125 -0.05671903 -0.05670188 -0.05669231 -0.05668748
 -0.05668266 -0.0566755 -0.05665975 -0.05663646 -0.05660388 -0.05656525 -0.05652249 -0.05647746 -0.05643177 -0.05638535
 -0.05633814 -0.05629154 -0.05624538 -0.05620358 -0.05616666 -0.05613745 -0.05611635 -0.05610229 -0.05609519 -0.05609095
 -0.05608936 -0.05608672 -0.05608298 -0.05607601 -0.05606573 -0.05605069 -0.05603104 -0.05600579 -0.05597675 -0.05594553
 -0.05591546 -0.05589106 -0.05587296 -0.05586461 -0.05586018 -0.05585884 -0.05585163 -0.055835 -0.05580522 -0.05575954
 -0.05570461 -0.0556401 -0.05557964 -0.0555243 -0.05548485 -0.05546169 -0.05545358 -0.05545936 -0.05546647 -0.05547367
 -0.05546737 -0.05544868 -0.05541313 -0.05536452 -0.05530835 -0.05524899 -0.05519595 -0.05515002 -0.05511691 -0.05509183
 -0.05507404 -0.05505635 -0.05503422 -0.05500645 -0.05497047 -0.05493229 -0.05489268 -0.05485715 -0.0548271 -0.05480121
 -0.05477963 -0.05475761 -0.05473493 -0.05470993 -0.05468286 -0.05465588 -0.05462947 -0.05460717 -0.0545894 -0.05457919
 -0.05457711 -0.05458573 -0.05460564 -0.05463884 -0.05468558 -0.05474687 -0.05482263 -0.05491304 -0.05501837 -0.05513911
 -0.05527432 -0.05542589 -0.05558306 -0.05574569 -0.05589391 -0.05602424 -0.05612731 -0.05620056 -0.05626478 -0.05632104
 -0.05639579 -0.05648756 -0.05658896 -0.05669526 -0.05677557 -0.0568303 -0.05684575 -0.05682244 -0.05675604 -0.05664404
 -0.05647577 -0.05626391 -0.05601347 -0.05574937 -0.05549169 -0.05525575 -0.05505592 -0.05489286 -0.05477175 -0.05468128
 -0.05462129 -0.05457326 -0.05453382 -0.05449527 -0.0544557 -0.05442775 -0.05441195 -0.05441556 -0.05443777 -0.05447125
 -0.05451493 -0.05456022 -0.05460501 -0.0546384 -0.05465731 -0.05464781 -0.05461254 -0.05454811 -0.05446173 -0.05436131
 -0.05424767 -0.054124 -0.05398925 -0.05384071 -0.05368925 -0.05353658 -0.05339777 -0.05327777 -0.05317917 -0.05310393
 -0.05304464 -0.05300101 -0.05296481 -0.05293557 -0.05290262 -0.05286546 -0.05281406 -0.05274979 -0.05267443 -0.05259136
 -0.05251378 -0.05244219 -0.05238568 -0.05233962 -0.05230096 -0.05226487 -0.05222369 -0.05217835 -0.05212598 -0.05207239
 -0.05201994 -0.0519727 -0.05193365 -0.05190017 -0.05187284 -0.05184495 -0.05181544 -0.05178047 -0.0517394 -0.05169291
 -0.05164103 -0.0515846 -0.05152364 -0.05145821 -0.0513888 -0.05131795 -0.05124685 -0.05118114 -0.05112121 -0.05107116
 -0.05102977 -0.05099714 -0.05097124 -0.05095001 -0.05093149 -0.0509137 -0.05089507 -0.05087406 -0.0508508 -0.05082448
 -0.05079786 -0.05077117 -0.05074824 -0.05072998 -0.05071691 -0.05070955 -0.05070205 -0.05069409 -0.05067708 -0.05065098
 -0.05061249 -0.05056285 -0.05050747 -0.05044768 -0.05039119 -0.05033788 -0.05029156 -0.05025107 -0.05021633 -0.05018603
 -0.05015912 -0.05013331 -0.05010683 -0.05007707 -0.05004175 -0.05000108 -0.04995387 -0.04990444 -0.04985323 -0.04980566
 -0.04976283 -0.04972679 -0.04969808 -0.04967419 -0.04965502 -0.04963568 -0.04961601 -0.04959266 -0.04956592 -0.04953567
 -0.04950234 -0.0494674 -0.04943088 -0.04939349 -0.04935529 -0.04931642 -0.04927772 -0.04923989 -0.04920456 -0.04917321
 -0.04914684 -0.04912702 -0.04911173 -0.04910136 -0.04909064 -0.04907851 -0.04906047 -0.04903524 -0.04900346 -0.04896481
 -0.04892383 -0.04888077 -0.04883924 -0.04879921 -0.04876106 -0.04872442 -0.04868726 -0.04864929 -0.0486081 -0.04856417
 -0.04851725 -0.04846838 -0.04841932 -0.04837042 -0.04832306 -0.04827646 -0.04823004 -0.04818448 -0.04813924 -0.04809786
 -0.04806167 -0.0480326 -0.04801201 -0.04799718 -0.04798812 -0.04798055 -0.04797393 -0.04796714 -0.04796007 -0.04795285
 -0.04794524 -0.04793424 -0.04791944 -0.04789639 -0.04786585 -0.04782754 -0.047784 -0.04774118 -0.04770109 -0.04767072
 -0.04764829 -0.0476356 -0.04762706 -0.04761898 -0.04760658 -0.0475853 -0.04755636 -0.04751821 -0.04747709 -0.04743427
 -0.04739432 -0.04735876 -0.04732561 -0.04729514 -0.04726075 -0.04722207 -0.04717451 -0.04711831 -0.04705591 -0.04698851
 -0.04692477 -0.04686577 -0.04682055 -0.04678821 -0.04677207 -0.04676822 -0.04677228 -0.04677933 -0.0467816 -0.04677711
 -0.04676066 -0.04673557 -0.04670146 -0.04666446 -0.04662697 -0.04659244 -0.0465629 -0.04653626 -0.0465128 -0.04648815
 -0.04646173 -0.04643255 -0.04640048 -0.04636865 -0.04633717 -0.04630829 -0.04628144 -0.04625419 -0.0462258 -0.04619186
 -0.04615286 -0.04610727 -0.04605709 -0.04600473 -0.04595261 -0.04590483 -0.04586176 -0.04582598 -0.04579405 -0.0457652
 -0.04573488 -0.04570032 -0.0456626 -0.04562042 -0.04558118 -0.04554608 -0.04551966 -0.04550318 -0.0454904 -0.04548107
 -0.0454638 -0.04543841 -0.04540017 -0.04535053 -0.04529619 -0.04523911 -0.04519088 -0.04515112 -0.04512592 -0.04511106
 -0.04510273 -0.04509548 -0.04508056 -0.04505677 -0.04501862 -0.04497173 -0.04491648 -0.04486249 -0.04481361 -0.04477615
 -0.04475346 -0.04474346 -0.0447472 -0.0447554 -0.04476739 -0.04477379 -0.04477395 -0.04476422 -0.04474473 -0.04471715
 -0.04468191 -0.04464251 -0.0445994 -0.04455614 -0.0445131 -0.0444731 -0.04443611 -0.04440376 -0.0443748 -0.04434883
 -0.04432343 -0.04429657 -0.04426622 -0.04423007 -0.04418943 -0.04414354 -0.0440972 -0.04405167 -0.0440097 -0.0439724
 -0.04393795 -0.04390629 -0.04387566 -0.04384588 -0.04381937 -0.04379618 -0.04377804 -0.04376421 -0.04375067 -0.04373648
 -0.0437155 -0.04368829 -0.04365256 -0.04361084 -0.04356625 -0.04352169 -0.04348211 -0.04344859 -0.04342436 -0.04340734
 -0.04339762 -0.04339194 -0.04338923 -0.04338657 -0.04338354 -0.04337532 -0.04336119 -0.04333644 -0.04329998 -0.04325496
 -0.04320137 -0.04315034 -0.04310221 -0.04306417 -0.04303519 -0.04301175 -0.04299238 -0.04296936 -0.04294206 -0.04290487
 -0.04285826 -0.04279961 -0.04273213 -0.04265733 -0.04258206 -0.04251261 -0.04245385 -0.04241184 -0.04238341 -0.04236999
 -0.0423625 -0.04235907 -0.04235172 -0.04233846 -0.04231657 -0.04228516 -0.04224755 -0.04220385 -0.04215927 -0.04211387
 -0.0420686 -0.04202316 -0.04197539 -0.04192605 -0.04187699 -0.04182954 -0.04178892 -0.0417539 -0.04172537 -0.04170009
 -0.04167379 -0.04164581 -0.04161338 -0.04157901 -0.0415437 -0.04150838 -0.04147423 -0.04143908 -0.04140245 -0.04136311
 -0.04132038 -0.04127635 -0.04123112 -0.04118712 -0.04114455 -0.0411034 -0.04106361 -0.04102376 -0.04098405 -0.04094518
 -0.04090772 -0.04087473 -0.04084587 -0.04082232 -0.04080222 -0.04078289 -0.04076247 -0.04073714 -0.04070691 -0.04067009
 -0.04062845 -0.04058222 -0.04053406 -0.04048497 -0.04043739 -0.04039244 -0.04035028 -0.04031137 -0.04027386 -0.04023769
 -0.0402007 -0.04016277 -0.04012149 -0.04007675 -0.04002614 -0.03997001 -0.03990946 -0.0398456 -0.03978379 -0.0397245
 -0.03967229 -0.03962576 -0.03958442 -0.03954696 -0.03951111 -0.03947721 -0.03944489 -0.03941425 -0.03938568 -0.03935781
 -0.03933025 -0.0393017 -0.03927173 -0.03923964 -0.03920541 -0.03916749 -0.03912573 -0.03907847 -0.03902551 -0.03896825
 -0.03890696 -0.03884691 -0.03878864 -0.03873879 -0.03869706 -0.03866642 -0.03864489 -0.03862901 -0.03861613 -0.03859953
 -0.03857817 -0.0385475 -0.03850891 -0.03846159 -0.03840871 -0.03835146 -0.03829405 -0.03823857 -0.03818748 -0.03814256
 -0.03810141 -0.0380642 -0.03802632 -0.0379871 -0.03794498 -0.03789974 -0.03785314 -0.03780531 -0.03775886 -0.03771396
 -0.03767337 -0.03763684 -0.03760572 -0.03757773 -0.03754777 -0.03751268 -0.03746273 -0.0373998 -0.03732028 -0.03723288
 -0.03714409 -0.03706088 -0.03699046 -0.0369327 -0.03689012 -0.03685764 -0.03683497 -0.0368147 -0.03679576 -0.03677052
 -0.03673788 -0.03669352 -0.0366369 -0.03657021 -0.0364938 -0.03641567 -0.03633644 -0.03626496 -0.03620091 -0.03614834
 -0.03610504 -0.03606727 -0.03603256 -0.03599394 -0.03595144 -0.03590184 -0.03584718 -0.03578801 -0.03572676 -0.03566495
 -0.03560476 -0.03554796 -0.03549372 -0.03544304 -0.03539035 -0.03533481 -0.03527181 -0.03520016 -0.03512257 -0.035039
 -0.03495662 -0.03487571 -0.03480064 -0.0347311 -0.03466683 -0.03460706 -0.03454846 -0.03449025 -0.0344281 -0.03436272
 -0.03429277 -0.03422084 -0.03414986 -0.03408182 -0.03402019 -0.03396413 -0.03391465 -0.0338688 -0.03382589 -0.0337823
 -0.03373715 -0.03368638 -0.03362899 -0.03356282 -0.03348714 -0.03340458 -0.03331522 -0.03322305 -0.03312815 -0.03303079
 -0.03293088 -0.03282735 -0.03272107 -0.03261535 -0.03251129 -0.0324145 -0.03232378 -0.03223995 -0.03216032 -0.03208106
 -0.03200179 -0.0319201 -0.03183869 -0.03175871 -0.03168191 -0.03161041 -0.03154061 -0.03147227 -0.03140025 -0.03132333
 -0.03123946 -0.03114822 -0.031049 -0.03094174 -0.03082568 -0.03070098 -0.03057264 -0.03044146 -0.03031693 -0.03019875
 -0.03009153 -0.02999259 -0.02989733 -0.0298018 -0.02969539 -0.02957748 -0.02944063 -0.02929202 -0.02913459 -0.02897819
 -0.02883194 -0.02869532 -0.02857359 -0.02845087 -0.02832363 -0.0281785 -0.02800918 -0.02782792 -0.02763455 -0.02744996
 -0.02727631 -0.02711282 -0.02695909 -0.02680033 -0.02663657 -0.02646171 -0.02627738 -0.02608874 -0.02589528 -0.02569869
 -0.02549626 -0.02528207 -0.02505756 -0.02482093 -0.02457806 -0.02433503 -0.02409262 -0.02385414 -0.02361561 -0.0233755
 -0.0231328 -0.02288648 -0.02263866 -0.02239095 -0.02213673 -0.02187681 -0.02159058 -0.02127611 -0.02092705 -0.02054416
 -0.02016342 -0.01978603 -0.01944003 -0.01911946 -0.01881005 -0.01850696 -0.01818703 -0.01785202 -0.01749432 -0.01711749
 -0.01672545 -0.01631481 -0.01588662 -0.01542821 -0.01493098 -0.01438767 -0.01378683 -0.01315024 -0.01247793 -0.01180946
 -0.01115438 -0.01053009 -0.009941693 -0.009381932 -0.008851107 -0.008332768 -0.007825737 -0.007303066 -0.006762378 -0.006166482
 -0.005520698 -0.004824398 -0.004097746 -0.003407647 -0.002754616 -0.002178822 -0.00165456 -0.001160245 -0.0006799635 -0.0001864079
 0.0003161025 0.0008336524 0.001356462 0.001879985 0.002403173 0.002925367 0.003443861 0.003958472 0.004463921 0.0049586
 0.005448452 0.005934164 0.006414207 0.006887899 0.007326406 0.007728916 0.008073369 0.008365774 0.008622798 0.008852991
 0.009094458 0.00934408 0.009619263 0.009899326 0.01015816 0.0103906 0.0105762 0.01073367 0.01087063 0.01099893
 0.01112828 0.01125574 0.01138309 0.01150283 0.01161368 0.01171058 0.01179315 0.01185402 0.01189276 0.0118991
 0.01187281 0.01181817 0.01173709 0.01165063 0.01155938 0.01147741 0.01140329 0.01133939 0.01128534 0.01124082
 0.01120765 0.0111887 0.01118434 0.01119631 0.01122345 0.0112645 0.01132197 0.01139647 0.01149122 0.01160896
 0.01174383 0.01189556 0.01205583 0.01222263 0.01239839 0.01258293 0.01278371 0.01300104 0.01323699 0.01349109
 0.01375962 0.01404171 0.01433155 0.01462769 0.01492245 0.01521519 0.01549982 0.01577908 0.01605349 0.01632817
 0.0166082 0.01689826 0.01720346 0.01752542 0.01786739 0.01822471 0.01859758 0.0189771 0.01936156 0.01974395
 0.02012332 0.02049343 0.02085379 0.02119749 0.02152435 0.02183716 0.02213723 0.02244093 0.02274689 0.02305923
 0.0233699 0.02365408 0.0239084 0.02411238 0.02426944 0.02437779 0.02443599 0.02444129 0.02439462 0.02429352
 0.02414718 0.02396282 0.02373354 0.02346521 0.02311852 0.02268331 0.02214435 0.0214881 0.02080223 0.02009337
 0.01942272 0.01879245 0.0181648 0.01753765 0.01687471 0.01617971 0.01545403 0.01470166 0.01394045 0.01316199
 0.01236388 0.01151875 0.01057754 0.009540762 0.008360944 0.007140421 0.005938685 0.004829588 0.0038889 0.003055807
 0.002328014 0.001639029 0.0009673588 0.000308512 -0.0003431572 -0.0009638899 -0.001551204 -0.002103844 -0.002621932 -0.003127968
 -0.003622618 -0.00412178 -0.004622778 -0.005120299 -0.005610062 -0.006074558 -0.006513093 -0.006913593 -0.007282387 -0.007622228
 -0.007943491 -0.008257283 -0.008573393 -0.008900689 -0.009250338 -0.009630527 -0.01004637 -0.01051018 -0.01098141 -0.0114585
 -0.01187525 -0.01221594 -0.01248889 -0.01269118 -0.01287483 -0.01304232 -0.01322383 -0.01341804 -0.01362018 -0.01382712
 -0.01401855 -0.01419531 -0.01435028 -0.01448422 -0.01459748 -0.01468485 -0.01473773 -0.01475418 -0.01472589 -0.01466228
 -0.01456702 -0.01444991 -0.0143177 -0.01417272 -0.01401772 -0.01385079 -0.01367348 -0.01347541 -0.01325746 -0.0129927
 -0.01267885 -0.01229308 -0.01183451 -0.01133678 -0.01080467 -0.01030681 -0.009842039 -0.009439458 -0.009092967 -0.008796728
 -0.008547743 -0.008337953 -0.008162893 -0.00801599 -0.007883303 -0.007751001 -0.007597783 -0.007399277 -0.007157286 -0.006856417
 -0.00654233 -0.006229192 -0.005943244 -0.00569904 -0.005474261 -0.005268741 -0.005052506 -0.004821903 -0.004571308 -0.004300402
 -0.004028533 -0.003756398 -0.003499006 -0.003253981 -0.003016236 -0.0027819 -0.002535123 -0.002273778 -0.00198443 -0.001668899
 -0.001323954 -0.0009525487 -0.0005573183 -0.0001385628 0.0003038848 0.0007659588 0.001248434 0.001737311 0.002228446 0.002709187
 0.003173491 0.003627575 0.004069719 0.004522053 0.004986938 0.005474325 0.005984718 0.00648788 0.006980686 0.007414836
 0.007790494 0.008084144 0.008298312 0.008430529 0.008479942 0.008443358 0.00831929 0.008102247 0.007796299 0.007401941
 0.006928816 0.006384259 0.005775351 0.005108462 0.00438392 0.003601509 0.002767505 0.001877946 0.0009685893 4.097472E-05
 -0.0008499281 -0.001697729 -0.002481356 -0.003199429 -0.003876184 -0.004512789 -0.005132078 -0.00573074 -0.00630083 -0.006838388
 -0.00732294 -0.007758346 -0.00814173 -0.008482462 -0.008794473 -0.0090842 -0.009364695 -0.009637333 -0.009907587 -0.01017395
 -0.01043728 -0.01069486 -0.01094589 -0.01118832 -0.01142115 -0.01164527 -0.01186039 -0.01206997 -0.01227448 -0.01247411
 -0.01266888 -0.01285136 -0.01302102 -0.01316855 -0.01329448 -0.01339728 -0.01347794 -0.01353981 -0.0135821 -0.01360463
 -0.01360627 -0.01358403 -0.01354035 -0.01347563 -0.01339598 -0.01330531 -0.01321106 -0.01311776 -0.01303166 -0.01295576
 -0.01289453 -0.01284936 -0.01282387 -0.01281877 -0.01283691 -0.01287904 -0.0129414 -0.01302383 -0.0131137 -0.01321043
 -0.01330334 -0.01339304 -0.01347842 -0.01355958 -0.01363736 -0.01370908 -0.01376921 -0.01381443 -0.01383598 -0.01383422
 -0.01380447 -0.01375333 -0.01368235 -0.01360408 -0.0135246 -0.0134564 -0.01340655 -0.01337726 -0.01337211 -0.01338085
 -0.01340278 -0.01342637 -0.01345007 -0.01347124 -0.01348962 -0.01351083 -0.01353537 -0.01357142 -0.01361886 -0.01368192
 -0.01375852 -0.01384395 -0.01393506 -0.01402153 -0.01410254 -0.0141715 -0.01423051 -0.01427945 -0.01432037 -0.01435478
 -0.01438446 -0.01441014 -0.01443529 -0.01446125 -0.01449076 -0.01452546 -0.01456266 -0.0146025 -0.01463996 -0.01467429
 -0.01470579 -0.01473444 -0.01476501 -0.01479742 -0.01483176 -0.01486664 -0.0148933 -0.01491055 -0.01490844 -0.01488853
 -0.01484891 -0.01479331 -0.01472724 -0.01465314 -0.01457605 -0.01449696 -0.01441752 -0.01434055 -0.01426751 -0.01420224
 -0.01414726 -0.01410162 -0.0140667 -0.01403485 -0.01400524 -0.01397047 -0.01392938 -0.01388142 -0.01382644 -0.01376956
 -0.01371103 -0.0136554 -0.01360245 -0.01355285 -0.01350631 -0.01346194 -0.0134199 -0.01338005 -0.01334285 -0.01330905
 -0.01327899 -0.01325322 -0.01323234 -0.0132171 -0.01320767 -0.01320431 -0.01320711 -0.01321549 -0.01323254 -0.01325853
 -0.01329817 -0.01335311 -0.01342033 -0.01350058 -0.01357908 -0.01365501 -0.01371405 -0.01375627 -0.01378102 -0.01379005
 -0.01379451 -0.01379583 -0.01380568 -0.01382349 -0.01385454 -0.0138956 -0.01394429 -0.01399569 -0.01404276 -0.01408291
 -0.01411056 -0.0141286 -0.01413638 -0.01413959 -0.01414035 -0.01414238 -0.01414765 -0.01415484 -0.01416452 -0.0141713
 -0.0141747 -0.01417022 -0.0141575 -0.01413823 -0.01411258 -0.01408394 -0.01405168 -0.01401313 -0.01396753 -0.0139096
 -0.01384107 -0.01376325 -0.01367916 -0.01359526 -0.01351197 -0.01343266 -0.01335613 -0.01328234 -0.0132107 -0.01314129
 -0.01307215 -0.0130037 -0.01292941 -0.01284839 -0.01275199 -0.01263858 -0.01250231 -0.01234187 -0.01215971 -0.01195574
 -0.01174183 -0.01151862 -0.01129817 -0.01107999 -0.0108666 -0.01065679 -0.01044663 -0.01023645 -0.01002442 -0.009813023
 -0.009605296 -0.009404653 -0.009216875 -0.009042903 -0.008887861 -0.008743636 -0.008609506 -0.00846942 -0.008315925 -0.008142359
 -0.007942544 -0.007730157 -0.007505586 -0.007287997 -0.007080055 -0.006887851 -0.006712058 -0.006548833 -0.006397936 -0.006255351
 -0.006120529 -0.005988392 -0.005857349 -0.005718538 -0.005570327 -0.005403531 -0.00521858 -0.005010808 -0.004784648 -0.004542589
 -0.004291785 -0.004039647 -0.003789322 -0.003545666 -0.003305987 -0.003069574 -0.002836989 -0.002607277 -0.002386534 -0.002176356
 -0.001976441 -0.00178758 -0.001600671 -0.001415092 -0.001228215 -0.001040283 -0.0008571159 -0.0006783216 -0.0005040239 -0.0003328054
 -0.0001582505 1.911749E-05 0.0002017433 0.0003871481 0.0005725693 0.0007544305 0.0009279465 0.00108833 0.001229113 0.001349852
 0.001446185 0.001527421 0.001595218 0.001661496 0.001729967 0.001807484 0.001895969 0.001998375 0.002115706 0.002244315
 0.002384208 0.00252378 0.002662754 0.002795669 0.002924277 0.003059271 0.003201801 0.003363931 0.003541892 0.003733196
 0.003930524 0.004120491 0.004295055 0.004438986 0.004546634 0.004605781 0.004621177 0.00458922 0.004526285 0.004437599
 0.004337681 0.004232548 0.004125364 0.004017906 0.003908618 0.003797347 0.003684445 0.003569832 0.003457169 0.003346942
 0.003248832 0.003163599 0.003102302 0.00306369 0.003048776 0.003055103 0.003076251 0.003111369 0.003157199 0.003210241
 0.003266892 0.003318024 0.003353408 0.00337005 0.003360091 0.003334846 0.003296641 0.003256918 0.003220905 0.003187348
 0.003157483 0.003124473 0.003087827 0.003041112 0.002983978 0.002907369 0.002811016 0.002690038 0.002545741 0.002385613
 0.002211519 0.002035664 0.001858111 0.001685323 0.001516354 0.001352951 0.001192728 0.001034093 0.0008727909 0.0007037651
 0.0005265233 0.0003377604 0.0001437588 -5.341233E-05 -0.0002497245 -0.0004420933 -0.0006364257 -0.0008327951 -0.001040108 -0.001259877
 -0.001493446 -0.001741339 -0.001992733 -0.00224682 -0.00248641 -0.002711811 -0.002916388 -0.003103542 -0.003284986 -0.003462357
 -0.00364806 -0.003837412 -0.004027031 -0.004213301 -0.004387642 -0.004555458 -0.004718156 -0.00488232 -0.005054263 -0.005231469
 -0.005415206 -0.00559896 -0.005780704 -0.005957966 -0.006129841 -0.006296015 -0.00645631 -0.006611006 -0.006760032 -0.006906316
 -0.00704999 -0.007193692 -0.007337105 -0.007479134 -0.007618872 -0.007752036 -0.007877485 -0.007989403 -0.008088211 -0.008170794
 -0.008241204 -0.008303506 -0.008361028 -0.008419993 -0.00847641 -0.008529748 -0.008575619 -0.008609901 -0.008638867 -0.008663279
 -0.008689872 -0.008721661 -0.008751763 -0.008779935 -0.008797382 -0.008803063 -0.008803342 -0.008798666 -0.008799999 -0.008806458
 -0.008815602 -0.008825718 -0.008826971 -0.008820449 -0.00880366 -0.008779649 -0.008753598 -0.008726519 -0.008702599 -0.008679884
 -0.008658049 -0.008635193 -0.008609552 -0.008581634 -0.008551756 -0.008518457 -0.008482518 -0.008436727 -0.008379223 -0.008308209
 -0.008221488 -0.008137075 -0.008055866 -0.008000067 -0.007969952 -0.007961883 -0.007973106 -0.007977691 -0.007975675 -0.007952073
 -0.00791212 -0.007863536 -0.007809998 -0.007763201 -0.007722275 -0.007690816 -0.00766727 -0.007651651 -0.007641879 -0.007637687
 -0.007633746 -0.007627627 -0.007615757 -0.00759522 -0.007571139 -0.007543519 -0.007520613 -0.007504344 -0.007491578 -0.007482769
 -0.007459928 -0.007422224 -0.007353885 -0.007256393 -0.007134628 -0.006992754 -0.006852525 -0.00671644 -0.006603704 -0.006512851
 -0.006451305 -0.006413384 -0.006396835 -0.006389637 -0.00638125 -0.006357866 -0.006304471 -0.006223701 -0.006107867 -0.005983478
 -0.005855888 -0.005750745 -0.005676966 -0.00563124 -0.005616009 -0.005607737 -0.005604702 -0.005593101 -0.005572579 -0.005544589
 -0.005508867 -0.00546392 -0.005408193 -0.00533205 -0.005237274 -0.005122435 -0.004993937 -0.004864655 -0.004737412 -0.004623374
 -0.004517654 -0.004419233 -0.004324404 -0.004228705 -0.004136065 -0.004047228 -0.003965418 -0.00389258 -0.003826496 -0.003766786
 -0.003713069 -0.003664961 -0.003625671 -0.003595643 -0.003572062 -0.003554544 -0.003531531 -0.003502268 -0.003454712 -0.003389549
 -0.00330225 -0.003196772 -0.003081471 -0.002962144 -0.002855818 -0.002762457 -0.00269194 -0.002634279 -0.00258348 -0.002530786
 -0.00246619 -0.002393246 -0.002310793 -0.002224491 -0.002137773 -0.002044919 -0.001945652 -0.001832442 -0.001702805 -0.00156562
 -0.001420643 -0.001292542 -0.001182471 -0.00111033 -0.001074665 -0.001071431 -0.001095796 -0.001121979 -0.001147502 -0.001149747
 -0.001133002 -0.001095129 -0.001041169 -0.0009792965 -0.0009072878 -0.0008263505 -0.0007324122 -0.00062101 -0.0004966485 -0.0003577388
 -0.0002187181 -8.2788E-05 3.477504E-05 0.000128987 0.0001980095 0.0002390272 0.0002711849 0.000295485 0.0003338095 0.0003867921
 0.0004522253 0.0005283334 0.0005958134 0.000655792 0.0007027612 0.0007413804 0.0007841852 0.000832157 0.000894483 0.0009673685
 0.001049056 0.001136582 0.001225963 0.001316662 0.001407103 0.001497517 0.001588012 0.001677453 0.001766362 0.001849672
 0.001926605 0.001992057 0.002044589 0.00208715 0.002119652 0.00214931 0.002176422 0.002203603 0.002231108 0.002262218
 0.002297644 0.002344159 0.00239942 0.002460432 0.00252293 0.002574367 0.002617685 0.002650345 0.002680194 0.002716269
 0.0027577 0.002808148 0.002860253 0.002910404 0.002957397 0.003000029 0.003038728 0.003074169 0.003101569 0.003119814
 0.003130277 0.003132552 0.00313709 0.003144348 0.003160234 0.003184295 0.003214151 0.003249063 0.003284633 0.003319592
 0.003346214 0.003367017 0.003380113 0.003397334 0.003435809 0.003502871 0.003619083 0.003765677 0.00394068 0.004110892
 0.004257951 0.004367794 0.004427731 0.004452864 0.004441374 0.004424889 0.004406719 0.004417362 0.004460456 0.004541254
 0.00465963 0.004787861 0.004924089 0.005037364 0.00513051 0.005200576 0.005254411 0.005312506 0.005379008 0.005474732
 0.005595431 0.005747528 0.005914907 0.006085451 0.006240053 0.006358386 0.00643988 0.00647504 0.006483621 0.006469673
 0.006450636 0.006431349 0.00642021 0.006418451 0.006436229 0.006474843 0.006535872 0.00661915 0.00670495 0.006791885
 0.006857723 0.006903282 0.006920684 0.006912898 0.006882468 0.00683822 0.00679857 0.006775115 0.006798467 0.006860151
 0.006967821 0.00709535 0.007221148 0.007344692 0.007451921 0.007580511 0.007745419 0.007950183 0.008208812 0.008452152
 0.008670065 0.008830161 0.008926772 0.00897863 0.00898652 0.008966618 0.008920033 0.008863082 0.008798112 0.008747661
 0.00871073 0.008696711 0.008701569 0.008720722 0.008751712 0.008790803 0.008831073 0.008865012 0.008884107 0.008876418
 0.008849203 0.008801367 0.008746625 0.00869197 0.008634117 0.008573618 0.008505454 0.008427174 0.008351942 0.008280987
 0.00821972 0.008168302 0.008111366 0.008049262 0.007980359 0.007907622 0.007849941 0.007802952 0.007764747 0.007723445
 0.007646795 0.007538985 0.007384066 0.007212976 0.007051291 0.006927793 0.006877956 0.006895919 0.006996315 0.007135334
 0.007303106 0.007456848 0.007578668 0.007680953 0.007760351 0.00785744 0.007978451 0.008102067 0.008227172 0.008298128
 0.008318177 0.008308441 0.008277804 0.00829396 0.008346894 0.008439881 0.008555218 0.008647971 0.008723784 0.008768975
 0.008800977 0.008836994 0.008879478 0.008939738 0.009002859 0.009067386 0.009108493 0.009115733 0.009078899 0.008985628
 0.0088802 0.0087635 0.008706599 0.008718864 0.008803864 0.008961814 0.00912192 0.009282322 0.009398258 0.009476321
 0.009533502 0.009571799 0.009608239 0.009637491 0.009653937 0.00965694 0.009643792 0.009612866 0.009562142 0.00948814
 0.009382606 0.009260817 0.009124746 0.009001041 0.008900769 0.008835165 0.008809375 0.008825253 0.008884628 0.008981911
 0.00911871 0.009259087 0.009401132 0.009502998 0.00956575 0.009592287 0.009585789 0.00956886 0.009536857 0.009482906
 0.009406713 0.009299593 0.009174777 0.009052522 0.00893495 0.008836268 0.008742352 0.008642823 0.008540567 0.008430525
 0.008331864 0.008253371 0.008194465 0.008158587 0.008130821 0.00810824 0.008089489 0.008074058 0.008064413 0.008060657
 0.008053997 0.008043506 0.008016382 0.007970289 0.007884976 0.007758767 0.00756905 0.007328923 0.007052421 0.006765143
 0.006518866 0.006318483 0.006195239 0.006128072 0.006109343 0.006125614 0.006166365 0.006229663 0.006314666 0.006411997
 0.006519489 0.006629506 0.006740143 0.006851238 0.006963636 0.007060295 0.007140287</values></Ydata></AB><ScSm><Ydata ylabel="Single channel"><values byteorder="INTEL" format="FLOAT32" numvalues="1814"> 0.07510972 0.07511534 0.07519727 0.07537179 0.07560183 0.0758195 0.07597068 0.07604558 0.0760617 0.07602612
 0.07594672 0.07587999 0.0759186 0.07610153 0.07635637 0.07654761 0.07658532 0.07650459 0.07644422 0.07651097
 0.07663812 0.07660696 0.07625313 0.07565542 0.07508489 0.07475486 0.07468736 0.0748726 0.07540268 0.0762165
 0.07681446 0.07661712 0.07569434 0.07479566 0.07451886 0.0747387 0.07495618 0.07487153 0.07447645 0.07395074
 0.07371852 0.0743269 0.0759052 0.07773138 0.07850178 0.07715708 0.0736355 0.06910481 0.06553165 0.06462975
 0.06665173 0.07004413 0.07261384 0.07327719 0.07257515 0.07156197 0.07067354 0.06987052 0.06936744 0.06965938
 0.07083687 0.072137 0.07234006 0.0708068 0.06823757 0.0661781 0.06561391 0.06635384 0.06785272 0.06980453
 0.07129905 0.07035217 0.0658621 0.06006833 0.05754238 0.06083824 0.06776704 0.07354252 0.07503875 0.07252986
 0.06828543 0.06469144 0.06335948 0.06469661 0.06783107 0.07133605 0.07409455 0.07535051 0.07452013 0.07170156
 0.06816779 0.06574506 0.06569285 0.0682169 0.07242619 0.07640615 0.07808819 0.07678091 0.07363074 0.07041033
 0.06835389 0.06815942 0.07015476 0.07394958 0.07842518 0.08238915 0.08505969 0.08613089 0.08583082 0.08478107
 0.0835266 0.08244894 0.08209682 0.08284449 0.08400964 0.08411828 0.08251086 0.08021995 0.0789028 0.07912772
 0.07992429 0.07996508 0.07890911 0.07717731 0.07463436 0.07057594 0.06534381 0.06074318 0.05823573 0.05783419
 0.059186 0.06213378 0.06543629 0.06669982 0.06500048 0.06254701 0.06248041 0.065524 0.06961704 0.0724313
 0.07352099 0.07416484 0.07571769 0.07822397 0.0802383 0.07992109 0.07687186 0.07315337 0.07182889 0.07395191
 0.07755254 0.0800564 0.08099508 0.0817094 0.08300783 0.08391299 0.08268215 0.07887945 0.07448424 0.07266681
 0.07502609 0.07998783 0.08394866 0.08394293 0.07963653 0.07339647 0.06844664 0.06664047 0.06796677 0.07177431
 0.07748513 0.08395527 0.08918658 0.09144345 0.0905136 0.08760813 0.08397977 0.0797643 0.07464451 0.06978242
 0.06804508 0.07128932 0.07798141 0.0844788 0.08827953 0.08926255 0.08825786 0.08549096 0.08083031 0.07531102
 0.07163218 0.07205213 0.07566436 0.07891726 0.07933955 0.07779386 0.07663479 0.076772 0.07734308 0.07753432
 0.07774357 0.07890761 0.08116418 0.08351108 0.08477682 0.08468343 0.08388726 0.08321449 0.08290981 0.08246272
 0.0813276 0.08001728 0.08003017 0.0822089 0.08558097 0.08835877 0.08973157 0.09015562 0.09015338 0.089399
 0.08719318 0.0837797 0.08087432 0.08038393 0.08255828 0.08584023 0.08848657 0.08981964 0.09004943 0.08963358
 0.08896874 0.08826785 0.08763663 0.08735813 0.08781517 0.08894795 0.09013239 0.09080591 0.09092899 0.09070943
 0.09020183 0.08938064 0.08842278 0.08771902 0.0875937 0.08805842 0.08885647 0.0896939 0.09034503 0.09060931
 0.09038311 0.08981562 0.08921991 0.08878608 0.08851628 0.08842558 0.08860861 0.08905812 0.08957389 0.08993035
 0.0900565 0.09001377 0.0898731 0.08966272 0.08940044 0.08914426 0.08900453 0.08907104 0.08930174 0.08954084
 0.08969818 0.08984208 0.0900427 0.09020478 0.09016782 0.08992857 0.08965974 0.08952349 0.08954098 0.08963132
 0.08969909 0.08965522 0.08941515 0.088971 0.0884856 0.08823067 0.08837034 0.08884232 0.08946203 0.09005919
 0.0905029 0.09071887 0.09074654 0.09070121 0.0906383 0.0905109 0.09027942 0.09001815 0.08989349 0.09003781
 0.0904293 0.09089994 0.09127365 0.09147871 0.09154053 0.09153925 0.0915824 0.09172663 0.09189548 0.09194946
 0.09186177 0.0917603 0.09177496 0.09189144 0.09197944 0.09194665 0.09184547 0.09181681 0.09193617 0.09214552
 0.09234111 0.09248954 0.09263621 0.09281982 0.09299567 0.09305418 0.09293716 0.09272473 0.09256216 0.09250848
 0.09251658 0.09255597 0.09267016 0.0928821 0.09311119 0.09324125 0.09324969 0.09322506 0.09325301 0.09331489
 0.09331836 0.09321025 0.09303352 0.09288025 0.09281519 0.09284285 0.0929187 0.0929791 0.09297612 0.09290254
 0.09278879 0.09267241 0.09257124 0.09249438 0.09247589 0.09256709 0.09276511 0.09296095 0.09300178 0.0928293
 0.09254515 0.09232176 0.09224431 0.09224644 0.0921972 0.09203396 0.09180181 0.09158552 0.09143203 0.09133499
 0.09126376 0.09119619 0.09114356 0.09115372 0.09126613 0.09144273 0.09156433 0.09152924 0.09135256 0.09114679
 0.09101482 0.09098215 0.09101173 0.09105171 0.09108113 0.09112892 0.0912292 0.09135022 0.09140973 0.09137669
 0.09131634 0.09131981 0.09143062 0.09163871 0.09188752 0.09207918 0.09213655 0.09208481 0.09203237 0.09205885
 0.09215448 0.09227082 0.09238754 0.09251194 0.09264614 0.09278574 0.09294263 0.09314601 0.0934131 0.09372249
 0.09401818 0.0942447 0.09439324 0.09452207 0.09472068 0.09503672 0.09543394 0.09582373 0.09614019 0.09638785
 0.09661976 0.0968727 0.09713736 0.09740002 0.09768815 0.09804125 0.09844843 0.09885288 0.09921803 0.09955765
 0.09989963 0.1002507 0.1006049 0.1009712 0.1013791 0.1018493 0.1023516 0.1028038 0.1031369 0.1033619
 0.1035638 0.1038351 0.1042146 0.1046599 0.1050624 0.1053279 0.105475 0.1056284 0.1058847 0.1062123
 0.1065204 0.1067978 0.1071267 0.1075624 0.1080495 0.108475 0.1087827 0.1090152 0.1092533 0.1095277
 0.1097928 0.1099874 0.1101119 0.1102283 0.1103875 0.1105921 0.1108411 0.111168 0.1115916 0.1120563
 0.1124667 0.1127739 0.1129968 0.1131752 0.1133332 0.1134759 0.1135948 0.1136872 0.1137797 0.1139065
 0.1140565 0.1141782 0.114255 0.1143389 0.114488 0.1147076 0.114976 0.11529 0.1156448 0.1159998
 0.1163167 0.1166267 0.1170023 0.1174435 0.1178422 0.1180931 0.1182054 0.1182645 0.1183242 0.1183928
 0.1184991 0.1186993 0.1190097 0.1193832 0.1197669 0.1201472 0.1205316 0.1209093 0.1212447 0.1214975
 0.1216462 0.121704 0.1217215 0.1217707 0.1219136 0.1221674 0.1224882 0.1227998 0.1230442 0.1231989
 0.1232521 0.1231978 0.1230761 0.1229844 0.1229992 0.1230861 0.1231155 0.1229727 0.1226296 0.1221163
 0.121461 0.1206824 0.1198255 0.1189797 0.1182505 0.1177139 0.1174045 0.1173435 0.1175601 0.1180582
 0.1187667 0.1195492 0.1202712 0.1208345 0.1211491 0.1211222 0.1207163 0.1200019 0.1191233 0.1182186
 0.1173771 0.1166325 0.1159665 0.1153473 0.1148111 0.1145065 0.1146318 0.1153193 0.1165693 0.1182551
 0.1201628 0.1220472 0.1237137 0.1250896 0.1262254 0.1272165 0.128128 0.128991 0.1298343 0.1306728
 0.131473 0.1321779 0.1327733 0.1332994 0.1337929 0.1342489 0.1346392 0.134945 0.1351731 0.1353586
 0.135538 0.1357028 0.1358021 0.1358091 0.1357587 0.1356992 0.1356266 0.1354861 0.1352228 0.1348233
 0.1343369 0.1338961 0.1337094 0.1339908 0.1348462 0.1362038 0.1378601 0.1395987 0.1412645 0.1427474
 0.143955 0.1448446 0.1454628 0.1459177 0.1463085 0.1466896 0.1470804 0.1474799 0.1478763 0.1482564
 0.1486156 0.1489622 0.1493168 0.1496967 0.150091 0.15046 0.1507769 0.1510666 0.1513891 0.1517797
 0.1522106 0.1526206 0.1529827 0.1533289 0.153697 0.1540684 0.1543874 0.1546356 0.1548572 0.1551141
 0.1554412 0.155834 0.1562492 0.1566205 0.1569059 0.1571255 0.1573375 0.1575803 0.1578519 0.1581364
 0.1584264 0.1587199 0.1590124 0.1593068 0.1596187 0.1599544 0.160285 0.1605593 0.1607538 0.1609009
 0.161061 0.16127 0.1615164 0.1617638 0.1619948 0.1622353 0.1625258 0.1628663 0.1632012 0.1634697
 0.1636643 0.1638293 0.1640111 0.1642232 0.1644558 0.1646982 0.1649439 0.1651849 0.1654157 0.1656421
 0.1658772 0.1661267 0.1663828 0.1666327 0.1668694 0.1670947 0.1673152 0.1675382 0.1677733 0.1680355
 0.1683376 0.1686689 0.1689886 0.169254 0.1694563 0.1696196 0.1697734 0.1699349 0.1701133 0.170314
 0.170536 0.170772 0.171013 0.1712506 0.1714786 0.1716975 0.1719155 0.1721416 0.1723767 0.1726156
 0.1728568 0.1731069 0.1733731 0.1736488 0.1739133 0.17415 0.1743624 0.1745686 0.1747815 0.1749978
 0.1752067 0.1754055 0.1756038 0.1758122 0.1760309 0.1762519 0.1764685 0.1766792 0.1768846 0.1770871
 0.1772906 0.1774986 0.1777119 0.1779305 0.1781541 0.1783799 0.1786024 0.1788169 0.1790253 0.1792355
 0.1794545 0.1796801 0.1799022 0.1801146 0.1803211 0.1805297 0.1807441 0.1809626 0.1811827 0.1814034
 0.1816226 0.1818356 0.1820388 0.1822372 0.1824411 0.1826552 0.182875 0.1830938 0.1833092 0.1835229
 0.1837403 0.1839657 0.184196 0.184423 0.1846438 0.1848643 0.1850919 0.1853293 0.1855719 0.1858092
 0.1860349 0.1862552 0.1864816 0.1867146 0.1869433 0.1871559 0.1873491 0.1875292 0.1877098 0.1879003
 0.1881 0.1883044 0.1885111 0.188717 0.1889184 0.1891167 0.1893175 0.1895242 0.189738 0.189958
 0.1901774 0.1903874 0.1905864 0.1907807 0.1909786 0.1911892 0.1914165 0.1916526 0.1918851 0.1921094
 0.1923266 0.1925381 0.1927492 0.1929664 0.1931879 0.1934071 0.1936251 0.1938447 0.1940633 0.1942794
 0.1944975 0.1947192 0.1949416 0.195165 0.1953888 0.1956091 0.1958261 0.1960443 0.1962626 0.1964787
 0.196698 0.1969215 0.1971399 0.1973493 0.1975571 0.197768 0.1979834 0.1982083 0.1984424 0.1986739
 0.1988958 0.1991109 0.1993213 0.1995299 0.1997443 0.1999635 0.2001775 0.2003866 0.2005964 0.20079
 0.2009147 0.2008463 0.2002848 0.1986382 0.1950022 0.1883298 0.1778366 0.1634878 0.1461832 0.1274431
 0.1088464 0.09161399 0.0764783 0.06377131 0.05358465 0.04587173 0.04050039 0.03734779 0.03641449 0.03794937
 0.0425749 0.0509083 0.0621714 0.07297914 0.07866624 0.07696514 0.07017143 0.06305572 0.05891001 0.05796609
 0.05881807 0.06026637 0.06193142 0.06402846 0.06692083 0.07069623 0.07515907 0.08029931 0.08651519 0.09410894
 0.1026866 0.1113265 0.1193762 0.1269563 0.1346473 0.1427775 0.1510801 0.1589617 0.1659729 0.1720262
 0.1773056 0.1820675 0.1864975 0.1906845 0.194668 0.1984419 0.2018754 0.2046788 0.2065397 0.207362
 0.2073837 0.2070468 0.2067351 0.2066221 0.2067186 0.2069916 0.2074181 0.2079806 0.2086617 0.2094406
 0.2102841 0.2111529 0.2120188 0.2128642 0.2136723 0.2144279 0.2151203 0.2157444 0.216303 0.2168077
 0.2172699 0.2176967 0.218098 0.2184854 0.2188626 0.2192251 0.2195696 0.2198958 0.2202011 0.2204822
 0.2207365 0.2209633 0.221168 0.2213658 0.2215712 0.2217852 0.2219973 0.2221989 0.2223912 0.2225826
 0.2227803 0.2229818 0.2231776 0.2233637 0.2235451 0.2237242 0.2238963 0.2240609 0.2242286 0.224411
 0.2246083 0.2248116 0.2250136 0.2252126 0.2254095 0.2256006 0.2257814 0.2259554 0.2261353 0.2263305
 0.2265403 0.2267593 0.2269811 0.2271967 0.2274016 0.2276016 0.2278036 0.2280041 0.2281974 0.2283849
 0.2285674 0.2287364 0.2288859 0.2290283 0.2291909 0.229391 0.2296164 0.2298361 0.2300338 0.2302215
 0.2304167 0.2306203 0.2308208 0.2310056 0.2311721 0.2313397 0.2315396 0.2317764 0.2320196 0.2322462
 0.2324639 0.2326853 0.2329131 0.2331522 0.2333992 0.2336183 0.2337684 0.2338648 0.2339889 0.2342246
 0.2345799 0.2349724 0.2353024 0.2355407 0.2357315 0.235934 0.2361836 0.2364641 0.2366788 0.2367147
 0.2366067 0.2365746 0.2368207 0.2373305 0.2379214 0.2384345 0.2388285 0.2391369 0.2393955 0.239604
 0.2397249 0.2397269 0.2396595 0.2396811 0.239952 0.2404656 0.2410361 0.2414883 0.2417961 0.2420175
 0.242196 0.242355 0.2424585 0.242355 0.2419346 0.2414118 0.2412716 0.241803 0.2427757 0.2436856
 0.2442545 0.2445776 0.2448425 0.2450938 0.2452875 0.2453357 0.2449874 0.2439693 0.2425174 0.2415295
 0.2418201 0.2432985 0.2451207 0.2465338 0.2473496 0.2477584 0.2480006 0.2482028 0.2482805 0.2479545
 0.2470665 0.2459848 0.2455029 0.2461061 0.2474231 0.2486205 0.2492516 0.2494888 0.2496709 0.2499285
 0.2500982 0.2496839 0.248142 0.2456836 0.2436684 0.2436441 0.2458327 0.2488632 0.2511313 0.2521774
 0.2525479 0.2526088 0.2520084 0.2503123 0.2476558 0.2446763 0.2423205 0.241726 0.2434669 0.2466025
 0.2492086 0.2502722 0.2505422 0.2512782 0.2527475 0.2542221 0.2549375 0.2546903 0.2537093 0.2522352
 0.2504067 0.2486563 0.2479468 0.2490903 0.251767 0.2546355 0.2565705 0.257519 0.2579227 0.2574086
 0.2545203 0.248473 0.241348 0.2375154 0.2397759 0.2464337 0.2531204 0.2570915 0.2587274 0.2594787
 0.2599188 0.2595907 0.2572662 0.2516097 0.2432814 0.236273 0.2352077 0.2407618 0.2488991 0.2546428
 0.2554693 0.2515749 0.244976 0.2388997 0.2364637 0.2387923 0.244535 0.2512016 0.2566514 0.2596769
 0.2599961 0.2581403 0.2554135 0.2535732 0.2535591 0.2541035 0.2526928 0.2487405 0.2445626 0.2419735
 0.2394714 0.2350142 0.2305164 0.230588 0.2365487 0.2442217 0.2486286 0.2490367 0.2480526 0.2468696
 0.2432172 0.2346272 0.2231076 0.2152173 0.2163244 0.2250374 0.2344587 0.2389432 0.2385741 0.2371183
 0.2369987 0.2368343 0.233396 0.2258295 0.2177843 0.2143503 0.2166415 0.2207946 0.2225303 0.2205606
 0.2150842 0.2064138 0.1974342 0.194473 0.2019533 0.2169695 0.2315754 0.2393323 0.2376483 0.2263285
 0.2084775 0.1923982 0.1875533 0.1960812 0.2101907 0.2193319 0.218566 0.2094232 0.1953895 0.179542
 0.1659799 0.1602354 0.1659499 0.181192 0.1985266 0.2086943 0.2057115 0.1915384 0.1765089 0.171881
 0.1795753 0.1908576 0.1961341 0.1936585 0.1881275 0.1846306 0.185721 0.1910027 0.1975491 0.2026401
 0.2059356 0.2063949 0.199327 0.1820356 0.1613395 0.1490937 0.1498664 0.1585703 0.1699457 0.1832853
 0.1963116 0.2019439 0.196295 0.186075 0.1828953 0.190943 0.2033918 0.2107471 0.2102364 0.2063105
 0.2037484 0.2025618 0.2003858 0.1979937 0.1994913 0.2066629 0.2158689 0.2221111 0.2242334 0.2244779
 0.2246718 0.2248443 0.2245177 0.2235308 0.2219483 0.2201862 0.2188924 0.2182084 0.2176358 0.2167928
 0.2153844 0.2120604 0.2047196 0.1934842 0.1825774 0.1769886 0.1771963 0.1795071 0.1815476 0.1836508
 0.1837169 0.1757665 0.1578443 0.1385067 0.1306 0.1388484 0.156331 0.1723518 0.1806081 0.1797178
 0.1700376 0.1539466 0.1385296 0.1333661 0.142692 0.161314 0.1801698 0.1941488 0.2026679 0.2053364
 0.2010321 0.1910436 0.1803316 0.1747065 0.1772918 0.1871267 0.1994769 0.2070586 0.2035945 0.190052
 0.1774452 0.1787302 0.1951945 0.2142998 0.2237783 0.2240718 0.2233607 0.2248425 0.2251416 0.2232411
 0.2240691 0.2317259 0.2434477 0.2523343 0.2534122 0.2455937 0.2310285 0.2156011 0.2074108 0.2102629
 0.2193135 0.2263198 0.2276173 0.2236335 0.214009 0.1996311 0.1878046 0.1878652 0.2003638 0.2158171
 0.2254843 0.2293231 0.2320676 0.2350648 0.234654 0.2277476 0.2170128 0.2092284 0.2085699 0.2129494
 0.2175318 0.2198386 0.2197665 0.2166811 0.2098124 0.2015048 0.1972585 0.2009506 0.2108204 0.2211207
 0.2272643 0.2286953 0.2275206 0.2257833 0.2240878 0.2217815 0.2183358 0.2151326 0.2151899 0.2199121
 0.2268059 0.2320161 0.23473 0.2374493 0.2420628 0.2472379 0.2500353 0.2491214 0.2460472 0.2439046
 0.2448458 0.248373 0.2517094 0.2521717 0.2497225 0.2472437 0.2478845 0.2520597 0.2573963 0.2614252
 0.2635939 0.2647584 0.2657297 0.2665744 0.2665758 0.2647847 0.2613772 0.2584494 0.2585303 0.2620644
 0.2669812 0.2708277 0.2727395 0.2732919 0.273158 0.2724079 0.2709137 0.2689899 0.2673921 0.266723
 0.2670037 0.2678415 0.2688359 0.2697529 0.270492 0.2710494 0.2714691 0.2717711 0.2719597 0.272086
 0.2722118 0.2723096 0.2723011 0.2722187 0.2722334 0.272462 0.2728142 0.2730854 0.2731386 0.2729176
 0.2723472 0.271357 0.2700032 0.2684473 0.2667767 0.2649567 0.2630653 0.2615332 0.2610073 0.2618711
 0.2638902 0.2663541 0.2685565 0.2701441 0.2711095 0.2716022 0.2717965 0.271845 0.2718426 0.2718016
 0.271686 0.2714808 0.2712147 0.2709193 0.2705978 0.2702532 0.2699192 0.2696369 0.2694041 0.2691684
 0.2688675 0.2684676 0.2679782 0.2674385 0.2668849 0.2663143 0.2656741 0.2649004 0.2639769 0.2629593
 0.2619415 0.2609939 0.2601253 0.2592912 0.2584339 0.2575154 0.2565068 0.2553645 0.2540679 0.2526954
 0.2514107 0.2503303 0.2494294 0.2485926 0.2477135 0.2467286 0.2456138 0.2443884 0.2431058 0.2418123
 0.2405172 0.2391959 0.2378119 0.2363409 0.2347829 0.23315 0.2314463 0.2296768 0.2278667 0.2260464
 0.224201 0.2222441 0.220048 0.2174918 0.214475 0.2109092 0.2067488 0.2020544 0.1970065 0.1918403
 0.1867662 0.181941 0.1774762 0.173459 0.1699694 0.1670824 0.1648564 0.1633294 0.1625233 0.1624412
 0.163063 0.1643489 0.1662339 0.1686122 0.1713356 0.1742297 0.1771082 0.1798013 0.182217 0.1843849
 0.1864168 0.1884042 0.1903492 0.1921865 0.1938561 0.1953395 0.1966351 0.1977353 0.1986465 0.199401
 0.2000303 0.2005469 0.2009658 0.2013155 0.2016204 0.2018904 0.2021297 0.2023416 0.2025321 0.2027214
 0.2029411 0.2032116 0.2035368 0.2039256 0.2043973 0.2049606 0.2055975 0.2062775 0.2069841 0.2077242
 0.2085094 0.2093433 0.2102361 0.2112251 0.2123625 0.2136814 0.2151758 0.216794 0.2184434 0.2200191
 0.2214363 0.2226345 0.2235729 0.2242451 0.2246861 0.2249466 0.2250611 0.2250435 0.2249012 0.2246491
 0.2243147 0.2239253 0.2234899 0.2230017 0.2224554 0.2218526 0.2212043 0.2205376 0.2198847 0.2192558
 0.2186377 0.2180181 0.2173944 0.2167674 0.2161445 0.215542 0.2149656 0.2143984 0.2138198 0.2132281
 0.212633 0.212028 0.2113753 0.2106269 0.2097597 0.2087775 0.207686 0.2064882 0.2052061 0.2038701
 0.2024826 0.2010189 0.1994648 0.1978277 0.1961162 0.1943313 0.192468 0.1905145 0.1884695 0.1863768
 0.184326 0.1824044 0.1806469 0.1790268 0.1774888 0.1759954 0.1745491 0.1731718 0.1718746 0.170651
 0.1694838 0.1683522 0.167248 0.1661925 0.1652231 0.1643636 0.1636144 0.1629612 0.1623803 0.1618471
 0.1613534 0.1609162 0.1605697 0.1603487 0.1602663 0.1602902 0.160346 0.1603527 0.1602616 0.1600781
 0.1598565 0.1596606 0.159517 0.1594073 0.1592993 0.1591649 0.1589631 0.1586201 0.1580384 0.1571317
 0.155867 0.1542813 0.1524624 0.1505288 0.1486214 0.1468774 0.1453878 0.1441855 0.1432627 0.1425762
 0.1420513 0.1416196 0.1412638 0.141022 0.1409522 0.141068 0.1412794 0.1414299 0.1414413 0.1414087
 0.1415183 0.141888 0.1424962 0.1432229 0.1439341 0.1445449 0.1450207 0.1453411 0.1455043 0.1455548
 0.1455516 0.1455054 0.145389 0.1451913 0.1449249 0.1446004 0.1442229 0.1437913 0.1432921 0.1427116
 0.1420457 0.1412919 0.1404538 0.1395393 0.1385221 0.1373541 0.1360879 0.1349473 0.1342129 0.1340508
 0.1344451 0.1352273 0.1361803 0.1371659 0.1381135 0.138867 0.1392158 0.1392283 0.139435 0.1404548
 0.1423989 0.1447387 0.1467742 0.1481359 0.1488162 0.1488995 0.1484377 0.1474921 0.1460982 0.1442219
 0.1418692 0.1391638 0.1362475 0.1332371 0.1303077 0.1276623 0.125417 0.1236034 0.1222149 0.1212747
 0.1208919 0.1206908 0.1188253 0.1129319 0.1037587 0.09681739 0.09777629 0.1061039 0.115422 0.120257
 0.120413 0.1187642 0.1173126 0.116372 0.1158407 0.1158479 0.11652 0.11773 0.119096 0.1202072
 0.1208973 0.1212142 0.1211178 0.1202515 0.1178975 0.113217 0.1059251 0.09689488 0.08786188 0.08040015
 0.07520698 0.07213298 0.07054994 0.06972809 0.06918731 0.06888794 0.06911115 0.0701405 0.0720288 0.07462533
 0.07773176 0.08110878 0.08437667 0.08713861 0.0892757 0.0909587 0.09233044 0.09333143 0.09384613 0.09386149
 0.09346135 0.09278026 0.09197403 0.09114999 0.0902896 0.08928029 0.08808883 0.08691245 0.08606972 0.08569624
 0.08563722 0.08566716 0.08568762 0.08568402 0.08564204 0.08556098 0.08546448 0.08540047 0.08547135 0.0857801
 0.08628733 0.08680428 0.08716453 0.08734572 0.08742516 0.08744269 0.08728833 0.08679496 0.0860306 0.08534081
 0.0849005 0.08439466 0.08342959 0.08214612 0.08113757 0.08080997 0.08103955 0.0814098 0.08158447 0.08146572
 0.0811932 0.08107434 0.0813721 0.08200776</values></Ydata></ScSm><ScRf><Ydata ylabel="Single channel"><values byteorder="INTEL" format="FLOAT32" numvalues="1820"> 0.06044528 0.06059843 0.06069347 0.06072866 0.0607255 0.06072883 0.06078951 0.06093173 0.06113177 0.06132862
 0.06146589 0.06153052 0.06154317 0.06151765 0.06146117 0.06141482 0.06144873 0.06159265 0.0617917 0.06194482
 0.06198537 0.06193879 0.06190824 0.06197353 0.0620805 0.06205583 0.06177004 0.06128746 0.06082566 0.06055623
 0.06049898 0.06065024 0.0610886 0.06176533 0.06226963 0.06212101 0.06136963 0.0606285 0.06039342 0.06056795
 0.06074448 0.06067683 0.06035957 0.05994003 0.05976083 0.06026513 0.06156108 0.06306446 0.06370949 0.06262196
 0.05974432 0.05603298 0.05310317 0.05236274 0.05402252 0.05681379 0.0589392 0.05950459 0.05894849 0.05813647
 0.05742662 0.05677792 0.05635477 0.05656509 0.05750046 0.05855086 0.05871612 0.05746298 0.05536143 0.05368263
 0.05323814 0.05386744 0.05511426 0.05672227 0.05795075 0.05718383 0.05352081 0.04878855 0.04672673 0.04943263
 0.05512175 0.05987455 0.06112338 0.05908483 0.05561517 0.05267121 0.05157581 0.05266213 0.05521634 0.05807661
 0.06033879 0.06138739 0.06073551 0.05844962 0.05556477 0.05357993 0.05353624 0.0556104 0.05907311 0.06234908
 0.06373544 0.06266385 0.06007785 0.0574327 0.05573744 0.05556415 0.05719141 0.06031241 0.06401272 0.06730308
 0.06952628 0.07042228 0.07018071 0.06932259 0.06830448 0.06743818 0.06716425 0.0677829 0.06873535 0.06881699
 0.06749065 0.06560721 0.06453054 0.06472959 0.06540592 0.06546332 0.06461523 0.06320559 0.06112441 0.05779255
 0.05348981 0.04970255 0.04763743 0.04730879 0.04843059 0.05087794 0.05362681 0.05469276 0.05330054 0.05127046
 0.0512073 0.05372243 0.05711683 0.05945994 0.06037693 0.06092289 0.06221595 0.06428968 0.06594958 0.06568006
 0.06315582 0.06008675 0.05900926 0.06079377 0.06380352 0.06590103 0.06669887 0.06731337 0.06841812 0.06920189
 0.06821724 0.06510124 0.06149216 0.06001186 0.06198085 0.06609834 0.06938799 0.06939603 0.0658409 0.06068157
 0.05659425 0.05511957 0.05624947 0.05944772 0.06424148 0.06968336 0.07410734 0.07605697 0.07533917 0.0729542
 0.06995341 0.06646173 0.06221383 0.05817229 0.05673753 0.05948245 0.06514085 0.07066146 0.07393223 0.07483574
 0.07405929 0.07178754 0.06790821 0.06329779 0.06024326 0.06066156 0.06379002 0.06661938 0.06704572 0.06578886
 0.06484455 0.0649946 0.0655169 0.06572439 0.06595804 0.06701857 0.06902383 0.07111523 0.07228594 0.07228958
 0.07168146 0.07117203 0.07097914 0.07066689 0.06976157 0.06870114 0.06877753 0.07072051 0.07369476 0.07616002
 0.07741551 0.07785267 0.07792221 0.07734151 0.07549988 0.07260133 0.07013495 0.06976955 0.07173774 0.07468843
 0.07709268 0.07834613 0.07862671 0.07833759 0.07783267 0.07730605 0.07685308 0.07671305 0.07720644 0.07827461
 0.07937889 0.08003759 0.08021729 0.08009082 0.07969713 0.07901618 0.07821731 0.07765858 0.07762872 0.07812934
 0.07892366 0.07974923 0.08040977 0.08072776 0.08060405 0.08016345 0.07968608 0.07935315 0.07918029 0.07918671
 0.0794498 0.07994799 0.08049151 0.08088014 0.08105779 0.0810816 0.08101147 0.08087096 0.08068012 0.08049821
 0.08043064 0.08055884 0.08083943 0.08112761 0.08134622 0.08156413 0.08184126 0.08207443 0.08210184 0.08192015
 0.08170083 0.08160524 0.08165425 0.08176811 0.08185801 0.08184898 0.08167149 0.08131989 0.08093606 0.08075944
 0.08094029 0.08143298 0.08207644 0.08270604 0.08318337 0.08342956 0.08348278 0.08345607 0.08340782 0.08330236
 0.0831082 0.0828931 0.08280748 0.0829739 0.08337568 0.08385862 0.0842562 0.08449737 0.08460435 0.08465356
 0.08474588 0.0849292 0.08512315 0.08519334 0.085122 0.08504107 0.08507485 0.08520007 0.08528533 0.08524624
 0.08514285 0.08511883 0.08525057 0.0854782 0.08569072 0.08584976 0.08600791 0.08621525 0.08642587 0.08651584
 0.08641515 0.08620406 0.08603483 0.08597131 0.08596805 0.08599766 0.08610952 0.08632977 0.08657351 0.0867165
 0.08673176 0.08670971 0.08674198 0.08681676 0.08684256 0.08675537 0.08658168 0.08640848 0.08631484 0.08632638
 0.08640687 0.08648258 0.08649065 0.08642006 0.08630927 0.08620463 0.08612712 0.08608671 0.08611804 0.08626798
 0.08652072 0.08675204 0.08680295 0.08662379 0.08633389 0.08611737 0.08605618 0.08607177 0.08602468 0.0858513
 0.08559961 0.08535817 0.08517776 0.08505426 0.08495775 0.08486937 0.0848061 0.08481632 0.08492848 0.08508699
 0.08516215 0.08505814 0.08480804 0.0845399 0.08436027 0.08429095 0.08429244 0.08431023 0.08431499 0.08432806
 0.08438776 0.08447365 0.08450472 0.08443847 0.08433138 0.08427978 0.0843398 0.08450943 0.08473071 0.08489673
 0.08491924 0.08481858 0.08470851 0.08467831 0.08472343 0.08479454 0.08486813 0.08494961 0.08504173 0.08514291
 0.0852673 0.08544144 0.08567396 0.08593471 0.08616799 0.08632986 0.0864245 0.08651198 0.0866711 0.0869385
 0.08727738 0.08760694 0.08786574 0.08805381 0.08821741 0.08839418 0.08858287 0.08877498 0.08899438 0.08927383
 0.08960108 0.0899247 0.09021431 0.09048532 0.09076318 0.09105121 0.09134211 0.09164611 0.09199621 0.09241588
 0.09287129 0.09326915 0.09352963 0.09366529 0.09377673 0.09397462 0.09430314 0.09470667 0.09505631 0.09524955
 0.09531656 0.09539927 0.09559681 0.09586535 0.09610653 0.09631895 0.09660307 0.09702095 0.09750163 0.09790527
 0.09815769 0.09830619 0.09845142 0.09863789 0.09882043 0.09893894 0.09900551 0.09908946 0.09922774 0.09939938
 0.09959975 0.09988125 0.1002781 0.100728 0.101119 0.1013952 0.1015804 0.1017194 0.1018332 0.1019205
 0.1019697 0.1019811 0.1019896 0.1020434 0.1021433 0.1022351 0.1022823 0.1023175 0.1023995 0.1025506
 0.1027625 0.1030302 0.1033395 0.1036432 0.1039038 0.1041561 0.1044749 0.1048572 0.1051879 0.1053618
 0.1054025 0.1054153 0.105456 0.1055105 0.1055828 0.1057272 0.1059764 0.1062951 0.1066253 0.1069482
 0.1072796 0.1076254 0.1079522 0.1081993 0.1083194 0.1083207 0.1082707 0.1082621 0.1083657 0.1086
 0.108923 0.1092577 0.1095372 0.1097279 0.109815 0.1097988 0.109728 0.1097059 0.1098126 0.1100125
 0.1101697 0.1101624 0.1099611 0.1095968 0.1090967 0.1084799 0.1077955 0.1071316 0.1065766 0.1061812
 0.1059617 0.1059378 0.1061471 0.1066026 0.1072407 0.107937 0.1085793 0.1090961 0.1094135 0.1094386
 0.1091266 0.1085411 0.107817 0.107078 0.106396 0.1057892 0.1052266 0.1046691 0.1041513 0.1038191
 0.1038625 0.1044041 0.1054371 0.1068297 0.1083658 0.1098168 0.1110337 0.1120006 0.1127989 0.1135168
 0.1141946 0.1148473 0.1154993 0.1161623 0.1167987 0.1173498 0.1178067 0.1182186 0.1186292 0.1190326
 0.1193916 0.1196794 0.119903 0.1201017 0.1203082 0.1204971 0.1205978 0.1205748 0.1204727 0.1203594
 0.1202495 0.1200985 0.1198528 0.1194928 0.1190573 0.1186604 0.1184789 0.1186837 0.1193424 0.1203743
 0.1216109 0.1229044 0.1241691 0.1253297 0.1262879 0.1269777 0.1274276 0.1277383 0.1280061 0.1282838
 0.1285856 0.1289021 0.1292135 0.1295064 0.1297843 0.1300641 0.130367 0.1307008 0.1310417 0.1313433
 0.1315808 0.1317877 0.1320356 0.1323683 0.1327579 0.1331323 0.1334538 0.1337552 0.1340809 0.1344117
 0.1346825 0.1348699 0.1350267 0.135229 0.135517 0.1358815 0.1362717 0.1366154 0.136866 0.1370419
 0.1372048 0.1373984 0.1376231 0.1378605 0.1380998 0.1383365 0.1385687 0.1388066 0.1390763 0.1393914
 0.1397177 0.1399868 0.1401613 0.1402788 0.1404159 0.1406115 0.14084 0.1410549 0.1412475 0.1414576
 0.1417301 0.1420615 0.14239 0.1426448 0.1428062 0.142916 0.1430339 0.1431924 0.143388 0.1436022
 0.1438207 0.1440387 0.1442558 0.1444705 0.1446784 0.1448771 0.1450722 0.1452742 0.1454861 0.1457002
 0.1459081 0.1461108 0.1463175 0.1465434 0.1468043 0.1470985 0.1473921 0.1476402 0.147826 0.1479693
 0.1480976 0.1482254 0.1483637 0.1485274 0.1487249 0.1489462 0.14917 0.1493809 0.1495789 0.149773
 0.1499705 0.1501742 0.1503846 0.1506015 0.1508234 0.15105 0.1512808 0.1515093 0.1517227 0.1519131
 0.1520873 0.1522605 0.1524445 0.1526407 0.1528401 0.1530322 0.1532169 0.1534041 0.153601 0.1538045
 0.1540062 0.1542019 0.1543932 0.1545839 0.1547768 0.1549726 0.1551716 0.1553745 0.1555799 0.1557849
 0.1559877 0.1561883 0.1563854 0.1565766 0.1567637 0.1569531 0.1571516 0.1573599 0.1575717 0.1577785
 0.1579751 0.1581622 0.1583449 0.1585305 0.1587243 0.1589249 0.1591267 0.1593265 0.1595247 0.1597191
 0.1599071 0.1600931 0.1602873 0.1604979 0.1607256 0.1609632 0.1611963 0.1614116 0.161609 0.1618006
 0.1619996 0.1622119 0.1624352 0.1626618 0.1628846 0.1631035 0.1633212 0.1635345 0.1637361 0.1639223
 0.1640953 0.1642625 0.1644332 0.1646131 0.1648016 0.164994 0.1651849 0.1653704 0.1655535 0.1657426
 0.1659403 0.1661387 0.1663314 0.1665215 0.1667148 0.1669128 0.1671148 0.1673202 0.167528 0.1677372
 0.1679459 0.1681493 0.1683471 0.1685472 0.1687537 0.1689595 0.1691584 0.1693539 0.169553 0.1697604
 0.1699785 0.1702043 0.170431 0.1706563 0.1708821 0.171104 0.1713154 0.1715177 0.1717162 0.1719126
 0.1721107 0.1723164 0.1725294 0.172743 0.1729523 0.173154 0.1733486 0.1735483 0.1737673 0.1740012
 0.1742317 0.174448 0.1746517 0.1748509 0.1750586 0.1752825 0.175513 0.1757351 0.1759467 0.1761537
 0.176361 0.1765737 0.1767887 0.1769827 0.1771101 0.1770678 0.1765936 0.1751622 0.1719702 0.1660891
 0.1568242 0.1441447 0.1288485 0.1122825 0.09584457 0.080616 0.06724998 0.05604489 0.04707664 0.0402897
 0.03555785 0.032775 0.03194751 0.03329585 0.03736994 0.0447228 0.05467993 0.06425637 0.06932136 0.06785649
 0.061883 0.05561768 0.05196963 0.0511403 0.0518874 0.05315532 0.0546132 0.05645669 0.05901378 0.06236436
 0.06633272 0.07090968 0.07644941 0.08321445 0.09084572 0.09852168 0.1056663 0.1123914 0.1192202 0.1264537
 0.133855 0.1408837 0.1471302 0.1525213 0.1572323 0.1614931 0.1654597 0.1692026 0.1727588 0.1761318
 0.1792123 0.1817426 0.1834443 0.1842307 0.1843079 0.1840587 0.183818 0.1837411 0.183843 0.1841006
 0.1844979 0.1850197 0.1856468 0.1863544 0.1871117 0.1878925 0.1886847 0.1894769 0.1902455 0.1909641
 0.1916171 0.1922004 0.1927206 0.1931941 0.1936379 0.1940594 0.1944603 0.1948419 0.1952032 0.1955438
 0.1958686 0.1961824 0.1964833 0.1967655 0.1970257 0.197262 0.197477 0.1976793 0.1978787 0.1980792
 0.1982806 0.1984838 0.1986892 0.1988977 0.1991099 0.1993227 0.1995314 0.199736 0.199941 0.2001447
 0.2003404 0.2005287 0.2007179 0.2009116 0.2011057 0.2012961 0.201483 0.2016676 0.201851 0.2020353
 0.2022232 0.2024166 0.2026147 0.2028128 0.2030103 0.2032155 0.2034359 0.2036642 0.2038858 0.2040972
 0.204307 0.2045226 0.2047462 0.2049744 0.2051923 0.2053768 0.2055185 0.205641 0.2057879 0.205986
 0.2062206 0.2064514 0.2066556 0.2068463 0.2070463 0.2072583 0.2074673 0.2076587 0.2078345 0.2080199
 0.2082446 0.208506 0.2087669 0.2090024 0.2092256 0.2094579 0.2097012 0.2099476 0.2101859 0.2103936
 0.2105527 0.2106839 0.2108479 0.2110995 0.2114371 0.211798 0.2121136 0.212368 0.2125917 0.2128173
 0.2130613 0.2133111 0.2134949 0.2135278 0.2134481 0.2134512 0.2137132 0.2142141 0.2147837 0.2152759
 0.2156562 0.2159618 0.2162317 0.2164641 0.2166162 0.2166536 0.2166232 0.2166711 0.2169383 0.2174169
 0.2179468 0.2183805 0.2186973 0.2189409 0.2191379 0.2193023 0.2194041 0.2193131 0.2189371 0.2184797
 0.2183884 0.2189198 0.2198466 0.2207005 0.2212361 0.2215547 0.2218375 0.2221281 0.2223779 0.2224857
 0.2222064 0.2212947 0.2199825 0.2191008 0.2193952 0.2207786 0.2224767 0.2238045 0.2245939 0.2250127
 0.2252696 0.2254799 0.2255777 0.2253148 0.2245432 0.2235943 0.2231932 0.2237841 0.2250265 0.2261582
 0.2267726 0.2270284 0.2272319 0.2274967 0.2276726 0.2273156 0.2259398 0.22374 0.2219512 0.2219769
 0.2240149 0.2268156 0.2289199 0.2299126 0.2302963 0.2304084 0.229925 0.2284381 0.2260623 0.2233814
 0.2212648 0.2207529 0.2223707 0.2252626 0.227674 0.2286813 0.2289711 0.2296975 0.2311026 0.2325105
 0.2332095 0.2330083 0.2321252 0.2307964 0.2291587 0.2276073 0.2270156 0.2281173 0.2306139 0.2332804
 0.2350946 0.2360109 0.2364306 0.2360063 0.2333967 0.2278807 0.2213792 0.2179195 0.2200755 0.2262731
 0.2324805 0.2361693 0.2376959 0.238408 0.2388487 0.2386071 0.2365491 0.2314283 0.2238328 0.2174289
 0.2164831 0.2216354 0.2291794 0.2345307 0.2353559 0.2318258 0.2257965 0.2202518 0.2180756 0.2203038
 0.2256824 0.2319073 0.2370026 0.2398588 0.2402223 0.238583 0.2361357 0.2344958 0.2345328 0.2350815
 0.2338249 0.2302282 0.2264377 0.2241288 0.2219046 0.2178708 0.2138012 0.2139667 0.2195881 0.2267928
 0.2309665 0.2314294 0.2305955 0.2295682 0.2262416 0.2183271 0.2076928 0.2004434 0.2015851 0.2098253
 0.2187253 0.2230092 0.2227593 0.2215115 0.2215407 0.2215416 0.2184636 0.2114961 0.2040813 0.2010155
 0.203336 0.2073936 0.2091689 0.2074685 0.202481 0.1944846 0.1861897 0.1835769 0.1908414 0.2052526
 0.2193019 0.2268903 0.2255409 0.2150359 0.1983088 0.183271 0.1789551 0.1874037 0.2011798 0.2102145
 0.209788 0.2013424 0.1881859 0.1732624 0.1605416 0.1554071 0.1614286 0.1767633 0.1941789 0.2046076
 0.202142 0.1886692 0.1743571 0.1703264 0.1784766 0.1901487 0.1958281 0.1937841 0.1886846 0.1856081
 0.1871369 0.1928975 0.1999475 0.2055425 0.2093214 0.2101649 0.203241 0.1858069 0.1648631 0.1525384
 0.1534957 0.1625346 0.1742975 0.1880862 0.2015656 0.207448 0.2017159 0.1912443 0.1879558 0.1961599
 0.208866 0.2163465 0.2157675 0.211703 0.2090637 0.2078637 0.2056743 0.2032924 0.204941 0.2124526
 0.2220822 0.2286931 0.2311012 0.2316122 0.2320999 0.2325817 0.2325465 0.2318137 0.2304532 0.2289128
 0.2278832 0.2275215 0.2273019 0.2268073 0.2257119 0.2225828 0.2151908 0.2036546 0.1924355 0.1868019
 0.1872396 0.1898288 0.1920555 0.1942637 0.1942304 0.1856604 0.1665144 0.1458193 0.1370981 0.1453054
 0.1631395 0.1793545 0.1873713 0.1858314 0.1752191 0.1580561 0.1416013 0.1355979 0.1443311 0.1625123
 0.1809287 0.1943874 0.2023358 0.2044677 0.199718 0.1893758 0.1783606 0.1724209 0.1746261 0.1840018
 0.1958591 0.2030194 0.1993249 0.1857427 0.1730648 0.1739616 0.189706 0.2080818 0.2171187 0.2172175
 0.2163315 0.2175931 0.217747 0.2158158 0.2165847 0.2240311 0.2354728 0.2442164 0.2454321 0.2380525
 0.2241601 0.2094894 0.2019362 0.2051872 0.2144637 0.2216686 0.2232004 0.2194771 0.2101608 0.196165
 0.1847212 0.1850312 0.1976085 0.2130778 0.2228298 0.2268578 0.2298459 0.2330941 0.2329425 0.2263236
 0.2159026 0.208441 0.2081173 0.2128714 0.2178878 0.2206727 0.2210787 0.2184233 0.2119183 0.2039501
 0.2001008 0.2042881 0.2146858 0.2254067 0.2317453 0.2331092 0.2316371 0.2294264 0.2271263 0.224104
 0.2198436 0.2157628 0.2149429 0.218841 0.2249786 0.2294911 0.2315564 0.233674 0.2377389 0.2424375
 0.244855 0.2436607 0.2403669 0.2379974 0.2386523 0.2418419 0.2448571 0.2450845 0.2424955 0.2399078
 0.2403919 0.2443479 0.249468 0.2533625 0.2555034 0.2567145 0.2577619 0.2586855 0.258769 0.2570769
 0.2537705 0.25088 0.250869 0.2541914 0.2588571 0.2624909 0.2642578 0.2647336 0.2645941 0.2639151
 0.262554 0.2607768 0.2592784 0.2586329 0.2588809 0.2596664 0.2606082 0.2614677 0.2621303 0.262585
 0.2628875 0.263083 0.2631916 0.2632614 0.2633453 0.26341 0.2633702 0.2632495 0.263218 0.2633991
 0.2637052 0.2639295 0.2639412 0.2637058 0.2631721 0.2622734 0.2610469 0.2596328 0.2581068 0.2564259
 0.2546546 0.2532106 0.2527363 0.2536197 0.2556367 0.2580898 0.2602853 0.261879 0.2628647 0.263387
 0.2636125 0.2636869 0.2636994 0.2636609 0.2635359 0.2633027 0.2629788 0.2626011 0.2622039 0.2618196
 0.2614818 0.2612051 0.2609612 0.2606895 0.2603398 0.2599022 0.2594014 0.2588719 0.2583346 0.2577758
 0.2571461 0.2563948 0.2555152 0.2545583 0.253609 0.2527415 0.2519737 0.251257 0.2505193 0.2497152
 0.2488177 0.2477859 0.2466049 0.2453653 0.2442452 0.2433705 0.2427124 0.2421357 0.2415133 0.2407783
 0.2399142 0.2389417 0.2379028 0.2368271 0.2357158 0.2345629 0.2333712 0.2321356 0.2308326 0.2294367
 0.2279384 0.2263487 0.224701 0.2230366 0.2213593 0.2196015 0.2176427 0.2153503 0.2126004 0.2092907
 0.2053767 0.2009162 0.1960784 0.1910974 0.1861968 0.1815371 0.1772234 0.1733444 0.1699905 0.1672401
 0.1651464 0.163738 0.1630254 0.1630088 0.163682 0.1650248 0.166985 0.1694627 0.1723055 0.1753237
 0.1783233 0.1811489 0.1837243 0.1860714 0.1882731 0.1903863 0.1923857 0.194205 0.1958124 0.1972186
 0.1984316 0.1994433 0.200261 0.2009244 0.2014817 0.2019636 0.2023858 0.2027653 0.2031176 0.2034384
 0.2037041 0.2039035 0.2040607 0.2042192 0.2044125 0.2046499 0.2049238 0.2052277 0.205574 0.2059845
 0.2064624 0.2069888 0.207549 0.2081431 0.2087698 0.2094273 0.2101366 0.2109442 0.2118928 0.2129994
 0.2142547 0.2156249 0.217047 0.2184271 0.2196594 0.2206634 0.221409 0.2219062 0.2221815 0.2222674
 0.2221993 0.2220038 0.2216952 0.2212895 0.2208135 0.2202892 0.219721 0.2191049 0.2184448 0.2177531
 0.2170442 0.2163327 0.2156368 0.2149719 0.2143347 0.2137033 0.2130626 0.2124234 0.211807 0.2112194
 0.2106493 0.2100848 0.2095222 0.2089624 0.2084039 0.2078324 0.207213 0.2065037 0.2056818 0.2047539
 0.2037376 0.2026385 0.2014495 0.2001661 0.1987982 0.1973629 0.1958679 0.1943049 0.1926609 0.1909306
 0.1891107 0.1871947 0.1851919 0.1831527 0.1811585 0.179283 0.1775649 0.1760032 0.1745638 0.1732
 0.1718805 0.1705984 0.1693559 0.1681587 0.1670196 0.1659515 0.1649495 0.1639965 0.1630899 0.1622537
 0.161518 0.1608877 0.1603392 0.1598513 0.1594275 0.159083 0.1588307 0.1586893 0.1586759 0.1587661
 0.1588825 0.1589394 0.1588904 0.1587416 0.1585432 0.1583626 0.1582412 0.1581762 0.1581396 0.1580888
 0.1579573 0.1576609 0.1571186 0.1562643 0.1550642 0.153547 0.1518056 0.1499665 0.1481588 0.1464903
 0.1450304 0.1438199 0.1428839 0.1422061 0.1417125 0.1413241 0.1410235 0.140855 0.140872 0.1410695
 0.1413371 0.1415141 0.141543 0.1415432 0.1416989 0.1421075 0.1427428 0.1435004 0.144257 0.1449238
 0.145459 0.145839 0.1460612 0.1461685 0.1462136 0.1462008 0.1461055 0.1459247 0.145675 0.1453716
 0.1450262 0.1446318 0.1441594 0.1435951 0.1429496 0.1422233 0.1414105 0.1405157 0.1395122 0.1383467
 0.1370737 0.1359297 0.1352037 0.1350607 0.1354788 0.1362807 0.1372506 0.138277 0.1393132 0.1401812
 0.1406172 0.1406621 0.1408646 0.1418877 0.1438807 0.1463185 0.1484632 0.1499045 0.1506322 0.1507597
 0.1503665 0.1495154 0.1482099 0.1463737 0.144003 0.1412477 0.1382774 0.1352232 0.1322735 0.1296341
 0.1274017 0.1255862 0.1241745 0.1231977 0.1227928 0.1226127 0.1207807 0.1148541 0.1055786 0.09859222
 0.09967981 0.1082691 0.1178278 0.1227698 0.1229062 0.12119 0.1196879 0.1187277 0.1181996 0.1182279
 0.1189281 0.1201547 0.1215218 0.1226254 0.1232953 0.1235763 0.1234398 0.1225278 0.1200962 0.1152922
 0.1078428 0.09863111 0.089398 0.08174606 0.07641703 0.0732864 0.071714 0.07092973 0.07041671 0.07013851
 0.07040277 0.07148859 0.07342194 0.07606127 0.07924329 0.0827255 0.08608983 0.08892266 0.09111927 0.09286238
 0.09428635 0.09530647 0.09579271 0.09576495 0.09536389 0.09473052 0.09397193 0.09316509 0.09230351 0.09128441
 0.09006937 0.08885744 0.08797164 0.08754619 0.08743484 0.08743037 0.08744461 0.08746559 0.08747403 0.08744386
 0.08737083 0.08730549 0.08736679 0.08765522 0.08812723 0.08860806 0.08893783 0.0890829 0.08912198 0.08911092
 0.08893977 0.08842829 0.08764373 0.08693898 0.0864858 0.08595326 0.08492574 0.08353579 0.08240651 0.08199339
 0.08219154 0.08256567 0.08276067 0.08267254 0.08243532 0.082355 0.08269762 0.08337327 0.08391657 0.08392917
</values></Ydata></ScRf><Data_Parameters_AB><parameter name="DPF">1</parameter><parameter name="NPT">3497</parameter><parameter name="FXV">3996</parameter><parameter name="LXV">500</parameter><parameter name="CSF">1</parameter><parameter name="MXY">0.0244412887841463</parameter><parameter name="MNY">-0.0923768654465675</parameter><parameter name="DAT">30/05/2022</parameter><parameter name="TIM">11:45:28.566 (GMT+2)</parameter><parameter name="DXU">WN</parameter></Data_Parameters_AB><AB__Qtest><MainReport name="Quality Test Report"><Header><Line><Legend>Test result ok/not ok [1/0]: </Legend><Value>0</Value></Line><Line><Legend>Method file: </Legend><Value>C:\Users\Public\Documents\Bruker\OPUS_8.2.28\QT\IRBT_v3_default.QT</Value></Line></Header><Matrix><Line><Legend></Legend><Legend>min</Legend><Legend>max</Legend><Legend>measured</Legend></Line><Line><Value>Absorption (X-Range 1):</Value><Value>0.400000</Value><Value>2.000000</Value><Value>0.061019</Value></Line><Line><Value>Noise (X-Range 4):</Value><Value></Value><Value>0.000300</Value><Value>0.000067</Value></Line><Line><Value>Signal/Noise (X-Range 2):</Value><Value>200.000000</Value><Value></Value><Value>10.998092</Value></Line><Line><Value>Signal/Noise (X-Range 3):</Value><Value>40.000000</Value><Value></Value><Value>7.246643</Value></Line><Line><Value>Water vapour (X-Range 5):</Value><Value></Value><Value>0.000300</Value><Value>0.000016</Value></Line><Line><Value>Signal/Water (X-Range 2):</Value><Value>100.000000</Value><Value></Value><Value>45.668002</Value></Line><Line><Value>Signal/Water (X-Range 3):</Value><Value>20.000000</Value><Value></Value><Value>30.090647</Value></Line><Line><Value>Fringes (X-Range 6):</Value><Value></Value><Value>0.000100</Value><Value>0.000055</Value></Line></Matrix></MainReport></AB__Qtest><Data_Parameters_ScSm><parameter name="DPF">1</parameter><parameter name="NPT">1814</parameter><parameter name="FXV">3996.33169228125</parameter><parameter name="LXV">499.541461535156</parameter><parameter name="CSF">1</parameter><parameter name="MXY">0.273291885852814</parameter><parameter name="MNY">0.0364144891500473</parameter><parameter name="DAT">30/05/2022</parameter><parameter name="TIM">11:45:28.566 (GMT+2)</parameter><parameter name="DXU">WN</parameter></Data_Parameters_ScSm><Data_Parameters_ScRf><parameter name="DPF">1</parameter><parameter name="NPT">1820</parameter><parameter name="FXV">4004.04661832813</parameter><parameter name="LXV">495.683998511719</parameter><parameter name="CSF">1</parameter><parameter name="MXY">0.264733612537384</parameter><parameter name="MNY">0.0319475084543228</parameter><parameter name="DAT">30/05/2022</parameter><parameter name="TIM">11:45:01.483 (GMT+2)</parameter><parameter name="DXU">WN</parameter></Data_Parameters_ScRf><Optic_Parameters_Rf><parameter name="APR">0</parameter><parameter name="APT">Open</parameter><parameter name="BMS">KBr</parameter><parameter name="DTC">RT-DLaTGS_IR-Biotyper [Microplate reader]</parameter><parameter name="HPF">0</parameter><parameter name="LPF">10.0</parameter><parameter name="LPV">4000</parameter><parameter name="PGR">0</parameter><parameter name="RCH">Module port</parameter><parameter name="RDX">0</parameter><parameter name="SRC">MIR</parameter><parameter name="VEL">10.0</parameter><parameter name="SON">Off</parameter></Optic_Parameters_Rf><Acquisition_Parameters_Rf><parameter name="ADT">1</parameter><parameter name="AQM">DD</parameter><parameter name="CFE">0</parameter><parameter name="COR">0</parameter><parameter name="DEL">0</parameter><parameter name="DLY">0</parameter><parameter name="HFW">8000</parameter><parameter name="LFW">0</parameter><parameter name="NSR">32</parameter><parameter name="PLF">AB</parameter><parameter name="RES">6</parameter><parameter name="RGN">-1</parameter><parameter name="STR">0</parameter><parameter name="TCL">MakeCompatibleScalar (0, {WSV=1.000000, ARV=0});</parameter><parameter name="TDL">37</parameter><parameter name="RPO">0</parameter></Acquisition_Parameters_Rf><FT_-_Parameters_Rf><parameter name="APF">B3</parameter><parameter name="HFQ">500</parameter><parameter name="LFQ">4000</parameter><parameter name="NLI">0</parameter><parameter name="PHR">24</parameter><parameter name="PHZ">ML</parameter><parameter name="SPZ">NO</parameter><parameter name="ZFF">1</parameter></FT_-_Parameters_Rf><Optic_Parameters_><parameter name="APR">0</parameter><parameter name="APT">Open</parameter><parameter name="BMS">KBr</parameter><parameter name="CHN">Module port</parameter><parameter name="DTC">RT-DLaTGS_IR-Biotyper [Microplate reader]</parameter><parameter name="HPF">0</parameter><parameter name="LPF">10.0</parameter><parameter name="LPV">4000</parameter><parameter name="PGN">0</parameter><parameter name="RDX">0</parameter><parameter name="SRC">MIR</parameter><parameter name="VEL">10.0</parameter><parameter name="SON">Off</parameter></Optic_Parameters_><FT_-_Parameters_><parameter name="APF">B3</parameter><parameter name="HFQ">500</parameter><parameter name="LFQ">4000</parameter><parameter name="NLI">0</parameter><parameter name="PHR">24</parameter><parameter name="PHZ">ML</parameter><parameter name="SPZ">NO</parameter><parameter name="ZFF">1</parameter></FT_-_Parameters_><Acquisition_Parameters_><parameter name="ADT">1</parameter><parameter name="AQM">DD</parameter><parameter name="CFE">0</parameter><parameter name="COR">0</parameter><parameter name="DEL">0</parameter><parameter name="DLY">0</parameter><parameter name="HFW">8000</parameter><parameter name="LFW">0</parameter><parameter name="NSS">32</parameter><parameter name="PLF">AB</parameter><parameter name="RES">6</parameter><parameter name="SOT">0</parameter><parameter name="TCL">MakeCompatibleScalar (0, {WSV=1.000000, ARV=0});</parameter><parameter name="TDL">37</parameter><parameter name="SPO">0</parameter><parameter name="SGN">-1</parameter></Acquisition_Parameters_><Instrument_Parameters_Rf><parameter name="HFL">15800.168544</parameter><parameter name="LFL">0</parameter><parameter name="LWN">15800.168544</parameter><parameter name="ABP">32197</parameter><parameter name="SSP">1</parameter><parameter name="ARG">2</parameter><parameter name="ASG">2</parameter><parameter name="ASS">32</parameter><parameter name="GFW">16</parameter><parameter name="GBW">16</parameter><parameter name="BFW">0</parameter><parameter name="BBW">0</parameter><parameter name="PKA">7299</parameter><parameter name="PKL">4996</parameter><parameter name="PRA">7470</parameter><parameter name="PRL">5001</parameter><parameter name="P2A">1</parameter><parameter name="P2L">1</parameter><parameter name="P2R">1</parameter><parameter name="P2K">1</parameter><parameter name="DAQ">0</parameter><parameter name="AG2">1</parameter><parameter name="SSM">1</parameter><parameter name="RSN">25246</parameter><parameter name="CRR">0</parameter><parameter name="SRT">1653911101.484</parameter><parameter name="DUR">19.6369934082031</parameter><parameter name="TSC">28.1</parameter><parameter name="MVD">0.359910160303116</parameter><parameter name="AN1">0.225793787595572</parameter><parameter name="AN2">0</parameter><parameter name="VSN">2.485 Apr  4 2017</parameter><parameter name="SRN">0085</parameter><parameter name="CAM">0</parameter><parameter name="INS">IR-Biotyper</parameter><parameter name="FOC">69</parameter><parameter name="RDY">1</parameter><parameter name="ARS">32</parameter></Instrument_Parameters_Rf><Sample_Parameters_><parameter name="BLD"></parameter><parameter name="CNM">Admin</parameter><parameter name="CPY"></parameter><parameter name="DPM"></parameter><parameter name="EXP">IRBT_v3_32Scans.XPM</parameter><parameter name="LCT"></parameter><parameter name="SFM">Microplate, HTS-XT</parameter><parameter name="SNM">220530-1021_AML29F (D_1)_F6_d09eaca9-b4f0-4c19-8842-028e9423db1b.0</parameter><parameter name="XPP">C:\Users\Public\Documents\Bruker\OPUS_8.2.28\XPM</parameter><parameter name="IST">OK</parameter><parameter name="CPG">1252</parameter><parameter name="UID">b528cb60-c6ab-4f74-a2da-4ffe8151beaf</parameter></Sample_Parameters_><Instrument_Parameters_><parameter name="HFL">15800.168544</parameter><parameter name="LFL">0</parameter><parameter name="LWN">15800.168544</parameter><parameter name="ABP">32197</parameter><parameter name="SSP">1</parameter><parameter name="ASG">2</parameter><parameter name="ARG">2</parameter><parameter name="ASS">32</parameter><parameter name="GFW">16</parameter><parameter name="GBW">16</parameter><parameter name="BFW">0</parameter><parameter name="BBW">0</parameter><parameter name="PKA">7876</parameter><parameter name="PKL">4988</parameter><parameter name="PRA">8206</parameter><parameter name="PRL">4993</parameter><parameter name="P2A">1</parameter><parameter name="P2L">1</parameter><parameter name="P2R">1</parameter><parameter name="P2K">1</parameter><parameter name="DAQ">0</parameter><parameter name="AG2">1</parameter><parameter name="SSM">1</parameter><parameter name="RSN">13249</parameter><parameter name="CRR">0</parameter><parameter name="SRT">1653911128.567</parameter><parameter name="DUR">19.6369934082031</parameter><parameter name="TSC">28.1</parameter><parameter name="MVD">0.304746389389038</parameter><parameter name="AN1">0.225792269551871</parameter><parameter name="AN2">0</parameter><parameter name="VSN">2.485 Apr  4 2017</parameter><parameter name="SRN">0085</parameter><parameter name="CAM">0</parameter><parameter name="INS">IR-Biotyper</parameter><parameter name="FOC">69</parameter><parameter name="RDY">1</parameter></Instrument_Parameters_><History/></OPUSDataFile>
