<?xml version="1.0" encoding="UTF-8" ?>
<OPUSDataFile><AB><Ydata ylabel="Absorbance Units"><values byteorder="INTEL" format="FLOAT32" numvalues="3497"> -0.07472813 -0.07473039 -0.07472239 -0.07470408 -0.07467573 -0.07463738 -0.07459481 -0.07454867 -0.07450879 -0.07447512
 -0.07445323 -0.07444085 -0.07443317 -0.07442804 -0.0744165 -0.07440171 -0.07438304 -0.07436847 -0.07436733 -0.07438321
 -0.07442497 -0.07448304 -0.07455738 -0.07462975 -0.07469349 -0.07473692 -0.07475436 -0.0747492 -0.07471984 -0.07468125
 -0.07463433 -0.07459593 -0.07456702 -0.07455587 -0.07456184 -0.07457899 -0.07460574 -0.07462928 -0.07465017 -0.07466295
 -0.07467052 -0.07467753 -0.07468513 -0.07469829 -0.07471407 -0.07473106 -0.07474653 -0.07475702 -0.07476407 -0.07476752
 -0.07476921 -0.07477096 -0.07476856 -0.07476158 -0.07474489 -0.07471626 -0.07468285 -0.0746443 -0.07461949 -0.07460947
 -0.07462772 -0.07467343 -0.07473942 -0.07482268 -0.07490107 -0.07497372 -0.07502487 -0.07505777 -0.0750716 -0.07507142
 -0.07506442 -0.07505587 -0.0750545 -0.07506339 -0.07508999 -0.07512766 -0.07517777 -0.07522308 -0.07525806 -0.07526862
 -0.07524784 -0.0752015 -0.07512712 -0.07504972 -0.0749706 -0.07492114 -0.07490317 -0.07493944 -0.0750292 -0.07516966
 -0.07535405 -0.07554205 -0.07572369 -0.07583764 -0.07588717 -0.07584304 -0.07572874 -0.07556854 -0.07538581 -0.0752182
 -0.07507502 -0.07497847 -0.07492132 -0.07490904 -0.07491975 -0.07494682 -0.0749732 -0.07499057 -0.07500564 -0.07501701
 -0.07504248 -0.07508448 -0.07514447 -0.07522278 -0.07530022 -0.07537619 -0.07543712 -0.07548575 -0.07553253 -0.07558049
 -0.07564895 -0.07573333 -0.07583568 -0.07594183 -0.07602796 -0.07608653 -0.07609337 -0.076065 -0.07600443 -0.07593425
 -0.07587055 -0.07581671 -0.07577872 -0.07575008 -0.07572798 -0.07571939 -0.0757237 -0.0757581 -0.07582568 -0.07592189
 -0.07604716 -0.07613613 -0.07618549 -0.07612596 -0.07596976 -0.07576124 -0.07551475 -0.07531009 -0.07514625 -0.07506081
 -0.07504638 -0.07511167 -0.07523726 -0.07541056 -0.0755954 -0.07575966 -0.07587533 -0.07591038 -0.07588124 -0.07578082
 -0.0756543 -0.07551286 -0.07538281 -0.07527161 -0.07518229 -0.07511608 -0.07507123 -0.07504771 -0.07504274 -0.0750561
 -0.07508342 -0.07512492 -0.07518043 -0.07524932 -0.07533202 -0.07542134 -0.07550123 -0.07556169 -0.0755745 -0.07554469
 -0.07546192 -0.07534913 -0.07522 -0.07509739 -0.07499842 -0.07493409 -0.07491454 -0.07493473 -0.07499828 -0.07508256
 -0.07518577 -0.07527991 -0.07536159 -0.07541607 -0.07544217 -0.07543795 -0.07540352 -0.07534052 -0.0752497 -0.0751362
 -0.07500188 -0.0748556 -0.07470086 -0.07454976 -0.07440732 -0.07428803 -0.07419395 -0.07413641 -0.0741058 -0.07410117
 -0.07410343 -0.07410052 -0.0740832 -0.07404165 -0.07398786 -0.07392164 -0.07386173 -0.07381179 -0.0737808 -0.07377054
 -0.07378073 -0.07381157 -0.07385623 -0.07391372 -0.07396743 -0.07401551 -0.07403626 -0.07403108 -0.07399162 -0.0739254
 -0.07384632 -0.07376304 -0.07369808 -0.07365333 -0.07364268 -0.07365683 -0.07369342 -0.07374161 -0.07379183 -0.07384763
 -0.07390779 -0.0739788 -0.07406596 -0.07415284 -0.07423894 -0.0742994 -0.07433026 -0.07433172 -0.07430369 -0.07423898
 -0.07413624 -0.07396618 -0.07373381 -0.07345594 -0.07314661 -0.07287257 -0.07263876 -0.07249631 -0.07243178 -0.07245149
 -0.07252304 -0.07260876 -0.07268596 -0.07271433 -0.07271112 -0.0726728 -0.07262655 -0.07258647 -0.07255352 -0.07253546
 -0.07250316 -0.07245345 -0.07235768 -0.07220978 -0.07202248 -0.07179558 -0.07157379 -0.07135902 -0.07118728 -0.07105685
 -0.07097637 -0.07093704 -0.07091188 -0.0708863 -0.07080314 -0.07066688 -0.07045071 -0.07018711 -0.06990912 -0.06963234
 -0.06938764 -0.06916033 -0.06895123 -0.06874231 -0.06852361 -0.06829593 -0.06805595 -0.06781585 -0.06757814 -0.06734627
 -0.06712233 -0.06689157 -0.06665351 -0.06637814 -0.06606489 -0.06570134 -0.06529362 -0.06488167 -0.0644693 -0.06409719
 -0.063756 -0.06343987 -0.06314346 -0.06285285 -0.06257018 -0.06229767 -0.06202255 -0.06174279 -0.06142101 -0.06103308
 -0.06055877 -0.05997617 -0.05931183 -0.05856726 -0.05777336 -0.05693555 -0.05607617 -0.05519761 -0.05432304 -0.05345443
 -0.05259569 -0.05174656 -0.05089821 -0.05005208 -0.04921532 -0.04838986 -0.04759089 -0.04681195 -0.04604539 -0.04528018
 -0.04449238 -0.04367552 -0.04281469 -0.04189838 -0.04091093 -0.0398472 -0.03868649 -0.03747726 -0.03623137 -0.03500035
 -0.03381073 -0.03264091 -0.03149316 -0.03032983 -0.02914483 -0.02793597 -0.02670228 -0.02546161 -0.02421481 -0.02297801
 -0.0217504 -0.02053788 -0.01933139 -0.01810108 -0.01682839 -0.01543678 -0.01394072 -0.01231331 -0.01062291 -0.008955479
 -0.007336149 -0.005831826 -0.004399278 -0.003032902 -0.001686984 -0.0003388117 0.001030932 0.002434027 0.003868139 0.005335145
 0.006826611 0.008340894 0.009881122 0.01144698 0.01305854 0.01471598 0.01642151 0.01817 0.01992135 0.02167286
 0.02338904 0.02507687 0.0267389 0.02837899 0.0300061 0.03162016 0.0332206 0.03481897 0.03642441 0.03804877
 0.03970612 0.04138757 0.04309105 0.04481478 0.04655347 0.04833068 0.05015366 0.05201576 0.05392192 0.05580857
 0.05767125 0.05947398 0.06121746 0.06293376 0.06462635 0.06633756 0.06806623 0.06983162 0.07162648 0.07344354
 0.07526967 0.07707406 0.07885474 0.08058745 0.08230137 0.08401104 0.08575178 0.08755912 0.08942048 0.09134611
 0.09328971 0.0952357 0.09717314 0.09909534 0.1010147 0.1029329 0.1048481 0.1067606 0.1086662 0.1105649
 0.112456 0.1143376 0.1161954 0.1180285 0.1198229 0.1215869 0.1233343 0.1250777 0.1268487 0.1286523
 0.1305126 0.132417 0.1343691 0.1363348 0.1382952 0.1402192 0.1420814 0.1438965 0.1456575 0.147413
 0.1491736 0.1509585 0.1527743 0.1545966 0.1564243 0.1582359 0.1600311 0.1618084 0.1635688 0.1653195
 0.1670638 0.1688211 0.1705925 0.1723952 0.1742176 0.1760456 0.1778673 0.1796561 0.1814195 0.1831547
 0.1848713 0.1865786 0.1882682 0.189938 0.1915823 0.193196 0.1947905 0.1963673 0.197935 0.1994946
 0.2010538 0.2026128 0.2041919 0.2057915 0.2074164 0.2090637 0.2107099 0.2123559 0.2139913 0.2156226
 0.2172666 0.2189219 0.2205954 0.2222789 0.223963 0.2256455 0.2273223 0.2289879 0.2306399 0.232266
 0.2338571 0.2354181 0.2369463 0.2384601 0.2399646 0.2414608 0.2429498 0.2444271 0.2458918 0.247358
 0.2488262 0.2502999 0.2517768 0.2532351 0.2546765 0.2560966 0.2575032 0.2589201 0.2603446 0.2617849
 0.263231 0.2646691 0.2661003 0.26752 0.2689328 0.2703433 0.2717446 0.2731344 0.2745087 0.2758639
 0.2772069 0.2785388 0.279863 0.2811798 0.2824913 0.2837977 0.2851039 0.2864096 0.2876995 0.2889712
 0.2901941 0.2913724 0.2925075 0.2936099 0.2947134 0.2958203 0.2969522 0.2981038 0.2992766 0.3004666
 0.3016738 0.3028848 0.3040937 0.30528 0.3064286 0.3075445 0.3086212 0.3096914 0.3107616 0.3118506
 0.3129639 0.3140897 0.3152281 0.3163575 0.3174771 0.318572 0.3196434 0.3206955 0.3217326 0.3227787
 0.3238321 0.324904 0.3259813 0.3270406 0.3280784 0.3290729 0.3300446 0.3310059 0.3319736 0.3329706
 0.3339781 0.3349983 0.3359935 0.3369507 0.3378527 0.3386888 0.3394823 0.340232 0.3409889 0.3417575
 0.3425654 0.3434126 0.3442611 0.3451065 0.3458881 0.3466121 0.3472722 0.3478854 0.3485005 0.3491273
 0.3498113 0.3505472 0.35135 0.3522012 0.353091 0.3539948 0.3548885 0.3557722 0.3566289 0.3575088
 0.3584227 0.3594181 0.3605177 0.3616828 0.3629196 0.3641127 0.3652535 0.3662511 0.3671026 0.3678111
 0.3683847 0.3689002 0.3693648 0.3698558 0.3703707 0.3709399 0.3715618 0.3722437 0.3729943 0.3738351
 0.3747551 0.3757663 0.376809 0.3778488 0.3788303 0.3797026 0.3804997 0.381209 0.3819287 0.3826808
 0.3835149 0.3844477 0.3854357 0.3864788 0.3874967 0.3884855 0.3893874 0.390204 0.390924 0.3915587
 0.3921539 0.3927285 0.3933659 0.3940764 0.3949293 0.3959071 0.3970238 0.3982301 0.3994871 0.4007386
 0.4019291 0.4030425 0.4040475 0.4049839 0.4058543 0.40671 0.4075627 0.408442 0.4093512 0.4103262
 0.4113688 0.4125362 0.4138304 0.4152699 0.4168454 0.4184759 0.4201394 0.4216817 0.4230887 0.4242242
 0.4251114 0.4257163 0.4261124 0.4263841 0.4266145 0.4269323 0.427347 0.4279292 0.4285809 0.4292873
 0.4299109 0.4304017 0.4306788 0.4307064 0.4305023 0.4300561 0.4294638 0.4287306 0.4279647 0.4271709
 0.4263976 0.4256416 0.4248841 0.4241224 0.4233308 0.422515 0.4216825 0.4208361 0.4199932 0.4191341
 0.4182473 0.4172867 0.4162042 0.4149562 0.413487 0.4118068 0.4098884 0.4078211 0.4056183 0.4033969
 0.4011868 0.3990548 0.3970183 0.3950775 0.3932355 0.3914573 0.3897408 0.3880333 0.3863328 0.384592
 0.3828195 0.3810304 0.3792455 0.3775467 0.3759333 0.3744587 0.3730753 0.3717386 0.3703966 0.3689637
 0.3674559 0.3658393 0.3642045 0.3625815 0.3610608 0.3596878 0.3584765 0.3574509 0.3565301 0.3557131
 0.3548691 0.3539862 0.3529757 0.3518336 0.3505869 0.349245 0.3479253 0.3466333 0.3454671 0.3444103
 0.3434649 0.3426023 0.3417576 0.3409193 0.3400351 0.3391227 0.3381791 0.3372297 0.3362965 0.3353826
 0.3344997 0.3336281 0.3327639 0.3318907 0.3310026 0.3300982 0.3291767 0.3282383 0.3272833 0.3263066
 0.325308 0.3242867 0.3232435 0.3221871 0.3211195 0.3200551 0.3189956 0.317955 0.3169311 0.3159291
 0.314939 0.3139499 0.312948 0.3119131 0.3108393 0.3097123 0.3085432 0.3073304 0.3060987 0.3048564
 0.3036208 0.3024013 0.3011832 0.2999681 0.2987198 0.2974339 0.2961031 0.2947273 0.2933512 0.2919776
 0.2906541 0.2893758 0.2881392 0.2869354 0.2857295 0.2845237 0.2833036 0.2820811 0.2808709 0.2796754
 0.2785058 0.2773518 0.2762067 0.2750702 0.2739332 0.2728248 0.2717508 0.2707435 0.2698191 0.2689525
 0.2681511 0.2673179 0.2664456 0.265443 0.2643052 0.2630403 0.2616569 0.2602623 0.2588669 0.257588
 0.2564195 0.2554101 0.2545301 0.2537427 0.2530054 0.2522328 0.2514037 0.2504494 0.2494073 0.248272
 0.247121 0.2459968 0.2449373 0.2439764 0.2430759 0.2422339 0.2414079 0.2405839 0.2397946 0.2390385
 0.2383984 0.2378785 0.2375118 0.2372914 0.2371422 0.237047 0.2368651 0.2365917 0.2361246 0.2354942
 0.2347106 0.233828 0.2329409 0.2320778 0.2313179 0.2306349 0.2300364 0.2294845 0.2289524 0.2284485
 0.2279661 0.2275346 0.227167 0.2268424 0.2265641 0.2262729 0.225961 0.2256215 0.2252537 0.2249275
 0.2246453 0.2244635 0.2243718 0.2243404 0.2243533 0.2243349 0.2242862 0.2241679 0.2239992 0.2237951
 0.2235686 0.2233472 0.2231163 0.2228809 0.2226021 0.2222617 0.2218281 0.2212786 0.2206279 0.2198656
 0.2190639 0.2182285 0.2174456 0.2167261 0.2160969 0.2155603 0.2150511 0.214563 0.2139919 0.2133391
 0.2125542 0.2116565 0.2106853 0.2096636 0.2086689 0.2077053 0.2068192 0.2059917 0.2052225 0.2044823
 0.2037498 0.2029986 0.2022066 0.2013691 0.2004727 0.1995511 0.1986064 0.1976889 0.1968109 0.195975
 0.1951867 0.1943795 0.1935499 0.1926383 0.1916481 0.1906104 0.1895364 0.1885147 0.1875408 0.1866515
 0.1858202 0.1849991 0.1841716 0.1832798 0.1823438 0.1813588 0.1803627 0.1793854 0.1784492 0.1775758
 0.1767691 0.1760346 0.1753742 0.1747895 0.1742806 0.1738497 0.1734818 0.1731777 0.172899 0.1726439
 0.172356 0.1720328 0.1716234 0.1711316 0.17055 0.1698946 0.1692158 0.1685338 0.1679234 0.167393
 0.1669938 0.1667157 0.1665699 0.1665367 0.166604 0.1667576 0.1669839 0.1672848 0.1676559 0.1681111
 0.168653 0.1692916 0.1700289 0.1708704 0.1718153 0.172888 0.1740898 0.1754727 0.1770385 0.1788275
 0.1808326 0.183034 0.1854156 0.1879064 0.1904957 0.1931181 0.1957781 0.1984521 0.2011521 0.2038837
 0.2066539 0.2094707 0.2123367 0.2152549 0.2182278 0.2212603 0.2243389 0.2274703 0.2305947 0.2337129
 0.2367086 0.2395744 0.2421708 0.244489 0.2464179 0.247955 0.2490498 0.2497094 0.2499454 0.2497776
 0.2492733 0.2484763 0.2475114 0.2464554 0.2454816 0.2446784 0.2442185 0.2441518 0.2445864 0.2455027
 0.2469278 0.248798 0.2510983 0.2537667 0.2567875 0.2601058 0.2637154 0.2675442 0.2715883 0.27575
 0.2800238 0.2842936 0.2885528 0.292683 0.2966792 0.3004496 0.3039936 0.3072645 0.310253 0.3129289
 0.3152439 0.317128 0.3184691 0.3191336 0.3189563 0.3177687 0.3154274 0.3117787 0.3068485 0.3005497
 0.2932032 0.2848147 0.2759582 0.2667041 0.2576551 0.2488832 0.2407736 0.233357 0.2267073 0.2208163
 0.2155438 0.2108725 0.2066212 0.2027817 0.1992304 0.1959596 0.192893 0.1900128 0.1872537 0.1846039
 0.1820162 0.1795091 0.1770752 0.1747562 0.1725731 0.170558 0.1687305 0.1670989 0.1656698 0.1644421
 0.163416 0.1625929 0.1619727 0.1615606 0.1613569 0.1613626 0.161575 0.1619565 0.1624911 0.1630578
 0.1636282 0.1640209 0.1642255 0.1641063 0.163708 0.1630276 0.1621654 0.1612286 0.1603366 0.1596177
 0.1591729 0.1590931 0.1594397 0.1602605 0.1615685 0.1633846 0.1656638 0.1684175 0.1715018 0.1749241
 0.1783371 0.1817269 0.1844503 0.1864646 0.186976 0.1859789 0.1829932 0.1781538 0.1716833 0.1638434
 0.1554063 0.1466041 0.1382216 0.1303246 0.1233348 0.1171503 0.1118419 0.1072389 0.1032657 0.09977688
 0.09669893 0.09393834 0.09145764 0.08919994 0.08715022 0.08527439 0.08356782 0.08200353 0.08057994 0.07925829
 0.07803597 0.076865 0.07574416 0.07464028 0.07355726 0.07249179 0.07145105 0.07045238 0.06950042 0.0686141
 0.06778797 0.06702749 0.06631245 0.06563099 0.06495517 0.06426347 0.06354422 0.06278088 0.06199908 0.06119736
 0.0604259 0.05969458 0.05903164 0.05844502 0.05790832 0.05742104 0.05692788 0.05642734 0.05589387 0.05533193
 0.05476362 0.05419168 0.05364302 0.05310857 0.05257877 0.05204165 0.05146635 0.05085776 0.05020371 0.0495294
 0.04885061 0.04819403 0.04758197 0.04702349 0.04653105 0.04609164 0.04570766 0.04534857 0.04501123 0.04465916
 0.04428745 0.04387572 0.04342169 0.04293483 0.04241634 0.0418916 0.04136134 0.04084251 0.04033428 0.03984113
 0.03936405 0.0389079 0.0384743 0.03807034 0.03769212 0.03733943 0.03700285 0.03667305 0.03634625 0.03601456
 0.03568766 0.03536715 0.03506384 0.03478458 0.03451814 0.03426697 0.03399667 0.03370329 0.03336355 0.03297465
 0.03255469 0.03210565 0.03167149 0.03125268 0.0308748 0.03053204 0.03021355 0.02991293 0.02960547 0.02929188
 0.02896038 0.02861826 0.02826998 0.02792266 0.02758614 0.02725854 0.02694482 0.02662992 0.02631021 0.02596777
 0.02559484 0.02518998 0.0247489 0.02429234 0.02382159 0.02335997 0.02290951 0.02247638 0.0220604 0.02165334
 0.02125501 0.02086021 0.02047001 0.02008705 0.01971083 0.01934217 0.01897803 0.01861221 0.0182445 0.01786986
 0.01749564 0.01712548 0.01676966 0.01643708 0.0161291 0.01585101 0.01559106 0.01534798 0.01510681 0.01486379
 0.01461389 0.01435527 0.01409455 0.01383197 0.01357647 0.01332842 0.01309331 0.01287129 0.01266635 0.01247819
 0.01230938 0.01215601 0.01201045 0.01186453 0.01169879 0.01150819 0.01127517 0.01100637 0.01069932 0.01036886
 0.0100232 0.009674541 0.009330677 0.008995951 0.008673559 0.008362856 0.008064695 0.007774735 0.007492873 0.007212359
 0.006932681 0.006649478 0.006362726 0.006073987 0.005783891 0.005498261 0.005217642 0.004947944 0.00468845 0.004441034
 0.00420268 0.00396907 0.003736082 0.003495797 0.003247339 0.002985568 0.002715812 0.002438667 0.002163342 0.001893965
 0.001636932 0.001396236 0.001168932 0.0009565791 0.0007460455 0.000536281 0.0003133678 7.591439E-05 -0.0001778146 -0.0004474922
 -0.0007213024 -0.0009982772 -0.001264691 -0.001521188 -0.00176273 -0.001992015 -0.002213679 -0.002431155 -0.002653347 -0.002882371
 -0.003126018 -0.003381395 -0.003650133 -0.003924029 -0.004198716 -0.00446661 -0.004721993 -0.004965962 -0.005196178 -0.005422401
 -0.005645772 -0.005876466 -0.006116326 -0.006367853 -0.006631671 -0.0069012 -0.007175982 -0.007445391 -0.007709194 -0.007960478
 -0.008200246 -0.008429004 -0.008648712 -0.00886538 -0.00908026 -0.009299223 -0.00952122 -0.009747649 -0.009976032 -0.01020403
 -0.01043131 -0.01065597 -0.0108817 -0.01110946 -0.01134307 -0.01158492 -0.01183224 -0.01208588 -0.01233654 -0.01258326
 -0.01281808 -0.01304011 -0.01324903 -0.01344497 -0.01363373 -0.0138157 -0.01399668 -0.01417667 -0.01435855 -0.01454259
 -0.01473073 -0.01492402 -0.01512604 -0.01533617 -0.0155568 -0.01578183 -0.01600769 -0.01622494 -0.01642515 -0.01660637
 -0.01676263 -0.01690676 -0.01703996 -0.01717997 -0.01733135 -0.01750098 -0.01769132 -0.01789548 -0.01811334 -0.01833424
 -0.01855768 -0.01877644 -0.01899032 -0.01919447 -0.0193888 -0.01956986 -0.01973852 -0.01989487 -0.02004153 -0.02018325
 -0.02032369 -0.02047024 -0.02062444 -0.02079175 -0.02096812 -0.02115359 -0.02134052 -0.02152516 -0.02170338 -0.02187231
 -0.02203408 -0.02218862 -0.02233838 -0.02248382 -0.02262484 -0.02276129 -0.02289636 -0.02303035 -0.02317182 -0.02332099
 -0.02348421 -0.02366 -0.02384493 -0.02403664 -0.02422568 -0.02441182 -0.02458906 -0.02476069 -0.0249285 -0.02509661
 -0.02527049 -0.0254504 -0.02563917 -0.02583263 -0.02602962 -0.02622668 -0.02642201 -0.02661584 -0.02680774 -0.02699942
 -0.02719116 -0.02738332 -0.027576 -0.02776834 -0.02796026 -0.02814944 -0.02833561 -0.02851499 -0.02868762 -0.02885146
 -0.02900742 -0.02915705 -0.02930152 -0.02944387 -0.02958514 -0.02972774 -0.02987325 -0.03002421 -0.03018139 -0.03034687
 -0.0305181 -0.03069489 -0.03087311 -0.03105115 -0.03122752 -0.03140152 -0.03157334 -0.03174304 -0.03190983 -0.03207363
 -0.03223421 -0.03239162 -0.03254832 -0.03270448 -0.03286275 -0.03302268 -0.03318363 -0.03334471 -0.03350274 -0.03365727
 -0.03380561 -0.03394834 -0.03408493 -0.03421675 -0.03434489 -0.03447051 -0.034595 -0.034718 -0.03483959 -0.03495958
 -0.03507744 -0.03519544 -0.03531362 -0.03543599 -0.03556333 -0.03569653 -0.0358359 -0.03597863 -0.03612455 -0.03627064
 -0.03641693 -0.03656303 -0.03670884 -0.03685414 -0.03699786 -0.03713652 -0.03726892 -0.03739026 -0.03750145 -0.03760079
 -0.03769231 -0.03777895 -0.03786572 -0.03795721 -0.03805606 -0.03816554 -0.03828327 -0.03840996 -0.03853932 -0.03867018
 -0.0387975 -0.03891997 -0.03903861 -0.03915325 -0.03926783 -0.03938249 -0.03949691 -0.03961068 -0.03971897 -0.03982187
 -0.03991689 -0.04000522 -0.04008948 -0.04017054 -0.0402517 -0.04033283 -0.04041504 -0.04049821 -0.04058249 -0.04066826
 -0.0407559 -0.04084546 -0.04093736 -0.04103044 -0.04112481 -0.04121783 -0.04130903 -0.04139609 -0.04147833 -0.04155697
 -0.0416319 -0.04170731 -0.04178341 -0.0418622 -0.04194356 -0.04202638 -0.04211118 -0.04219919 -0.04229281 -0.04239992
 -0.04252383 -0.04267573 -0.04285734 -0.04307684 -0.04333226 -0.04362524 -0.04395136 -0.04430678 -0.04469215 -0.04510311
 -0.04555552 -0.04605046 -0.04661557 -0.04725748 -0.04799395 -0.04883163 -0.04975387 -0.05076208 -0.05180402 -0.05287666
 -0.05390682 -0.0548889 -0.0557398 -0.05645162 -0.05693765 -0.05719487 -0.05716085 -0.05685228 -0.05626045 -0.05544079
 -0.05445984 -0.05340143 -0.0523794 -0.05144762 -0.05068436 -0.0500997 -0.04971867 -0.04953576 -0.04955862 -0.04976054
 -0.05014959 -0.05063012 -0.05119883 -0.05170112 -0.05212054 -0.05239086 -0.05250888 -0.05253657 -0.05247784 -0.0523974
 -0.05229223 -0.05217849 -0.05205102 -0.0519002 -0.05172534 -0.05151725 -0.05128467 -0.05103542 -0.05078181 -0.05054272
 -0.05031742 -0.05011553 -0.04991924 -0.04972265 -0.04950953 -0.04926976 -0.04900901 -0.04872362 -0.04843912 -0.04815813
 -0.04790503 -0.04768291 -0.04749736 -0.04734867 -0.04722244 -0.04711762 -0.04701716 -0.04692168 -0.04682584 -0.04673089
 -0.04663854 -0.04654865 -0.04646143 -0.0463772 -0.04629581 -0.0462197 -0.04615155 -0.0460928 -0.04604632 -0.04600946
 -0.04598186 -0.04596022 -0.04594269 -0.04593001 -0.0459217 -0.04592073 -0.04592792 -0.0459418 -0.04596271 -0.045983
 -0.04600226 -0.04601374 -0.04601773 -0.04601579 -0.04600929 -0.046007 -0.04600929 -0.04602284 -0.04604568 -0.04607693
 -0.04611391 -0.04615151 -0.04618928 -0.04622433 -0.04625842 -0.04629219 -0.04632644 -0.04636246 -0.04639783 -0.0464325
 -0.04646201 -0.0464853 -0.04649951 -0.0465038 -0.0464985 -0.04648339 -0.04646151 -0.04643303 -0.04640175 -0.04636769
 -0.04633246 -0.04629563 -0.04625543 -0.04621173 -0.04616248 -0.04610947 -0.04605526 -0.04600292 -0.04595859 -0.04592396
 -0.04590409 -0.04589689 -0.04590352 -0.04591797 -0.04593828 -0.04595677 -0.04597006 -0.04597419 -0.04596656 -0.04595133
 -0.04592825 -0.04590556 -0.04588418 -0.0458674 -0.04585544 -0.04584508 -0.04583608 -0.04582471 -0.04581096 -0.04579308
 -0.04577086 -0.04574258 -0.04570829 -0.04566675 -0.04561952 -0.04556802 -0.045515 -0.0454638 -0.04541724 -0.04537862
 -0.04534942 -0.04533193 -0.04532419 -0.04532688 -0.04533408 -0.04534474 -0.04535304 -0.04535761 -0.0453569 -0.04535034
 -0.04534126 -0.04532982 -0.04532053 -0.04531336 -0.0453094 -0.04530783 -0.04530422 -0.04529802 -0.04528422 -0.04526436
 -0.04523929 -0.0452114 -0.04518569 -0.04516178 -0.04514147 -0.04512286 -0.0451042 -0.04508675 -0.04507016 -0.04505787
 -0.04505176 -0.04505097 -0.04505629 -0.04506283 -0.04506984 -0.04507471 -0.04507698 -0.04507725 -0.04507554 -0.04506996
 -0.04506027 -0.04504235 -0.04501688 -0.04498519 -0.04494957 -0.0449193 -0.04489535 -0.04488602 -0.04488773 -0.04489896
 -0.04491423 -0.04492574 -0.04493245 -0.04492982 -0.0449222 -0.04491057 -0.04489916 -0.04489016 -0.04488424 -0.04488219
 -0.04488273 -0.0448859 -0.04488957 -0.0448936 -0.04489571 -0.04489575 -0.0448942 -0.04489115 -0.04488839 -0.04488548
 -0.0448806 -0.04487324 -0.04485975 -0.04484181 -0.04482114 -0.04480077 -0.04478737 -0.04478065 -0.04478397 -0.0447929
 -0.04480523 -0.04481665 -0.04482374 -0.04482564 -0.04482079 -0.0448113 -0.04479692 -0.0447822 -0.04476757 -0.04475845
 -0.04475548 -0.04476152 -0.04477681 -0.04479928 -0.04482859 -0.04485925 -0.04489094 -0.04491853 -0.04494252 -0.04496169
 -0.04497746 -0.04499298 -0.04500866 -0.0450274 -0.04504694 -0.04506601 -0.04508204 -0.04509164 -0.04509637 -0.04509509
 -0.04509354 -0.04509361 -0.04509961 -0.04511386 -0.04513412 -0.04516108 -0.04518692 -0.0452109 -0.04522752 -0.04523636
 -0.04524015 -0.04523933 -0.04524134 -0.04524621 -0.04525781 -0.04527533 -0.04529772 -0.0453246 -0.04535458 -0.04538739
 -0.04542243 -0.04545811 -0.04549222 -0.04552396 -0.04555075 -0.04557637 -0.04560147 -0.04563212 -0.0456715 -0.0457205
 -0.04578127 -0.04584618 -0.04591466 -0.04597779 -0.04603421 -0.04608266 -0.0461229 -0.04616223 -0.04620104 -0.04624702
 -0.04629958 -0.04635909 -0.04642382 -0.04648728 -0.04654843 -0.04660093 -0.04664595 -0.04668194 -0.0467122 -0.04673989
 -0.04676813 -0.04680105 -0.04683873 -0.04688299 -0.04693075 -0.04698139 -0.04703178 -0.04708069 -0.04712791 -0.04717299
 -0.0472177 -0.04726219 -0.0473077 -0.04735434 -0.04740232 -0.04745166 -0.04750242 -0.04755454 -0.04760791 -0.04766202
 -0.04771505 -0.04776593 -0.04781072 -0.04784928 -0.04787878 -0.04790155 -0.04791878 -0.04793401 -0.04795082 -0.04797089
 -0.04799652 -0.04802692 -0.04806239 -0.04810157 -0.04814421 -0.04818903 -0.04823597 -0.04828265 -0.04832879 -0.04837259
 -0.04841385 -0.04845438 -0.04849448 -0.04853984 -0.04859062 -0.04865119 -0.04872021 -0.04879549 -0.04887383 -0.04894578
 -0.04900917 -0.04905472 -0.04908479 -0.04909728 -0.04909886 -0.04909411 -0.04908922 -0.0490896 -0.04909676 -0.04911345
 -0.04913568 -0.04916342 -0.04919051 -0.04921578 -0.04923564 -0.0492493 -0.04925816 -0.04926223 -0.04926514 -0.04926704
 -0.04927062 -0.04927582 -0.04928363 -0.04929378 -0.04930589 -0.04931937 -0.04933221 -0.04934471 -0.04935627 -0.04936804
 -0.04938168 -0.04939656 -0.04941358 -0.04942904 -0.04944129 -0.04944658 -0.04944246 -0.04942919 -0.04940564 -0.04937639
 -0.0493417 -0.04930787 -0.04927566 -0.04924931 -0.04922923 -0.04921426 -0.04920423 -0.04919498 -0.04918667 -0.04917836
 -0.04917077 -0.0491667 -0.04916582 -0.04916907 -0.04917489 -0.04918051 -0.04918565 -0.04918821 -0.04919016 -0.0491925
 -0.04919682 -0.04920533 -0.04921519 -0.0492266 -0.04923351 -0.04923368 -0.04922619 -0.04920949 -0.04919153 -0.049173
 -0.04916057 -0.04915495 -0.04915177 -0.04915066 -0.04914312 -0.04912961 -0.04910935 -0.04908371 -0.04905848 -0.04903362
 -0.04901229 -0.04899312 -0.04897516 -0.04895675 -0.04893542 -0.0489099 -0.04887753 -0.04883985 -0.04879636 -0.04875108
 -0.04870617 -0.04866179 -0.04861899 -0.04857403 -0.04852585 -0.04847521 -0.04842164 -0.04837115 -0.04832417 -0.04828235
 -0.04824557 -0.04821053 -0.04817715 -0.04814373 -0.04811008 -0.04807464 -0.0480368 -0.04799315 -0.0479455 -0.04789495
 -0.04784517 -0.0478025 -0.04776612 -0.04773896 -0.04771477 -0.04769047 -0.04766178 -0.04762538 -0.04758243 -0.04753218
 -0.04747834 -0.04742129 -0.04736518 -0.04731064 -0.04725963 -0.04721237 -0.04716717 -0.04712412 -0.04708477 -0.04704987
 -0.04702652 -0.04701403 -0.04701461 -0.04702406 -0.04703229 -0.047035 -0.04701833 -0.04698284 -0.04692213 -0.0468424
 -0.04674587 -0.04664158 -0.04653529 -0.04643466 -0.04634536 -0.04626687 -0.04620148 -0.04614051 -0.04608268 -0.04602133
 -0.04595498 -0.04588534 -0.04581224 -0.04574338 -0.04567928 -0.04563063 -0.04559706 -0.04558252 -0.04558245 -0.04557979
 -0.04556903 -0.04552253 -0.04544586 -0.04533447 -0.04520103 -0.04506239 -0.04492194 -0.04478933 -0.04466263 -0.04454223
 -0.04442994 -0.04432706 -0.04423299 -0.04414928 -0.0440675 -0.04398663 -0.04389817 -0.04380099 -0.04368934 -0.04356275
 -0.04341641 -0.04325049 -0.04307072 -0.04287858 -0.0426895 -0.04250333 -0.04232793 -0.04216145 -0.04200173 -0.04184964
 -0.04170668 -0.04157182 -0.04144715 -0.04132297 -0.04119113 -0.04104419 -0.04087198 -0.04068208 -0.04047469 -0.04025967
 -0.04004086 -0.03981981 -0.03959708 -0.03937506 -0.0391539 -0.03893787 -0.03872756 -0.03851831 -0.03830966 -0.03809129
 -0.03786243 -0.03761255 -0.03734078 -0.03703581 -0.03670108 -0.03633855 -0.03595669 -0.03557508 -0.03519397 -0.03482459
 -0.03445674 -0.03408322 -0.03370098 -0.03330253 -0.03289939 -0.0324954 -0.0320972 -0.03170989 -0.03132512 -0.03094378
 -0.03054823 -0.03013834 -0.02968147 -0.02917528 -0.02859183 -0.02793122 -0.02721646 -0.02645047 -0.02567252 -0.02487555
 -0.02405015 -0.02318273 -0.02222775 -0.02117943 -0.02000239 -0.01870316 -0.01727334 -0.01572865 -0.01407974 -0.01234287
 -0.01053801 -0.008651938 -0.006692152 -0.004608839 -0.002378677 -1.370041E-05 0.002506985 0.005036715 0.007560817 0.009955916
 0.01220788 0.01433766 0.01634674 0.01828422 0.02014698 0.02192212 0.0236114 0.02520696 0.02673302 0.02825484
 0.02979774 0.0314535 0.03320714 0.03508328 0.03704122 0.03904212 0.04108302 0.04314285 0.04525333 0.04742431
 0.04967764 0.05202193 0.05446761 0.05700745 0.05971379 0.06258372 0.06579204 0.0693565 0.07330801 0.07763737
 0.08196132 0.08626392 0.09021889 0.09388056 0.09733861 0.1006458 0.104012 0.1074418 0.1110377 0.1148041
 0.1187587 0.1229922 0.1275556 0.1326537 0.1384356 0.1450454 0.1526674 0.1610329 0.1701688 0.1794847
 0.1888537 0.197938 0.2066572 0.2150207 0.223016 0.2308177 0.2384402 0.2462512 0.2542885 0.2631068
 0.2726405 0.2829655 0.2937907 0.3041914 0.3141415 0.3230326 0.331248 0.3390945 0.346844 0.3549273
 0.363324 0.3721641 0.381319 0.3907439 0.4004071 0.4103158 0.4203281 0.4304408 0.4403828 0.4500995
 0.459591 0.4688507 0.4779803 0.4869747 0.4955109 0.5035539 0.5106153 0.5167246 0.5217783 0.5258175
 0.5289342 0.5311013 0.5322579 0.5324984 0.5318819 0.5306387 0.5290467 0.5271743 0.52514 0.5229938
 0.5207644 0.5185683 0.5164844 0.5144141 0.5124072 0.5100126 0.5072045 0.503367 0.4984318 0.4922944
 0.4849667 0.4773077 0.4693485 0.4617613 0.4544451 0.4472336 0.4400443 0.432501 0.4246631 0.4164232
 0.4079967 0.399645 0.3915488 0.3840409 0.3770377 0.3706138 0.3645526 0.3587329 0.3531492 0.3477294
 0.3427248 0.3381906 0.3342306 0.3308898 0.3279919 0.325527 0.3233331 0.3214041 0.31975 0.3183756
 0.3173403 0.3166326 0.3162242 0.3160987 0.3161858 0.3164872 0.3169721 0.3176477 0.3185121 0.3195705
 0.3208229 0.3222882 0.323975 0.3259139 0.3281195 0.3306201 0.3334237 0.3365662 0.3400578 0.343916
 0.3481548 0.3526908 0.3575233 0.3624925 0.3675908 0.3727288 0.3779051 0.3830972 0.388271 0.3932476
 0.3979731 0.402144 0.4058168 0.4089382 0.4116497 0.4141516 0.4165092 0.4188832 0.4212316 0.4235666
 0.4258637 0.4280898 0.4303248 0.4325741 0.4349715 0.4375687 0.4403315 0.4432992 0.4460805 0.4486441
 0.4507302 0.4523283 0.4535071 0.4542705 0.4546824 0.4547345 0.4544156 0.4537161 0.4526241 0.4510815
 0.4490214 0.4462301 0.4423488 0.4372511 0.4304581 0.4226118 0.4139843 0.4052247 0.3968814 0.3886806
 0.3806419 0.3724851 0.3640793 0.3556827 0.3472986 0.3392972 0.3317248 0.3245735 0.3178416 0.3112809
 0.3048879 0.2985376 0.292255 0.2861168 0.2801323 0.274388 0.2688409 0.2634407 0.2581418 0.2528421
 0.2475478 0.2422385 0.2368945 0.2315501 0.2260003 0.2201788 0.2138233 0.2066928 0.1992814 0.1915451
 0.1846105 0.17872 0.1738947 0.1701962 0.1668602 0.1638507 0.1606864 0.1573853 0.1539949 0.1505623
 0.1473865 0.1444445 0.1418211 0.1394596 0.1372478 0.1352165 0.1333392 0.1317253 0.1304934 0.1296871
 0.1293962 0.1295601 0.1301735 0.1311718 0.1325257 0.134221 0.1362357 0.1386474 0.1414481 0.1448485
 0.1488711 0.1536217 0.1591021 0.1648151 0.170709 0.1759953 0.1806959 0.1845178 0.1875412 0.1898791
 0.1915928 0.19286 0.1937449 0.1944082 0.1949306 0.195453 0.196039 0.1968032 0.1976908 0.1987333
 0.1997538 0.2006836 0.2014659 0.2020585 0.2025447 0.2029295 0.2032938 0.2036461 0.2040259 0.2044353
 0.2048768 0.2053489 0.2058312 0.2063237 0.2068121 0.2073046 0.2078184 0.208369 0.2090003 0.2097224
 0.2105694 0.2115485 0.2126722 0.2139695 0.2154612 0.2171827 0.2191664 0.2213978 0.2238914 0.2265709
 0.2294246 0.2323775 0.2354162 0.2385012 0.2416309 0.2447348 0.2478087 0.2506819 0.2533444 0.2556199
 0.2575141 0.25897 0.2599979 0.2606083 0.2607934 0.2605411 0.2598397 0.2586567 0.2570086 0.2548909
 0.2523519 0.2494231 0.2461512 0.242572 0.2386979 0.2345398 0.2301022 0.2253689 0.2204486 0.2153344
 0.2102843 0.2053208 0.2006478 0.1962772 0.1921836 0.1883574 0.1846614 0.1810985 0.1776111 0.1742222
 0.1709885 0.1679142 0.1650505 0.1623574 0.159802 0.1573258 0.154852 0.1523397 0.1497249 0.1470158
 0.1441846 0.1413069 0.1383944 0.1355461 0.1327927 0.1301696 0.1276943 0.1253161 0.1230327 0.1207822
 0.1185608 0.1163876 0.1142701 0.1123171 0.1105346 0.1090198 0.1077598 0.1067624 0.1060066 0.105447
 0.1050688 0.1048294 0.1047176 0.1047072 0.1047851 0.104937 0.1051439 0.105397 0.1056664 0.1059431
 0.1061913 0.1064024 0.1065446 0.106612 0.1065818 0.1064507 0.1062119 0.105865 0.1054247 0.1048928
 0.1042963 0.103639 0.1029549 0.102254 0.1015874 0.1009688 0.1004577 0.1000583 0.09980782 0.09969377
 0.09971956 0.09986253 0.1001096 0.1004323 0.1008159 0.101228 0.1016548 0.1020709 0.1024667 0.1028324
 0.1031648 0.1034626 0.1037253 0.1039522 0.1041429 0.1042987 0.1044195 0.1045082 0.1045645 0.1045886
 0.1045799 0.1045365 0.1044585 0.1043448 0.1041973 0.1040176 0.1038119 0.1035867 0.1033511 0.1031153
 0.1028828 0.1026593 0.1024411 0.1022265 0.1020191 0.1018164 0.1016382 0.101486 0.1013845 0.1013366
 0.101356 0.1014437 0.1015973 0.1018158 0.1020846 0.1024026 0.1027545 0.1031423 0.103564 0.1040267
 0.1045452 0.1051271 0.1057922 0.106542 0.1073882 0.1083226 0.1093444 0.1104395 0.1115995 0.1128164
 0.1140831 0.1154053 0.1167834 0.1182231 0.1197281 0.1212803 0.1228805 0.1244842 0.126089 0.1276473
 0.1291574 0.1305886 0.1319411 0.1332004 0.1343657 0.1354269 0.1363796 0.1372084 0.137908 0.1384616
 0.1388683 0.1391204 0.1392188 0.1391644 0.1389505 0.1385756 0.1380267 0.1372965 0.1363848 0.1352855
 0.1340271 0.1326097 0.1310818 0.1294473 0.1277518 0.1259982 0.1242163 0.122407 0.1205888 0.1187618
 0.1169384 0.1151169 0.1132982 0.1114767 0.1096383 0.1077788 0.105882 0.1039535 0.1019908 0.1000075
 0.09801345 0.09602161 0.0940421 0.09208236 0.09014814 0.08823988 0.08635965 0.0845012 0.08266362 0.08084253
 0.07903613 0.07725728 0.07550637 0.0738153 0.0721861 0.07065474 0.06922216 0.0679128 0.06672541 0.06566864
 0.06473991 0.06393671 0.06325794 0.06269906 0.06226403 0.06195382 0.06177812 0.06174345 0.06186277 0.06214437
 0.0625995 0.06323555 0.06405385 0.06505911 0.06623472 0.06758179 0.06906416 0.07068033 0.07237794 0.07415405
 0.07594638 0.07775191 0.07951503 0.08123665 0.08289274 0.08449199 0.08605287 0.08758867 0.0891425 0.09072289
 0.09236721 0.09407035 0.09584526 0.09767123 0.09953965 0.1014195 0.1032945 0.1051294 0.1069099 0.1086004
 0.1101895 0.1116508 0.1129762 0.1141627 0.115207 0.1161348 0.1169468 0.1176939 0.1183804 0.1190795
 0.1197977 0.1206171 0.1215416 0.1226324 0.1238861 0.125326 0.1269427 0.128733 0.1306806 0.1327698
 0.1349715 0.1372603 0.1396016 0.1419682 0.1443389 0.1466976 0.1490411 0.1513664 0.1536715 0.1559576
 0.1582096 0.1604276 0.1625847 0.1646795 0.1666839 0.168597 0.1704033 0.1721035 0.1736965 0.1751826
 0.1765622 0.1778367 0.1790064 0.1800821 0.18108 0.1820185 0.1829277 0.183819 0.1847133 0.1856131
 0.1865246 0.1874512 0.1883953 0.1893608 0.1903485 0.1913645 0.1924061 0.1935045 0.1946597 0.1959332
 0.1973292 0.1988942 0.2006273 0.2025071 0.2045214 0.2065754 0.2086492 0.2106154 0.212456 0.2140608
 0.215419 0.2164624 0.2171849 0.2175516 0.2175624 0.2171998 0.2164866 0.2154191 0.2140605 0.2124218
 0.2106054 0.2086312 0.2066217 0.2045972 0.2026714 0.200859 0.1992345 0.1978042 0.1965954 0.1956078
 0.1948329 0.1942635 0.1938515 0.193578 0.1933446 0.1931275 0.1928101 0.1923856 0.1917815 0.1910185
 0.1900892 0.189028 0.1878602 0.1866196 0.1853314 0.1840233 0.1827123 0.1814144 0.1801391 0.178885
 0.1776554 0.1764326 0.1752162 0.1739805 0.1727238 0.1714299 0.170099 0.1687373 0.1673461 0.1659394
 0.1645133 0.1630603 0.1615709 0.1600151 0.1583851 0.1566527 0.1548136 0.1528516 0.1507633 0.1485392
 0.1461807 0.1436836 0.1410599 0.1383111 0.1354566 0.1324994 0.1294656 0.1263573 0.1232131 0.1200358
 0.1168745 0.1137324 0.1106575 0.1076521 0.1047539 0.1019642 0.09930892 0.0967894 0.09442486 0.09221682
 0.09018198 0.08831486 0.08662003 0.08507288 0.08365025 0.0823115 0.0810141 0.07972436 0.07840721 0.07705317
 0.07564795 0.07420009 0.07270843 0.07118611 0.06963539 0.06806564 0.06647843 0.06487654 0.06325997 0.06163765
 0.06001121 0.05841627 0.05685771 0.05539116 0.0540184 0.0527797 0.05166778 0.05068577 0.04981951 0.04904583
 0.04834842 0.04769834 0.04707919 0.04646828 0.04584915 0.04520768 0.04452584 0.04379413 0.04299596 0.0421233
 0.04117355 0.04014229 0.03904758 0.03788959 0.03669753 0.03547312 0.03424686 0.0330205 0.03182567 0.03066403
 0.02956366 0.02852445 0.02756158 0.02667286 0.02586057 0.02512122 0.02444997 0.0238422 0.02328902 0.02278957
 0.02233739 0.02194138 0.02160489 0.02133662 0.02114481 0.02101923 0.02096205 0.02094601 0.02096639 0.02100223
 0.02104915 0.02110719 0.02117556 0.02126987 0.021391 0.02155671 0.02176688 0.02202875 0.02234037 0.02269681
 0.0230965 0.02353325 0.02400461 0.0245073 0.02502803 0.02555379 0.02605558 0.02650484 0.02687165 0.02712588
 0.02726051 0.02725932 0.02714744 0.02692346 0.02663624 0.0262914 0.0259471 0.0256099 0.0253318 0.0251172
 0.02499936 0.02497937 0.02506656 0.02525909 0.02554662 0.0259255 0.02637468 0.02688992 0.02744842 0.02804739
 0.02867025 0.02931724 0.02998248 0.03066542 0.03136657 0.03207594 0.03279073 0.03349103 0.0341677 0.03480599
 0.0353981 0.03594387 0.03644159 0.03689599 0.03730768 0.03767768 0.03800581 0.03829942 0.03855937 0.03880825
 0.03904841 0.03930974 0.03959394 0.03992558 0.04030318 0.04073734 0.0412206 0.04174567 0.04229957 0.04286246
 0.04342193 0.04395924 0.04446701 0.0449352 0.04536022 0.04573819 0.04606768 0.04634725 0.04657759 0.04675807
 0.04689264 0.04698059 0.04703541 0.04705736 0.04707273 0.04708292 0.04711444 0.04716734 0.04725285 0.0473698
 0.04751801 0.04769803 0.04791107 0.04815893 0.04844652 0.04877311 0.04914097 0.04954527 0.04998348 0.05044763
 0.05093274 0.05142979 0.05193436 0.0524375 0.05293633 0.05342174 0.053891 0.05434046 0.05476769 0.05518638
 0.05559672 0.05602524 0.05647307 0.05695622 0.05747353 0.05802064 0.05859565 0.0591879 0.05979559 0.06040951
 0.06102508 0.06162966 0.06221721 0.06277369 0.06329618 0.06377563 0.06421515 0.06461066 0.06497803 0.06531889
 0.06566419 0.06602358 0.06642019 0.06686516 0.06734201 0.06785391 0.06834763 0.06881956 0.06922208 0.06955379
 0.06981834 0.07002212 0.07022687 0.07043929 0.07072888 0.07108849 0.07153564 0.07205277 0.07261018 0.07319954
 0.07379673 0.07439768 0.07499813 0.0755699 0.07609829 0.07654325 0.07687393 0.07710017 0.07720485 0.07726993
 0.07730473 0.07740274 0.07758111 0.07787041 0.07827758 0.07875419 0.07929719 0.07982477 0.08033551 0.08078119
 0.08117002 0.08151565 0.08182961 0.08215616 0.08249836 0.08288692 0.0833123 0.08377685 0.08426179 0.08474862
 0.08522528 0.08567086 0.08610462 0.0865252 0.08697135 0.08746008 0.0879946 0.08858547 0.08918561 0.08979052
 0.0903587 0.09088507 0.09136926 0.09181143 0.09222739 0.09261884 0.09300477 0.09339143 0.09381862 0.0942951
 0.09487078 0.09554681 0.09635174 0.09727764 0.09832803 0.09948632 0.1007436 0.1020661 0.1034368 0.1048013
 0.1061378 0.1073777 0.1084971 0.1094389 0.1101795 0.1107288 0.1110754 0.1113231 0.1114771 0.1116658
 0.1118953 0.112234 0.1126796 0.1132352 0.1138942 0.114627 0.1154236 0.1162374 0.1170593 0.1178459
 0.1185967 0.1192935 0.1199354 0.1205196 0.1210328 0.1214655 0.1218065 0.1220436 0.1221879 0.1222363
 0.1222186 0.1221372 0.1220339 0.1219123 0.1218219 0.1217674 0.1217786 0.1218568 0.121994 0.1221888
 0.1224251 0.1227036 0.1230209 0.1233757 0.1237611 0.124177 0.1246175 0.1250898 0.1256043 0.1261597
 0.1267597 0.1273974 0.1280601 0.128775 0.1295505 0.1304164 0.1314134 0.1324206 0.1334332 0.1342583
 0.1348509 0.135232 0.1353944 0.1354641 0.1354471 0.1354175 0.1353748 0.1353398 0.1353065 0.1352579
 0.1351844 0.135043 0.1348341 0.1345302 0.1341531 0.133722 0.1332599 0.1328023 0.1323507 0.131918
 0.1314987 0.1310909 0.130699 0.1303233 0.1299705 0.1296408 0.1293467 0.1290884 0.1288873 0.1287463
 0.1286635 0.1286385 0.1286221 0.12861 0.128536 0.1283992 0.1281575 0.1278186 0.1273792 0.1268604
 0.1263034 0.1257346 0.1252188 0.1247522 0.1243635 0.1240158 0.1236875 0.1233622 0.123022 0.1226764
 0.1223266 0.1219723 0.1216111 0.1212569 0.1209083 0.1206054 0.1203535 0.1201495 0.1199932 0.1198349
 0.119676 0.1195158 0.1193623 0.1192651 0.1192201 0.1192409 0.1193136 0.1194111 0.1195299 0.1196528
 0.1197804 0.119908 0.1200353 0.1201565 0.120287 0.1204311 0.1206083 0.1208314 0.1210888 0.1213851
 0.1216794 0.1219679 0.1222086 0.1223972 0.1225073 0.1225375 0.1225006 0.1224008 0.1222946 0.1221824
 0.1221006 0.1220358 0.121958 0.1218627 0.1217146 0.1215408 0.1213661 0.1212212 0.1211576 0.1211686
 0.121275 0.1214321 0.1216282 0.1218066 0.1219428 0.1220096 0.1219867 0.1219189 0.1218056 0.1217229
 0.1216807 0.1216835 0.1217316 0.1217548 0.1217512 0.1216789 0.1215456 0.1213765 0.1211784 0.1209892
 0.1208065 0.1206455 0.1204948 0.1203461 0.1201808 0.1199731 0.1197164 0.119392 0.1190176 0.1186007
 0.1181445 0.1176601 0.1171084 0.1164824 0.1157509 0.1149027 0.1139613 0.112925 0.1118543 0.1107524
 0.1096863 0.1086579 0.1077114 0.1068384 0.1060181 0.105231 0.1043958 0.1035046 0.1024911 0.101378
 0.1001668 0.09889602 0.09760642 0.09633377 0.09511656 0.09398164 0.09295613 0.09204085 0.09124437 0.0905506
 0.08995438 0.08946016 0.08906873 0.0887814 0.08860285 0.08845899 0.08834583</values></Ydata></AB><ScSm><Ydata ylabel="Single channel"><values byteorder="INTEL" format="FLOAT32" numvalues="1814"> 0.07239368 0.07239227 0.07245518 0.07261118 0.07283384 0.073054 0.07320803 0.07328084 0.07329337 0.0732589
 0.07318775 0.07313393 0.07318388 0.07337058 0.07362147 0.07380802 0.07384863 0.07378126 0.07374094 0.07382789
 0.07397091 0.07395155 0.07360761 0.07301766 0.07245047 0.07211995 0.07205272 0.07224099 0.07277174 0.07357822
 0.07416527 0.07396602 0.07305688 0.07218012 0.07192045 0.07214552 0.07235838 0.07226896 0.07188225 0.07138395
 0.07118657 0.07181522 0.07338835 0.07519551 0.07595703 0.07463292 0.07116576 0.06670854 0.06319787 0.06231789
 0.06431368 0.06765418 0.07018149 0.07083331 0.07014757 0.06916362 0.06830491 0.06752327 0.0670258 0.06730644
 0.06846483 0.06975266 0.06996361 0.06846549 0.06595176 0.06394652 0.06341323 0.06415318 0.06562553 0.06753591
 0.06900384 0.06809165 0.0637155 0.05805793 0.05558904 0.05881284 0.06559467 0.0712522 0.07272056 0.070262
 0.06609749 0.06256736 0.06125582 0.06256662 0.0656475 0.06909855 0.07182156 0.07306956 0.07226048 0.06948395
 0.06599633 0.06360858 0.06356882 0.06607373 0.07023419 0.07415988 0.07581732 0.0745322 0.07143672 0.06827365
 0.06625238 0.06605801 0.06801774 0.07175398 0.07616825 0.08008191 0.08271623 0.08376572 0.0834603 0.08241996
 0.08118276 0.08012158 0.07977726 0.08052123 0.08167891 0.08178905 0.08019441 0.07791643 0.07660218 0.07682264
 0.07761966 0.07767509 0.07664449 0.07494001 0.07243097 0.0684282 0.06326917 0.05872944 0.0562509 0.05584989
 0.05716923 0.06003447 0.0632221 0.06440133 0.06268926 0.06026384 0.06020206 0.06319842 0.06721589 0.06996866
 0.07103085 0.0716648 0.07319525 0.0756584 0.07763317 0.07731257 0.07429978 0.07061529 0.06926528 0.07129073
 0.07477044 0.07718381 0.07806551 0.07872311 0.07994834 0.08078666 0.07953446 0.07576573 0.0714111 0.0695615
 0.07177658 0.07652246 0.08028808 0.08019135 0.07591785 0.06976929 0.06486189 0.06297603 0.06408703 0.06755374
 0.07281689 0.07878628 0.0835549 0.08547011 0.08434553 0.08135197 0.07768631 0.07347972 0.06843096 0.06361338
 0.0616855 0.06436899 0.07023595 0.07590042 0.07904345 0.07956706 0.07826538 0.07538883 0.07085699 0.06559937
 0.06197968 0.06195833 0.0647337 0.06720743 0.06722541 0.06552806 0.06414724 0.0638722 0.06397478 0.06376022
 0.06354365 0.06409192 0.06552245 0.06702062 0.06763388 0.06714251 0.06608363 0.06512079 0.06445118 0.06368153
 0.0623867 0.06095653 0.06054491 0.06179692 0.06395151 0.06562789 0.06621042 0.06605571 0.06557445 0.06455313
 0.06249978 0.05959161 0.05706127 0.05627849 0.05741215 0.05932713 0.06076882 0.0612631 0.06097268 0.06023591
 0.05935035 0.05847558 0.05767274 0.0571051 0.05700248 0.05731546 0.05764884 0.05766191 0.05733593 0.05678934
 0.05605101 0.05512025 0.05412531 0.0533144 0.05288033 0.05281186 0.05293623 0.0530776 0.05311131 0.05291771
 0.05243103 0.05174624 0.05105866 0.05048402 0.05002236 0.04967449 0.04948039 0.04942855 0.04940992 0.04929953
 0.04905374 0.04870901 0.04831129 0.04787761 0.04742077 0.04698214 0.04662463 0.046387 0.04623778 0.04609276
 0.04590662 0.04572133 0.04557811 0.04541926 0.0451485 0.04476562 0.04437084 0.04404907 0.04380505 0.04359775
 0.04338441 0.04312383 0.04277492 0.04233287 0.04187644 0.04154272 0.04141807 0.04146942 0.04159591 0.04170626
 0.04173313 0.04164009 0.04145298 0.04123754 0.04102069 0.0407715 0.04046888 0.04015566 0.03991744 0.03981567
 0.03983139 0.03987563 0.03986683 0.03978612 0.03965611 0.03950766 0.03937838 0.03929275 0.03922377 0.03911491
 0.03895185 0.03878042 0.03864956 0.03856002 0.03847068 0.03834579 0.03819665 0.03807069 0.03799495 0.03794766
 0.03789194 0.03781451 0.03772255 0.03762177 0.03750448 0.0373537 0.03716725 0.03697748 0.03682572 0.03671645
 0.03662015 0.03651903 0.03642432 0.03634895 0.03628388 0.03620497 0.03609613 0.03596485 0.03583105 0.03569887
 0.03555228 0.03538352 0.03520962 0.03505205 0.03491258 0.03477608 0.03462842 0.03446687 0.03429696 0.03412312
 0.03394577 0.03376658 0.03358859 0.03341059 0.03323248 0.03306551 0.0329234 0.03280239 0.03268296 0.03255187
 0.03241385 0.03228337 0.03217151 0.03207933 0.03200266 0.03194397 0.03191469 0.03192188 0.03195927 0.03201587
 0.03208588 0.03216748 0.03226382 0.03239022 0.03256837 0.03280225 0.03306483 0.03331845 0.03354756 0.03376634
 0.03399625 0.0342442 0.03450365 0.03476905 0.03504313 0.03532864 0.03561455 0.03587701 0.03610271 0.03630788
 0.03652211 0.03675628 0.03699906 0.03723999 0.03747654 0.03770002 0.03789682 0.03806832 0.03823285 0.0384042
 0.03858182 0.03876468 0.03895891 0.03916549 0.03937388 0.03957675 0.03978422 0.04001589 0.0402818 0.04057334
 0.04086786 0.04114185 0.04138862 0.04162768 0.0418918 0.04220054 0.04254587 0.04290189 0.04324663 0.04357695
 0.04390408 0.04423712 0.04457708 0.04492933 0.04530887 0.04572209 0.04615212 0.04657455 0.04698171 0.04738222
 0.04778379 0.04818707 0.04859195 0.04900147 0.04941946 0.04984586 0.05027293 0.05068763 0.05108198 0.05145988
 0.05183275 0.05221177 0.05260354 0.05300387 0.0533921 0.05374403 0.05406103 0.05437705 0.0547222 0.05508508
 0.05542774 0.05573529 0.05603014 0.05633484 0.05664288 0.05693754 0.05722179 0.05751361 0.05781927 0.05812195
 0.05839291 0.05860964 0.05877215 0.05890768 0.05905297 0.05922932 0.05943887 0.05967809 0.05994025 0.06020702
 0.06045371 0.0606651 0.06083928 0.06098365 0.06111857 0.06127477 0.06147147 0.06170114 0.06194194 0.06217447
 0.06238493 0.06257451 0.06277432 0.06302827 0.06334834 0.06370565 0.06407408 0.0644602 0.06487748 0.06531453
 0.0657512 0.06619222 0.06665807 0.06714319 0.06760605 0.06800859 0.06834893 0.06864824 0.06892652 0.06920853
 0.06953517 0.06993935 0.07040969 0.07089544 0.07134895 0.07175388 0.07211636 0.07244383 0.07273769 0.07299872
 0.07323246 0.07344674 0.07364654 0.07383575 0.07402244 0.07421248 0.07439306 0.07452944 0.07458311 0.07452749
 0.07434466 0.07402371 0.07357762 0.07305017 0.0724829 0.07187173 0.07116985 0.07033595 0.06936735 0.0682862
 0.06711178 0.06585912 0.0645601 0.06327686 0.06209299 0.06109346 0.06035098 0.05992414 0.05985195 0.06012952
 0.06067917 0.06135012 0.06195615 0.06232404 0.06232663 0.06190221 0.06106695 0.05990826 0.05855057 0.05711414
 0.05569269 0.05434803 0.05310997 0.05199164 0.0510282 0.05031066 0.04998045 0.05019338 0.05108327 0.05272485
 0.05507978 0.05795344 0.06102531 0.06396629 0.06656625 0.06877738 0.07066205 0.07231496 0.07381836 0.07522623
 0.07655673 0.07779798 0.07893111 0.07994752 0.08084327 0.08160606 0.08221386 0.08264415 0.082887 0.08296031
 0.08291794 0.08284233 0.08282299 0.08292464 0.08314773 0.08340387 0.08353713 0.08338594 0.08284244 0.08188157
 0.08057512 0.07911997 0.07787779 0.07736495 0.07810567 0.08035867 0.08390695 0.08812396 0.09229232 0.0959141
 0.09880753 0.1010236 0.1027234 0.1040847 0.1052408 0.106264 0.1071893 0.1080442 0.1088537 0.1096314
 0.1103774 0.1110874 0.1117635 0.1124151 0.1130494 0.1136668 0.1142675 0.1148583 0.1154512 0.1160544
 0.1166651 0.1172695 0.1178557 0.1184269 0.1189934 0.1195527 0.12009 0.1205999 0.1210947 0.1215912
 0.1221 0.122625 0.123158 0.1236748 0.1241525 0.1245944 0.1250278 0.1254766 0.1259418 0.1264077
 0.1268599 0.1272949 0.1277192 0.1281446 0.1285804 0.1290219 0.1294498 0.1298459 0.1302136 0.1305763
 0.1309565 0.1313578 0.1317661 0.1321652 0.1325542 0.1329536 0.1333885 0.1338621 0.1343484 0.1348132
 0.1352398 0.1356359 0.1360224 0.1364189 0.1368344 0.1372653 0.1377011 0.1381312 0.1385517 0.1389656
 0.1393749 0.1397747 0.1401582 0.1405284 0.1408964 0.141268 0.1416377 0.1419992 0.1423555 0.1427187
 0.1431002 0.1435002 0.143904 0.1442908 0.1446498 0.1449887 0.1453227 0.1456623 0.1460105 0.146369
 0.1467388 0.1471188 0.1475043 0.1478878 0.1482628 0.1486284 0.1489924 0.1493638 0.149744 0.1501257
 0.1505028 0.1508776 0.1512582 0.1516485 0.1520429 0.1524298 0.1528011 0.1531578 0.1535083 0.15386
 0.1542146 0.1545725 0.1549361 0.1553067 0.1556788 0.1560448 0.1564041 0.1567646 0.1571327 0.1575069
 0.1578789 0.158242 0.1585982 0.1589574 0.1593276 0.1597067 0.1600855 0.160458 0.1608252 0.1611924
 0.1615608 0.1619255 0.1622818 0.1626323 0.1629836 0.1633371 0.1636873 0.1640311 0.1643735 0.1647218
 0.1650746 0.1654194 0.165747 0.166065 0.1663904 0.1667316 0.1670845 0.1674432 0.1678043 0.168163
 0.1685159 0.1688651 0.1692147 0.1695662 0.1699197 0.1702727 0.1706207 0.1709633 0.1713063 0.171654
 0.1720055 0.1723601 0.1727178 0.1730737 0.1734212 0.1737575 0.1740838 0.1744041 0.174725 0.1750505
 0.1753792 0.1757101 0.1760462 0.1763894 0.1767389 0.1770935 0.1774496 0.1777992 0.1781387 0.1784732
 0.1788093 0.1791499 0.1794958 0.1798447 0.1801918 0.180539 0.1808929 0.1812533 0.1816128 0.1819685
 0.1823225 0.1826744 0.1830238 0.1833717 0.1837166 0.1840568 0.1843964 0.1847384 0.185079 0.1854163
 0.1857531 0.1860876 0.1864151 0.1867388 0.1870661 0.1873989 0.187735 0.1880701 0.188395 0.1887073
 0.1890192 0.1893429 0.1896767 0.1900137 0.1903495 0.1906798 0.1910051 0.1913317 0.1916582 0.1919734
 0.192277 0.1925796 0.192885 0.1931921 0.1935064 0.1938289 0.1941506 0.1944663 0.1947728 0.1950508
 0.1952536 0.1952614 0.1947688 0.1931729 0.1895648 0.1829107 0.1724586 0.1582102 0.1410875 0.1226085
 0.1043348 0.08746655 0.07271782 0.06040028 0.05057845 0.04317468 0.03803244 0.03501813 0.03412964 0.0356104
 0.04007081 0.04812418 0.05903203 0.06951649 0.07504603 0.07341477 0.06684905 0.05997656 0.05598706 0.05510091
 0.05594992 0.05736423 0.05897353 0.06099847 0.06381369 0.06751894 0.07192373 0.07701318 0.08317295 0.0906935
 0.09917981 0.1077217 0.1156829 0.123198 0.1308593 0.1390023 0.1473531 0.1552975 0.1623692 0.1684831
 0.1738375 0.1786959 0.1832385 0.1875454 0.1916533 0.1955573 0.1991224 0.2020454 0.2040006 0.2048882
 0.2049525 0.2046454 0.2043593 0.2042754 0.2044107 0.2047335 0.2052154 0.2058302 0.2065555 0.20737
 0.2082419 0.2091354 0.210027 0.2109002 0.2117322 0.2125033 0.2132103 0.2138623 0.2144696 0.2150384
 0.2155671 0.2160476 0.2164808 0.2168808 0.2172615 0.2176274 0.2179809 0.2183214 0.2186384 0.2189176
 0.2191564 0.219368 0.2195722 0.2197855 0.2200123 0.2202453 0.2204769 0.2207064 0.2209332 0.2211535
 0.221368 0.2215831 0.2217997 0.2220108 0.2222103 0.2223974 0.2225753 0.2227544 0.2229499 0.2231678
 0.2233988 0.2236307 0.2238579 0.2240775 0.2242838 0.224474 0.2246569 0.2248504 0.2250648 0.2252885
 0.2255035 0.2257109 0.2259285 0.2261651 0.2264121 0.226658 0.2268957 0.2271231 0.227348 0.2275808
 0.2278128 0.2280175 0.2281843 0.2283387 0.2285218 0.2287547 0.2290211 0.2292821 0.2295122 0.2297218
 0.229938 0.230172 0.2304102 0.2306297 0.2308244 0.2310237 0.2312728 0.2315803 0.2319059 0.2322121
 0.2324971 0.2327709 0.2330361 0.2333004 0.2335675 0.2338121 0.2340013 0.2341514 0.2343371 0.2346338
 0.2350473 0.2354992 0.2358955 0.2362104 0.2364898 0.2367908 0.2371395 0.2375058 0.2377842 0.2378669
 0.237807 0.2378458 0.2381938 0.2388215 0.2395198 0.2401136 0.2405685 0.2409375 0.2412687 0.2415589
 0.2417626 0.2418458 0.2418607 0.2419646 0.242314 0.2429035 0.2435555 0.244099 0.2445009 0.2448064
 0.245053 0.2452683 0.2454232 0.2453657 0.2449852 0.2445096 0.2444486 0.2450977 0.2462034 0.2472354
 0.2479124 0.2483411 0.2487102 0.2490528 0.2493169 0.2494141 0.2490943 0.2480854 0.246635 0.2456666
 0.2460187 0.2475986 0.2495346 0.2510474 0.2519408 0.2524076 0.2526926 0.2529324 0.2530531 0.2527689
 0.2518991 0.2508024 0.2502966 0.250908 0.2522832 0.2535689 0.2542824 0.2545773 0.2547996 0.2550949
 0.2553022 0.2549079 0.2533427 0.250819 0.2487486 0.2487471 0.2510527 0.2542435 0.2566528 0.2577969
 0.2582304 0.2583234 0.2577115 0.2559495 0.2531874 0.2501009 0.2476771 0.2470812 0.248892 0.252132
 0.2548133 0.2558971 0.2561783 0.2569718 0.2585363 0.2600883 0.2608255 0.2605441 0.2594907 0.2579289
 0.2560172 0.2542092 0.2534981 0.2547171 0.257519 0.2604988 0.2624952 0.2634718 0.2638954 0.263373
 0.2603852 0.254109 0.2467017 0.2427105 0.2450565 0.2519776 0.2589296 0.2630573 0.2647475 0.2654977
 0.2659082 0.265517 0.2630624 0.2571748 0.2485489 0.2412995 0.2401797 0.2458808 0.2542405 0.260119
 0.2609093 0.2568207 0.2499358 0.2435819 0.2409864 0.2433216 0.2491859 0.2559944 0.2615335 0.2645541
 0.2647634 0.262723 0.2597908 0.2577712 0.2576192 0.2580257 0.2563976 0.2521325 0.2476363 0.2447968
 0.242066 0.2373317 0.2325445 0.2324052 0.2382441 0.2457983 0.2499969 0.2500847 0.2487193 0.2471483
 0.2430977 0.2340702 0.2220788 0.2137012 0.2142943 0.2224396 0.2312158 0.2349359 0.2336274 0.2310183
 0.2295197 0.2277979 0.2227527 0.2136118 0.2038995 0.1985085 0.1986068 0.2006559 0.2006533 0.1973986
 0.1911543 0.1822501 0.1731791 0.1694126 0.1747238 0.1864577 0.1976104 0.2025941 0.1992798 0.1876992
 0.170625 0.1549569 0.1483721 0.1525667 0.1612996 0.1661851 0.1633615 0.15414 0.1413306 0.1272257
 0.1146042 0.1070884 0.1068852 0.1124757 0.1190375 0.1211022 0.1155764 0.1039493 0.09200823 0.08568735
 0.08592599 0.08826507 0.08786876 0.08382776 0.07839911 0.07390793 0.0713152 0.07034421 0.06989357 0.06898473
 0.06753228 0.06543544 0.06153126 0.05514073 0.04831472 0.04452148 0.04497801 0.04802154 0.05202891 0.05677424
 0.061478 0.06389312 0.06292678 0.06094648 0.06182084 0.06685421 0.073617 0.07876296 0.08128211 0.08272605
 0.08470433 0.08697304 0.08848666 0.08972646 0.09264648 0.09801738 0.1040493 0.1083754 0.1104786 0.1114208
 0.1120527 0.112406 0.1122902 0.1116451 0.1105129 0.1091148 0.1077648 0.1064998 0.1050404 0.103171
 0.1007518 0.09724766 0.09188934 0.08492906 0.07836108 0.07442284 0.07332201 0.07338972 0.07345255 0.07352509
 0.07276274 0.06883813 0.06103003 0.05271088 0.04884896 0.05122655 0.05719512 0.0627417 0.06555972 0.06519212
 0.06179652 0.05627165 0.05134421 0.05075681 0.05621799 0.06579135 0.07601915 0.08483467 0.09164961 0.09576233
 0.09633084 0.09388041 0.09081817 0.09011087 0.09357647 0.1010425 0.1102161 0.1170433 0.1176867 0.1125135
 0.10813 0.1124334 0.1260028 0.1407498 0.1489651 0.1512093 0.1528789 0.155853 0.1576712 0.1577059
 0.1594894 0.1658225 0.1745305 0.1805397 0.1803019 0.1731711 0.1608154 0.1474285 0.1386822 0.1374174
 0.1407705 0.1435516 0.1433655 0.1403105 0.1339243 0.124567 0.1167668 0.116446 0.1240212 0.1335462
 0.1395004 0.1418277 0.1434717 0.1452455 0.1448444 0.1403567 0.1334667 0.1283879 0.1276728 0.1299502
 0.1321329 0.132624 0.1313794 0.1281372 0.1226014 0.1162979 0.1125266 0.1135659 0.1184168 0.1238138
 0.127178 0.1282389 0.1282277 0.128294 0.1287229 0.1290628 0.128956 0.129213 0.1316431 0.1370325
 0.1437104 0.1491806 0.1529603 0.1567289 0.1617196 0.1669994 0.170581 0.1716066 0.1712176 0.1716128
 0.1742862 0.1788013 0.1830809 0.1851509 0.1849911 0.1847067 0.1865674 0.1908055 0.1956031 0.1991224
 0.2010075 0.2019649 0.202643 0.2031192 0.2028943 0.2013101 0.1985733 0.1963561 0.196643 0.199779
 0.2041283 0.2077137 0.2097473 0.2105607 0.2106206 0.209991 0.2086132 0.2067839 0.2051539 0.2042551
 0.2041479 0.204547 0.2051413 0.2057327 0.2062226 0.2065988 0.2069072 0.2071864 0.2074517 0.2077257
 0.2080159 0.2082673 0.2084082 0.2084628 0.2085509 0.2087356 0.2089186 0.2089349 0.2087013 0.2081993
 0.2073641 0.2061049 0.204438 0.2024935 0.2003637 0.1980401 0.1955795 0.1932919 0.1916573 0.1909845
 0.1911477 0.191682 0.1921271 0.1922721 0.1921446 0.1918821 0.1916394 0.1915437 0.1916663 0.1920246
 0.1926122 0.193418 0.1944171 0.1955611 0.1967914 0.1980689 0.1993862 0.2007511 0.2021645 0.2036158
 0.2050872 0.2065562 0.208004 0.2094232 0.2108083 0.2121361 0.2133657 0.2144568 0.2153815 0.2161266
 0.2166966 0.2171093 0.2173672 0.2174343 0.2172516 0.2167725 0.21596 0.2147613 0.213138 0.2111471
 0.2089513 0.2067149 0.2045134 0.2023576 0.2002528 0.1981913 0.1961198 0.1939655 0.1916941 0.1893267
 0.1869134 0.1845102 0.1821732 0.1799531 0.177881 0.1759568 0.1741479 0.1723923 0.1706026 0.168679
 0.1665295 0.1640779 0.1612622 0.1580421 0.1544123 0.1503952 0.1460315 0.1413954 0.1366173 0.1318694
 0.1273163 0.1230775 0.1192285 0.1158256 0.1129218 0.1105506 0.1087049 0.1073487 0.1064509 0.1059991
 0.1059863 0.1063923 0.1071636 0.1081909 0.1093144 0.1103731 0.1112674 0.1119937 0.1126385 0.1133398
 0.1142336 0.1154081 0.1168832 0.1186177 0.1205263 0.122488 0.1243558 0.1259914 0.1273127 0.1283074
 0.1290136 0.1295121 0.1299291 0.130402 0.1310153 0.1317719 0.1326231 0.1335126 0.1344023 0.1352795
 0.1361515 0.1370389 0.1379721 0.1389807 0.14008 0.1412743 0.1425722 0.1439905 0.1455505 0.1472806
 0.149215 0.1513797 0.153788 0.156448 0.1593546 0.1624685 0.1657123 0.168986 0.1721813 0.175188
 0.1779003 0.1802322 0.1821495 0.1837009 0.1850012 0.1861715 0.1872895 0.1883833 0.1894502 0.1904795
 0.1914653 0.1923915 0.1932065 0.1938362 0.1942305 0.1943957 0.1943894 0.1942992 0.1942123 0.1941872
 0.1942524 0.1944272 0.1947289 0.1951563 0.1956748 0.196218 0.1967082 0.197088 0.1973398 0.1974733
 0.197498 0.197406 0.1971651 0.1967286 0.1960718 0.1952222 0.1942369 0.1931515 0.1919617 0.1906451
 0.1891866 0.1875864 0.1858517 0.1839883 0.1820122 0.17997 0.1779316 0.1759578 0.1740882 0.1723497
 0.1707486 0.1692517 0.1677969 0.1663259 0.1648022 0.1632156 0.1615833 0.159939 0.1583122 0.1567217
 0.1551844 0.1537194 0.1523449 0.1510757 0.1499262 0.1489119 0.148042 0.1473019 0.1466454 0.1460183
 0.1453906 0.1447669 0.1441786 0.1436769 0.1433082 0.1430729 0.1429156 0.1427698 0.1426065 0.1424383
 0.1422893 0.1421665 0.1420541 0.1419272 0.1417631 0.1415337 0.1411929 0.1406789 0.1399256 0.1388773
 0.1375157 0.1358828 0.1340685 0.1321777 0.1303116 0.1285588 0.1269837 0.1256233 0.1244934 0.1235836
 0.1228497 0.1222388 0.1217319 0.1213576 0.1211567 0.1211144 0.1211222 0.1210451 0.1208582 0.1206863
 0.1206807 0.1208833 0.1212214 0.121589 0.1219022 0.1221178 0.1222387 0.1223053 0.1223652 0.1224288
 0.1224389 0.122303 0.1219807 0.121525 0.1210271 0.1205433 0.1200724 0.1195652 0.1189609 0.1182445
 0.1174545 0.11662 0.1157227 0.1147296 0.1136201 0.1123957 0.1111277 0.1099932 0.1092047 0.1088798
 0.1089696 0.1092914 0.1096513 0.1099582 0.1101784 0.1101918 0.109855 0.10931 0.1090901 0.1097229
 0.111212 0.1129993 0.1144369 0.1152185 0.1153779 0.1150403 0.1142986 0.1132334 0.1118905 0.1102576
 0.1083438 0.1062293 0.1039963 0.1017063 0.09946412 0.09739852 0.09558818 0.09406762 0.09284834 0.09195735
 0.09147789 0.0911198 0.08948046 0.08477701 0.07759557 0.07212834 0.07267763 0.07884872 0.0858207 0.08944979
 0.08957659 0.08836199 0.08731292 0.08666986 0.08636734 0.08651082 0.08718957 0.08829086 0.08951038 0.09052707
 0.09120445 0.09156393 0.09156306 0.09093738 0.08917714 0.08569583 0.08030181 0.07362784 0.06692562 0.06134612
 0.05743589 0.0551395 0.05401883 0.0535059 0.05319735 0.05304799 0.05328622 0.05413957 0.05564321 0.05767974
 0.06010632 0.0627384 0.06526344 0.06736019 0.06894951 0.07019127 0.07120934 0.07194829 0.0723078 0.07228835
 0.07198069 0.0714984 0.07093706 0.07034276 0.06969136 0.06892088 0.0680318 0.06716873 0.06654094 0.06622655
 0.06611836 0.06608056 0.06606414 0.06605412 0.06602105 0.06595987 0.06590432 0.06590407 0.06602477 0.06631582
 0.06673444 0.06715597 0.06748264 0.06770927 0.06789257 0.06806306 0.0681374 0.06797893 0.06762784 0.06734398
 0.06725528 0.06710401 0.06657991 0.06581587 0.06531215 0.06539536 0.06592696 0.0665212 0.06689286 0.06699067
 0.06695154 0.06701487 0.06737489 0.06797186</values></Ydata></ScSm><ScRf><Ydata ylabel="Single channel"><values byteorder="INTEL" format="FLOAT32" numvalues="1820"> 0.06067562 0.06083681 0.06093107 0.06096004 0.06095025 0.06094883 0.06100689 0.06114836 0.06134803 0.06154279
 0.0616766 0.06173962 0.06175391 0.0617294 0.06166751 0.06160886 0.06163083 0.06177223 0.06197989 0.06214497
 0.06219134 0.06214222 0.06210719 0.06217374 0.06228835 0.0622695 0.06197785 0.06147711 0.06099514 0.06071444
 0.06065708 0.06081545 0.06126478 0.06195158 0.06245562 0.06229003 0.06151275 0.0607533 0.06051516 0.06069426
 0.060872 0.06079895 0.06047264 0.06004509 0.05986624 0.06038751 0.06171737 0.06325743 0.06391871 0.06280846
 0.05986796 0.05607502 0.05308171 0.05232701 0.0540242 0.05687408 0.05903957 0.05960903 0.05903308 0.05819823
 0.05747126 0.05680984 0.05638042 0.05659756 0.05755262 0.05862183 0.05878637 0.05750718 0.05537006 0.05366971
 0.05322473 0.05386135 0.05511222 0.05672546 0.05796323 0.05719444 0.05350238 0.04872687 0.04664568 0.04938123
 0.05513257 0.05993396 0.06117979 0.05908509 0.0555386 0.05253881 0.0514347 0.0525602 0.05518194 0.05811053
 0.0604179 0.06147428 0.06079048 0.05844443 0.05549468 0.05346626 0.05341693 0.05552471 0.05904674 0.06238221
 0.06380089 0.06272174 0.06009898 0.05741264 0.05569374 0.05552408 0.05717948 0.06034353 0.06409263 0.06743127
 0.0696944 0.07061152 0.07036772 0.069491 0.06845035 0.06756903 0.06729769 0.06793921 0.06891863 0.06900246
 0.0676408 0.06570579 0.06459761 0.0648003 0.06549631 0.06555859 0.06468815 0.0632378 0.06110636 0.05771318
 0.05334159 0.0494966 0.04740181 0.04707012 0.04820425 0.05067014 0.05343131 0.05448663 0.05305963 0.05099535
 0.05092447 0.05345564 0.05686417 0.05920299 0.06010787 0.06066029 0.06199691 0.0641458 0.06588154 0.06564881
 0.06310447 0.05998251 0.05886675 0.06065392 0.06369303 0.06581809 0.06663179 0.06725916 0.06837864 0.06916828
 0.06816469 0.06500488 0.06135381 0.05987047 0.06188942 0.06608404 0.06942946 0.06943393 0.06581362 0.06056344
 0.0564087 0.05491636 0.05607264 0.05932644 0.06419767 0.06972864 0.0742289 0.07621606 0.07548992 0.07306481
 0.07001033 0.0664565 0.06213518 0.05802339 0.05656023 0.05934674 0.06509788 0.07070918 0.07402666 0.0749256
 0.07410823 0.07177499 0.06782393 0.06314494 0.06004914 0.06047414 0.06364591 0.06651139 0.06693184 0.06563581
 0.06465645 0.06480102 0.0653439 0.06558031 0.06583974 0.06692273 0.06894989 0.07105938 0.07223621 0.07222898
 0.07159653 0.07106081 0.07085256 0.07054009 0.06964461 0.06860289 0.06871617 0.07071763 0.07375437 0.07626128
 0.07753053 0.07796562 0.07802662 0.0774245 0.07553728 0.07257567 0.07006042 0.06969421 0.07171433 0.07474174
 0.07721286 0.07850456 0.07879402 0.07849497 0.07797448 0.07743235 0.07696348 0.07681435 0.07732044 0.0784243
 0.07956532 0.08023916 0.08041233 0.08027299 0.07987019 0.07918274 0.07837596 0.07780863 0.07777624 0.07828797
 0.07910771 0.07996421 0.08064836 0.08097285 0.08083633 0.08037148 0.07987244 0.0795282 0.07934903 0.07934591
 0.07959925 0.080098 0.08065499 0.08106053 0.08125023 0.08128329 0.08122456 0.08109529 0.08090934 0.08072603
 0.0806563 0.08078274 0.08105659 0.08133037 0.08153191 0.08173631 0.08200455 0.08223242 0.08226013 0.08208723
 0.08188331 0.08180246 0.08185919 0.08197439 0.08206467 0.08205533 0.08186872 0.08149426 0.08108358 0.08089256
 0.08107591 0.08157834 0.08223021 0.08286829 0.08335817 0.08362018 0.08368931 0.08367626 0.08363517 0.08352493
 0.08331597 0.08308885 0.08300695 0.08319134 0.08361001 0.08409487 0.08447875 0.08470034 0.08479246 0.08483741
 0.08493659 0.0851334 0.08534041 0.08541793 0.08534791 0.08526484 0.0852949 0.08541502 0.08549517 0.08545527
 0.08535919 0.08534864 0.08549315 0.08572757 0.08594069 0.08609529 0.08624384 0.08643788 0.08663623 0.08671883
 0.08661462 0.08640075 0.08622982 0.08616936 0.08617487 0.08621369 0.08632833 0.08654363 0.08677981 0.08691797
 0.08693274 0.08691373 0.08695059 0.08702716 0.08704805 0.08695236 0.08677646 0.08661252 0.08653249 0.08655095
 0.08663119 0.08670932 0.08672743 0.08666538 0.0865483 0.08642112 0.08631811 0.08626442 0.0862987 0.08645901
 0.08671838 0.08695075 0.08700553 0.08683966 0.08656627 0.0863568 0.08629119 0.08630282 0.08626147 0.08609736
 0.08584545 0.08559095 0.08539292 0.08525623 0.08515364 0.0850637 0.08500005 0.0850105 0.08512717 0.08529785
 0.08538905 0.08529575 0.08504634 0.08477263 0.08458599 0.0845081 0.08449812 0.0845052 0.08450601 0.0845231
 0.08458951 0.08467813 0.08470593 0.0846335 0.08452089 0.08446534 0.08452275 0.08469198 0.08491473 0.08507958
 0.08509353 0.08497924 0.0848598 0.0848316 0.08488801 0.0849724 0.08505747 0.08514965 0.08525161 0.08535688
 0.08547448 0.08563246 0.08584857 0.08610324 0.08634461 0.08652287 0.08663133 0.08672257 0.086875 0.08712959
 0.08745492 0.08777512 0.0880319 0.08822538 0.0883996 0.08858877 0.08878611 0.0889768 0.08918483 0.089453
 0.08978032 0.09011532 0.09041739 0.09069479 0.09097645 0.09127211 0.09157361 0.09188446 0.09223518 0.09265377
 0.09310977 0.09350664 0.0937604 0.09388518 0.09398584 0.09417398 0.09449397 0.09489394 0.09524852 0.09545247
 0.09552944 0.09561899 0.09582275 0.09609856 0.09634655 0.09656399 0.09685251 0.0972746 0.09775588 0.09815132
 0.09838659 0.09851748 0.09865713 0.09885609 0.09906216 0.09919956 0.09926829 0.09933813 0.09945701 0.09961486
 0.09980901 0.1000866 0.1004782 0.1009248 0.1013197 0.1016061 0.1017996 0.1019388 0.1020495 0.1021408
 0.1022064 0.1022401 0.1022662 0.1023269 0.1024239 0.1025059 0.1025389 0.1025563 0.1026183 0.1027516
 0.1029552 0.1032294 0.1035568 0.1038809 0.1041573 0.104421 0.1047494 0.1051385 0.1054697 0.1056366
 0.1056663 0.1056672 0.1056962 0.1057402 0.1058073 0.1059548 0.1062135 0.1065435 0.1068859 0.1072214
 0.1075604 0.1079013 0.1082117 0.1084422 0.1085575 0.108568 0.1085359 0.1085453 0.1086604 0.1088963
 0.1092121 0.1095353 0.109807 0.11 0.1100978 0.1100899 0.1100164 0.1099861 0.1100923 0.1103037
 0.1104748 0.110471 0.1102585 0.1098741 0.109354 0.1087222 0.1080288 0.1073614 0.1068077 0.1064158
 0.1062007 0.1061808 0.1063932 0.1068497 0.1074874 0.1081839 0.1088276 0.1093456 0.109663 0.1096861
 0.1093681 0.1087716 0.1080362 0.1072934 0.1066183 0.1060232 0.105467 0.1049039 0.1043711 0.1040248
 0.1040661 0.1046221 0.105682 0.1071029 0.1086576 0.1101136 0.1113264 0.1122856 0.1130742 0.1137802
 0.1144473 0.1150959 0.1157525 0.1164268 0.1170762 0.1176363 0.1180927 0.1184918 0.1188817 0.1192682
 0.1196269 0.1199316 0.1201762 0.1203859 0.1205923 0.1207805 0.1208868 0.1208728 0.1207745 0.1206537
 0.1205247 0.1203482 0.1200781 0.1197004 0.1192585 0.1188718 0.1187186 0.1189597 0.1196459 0.1206881
 0.1219243 0.1232183 0.1244868 0.1256484 0.1265998 0.1272766 0.1277132 0.1280144 0.1282769 0.1285508
 0.1288501 0.1291674 0.1294832 0.12978 0.1300571 0.1303324 0.1306311 0.1309637 0.1313064 0.1316126
 0.1318576 0.1320741 0.1323332 0.1326792 0.1330841 0.1334746 0.1338108 0.1341196 0.1344393 0.1347506
 0.134999 0.1351723 0.135324 0.1355221 0.1358014 0.1361553 0.1365389 0.1368819 0.1371344 0.137309
 0.1374642 0.1376456 0.1378611 0.1381003 0.1383553 0.1386178 0.1388771 0.1391358 0.1394137 0.1397205
 0.1400238 0.140265 0.1404208 0.1405361 0.140684 0.1408957 0.1411416 0.1413732 0.1415766 0.1417839
 0.1420378 0.1423434 0.142653 0.1429048 0.143076 0.1431976 0.1433196 0.143471 0.1436526 0.143855
 0.1440696 0.1442851 0.1444887 0.1446794 0.1448712 0.1450784 0.1453004 0.1455268 0.1457494 0.1459663
 0.1461788 0.1463909 0.1466129 0.1468622 0.1471516 0.1474672 0.1477636 0.1479951 0.148154 0.1482724
 0.1483893 0.148525 0.1486838 0.1488619 0.1490523 0.1492483 0.1494472 0.149649 0.1498539 0.1500625
 0.1502742 0.1504854 0.1506906 0.1508894 0.1510902 0.1513067 0.1515449 0.1517925 0.1520263 0.1522323
 0.1524168 0.1525978 0.1527891 0.1529902 0.1531889 0.153374 0.1535497 0.1537311 0.1539273 0.1541317
 0.154332 0.154522 0.154704 0.1548845 0.1550687 0.1552585 0.1554544 0.1556574 0.155867 0.15608
 0.1562922 0.1564993 0.1566975 0.1568858 0.1570683 0.157252 0.157443 0.1576449 0.1578569 0.1580725
 0.1582823 0.1584798 0.1586647 0.1588434 0.1590266 0.1592224 0.1594297 0.1596392 0.1598418 0.1600337
 0.1602183 0.160404 0.1605973 0.1608007 0.1610153 0.1612417 0.1614744 0.1617016 0.1619153 0.1621176
 0.1623174 0.1625225 0.1627374 0.1629627 0.1631971 0.1634354 0.1636661 0.1638772 0.1640681 0.1642499
 0.1644313 0.1646111 0.1647846 0.1649519 0.1651172 0.1652856 0.1654606 0.165642 0.1658283 0.1660198
 0.1662162 0.1664153 0.1666161 0.1668207 0.1670297 0.1672408 0.1674493 0.1676497 0.1678412 0.168032
 0.1682317 0.1684403 0.1686516 0.1688635 0.1690745 0.1692809 0.1694834 0.1696884 0.1698982 0.1701116
 0.1703294 0.1705515 0.1707741 0.1709956 0.1712155 0.1714263 0.1716219 0.1718089 0.1719984 0.1721928
 0.1723915 0.1725962 0.1728061 0.1730196 0.1732389 0.1734629 0.1736822 0.1738925 0.1740994 0.174307
 0.1745151 0.1747246 0.1749347 0.1751418 0.1753487 0.1755606 0.1757756 0.1759908 0.1762106 0.1764349
 0.1766554 0.1768689 0.1770766 0.1772649 0.1773897 0.1773366 0.1768256 0.1753107 0.1719654 0.1658413
 0.1562462 0.1431851 0.1275133 0.1106314 0.09396511 0.07859348 0.06514923 0.05391072 0.04494368 0.03818459
 0.03349132 0.03073768 0.02991704 0.03124631 0.03527495 0.04255796 0.052432 0.06193377 0.06695336 0.06547784
 0.05951627 0.05326869 0.04963676 0.04882314 0.04958495 0.05086081 0.05231661 0.05415333 0.05670889 0.06006879
 0.06405367 0.068647 0.07420429 0.08100204 0.08869307 0.09644948 0.1036784 0.1104879 0.1174155 0.1247756
 0.1323276 0.1395181 0.1459265 0.1514741 0.1563321 0.1607316 0.1648362 0.1687227 0.1724235 0.1759296
 0.179121 0.1817357 0.1834905 0.1842929 0.1843494 0.1840567 0.183771 0.1836648 0.1837582 0.1840207
 0.1844245 0.1849499 0.1855841 0.1863134 0.1871093 0.1879354 0.1887648 0.1895804 0.1903647 0.191102
 0.1917829 0.1924027 0.1929606 0.1934639 0.1939226 0.1943457 0.1947431 0.1951223 0.1954826 0.1958227
 0.1961492 0.1964674 0.1967714 0.1970511 0.1973056 0.1975421 0.1977691 0.1979917 0.1982084 0.198415
 0.198615 0.1988186 0.1990284 0.1992364 0.199436 0.1996319 0.1998323 0.2000385 0.2002422 0.2004327
 0.2006103 0.200788 0.2009777 0.2011782 0.2013817 0.201585 0.2017879 0.2019876 0.2021825 0.2023757
 0.2025713 0.2027688 0.2029641 0.2031536 0.2033392 0.2035304 0.2037371 0.2039578 0.204182 0.2044009
 0.204612 0.204817 0.2050223 0.205235 0.2054507 0.2056504 0.2058195 0.2059676 0.2061271 0.2063262
 0.2065617 0.2068027 0.2070232 0.2072245 0.2074213 0.2076186 0.2078075 0.2079768 0.2081296 0.2082937
 0.2085038 0.2087632 0.2090404 0.2093094 0.2095675 0.2098126 0.2100372 0.2102511 0.2104706 0.2106823
 0.2108524 0.2109831 0.2111351 0.2113785 0.211721 0.2120947 0.2124206 0.2126793 0.2129052 0.2131363
 0.2133922 0.2136583 0.2138559 0.2138909 0.2137993 0.2137851 0.2140377 0.2145431 0.2151249 0.215627
 0.2160089 0.2163066 0.2165601 0.216772 0.2169081 0.2169392 0.2169094 0.2169577 0.2172234 0.2177017
 0.2182339 0.218671 0.2189915 0.2192403 0.2194454 0.2196204 0.2197324 0.2196454 0.2192627 0.2187918
 0.2186927 0.219233 0.220182 0.2210554 0.2215947 0.2219018 0.2221662 0.2224363 0.2226654 0.2227572
 0.2224687 0.2215497 0.2202278 0.2193396 0.219641 0.2210469 0.222773 0.2241185 0.2249064 0.2253101
 0.2255518 0.2257541 0.2258476 0.2255775 0.2247916 0.2238197 0.2233928 0.2239722 0.225231 0.2263991
 0.2270471 0.227319 0.2275251 0.2277905 0.2279707 0.2276132 0.2262134 0.2239568 0.2220993 0.2220881
 0.2241482 0.2270135 0.2291823 0.2302103 0.2305998 0.230696 0.2301743 0.2286258 0.2261785 0.2234393
 0.2212969 0.2207986 0.2224604 0.2254011 0.2278421 0.2288605 0.2291655 0.229923 0.2313613 0.232785
 0.2334799 0.2332667 0.2323713 0.2310242 0.229352 0.2277583 0.2271475 0.2282786 0.2308419 0.2335716
 0.235418 0.2363437 0.2367687 0.2363365 0.2336704 0.2280314 0.2213801 0.2178255 0.22 0.2263142
 0.2326658 0.2364651 0.2380528 0.23879 0.2392297 0.238954 0.236811 0.2315471 0.2237848 0.2172671
 0.2163231 0.2215806 0.2292564 0.2346926 0.2355283 0.2319406 0.2258067 0.2201473 0.2178975 0.2201339
 0.2256038 0.2319627 0.2371777 0.2400969 0.2404519 0.2387452 0.2362108 0.2345188 0.2345668 0.2351558
 0.2338995 0.2302359 0.2263515 0.2239659 0.2216743 0.2175598 0.2134259 0.213608 0.2193398 0.2266782
 0.2309276 0.2313963 0.2305424 0.2294955 0.2261227 0.2180987 0.2073105 0.1999446 0.201083 0.2094285
 0.2184606 0.2228238 0.2225877 0.221328 0.2213534 0.2213479 0.2182183 0.2111304 0.2035657 0.2004057
 0.2027404 0.2068887 0.2087503 0.2070772 0.2020508 0.1939669 0.185576 0.1829282 0.1902793 0.2048875
 0.2191573 0.2268884 0.2255391 0.2148772 0.1978841 0.1825925 0.1781739 0.1867178 0.2006925 0.209875
 0.2094597 0.2009101 0.1876007 0.1725226 0.1596795 0.1545045 0.1606091 0.176127 0.1937269 0.2042296
 0.2016796 0.188012 0.1735155 0.1694294 0.1776788 0.1895157 0.1953022 0.1932542 0.1880806 0.1849474
 0.1865028 0.1923704 0.199542 0.2052176 0.2090426 0.2099138 0.2029562 0.1853758 0.1642173 0.1517245
 0.1526269 0.1617095 0.1735938 0.1875704 0.2012364 0.2071858 0.2013601 0.1907434 0.1874156 0.1957287
 0.2085875 0.2161331 0.215501 0.2113392 0.2086373 0.2074192 0.2052275 0.2028642 0.204591 0.2122447
 0.2220218 0.2287246 0.2311668 0.2316973 0.2322208 0.2327493 0.2327507 0.2320336 0.2306723 0.2291268
 0.2280963 0.2277374 0.2275219 0.2270357 0.2259508 0.2228074 0.2153344 0.2036428 0.1922496 0.1864967
 0.1868857 0.1894552 0.1916664 0.1938785 0.1938554 0.1852254 0.1658967 0.1449624 0.1360863 0.1443052
 0.1622786 0.1786567 0.1867729 0.1852218 0.1744801 0.1571164 0.1404931 0.1344499 0.1432791 0.1616113
 0.1801546 0.1936956 0.201682 0.2037837 0.1989166 0.1884045 0.1772393 0.1712224 0.1734336 0.1828845
 0.1948508 0.2020841 0.1983558 0.184648 0.1718839 0.1728653 0.1888428 0.207435 0.2165484 0.2166255
 0.2157331 0.2170287 0.2171918 0.2152237 0.2159883 0.2235421 0.2351733 0.2440755 0.2453242 0.2378297
 0.2237213 0.2088404 0.2012093 0.2045611 0.2140319 0.2213945 0.2229881 0.2192349 0.2097985 0.1956175
 0.1840332 0.1843715 0.1971407 0.2128254 0.2227003 0.2267779 0.2298244 0.233149 0.2330116 0.2262869
 0.2156962 0.208124 0.2078127 0.212657 0.2177583 0.220585 0.2209953 0.2183048 0.2117119 0.2036258
 0.1997061 0.2039431 0.2145002 0.2253984 0.2318423 0.2332199 0.2317083 0.2294463 0.2270925 0.2239998
 0.219645 0.2154768 0.2146326 0.2185929 0.2248336 0.2294211 0.2315147 0.2336552 0.2377782 0.2425549
 0.2450112 0.2437723 0.2403697 0.2378981 0.238522 0.2417591 0.2448488 0.2451129 0.2425007 0.2398716
 0.2403603 0.2443888 0.2496147 0.2536047 0.2558161 0.2570731 0.2581373 0.259041 0.2590613 0.2572604
 0.2538209 0.2508316 0.2508146 0.2542254 0.2590176 0.2627565 0.2645873 0.2650958 0.2649679 0.264275
 0.2628673 0.2610177 0.2594469 0.2587563 0.2589967 0.259803 0.2607789 0.2616745 0.2623686 0.2628453
 0.2631581 0.2633548 0.2634642 0.263542 0.2636355 0.2636944 0.2636242 0.2634637 0.2634083 0.2635934
 0.2639269 0.2641961 0.2642637 0.2640734 0.263542 0.2625934 0.2612964 0.2598368 0.2583096 0.2566559
 0.2549152 0.2534952 0.2530426 0.2539463 0.2559718 0.2584133 0.2605844 0.2621561 0.2631282 0.2636396
 0.2638553 0.2639283 0.2639526 0.2639324 0.2638214 0.2635963 0.263282 0.2629176 0.2625254 0.2621204
 0.2617343 0.2614023 0.2611221 0.2608421 0.2605019 0.2600785 0.2595931 0.259085 0.2585767 0.2580468
 0.2574356 0.2566891 0.2558056 0.2548412 0.2538809 0.252999 0.2522171 0.251487 0.2507327 0.2499109
 0.2490099 0.2480076 0.2468881 0.2457166 0.2446386 0.2437629 0.2430654 0.2424302 0.2417531 0.2409835
 0.240106 0.2391319 0.2381 0.2370483 0.2359825 0.2348806 0.2337176 0.2324729 0.2311304 0.2296866
 0.2281548 0.2265588 0.2249295 0.223292 0.2216347 0.219886 0.2179268 0.2156221 0.2128447 0.2094992
 0.2055583 0.2010939 0.1962752 0.191322 0.1864377 0.1817708 0.1774313 0.1735252 0.1701568 0.1674056
 0.165316 0.163907 0.1631846 0.1631552 0.1638256 0.1651815 0.1671595 0.1696435 0.1724786 0.1754847
 0.1784743 0.1812903 0.1838538 0.1861859 0.1883679 0.1904591 0.1924492 0.1942877 0.1959386 0.1973891
 0.1986291 0.1996522 0.2004765 0.2011469 0.201715 0.2022172 0.2026641 0.20305 0.2033732 0.2036425
 0.2038677 0.2040574 0.2042288 0.2044052 0.204602 0.2048216 0.2050657 0.2053497 0.2057035 0.2061504
 0.2066803 0.2072532 0.2078345 0.2084197 0.2090256 0.2096747 0.210396 0.2112272 0.2121999 0.2133225
 0.2145755 0.2159158 0.2172802 0.2185909 0.2197699 0.2207572 0.2215195 0.2220436 0.2223349 0.2224226
 0.2223533 0.2221687 0.2218913 0.221529 0.2210842 0.2205602 0.2199686 0.2193301 0.2186619 0.2179701
 0.2172596 0.2165489 0.2158625 0.2152058 0.2145594 0.213904 0.2132483 0.2126204 0.2120338 0.2114722
 0.2109091 0.2103339 0.2097555 0.2091869 0.2086256 0.2080431 0.2073959 0.2066518 0.2058052 0.2048693
 0.2038545 0.2027586 0.2015736 0.2003 0.1989496 0.1975317 0.1960428 0.194474 0.1928247 0.1910968
 0.1892785 0.1873518 0.1853318 0.1832883 0.181312 0.1794635 0.1777582 0.1761824 0.1747078 0.173303
 0.1719492 0.1706425 0.1693856 0.1681871 0.1670596 0.1660046 0.1650061 0.1640539 0.1631606 0.1623503
 0.1616375 0.1610186 0.1604752 0.1599893 0.1595612 0.1592067 0.1589423 0.1587847 0.1587461 0.1588034
 0.1588843 0.1589107 0.1588507 0.1587241 0.1585762 0.1584495 0.1583609 0.1582978 0.1582357 0.1581459
 0.1579834 0.1576794 0.1571492 0.1563115 0.1551257 0.153621 0.1518835 0.1500263 0.148181 0.1464801
 0.1450157 0.1438252 0.142914 0.1422573 0.1417862 0.1414188 0.1411209 0.1409273 0.1409085 0.1410909
 0.1413818 0.1416084 0.1416804 0.1416892 0.1418194 0.1421942 0.1428097 0.1435577 0.1442969 0.1449374
 0.14546 0.1458598 0.1461237 0.1462637 0.1463107 0.1462746 0.1461507 0.1459471 0.1456764 0.1453518
 0.1449924 0.1445969 0.1441292 0.1435644 0.1429111 0.1421739 0.1413494 0.1404482 0.1394544 0.1383174
 0.1370756 0.135945 0.1352083 0.13504 0.1354322 0.1362223 0.1372059 0.1382696 0.1393419 0.1402084
 0.1405911 0.1405602 0.1407176 0.1417517 0.1437865 0.1462531 0.148401 0.1498393 0.1505664 0.1506722
 0.1502098 0.1492513 0.1478423 0.1459409 0.1435391 0.140758 0.137749 0.1346486 0.1316528 0.1289622
 0.1266707 0.1248058 0.1233773 0.1224141 0.122025 0.1218376 0.1199746 0.114014 0.1047299 0.09778158
 0.09894866 0.1076214 0.1172282 0.1221837 0.122336 0.1206584 0.1191888 0.1182117 0.1176162 0.117577
 0.1182603 0.119527 0.1209617 0.1221352 0.1228735 0.1232214 0.1231445 0.1222846 0.1199065 0.1151587
 0.1077585 0.09858628 0.08938788 0.08175812 0.07642175 0.07325988 0.07166199 0.07087103 0.07035021 0.07004714
 0.07028374 0.07135729 0.07328738 0.07591887 0.07909307 0.08257733 0.08594308 0.08875372 0.09089924 0.09258769
 0.09399554 0.09506878 0.09566821 0.09576051 0.09542939 0.09480406 0.09402308 0.0931906 0.09229892 0.09124164
 0.0899989 0.08879451 0.0879539 0.08758803 0.08751848 0.0875136 0.0874806 0.08742768 0.08736886 0.08730228
 0.08722623 0.08717862 0.08726486 0.08757793 0.08807033 0.08856463 0.08890404 0.08906583 0.08913627 0.08916013
 0.08900039 0.08845559 0.08759709 0.08680797 0.08629954 0.08576724 0.0847958 0.08349689 0.08246244 0.082112
 0.08230938 0.08261609 0.08271436 0.08255319 0.08229459 0.08223428 0.08260818 0.08329818 0.08382601 0.08380462
</values></Ydata></ScRf><Data_Parameters_AB><parameter name="DPF">1</parameter><parameter name="NPT">3497</parameter><parameter name="FXV">3996</parameter><parameter name="LXV">500</parameter><parameter name="CSF">1</parameter><parameter name="MXY">0.532498359680176</parameter><parameter name="MNY">-0.0761854872107506</parameter><parameter name="DAT">31/05/2022</parameter><parameter name="TIM">11:49:15.339 (GMT+2)</parameter><parameter name="DXU">WN</parameter></Data_Parameters_AB><AB__Qtest><MainReport name="Quality Test Report"><Header><Line><Legend>Test result ok/not ok [1/0]: </Legend><Value>0</Value></Line><Line><Legend>Method file: </Legend><Value>C:\Users\Public\Documents\Bruker\OPUS_8.2.28\QT\IRBT_v3_default.QT</Value></Line></Header><Matrix><Line><Legend></Legend><Legend>min</Legend><Legend>max</Legend><Legend>measured</Legend></Line><Line><Value>Absorption (X-Range 1):</Value><Value>0.400000</Value><Value>2.000000</Value><Value>0.581945</Value></Line><Line><Value>Noise (X-Range 4):</Value><Value></Value><Value>0.000300</Value><Value>0.000064</Value></Line><Line><Value>Signal/Noise (X-Range 2):</Value><Value>200.000000</Value><Value></Value><Value>281.149309</Value></Line><Line><Value>Signal/Noise (X-Range 3):</Value><Value>40.000000</Value><Value></Value><Value>86.018612</Value></Line><Line><Value>Water vapour (X-Range 5):</Value><Value></Value><Value>0.000300</Value><Value>0.000100</Value></Line><Line><Value>Signal/Water (X-Range 2):</Value><Value>100.000000</Value><Value></Value><Value>178.194933</Value></Line><Line><Value>Signal/Water (X-Range 3):</Value><Value>20.000000</Value><Value></Value><Value>54.519361</Value></Line><Line><Value>Fringes (X-Range 6):</Value><Value></Value><Value>0.000100</Value><Value>0.000103</Value></Line></Matrix></MainReport></AB__Qtest><Data_Parameters_ScSm><parameter name="DPF">1</parameter><parameter name="NPT">1814</parameter><parameter name="FXV">3996.33169228125</parameter><parameter name="LXV">499.541461535156</parameter><parameter name="CSF">1</parameter><parameter name="MXY">0.265908151865005</parameter><parameter name="MNY">0.0319146923720837</parameter><parameter name="DAT">31/05/2022</parameter><parameter name="TIM">11:49:15.339 (GMT+2)</parameter><parameter name="DXU">WN</parameter></Data_Parameters_ScSm><Data_Parameters_ScRf><parameter name="DPF">1</parameter><parameter name="NPT">1820</parameter><parameter name="FXV">4004.04661832813</parameter><parameter name="LXV">495.683998511719</parameter><parameter name="CSF">1</parameter><parameter name="MXY">0.265095829963684</parameter><parameter name="MNY">0.0299170389771461</parameter><parameter name="DAT">31/05/2022</parameter><parameter name="TIM">11:48:48.822 (GMT+2)</parameter><parameter name="DXU">WN</parameter></Data_Parameters_ScRf><Optic_Parameters_Rf><parameter name="APR">0</parameter><parameter name="APT">Open</parameter><parameter name="BMS">KBr</parameter><parameter name="DTC">RT-DLaTGS_IR-Biotyper [Microplate reader]</parameter><parameter name="HPF">0</parameter><parameter name="LPF">10.0</parameter><parameter name="LPV">4000</parameter><parameter name="PGR">0</parameter><parameter name="RCH">Module port</parameter><parameter name="RDX">0</parameter><parameter name="SRC">MIR</parameter><parameter name="VEL">10.0</parameter><parameter name="SON">Off</parameter></Optic_Parameters_Rf><Acquisition_Parameters_Rf><parameter name="ADT">1</parameter><parameter name="AQM">DD</parameter><parameter name="CFE">0</parameter><parameter name="COR">0</parameter><parameter name="DEL">0</parameter><parameter name="DLY">0</parameter><parameter name="HFW">8000</parameter><parameter name="LFW">0</parameter><parameter name="NSR">32</parameter><parameter name="PLF">AB</parameter><parameter name="RES">6</parameter><parameter name="RGN">-1</parameter><parameter name="STR">0</parameter><parameter name="TCL">MakeCompatibleScalar (0, {WSV=1.000000, ARV=0});</parameter><parameter name="TDL">37</parameter><parameter name="RPO">0</parameter></Acquisition_Parameters_Rf><FT_-_Parameters_Rf><parameter name="APF">B3</parameter><parameter name="HFQ">500</parameter><parameter name="LFQ">4000</parameter><parameter name="NLI">0</parameter><parameter name="PHR">24</parameter><parameter name="PHZ">ML</parameter><parameter name="SPZ">NO</parameter><parameter name="ZFF">1</parameter></FT_-_Parameters_Rf><Optic_Parameters_><parameter name="APR">0</parameter><parameter name="APT">Open</parameter><parameter name="BMS">KBr</parameter><parameter name="CHN">Module port</parameter><parameter name="DTC">RT-DLaTGS_IR-Biotyper [Microplate reader]</parameter><parameter name="HPF">0</parameter><parameter name="LPF">10.0</parameter><parameter name="LPV">4000</parameter><parameter name="PGN">0</parameter><parameter name="RDX">0</parameter><parameter name="SRC">MIR</parameter><parameter name="VEL">10.0</parameter><parameter name="SON">Off</parameter></Optic_Parameters_><FT_-_Parameters_><parameter name="APF">B3</parameter><parameter name="HFQ">500</parameter><parameter name="LFQ">4000</parameter><parameter name="NLI">0</parameter><parameter name="PHR">24</parameter><parameter name="PHZ">ML</parameter><parameter name="SPZ">NO</parameter><parameter name="ZFF">1</parameter></FT_-_Parameters_><Acquisition_Parameters_><parameter name="ADT">1</parameter><parameter name="AQM">DD</parameter><parameter name="CFE">0</parameter><parameter name="COR">0</parameter><parameter name="DEL">0</parameter><parameter name="DLY">0</parameter><parameter name="HFW">8000</parameter><parameter name="LFW">0</parameter><parameter name="NSS">32</parameter><parameter name="PLF">AB</parameter><parameter name="RES">6</parameter><parameter name="SOT">0</parameter><parameter name="TCL">MakeCompatibleScalar (0, {WSV=1.000000, ARV=0});</parameter><parameter name="TDL">37</parameter><parameter name="SPO">0</parameter><parameter name="SGN">-1</parameter></Acquisition_Parameters_><Instrument_Parameters_Rf><parameter name="HFL">15800.168544</parameter><parameter name="LFL">0</parameter><parameter name="LWN">15800.168544</parameter><parameter name="ABP">32197</parameter><parameter name="SSP">1</parameter><parameter name="ARG">2</parameter><parameter name="ASG">2</parameter><parameter name="ASS">32</parameter><parameter name="GFW">16</parameter><parameter name="GBW">16</parameter><parameter name="BFW">0</parameter><parameter name="BBW">0</parameter><parameter name="PKA">7262</parameter><parameter name="PKL">4996</parameter><parameter name="PRA">7449</parameter><parameter name="PRL">5001</parameter><parameter name="P2A">1</parameter><parameter name="P2L">1</parameter><parameter name="P2R">1</parameter><parameter name="P2K">1</parameter><parameter name="DAQ">0</parameter><parameter name="AG2">1</parameter><parameter name="SSM">1</parameter><parameter name="RSN">25503</parameter><parameter name="CRR">0</parameter><parameter name="SRT">1653997728.823</parameter><parameter name="DUR">19.6379852294922</parameter><parameter name="TSC">28.9</parameter><parameter name="MVD">0.204224154353142</parameter><parameter name="AN1">0.225793787300929</parameter><parameter name="AN2">0</parameter><parameter name="VSN">2.485 Apr  4 2017</parameter><parameter name="SRN">0085</parameter><parameter name="CAM">0</parameter><parameter name="INS">IR-Biotyper</parameter><parameter name="FOC">69</parameter><parameter name="RDY">1</parameter><parameter name="ARS">32</parameter></Instrument_Parameters_Rf><Sample_Parameters_><parameter name="BLD"></parameter><parameter name="CNM">Admin</parameter><parameter name="CPY"></parameter><parameter name="DPM"></parameter><parameter name="EXP">IRBT_v3_32Scans.XPM</parameter><parameter name="LCT"></parameter><parameter name="SFM">Microplate, HTS-XT</parameter><parameter name="SNM">220531-1021(v.3)_AML29F (D_3)_E10_62203335-6775-4f2e-ad6b-31ba30818dfe.0</parameter><parameter name="XPP">C:\Users\Public\Documents\Bruker\OPUS_8.2.28\XPM</parameter><parameter name="IST">OK</parameter><parameter name="CPG">1252</parameter><parameter name="UID">efc8472f-7546-4bcf-903c-4652e6c2f523</parameter></Sample_Parameters_><Instrument_Parameters_><parameter name="HFL">15800.168544</parameter><parameter name="LFL">0</parameter><parameter name="LWN">15800.168544</parameter><parameter name="ABP">32197</parameter><parameter name="SSP">1</parameter><parameter name="ASG">2</parameter><parameter name="ARG">2</parameter><parameter name="ASS">32</parameter><parameter name="GFW">16</parameter><parameter name="GBW">16</parameter><parameter name="BFW">0</parameter><parameter name="BBW">0</parameter><parameter name="PKA">6431</parameter><parameter name="PKL">4988</parameter><parameter name="PRA">6652</parameter><parameter name="PRL">4993</parameter><parameter name="P2A">1</parameter><parameter name="P2L">1</parameter><parameter name="P2R">1</parameter><parameter name="P2K">1</parameter><parameter name="DAQ">0</parameter><parameter name="AG2">1</parameter><parameter name="SSM">1</parameter><parameter name="RSN">13377</parameter><parameter name="CRR">0</parameter><parameter name="SRT">1653997755.34</parameter><parameter name="DUR">19.6379852294922</parameter><parameter name="TSC">28.9</parameter><parameter name="MVD">0.272539913654327</parameter><parameter name="AN1">0.225787495793042</parameter><parameter name="AN2">0</parameter><parameter name="VSN">2.485 Apr  4 2017</parameter><parameter name="SRN">0085</parameter><parameter name="CAM">0</parameter><parameter name="INS">IR-Biotyper</parameter><parameter name="FOC">69</parameter><parameter name="RDY">1</parameter></Instrument_Parameters_><History/></OPUSDataFile>
