<?xml version="1.0" encoding="UTF-8" ?>
<OPUSDataFile><AB><Ydata ylabel="Absorbance Units"><values byteorder="INTEL" format="FLOAT32" numvalues="3497"> -0.07274339 -0.072754 -0.0727475 -0.07272383 -0.07268222 -0.07262268 -0.07256345 -0.07250545 -0.0724659 -0.07244331
 -0.07243865 -0.07244844 -0.07246101 -0.07247418 -0.07247619 -0.07246903 -0.07244979 -0.0724237 -0.0723952 -0.07236916
 -0.07235076 -0.07234258 -0.07234757 -0.07236576 -0.07239889 -0.07244159 -0.07249402 -0.07254562 -0.07259487 -0.07263332
 -0.07265948 -0.07267618 -0.07268354 -0.07269187 -0.07270145 -0.07271852 -0.07274194 -0.07276851 -0.07279676 -0.0728197
 -0.0728369 -0.07284357 -0.07284071 -0.07282721 -0.07280597 -0.07277902 -0.07275106 -0.07272623 -0.07270794 -0.07269979
 -0.07270043 -0.07271079 -0.07272635 -0.07274587 -0.07276788 -0.07279138 -0.07282078 -0.07285635 -0.07290326 -0.07296181
 -0.07302783 -0.0731003 -0.07316407 -0.07321852 -0.07325058 -0.07326354 -0.07326146 -0.07324944 -0.07324252 -0.07324147
 -0.07325578 -0.07328039 -0.07331344 -0.07334965 -0.07338399 -0.07341423 -0.07343894 -0.07345308 -0.07345549 -0.07343819
 -0.07339726 -0.07333711 -0.07325498 -0.07317806 -0.07310778 -0.0730783 -0.07309169 -0.07316387 -0.07329325 -0.07346344
 -0.07366774 -0.07385805 -0.07402773 -0.07412273 -0.07415102 -0.07409906 -0.07399109 -0.0738613 -0.07372725 -0.07362552
 -0.07355485 -0.07352973 -0.07353234 -0.07355899 -0.07358713 -0.07360568 -0.07360875 -0.07358947 -0.07356599 -0.07353907
 -0.07353281 -0.0735505 -0.07359745 -0.07367429 -0.07376163 -0.07385815 -0.07394002 -0.07400854 -0.07405884 -0.07409523
 -0.07413134 -0.07416945 -0.074224 -0.07428974 -0.07436625 -0.07444283 -0.07450607 -0.0745509 -0.07456745 -0.07455876
 -0.07452301 -0.07446699 -0.07439046 -0.07430882 -0.07422278 -0.07416038 -0.07412519 -0.07414599 -0.07422766 -0.07437101
 -0.07457701 -0.07476354 -0.07492461 -0.07494514 -0.07483879 -0.07463388 -0.0743537 -0.07410417 -0.07388821 -0.07376719
 -0.07373094 -0.07379586 -0.07393388 -0.0741259 -0.07432684 -0.07449251 -0.07459877 -0.07460872 -0.07455794 -0.07444575
 -0.07433034 -0.07423054 -0.07416219 -0.0741341 -0.07412425 -0.07413119 -0.07413792 -0.07414318 -0.0741531 -0.07416842
 -0.07420307 -0.07425572 -0.07432613 -0.07440902 -0.07448474 -0.07454834 -0.07457606 -0.07456975 -0.07451947 -0.0744351
 -0.07432209 -0.07419593 -0.0740691 -0.07395855 -0.07387629 -0.07383517 -0.0738444 -0.07390361 -0.07401846 -0.07416443
 -0.07434132 -0.07450698 -0.07465711 -0.07476063 -0.07481518 -0.07481844 -0.07477149 -0.074692 -0.07458139 -0.07445678
 -0.07431974 -0.07418388 -0.07405316 -0.07394437 -0.07386008 -0.07381518 -0.07380244 -0.07382227 -0.07385787 -0.07389561
 -0.07392322 -0.0739266 -0.07391268 -0.07387862 -0.07384238 -0.07380898 -0.07378663 -0.07377888 -0.07377907 -0.0737868
 -0.07379682 -0.07380862 -0.07383066 -0.07386351 -0.07391925 -0.07399563 -0.07408482 -0.07418095 -0.07425477 -0.07430735
 -0.0743232 -0.07431467 -0.07429621 -0.07427827 -0.07428173 -0.07430466 -0.07435292 -0.07442093 -0.07450502 -0.07460853
 -0.07473278 -0.07487746 -0.0750474 -0.07521641 -0.07538248 -0.07551227 -0.07560059 -0.07564406 -0.0756422 -0.07559262
 -0.07549457 -0.07532979 -0.07510322 -0.0748366 -0.0745432 -0.07428827 -0.07407827 -0.07396715 -0.07394408 -0.07402387
 -0.07416854 -0.07434001 -0.07450104 -0.07459714 -0.07464119 -0.07461997 -0.07457207 -0.07451143 -0.07445917 -0.07442704
 -0.07440721 -0.0744023 -0.07438667 -0.074357 -0.0743039 -0.07422604 -0.07414464 -0.07406128 -0.07400633 -0.07397983
 -0.07399838 -0.07405703 -0.0741484 -0.07426045 -0.07435715 -0.07443231 -0.07445209 -0.07443272 -0.07437988 -0.07431173
 -0.07424996 -0.07419238 -0.07414664 -0.07409687 -0.07403647 -0.07396199 -0.07386743 -0.07377274 -0.07368016 -0.07360833
 -0.07356108 -0.07353278 -0.07352375 -0.07350645 -0.07347978 -0.07342139 -0.07333483 -0.07323428 -0.07312559 -0.07304215
 -0.07298242 -0.07295983 -0.07296892 -0.07300599 -0.07306636 -0.07314426 -0.07323199 -0.07332367 -0.07340509 -0.07346676
 -0.07349755 -0.07348916 -0.07344289 -0.07335744 -0.07323587 -0.07307872 -0.07288663 -0.07265911 -0.07240325 -0.07211921
 -0.07182369 -0.07151813 -0.07122857 -0.07095772 -0.0707384 -0.07057103 -0.07047849 -0.07045168 -0.07048027 -0.07055023
 -0.07062877 -0.07071337 -0.07078678 -0.07085295 -0.07091656 -0.07095833 -0.07097256 -0.07092773 -0.07080052 -0.07060999
 -0.07035041 -0.07007527 -0.06979442 -0.06953865 -0.06931405 -0.06912173 -0.06896247 -0.06882219 -0.06870037 -0.06858715
 -0.06848354 -0.06839398 -0.06831787 -0.06825904 -0.06820767 -0.06814067 -0.06804571 -0.06788167 -0.0676623 -0.06738251
 -0.06707536 -0.06677024 -0.06648514 -0.0662429 -0.06603834 -0.06587905 -0.06573826 -0.06561134 -0.06547038 -0.06530678
 -0.06512213 -0.06491443 -0.06470262 -0.06448819 -0.06427378 -0.06405871 -0.06382445 -0.06357082 -0.06328653 -0.06297616
 -0.06265228 -0.06232146 -0.06200793 -0.0617157 -0.06146537 -0.06125296 -0.06108547 -0.06094657 -0.06082592 -0.06070461
 -0.06056559 -0.06040662 -0.06022084 -0.06001836 -0.0598024 -0.05957237 -0.05932968 -0.05906495 -0.05877559 -0.05847227
 -0.05815485 -0.05785677 -0.05757932 -0.05734539 -0.05715277 -0.056996 -0.05686941 -0.05674591 -0.05662118 -0.0564669
 -0.05628782 -0.05607683 -0.05584761 -0.05561572 -0.05539024 -0.05518955 -0.0550027 -0.05483289 -0.05465232 -0.05444771
 -0.05420865 -0.05392397 -0.05361881 -0.05329505 -0.05298103 -0.05268171 -0.05240118 -0.05214051 -0.05188648 -0.05163855
 -0.0513875 -0.05113377 -0.05087778 -0.05061877 -0.05035397 -0.05008126 -0.04979094 -0.04948689 -0.0491687 -0.0488492
 -0.04854553 -0.04826641 -0.04802955 -0.04782687 -0.04766082 -0.04751434 -0.04738017 -0.04724847 -0.04711374 -0.04697727
 -0.04683851 -0.04669946 -0.04656112 -0.04641627 -0.04626467 -0.04609394 -0.04590381 -0.04569169 -0.04545933 -0.04522016
 -0.0449756 -0.04474092 -0.04451255 -0.04428914 -0.04406429 -0.04382283 -0.04356614 -0.0432855 -0.0429966 -0.04270883
 -0.04244145 -0.04221297 -0.04202247 -0.04188021 -0.04175594 -0.04164508 -0.04151273 -0.04134898 -0.04114702 -0.04090267
 -0.04063709 -0.04035139 -0.04006612 -0.0397819 -0.03950344 -0.0392307 -0.0389643 -0.0387064 -0.0384675 -0.03824919
 -0.03806397 -0.03790634 -0.03777335 -0.03765462 -0.03753337 -0.03740663 -0.03726367 -0.03711091 -0.03695112 -0.03678389
 -0.03661237 -0.03642422 -0.03621448 -0.03598342 -0.03572661 -0.03547082 -0.03521898 -0.03499128 -0.03479071 -0.03459571
 -0.03440465 -0.03417614 -0.03391178 -0.03360491 -0.03326539 -0.0329357 -0.03262293 -0.03237435 -0.03218047 -0.03204865
 -0.03195778 -0.03188001 -0.03180508 -0.03170872 -0.03160196 -0.03148452 -0.03136858 -0.03126331 -0.03116099 -0.03106257
 -0.03095318 -0.0308286 -0.03068783 -0.03052959 -0.03036102 -0.03018267 -0.02999673 -0.02980333 -0.02960454 -0.02940074
 -0.02919708 -0.02899221 -0.02878282 -0.02856649 -0.0283317 -0.02808328 -0.02782248 -0.02756223 -0.02732209 -0.02710853
 -0.02693878 -0.0268022 -0.02669903 -0.02661164 -0.02653133 -0.02644956 -0.02636101 -0.02626666 -0.02616602 -0.02605983
 -0.02594852 -0.02582894 -0.02570095 -0.02556082 -0.02540832 -0.02523879 -0.02505217 -0.02484448 -0.02461806 -0.02437988
 -0.02413658 -0.02391143 -0.02370987 -0.02355763 -0.02344746 -0.02338511 -0.0233476 -0.0233161 -0.02326857 -0.02317985
 -0.02305478 -0.02288271 -0.02269927 -0.02251241 -0.02235399 -0.02223665 -0.02214973 -0.0220967 -0.02203334 -0.02195593
 -0.02184177 -0.02169085 -0.0215343 -0.02137575 -0.02126451 -0.02119694 -0.02118456 -0.02121452 -0.02125376 -0.02129242
 -0.02129098 -0.02125471 -0.02117093 -0.02105754 -0.02092767 -0.02079519 -0.02067743 -0.02056772 -0.02047114 -0.02036394
 -0.02023893 -0.02008234 -0.01988595 -0.01966847 -0.01942861 -0.01920835 -0.01901093 -0.0188672 -0.01877808 -0.01873794
 -0.01874371 -0.01876296 -0.01879454 -0.0188145 -0.01882695 -0.01883381 -0.01883528 -0.01883651 -0.01882628 -0.01878945
 -0.01872033 -0.01859993 -0.0184513 -0.0182791 -0.01812134 -0.01800156 -0.01792626 -0.01790998 -0.01791429 -0.01793516
 -0.01793136 -0.01789394 -0.01782231 -0.0177142 -0.01760354 -0.01749207 -0.01741381 -0.01736854 -0.01736823 -0.0174087
 -0.01747747 -0.01756718 -0.01764885 -0.01771685 -0.01774246 -0.01773151 -0.01767562 -0.01759531 -0.0175065 -0.01743049
 -0.01739074 -0.01738605 -0.0174275 -0.01748657 -0.01755823 -0.01761157 -0.01763753 -0.01762637 -0.0175747 -0.01748713
 -0.01736404 -0.01720365 -0.01700589 -0.01676684 -0.01648902 -0.01619393 -0.01588946 -0.01562787 -0.01541342 -0.01529218
 -0.01525176 -0.01529402 -0.0153908 -0.01550296 -0.01560515 -0.0156525 -0.01564582 -0.01556401 -0.01544178 -0.0152845
 -0.0151436 -0.01503687 -0.01499906 -0.01504529 -0.01516714 -0.01536945 -0.01560526 -0.01587184 -0.01611895 -0.01634424
 -0.01652599 -0.01666556 -0.01676944 -0.01683956 -0.01688963 -0.01691903 -0.01693269 -0.01692962 -0.01690727 -0.01687238
 -0.01682832 -0.01679696 -0.01679897 -0.01686026 -0.01701018 -0.0172478 -0.0175896 -0.01799162 -0.01844793 -0.01890021
 -0.01933293 -0.01971798 -0.02004665 -0.02032871 -0.02056367 -0.02077213 -0.02095511 -0.02112586 -0.02128433 -0.02143515
 -0.02157668 -0.02170272 -0.0218119 -0.02189353 -0.02195404 -0.02199872 -0.02204289 -0.02211284 -0.02221693 -0.02237888
 -0.02258507 -0.0228378 -0.02310761 -0.02338261 -0.02363437 -0.02385037 -0.02401562 -0.02412098 -0.02418055 -0.02419075
 -0.02420283 -0.02421997 -0.0242979 -0.02443921 -0.02465152 -0.02493036 -0.02522863 -0.02554136 -0.02581586 -0.02605505
 -0.02623973 -0.02637784 -0.02647685 -0.02654465 -0.02659499 -0.02663704 -0.0266846 -0.02674623 -0.02683376 -0.0269467
 -0.02709057 -0.0272521 -0.0274294 -0.02760551 -0.02777566 -0.02793219 -0.02807189 -0.02820352 -0.02832698 -0.02845991
 -0.02860317 -0.02876427 -0.02894191 -0.0291234 -0.02930645 -0.02947103 -0.02961781 -0.0297374 -0.02983405 -0.02991217
 -0.02997656 -0.03003593 -0.03009501 -0.0301613 -0.03024009 -0.03033794 -0.03045645 -0.03060005 -0.0307611 -0.0309397
 -0.03112137 -0.03130302 -0.03147322 -0.03162913 -0.0317699 -0.03189471 -0.03201171 -0.03212134 -0.03223468 -0.03235218
 -0.03248287 -0.0326261 -0.03278402 -0.03295377 -0.03312747 -0.03330136 -0.03346197 -0.03361006 -0.03373848 -0.03385625
 -0.03397014 -0.03408843 -0.03422369 -0.03436597 -0.03451862 -0.03465198 -0.03475571 -0.03481188 -0.03480798 -0.03477274
 -0.03470409 -0.03466571 -0.03466355 -0.03473933 -0.03489535 -0.03511303 -0.03538797 -0.03566077 -0.03592816 -0.03613897
 -0.03629833 -0.03639334 -0.03643817 -0.03645638 -0.03646494 -0.03650301 -0.03657503 -0.03670718 -0.03687814 -0.03708469
 -0.03729263 -0.03748035 -0.03763754 -0.03774995 -0.03784323 -0.03792056 -0.03800555 -0.03810615 -0.0382049 -0.03830262
 -0.03835617 -0.03836328 -0.03830778 -0.03819314 -0.03805738 -0.03790788 -0.0378086 -0.03775925 -0.03779756 -0.03790807
 -0.03807667 -0.03828205 -0.03848117 -0.03866825 -0.03881534 -0.03893921 -0.03904358 -0.03914426 -0.03925557 -0.03936754
 -0.03948211 -0.03957812 -0.0396479 -0.03969394 -0.03971309 -0.03973069 -0.03974928 -0.03978135 -0.03982771 -0.03987309
 -0.03991648 -0.03993994 -0.03994514 -0.0399328 -0.03990579 -0.03987522 -0.0398414 -0.03981062 -0.03978186 -0.03975535
 -0.03973264 -0.03971362 -0.03970559 -0.03971189 -0.03974539 -0.03981375 -0.03992549 -0.04008918 -0.04029178 -0.04053638
 -0.04078475 -0.04103269 -0.04124131 -0.04140513 -0.04151728 -0.04157704 -0.0416178 -0.04164224 -0.04169603 -0.04177788
 -0.04190609 -0.04207135 -0.0422511 -0.04243538 -0.04258671 -0.04270711 -0.04277949 -0.04281931 -0.04283639 -0.0428472
 -0.04286909 -0.04290769 -0.042973 -0.04305664 -0.04316055 -0.04326419 -0.04336376 -0.043439 -0.04348371 -0.04350383
 -0.04349714 -0.04350202 -0.04352054 -0.04358535 -0.04369494 -0.04383532 -0.04400095 -0.04414786 -0.04427834 -0.04437409
 -0.04444823 -0.04452456 -0.04460995 -0.04473168 -0.04487684 -0.04504413 -0.04521181 -0.04536097 -0.04548119 -0.04555997
 -0.04560037 -0.04560041 -0.04556592 -0.04549748 -0.04540193 -0.04527903 -0.04514416 -0.04499774 -0.04486565 -0.04474936
 -0.04467506 -0.04464322 -0.04466644 -0.04474199 -0.04486104 -0.04501762 -0.04518609 -0.04536022 -0.04551202 -0.04563872
 -0.04572266 -0.04576537 -0.04576138 -0.04571462 -0.04562565 -0.04550058 -0.0453415 -0.04515782 -0.04495181 -0.04473715
 -0.04451717 -0.04430386 -0.04410107 -0.04390599 -0.04372048 -0.04351822 -0.04329793 -0.04302022 -0.04268397 -0.04226482
 -0.04176666 -0.04120025 -0.0405733 -0.03992054 -0.03924606 -0.03857897 -0.03791546 -0.03726302 -0.03661436 -0.03596315
 -0.0353058 -0.03463714 -0.03395621 -0.03326283 -0.0325505 -0.03181867 -0.03105386 -0.03025195 -0.02940657 -0.02851301
 -0.02759069 -0.02663879 -0.0257029 -0.02478549 -0.02393789 -0.02316218 -0.02249603 -0.02193955 -0.0215137 -0.02121499
 -0.02104669 -0.02099432 -0.02103103 -0.02112672 -0.02122178 -0.02128452 -0.02125081 -0.02111277 -0.02083732 -0.020445
 -0.01993698 -0.01933757 -0.0186582 -0.01790648 -0.01708694 -0.01619921 -0.01524284 -0.01422438 -0.01314408 -0.01201164
 -0.01082767 -0.009598739 -0.00832531 -0.007015215 -0.005668889 -0.004294383 -0.002889595 -0.001450922 2.435263E-05 0.001551264
 0.00311544 0.004716745 0.006292175 0.007793765 0.009087926 0.01007284 0.01057574 0.01046882 0.009656335 0.008037209
 0.005724287 0.00268562 -0.0007466888 -0.004542465 -0.00830306 -0.01198328 -0.01531379 -0.01827348 -0.02080744 -0.02292113
 -0.0247083 -0.02618048 -0.02745895 -0.02854832 -0.02952927 -0.03040314 -0.03121217 -0.03195966 -0.03266997 -0.03334562
 -0.034 -0.03463085 -0.03524144 -0.03582636 -0.03638355 -0.03690831 -0.03739846 -0.03785061 -0.03826379 -0.03863443
 -0.03896241 -0.0392412 -0.0394709 -0.03963691 -0.03973847 -0.03975586 -0.03968917 -0.03953591 -0.0393022 -0.03902628
 -0.03871928 -0.03844744 -0.03821367 -0.03806487 -0.03798401 -0.03796783 -0.03798489 -0.03799712 -0.03797612 -0.03788503
 -0.0377083 -0.03742706 -0.03703508 -0.03652765 -0.03589524 -0.03513809 -0.03423054 -0.03316908 -0.03192539 -0.03048982
 -0.02890835 -0.02717933 -0.02553133 -0.023986 -0.02294433 -0.0224242 -0.02277051 -0.02393362 -0.02593265 -0.0286363
 -0.03172735 -0.03507134 -0.03827272 -0.0412863 -0.04388027 -0.04611165 -0.04794229 -0.04946778 -0.05073367 -0.05181039
 -0.05273788 -0.0535498 -0.05426202 -0.05489281 -0.05544687 -0.05593935 -0.05637217 -0.05675717 -0.05709516 -0.05739743
 -0.05766479 -0.05791131 -0.05813815 -0.05836071 -0.05857895 -0.05880215 -0.05902676 -0.05924938 -0.05946355 -0.05965516
 -0.05982206 -0.05995265 -0.06005664 -0.06013549 -0.06020773 -0.06028518 -0.06037887 -0.06049959 -0.06063718 -0.06079377
 -0.06094452 -0.06108498 -0.06119911 -0.06128303 -0.06134511 -0.06138533 -0.06142519 -0.06146526 -0.0615147 -0.06157171
 -0.06162656 -0.0616785 -0.06171732 -0.06174796 -0.06177753 -0.06181296 -0.06187237 -0.06195437 -0.06206799 -0.0621996
 -0.06234219 -0.06247871 -0.06259616 -0.0626866 -0.06274143 -0.06276762 -0.06276318 -0.06274676 -0.06272013 -0.06270603
 -0.06270736 -0.06273833 -0.06280044 -0.06288929 -0.06300405 -0.0631264 -0.06325515 -0.0633729 -0.06347972 -0.06356665
 -0.06363457 -0.06368069 -0.06370723 -0.0637159 -0.06371129 -0.06369984 -0.06368522 -0.06367403 -0.06366435 -0.06365762
 -0.06364879 -0.0636349 -0.06361733 -0.06359413 -0.06357634 -0.06356522 -0.06357265 -0.06360099 -0.06364894 -0.06371701
 -0.06378751 -0.06385943 -0.06391294 -0.06394887 -0.06396348 -0.06396044 -0.06395346 -0.06394515 -0.06395092 -0.06396858
 -0.06400233 -0.06404639 -0.06409533 -0.06414366 -0.0641838 -0.06421509 -0.06423327 -0.06424526 -0.06425179 -0.06426345
 -0.06428394 -0.06431763 -0.06436735 -0.06442502 -0.06449065 -0.06455067 -0.06460406 -0.06464379 -0.06466989 -0.06468567
 -0.06469186 -0.06469572 -0.06469762 -0.06470289 -0.06471193 -0.06472833 -0.06475256 -0.06478791 -0.06483253 -0.06488671
 -0.06494457 -0.065001 -0.06505126 -0.06508934 -0.06511863 -0.06513788 -0.06515602 -0.06517585 -0.0652014 -0.06523474
 -0.06527171 -0.06531214 -0.06535129 -0.06538869 -0.06542541 -0.06546155 -0.06549935 -0.0655381 -0.06557329 -0.06560339
 -0.06561821 -0.06561881 -0.06560107 -0.06557132 -0.06553923 -0.06551143 -0.06550258 -0.06551094 -0.06554215 -0.06558622
 -0.06563853 -0.06569127 -0.06573886 -0.06578168 -0.0658185 -0.06585203 -0.06588299 -0.06591079 -0.06593556 -0.0659555
 -0.06597047 -0.06598032 -0.06598508 -0.06598622 -0.06598421 -0.06598359 -0.06598495 -0.06599398 -0.06600957 -0.06603218
 -0.06605875 -0.06608274 -0.06610414 -0.06611858 -0.0661319 -0.06614815 -0.06617144 -0.06620789 -0.06625111 -0.06630133
 -0.06634644 -0.06638196 -0.06640439 -0.06641079 -0.06641054 -0.06640413 -0.06640267 -0.06640723 -0.0664197 -0.06643993
 -0.06646106 -0.06648252 -0.06649622 -0.06650259 -0.06649873 -0.06648675 -0.06647063 -0.06645341 -0.06644307 -0.06644122
 -0.0664542 -0.06647994 -0.06651953 -0.06656801 -0.06662254 -0.06667943 -0.06673606 -0.06679172 -0.06684586 -0.0668976
 -0.06694714 -0.06699067 -0.06702771 -0.0670557 -0.06707423 -0.06708711 -0.06709455 -0.06710234 -0.0671101 -0.06711709
 -0.06712247 -0.06712114 -0.06711431 -0.06710204 -0.06708766 -0.06707809 -0.06707495 -0.06708422 -0.06710378 -0.06713408
 -0.06717176 -0.06721497 -0.06726058 -0.06730735 -0.06735084 -0.06738966 -0.06741992 -0.06743998 -0.06745148 -0.06745385
 -0.06745432 -0.06745341 -0.06745621 -0.06746277 -0.0674706 -0.06747933 -0.06748406 -0.0674858 -0.06748642 -0.067488
 -0.06749854 -0.06751739 -0.06754857 -0.06758669 -0.06762594 -0.06766199 -0.06768678 -0.06770378 -0.06771183 -0.06771842
 -0.06772774 -0.06774065 -0.06775954 -0.0677776 -0.06779362 -0.06780379 -0.06780674 -0.06780763 -0.06780665 -0.06781029
 -0.0678187 -0.0678312 -0.06784724 -0.06786136 -0.06787357 -0.06788102 -0.06788451 -0.06788526 -0.06788345 -0.06788023
 -0.06787506 -0.06786733 -0.0678576 -0.06784585 -0.06783372 -0.06782231 -0.06781283 -0.06780605 -0.06780287 -0.06780352
 -0.06780944 -0.06782128 -0.06783802 -0.06786016 -0.06788146 -0.06790157 -0.06791387 -0.06791818 -0.06791419 -0.06790246
 -0.06788817 -0.06787181 -0.06785836 -0.06784792 -0.06784331 -0.0678445 -0.06785318 -0.06786822 -0.06788938 -0.06791363
 -0.06793794 -0.06795989 -0.06797606 -0.06798825 -0.06799559 -0.06800336 -0.06801327 -0.06802811 -0.06804943 -0.06807425
 -0.06810257 -0.06812973 -0.06815527 -0.06817793 -0.06819768 -0.06821492 -0.06822956 -0.06824034 -0.06824742 -0.06825031
 -0.06825011 -0.06825015 -0.06825092 -0.06825603 -0.06826283 -0.06826939 -0.06827249 -0.06826678 -0.06825488 -0.06823523
 -0.0682167 -0.06820334 -0.0682004 -0.06821232 -0.06823219 -0.06826027 -0.06828425 -0.06830192 -0.06831007 -0.0683078
 -0.06830331 -0.06829698 -0.06829612 -0.06830032 -0.06830808 -0.06831877 -0.06832821 -0.06833711 -0.06834553 -0.06835447
 -0.06836651 -0.06838117 -0.06839923 -0.06841905 -0.06843972 -0.06845844 -0.06847322 -0.06848127 -0.06847992 -0.06847107
 -0.06845383 -0.06843496 -0.06841598 -0.06840052 -0.06838997 -0.06837966 -0.06836939 -0.06835417 -0.06833387 -0.06831152
 -0.06828766 -0.06826965 -0.06825715 -0.06825283 -0.06825503 -0.06826007 -0.0682663 -0.06826794 -0.06826523 -0.06825503
 -0.06824096 -0.06822488 -0.06821198 -0.06820715 -0.06821129 -0.06822783 -0.06824921 -0.06827469 -0.06829325 -0.06830177
 -0.06829634 -0.06827492 -0.06824556 -0.0682084 -0.06817711 -0.06815234 -0.0681417 -0.06814449 -0.06815638 -0.06817564
 -0.06819083 -0.06820156 -0.06819957 -0.0681879 -0.06816832 -0.06814592 -0.06812975 -0.06812121 -0.06812721 -0.06814097
 -0.06816098 -0.06817728 -0.0681835 -0.06817754 -0.06815544 -0.0681266 -0.06809179 -0.06806241 -0.06804065 -0.06803
 -0.06803127 -0.06803978 -0.06805527 -0.06807128 -0.06808767 -0.06810091 -0.0681114 -0.06811936 -0.06812555 -0.06813211
 -0.0681406 -0.06815468 -0.06817751 -0.06821495 -0.06827049 -0.06835072 -0.06845523 -0.06858716 -0.06874039 -0.06891254
 -0.06909944 -0.06929733 -0.06951256 -0.06974422 -0.07000793 -0.07030568 -0.07064996 -0.07104279 -0.07148127 -0.07196494
 -0.07245732 -0.07295283 -0.07337791 -0.07372709 -0.07392846 -0.07398918 -0.07389129 -0.07365286 -0.07330164 -0.07285992
 -0.07236873 -0.0718567 -0.07136777 -0.07092433 -0.07055692 -0.07027357 -0.070086 -0.06999527 -0.07000645 -0.07010819
 -0.07030565 -0.07054941 -0.07083822 -0.0710895 -0.07129481 -0.07141354 -0.07144373 -0.0714132 -0.07132494 -0.07122088
 -0.07110249 -0.07099982 -0.07091078 -0.0708469 -0.07079929 -0.07075459 -0.07070348 -0.0706236 -0.07051577 -0.07037077
 -0.07019703 -0.06999692 -0.06978074 -0.069553 -0.06932556 -0.06910307 -0.06889451 -0.06870352 -0.0685307 -0.06837739
 -0.06823666 -0.06810821 -0.06798363 -0.0678625 -0.06774127 -0.0676204 -0.06750438 -0.067394 -0.06729656 -0.06721083
 -0.06713714 -0.06707248 -0.0670094 -0.06694774 -0.0668827 -0.06681856 -0.06675825 -0.06670494 -0.06666341 -0.06663018
 -0.06660574 -0.06658293 -0.06655934 -0.06653014 -0.06649344 -0.06644834 -0.06639408 -0.06633324 -0.06626567 -0.0661981
 -0.06613088 -0.06607226 -0.06602228 -0.06598437 -0.06595747 -0.06593762 -0.06592354 -0.06590843 -0.0658926 -0.06587287
 -0.06585153 -0.06583078 -0.06581265 -0.06580087 -0.06579461 -0.06579551 -0.06579875 -0.06580294 -0.06580184 -0.06579246
 -0.06577302 -0.06574138 -0.06570406 -0.06566118 -0.06562304 -0.06559082 -0.06556813 -0.06555521 -0.06554636 -0.06554112
 -0.06553223 -0.06551987 -0.06550157 -0.0654777 -0.06544843 -0.06541367 -0.06537321 -0.06532705 -0.06527453 -0.06521717
 -0.0651556 -0.06509368 -0.0650338 -0.0649813 -0.06493995 -0.06491171 -0.06489958 -0.06489733 -0.06490504 -0.06491169
 -0.06491542 -0.06491007 -0.06489451 -0.06487066 -0.06483858 -0.06480415 -0.06476768 -0.06473457 -0.06470485 -0.06468175
 -0.06466469 -0.06465368 -0.06464744 -0.06464317 -0.06463955 -0.06463326 -0.06462331 -0.06460743 -0.06458486 -0.06455421
 -0.06451543 -0.06446774 -0.06441278 -0.06435018 -0.06428484 -0.06421696 -0.0641552 -0.06410071 -0.06406179 -0.06403984
 -0.06403355 -0.06404293 -0.06405482 -0.06406848 -0.06407021 -0.06406089 -0.06403839 -0.06400509 -0.06396851 -0.06393006
 -0.06389719 -0.06386927 -0.0638488 -0.06383392 -0.06382383 -0.0638159 -0.06380793 -0.06379769 -0.06378318 -0.06376413
 -0.06373957 -0.06371176 -0.06368097 -0.06364985 -0.06361898 -0.06358921 -0.06356083 -0.06353217 -0.06350315 -0.06347127
 -0.06343655 -0.06339884 -0.06335869 -0.0633194 -0.06328154 -0.06324919 -0.0632218 -0.06320054 -0.06318353 -0.06316821
 -0.06315303 -0.06313474 -0.06311416 -0.06309033 -0.06306618 -0.06304324 -0.06302286 -0.06300665 -0.06299174 -0.06297822
 -0.06296084 -0.06293855 -0.06290945 -0.06287289 -0.06283286 -0.06278953 -0.06274877 -0.0627106 -0.06267644 -0.06264574
 -0.06261545 -0.06258567 -0.06255469 -0.06252407 -0.06249695 -0.06247424 -0.06245964 -0.06245117 -0.06244842 -0.06244815
 -0.06244757 -0.06244462 -0.06243743 -0.06242485 -0.06240626 -0.06238013 -0.0623458 -0.06230332 -0.0622521 -0.06219633
 -0.0621361 -0.06207842 -0.06202373 -0.06197789 -0.06194094 -0.06191467 -0.06189852 -0.06189002 -0.06188844 -0.06188985
 -0.06189344 -0.06189566 -0.0618952 -0.06188823 -0.06187411 -0.06184973 -0.06181778 -0.06177823 -0.06173734 -0.06169856
 -0.0616663 -0.06164413 -0.06162935 -0.06162279 -0.0616171 -0.06161115 -0.06159997 -0.06158265 -0.06156002 -0.06153205
 -0.06150235 -0.06147098 -0.0614396 -0.06140792 -0.06137482 -0.0613403 -0.06130355 -0.06126535 -0.06122719 -0.06118999
 -0.06115617 -0.06112586 -0.0611004 -0.06107892 -0.06106133 -0.06104618 -0.06103281 -0.06101948 -0.06100531 -0.0609896
 -0.06097193 -0.0609524 -0.06093092 -0.06090791 -0.0608834 -0.06085787 -0.06083134 -0.06080448 -0.06077733 -0.06075056
 -0.06072436 -0.06070022 -0.06067837 -0.06066088 -0.06064716 -0.06063724 -0.06062919 -0.06061957 -0.06060733 -0.06058911
 -0.06056683 -0.06054077 -0.06051336 -0.06048669 -0.06046 -0.06043389 -0.06040558 -0.0603743 -0.06033878 -0.06029849
 -0.06025426 -0.06020603 -0.06015598 -0.06010422 -0.06005365 -0.06000439 -0.05995918 -0.05991802 -0.05988229 -0.05985178
 -0.05982656 -0.05980616 -0.05978952 -0.05977615 -0.05976456 -0.0597548 -0.05974637 -0.05973923 -0.05973372 -0.05972802
 -0.05972151 -0.05971167 -0.05969697 -0.05967765 -0.05965294 -0.05962628 -0.05959794 -0.05957212 -0.0595494 -0.05953155
 -0.05951881 -0.05950752 -0.05949727 -0.05948 -0.05945573 -0.05941997 -0.05937488 -0.05932648 -0.0592771 -0.05923714
 -0.05920464 -0.05918177 -0.05916364 -0.05914417 -0.05912242 -0.059094 -0.05906418 -0.05903484 -0.05901011 -0.05899366
 -0.05898092 -0.05897272 -0.05895751 -0.05893318 -0.05889284 -0.05883453 -0.05876582 -0.05868689 -0.05861431 -0.05854865
 -0.05850013 -0.05846766 -0.05844877 -0.05844147 -0.05843638 -0.05843264 -0.05842284 -0.05840811 -0.05838661 -0.05836094
 -0.05833368 -0.05830657 -0.05828301 -0.0582604 -0.05823893 -0.05821344 -0.05818154 -0.05814126 -0.05809077 -0.05803396
 -0.05797097 -0.05790705 -0.05784286 -0.0577809 -0.05772137 -0.05766487 -0.05761146 -0.05756207 -0.05751689 -0.057478
 -0.05744511 -0.05741871 -0.05739716 -0.05737646 -0.05735509 -0.05732746 -0.05729546 -0.05725849 -0.05722079 -0.05718676
 -0.05715625 -0.05713211 -0.05710721 -0.05707932 -0.05704295 -0.05699462 -0.05693952 -0.05687714 -0.05681882 -0.05676595
 -0.056725 -0.0566967 -0.05667659 -0.05666419 -0.05664987 -0.05663364 -0.05661081 -0.05658237 -0.05655018 -0.05651459
 -0.0564777 -0.05643899 -0.0563982 -0.05635555 -0.05631126 -0.05626531 -0.05621822 -0.05616825 -0.05611381 -0.05605615
 -0.05599409 -0.05593453 -0.05587916 -0.05583328 -0.05579918 -0.05577252 -0.05575355 -0.05573292 -0.05570994 -0.05568019
 -0.05564373 -0.05560344 -0.05555962 -0.05551616 -0.05547255 -0.05542857 -0.05538339 -0.0553339 -0.05528129 -0.05522554
 -0.05517009 -0.05511978 -0.05507594 -0.05504298 -0.05501599 -0.05499423 -0.05496999 -0.05493942 -0.05489938 -0.05484744
 -0.05478643 -0.05471602 -0.05464198 -0.05456483 -0.05448983 -0.05441743 -0.05434973 -0.05428673 -0.05422742 -0.05417206
 -0.05412221 -0.05407881 -0.05404765 -0.05402746 -0.0540194 -0.05401779 -0.05401255 -0.05399925 -0.0539655 -0.05391668
 -0.05385174 -0.05378129 -0.05371242 -0.0536494 -0.05359723 -0.05355095 -0.05351083 -0.05346862 -0.0534225 -0.05336886
 -0.05330652 -0.05323958 -0.05316812 -0.05309951 -0.05303401 -0.05297614 -0.05292542 -0.05288065 -0.05284047 -0.05279839
 -0.05275337 -0.05269838 -0.05263498 -0.0525623 -0.05248355 -0.05240266 -0.05232169 -0.05224378 -0.05217024 -0.0521026
 -0.05204196 -0.05198986 -0.05194384 -0.05190453 -0.05186437 -0.05182204 -0.05177174 -0.051712 -0.05164588 -0.05157336
 -0.05150114 -0.05142938 -0.05135951 -0.05129107 -0.05122085 -0.05114885 -0.051073 -0.05099446 -0.05091539 -0.05083691
 -0.05076285 -0.05069195 -0.05062469 -0.05055785 -0.05048774 -0.05041485 -0.050337 -0.05026033 -0.05018748 -0.05012102
 -0.05006404 -0.05000844 -0.04995383 -0.04988898 -0.04981181 -0.04972155 -0.04961765 -0.0495107 -0.04940117 -0.04929781
 -0.04919987 -0.049105 -0.04901164 -0.04891052 -0.04880259 -0.04868471 -0.04856105 -0.04843885 -0.04831981 -0.04821073
 -0.04810744 -0.04800898 -0.04790989 -0.04780514 -0.04769575 -0.04757941 -0.04746427 -0.04735243 -0.04724934 -0.04715775
 -0.047072 -0.0469928 -0.04690372 -0.0468035 -0.04668265 -0.0465413 -0.04639103 -0.04623251 -0.0460778 -0.0459243
 -0.04576629 -0.04560117 -0.04541685 -0.04521604 -0.04499706 -0.04476681 -0.04453432 -0.04430389 -0.04408357 -0.04387271
 -0.04367475 -0.04348283 -0.04329698 -0.04310245 -0.04289491 -0.04266337 -0.04240235 -0.04212287 -0.04182464 -0.04152785
 -0.04123429 -0.04095003 -0.04067523 -0.04040784 -0.04014811 -0.03989786 -0.03965684 -0.03942595 -0.03920232 -0.03897851
 -0.03875089 -0.03850741 -0.03824954 -0.03797252 -0.03768403 -0.03739003 -0.03709555 -0.03680673 -0.03652219 -0.03624306
 -0.03596628 -0.03569104 -0.03541577 -0.03514121 -0.03485939 -0.03457125 -0.03425151 -0.03389819 -0.03349342 -0.03303763
 -0.03256455 -0.03207672 -0.03161416 -0.03117087 -0.03073889 -0.03031158 -0.02986346 -0.02939532 -0.02889694 -0.02837059
 -0.02781906 -0.02723299 -0.02660926 -0.02592437 -0.02516064 -0.02430601 -0.02333979 -0.02230203 -0.02119302 -0.0200844
 -0.018993 -0.01795353 -0.01697521 -0.01605118 -0.01518239 -0.01434516 -0.01353771 -0.01271724 -0.01187937 -0.01096017
 -0.009966257 -0.008884752 -0.007747374 -0.006652121 -0.005603225 -0.004668396 -0.003807539 -0.002990278 -0.002187672 -0.001354616
 -0.0004934248 0.0004093359 0.001340321 0.00229531 0.00326924 0.004263275 0.005256996 0.006248514 0.007208412 0.008129803
 0.009020726 0.009880839 0.01073092 0.01157093 0.012374 0.01313673 0.01381212 0.01440532 0.01491455 0.01535217
 0.0157569 0.01613268 0.01651031 0.01687766 0.01722704 0.01755682 0.01785804 0.01814575 0.01843103 0.01871293
 0.01899832 0.01926574 0.01951005 0.01971439 0.01987407 0.01998129 0.02003511 0.02002447 0.0199481 0.01980371
 0.01959176 0.01933918 0.01904717 0.0187394 0.0184121 0.01805825 0.01767454 0.01724416 0.0167728 0.01626028
 0.01572319 0.01518552 0.01465932 0.01416913 0.01370897 0.01328251 0.01288086 0.01249725 0.0121394 0.01180663
 0.0115145 0.0112681 0.01106609 0.01091018 0.0107858 0.01069174 0.01062043 0.01057172 0.01055274 0.01056441
 0.01061925 0.0107162 0.01085705 0.01103872 0.01125168 0.01149546 0.01176337 0.01205898 0.01238479 0.01274354
 0.01313894 0.0135726 0.01404454 0.01456324 0.01512889 0.01576285 0.0164686 0.01727776 0.01819779 0.01925069
 0.02044518 0.02175326 0.02317701 0.02462405 0.02608883 0.02744453 0.02868218 0.02966375 0.03038439 0.03073523
 0.03073913 0.03040227 0.02976961 0.02893771 0.02794398 0.02687555 0.02577928 0.02472983 0.02377054 0.02296543
 0.02229701 0.02178323 0.02135955 0.02100967 0.02067983 0.02034843 0.02002607 0.0197056 0.01945637 0.01928546
 0.01920729 0.01922229 0.01930163 0.01944568 0.01964938 0.01991505 0.02025349 0.02066358 0.02115275 0.0217064
 0.02231812 0.02291948 0.02344036 0.02372623 0.02357059 0.02293255 0.02165958 0.01996369 0.0179129 0.01566202
 0.01327808 0.01084174 0.008365124 0.005994793 0.003751052 0.001754464 2.271737E-05 -0.001469325 -0.002723285 -0.003842513
 -0.004829732 -0.005749433 -0.006596624 -0.007376202 -0.008086736 -0.008723203 -0.009294243 -0.009814756 -0.01029662 -0.01076327
 -0.01122506 -0.01169952 -0.01219857 -0.01273245 -0.01332065 -0.01397808 -0.0147068 -0.01552957 -0.01635372 -0.0171698
 -0.0178591 -0.01839015 -0.01880196 -0.01909178 -0.01935911 -0.01960862 -0.01987963 -0.02016904 -0.0204537 -0.02072981
 -0.02096341 -0.02115813 -0.02131112 -0.02142105 -0.02148893 -0.02149865 -0.02142515 -0.02125811 -0.02097078 -0.02057892
 -0.02008328 -0.0195067 -0.01886094 -0.0181606 -0.0174125 -0.01662753 -0.01581119 -0.01495857 -0.01407226 -0.01312249
 -0.01210493 -0.01102478 -0.00988301 -0.008796303 -0.007772211 -0.006939837 -0.006291927 -0.00585479 -0.005615924 -0.005550106
 -0.005644375 -0.005862994 -0.006184705 -0.006564185 -0.0069789 -0.007392737 -0.007777231 -0.008104152 -0.008343379 -0.008462224
 -0.008485354 -0.008406382 -0.008286742 -0.008142854 -0.007997182 -0.007857339 -0.007715724 -0.007572114 -0.00742282 -0.007267684
 -0.007113029 -0.006958868 -0.006807803 -0.006658349 -0.006503629 -0.00634195 -0.006162921 -0.005968092 -0.005753429 -0.005527255
 -0.005300825 -0.005080755 -0.004882477 -0.004696838 -0.004525982 -0.004347131 -0.004150223 -0.003915239 -0.003630939 -0.003295484
 -0.002904081 -0.002471985 -0.001999183 -0.00151039 -0.001006629 -0.0005242831 -6.54055E-05 0.0003282945 0.0006561033 0.0008970707
 0.001053832 0.001130571 0.001129831 0.001062285 0.0009292421 0.0007389865 0.0004915714 0.0001910875 -0.0001640491 -0.0005750576
 -0.001040182 -0.001560756 -0.002127435 -0.002736307 -0.003378517 -0.00404974 -0.004746875 -0.005471048 -0.006206502 -0.006954496
 -0.007674221 -0.008362221 -0.008984984 -0.009540563 -0.01003161 -0.01045963 -0.01084526 -0.01118887 -0.0115031 -0.01178665
 -0.01204016 -0.01226548 -0.01246444 -0.01264616 -0.0128238 -0.01301085 -0.01322752 -0.01348192 -0.01379057 -0.01414331
 -0.01454467 -0.01496354 -0.01539205 -0.01579745 -0.01616841 -0.01649618 -0.01677529 -0.01702371 -0.01724208 -0.01745349
 -0.01765927 -0.01786439 -0.01806749 -0.01825136 -0.01841463 -0.01853936 -0.0186278 -0.01867776 -0.01869343 -0.01868312
 -0.01865073 -0.01860578 -0.01855165 -0.01849595 -0.01843976 -0.0183866 -0.01833552 -0.01828663 -0.01824012 -0.01819589
 -0.01815493 -0.01811741 -0.01808421 -0.018055 -0.01803428 -0.01802208 -0.01802759 -0.01805133 -0.01809846 -0.01816846
 -0.01825565 -0.01835817 -0.01846272 -0.01856641 -0.01865228 -0.01871758 -0.01874594 -0.01873967 -0.01869264 -0.01861548
 -0.01851636 -0.01840865 -0.01830604 -0.01821493 -0.0181436 -0.01808961 -0.01805423 -0.01803258 -0.01802349 -0.01802464
 -0.01803552 -0.01805484 -0.01808252 -0.01811649 -0.01815663 -0.01820128 -0.01825047 -0.01830448 -0.01836315 -0.01842574
 -0.01849164 -0.01855806 -0.01862479 -0.01868991 -0.01875354 -0.01881573 -0.01887463 -0.01892851 -0.01897478 -0.01900953
 -0.01903562 -0.01905209 -0.01906729 -0.01908453 -0.01910786 -0.01914044 -0.01917539 -0.01921278 -0.01924127 -0.01925977
 -0.01925998 -0.01924133 -0.01920137 -0.01914047 -0.01906304 -0.01897052 -0.01887397 -0.01877443 -0.01868225 -0.01859601
 -0.01851798 -0.01844519 -0.01837331 -0.01830122 -0.01822564 -0.01814713 -0.01806581 -0.01797993 -0.01788945 -0.01778963
 -0.01767848 -0.01755356 -0.01741282 -0.01726097 -0.01709775 -0.01693264 -0.01676641 -0.01660779 -0.01645735 -0.01631936
 -0.01619372 -0.01607963 -0.01597632 -0.01587853 -0.0157856 -0.01569201 -0.01559802 -0.01550131 -0.01540295 -0.01530341
 -0.01520444 -0.01510786 -0.01501624 -0.01493221 -0.01485745 -0.01479408 -0.01474104 -0.01469823 -0.01466529 -0.01464149
 -0.01463031 -0.0146323 -0.01464972 -0.01468324 -0.01472913 -0.01478723 -0.01485189 -0.01492291 -0.01499711 -0.01507434
 -0.01515208 -0.01523 -0.01530513 -0.01537794 -0.01544796 -0.0155162 -0.01558445 -0.01565282 -0.01572219 -0.0157923
 -0.01586338 -0.01593465 -0.01600619 -0.01607569 -0.01614219 -0.01620446 -0.01626159 -0.01631538 -0.0163662 -0.01641409
 -0.01645949 -0.01649705 -0.01652646 -0.01654227 -0.01654451 -0.0165332 -0.01650879 -0.01647414 -0.0164297 -0.01637845
 -0.01632114 -0.01626118 -0.01619917 -0.01613795 -0.01607713 -0.0160179 -0.01595804 -0.01589764 -0.01582976 -0.01575242
 -0.01565353 -0.0155277 -0.01536795 -0.01516919 -0.01494016 -0.01468005 -0.01440782 -0.01412528 -0.01384758 -0.01357585
 -0.01331526 -0.0130655 -0.01282158 -0.01258239 -0.01233713 -0.01208644 -0.01182561 -0.01155901 -0.01129538 -0.01103851
 -0.01080068 -0.01057919 -0.0103767 -0.01018642 -0.01000274 -0.009823273 -0.009643473 -0.00946884 -0.009299789 -0.009144236
 -0.00900579 -0.008882199 -0.00877556 -0.008668764 -0.008560479 -0.008433916 -0.008287671 -0.008124564 -0.007945316 -0.007764601
 -0.00758185 -0.007400541 -0.007218047 -0.007025017 -0.006821005 -0.006599511 -0.006362802 -0.006112259 -0.005849134 -0.005575526
 -0.005292088 -0.004999159 -0.004700061 -0.004395767 -0.004092497 -0.003792554 -0.003501857 -0.003223445 -0.00295554 -0.00269966
 -0.002443518 -0.002186004 -0.00191682 -0.001635011 -0.001344924 -0.001046977 -0.0007496456 -0.0004526326 -0.0001563123 0.0001376807
 0.0004245084 0.0006980177 0.0009383931 0.001143872 0.001298457 0.00141302 0.001492706 0.001553346 0.001610644 0.001674058
 0.001754655 0.001852417 0.001971253 0.002103167 0.002247193 0.00239431 0.002541756 0.002690827 0.00284071 0.003001146
 0.003172754 0.00336151 0.003567365 0.003788679 0.00402473 0.004270117 0.004523418 0.004776197 0.005026983 0.005267422
 0.005497207 0.005712701 0.005912108 0.006092771 0.006250261 0.006379094 0.006478783 0.006546018 0.006586856 0.006602621
 0.006599579 0.006579086 0.006548181 0.006507188 0.006469099 0.006435529 0.006414661 0.006407446 0.006406554 0.006411519
 0.006412669 0.006410476 0.006404945 0.006395575 0.006381043 0.006358724 0.006319482 0.006264601 0.00619043 0.006103803
 0.006012159 0.005920317 0.005836331 0.005758537 0.005689255 0.005622239 0.005555972 0.005483452 0.005401584 0.005310272
 0.005207705 0.005104285 0.005001199 0.004904578 0.004815294 0.004723092 0.004627189 0.004511983 0.004376837 0.00421055
 0.004011892 0.003768763 0.003482046 0.003144302 0.002765775 0.002360042 0.001941095 0.00153539 0.001143201 0.0007772353
 0.000423419 7.592527E-05 -0.0002737033 -0.0006334035 -0.0009947335 -0.001358318 -0.001708794 -0.002042908 -0.002353239 -0.00263764
 -0.002902046 -0.003146524 -0.003383058 -0.003612082 -0.003840589 -0.004068229 -0.004295261 -0.004521566 -0.00474681 -0.004971246
 -0.005195385 -0.005419565 -0.005644186 -0.005870753 -0.006101913 -0.006337187 -0.00657924 -0.00682014 -0.007056225 -0.007279752
 -0.007483846 -0.007675631 -0.007854003 -0.008035047 -0.008222698 -0.008421015 -0.00863215 -0.008844268 -0.009056826 -0.009256112
 -0.009441635 -0.009606037 -0.00974976 -0.009872233 -0.009975191 -0.01006549 -0.01014527 -0.01022445 -0.01030324 -0.01038729
 -0.01047426 -0.01056388 -0.01065242 -0.01073639 -0.0108132 -0.01087941 -0.01093685 -0.01098498 -0.01102791 -0.01106724
 -0.01110298 -0.01113506 -0.01116459 -0.01119057 -0.0112261 -0.01127196 -0.01134086 -0.01143268 -0.01153865 -0.01165682
 -0.01176604 -0.01186739 -0.01195411 -0.01202964 -0.01210159 -0.01216938 -0.01223626 -0.01229841 -0.01235183 -0.01239405
 -0.01242133 -0.0124326 -0.01242538 -0.01240203 -0.01236123 -0.01231244 -0.01225763 -0.01220658 -0.01216228 -0.01212545
 -0.01209684 -0.01207276 -0.01205299 -0.01203556 -0.01202027 -0.01200279 -0.01198284 -0.01195538 -0.01192146 -0.01188298
 -0.01184156 -0.01180339 -0.01176804 -0.0117378 -0.01171106 -0.0116866 -0.01166295 -0.01163864 -0.0116116 -0.01157913
 -0.01154337 -0.01150275 -0.01146726 -0.01144033 -0.01142551 -0.01142685 -0.01142674 -0.01142424 -0.01139688 -0.01134224
 -0.01126327 -0.0111608 -0.01106151 -0.01096594 -0.01089176 -0.01083483 -0.01078553 -0.01073952 -0.01067717 -0.01060154
 -0.01050841 -0.01040453 -0.01029942 -0.01019199 -0.01008633 -0.009974604 -0.009850482 -0.00971674 -0.009569747 -0.009426659
 -0.009292037 -0.009177847 -0.00908883 -0.009021062 -0.008975048 -0.00894249 -0.00892284 -0.00890974 -0.00890276 -0.008893021
 -0.00888033 -0.008858448 -0.008828903 -0.008796426 -0.008760785 -0.008726292 -0.00868591 -0.008627937 -0.008545687 -0.00842071
 -0.008262169 -0.00806738 -0.007861105 -0.007659188 -0.00747785 -0.007332973 -0.007212942 -0.007120003 -0.007029516 -0.006935469
 -0.006829563 -0.00670848 -0.006583941 -0.006456598 -0.006335766 -0.006221625 -0.006110879 -0.006003322 -0.005895612 -0.00578843
 -0.005684267 -0.005581922 -0.005479938 -0.005374896 -0.005258016 -0.005129982 -0.004985383 -0.004833671 -0.004680729 -0.004538368
 -0.004417177 -0.004320928 -0.004255599 -0.004214945 -0.004198787 -0.00419902 -0.004214189 -0.004237562 -0.004268582 -0.004298256
 -0.004325978 -0.00434249 -0.004347358 -0.004335179 -0.004305196 -0.004248749 -0.004164095 -0.00403591 -0.003867559 -0.00365706
 -0.003418152 -0.003177262 -0.002946821 -0.002759731 -0.002610248 -0.00250846 -0.002433975 -0.002376101 -0.002319351 -0.002252342
 -0.002173185 -0.002078103 -0.001972389 -0.001855961 -0.001736684 -0.001614996 -0.001501909 -0.001398209 -0.001314814 -0.001252014
 -0.001208336 -0.001181844 -0.001153452 -0.001121399 -0.001065177 -0.0009884067 -0.0008907393 -0.0007781226 -0.0006644235 -0.0005490048
 -0.0004378313 -0.0003259356 -0.0002088785 -8.792971E-05 3.856473E-05 0.0001648017 0.000287867 0.0004061605 0.0005185754 0.0006246809
 0.0007244436 0.0008159149 0.0008980558 0.0009766372 0.001051635 0.001136677 0.001232294 0.001343798 0.00146978 0.001599181
 0.001729185 0.001839774 0.001929867 0.001983388 0.002006067 0.001999405 0.001976163 0.001956256 0.001946579 0.001963913
 0.002002558 0.00206302 0.00214138 0.002233989 0.002346267 0.00248091 0.002634052 0.002807204 0.002984658 0.00316382
 0.003339707 0.003511414 0.00368333 0.003855405 0.004018119 0.004170662 0.004299314 0.004406937 0.004500595 0.004584474
 0.004676563 0.004776507 0.004892164 0.005021843 0.005165919 0.005324193 0.005496877 0.005682978 0.005882529 0.006092536
 0.006314038 0.006535216 0.006756377 0.006949882 0.007109919 0.007215937 0.007261219 0.00726193 0.00721772 0.007164719
 0.007104644 0.0070602 0.007031662 0.00703028 0.00705543 0.007112283 0.0071958 0.007293052 0.007398782 0.007492241
 0.007579254 0.007658763 0.007739427 0.007833821 0.007935027 0.008044567 0.00814676 0.008232348 0.00829877 0.008340425
 0.008371087 0.008391237 0.008421516 0.008465045 0.008535418 0.008635283 0.008750374 0.008879746 0.008988171 0.009075585
 0.009127877 0.009149412 0.009156849 0.009151837 0.009148329 0.009145533 0.009146637 0.009155072 0.009177911 0.009216182
 0.009272646 0.009350238 0.009445599 0.009582963 0.009776342 0.01003203 0.01037602 0.01070729 0.01100959 0.0111926
 0.01122621 0.01119217 0.01109347 0.01102608 0.01099416 0.01099619 0.01102794 0.01103909 0.01103194 0.01099134
 0.01092724 0.01086695 0.0108122 0.01078283 0.01076966 0.01076846 0.01076764 0.01075138 0.01071834 0.01065733
 0.01058828 0.01051738 0.01046355 0.01044002 0.01043151 0.01043852 0.01043619 0.0104176 0.01039585 0.01037059
 0.01037057 0.01039697 0.01044232 0.01050421 0.01055156 0.01058464 0.01058884 0.010567 0.01052124 0.01045308
 0.01036633 0.01026291 0.01014738 0.01002102 0.009885584 0.009745787 0.009600226 0.009471009 0.009368234 0.009309899
 0.009309316 0.009352331 0.009438495 0.009552106 0.009689874 0.009851926 0.01004017 0.01021889 0.01038607 0.01047869
 0.01049906 0.01045195 0.01034933 0.01026414 0.01019696 0.01019111 0.01023322 0.01031259 0.01042182 0.01054364
 0.01067778 0.01081735 0.01096434 0.01111674 0.01128163 0.0114651 0.01166058 0.01187319 0.01206803 0.01223796
 0.01235727 0.01241778 0.01243346 0.0124043 0.01235155 0.01227631 0.01218247 0.01207083 0.01195197 0.01182774
 0.01171579 0.01161431 0.0115246 0.01144795 0.01138558 0.01134505 0.01134387 0.01137285 0.01143366 0.01150135
 0.01155115 0.01158843 0.01160186 0.01162998 0.01168776 0.01178554 0.01193516 0.01209944 0.01227546 0.01242476
 0.01254208 0.01262431 0.01267113 0.01270862 0.01273757 0.01277777 0.01282391 0.01285508 0.0128665 0.01282308
 0.01274051 0.01263396 0.01252832 0.01247698 0.01247567 0.01254633 0.01265963 0.01279926 0.01294586 0.01308713
 0.01320506 0.01329529 0.01332537 0.01328341 0.01316731 0.01296877 0.01274329 0.01249458 0.01227647 0.01209203
 0.01194128 0.01182232 0.01170928 0.01160228 0.01148853 0.01137134 0.01125458 0.01114311 0.01105184 0.01097947
 0.01093533 0.01090296 0.01086865 0.01081581 0.01072402 0.01059498 0.01042215 0.01021793 0.009981989 0.009738877
 0.009488945 0.009281741 0.009125654 0.009051871 0.009068275 0.009126106 0.009222958</values></Ydata></AB><ScSm><Ydata ylabel="Single channel"><values byteorder="INTEL" format="FLOAT32" numvalues="1814"> 0.07186623 0.07188272 0.07195754 0.07211402 0.07232824 0.07253867 0.07268821 0.07276379 0.07278448 0.07275943
 0.0726939 0.07263938 0.07268558 0.07287212 0.07312897 0.07332388 0.07337047 0.07330634 0.07326895 0.0733595
 0.07350563 0.07348939 0.07315327 0.07257985 0.07203431 0.07172084 0.07165876 0.07183987 0.07235609 0.07315048
 0.07374001 0.0735615 0.07267816 0.07181362 0.07154894 0.07176571 0.07198061 0.0719032 0.07152845 0.07103315
 0.07082452 0.0714242 0.07295416 0.07472268 0.07547931 0.07420249 0.07082458 0.06646325 0.06301446 0.0621388
 0.06408909 0.06736997 0.06986089 0.07051013 0.06983979 0.06887317 0.06803339 0.06727561 0.06679765 0.06707689
 0.06820938 0.06946536 0.06966577 0.06819108 0.06572174 0.06375575 0.06324077 0.06398055 0.06544173 0.06733291
 0.06878339 0.06788054 0.06355776 0.05797417 0.05554383 0.05873451 0.06543338 0.07101871 0.07247216 0.07005747
 0.06596294 0.0624909 0.06120226 0.06249831 0.06554112 0.06894982 0.07163933 0.07287253 0.07207908 0.06935196
 0.06592754 0.06358168 0.06353889 0.0659968 0.07008636 0.07394872 0.07558208 0.07432453 0.07129197 0.06819565
 0.06621744 0.06602842 0.06795812 0.07164473 0.07600756 0.07988054 0.08249491 0.08355121 0.08327341 0.08226767
 0.08106333 0.08002895 0.07969584 0.08042757 0.08156013 0.08165915 0.08008678 0.07785727 0.07658994 0.07683403
 0.07763641 0.07770158 0.07669899 0.07503703 0.07257842 0.06863268 0.06353299 0.05904343 0.05659604 0.05620713
 0.05752819 0.06039789 0.06360583 0.06482748 0.06317146 0.06079437 0.06075586 0.06375346 0.06776806 0.07052651
 0.07160236 0.07225125 0.07379085 0.07625441 0.078229 0.0779239 0.07495044 0.0713232 0.07003887 0.0721319
 0.07567471 0.07814316 0.0790754 0.07978527 0.08106834 0.08197083 0.08078449 0.07707618 0.07278039 0.07100663
 0.07333015 0.07821273 0.08211879 0.08213264 0.07792144 0.07180925 0.06696445 0.06520736 0.06652515 0.07027972
 0.07590719 0.08228229 0.08743485 0.08965681 0.08874695 0.08590511 0.0823625 0.07824187 0.07322146 0.06844583
 0.06674588 0.06995673 0.07656863 0.08299123 0.08675642 0.08774028 0.0867575 0.08403417 0.07944994 0.07402782
 0.07041841 0.07083589 0.07438689 0.07758151 0.07799093 0.07646155 0.07530765 0.07542782 0.07598148 0.07617237
 0.07638803 0.07754286 0.07976954 0.08208476 0.08333877 0.08325687 0.08248147 0.08182412 0.08152714 0.08109002
 0.07997535 0.07868528 0.07869317 0.08083246 0.08415517 0.08690858 0.08828895 0.08872771 0.08872399 0.08795806
 0.08575653 0.08237346 0.07950153 0.0790156 0.08116156 0.08440815 0.08703431 0.08835997 0.08858217 0.08815642
 0.08748722 0.0867918 0.08617043 0.08589706 0.0863504 0.08747476 0.08865403 0.08933094 0.0894656 0.08926094
 0.08876491 0.08794687 0.08698218 0.08626476 0.08612655 0.08658712 0.0873886 0.08822467 0.08886035 0.08910377
 0.08887017 0.0883148 0.08773701 0.08730929 0.08702877 0.08691829 0.08708194 0.08751594 0.08801953 0.08836979
 0.0885011 0.08847363 0.08834668 0.08813746 0.08786406 0.08759029 0.08742794 0.08746663 0.08767134 0.08789549
 0.08804669 0.08817977 0.08835718 0.08849256 0.08843999 0.08819898 0.08793183 0.08779144 0.08780029 0.08788317
 0.08794484 0.08789202 0.0876386 0.08717935 0.08667848 0.08640571 0.08652338 0.08697052 0.08756468 0.08813734
 0.08856021 0.08876135 0.08877801 0.08871996 0.08864084 0.08849882 0.08826043 0.08799829 0.08786784 0.08798848
 0.08833481 0.08875085 0.08908122 0.08926841 0.08933488 0.08934347 0.08938321 0.08950531 0.08964507 0.08967923
 0.08958257 0.0894684 0.08945663 0.08954385 0.08962034 0.08959766 0.08950809 0.08946957 0.08955492 0.08972194
 0.0898812 0.09 0.09011666 0.09026548 0.09040356 0.09042923 0.09029414 0.09008031 0.08992241 0.08986729
 0.08986641 0.08989246 0.08998437 0.09015976 0.09034758 0.09045067 0.0904524 0.0904284 0.09045061 0.09050073
 0.09049504 0.09038603 0.09021673 0.09007572 0.09002002 0.09004419 0.09010138 0.09013952 0.09012721 0.09006169
 0.08996129 0.08984947 0.08974098 0.08964776 0.08960067 0.08964418 0.08978052 0.08992407 0.089947 0.08979379
 0.08954144 0.0893299 0.0892318 0.08919792 0.0891285 0.08898005 0.08879139 0.088624 0.08850396 0.0884195
 0.08834811 0.08827804 0.08822376 0.08823021 0.08833811 0.08852275 0.08868319 0.08872342 0.08864293 0.0885271
 0.08845823 0.08845837 0.08850349 0.08856118 0.08862008 0.08870071 0.08882312 0.08895634 0.08903418 0.08903703
 0.08902332 0.08906692 0.08919747 0.08940263 0.08963832 0.0898291 0.08991246 0.08990628 0.08989896 0.08995775
 0.09007318 0.09019999 0.09031996 0.09044641 0.09059066 0.09075239 0.09093866 0.09117037 0.09145992 0.09178705
 0.09210019 0.09234706 0.09251823 0.09266838 0.09288198 0.09320296 0.09359691 0.09398396 0.09430665 0.09456858
 0.09481395 0.09507355 0.09534013 0.09560513 0.09589888 0.09626215 0.09668481 0.09710835 0.09749191 0.09784661
 0.09820361 0.09857534 0.09895581 0.09934364 0.09975498 0.1002079 0.1006861 0.1011276 0.1014727 0.1017252
 0.1019553 0.1022437 0.1026255 0.1030636 0.1034619 0.103736 0.1039022 0.1040748 0.1043446 0.1046837
 0.1050033 0.1052846 0.1055988 0.1060004 0.1064468 0.1068445 0.1071491 0.1073977 0.1076545 0.1079381
 0.1082051 0.1084027 0.1085339 0.1086561 0.1088159 0.109016 0.1092585 0.10958 0.1100009 0.1104649
 0.1108733 0.1111734 0.1113812 0.1115367 0.1116723 0.111811 0.1119583 0.1121027 0.1122414 0.112385
 0.1125241 0.1126291 0.1127033 0.1128006 0.1129645 0.1131868 0.1134482 0.1137595 0.1141249 0.1145002
 0.1148381 0.115162 0.1155386 0.1159689 0.1163563 0.1166089 0.1167369 0.1168153 0.1168903 0.1169737
 0.1171022 0.1173334 0.1176756 0.118068 0.118446 0.1187941 0.1191289 0.1194564 0.1197568 0.119996
 0.1201491 0.1202229 0.1202617 0.1203286 0.120476 0.1207177 0.1210165 0.1213034 0.1215193 0.121637
 0.1216432 0.1215295 0.1213246 0.1211099 0.1209562 0.1208406 0.1206535 0.1202924 0.1197275 0.1189797
 0.1180724 0.1170285 0.1158976 0.114763 0.1137147 0.1128221 0.1121379 0.1117239 0.111655 0.111967
 0.112592 0.1133593 0.1140708 0.1145663 0.1147273 0.1144721 0.1137909 0.1127712 0.1115565 0.1102751
 0.1090044 0.1077709 0.1065571 0.1053351 0.1041362 0.1030941 0.1024127 0.1023035 0.1029498 0.1044694
 0.1068285 0.1097676 0.112857 0.1156873 0.1180449 0.1199338 0.1214706 0.1227854 0.1239833 0.1251206
 0.1261893 0.1271498 0.1279937 0.1287552 0.1294649 0.1301163 0.1306777 0.1311155 0.1314153 0.1315965
 0.1317 0.1317474 0.1317305 0.1316496 0.1315332 0.1313969 0.1312004 0.1308589 0.1302896 0.1294461
 0.1283408 0.1270835 0.1259367 0.1253314 0.1257415 0.1274187 0.130184 0.1334934 0.1367344 0.1394903
 0.1416071 0.1431255 0.1441924 0.144983 0.1456367 0.1462315 0.1467971 0.1473376 0.1478504 0.148337
 0.1488025 0.149252 0.1496953 0.1501433 0.1505884 0.1510022 0.1513696 0.1517199 0.1521064 0.1525556
 0.1530394 0.1535029 0.1539212 0.1543208 0.1547327 0.155139 0.1554927 0.1557846 0.1560592 0.156368
 0.1567325 0.1571451 0.1575737 0.1579682 0.1582919 0.1585548 0.1588024 0.1590706 0.1593634 0.1596672
 0.1599718 0.1602735 0.1605705 0.1608684 0.1611848 0.1615304 0.1618806 0.1621863 0.1624229 0.1626192
 0.1628277 0.1630743 0.1633443 0.1636092 0.1638624 0.1641296 0.1644425 0.1647985 0.1651517 0.1654518
 0.1656875 0.1658883 0.1660907 0.1663121 0.1665518 0.1668045 0.1670649 0.1673268 0.167586 0.1678448
 0.1681081 0.1683776 0.1686523 0.1689297 0.169205 0.1694727 0.1697323 0.1699899 0.1702531 0.1705309
 0.1708321 0.1711538 0.1714742 0.1717637 0.1720058 0.1722052 0.1723826 0.1725637 0.172767 0.1729928
 0.1732288 0.1734652 0.1737025 0.1739479 0.1742059 0.1744719 0.1747352 0.1749906 0.1752453 0.1755085
 0.1757817 0.1760611 0.176344 0.1766242 0.1768893 0.177131 0.1773543 0.1775723 0.177794 0.1780213
 0.1782532 0.1784905 0.1787355 0.1789884 0.1792459 0.1795059 0.1797687 0.180033 0.180293 0.1805443
 0.1807862 0.1810175 0.1812381 0.1814551 0.1816811 0.1819231 0.1821771 0.1824323 0.1826797 0.182919
 0.1831574 0.1834016 0.1836523 0.1839054 0.1841558 0.1843996 0.1846393 0.1848823 0.1851316 0.185381
 0.1856239 0.1858612 0.1860976 0.1863347 0.1865705 0.1868037 0.1870371 0.187277 0.187526 0.1877805
 0.1880364 0.1882915 0.1885418 0.1887829 0.1890168 0.1892503 0.1894897 0.1897409 0.1900088 0.1902876
 0.1905602 0.1908155 0.1910587 0.1913006 0.1915449 0.1917857 0.1920128 0.1922217 0.1924197 0.1926199
 0.1928304 0.1930535 0.1932871 0.1935251 0.1937628 0.1940016 0.1942426 0.1944819 0.1947189 0.1949607
 0.1952094 0.195457 0.1956969 0.1959303 0.1961621 0.1963972 0.1966372 0.1968793 0.1971223 0.1973716
 0.1976271 0.1978777 0.1981171 0.1983545 0.1986019 0.1988619 0.19913 0.199395 0.1996431 0.1998731
 0.2000974 0.200325 0.2005559 0.2007904 0.2010294 0.2012717 0.2015187 0.2017731 0.2020281 0.2022743
 0.2025132 0.2027507 0.2029881 0.2032269 0.2034686 0.2037072 0.2039398 0.2041756 0.2044218 0.2046721
 0.2049202 0.2051668 0.2054124 0.2056606 0.2059195 0.2061823 0.2064297 0.2066578 0.2068772 0.2070803
 0.2072189 0.2071636 0.2065966 0.2048967 0.2011248 0.1942038 0.1833356 0.168494 0.1506108 0.131253
 0.1120505 0.09426826 0.07866797 0.06559195 0.05512543 0.0472065 0.04169009 0.03845023 0.03749127 0.03906879
 0.04382126 0.05238712 0.06397235 0.07509643 0.08095758 0.07922273 0.07225402 0.06495631 0.06071303 0.05976219
 0.06065348 0.06214237 0.06383497 0.06596753 0.06893402 0.07282987 0.07744557 0.08276552 0.08920133 0.09706352
 0.1059394 0.1148717 0.1231838 0.1310029 0.138939 0.147346 0.1559539 0.1641389 0.1714217 0.1777079
 0.183194 0.188149 0.1927621 0.1971245 0.2012804 0.2052228 0.2088065 0.2117232 0.213656 0.2145196
 0.2145649 0.2142382 0.2139251 0.2138073 0.2139085 0.2142034 0.2146642 0.2152615 0.2159713 0.2167765
 0.2176529 0.2185665 0.2194848 0.220379 0.2212236 0.2220044 0.2227195 0.2233679 0.22395 0.2244783
 0.2249726 0.2254427 0.2258871 0.2263034 0.2266949 0.2270695 0.2274322 0.2277793 0.2281024 0.2283996
 0.2286768 0.2289378 0.2291813 0.2294064 0.2296141 0.2298059 0.2299894 0.2301804 0.230391 0.2306197
 0.230855 0.2310856 0.2313077 0.2315232 0.2317334 0.2319345 0.232125 0.2323114 0.2325031 0.2327004
 0.2328968 0.2330898 0.2332821 0.2334754 0.2336672 0.2338544 0.23404 0.2342332 0.2344416 0.2346609
 0.2348815 0.2351033 0.2353326 0.2355662 0.2357939 0.2360122 0.2362256 0.2364379 0.2366532 0.2368735
 0.2370875 0.2372736 0.2374259 0.2375685 0.2377396 0.2379599 0.2382142 0.2384619 0.2386734 0.2388538
 0.2390276 0.2392102 0.2394006 0.2395889 0.239771 0.2399642 0.2401982 0.2404741 0.2407545 0.24101
 0.241249 0.2414903 0.2417373 0.2419879 0.2422335 0.2424437 0.2425901 0.2426954 0.2428376 0.2430909
 0.2434563 0.2438523 0.2441898 0.2444525 0.2446886 0.2449463 0.2452416 0.245544 0.2457539 0.2457674
 0.2456373 0.245603 0.245876 0.2464332 0.2470714 0.247613 0.2480141 0.2483221 0.2485882 0.2488116
 0.2489406 0.2489343 0.2488494 0.2488601 0.249137 0.2496721 0.2502697 0.2507437 0.2510666 0.2513037
 0.2515051 0.2516899 0.2518079 0.2516941 0.251242 0.2506909 0.2505581 0.2511415 0.2521849 0.2531487
 0.253742 0.254074 0.2543507 0.2546211 0.254838 0.2549068 0.254564 0.2535225 0.2520236 0.2509977
 0.2512921 0.2528169 0.2547019 0.2561723 0.2570356 0.2574825 0.2577502 0.2579638 0.2580433 0.25771
 0.2567981 0.2556761 0.2551582 0.2557564 0.2571024 0.2583414 0.2590071 0.2592688 0.2594698 0.2597414
 0.259914 0.2594765 0.2578679 0.255309 0.2532117 0.2531838 0.2554574 0.2586106 0.2609757 0.262071
 0.2624597 0.2625227 0.2619001 0.2601437 0.2573913 0.2542995 0.2518491 0.2512235 0.2530194 0.256258
 0.258943 0.2600351 0.2603267 0.2611273 0.2626981 0.2642621 0.2650157 0.2647483 0.2637032 0.2621394
 0.260214 0.2583891 0.257666 0.2588747 0.2616643 0.2646339 0.2666245 0.2675942 0.2680055 0.2674666
 0.2644606 0.2581733 0.2507714 0.2468025 0.2491823 0.2561435 0.2631292 0.2672701 0.2689573 0.2697093
 0.2701371 0.2697729 0.2673359 0.2614299 0.2527428 0.2454352 0.2443219 0.2500997 0.2585577 0.2645178
 0.2653664 0.2613164 0.2544602 0.2481467 0.2456199 0.2480539 0.2540405 0.2609804 0.2666427 0.2697743
 0.2700861 0.2681339 0.2652761 0.2633435 0.2633163 0.263876 0.2624015 0.2582768 0.2539115 0.2511979
 0.2485783 0.2439335 0.2392567 0.2393331 0.2455175 0.2534609 0.2580007 0.2583894 0.2573376 0.2560809
 0.2522641 0.2433299 0.2313586 0.2231451 0.2242562 0.2332554 0.2429888 0.2475882 0.2471304 0.2455328
 0.2453282 0.2450906 0.2414579 0.2335256 0.2250696 0.2213741 0.2236121 0.2277975 0.2295054 0.2274037
 0.2216965 0.2127037 0.2034035 0.2003293 0.2080402 0.2235253 0.2385781 0.2465532 0.2447721 0.2330318
 0.214545 0.1978863 0.1928125 0.2015194 0.2159672 0.2252782 0.2243671 0.2148244 0.2002527 0.1838135
 0.1696998 0.1635641 0.1691112 0.1843407 0.2016549 0.2116486 0.2082898 0.1936049 0.1780651 0.1730487
 0.1804972 0.1915957 0.1966504 0.193877 0.1879998 0.1841396 0.1848516 0.1897428 0.1959132 0.2006529
 0.2035993 0.2037326 0.1964739 0.1792123 0.1586775 0.1465235 0.1472097 0.155693 0.166783 0.1797992
 0.1925342 0.1980519 0.1925377 0.1825828 0.1795963 0.1876996 0.2001908 0.2077314 0.2075815 0.2041107
 0.2020113 0.2012637 0.199512 0.1975454 0.1994748 0.2070689 0.2166575 0.2232209 0.2256067 0.2260714
 0.2264468 0.2267532 0.2264991 0.2255129 0.2238609 0.2219719 0.2204986 0.2195597 0.2186058 0.2171938
 0.214993 0.2107081 0.2024255 0.1905187 0.1793788 0.1740067 0.1747921 0.1779218 0.1808687 0.1837751
 0.1843734 0.1766155 0.1585977 0.1390081 0.1308142 0.1387639 0.1558585 0.1713089 0.1787897 0.1769947
 0.1664366 0.149651 0.1337646 0.1282919 0.137482 0.1563396 0.1759809 0.1911765 0.2009668 0.2046365
 0.2009826 0.1913791 0.1808929 0.175415 0.1781344 0.1881387 0.2007037 0.2085007 0.2051822 0.1917135
 0.1792284 0.1808201 0.1977518 0.2172935 0.2270229 0.2274131 0.2267627 0.2282962 0.2285733 0.2265601
 0.227246 0.234751 0.2462207 0.254648 0.2550538 0.2464452 0.2310822 0.2149243 0.2061209 0.2085293
 0.2173645 0.2244284 0.2260451 0.222551 0.2134493 0.1995258 0.188072 0.188463 0.2012648 0.2169656
 0.2268071 0.2307813 0.2336697 0.2368146 0.2364956 0.2295816 0.2187812 0.2109863 0.2104669 0.2151336
 0.2200626 0.2226653 0.222756 0.2196641 0.212656 0.2042015 0.1999577 0.2038762 0.214131 0.2248308
 0.2312724 0.2328633 0.2317361 0.2299752 0.2282051 0.2257611 0.2221077 0.2186749 0.2185653 0.2232125
 0.2300505 0.2351295 0.237627 0.2401174 0.2445502 0.2495905 0.252277 0.2512857 0.2482065 0.2461572
 0.2472742 0.2510031 0.2544992 0.2550408 0.2526089 0.2501443 0.2508421 0.2551117 0.2605359 0.2646121
 0.2667943 0.2679676 0.2689628 0.2698404 0.2698567 0.2680312 0.2645338 0.2614986 0.2615159 0.2650621
 0.2700445 0.2739608 0.2759105 0.2764586 0.2762867 0.2754834 0.2739378 0.2719693 0.2703319 0.2696347
 0.2699116 0.2707744 0.2718128 0.2727743 0.2735376 0.2740833 0.2744642 0.2747331 0.2749193 0.2750643
 0.2751982 0.2752743 0.2752217 0.2750931 0.2750725 0.2752729 0.2755836 0.2757831 0.2757421 0.2754308
 0.2747905 0.2737391 0.2723138 0.2706795 0.2689422 0.2670676 0.2651078 0.2634718 0.2628175 0.2635594
 0.2654842 0.2678825 0.2700395 0.2715915 0.2725185 0.2729564 0.2730697 0.2730126 0.2728962 0.2727574
 0.2725785 0.2723446 0.2720687 0.2717658 0.2714379 0.2711003 0.2707974 0.270566 0.2703916 0.2702146
 0.2699717 0.2696289 0.269193 0.2687011 0.2681867 0.2676449 0.2670303 0.2662932 0.26542 0.2644466
 0.2634416 0.2624739 0.2615776 0.2607316 0.2598784 0.258967 0.2579615 0.2568154 0.2554946 0.2540588
 0.2526714 0.2514731 0.2504661 0.249543 0.2485896 0.2475367 0.2463615 0.2450874 0.2437686 0.2424483
 0.2411363 0.2398213 0.2384839 0.237095 0.2356178 0.2340245 0.2323158 0.230524 0.2286921 0.2268406
 0.2249448 0.222929 0.2206765 0.2180572 0.2149583 0.2113034 0.2070711 0.2023245 0.1972228 0.1919858
 0.1868273 0.1819097 0.1773444 0.1732276 0.1696655 0.1667595 0.1645704 0.163111 0.1623692 0.162326
 0.1629566 0.164223 0.1660595 0.1683592 0.1709797 0.1737613 0.1765372 0.1791545 0.1815225 0.1836546
 0.185644 0.1875769 0.1894591 0.1912269 0.1928234 0.1942409 0.1954835 0.1965304 0.197367 0.1980257
 0.1985669 0.1990373 0.1994656 0.1998732 0.2002653 0.2006264 0.2009404 0.2012118 0.2014664 0.2017316
 0.2020153 0.2023103 0.202627 0.2030078 0.2035016 0.204134 0.2049001 0.2057664 0.2066813 0.2076062
 0.2085407 0.2095131 0.2105576 0.2117063 0.2129833 0.2143928 0.2159165 0.2175183 0.2191448 0.2207245
 0.2221768 0.2234267 0.2244262 0.2251712 0.2256891 0.2260083 0.2261518 0.2261491 0.2260332 0.2258258
 0.2255401 0.2251869 0.2247699 0.2242856 0.2237368 0.2231362 0.2224988 0.22184 0.2211752 0.2205157
 0.219866 0.2192269 0.2185982 0.2179894 0.217422 0.2169041 0.2164108 0.2159095 0.215397 0.2148873
 0.2143741 0.2138235 0.2131912 0.212441 0.2115624 0.2105744 0.2095001 0.2083433 0.2070992 0.2057682
 0.2043498 0.2028432 0.2012577 0.1996057 0.1978873 0.1960925 0.1942067 0.1922147 0.190129 0.1880198
 0.1859844 0.1840785 0.1822963 0.1806105 0.1790057 0.1774774 0.1760229 0.1746373 0.1733132 0.1720441
 0.1708278 0.1696658 0.1685631 0.1675273 0.1665654 0.1656877 0.1649129 0.1642515 0.1636838 0.1631764
 0.1627169 0.1623129 0.1619688 0.1616931 0.1615103 0.1614284 0.1614011 0.16135 0.1612253 0.1610347
 0.1608208 0.1606202 0.1604452 0.1602961 0.1601664 0.1600215 0.1597877 0.1593811 0.1587357 0.1578031
 0.1565565 0.1550149 0.1532502 0.1513684 0.1494951 0.1477586 0.1462575 0.1450345 0.1440789 0.1433414
 0.142755 0.1422688 0.1418734 0.1416022 0.1415092 0.1416086 0.1418079 0.1419467 0.1419524 0.1419266
 0.1420424 0.1423927 0.1429564 0.1436456 0.1443496 0.1449701 0.1454497 0.1457694 0.1459415 0.1460026
 0.145984 0.1458845 0.145697 0.145439 0.145132 0.1447792 0.1443783 0.1439224 0.1433898 0.1427675
 0.1420658 0.1412908 0.1404362 0.1394985 0.1384538 0.1372558 0.1359438 0.1347329 0.1339199 0.1336967
 0.134052 0.1348011 0.1357141 0.1366537 0.1375457 0.1382145 0.1384383 0.1383157 0.1384367 0.1394556
 0.1414661 0.1438923 0.145992 0.1473751 0.148044 0.1481178 0.1476729 0.1467517 0.1453506 0.1434289
 0.1410273 0.1383017 0.1353932 0.1323997 0.129488 0.1268689 0.1246628 0.1228872 0.1215101 0.120543
 0.1201093 0.1198611 0.117971 0.112069 0.1028841 0.09592567 0.0968882 0.105262 0.1146526 0.1195507
 0.119751 0.1181424 0.1167284 0.1158068 0.1152739 0.1152752 0.1159417 0.1171307 0.1184491 0.1194985
 0.120139 0.120434 0.1203349 0.1194644 0.1171023 0.112433 0.1051893 0.09622759 0.08724878 0.07981388
 0.07464116 0.07160789 0.07008368 0.0693079 0.06877516 0.06845398 0.06865501 0.06967929 0.0715738 0.07417596
 0.07728381 0.08065684 0.08390681 0.08662683 0.08870149 0.09032074 0.09164335 0.09260711 0.09308952 0.09309201
 0.09272769 0.09213646 0.09143709 0.09068727 0.08984852 0.08882283 0.08759768 0.08637747 0.0854824 0.0850544
 0.08494317 0.08492161 0.08489769 0.08487707 0.08485587 0.08481426 0.08474593 0.08468822 0.08475228 0.08504826
 0.08553394 0.08601476 0.08632469 0.08645447 0.08650381 0.08652608 0.08640158 0.08594064 0.08519851 0.08452712
 0.08411656 0.08365549 0.08273016 0.08145431 0.08042209 0.08007122 0.0803 0.08068316 0.0808778 0.08080573
 0.0806168 0.08058258 0.08091493 0.08152479</values></Ydata></ScSm><ScRf><Ydata ylabel="Single channel"><values byteorder="INTEL" format="FLOAT32" numvalues="1820"> 0.06048384 0.06064285 0.06074157 0.06078096 0.06078393 0.06079562 0.06086556 0.06101322 0.06120967 0.06139459
 0.06151954 0.06158005 0.06159863 0.06158377 0.0615358 0.06149352 0.06153002 0.06167819 0.06188142 0.06203341
 0.06206569 0.06200895 0.0619745 0.06204497 0.06216098 0.0621421 0.06185772 0.06137772 0.06092384 0.06066468
 0.06061354 0.06076359 0.06119479 0.06185985 0.06234817 0.0621813 0.0614155 0.06067021 0.06044193 0.06062738
 0.06080976 0.06073891 0.06041302 0.05998599 0.05980425 0.06031153 0.06161563 0.06313132 0.06378841 0.06270497
 0.05981782 0.0560858 0.05313519 0.05238589 0.05405112 0.05685162 0.05897629 0.05952786 0.05895485 0.05813527
 0.05743128 0.05679707 0.05638844 0.05660564 0.05753761 0.05857889 0.05873742 0.05748435 0.05538752 0.05371235
 0.05326565 0.05388737 0.05512854 0.05674117 0.05798383 0.05722895 0.05356414 0.04881679 0.0467394 0.04944324
 0.05514545 0.05991188 0.06115593 0.0590901 0.05558771 0.05262889 0.05154625 0.05266384 0.05525037 0.05813086
 0.06039706 0.06143507 0.06076167 0.05844976 0.05554418 0.05355206 0.05351471 0.05560215 0.0590791 0.06236811
 0.06376474 0.06269722 0.06010702 0.0574528 0.05575093 0.05557853 0.05721335 0.06034507 0.06405772 0.0673611
 0.06959438 0.0704937 0.0702505 0.06939168 0.0683767 0.06751444 0.06724252 0.06786202 0.06881538 0.06889489
 0.06755823 0.06565629 0.06456094 0.06475005 0.06542623 0.0654865 0.06463771 0.0632211 0.06112488 0.05776842
 0.05343609 0.04962529 0.0475506 0.04722447 0.04835522 0.05081603 0.05358244 0.05466498 0.05328115 0.05124931
 0.05117879 0.05368639 0.05707489 0.05941325 0.06032754 0.0608766 0.06218285 0.06428017 0.06596785 0.06571889
 0.06319714 0.06011067 0.05900673 0.06077098 0.06377313 0.06587091 0.06667075 0.06728856 0.06839906 0.06918746
 0.06820017 0.0650734 0.06145449 0.05997848 0.06196997 0.06611536 0.06941779 0.06941383 0.06583042 0.06064312
 0.05653908 0.0550604 0.0561965 0.059411 0.06423348 0.06971522 0.07417996 0.07615622 0.07544231 0.07304105
 0.07001168 0.0664847 0.06219945 0.05812872 0.05668698 0.05945245 0.06514681 0.07069728 0.07397737 0.0748698
 0.074072 0.07178019 0.06788817 0.06327038 0.06020849 0.06061844 0.06374066 0.0665657 0.06698482 0.0657163
 0.06476243 0.06491391 0.06545028 0.06567712 0.0659267 0.06699841 0.06901555 0.07112214 0.07230461 0.07230666
 0.07168166 0.07114846 0.07093637 0.07061584 0.06971303 0.06866375 0.06875889 0.07072602 0.07372335 0.07620245
 0.07745899 0.07788739 0.07794333 0.07734668 0.07548743 0.0725721 0.070096 0.06973426 0.07171993 0.07469484
 0.07712041 0.07838634 0.07867059 0.07838069 0.07787512 0.07734915 0.07689761 0.07676236 0.0772673 0.07835034
 0.07946253 0.08011679 0.08028576 0.08015147 0.07975559 0.07907461 0.07827312 0.0777064 0.07766548 0.0781606
 0.07896282 0.07980706 0.08048402 0.08080451 0.08066927 0.08021407 0.079731 0.0794026 0.07923338 0.07923217
 0.07948129 0.07997434 0.08052698 0.08092754 0.0811078 0.0811274 0.0810556 0.08091666 0.08072397 0.08053574
 0.08046319 0.08058986 0.08086723 0.0811473 0.081358 0.08157547 0.08185961 0.08209972 0.08212798 0.08194304
 0.08172235 0.08162857 0.08167921 0.08179426 0.08188868 0.08188587 0.08170732 0.0813435 0.08094542 0.0807634
 0.08094701 0.08144309 0.08208838 0.08272091 0.08320131 0.08344743 0.08349901 0.08347443 0.08343334 0.08333728
 0.08315435 0.0829549 0.08288816 0.08307023 0.08347961 0.08396253 0.08435315 0.0845779 0.08465908 0.08468166
 0.08475807 0.08493985 0.08513986 0.08521491 0.08514529 0.08506773 0.08511143 0.08525229 0.08535326 0.08532484
 0.08522519 0.08519717 0.0853164 0.08552545 0.08572088 0.08587249 0.08603483 0.08625301 0.0864744 0.08657224
 0.08647805 0.08627421 0.0861125 0.08605433 0.08605226 0.0860794 0.08618812 0.08640755 0.08665168 0.08679108
 0.08679762 0.08676948 0.0868068 0.08689483 0.08693036 0.08684379 0.08666864 0.08650127 0.08642031 0.08644238
 0.08652405 0.08659273 0.08659083 0.08650991 0.08638833 0.08627406 0.08619118 0.08614947 0.08617958 0.08632533
 0.08657126 0.08679567 0.08684301 0.08666581 0.08638099 0.08616851 0.08611144 0.08613645 0.08610271 0.08593637
 0.08567755 0.08541796 0.08521813 0.08508235 0.08498466 0.08490419 0.08485118 0.08486875 0.08498675 0.08515319
 0.08523731 0.0851393 0.08489124 0.08462186 0.08443455 0.08434608 0.08431955 0.0843145 0.08431718 0.08435167
 0.0844429 0.08455288 0.08459362 0.08452748 0.08441697 0.08435835 0.0844063 0.08456376 0.08478069 0.08495057
 0.08497605 0.0848694 0.08474736 0.08471017 0.0847615 0.08485086 0.08494656 0.08504507 0.08514367 0.08523901
 0.08534712 0.08550119 0.08571959 0.08597793 0.08621602 0.08638009 0.08647065 0.08655321 0.08671278 0.08698559
 0.08733033 0.08766337 0.08792283 0.08810854 0.08826703 0.08843856 0.08862597 0.0888228 0.08905157 0.08934196
 0.08967789 0.09000412 0.09029005 0.09055714 0.09083819 0.09113517 0.09143081 0.0917298 0.09207273 0.09249411
 0.09295952 0.09336381 0.09361906 0.09374258 0.09384479 0.09403916 0.09436501 0.0947627 0.09510488 0.09529271
 0.09535748 0.09544076 0.09564234 0.09591888 0.09616963 0.09638894 0.09667441 0.09708736 0.09755747 0.09794728
 0.09818771 0.09833175 0.09848256 0.09868267 0.09888168 0.09901322 0.09908523 0.09916813 0.09930463 0.09947791
 0.09967972 0.09995462 0.1003351 0.1007687 0.1011559 0.1014429 0.1016436 0.1017917 0.1019074 0.1019961
 0.1020516 0.1020731 0.1020912 0.1021494 0.1022462 0.1023272 0.1023586 0.102376 0.1024421 0.1025838
 0.1027962 0.1030721 0.10339 0.103697 0.1039554 0.1042055 0.1045267 0.1049165 0.1052559 0.1054355
 0.1054772 0.1054857 0.1055155 0.1055521 0.1056046 0.1057343 0.105978 0.1063007 0.1066455 0.1069939
 0.1073541 0.1077171 0.1080416 0.1082733 0.1083792 0.1083751 0.1083275 0.1083227 0.1084263 0.1086561
 0.1089756 0.1093154 0.1096111 0.1098235 0.1099277 0.1099178 0.1098431 0.1098122 0.1099098 0.1101035
 0.1102592 0.1102541 0.1100537 0.1096845 0.1091744 0.1085462 0.107852 0.1071818 0.1066261 0.1062338
 0.1060164 0.1059892 0.106192 0.1066428 0.1072791 0.1079745 0.1086151 0.1091284 0.1094402 0.1094595
 0.1091469 0.1085704 0.1078622 0.1071373 0.1064606 0.105851 0.1052838 0.1047249 0.1042089 0.1038792
 0.1039227 0.1044594 0.1054831 0.1068671 0.1084014 0.1098587 0.1110845 0.1120563 0.112854 0.1135694
 0.1142471 0.1149033 0.1155586 0.1162208 0.1168548 0.1174089 0.1178739 0.1182884 0.1186878 0.1190716
 0.1194156 0.1196974 0.119919 0.1201172 0.1203286 0.1205303 0.1206445 0.1206262 0.1205176 0.1203947
 0.1202832 0.120142 0.1199093 0.1195531 0.1191084 0.1186981 0.1185125 0.1187286 0.1194096 0.120466
 0.121722 0.1230271 0.124295 0.1254516 0.1264008 0.1270794 0.1275194 0.1278234 0.1280887 0.1283663
 0.1286686 0.1289868 0.129303 0.1296021 0.1298794 0.1301464 0.1304303 0.1307528 0.1310964 0.1314079
 0.1316543 0.1318688 0.1321256 0.132467 0.1328615 0.1332394 0.1335697 0.1338857 0.1342233 0.1345555
 0.1348188 0.134998 0.1351517 0.1353547 0.1356423 0.136003 0.1363876 0.1367255 0.136968 0.137128
 0.1372652 0.1374311 0.1376395 0.1378816 0.1381442 0.1384128 0.1386758 0.1389377 0.1392202 0.1395319
 0.1398388 0.1400843 0.1402479 0.1403743 0.1405308 0.1407428 0.1409804 0.1412004 0.1413938 0.1415936
 0.1418408 0.1421378 0.1424372 0.1426809 0.1428522 0.142985 0.1431264 0.1432999 0.1435013 0.1437172
 0.1439364 0.1441481 0.1443452 0.144532 0.1447241 0.1449338 0.1451579 0.1453829 0.145598 0.1458026
 0.1460016 0.1461995 0.1464011 0.1466203 0.1468765 0.1471699 0.1474648 0.1477136 0.1478974 0.1480343
 0.1481565 0.1482884 0.148443 0.1486211 0.1488141 0.1490137 0.1492183 0.1494282 0.1496406 0.1498523
 0.1500635 0.1502737 0.1504795 0.1506793 0.1508815 0.1510997 0.1513385 0.1515821 0.1518062 0.1520008
 0.1521786 0.1523605 0.1525573 0.1527637 0.1529663 0.1531564 0.1533369 0.153516 0.1536985 0.1538848
 0.1540772 0.1542791 0.154489 0.1546985 0.1549005 0.155095 0.1552877 0.155483 0.1556806 0.1558777
 0.156072 0.1562599 0.1564402 0.1566197 0.1568108 0.1570179 0.1572324 0.1574449 0.1576536 0.1578606
 0.1580645 0.1582611 0.1584496 0.1586366 0.1588295 0.1590273 0.1592221 0.1594119 0.1596033 0.1598005
 0.1600001 0.1601994 0.1604017 0.1606106 0.1608263 0.1610451 0.1612624 0.1614749 0.1616836 0.161891
 0.1620998 0.1623132 0.1625333 0.1627563 0.1629758 0.1631909 0.1634064 0.1636246 0.1638416 0.164048
 0.1642331 0.164395 0.1645473 0.1647078 0.1648824 0.1650648 0.1652485 0.1654317 0.1656163 0.1658058
 0.166001 0.1661997 0.1664018 0.1666079 0.1668159 0.167024 0.1672354 0.1674491 0.1676546 0.1678453
 0.1680308 0.1682255 0.1684341 0.168651 0.1688666 0.1690733 0.1692711 0.1694673 0.1696683 0.1698761
 0.1700902 0.1703074 0.1705221 0.1707318 0.1709371 0.1711399 0.1713456 0.171561 0.1717827 0.1719997
 0.1722105 0.1724235 0.1726422 0.1728621 0.1730776 0.1732815 0.1734706 0.1736568 0.173859 0.1740795
 0.1743053 0.1745253 0.174735 0.1749356 0.1751388 0.1753564 0.1755829 0.1758045 0.1760181 0.1762282
 0.176438 0.1766514 0.1768648 0.1770542 0.1771719 0.1771132 0.1766161 0.1751543 0.1719248 0.1660027
 0.1566991 0.1439835 0.1286492 0.1120441 0.09557666 0.08033642 0.06697053 0.0557633 0.0467831 0.03997787
 0.03523006 0.03244106 0.03161904 0.03297804 0.03705664 0.04439939 0.05433092 0.06387284 0.06890529 0.0674183
 0.06143264 0.05516037 0.05151244 0.0506977 0.05147163 0.05276165 0.05422076 0.05604528 0.05857828 0.06191508
 0.06588557 0.07047614 0.0760331 0.0828149 0.09046306 0.09815685 0.10532 0.1120657 0.1189182 0.1261758
 0.1335993 0.1406532 0.1469346 0.1523665 0.1571101 0.1613868 0.1653614 0.1691227 0.1727178 0.1761436
 0.1792725 0.1818299 0.1835308 0.1842963 0.1843482 0.1840803 0.1838282 0.1837427 0.1838371 0.184089
 0.1844832 0.1850065 0.1856432 0.1863695 0.1871488 0.1879459 0.188741 0.1895202 0.1902656 0.1909652
 0.1916179 0.1922229 0.1927768 0.1932804 0.1937376 0.1941508 0.1945277 0.1948845 0.1952355 0.195585
 0.1959284 0.1962535 0.1965479 0.1968108 0.197053 0.1972852 0.1975119 0.1977358 0.197959 0.1981798
 0.1983963 0.1986065 0.1988068 0.1989979 0.1991904 0.1993965 0.1996152 0.1998346 0.2000423 0.2002313
 0.2004036 0.2005725 0.2007524 0.2009454 0.2011425 0.2013365 0.2015283 0.2017216 0.2019182 0.2021154
 0.2023098 0.2025028 0.2026996 0.2029029 0.2031112 0.2033247 0.2035429 0.2037594 0.2039696 0.2041797
 0.2043972 0.2046195 0.2048405 0.2050598 0.2052724 0.2054615 0.2056155 0.2057491 0.2058985 0.2060908
 0.2063194 0.2065531 0.2067693 0.2069729 0.2071779 0.2073856 0.207585 0.2077648 0.2079257 0.2080906
 0.2082932 0.2085427 0.2088121 0.2090709 0.2093121 0.2095402 0.2097609 0.2099851 0.2102147 0.2104227
 0.2105788 0.2106999 0.2108554 0.2111107 0.2114632 0.2118371 0.2121524 0.2123962 0.212614 0.2128518
 0.2131255 0.2134089 0.2136146 0.2136513 0.2135638 0.2135587 0.2138172 0.2143159 0.2148792 0.2153609
 0.2157292 0.2160226 0.2162798 0.2165 0.2166433 0.2166771 0.2166495 0.2167081 0.2169964 0.2175026
 0.2180537 0.2184879 0.2187834 0.2190002 0.2191833 0.2193498 0.2194601 0.2193766 0.2190068 0.2185532
 0.2184589 0.2189805 0.2199013 0.220765 0.2213245 0.2216621 0.221938 0.2221937 0.2224033 0.2224921
 0.2222201 0.2213262 0.2200279 0.2191589 0.2194727 0.2208792 0.22259 0.2239096 0.2246743 0.2250694
 0.2253165 0.2255273 0.2256241 0.2253558 0.2245814 0.2236343 0.2232326 0.2238182 0.2250597 0.2262039
 0.2268406 0.2271158 0.2273262 0.2275874 0.2277601 0.2274072 0.2260351 0.2238244 0.2220098 0.2220155
 0.2240586 0.2268854 0.2290123 0.2300028 0.2303584 0.2304306 0.2299119 0.2284051 0.2260268 0.2233532
 0.2212454 0.2207432 0.2223762 0.2252837 0.2276976 0.2286917 0.2289687 0.2296972 0.2311156 0.232536
 0.2332442 0.2330555 0.2321886 0.2308687 0.2292209 0.2276438 0.2270297 0.2281287 0.2306422 0.2333328
 0.2351677 0.2360983 0.2365277 0.2361104 0.2335027 0.2279747 0.2214425 0.2179474 0.2200897 0.2263062
 0.232547 0.2362595 0.2377944 0.2385097 0.2389542 0.2387065 0.2366184 0.2314442 0.2237947 0.2173672
 0.2164395 0.221633 0.2292108 0.2345735 0.2353939 0.2318532 0.2258101 0.2202506 0.2180659 0.2202969
 0.2256853 0.2319216 0.237029 0.2398956 0.2402567 0.2385966 0.2361238 0.2344778 0.2345343 0.2351067
 0.2338523 0.2302348 0.2264225 0.2241046 0.2218741 0.2178239 0.2137371 0.2139063 0.2195523 0.2267768
 0.2309473 0.2313966 0.2305637 0.2295558 0.2262443 0.2183199 0.2076547 0.2003736 0.2014957 0.2097272
 0.2186283 0.2229287 0.2227098 0.2214921 0.2215352 0.2215331 0.2184393 0.2114406 0.203978 0.2008636
 0.2031611 0.2072324 0.2090416 0.207367 0.2023806 0.1943662 0.1860549 0.1834483 0.1907493 0.2052155
 0.2193148 0.2269264 0.2255628 0.2150079 0.1982099 0.1831099 0.1787714 0.1872446 0.2010678 0.210137
 0.209717 0.2012576 0.1880815 0.1731419 0.1604161 0.1552961 0.1613531 0.1767287 0.194165 0.2045776
 0.2020614 0.1885201 0.1741457 0.170083 0.1782425 0.1899511 0.1956636 0.1936303 0.1885242 0.1854429
 0.1869826 0.1927705 0.199853 0.2054732 0.2092662 0.2101128 0.2031741 0.1857003 0.164704 0.1523394
 0.1532834 0.1623289 0.1741109 0.1879318 0.2014514 0.2073619 0.201629 0.1911367 0.1878383 0.1960648
 0.2088117 0.2163143 0.2157186 0.2116152 0.2089444 0.2077316 0.2055432 0.2031785 0.20487 0.2124448
 0.2221306 0.2287642 0.2311596 0.2316461 0.2321235 0.2326146 0.2325955 0.231876 0.2305291 0.2290039
 0.2279804 0.227604 0.2273553 0.2268384 0.2257441 0.2226356 0.2152598 0.2037092 0.192442 0.1867505
 0.1871452 0.1897092 0.1919241 0.1941371 0.1941216 0.1855536 0.1663676 0.1456054 0.1368369 0.1450471
 0.1629223 0.1791821 0.1872196 0.1856641 0.1750027 0.1577768 0.1412757 0.1352647 0.1440262 0.1622499
 0.1807035 0.1941874 0.2021465 0.2042695 0.1994902 0.1891099 0.1780666 0.1721179 0.1743277 0.1837127
 0.195579 0.2027389 0.1990202 0.1853943 0.1726915 0.1736199 0.1894399 0.2078816 0.2169424 0.2170399
 0.2161555 0.2174209 0.2175661 0.2156197 0.2163927 0.2238751 0.235366 0.2441407 0.2453539 0.2379418
 0.2239994 0.2092819 0.2017126 0.2049902 0.2143158 0.2215615 0.223113 0.2193882 0.2100425 0.1959923
 0.1845027 0.1848153 0.1974463 0.2129838 0.2227836 0.2268326 0.2298289 0.2330815 0.2329229 0.2262747
 0.2158121 0.2083282 0.2080214 0.2128153 0.2178594 0.220642 0.2210246 0.2183429 0.2118206 0.2038488
 0.2000138 0.2042328 0.2146674 0.2254114 0.2317528 0.2331126 0.2316432 0.2294367 0.2271255 0.2240748
 0.2197859 0.2156933 0.2148778 0.2187854 0.2249314 0.2294532 0.231529 0.2336537 0.2377203 0.2424173
 0.2448279 0.2436116 0.2402771 0.2378628 0.238496 0.2417044 0.2447701 0.2450505 0.2424912 0.2399109
 0.2404043 0.2443917 0.2495593 0.2534912 0.2556386 0.2568267 0.2578405 0.258737 0.2588023 0.2570933
 0.2537696 0.2508689 0.2508582 0.2541837 0.2588479 0.2624821 0.2642672 0.2647849 0.2646959 0.264048
 0.2626807 0.2608686 0.2593345 0.2586738 0.2589258 0.2597214 0.2606713 0.2615366 0.262201 0.2626483
 0.2629356 0.2631181 0.2632259 0.2633061 0.2633979 0.263452 0.2633793 0.263218 0.2631575 0.2633304
 0.2636499 0.2639098 0.2639751 0.2637922 0.2632815 0.2623612 0.2610786 0.2596005 0.2580297 0.256338
 0.2545871 0.2531765 0.2527303 0.2536289 0.255651 0.2581056 0.2603056 0.2619113 0.262915 0.2634519
 0.2636774 0.2637325 0.2637138 0.2636495 0.2635233 0.2633215 0.2630496 0.2627171 0.2623335 0.2619256
 0.261544 0.2612305 0.260977 0.2607263 0.260413 0.2600017 0.2594994 0.2589437 0.2583731 0.2577865
 0.2571371 0.2563771 0.2555041 0.2545635 0.2536213 0.2527371 0.2519361 0.2511896 0.2504354 0.249623
 0.248724 0.2477129 0.2465877 0.2454253 0.2443672 0.2435111 0.2428277 0.2422027 0.2415356 0.2407796
 0.2399183 0.2389524 0.2379076 0.2368252 0.2357338 0.2346336 0.233496 0.2322757 0.2309394 0.2294917
 0.227964 0.2263831 0.2247659 0.2231272 0.2214604 0.2197014 0.2177308 0.2154129 0.2126306 0.2092976
 0.2053762 0.2009147 0.1960722 0.1910861 0.1861843 0.1815223 0.1772002 0.1733128 0.1699575 0.1672076
 0.1651086 0.1636949 0.1629937 0.1630133 0.1637357 0.1651139 0.16707 0.169498 0.1722684 0.1752302
 0.1782143 0.1810583 0.183656 0.1860058 0.1881928 0.1902949 0.1923033 0.194147 0.1957769 0.1971965
 0.1984233 0.1994581 0.2002998 0.2009713 0.2015189 0.2019884 0.2024045 0.2027734 0.2030975 0.2033807
 0.2036255 0.2038386 0.2040346 0.2042269 0.2044216 0.2046276 0.2048651 0.2051608 0.2055375 0.2059993
 0.2065196 0.2070571 0.207596 0.208156 0.2087586 0.2094079 0.2101157 0.2109248 0.2118868 0.2130209
 0.2143005 0.2156695 0.2170624 0.2184073 0.2196252 0.2206409 0.2214059 0.2219108 0.2221826 0.2222684
 0.2222115 0.2220316 0.2217308 0.2213209 0.2208348 0.2203079 0.2197573 0.2191794 0.2185626 0.2178994
 0.2171941 0.2164652 0.2157391 0.2150358 0.214358 0.2136982 0.2130552 0.2124351 0.2118368 0.2112481
 0.2106604 0.210077 0.2095052 0.2089452 0.2083869 0.2078077 0.2071747 0.2064581 0.2056435 0.2047317
 0.203726 0.2026267 0.2014348 0.2001544 0.1987925 0.1973554 0.195848 0.1942716 0.1926232 0.1908965
 0.189082 0.1871706 0.1851716 0.1831368 0.1811545 0.1793041 0.1776115 0.1760455 0.1745541 0.1731105
 0.1717281 0.1704305 0.1692132 0.1680535 0.1669457 0.1659042 0.1649324 0.1640128 0.1631331 0.1623062
 0.161562 0.1609202 0.1603733 0.1598959 0.1594703 0.1591017 0.1588156 0.158646 0.158608 0.1586642
 0.158734 0.1587496 0.1586952 0.1585923 0.1584701 0.158353 0.1582566 0.1581848 0.1581291 0.1580591
 0.157915 0.1576171 0.1570823 0.1562367 0.155042 0.1535238 0.1517653 0.149882 0.14801 0.146288
 0.1448207 0.1436613 0.1428151 0.1422288 0.1417947 0.1414165 0.1410789 0.1408451 0.140797 0.140957
 0.1412283 0.1414415 0.1415108 0.1415252 0.1416597 0.14203 0.1426378 0.143394 0.1441701 0.1448616
 0.1454175 0.1458191 0.1460699 0.146203 0.1462481 0.146202 0.1460642 0.1458678 0.1456395 0.1453682
 0.1450264 0.1445892 0.1440433 0.1434089 0.1427214 0.1419855 0.1411889 0.1403329 0.1393889 0.1382921
 0.1370749 0.1359569 0.1352279 0.1350695 0.1354809 0.1362971 0.1372961 0.1383399 0.1393537 0.1401581
 0.1405228 0.1405311 0.1407467 0.1418089 0.1438281 0.1462583 0.1483737 0.1497934 0.1505244 0.1506681
 0.1502752 0.1493908 0.1480287 0.1461408 0.1437444 0.1409909 0.1380403 0.1350171 0.1321057 0.1295048
 0.1273025 0.1255047 0.1240976 0.1231084 0.1226685 0.1224321 0.120537 0.1145637 0.1052744 0.09830105
 0.09940806 0.1080154 0.1176075 0.1226144 0.1228327 0.1211797 0.1196989 0.1187243 0.118168 0.1181689
 0.1188394 0.1200238 0.1213398 0.1224038 0.1230619 0.1233544 0.1232417 0.1223637 0.1199745 0.1152081
 0.107778 0.09856893 0.08933309 0.08167646 0.07633634 0.07318899 0.07160331 0.0708141 0.07029805 0.07001333
 0.07027587 0.07137442 0.07332389 0.07596005 0.07911855 0.08258182 0.08594678 0.08878369 0.09096783 0.09269326
 0.09412891 0.09520603 0.09576917 0.09579547 0.09540881 0.09476936 0.09400462 0.09318331 0.09227901 0.091193
 0.08991577 0.08866951 0.08777595 0.0873538 0.08724688 0.08725148 0.0872851 0.0873293 0.08735193 0.08732891
 0.0872709 0.08722831 0.08729976 0.08757718 0.08803594 0.08852166 0.08887699 0.08906708 0.08917047 0.08922212
 0.08907115 0.08851859 0.08766083 0.08689889 0.08642902 0.08591362 0.08491947 0.08356805 0.08248004 0.08210663
 0.08232553 0.08267891 0.08281082 0.08265009 0.08236985 0.08228294 0.08262739 0.08328588 0.08379352 0.08377135
</values></Ydata></ScRf><Data_Parameters_AB><parameter name="DPF">1</parameter><parameter name="NPT">3497</parameter><parameter name="FXV">3996</parameter><parameter name="LXV">500</parameter><parameter name="CSF">1</parameter><parameter name="MXY">0.030739126726985</parameter><parameter name="MNY">-0.0756440609693527</parameter><parameter name="DAT">30/05/2022</parameter><parameter name="TIM">12:11:47.598 (GMT+2)</parameter><parameter name="DXU">WN</parameter></Data_Parameters_AB><AB__Qtest><MainReport name="Quality Test Report"><Header><Line><Legend>Test result ok/not ok [1/0]: </Legend><Value>0</Value></Line><Line><Legend>Method file: </Legend><Value>C:\Users\Public\Documents\Bruker\OPUS_8.2.28\QT\IRBT_v3_default.QT</Value></Line></Header><Matrix><Line><Legend></Legend><Legend>min</Legend><Legend>max</Legend><Legend>measured</Legend></Line><Line><Value>Absorption (X-Range 1):</Value><Value>0.400000</Value><Value>2.000000</Value><Value>0.081635</Value></Line><Line><Value>Noise (X-Range 4):</Value><Value></Value><Value>0.000300</Value><Value>0.000041</Value></Line><Line><Value>Signal/Noise (X-Range 2):</Value><Value>200.000000</Value><Value></Value><Value>37.976490</Value></Line><Line><Value>Signal/Noise (X-Range 3):</Value><Value>40.000000</Value><Value></Value><Value>16.754237</Value></Line><Line><Value>Water vapour (X-Range 5):</Value><Value></Value><Value>0.000300</Value><Value>0.000027</Value></Line><Line><Value>Signal/Water (X-Range 2):</Value><Value>100.000000</Value><Value></Value><Value>58.448912</Value></Line><Line><Value>Signal/Water (X-Range 3):</Value><Value>20.000000</Value><Value></Value><Value>25.786135</Value></Line><Line><Value>Fringes (X-Range 6):</Value><Value></Value><Value>0.000100</Value><Value>0.000065</Value></Line></Matrix></MainReport></AB__Qtest><Data_Parameters_ScSm><parameter name="DPF">1</parameter><parameter name="NPT">1814</parameter><parameter name="FXV">3996.33169228125</parameter><parameter name="LXV">499.541461535156</parameter><parameter name="CSF">1</parameter><parameter name="MXY">0.276458621025085</parameter><parameter name="MNY">0.0374912731349468</parameter><parameter name="DAT">30/05/2022</parameter><parameter name="TIM">12:11:47.598 (GMT+2)</parameter><parameter name="DXU">WN</parameter></Data_Parameters_ScSm><Data_Parameters_ScRf><parameter name="DPF">1</parameter><parameter name="NPT">1820</parameter><parameter name="FXV">4004.04661832813</parameter><parameter name="LXV">495.683998511719</parameter><parameter name="CSF">1</parameter><parameter name="MXY">0.264784932136536</parameter><parameter name="MNY">0.0316190384328365</parameter><parameter name="DAT">30/05/2022</parameter><parameter name="TIM">12:11:21.075 (GMT+2)</parameter><parameter name="DXU">WN</parameter></Data_Parameters_ScRf><Optic_Parameters_Rf><parameter name="APR">0</parameter><parameter name="APT">Open</parameter><parameter name="BMS">KBr</parameter><parameter name="DTC">RT-DLaTGS_IR-Biotyper [Microplate reader]</parameter><parameter name="HPF">0</parameter><parameter name="LPF">10.0</parameter><parameter name="LPV">4000</parameter><parameter name="PGR">0</parameter><parameter name="RCH">Module port</parameter><parameter name="RDX">0</parameter><parameter name="SRC">MIR</parameter><parameter name="VEL">10.0</parameter><parameter name="SON">Off</parameter></Optic_Parameters_Rf><Acquisition_Parameters_Rf><parameter name="ADT">1</parameter><parameter name="AQM">DD</parameter><parameter name="CFE">0</parameter><parameter name="COR">0</parameter><parameter name="DEL">0</parameter><parameter name="DLY">0</parameter><parameter name="HFW">8000</parameter><parameter name="LFW">0</parameter><parameter name="NSR">32</parameter><parameter name="PLF">AB</parameter><parameter name="RES">6</parameter><parameter name="RGN">-1</parameter><parameter name="STR">0</parameter><parameter name="TCL">MakeCompatibleScalar (0, {WSV=1.000000, ARV=0});</parameter><parameter name="TDL">37</parameter><parameter name="RPO">0</parameter></Acquisition_Parameters_Rf><FT_-_Parameters_Rf><parameter name="APF">B3</parameter><parameter name="HFQ">500</parameter><parameter name="LFQ">4000</parameter><parameter name="NLI">0</parameter><parameter name="PHR">24</parameter><parameter name="PHZ">ML</parameter><parameter name="SPZ">NO</parameter><parameter name="ZFF">1</parameter></FT_-_Parameters_Rf><Optic_Parameters_><parameter name="APR">0</parameter><parameter name="APT">Open</parameter><parameter name="BMS">KBr</parameter><parameter name="CHN">Module port</parameter><parameter name="DTC">RT-DLaTGS_IR-Biotyper [Microplate reader]</parameter><parameter name="HPF">0</parameter><parameter name="LPF">10.0</parameter><parameter name="LPV">4000</parameter><parameter name="PGN">0</parameter><parameter name="RDX">0</parameter><parameter name="SRC">MIR</parameter><parameter name="VEL">10.0</parameter><parameter name="SON">Off</parameter></Optic_Parameters_><FT_-_Parameters_><parameter name="APF">B3</parameter><parameter name="HFQ">500</parameter><parameter name="LFQ">4000</parameter><parameter name="NLI">0</parameter><parameter name="PHR">24</parameter><parameter name="PHZ">ML</parameter><parameter name="SPZ">NO</parameter><parameter name="ZFF">1</parameter></FT_-_Parameters_><Acquisition_Parameters_><parameter name="ADT">1</parameter><parameter name="AQM">DD</parameter><parameter name="CFE">0</parameter><parameter name="COR">0</parameter><parameter name="DEL">0</parameter><parameter name="DLY">0</parameter><parameter name="HFW">8000</parameter><parameter name="LFW">0</parameter><parameter name="NSS">32</parameter><parameter name="PLF">AB</parameter><parameter name="RES">6</parameter><parameter name="SOT">0</parameter><parameter name="TCL">MakeCompatibleScalar (0, {WSV=1.000000, ARV=0});</parameter><parameter name="TDL">37</parameter><parameter name="SPO">0</parameter><parameter name="SGN">-1</parameter></Acquisition_Parameters_><Instrument_Parameters_Rf><parameter name="HFL">15800.168544</parameter><parameter name="LFL">0</parameter><parameter name="LWN">15800.168544</parameter><parameter name="ABP">32197</parameter><parameter name="SSP">1</parameter><parameter name="ARG">2</parameter><parameter name="ASG">2</parameter><parameter name="ASS">32</parameter><parameter name="GFW">16</parameter><parameter name="GBW">16</parameter><parameter name="BFW">0</parameter><parameter name="BBW">0</parameter><parameter name="PKA">7284</parameter><parameter name="PKL">4996</parameter><parameter name="PRA">7459</parameter><parameter name="PRL">5001</parameter><parameter name="P2A">1</parameter><parameter name="P2L">1</parameter><parameter name="P2R">1</parameter><parameter name="P2K">1</parameter><parameter name="DAQ">0</parameter><parameter name="AG2">1</parameter><parameter name="SSM">1</parameter><parameter name="RSN">25304</parameter><parameter name="CRR">0</parameter><parameter name="SRT">1653912681.075</parameter><parameter name="DUR">19.6379852294922</parameter><parameter name="TSC">28.2</parameter><parameter name="MVD">0.333844840526581</parameter><parameter name="AN1">0.225812708306192</parameter><parameter name="AN2">0</parameter><parameter name="VSN">2.485 Apr  4 2017</parameter><parameter name="SRN">0085</parameter><parameter name="CAM">0</parameter><parameter name="INS">IR-Biotyper</parameter><parameter name="FOC">69</parameter><parameter name="RDY">1</parameter><parameter name="ARS">32</parameter></Instrument_Parameters_Rf><Sample_Parameters_><parameter name="BLD"></parameter><parameter name="CNM">Admin</parameter><parameter name="CPY"></parameter><parameter name="DPM"></parameter><parameter name="EXP">IRBT_v3_32Scans.XPM</parameter><parameter name="LCT"></parameter><parameter name="SFM">Microplate, HTS-XT</parameter><parameter name="SNM">220530-1021_AML29F (D_2)_C10_cb163796-4a52-4f22-8ef5-2856e45333b4.0</parameter><parameter name="XPP">C:\Users\Public\Documents\Bruker\OPUS_8.2.28\XPM</parameter><parameter name="IST">OK</parameter><parameter name="CPG">1252</parameter><parameter name="UID">bb6eb1d4-4f05-423d-a1ac-16fb92a519d7</parameter></Sample_Parameters_><Instrument_Parameters_><parameter name="HFL">15800.168544</parameter><parameter name="LFL">0</parameter><parameter name="LWN">15800.168544</parameter><parameter name="ABP">32197</parameter><parameter name="SSP">1</parameter><parameter name="ASG">2</parameter><parameter name="ARG">2</parameter><parameter name="ASS">32</parameter><parameter name="GFW">16</parameter><parameter name="GBW">16</parameter><parameter name="BFW">0</parameter><parameter name="BBW">0</parameter><parameter name="PKA">7933</parameter><parameter name="PKL">4988</parameter><parameter name="PRA">8202</parameter><parameter name="PRL">4993</parameter><parameter name="P2A">1</parameter><parameter name="P2L">1</parameter><parameter name="P2R">1</parameter><parameter name="P2K">1</parameter><parameter name="DAQ">0</parameter><parameter name="AG2">1</parameter><parameter name="SSM">1</parameter><parameter name="RSN">13278</parameter><parameter name="CRR">0</parameter><parameter name="SRT">1653912707.599</parameter><parameter name="DUR">19.6379852294922</parameter><parameter name="TSC">28.2</parameter><parameter name="MVD">0.300566643476486</parameter><parameter name="AN1">0.225789236888915</parameter><parameter name="AN2">0</parameter><parameter name="VSN">2.485 Apr  4 2017</parameter><parameter name="SRN">0085</parameter><parameter name="CAM">0</parameter><parameter name="INS">IR-Biotyper</parameter><parameter name="FOC">69</parameter><parameter name="RDY">1</parameter></Instrument_Parameters_><History/></OPUSDataFile>
