<?xml version="1.0" encoding="UTF-8" ?>
<OPUSDataFile><AB><Ydata ylabel="Absorbance Units"><values byteorder="INTEL" format="FLOAT32" numvalues="3497"> -0.06161062 -0.06162238 -0.06163888 -0.0616609 -0.06167638 -0.06168469 -0.06167855 -0.06165876 -0.06163261 -0.06160261
 -0.06158772 -0.06158788 -0.06161494 -0.06166282 -0.06172406 -0.06179134 -0.06184839 -0.06189448 -0.06192188 -0.06193403
 -0.06193154 -0.06191604 -0.06188755 -0.06185088 -0.06180503 -0.06176605 -0.06173661 -0.06173408 -0.06176319 -0.06182183
 -0.06191182 -0.06200575 -0.0621022 -0.06216849 -0.06220452 -0.0621991 -0.06215635 -0.0620945 -0.06201755 -0.06195065
 -0.06189158 -0.06184852 -0.06181538 -0.0617843 -0.06175536 -0.06172391 -0.06169643 -0.06167785 -0.06166838 -0.0616721
 -0.0616777 -0.06168199 -0.0616763 -0.06165587 -0.06162777 -0.06159131 -0.06156213 -0.06154187 -0.06153841 -0.06155228
 -0.06157945 -0.06161922 -0.06166128 -0.06170528 -0.06174358 -0.06177721 -0.06180585 -0.06183052 -0.06185391 -0.06187543
 -0.06189545 -0.06191275 -0.06192604 -0.06193459 -0.06193796 -0.06193399 -0.06192198 -0.06189828 -0.06186023 -0.06181072
 -0.06174768 -0.06168672 -0.06162885 -0.06159507 -0.06158769 -0.06161894 -0.06168967 -0.0617959 -0.06193626 -0.0620922
 -0.06226041 -0.0624121 -0.06254369 -0.06262489 -0.06265869 -0.06263336 -0.06256286 -0.06246372 -0.0623506 -0.06224803
 -0.06216069 -0.06210227 -0.06206596 -0.06205269 -0.06205184 -0.06205863 -0.06207084 -0.06208674 -0.06210821 -0.06213691
 -0.06216191 -0.06218303 -0.06218035 -0.06215261 -0.06209959 -0.06202328 -0.06195305 -0.06189149 -0.06187094 -0.06188861
 -0.06195382 -0.06205707 -0.06218177 -0.06231612 -0.06243167 -0.06252528 -0.0625798 -0.06260353 -0.06259865 -0.0625691
 -0.06251778 -0.06244604 -0.06234979 -0.06225308 -0.06215656 -0.06210428 -0.06210421 -0.06218288 -0.06234774 -0.06256438
 -0.06283198 -0.06302202 -0.06313049 -0.06306416 -0.06284527 -0.06257407 -0.06226727 -0.06204588 -0.06189761 -0.06185433
 -0.06189417 -0.06199948 -0.06213994 -0.06227557 -0.06237849 -0.06240555 -0.06236755 -0.06224733 -0.06210365 -0.06195476
 -0.06184467 -0.06179539 -0.06179029 -0.06183279 -0.06188178 -0.06193267 -0.06196612 -0.06198054 -0.06198299 -0.06197402
 -0.06196376 -0.06195169 -0.06193875 -0.06192474 -0.06190911 -0.06189278 -0.06187871 -0.06186541 -0.06185187 -0.06183589
 -0.0618131 -0.06178638 -0.06175527 -0.06172701 -0.06170502 -0.06169621 -0.06170383 -0.0617327 -0.06178569 -0.06186001
 -0.06195768 -0.06206057 -0.06216823 -0.06225123 -0.06230776 -0.06231628 -0.06227705 -0.06219193 -0.06206407 -0.06191409
 -0.06174626 -0.06158721 -0.06144053 -0.06132991 -0.0612534 -0.06122094 -0.06122211 -0.06124954 -0.06129101 -0.06133249
 -0.06137151 -0.06140135 -0.06142842 -0.06145465 -0.0614813 -0.06151044 -0.06153456 -0.06155228 -0.06156088 -0.06155926
 -0.06155508 -0.06154878 -0.06154712 -0.0615499 -0.06155381 -0.06155774 -0.06155165 -0.06153655 -0.0615096 -0.0614754
 -0.06144426 -0.06141973 -0.06141407 -0.06142483 -0.06145485 -0.06149812 -0.0615491 -0.06160815 -0.06167183 -0.06174945
 -0.06184497 -0.06196073 -0.0621022 -0.06224751 -0.06239617 -0.06251303 -0.0625938 -0.06262069 -0.06259218 -0.06250598
 -0.06236298 -0.06217565 -0.06194956 -0.06172853 -0.06151833 -0.06136744 -0.06127283 -0.06125519 -0.06129932 -0.06139283
 -0.06150934 -0.06160818 -0.06168193 -0.06170241 -0.06169731 -0.06167566 -0.06165768 -0.06165894 -0.06166698 -0.0616845
 -0.0616822 -0.06165387 -0.06158895 -0.06148309 -0.06136195 -0.06122663 -0.0611136 -0.06102394 -0.06097689 -0.06097089
 -0.06100629 -0.06107805 -0.06116863 -0.06126929 -0.06134641 -0.06139944 -0.06140734 -0.06138572 -0.06134701 -0.06130012
 -0.06126104 -0.06122028 -0.06117769 -0.06112057 -0.06103995 -0.060944 -0.06082968 -0.06072417 -0.06063261 -0.06056954
 -0.06053933 -0.0605244 -0.06052439 -0.06049988 -0.06044989 -0.0603539 -0.06021782 -0.06007487 -0.05993076 -0.0598296
 -0.0597655 -0.05974494 -0.05976095 -0.05980349 -0.05986902 -0.0599516 -0.06004202 -0.06013336 -0.06020942 -0.06025739
 -0.06027196 -0.06024541 -0.06018821 -0.06010287 -0.05999223 -0.05985784 -0.05969581 -0.05950514 -0.05929155 -0.05905517
 -0.05880699 -0.05854782 -0.05829146 -0.05804021 -0.05781748 -0.05762536 -0.05748764 -0.05739897 -0.0573597 -0.057358
 -0.05737148 -0.05739424 -0.0574096 -0.05741609 -0.05741065 -0.05738103 -0.05731912 -0.0572164 -0.05706116 -0.05687683
 -0.05666578 -0.05645673 -0.0562568 -0.05607384 -0.05591027 -0.05576057 -0.05562456 -0.05549657 -0.05537685 -0.05527107
 -0.05518042 -0.05511901 -0.0550832 -0.05507043 -0.05506521 -0.05502353 -0.05493519 -0.05474904 -0.05449452 -0.0541846
 -0.05385891 -0.05356291 -0.05330332 -0.05310104 -0.05293917 -0.05281788 -0.05271205 -0.05261456 -0.05250878 -0.05238901
 -0.05225701 -0.05211239 -0.05195815 -0.05179496 -0.0516077 -0.05139553 -0.05113992 -0.0508435 -0.05051666 -0.05016597
 -0.04982569 -0.04949851 -0.04921029 -0.04895809 -0.04874959 -0.04857774 -0.04843871 -0.04832008 -0.04821004 -0.04809805
 -0.04797238 -0.0478347 -0.04768317 -0.0475204 -0.04735016 -0.04715657 -0.04693764 -0.04667724 -0.04636993 -0.04604115
 -0.04569139 -0.04537343 -0.04508884 -0.04486132 -0.04468732 -0.04455091 -0.04444653 -0.0443416 -0.04423403 -0.04409876
 -0.04394273 -0.04376545 -0.04357904 -0.04340204 -0.04323453 -0.04308934 -0.04294324 -0.04278693 -0.04259688 -0.04235298
 -0.04207477 -0.04175891 -0.04144995 -0.04115809 -0.04089916 -0.0406784 -0.04047963 -0.04030229 -0.04012662 -0.03995203
 -0.03977143 -0.03958518 -0.03939362 -0.03919594 -0.03898883 -0.03877094 -0.03853533 -0.0382845 -0.03801729 -0.03774348
 -0.03747477 -0.03722112 -0.03699893 -0.0368036 -0.03664063 -0.03649082 -0.03634686 -0.036196 -0.03602968 -0.03585857
 -0.03568206 -0.0355196 -0.03537522 -0.03524479 -0.03512916 -0.03499643 -0.0348453 -0.03465293 -0.03442266 -0.03417138
 -0.03390514 -0.03366226 -0.03344065 -0.03325714 -0.03309952 -0.03295175 -0.03280457 -0.03263533 -0.03245008 -0.03224378
 -0.03203234 -0.03182631 -0.03163048 -0.03145333 -0.03127969 -0.03110733 -0.03092085 -0.03071429 -0.03049541 -0.03026328
 -0.0300381 -0.02982169 -0.02961724 -0.0294244 -0.02922796 -0.0290281 -0.02881861 -0.02860311 -0.02839575 -0.02819764
 -0.02802178 -0.02786143 -0.02770979 -0.02755981 -0.02739609 -0.02722323 -0.02703811 -0.02685243 -0.02667551 -0.02650611
 -0.02634931 -0.02618798 -0.02601664 -0.025829 -0.02561928 -0.02540929 -0.02520048 -0.02501702 -0.02486177 -0.02472635
 -0.02460963 -0.02447769 -0.0243304 -0.02415 -0.02394275 -0.02372796 -0.02351199 -0.02332619 -0.02316633 -0.02304157
 -0.02293859 -0.02284231 -0.02274404 -0.02262738 -0.02249699 -0.02234988 -0.02219592 -0.02203928 -0.02188501 -0.02173574
 -0.02159281 -0.02145701 -0.02132813 -0.02120676 -0.02108736 -0.02096974 -0.02084539 -0.020714 -0.02057258 -0.02042141
 -0.02026235 -0.02009479 -0.01991626 -0.0197267 -0.01952266 -0.01930896 -0.01909225 -0.01888031 -0.01868779 -0.01851681
 -0.01837665 -0.01826072 -0.01816819 -0.01809047 -0.01802325 -0.01796187 -0.0179047 -0.01784621 -0.01778621 -0.01771343
 -0.01762641 -0.01751656 -0.01738247 -0.01723294 -0.01706869 -0.01691109 -0.01676025 -0.01662661 -0.01650735 -0.01639383
 -0.01628477 -0.0161705 -0.01605452 -0.01594023 -0.01582874 -0.01572631 -0.01562358 -0.01551491 -0.01538877 -0.01523167
 -0.01505119 -0.01484182 -0.01463471 -0.01443789 -0.01427687 -0.01416259 -0.01408243 -0.01403894 -0.01399156 -0.01393684
 -0.01385443 -0.01374421 -0.01363089 -0.01351701 -0.01343898 -0.01339322 -0.0133834 -0.0134003 -0.0134166 -0.0134287
 -0.01341333 -0.01337803 -0.01332272 -0.01325797 -0.01319635 -0.01313814 -0.01309087 -0.01304004 -0.01298274 -0.01289971
 -0.01278239 -0.01262725 -0.01242787 -0.01221085 -0.01197621 -0.01177023 -0.0115967 -0.0114876 -0.01144375 -0.01145389
 -0.01151397 -0.01157954 -0.01164924 -0.01169058 -0.01171048 -0.01171411 -0.01170641 -0.01170407 -0.01169858 -0.01168524
 -0.0116545 -0.01158945 -0.01150223 -0.01139167 -0.01128442 -0.0111952 -0.01113201 -0.01110528 -0.01109313 -0.0110938
 -0.01108208 -0.01105262 -0.01100447 -0.0109362 -0.01086814 -0.01080132 -0.0107561 -0.01073222 -0.01073584 -0.01076396
 -0.01080601 -0.01085738 -0.01089832 -0.01092593 -0.0109228 -0.01089297 -0.01083155 -0.0107529 -0.01066757 -0.0105935
 -0.01054817 -0.01053616 -0.01056872 -0.01062677 -0.0107096 -0.01078663 -0.01085134 -0.01088222 -0.01087489 -0.01082201
 -0.01072243 -0.0105753 -0.0103807 -0.01014558 -0.009872521 -0.009588294 -0.009299073 -0.009050856 -0.008846937 -0.008726025
 -0.008678172 -0.008706217 -0.008786094 -0.008884782 -0.008980945 -0.009036087 -0.009053231 -0.009016572 -0.008955292 -0.008877062
 -0.008813987 -0.008779828 -0.008786728 -0.008842478 -0.008934636 -0.009064159 -0.009205137 -0.009355713 -0.00949261 -0.009614765
 -0.0097149 -0.009794054 -0.009860636 -0.009915675 -0.00996997 -0.01002123 -0.01006842 -0.01010735 -0.01012615 -0.01012805
 -0.01010762 -0.01008363 -0.01007053 -0.01009208 -0.01017341 -0.01031565 -0.01053275 -0.01079274 -0.01109084 -0.01138835
 -0.01167438 -0.01193349 -0.01216108 -0.01235887 -0.01252667 -0.01266502 -0.01277407 -0.01286167 -0.01292988 -0.01300472
 -0.01308699 -0.01319756 -0.01332953 -0.01347155 -0.01361649 -0.01373878 -0.01384654 -0.01393746 -0.01403066 -0.01414832
 -0.01429482 -0.01448763 -0.01470041 -0.01492953 -0.01513438 -0.01529876 -0.01540426 -0.01543802 -0.01542742 -0.0153705
 -0.01532708 -0.01530201 -0.01534217 -0.01544972 -0.0156214 -0.01585333 -0.01610148 -0.01636221 -0.01659224 -0.01679378
 -0.0169503 -0.01706815 -0.01715221 -0.01721004 -0.01725416 -0.01729256 -0.01733845 -0.01739596 -0.01747397 -0.01756744
 -0.0176773 -0.01779387 -0.01791386 -0.01803158 -0.01814483 -0.01825269 -0.01835478 -0.01845044 -0.01853946 -0.01862317
 -0.01870166 -0.01878151 -0.01886303 -0.01895271 -0.01904957 -0.01915174 -0.01925775 -0.019361 -0.01946223 -0.01955932
 -0.01965491 -0.01975262 -0.01985323 -0.01995941 -0.02006974 -0.02018398 -0.02030084 -0.02041973 -0.02053938 -0.02065964
 -0.02077781 -0.02089308 -0.02100453 -0.02111145 -0.02121742 -0.02132264 -0.02143058 -0.02154141 -0.02165319 -0.02176568
 -0.02187522 -0.02198223 -0.02208708 -0.02219042 -0.02229498 -0.02240042 -0.02250759 -0.02261524 -0.02272169 -0.02282619
 -0.02292717 -0.0230247 -0.023119 -0.02320803 -0.02329249 -0.0233641 -0.02342042 -0.02345375 -0.02345885 -0.02344847
 -0.0234205 -0.02341351 -0.02343051 -0.02350555 -0.02364041 -0.02382823 -0.02406534 -0.02430555 -0.02454453 -0.02473249
 -0.02487185 -0.02494093 -0.02495255 -0.02492151 -0.02486806 -0.02483125 -0.02482275 -0.02487692 -0.02497652 -0.02512565
 -0.0252861 -0.02543646 -0.02556085 -0.02564186 -0.02570722 -0.02575955 -0.02582787 -0.0259215 -0.02602169 -0.02612967
 -0.0261947 -0.02621413 -0.0261647 -0.02604963 -0.02590207 -0.02572973 -0.02559494 -0.02549995 -0.02548974 -0.02555255
 -0.02568792 -0.02587287 -0.02607026 -0.02626453 -0.02641918 -0.02654303 -0.02662832 -0.02669573 -0.02675684 -0.02681588
 -0.02687914 -0.02693616 -0.02698313 -0.02702571 -0.02706217 -0.02711579 -0.02718959 -0.02728636 -0.02740637 -0.02751654
 -0.02761516 -0.02767005 -0.02768464 -0.02766188 -0.02760836 -0.02755008 -0.02748846 -0.02744072 -0.02740292 -0.02737558
 -0.02735672 -0.02734216 -0.02733755 -0.02734363 -0.02737294 -0.02743229 -0.02753038 -0.02767568 -0.02785535 -0.02807272
 -0.02828846 -0.02849816 -0.02866265 -0.02877608 -0.02883659 -0.02884372 -0.02883722 -0.02881958 -0.02883464 -0.02888045
 -0.02896913 -0.02909349 -0.02923462 -0.02938639 -0.02952379 -0.02964717 -0.02974453 -0.0298223 -0.02988222 -0.02993296
 -0.0299821 -0.03003464 -0.03009679 -0.03016486 -0.03024063 -0.0303123 -0.03037743 -0.0304265 -0.03045611 -0.03047249
 -0.03047469 -0.03048614 -0.03050812 -0.03056042 -0.03064219 -0.03074628 -0.03086892 -0.0309819 -0.03108572 -0.03116447
 -0.03122688 -0.03128618 -0.03134931 -0.03143726 -0.03154314 -0.0316698 -0.03180179 -0.03192731 -0.03203706 -0.03212197
 -0.03218121 -0.03221302 -0.03221607 -0.03218979 -0.03213274 -0.03204319 -0.03193095 -0.03179543 -0.03166322 -0.03153576
 -0.03144633 -0.03139586 -0.0314051 -0.03147119 -0.03158876 -0.03175063 -0.03192866 -0.0321156 -0.0322794 -0.03241781
 -0.03251181 -0.03256464 -0.03257214 -0.03253991 -0.0324708 -0.03236992 -0.03223995 -0.03208718 -0.0319129 -0.03172817
 -0.03153491 -0.03134678 -0.03116706 -0.03099916 -0.03084529 -0.03068618 -0.03052098 -0.03031387 -0.03006355 -0.02974295
 -0.02935515 -0.02890405 -0.02839738 -0.02786576 -0.0273149 -0.02677597 -0.0262462 -0.02573634 -0.0252379 -0.02474451
 -0.02425104 -0.02375063 -0.02324273 -0.02272706 -0.02219721 -0.021653 -0.02107945 -0.02047136 -0.01982538 -0.01913664
 -0.0184314 -0.01771009 -0.01701618 -0.01635229 -0.01574892 -0.01520639 -0.0147325 -0.01432679 -0.0139903 -0.0137235
 -0.01353134 -0.01340905 -0.01335261 -0.01334433 -0.01335641 -0.01336349 -0.01332411 -0.01322369 -0.01303297 -0.012759
 -0.01239544 -0.01196061 -0.0114604 -0.01090694 -0.01030519 -0.009657639 -0.008965642 -0.008227878 -0.007444189 -0.006614896
 -0.005739888 -0.004828005 -0.003880406 -0.002917222 -0.001939238 -0.0009636172 1.375333E-05 0.0009985665 0.001997344 0.003034227
 0.004101133 0.005208998 0.006309894 0.007371389 0.008291806 0.008993984 0.009349459 0.009262584 0.008663213 0.007477563
 0.005785455 0.003563694 0.001048474 -0.001739343 -0.004512333 -0.007238506 -0.009717012 -0.0119323 -0.01383566 -0.01543087
 -0.01678217 -0.01789837 -0.01886877 -0.01969688 -0.02044232 -0.02110623 -0.02171963 -0.02228653 -0.02282797 -0.02334598
 -0.02385355 -0.02434355 -0.02481569 -0.02525885 -0.02566528 -0.02603233 -0.02635549 -0.02664226 -0.02689364 -0.02711665
 -0.02731323 -0.02748378 -0.02762903 -0.02774299 -0.02782542 -0.02786679 -0.02786685 -0.0278196 -0.02772701 -0.02759783
 -0.02743729 -0.02726999 -0.027101 -0.02695685 -0.02683715 -0.02675618 -0.02670378 -0.0266776 -0.02665512 -0.02662067
 -0.02654438 -0.02640572 -0.02618231 -0.02585987 -0.02543044 -0.02488999 -0.02423199 -0.02345498 -0.02255044 -0.02151284
 -0.02038323 -0.01916107 -0.01801446 -0.01695876 -0.01627831 -0.01598479 -0.01631591 -0.01723538 -0.01874891 -0.0207628
 -0.02304663 -0.02550471 -0.02785311 -0.03006081 -0.03196287 -0.03360223 -0.03495397 -0.0360871 -0.03703591 -0.0378483
 -0.03855228 -0.03916976 -0.03971095 -0.0401901 -0.04061026 -0.04098596 -0.04131887 -0.04162103 -0.0418933 -0.04214445
 -0.0423748 -0.04259046 -0.04279121 -0.04297862 -0.04315208 -0.04330947 -0.04345138 -0.04357728 -0.04369039 -0.04379593
 -0.04389739 -0.04400207 -0.04410942 -0.04422215 -0.0443367 -0.04445141 -0.04456464 -0.04467529 -0.04478291 -0.04488828
 -0.04498556 -0.04507441 -0.04514607 -0.04519885 -0.04523442 -0.04525251 -0.0452674 -0.04527972 -0.04530136 -0.04533151
 -0.04536948 -0.04541422 -0.04546027 -0.04550884 -0.04556033 -0.04561634 -0.04568093 -0.04575265 -0.04583191 -0.04591537
 -0.04600033 -0.04608403 -0.04616465 -0.04623845 -0.04630429 -0.04635637 -0.04639202 -0.04641171 -0.04641322 -0.04641099
 -0.04640581 -0.04641626 -0.04644395 -0.04649091 -0.04655647 -0.04662456 -0.04669437 -0.04675148 -0.04679769 -0.04683306
 -0.04685958 -0.0468831 -0.04690361 -0.04692351 -0.04694289 -0.04696244 -0.04698338 -0.04700747 -0.04703391 -0.04706375
 -0.0470923 -0.04711787 -0.04713694 -0.0471472 -0.04715172 -0.04714978 -0.04715056 -0.04715498 -0.04717082 -0.0471989
 -0.04723711 -0.04728496 -0.04733074 -0.04737384 -0.04740356 -0.04742118 -0.04742606 -0.04742074 -0.04741202 -0.04740119
 -0.04739416 -0.04739019 -0.0473907 -0.04739462 -0.04740109 -0.0474105 -0.04742246 -0.04743883 -0.04746016 -0.04748845
 -0.04752448 -0.04756901 -0.04762264 -0.0476837 -0.04775252 -0.04782298 -0.0478948 -0.04795901 -0.04801534 -0.04805992
 -0.04809383 -0.04812405 -0.04815159 -0.04818585 -0.0482243 -0.04826549 -0.04830476 -0.04833131 -0.04834545 -0.04834095
 -0.04832597 -0.04830501 -0.04828718 -0.04828049 -0.04828667 -0.04830971 -0.04834361 -0.04838805 -0.04843479 -0.04848242
 -0.04852392 -0.04855819 -0.04858165 -0.04859386 -0.04859659 -0.04859005 -0.04857961 -0.0485654 -0.04855071 -0.04853518
 -0.04851837 -0.04850097 -0.04848396 -0.04847004 -0.04846527 -0.04847065 -0.04849136 -0.04852332 -0.04856514 -0.04861147
 -0.04865781 -0.04870332 -0.04874646 -0.04878805 -0.04882885 -0.04886536 -0.04889712 -0.04892071 -0.0489351 -0.04894414
 -0.04894789 -0.04895355 -0.0489613 -0.04897279 -0.04898759 -0.04900269 -0.0490182 -0.04903312 -0.04904776 -0.04906304
 -0.04907802 -0.04909128 -0.04910197 -0.04910761 -0.04910994 -0.04910924 -0.04910854 -0.04911016 -0.04911518 -0.04912506
 -0.04913822 -0.04915459 -0.04917219 -0.04919067 -0.04920845 -0.04922526 -0.04924054 -0.04925413 -0.04926834 -0.04928331
 -0.04930218 -0.04932451 -0.04934822 -0.049372 -0.04938789 -0.04939666 -0.04939477 -0.04938721 -0.04938191 -0.04938343
 -0.04940299 -0.04943792 -0.04949149 -0.0495545 -0.04962199 -0.04968695 -0.04974416 -0.04979368 -0.04983408 -0.04986861
 -0.04989791 -0.049923 -0.04994429 -0.0499604 -0.04997121 -0.04997641 -0.0499761 -0.04997369 -0.04996971 -0.04997039
 -0.04997581 -0.04999016 -0.05001184 -0.05003889 -0.05006845 -0.05009368 -0.05011322 -0.05012138 -0.05012073 -0.05011063
 -0.05009709 -0.05008382 -0.05007526 -0.05007515 -0.05008232 -0.05009771 -0.05011678 -0.05013873 -0.05016064 -0.05018189
 -0.05020241 -0.05022218 -0.05024089 -0.05025849 -0.0502742 -0.05028832 -0.05030313 -0.05031925 -0.05034136 -0.05036871
 -0.05040248 -0.05043955 -0.05047414 -0.05050398 -0.0505222 -0.05053145 -0.05053078 -0.05052638 -0.05052264 -0.050522
 -0.05052799 -0.0505358 -0.05054504 -0.05054972 -0.05054782 -0.05054016 -0.05052598 -0.05051253 -0.05050025 -0.0504957
 -0.05049903 -0.05051015 -0.05052834 -0.05054723 -0.05056611 -0.05057788 -0.05058325 -0.05058014 -0.05057077 -0.0505584
 -0.05054533 -0.05053641 -0.05053243 -0.05053629 -0.0505467 -0.05056443 -0.05058547 -0.05060885 -0.05062879 -0.05064303
 -0.05064907 -0.05064509 -0.05063589 -0.05062148 -0.05060986 -0.05060184 -0.05059904 -0.05060138 -0.05060254 -0.05060238
 -0.05059669 -0.05058686 -0.05057761 -0.05057037 -0.05057288 -0.05058379 -0.05060469 -0.05063227 -0.05066232 -0.05069281
 -0.05072006 -0.05074368 -0.05076238 -0.05077603 -0.05078404 -0.05078731 -0.05078546 -0.05078179 -0.05077666 -0.05077425
 -0.05077529 -0.05078153 -0.05079335 -0.05080794 -0.0508251 -0.05083973 -0.05085181 -0.0508587 -0.05086149 -0.05086401
 -0.05086743 -0.05087811 -0.05089461 -0.0509178 -0.05094409 -0.05096811 -0.05098877 -0.05100218 -0.0510109 -0.05101547
 -0.05101833 -0.05102109 -0.05102392 -0.05102716 -0.05103092 -0.05103521 -0.05104045 -0.05104684 -0.05105338 -0.05106008
 -0.05106409 -0.05106525 -0.05106156 -0.05105312 -0.05103992 -0.05102245 -0.05100311 -0.05098242 -0.05096331 -0.05094597
 -0.05093225 -0.05092211 -0.05091606 -0.05091466 -0.05091887 -0.0509284 -0.05094416 -0.05096284 -0.0509834 -0.05100228
 -0.05101736 -0.05103019 -0.05104024 -0.05105241 -0.05106759 -0.05108686 -0.05111067 -0.05113403 -0.05115667 -0.05117256
 -0.05118173 -0.05118211 -0.0511743 -0.05115999 -0.0511401 -0.05111818 -0.05109528 -0.05107533 -0.05105891 -0.05104887
 -0.05104443 -0.05104629 -0.05105216 -0.05106071 -0.05107003 -0.0510788 -0.0510861 -0.05109152 -0.05109384 -0.05109293
 -0.05108675 -0.05107471 -0.05105782 -0.05103586 -0.05101434 -0.05099354 -0.05097968 -0.05097269 -0.05097442 -0.05098412
 -0.05099909 -0.05101804 -0.05103541 -0.05105031 -0.05105759 -0.05105833 -0.0510513 -0.05103951 -0.0510259 -0.05101204
 -0.05100054 -0.05099002 -0.05098062 -0.05097042 -0.05095856 -0.05094491 -0.05092906 -0.0509126 -0.05089536 -0.05088155
 -0.05087145 -0.05086982 -0.05087683 -0.0508909 -0.05091133 -0.05092939 -0.05094523 -0.05095409 -0.05095909 -0.05096732
 -0.05098284 -0.05101848 -0.05107526 -0.05116132 -0.05127336 -0.05141171 -0.05157082 -0.05174671 -0.05193586 -0.05213434
 -0.0523451 -0.05256739 -0.05280846 -0.05307008 -0.05335605 -0.05366833 -0.05399916 -0.05434906 -0.05469463 -0.05503443
 -0.05532751 -0.0555716 -0.05572545 -0.05579197 -0.0557638 -0.05564835 -0.055468 -0.05522358 -0.05492428 -0.05457747
 -0.05419035 -0.05379171 -0.05341472 -0.05308018 -0.05281651 -0.05262328 -0.05250802 -0.05246399 -0.05249185 -0.05257982
 -0.05272994 -0.05290663 -0.05310795 -0.05328147 -0.05342101 -0.05351403 -0.05355994 -0.05358747 -0.05359694 -0.0536011
 -0.05359695 -0.05357337 -0.05352987 -0.05345802 -0.05336149 -0.05324412 -0.05311006 -0.05296805 -0.05281886 -0.05266709
 -0.05251079 -0.05234894 -0.0521831 -0.05201178 -0.05184422 -0.05168308 -0.05153593 -0.05140606 -0.05129142 -0.05119266
 -0.05110298 -0.05102181 -0.050945 -0.05087232 -0.05080134 -0.05073198 -0.05066247 -0.05059314 -0.05052504 -0.05045853
 -0.05039594 -0.05033611 -0.05027753 -0.0502192 -0.05015798 -0.05009583 -0.05003328 -0.04997354 -0.04992014 -0.04987201
 -0.0498307 -0.04979023 -0.04974866 -0.04970239 -0.04964915 -0.04959346 -0.04953505 -0.04948324 -0.04943894 -0.04940777
 -0.04939004 -0.04938266 -0.04938506 -0.04938924 -0.04939492 -0.04939616 -0.04939372 -0.04938718 -0.04937731 -0.04936593
 -0.04935287 -0.04933877 -0.04932301 -0.04930506 -0.04928475 -0.04926169 -0.04923613 -0.04920808 -0.04917788 -0.04914543
 -0.04911188 -0.04907723 -0.04904382 -0.049012 -0.04898342 -0.04895835 -0.04893639 -0.04891751 -0.0489005 -0.04888535
 -0.04887183 -0.04885981 -0.04884871 -0.04883792 -0.04882484 -0.04880938 -0.04878956 -0.04876673 -0.04874196 -0.04871698
 -0.04869449 -0.04867449 -0.04865825 -0.04864396 -0.04863123 -0.04861785 -0.04860286 -0.04858518 -0.04856395 -0.04854126
 -0.04851701 -0.04849567 -0.04847775 -0.04846497 -0.04845742 -0.04845099 -0.04844536 -0.04843494 -0.04842002 -0.04839904
 -0.04837304 -0.04834485 -0.04831524 -0.04828774 -0.04826172 -0.04823829 -0.04821509 -0.04818976 -0.04816084 -0.04812531
 -0.04808645 -0.04804417 -0.04800515 -0.04797215 -0.04794789 -0.04793435 -0.04792768 -0.0479278 -0.04792967 -0.04793276
 -0.04793445 -0.04793457 -0.04793144 -0.04792507 -0.04791491 -0.04790138 -0.04788681 -0.04787158 -0.04785874 -0.04784767
 -0.04783862 -0.04783025 -0.0478204 -0.04780829 -0.047792 -0.04777174 -0.04774668 -0.04771855 -0.04768762 -0.04765695
 -0.04762785 -0.04760183 -0.04758017 -0.04755965 -0.04754021 -0.04751686 -0.04748878 -0.04745694 -0.0474213 -0.04739026
 -0.04736422 -0.0473512 -0.04735026 -0.04736022 -0.04737856 -0.04739542 -0.04740926 -0.04741076 -0.04740141 -0.04737895
 -0.04734686 -0.04730806 -0.047266 -0.04722426 -0.04718513 -0.04715087 -0.04712215 -0.04710022 -0.04708276 -0.04706964
 -0.0470576 -0.04704573 -0.04703454 -0.04702368 -0.04701805 -0.04701794 -0.0470256 -0.04704056 -0.04705662 -0.04707259
 -0.04707752 -0.0470716 -0.04704875 -0.0470118 -0.0469639 -0.04690921 -0.04685629 -0.04680727 -0.04676889 -0.04673883
 -0.04671822 -0.04670189 -0.04668698 -0.04667096 -0.0466512 -0.04663119 -0.04661102 -0.04659554 -0.04658606 -0.04658212
 -0.04658417 -0.04658673 -0.04658951 -0.04658753 -0.04658072 -0.04656743 -0.04654786 -0.04652234 -0.04649134 -0.04645639
 -0.0464186 -0.04638122 -0.04634565 -0.04631599 -0.04629242 -0.04627758 -0.04626878 -0.04626544 -0.04626279 -0.04625769
 -0.04624811 -0.04623145 -0.0462121 -0.04619049 -0.04617158 -0.046157 -0.04614447 -0.04613425 -0.04611954 -0.04609989
 -0.04607531 -0.04604618 -0.0460192 -0.04599434 -0.0459751 -0.04596012 -0.04594593 -0.04593186 -0.04591403 -0.04589355
 -0.04587056 -0.04584622 -0.04582217 -0.04579857 -0.04577605 -0.04575478 -0.04573491 -0.04571699 -0.04570137 -0.04568792
 -0.04567702 -0.04566662 -0.04565651 -0.04564428 -0.04562949 -0.04561259 -0.04559352 -0.04557616 -0.04556059 -0.04554908
 -0.04554088 -0.04553224 -0.04552232 -0.04550513 -0.04548182 -0.04545161 -0.04541768 -0.04538539 -0.04535653 -0.04533666
 -0.0453225 -0.0453143 -0.0453052 -0.04529082 -0.04526835 -0.04523395 -0.04519428 -0.04514949 -0.04510995 -0.04507796
 -0.04505713 -0.04504865 -0.04504723 -0.04505267 -0.04505763 -0.04506181 -0.04505993 -0.04505203 -0.04503525 -0.04501062
 -0.04497999 -0.04494573 -0.04491493 -0.04488884 -0.04487394 -0.04486731 -0.04486857 -0.04487305 -0.04487588 -0.04487669
 -0.04487279 -0.04486918 -0.04486747 -0.04487063 -0.04488117 -0.04489305 -0.04490649 -0.04490983 -0.04490164 -0.04487619
 -0.04483286 -0.04477781 -0.04471169 -0.0446469 -0.0445839 -0.04453205 -0.04449072 -0.04446268 -0.04444649 -0.04444019
 -0.04444182 -0.04444732 -0.04445466 -0.04445988 -0.0444615 -0.0444566 -0.0444457 -0.04442774 -0.04440568 -0.04438031
 -0.04435442 -0.04432924 -0.04430469 -0.04428089 -0.04425766 -0.04423477 -0.04421509 -0.04419882 -0.04418693 -0.04417912
 -0.0441694 -0.04415729 -0.04413579 -0.044106 -0.0440683 -0.04402446 -0.0439798 -0.04393415 -0.04388976 -0.04384549
 -0.04380013 -0.04375477 -0.04370917 -0.04366679 -0.04362931 -0.04360035 -0.043582 -0.04357545 -0.04358235 -0.04359815
 -0.04362306 -0.04364778 -0.04367135 -0.04368646 -0.04369245 -0.04368908 -0.0436765 -0.04365838 -0.04363477 -0.04360779
 -0.04357725 -0.04354298 -0.04350598 -0.04346824 -0.04343208 -0.04340309 -0.04338162 -0.04337217 -0.04336887 -0.04336957
 -0.0433647 -0.04334693 -0.04331388 -0.04326048 -0.04319704 -0.04312463 -0.04305565 -0.04299324 -0.04294026 -0.04289786
 -0.04286148 -0.04283093 -0.04280128 -0.04277244 -0.04274293 -0.0427132 -0.04268595 -0.04266165 -0.04264409 -0.04263248
 -0.04262698 -0.04262581 -0.04262573 -0.04262555 -0.04262245 -0.04261598 -0.04260477 -0.04258889 -0.04256741 -0.04254271
 -0.04251516 -0.04248837 -0.04246404 -0.0424413 -0.04242093 -0.04239688 -0.04236852 -0.04233175 -0.04228612 -0.04223402
 -0.04217568 -0.04211612 -0.04205557 -0.04199791 -0.04194319 -0.04189373 -0.04184927 -0.04181032 -0.0417765 -0.04174724
 -0.04172251 -0.04170238 -0.04168592 -0.04167351 -0.0416605 -0.04164496 -0.04162053 -0.04158334 -0.0415326 -0.04146581
 -0.04139125 -0.04130919 -0.04123221 -0.04116193 -0.04110594 -0.04106509 -0.04103661 -0.04102016 -0.04100772 -0.04099927
 -0.04099088 -0.04098324 -0.04097791 -0.04097432 -0.04097234 -0.04096966 -0.04096164 -0.04094712 -0.04092189 -0.04088797
 -0.04084553 -0.04079704 -0.0407443 -0.0406881 -0.04062915 -0.04056777 -0.0405037 -0.04043946 -0.04037495 -0.04031559
 -0.04026201 -0.04021847 -0.04018546 -0.04016088 -0.04014451 -0.04013093 -0.04012011 -0.04010967 -0.04009956 -0.04008902
 -0.04007662 -0.04005777 -0.04003179 -0.03999432 -0.03994786 -0.03989387 -0.03983475 -0.03977377 -0.03971065 -0.03964605
 -0.03957968 -0.03951097 -0.03944216 -0.03937329 -0.03930866 -0.03924913 -0.03919765 -0.0391551 -0.03911886 -0.03908898
 -0.03905727 -0.03902338 -0.03898149 -0.03893212 -0.03887701 -0.03881683 -0.03875574 -0.03869343 -0.03863097 -0.03856825
 -0.03850496 -0.03844249 -0.03838249 -0.03832634 -0.03827603 -0.03823201 -0.03819538 -0.0381653 -0.03814245 -0.03812279
 -0.03810622 -0.03808479 -0.03805688 -0.03801739 -0.03796477 -0.03790393 -0.03783498 -0.03776728 -0.03770107 -0.0376383
 -0.037578 -0.03751273 -0.03744164 -0.03735599 -0.03725787 -0.03714795 -0.03703056 -0.03691499 -0.03680281 -0.03670095
 -0.03660678 -0.03652043 -0.03643879 -0.03635902 -0.03628222 -0.03620764 -0.03613906 -0.03607828 -0.03602415 -0.03597824
 -0.0359294 -0.03587736 -0.03580398 -0.03570766 -0.03558158 -0.03542615 -0.03525902 -0.03508158 -0.03491418 -0.03475524
 -0.03460849 -0.0344711 -0.0343366 -0.03420361 -0.03406616 -0.03392455 -0.03377637 -0.03362324 -0.03346569 -0.03330552
 -0.03314536 -0.03298158 -0.03281502 -0.03263487 -0.03243702 -0.03221875 -0.03197606 -0.03172724 -0.03147392 -0.03123255
 -0.0310051 -0.03078608 -0.03057516 -0.03036299 -0.03015037 -0.02994097 -0.02973545 -0.02954033 -0.02935232 -0.02916548
 -0.02897554 -0.02876905 -0.02854908 -0.0283127 -0.02806828 -0.02782421 -0.02758211 -0.02734685 -0.02711354 -0.02688076
 -0.02664612 -0.02640796 -0.02616849 -0.02592883 -0.0256851 -0.02543879 -0.02516779 -0.02487057 -0.02452794 -0.02414014
 -0.0237345 -0.02331362 -0.02291557 -0.02253533 -0.02216912 -0.02181019 -0.02143497 -0.02104352 -0.02062413 -0.02018091
 -0.01971775 -0.0192293 -0.01871846 -0.01815884 -0.01753606 -0.01682279 -0.01599165 -0.01507388 -0.01406184 -0.01304253
 -0.01203422 -0.01108701 -0.01021345 -0.00940502 -0.008663047 -0.007955442 -0.007280012 -0.006587434 -0.005873175 -0.005069132
 -0.004182214 -0.003198138 -0.002150052 -0.001139341 -0.0001718277 0.0006801116 0.001455207 0.002180399 0.002882654 0.003603578
 0.004340853 0.005105714 0.00588947 0.006689308 0.007504521 0.008338599 0.009170313 0.009998132 0.01079042 0.01153959
 0.01225615 0.01293954 0.01362077 0.01430043 0.01496444 0.01560946 0.01619411 0.01672258 0.01719138 0.01761215
 0.01802217 0.01842149 0.01883413 0.01923994 0.01961424 0.01995797 0.02025572 0.02053555 0.02081708 0.02110336
 0.02140795 0.02169912 0.02196968 0.0221948 0.02236545 0.02248371 0.02254785 0.02257018 0.02255154 0.02250124
 0.02241968 0.02231066 0.02217413 0.02201138 0.02182195 0.0216046 0.02135828 0.02107783 0.02076539 0.02041985
 0.02005176 0.01967489 0.01930029 0.01894617 0.01861209 0.01830349 0.0180167 0.01774915 0.01750657 0.01729015
 0.01710514 0.01695476 0.01682994 0.01673028 0.01664413 0.01656998 0.01651017 0.016465 0.01644915 0.01646308
 0.01651783 0.01661109 0.01673733 0.01689322 0.01706406 0.01725118 0.01744865 0.01766313 0.01790184 0.0181701
 0.01847672 0.01882217 0.01920884 0.01963811 0.02010905 0.02063102 0.02120438 0.02184777 0.02256514 0.02337102
 0.02427114 0.02524657 0.02629873 0.02736491 0.02844133 0.02944266 0.03036241 0.03110427 0.0316629 0.03195174
 0.03198603 0.03175941 0.03131015 0.03071447 0.03000665 0.02926682 0.02852259 0.02783188 0.02720637 0.02667893
 0.02622563 0.02584796 0.02550482 0.02518224 0.02485527 0.02450978 0.02417138 0.0238385 0.02356585 0.02336023
 0.02321479 0.0231291 0.02307296 0.02304758 0.02305588 0.02310118 0.02320353 0.02336204 0.02358881 0.02387095
 0.02420219 0.02453052 0.02480048 0.0248995 0.02467566 0.02409915 0.02305926 0.02170754 0.02009185 0.01832427
 0.01645153 0.01453948 0.01259713 0.01074336 0.008995325 0.007443998 0.006103526 0.004942356 0.003958607 0.003060115
 0.002245457 0.001467191 0.0007321354 5.467348E-05 -0.0005641778 -0.00110885 -0.00159334 -0.002039935 -0.002463025 -0.002895917
 -0.0033414 -0.003814768 -0.004314608 -0.004842238 -0.005403345 -0.006002719 -0.006638299 -0.007322754 -0.007994216 -0.00864506
 -0.009201959 -0.009644063 -0.01000653 -0.01028847 -0.01056074 -0.01082664 -0.01110739 -0.01139988 -0.01167445 -0.01192895
 -0.01213392 -0.01229588 -0.01242328 -0.01251794 -0.01259289 -0.01263476 -0.01262913 -0.01256347 -0.01241426 -0.0121896
 -0.0118859 -0.01151956 -0.01109846 -0.01063183 -0.01012517 -0.009580209 -0.009000883 -0.008371852 -0.007693699 -0.006932186
 -0.006082026 -0.005152674 -0.004145301 -0.003180529 -0.002265276 -0.001522582 -0.000943907 -0.0005446688 -0.0003130273 -0.0002189964
 -0.000253771 -0.0003883664 -0.0006055046 -0.0008703283 -0.001158599 -0.001434976 -0.001672869 -0.001839878 -0.00192752 -0.001912263
 -0.001837306 -0.001710097 -0.001576506 -0.001453262 -0.001340033 -0.001240524 -0.001136591 -0.001026476 -0.0009040521 -0.0007689897
 -0.0006297475 -0.000486452 -0.000343937 -0.0002002405 -4.68214E-05 0.0001184051 0.0003090081 0.000521326 0.0007565055 0.001003352
 0.001242979 0.00147237 0.001675836 0.001870137 0.002060537 0.002268855 0.002509304 0.002789186 0.003116777 0.00348163
 0.003883966 0.004307919 0.004752082 0.005198466 0.005646343 0.006066882 0.006458473 0.00679127 0.007065507 0.007275817
 0.007424554 0.007523619 0.00757202 0.007573521 0.007523648 0.007413898 0.007240963 0.006994192 0.006676866 0.006285751
 0.005833273 0.005325942 0.004779351 0.004203881 0.003606643 0.00299317 0.002362232 0.001712489 0.001053203 0.0003828586
 -0.0002686591 -0.0008989926 -0.001481746 -0.002015394 -0.002497645 -0.002929339 -0.003320786 -0.003672649 -0.003993343 -0.004283658
 -0.004549744 -0.004794404 -0.005025911 -0.005249576 -0.005476726 -0.005713189 -0.00597003 -0.006249625 -0.006559088 -0.006892655
 -0.007252109 -0.007620923 -0.007995825 -0.008354741 -0.008691545 -0.008993159 -0.009255003 -0.009483661 -0.00967856 -0.009857618
 -0.01002181 -0.01018044 -0.01033283 -0.01047176 -0.0105961 -0.01069481 -0.01076899 -0.01081643 -0.01083963 -0.01084275
 -0.01082911 -0.01080549 -0.01077519 -0.01074507 -0.01071517 -0.01068826 -0.01066176 -0.01063397 -0.01060693 -0.01057979
 -0.01055992 -0.01054919 -0.01055162 -0.01056895 -0.01059687 -0.01063558 -0.01067515 -0.01071506 -0.01074789 -0.01077379
 -0.01079309 -0.01080658 -0.01081973 -0.01083195 -0.01084481 -0.01085539 -0.01085751 -0.01084884 -0.0108215 -0.0107782
 -0.0107173 -0.01064691 -0.01057155 -0.01050162 -0.01044379 -0.01040489 -0.01039012 -0.01039725 -0.01042788 -0.01047224
 -0.01052914 -0.01059023 -0.01065437 -0.01071938 -0.01078508 -0.01085217 -0.01092076 -0.01099207 -0.01106647 -0.01114677
 -0.01123346 -0.01133044 -0.01143664 -0.01155266 -0.0116744 -0.01179648 -0.01191234 -0.012012 -0.0120921 -0.01214426
 -0.01217568 -0.01218578 -0.01218955 -0.01219324 -0.01220343 -0.01222518 -0.01224838 -0.01227259 -0.01228527 -0.01228437
 -0.0122719 -0.01224779 -0.012224 -0.0122007 -0.01218246 -0.01216806 -0.01215165 -0.01213287 -0.01210674 -0.01207488
 -0.0120393 -0.01200012 -0.01195957 -0.0119143 -0.01186119 -0.01179788 -0.01172014 -0.01163129 -0.0115313 -0.01142584
 -0.0113174 -0.0112081 -0.01109933 -0.01098964 -0.0108789 -0.01076662 -0.01065256 -0.01053894 -0.01042584 -0.01031805
 -0.01021582 -0.01012435 -0.01004315 -0.009972311 -0.00990987 -0.009848259 -0.009786491 -0.009717021 -0.009643094 -0.009565873
 -0.009491124 -0.009426886 -0.009374772 -0.009340541 -0.00931817 -0.009306757 -0.009297835 -0.009287223 -0.009272738 -0.009251897
 -0.009230657 -0.009209273 -0.00919535 -0.009189758 -0.009196862 -0.009216999 -0.009250951 -0.009298394 -0.009354778 -0.009418844
 -0.009479849 -0.009537344 -0.009582751 -0.009618946 -0.009648502 -0.009674918 -0.009706523 -0.00974226 -0.009784964 -0.009830382
 -0.009875374 -0.009918607 -0.009958109 -0.009994913 -0.01002968 -0.0100603 -0.01008685 -0.01010497 -0.01011353 -0.01011237
 -0.01010096 -0.01008457 -0.01006346 -0.01004312 -0.01002359 -0.01000585 -0.009989581 -0.009973085 -0.009956416 -0.009939251
 -0.009921117 -0.00990173 -0.009877987 -0.009844895 -0.009798585 -0.009731273 -0.009644157 -0.009534051 -0.009408163 -0.009269525
 -0.009124338 -0.008976696 -0.008825787 -0.008672933 -0.008512386 -0.008343497 -0.008160806 -0.007963354 -0.007751263 -0.00752438
 -0.007289657 -0.007047503 -0.006805605 -0.006563736 -0.006324081 -0.006085998 -0.005848108 -0.005610102 -0.00537059 -0.005129323
 -0.004884816 -0.004638126 -0.004389084 -0.004141326 -0.003897697 -0.003661332 -0.003435169 -0.003219531 -0.003014428 -0.002822998
 -0.002645375 -0.002487853 -0.002352532 -0.002236686 -0.002141243 -0.00205108 -0.00196533 -0.001870698 -0.001766998 -0.001651411
 -0.001524223 -0.001386071 -0.001236754 -0.001075432 -0.0009024189 -0.0007179926 -0.0005228075 -0.0003182841 -0.0001045163 0.0001179414
 0.0003487719 0.0005876109 0.0008339816 0.001087742 0.001347763 0.001614403 0.001883218 0.002153422 0.002419889 0.002680941
 0.002938089 0.003190963 0.003445676 0.003702655 0.003963605 0.004228435 0.004495242 0.004763721 0.00503195 0.005297918
 0.005553313 0.005794541 0.006006836 0.006190661 0.006338514 0.006456323 0.006547513 0.006620114 0.006680444 0.006739673
 0.00680525 0.006887434 0.006995145 0.007120644 0.007266399 0.007409127 0.007543713 0.00766266 0.007762539 0.007864293
 0.007968947 0.008099301 0.008255538 0.008439413 0.008648646 0.0088679 0.009094786 0.009310977 0.009516648 0.009701945
 0.009870579 0.010025 0.01016785 0.01030514 0.01043316 0.01055132 0.01065425 0.01073797 0.01080125 0.01084272
 0.01086199 0.01085854 0.01083296 0.01078403 0.01072099 0.01064396 0.0105686 0.01049596 0.01043693 0.01039174
 0.01036384 0.01035252 0.01035533 0.01036991 0.01038541 0.01039937 0.01039842 0.01038436 0.01035366 0.01031049
 0.01025967 0.01020169 0.0101391 0.01007012 0.009993662 0.009910931 0.009821518 0.009729225 0.009634542 0.0095428
 0.009455165 0.009374886 0.009303549 0.009231297 0.009157977 0.009059927 0.008936299 0.008771906 0.008568709 0.008334391
 0.008071888 0.007797997 0.007513262 0.007227481 0.006940426 0.006656108 0.006374225 0.006096305 0.005820998 0.005547254
 0.005275178 0.005004083 0.004735904 0.004471856 0.004210882 0.003953018 0.003696552 0.003440283 0.003189299 0.002943806
 0.002710809 0.002490975 0.002283315 0.002087558 0.001897077 0.001711625 0.001526295 0.001341326 0.001154951 0.0009678618
 0.0007810064 0.0005950218 0.000412282 0.0002311148 5.064382E-05 -0.0001316756 -0.0003195337 -0.000511008 -0.0007062828 -0.0009022643
 -0.001096558 -0.001291968 -0.001488874 -0.001689677 -0.001896032 -0.002101365 -0.00230521 -0.00250089 -0.002687699 -0.002868166
 -0.003042421 -0.003213556 -0.003381122 -0.003542197 -0.003697195 -0.00384593 -0.003990174 -0.004135624 -0.004281681 -0.004430841
 -0.004579389 -0.004723432 -0.004860019 -0.00498467 -0.005097147 -0.005195076 -0.005282365 -0.005359118 -0.005432746 -0.005505479
 -0.005582066 -0.005664319 -0.005750981 -0.005842124 -0.005936253 -0.006033254 -0.00613288 -0.006234954 -0.006334851 -0.006432252
 -0.006521865 -0.006604737 -0.006683106 -0.006757435 -0.006831319 -0.006901957 -0.0069651 -0.00701971 -0.007060929 -0.007093702
 -0.007121345 -0.007146533 -0.007174622 -0.007197037 -0.007212397 -0.007209215 -0.007181525 -0.007133485 -0.007062197 -0.006990851
 -0.006921466 -0.006876721 -0.006859036 -0.006866091 -0.006897133 -0.006929199 -0.00696191 -0.006981336 -0.006990297 -0.006995437
 -0.006996923 -0.007000164 -0.007000306 -0.006988666 -0.006965847 -0.006925902 -0.006879913 -0.006836195 -0.006803262 -0.006791628
 -0.006796328 -0.006819484 -0.006848441 -0.006880574 -0.006903294 -0.006914096 -0.006902228 -0.006865595 -0.006801678 -0.006709635
 -0.006601598 -0.006478476 -0.006361217 -0.006250473 -0.006161781 -0.006093052 -0.006044201 -0.006010364 -0.005977131 -0.005941686
 -0.005889608 -0.005825698 -0.005749314 -0.005668988 -0.005594083 -0.005525742 -0.005469502 -0.005417308 -0.005366817 -0.005311961
 -0.005249153 -0.005181309 -0.005107558 -0.005036586 -0.004969223 -0.004913431 -0.004870021 -0.004840826 -0.004825673 -0.004817116
 -0.004814075 -0.004803886 -0.004786031 -0.0047512 -0.004700101 -0.004629773 -0.004541636 -0.004436386 -0.004317075 -0.004186867
 -0.004052014 -0.003919114 -0.003794051 -0.003684526 -0.00358687 -0.003503968 -0.003420817 -0.003333851 -0.003229875 -0.003103993
 -0.002958837 -0.002793011 -0.002621081 -0.002443914 -0.002275415 -0.002116232 -0.001975867 -0.001854279 -0.001756139 -0.001679442
 -0.001618292 -0.001568633 -0.001514604 -0.001455187 -0.001378439 -0.001291231 -0.001196789 -0.001105413 -0.001029937 -0.0009718411
 -0.0009393459 -0.000919259 -0.0009084827 -0.0008927156 -0.000864116 -0.0008276506 -0.0007812364 -0.0007428389 -0.0007159758 -0.0007002081
 -0.0006968635 -0.0006783072 -0.0006432589 -0.0005685411 -0.0004559632 -0.0003121909 -0.0001417121 3.027805E-05 0.0002014946 0.0003510429
 0.0004812398 0.0005854024 0.0006704065 0.000743217 0.0008091802 0.000878559 0.0009461674 0.001012701 0.001069016 0.001108118
 0.001135852 0.001149822 0.001169644 0.001199437 0.001250538 0.001326245 0.001420594 0.00153365 0.001654021 0.001781202
 0.001908297 0.002035406 0.002161247 0.002285408 0.002405723 0.002520426 0.002621825 0.00271119 0.002784949 0.002851499
 0.002921864 0.003001163 0.003102884 0.003215052 0.003335228 0.003447195 0.003539521 0.003615135 0.00367046 0.003720803
 0.003769706 0.003822457 0.003880715 0.003942025 0.004006201 0.004074206 0.00414599 0.004218634 0.004291161 0.004352121
 0.004401647 0.00443308 0.004450021 0.004459438 0.004466246 0.004484889 0.004516166 0.004569971 0.004637872 0.004716624
 0.004793787 0.004856939 0.004908129 0.004941542 0.004975967 0.00501674 0.005075398 0.005157137 0.005256498 0.005373412
 0.005502881 0.005644564 0.005794729 0.005952909 0.006101251 0.00623895 0.006348807 0.006434847 0.006507543 0.006573346
 0.006659734 0.006766431 0.00690838 0.007076939 0.007267386 0.00746756 0.007662806 0.007846737 0.008007118 0.00815335
 0.00828577 0.008417569 0.008556993 0.008693981 0.008830573 0.008939459 0.009015842 0.009051664 0.009044627 0.009014634
 0.008962813 0.008916748 0.00887788 0.00887165 0.00889734 0.008967463 0.009074918 0.00920416 0.009347904 0.009479735
 0.009604567 0.009717232 0.009827197 0.009945919 0.01006891 0.01019891 0.01032264 0.01043348 0.01052573 0.01059527
 0.01064374 0.0106699 0.01068113 0.01067726 0.01067376 0.01067213 0.01067984 0.01069712 0.01071497 0.01073386
 0.01075441 0.01078017 0.0108322 0.01090942 0.01102223 0.01116116 0.01131104 0.01146331 0.01159724 0.01171201
 0.01179593 0.01186074 0.01190576 0.01196007 0.01203828 0.01215892 0.01234424 0.01254051 0.01274359 0.01288442
 0.01294489 0.01294986 0.01289871 0.0128369 0.01276647 0.01269844 0.01263298 0.01257534 0.01252656 0.01249765
 0.01248473 0.01248087 0.01248172 0.01247095 0.01245518 0.01243773 0.01242436 0.0124258 0.01243453 0.0124481
 0.01246092 0.01246884 0.01247168 0.01247071 0.01245568 0.01242352 0.01237206 0.01229736 0.01222763 0.01216481
 0.01213413 0.01213673 0.01216426 0.01221572 0.01227662 0.01234729 0.01242521 0.0125057 0.01257265 0.01261951
 0.01261803 0.0125795 0.01250503 0.01241727 0.01234601 0.0122907 0.01226426 0.0122481 0.01223535 0.01221487
 0.01217986 0.01213089 0.01206249 0.01200291 0.01195279 0.01195929 0.01202876 0.01215912 0.01235014 0.01254669
 0.01274814 0.01293095 0.01309846 0.01326176 0.01341462 0.01354022 0.01363443 0.01367304 0.01367213 0.0136465
 0.01360928 0.01358553 0.01356581 0.01355035 0.01353158 0.0135024 0.01347109 0.01343927 0.01341261 0.01339273
 0.01338268 0.01338266 0.01339944 0.01343471 0.01347618 0.01352318 0.01354752 0.01354991 0.01352995 0.01349198
 0.01346255 0.01344053 0.01343605 0.01344543 0.01346357 0.01349191 0.01353266 0.01358159 0.01363556 0.01368904
 0.01373095 0.01377877 0.01383791 0.01392536 0.01405717 0.01420171 0.01435894 0.01447542 0.0145399 0.01454206
 0.01447755 0.01438007 0.0142513 0.0141343 0.01403078 0.01397529 0.0139648 0.01400281 0.01407948 0.01416123
 0.01424405 0.01429991 0.01433489 0.01434959 0.01434134 0.01430908 0.0142451 0.01413666 0.01400133 0.01383999
 0.01368624 0.01355545 0.01345481 0.01339256 0.01334743 0.01331803 0.01328174 0.0132363 0.01316616 0.01307041
 0.01294693 0.01279693 0.01263609 0.01246515 0.01229638 0.01212922 0.01196565 0.01181043 0.01167597 0.01156573
 0.01149487 0.01145305 0.01143304 0.01143038 0.011435 0.01146009 0.01151613 0.01158974 0.0116881 0.0117542
 0.0117734 0.01171663 0.01156939 0.01138086 0.01115188 0.01096232 0.01081676</values></Ydata></AB><ScSm><Ydata ylabel="Single channel"><values byteorder="INTEL" format="FLOAT32" numvalues="1814"> 0.07005046 0.07006101 0.07014041 0.07030314 0.07051387 0.07071185 0.07085256 0.07093232 0.07096794 0.07096104
 0.07091166 0.07086582 0.07090572 0.07106973 0.07130044 0.07148318 0.07153605 0.07148162 0.07143813 0.07150342
 0.07162118 0.07159182 0.07126176 0.0707033 0.07017078 0.0698656 0.06980807 0.06998661 0.07048666 0.07125393
 0.0718229 0.07164768 0.07078832 0.06994653 0.06968661 0.06989381 0.07010005 0.07002544 0.06966427 0.06918237
 0.06897049 0.06953946 0.07101846 0.07274155 0.07348815 0.0722532 0.06896281 0.06470683 0.06134063 0.0604886
 0.06239555 0.06559775 0.06802494 0.06865361 0.06799582 0.06705102 0.06623209 0.06549324 0.06502278 0.06528246
 0.06636773 0.06757526 0.06776471 0.06633393 0.06393765 0.0620256 0.06152032 0.06223702 0.06365799 0.06549485
 0.06690042 0.06602183 0.06182466 0.05639911 0.05402683 0.05711102 0.06361303 0.06904997 0.07048257 0.06815235
 0.06417423 0.06078408 0.05950696 0.06074473 0.06369071 0.0670024 0.06961955 0.07081988 0.07004538 0.06738579
 0.06404706 0.06176302 0.06172794 0.06413068 0.06812162 0.07189168 0.07349098 0.07226785 0.06930474 0.06627671
 0.06434707 0.0641681 0.06604637 0.06961979 0.07384136 0.07758898 0.0801224 0.08114809 0.08087803 0.07990135
 0.07873784 0.07774609 0.07743413 0.07814865 0.07924857 0.07934759 0.077824 0.07565385 0.07440756 0.07462795
 0.07539895 0.07546073 0.07448323 0.07286002 0.07046341 0.06662741 0.06167355 0.05731189 0.05493312 0.05455302
 0.05583332 0.05862257 0.06175222 0.06296154 0.06136984 0.0590593 0.05900469 0.06189886 0.06579337 0.0684786
 0.06952638 0.07014512 0.07161868 0.07399352 0.07590675 0.07561716 0.07273874 0.06921986 0.06796837 0.06999436
 0.07343432 0.0758379 0.07674821 0.07743473 0.07867491 0.0795525 0.07841003 0.07481551 0.07063365 0.06888239
 0.07110652 0.07583345 0.0796397 0.07968419 0.07562228 0.06969473 0.0649788 0.06325424 0.06451919 0.06815761
 0.07362252 0.07982139 0.08483776 0.08700594 0.08612467 0.08335956 0.07991322 0.07591242 0.07104313 0.06640425
 0.06473546 0.06782733 0.07423298 0.08047392 0.0841435 0.08510889 0.08416045 0.08152456 0.07708565 0.07182918
 0.06832177 0.06871844 0.07216625 0.07528473 0.07570823 0.07424496 0.07313685 0.07326147 0.07380739 0.07399813
 0.07420251 0.07530718 0.07745013 0.07968863 0.08091061 0.08084421 0.08010559 0.07947911 0.07920185 0.07879075
 0.07772174 0.07647558 0.07648031 0.0785514 0.08177494 0.08444774 0.08578608 0.08621287 0.08622118 0.08550268
 0.08339433 0.08012779 0.07733814 0.07685313 0.07892948 0.0820922 0.08466741 0.08598559 0.08623111 0.08584134
 0.08520651 0.08454071 0.08394692 0.08369112 0.08413695 0.08523041 0.08637758 0.0870388 0.08717336 0.08697823
 0.08650258 0.08571707 0.08478861 0.08409607 0.08396223 0.08441207 0.08520398 0.08604515 0.08670181 0.086973
 0.08676185 0.08621512 0.08563364 0.08520263 0.08493174 0.08484142 0.08502074 0.0854573 0.08595867 0.08631472
 0.08645914 0.08643973 0.08630951 0.08609411 0.08582456 0.08556838 0.08542903 0.08548381 0.08569186 0.08591348
 0.08607095 0.08622707 0.08643704 0.08660023 0.08656397 0.0863318 0.08607204 0.08593756 0.08594636 0.0860223
 0.08607744 0.08602913 0.08579595 0.08536807 0.08490089 0.08465673 0.08479294 0.0852455 0.08583365 0.0863973
 0.0868178 0.08702585 0.0870529 0.0870024 0.08692862 0.08679454 0.08656728 0.08631427 0.08618787 0.0863121
 0.08666818 0.08709908 0.08744115 0.0876305 0.08769114 0.08769282 0.08773085 0.08785813 0.08800568 0.0880441
 0.08794761 0.08783607 0.08783412 0.08793432 0.0880184 0.08799481 0.08790146 0.08786576 0.08796555 0.08815424
 0.0883323 0.08846061 0.08857943 0.08872865 0.08886926 0.08890101 0.08877505 0.08857131 0.08842292 0.08837714
 0.08838496 0.08841625 0.08850941 0.0886863 0.08887953 0.08898933 0.08899415 0.08896978 0.08899315 0.08904919
 0.08905233 0.08895046 0.08878314 0.08863775 0.08857298 0.08858827 0.08864184 0.08868281 0.08867709 0.08862031
 0.08853178 0.08843318 0.0883332 0.08824106 0.08819354 0.08824262 0.08839011 0.08854444 0.08857596 0.08843315
 0.08819579 0.08800161 0.08791836 0.08789167 0.08781679 0.08764893 0.08743359 0.08724418 0.08711439 0.08703075
 0.08696366 0.08689597 0.08684108 0.08684513 0.08694847 0.08712116 0.08725391 0.08724682 0.08710679 0.08693579
 0.08683021 0.08681293 0.08684815 0.08689132 0.08693041 0.08699588 0.08711486 0.08724971 0.08731936 0.08729753
 0.08725151 0.08726952 0.0873874 0.08758888 0.08782224 0.08800501 0.08807091 0.08804134 0.08801389 0.08806058
 0.08816566 0.08827542 0.08837286 0.0884794 0.08860885 0.0887543 0.08891778 0.08912405 0.08939222 0.08970212
 0.08999736 0.09022424 0.09037615 0.09050852 0.09070426 0.09100903 0.09139237 0.09177291 0.09208608 0.09233164
 0.09255703 0.09279789 0.09304933 0.09330205 0.09358142 0.09392054 0.0943078 0.09469472 0.09505224 0.09539225
 0.09573585 0.09608637 0.09643751 0.09679429 0.09717929 0.09761231 0.09807473 0.09850242 0.09883492 0.09907471
 0.09928863 0.09955526 0.09991022 0.1003181 0.1006854 0.100931 0.1010728 0.1012214 0.1014649 0.1017788
 0.1020819 0.1023568 0.1026689 0.1030647 0.1034985 0.1038782 0.1041634 0.1043943 0.1046347 0.1049001
 0.1051456 0.1053217 0.1054372 0.1055526 0.1057138 0.1059209 0.1061707 0.1064917 0.1068988 0.1073387
 0.1077231 0.108007 0.1082071 0.1083606 0.1084963 0.1086317 0.108767 0.1088914 0.1090088 0.1091354
 0.1092625 0.109356 0.1094127 0.1094846 0.1096236 0.1098337 0.1100973 0.1104144 0.1107789 0.1111448
 0.1114672 0.1117706 0.1121232 0.1125289 0.1128923 0.1131222 0.1132299 0.113292 0.1133536 0.1134241
 0.1135386 0.1137545 0.1140821 0.1144657 0.1148428 0.1151931 0.1155257 0.1158438 0.1161321 0.1163637
 0.1165167 0.1165931 0.116629 0.1166855 0.1168225 0.1170626 0.1173691 0.1176659 0.1178907 0.1180189
 0.1180408 0.1179505 0.11778 0.1176147 0.1175236 0.1174769 0.1173611 0.1170783 0.1166055 0.1159645
 0.1151742 0.1142519 0.1132436 0.1122323 0.1113124 0.1105568 0.1100103 0.1097132 0.1097156 0.1100413
 0.1106317 0.1113462 0.1120248 0.1125327 0.1127521 0.1125855 0.1120083 0.1111043 0.1100187 0.1088801
 0.1077658 0.1067029 0.1056738 0.1046478 0.1036537 0.1028259 0.1023637 0.1024534 0.1032233 0.10472
 0.1068605 0.109397 0.1119798 0.1143073 0.1162448 0.1178177 0.1191247 0.1202692 0.1213323 0.1223515
 0.1233067 0.1241557 0.1248921 0.1255522 0.1261681 0.1267364 0.1272301 0.1276224 0.1279062 0.128106
 0.1282566 0.1283586 0.1283781 0.128304 0.1281791 0.1280475 0.1278881 0.1276174 0.1271492 0.1264451
 0.1255369 0.1245446 0.1237028 0.1233568 0.1238577 0.1253664 0.127716 0.1304774 0.1331803 0.1354969
 0.1372896 0.1385764 0.1394757 0.1401389 0.1406889 0.1411973 0.1416951 0.1421856 0.1426546 0.1430886
 0.1434891 0.1438759 0.1442783 0.144713 0.1451598 0.1455711 0.1459201 0.1462378 0.146588 0.1470049
 0.1474597 0.1478913 0.1482734 0.1486378 0.1490222 0.149409 0.1497451 0.1500144 0.1502608 0.1505419
 0.1508859 0.1512855 0.1517012 0.1520744 0.1523684 0.152602 0.1528289 0.1530852 0.1533677 0.1536572
 0.153944 0.1542304 0.1545209 0.1548215 0.1551427 0.1554857 0.1558223 0.1561055 0.1563161 0.1564893
 0.1566818 0.1569192 0.1571804 0.1574303 0.1576599 0.1578993 0.1581899 0.158537 0.1588934 0.1591961
 0.1594212 0.1595978 0.1597731 0.1599743 0.1602046 0.1604589 0.1607293 0.1609996 0.161252 0.1614854
 0.1617182 0.1619677 0.1622337 0.162502 0.1627602 0.1630051 0.1632408 0.1634734 0.1637104 0.1639661
 0.164257 0.1645813 0.1649076 0.1651942 0.1654223 0.1656051 0.1657698 0.165939 0.1661255 0.1663336
 0.1665599 0.1667974 0.1670402 0.167283 0.1675211 0.1677519 0.1679796 0.168213 0.168458 0.168712
 0.1689702 0.1692343 0.1695075 0.169782 0.1700409 0.1702759 0.1704962 0.1707161 0.1709409 0.1711673
 0.1713919 0.1716159 0.1718444 0.172082 0.1723283 0.1725779 0.1728247 0.1730644 0.1732954 0.1735194
 0.1737408 0.1739623 0.174184 0.1744059 0.1746297 0.1748581 0.1750921 0.1753286 0.1755612 0.1757872
 0.1760118 0.1762429 0.1764824 0.1767263 0.1769697 0.1772105 0.1774499 0.177689 0.1779241 0.1781497
 0.1783668 0.1785834 0.1788066 0.1790361 0.1792667 0.1794935 0.1797174 0.1799447 0.1801787 0.1804163
 0.180653 0.1808886 0.1811247 0.1813617 0.1816025 0.1818495 0.1820993 0.1823456 0.182588 0.1828321
 0.1830814 0.1833332 0.1835809 0.1838208 0.1840549 0.184284 0.1845015 0.1847037 0.1848991 0.1850989
 0.1853039 0.1855103 0.1857199 0.185937 0.1861618 0.1863908 0.1866185 0.1868414 0.1870645 0.1872969
 0.1875376 0.1877777 0.1880137 0.1882488 0.1884838 0.1887184 0.1889533 0.1891853 0.1894105 0.1896314
 0.189855 0.1900844 0.1903209 0.1905644 0.1908099 0.1910526 0.1912952 0.1915396 0.1917798 0.1920135
 0.1922474 0.1924869 0.1927312 0.192979 0.1932245 0.1934578 0.1936778 0.1938936 0.194111 0.1943313
 0.1945585 0.1947935 0.1950312 0.1952702 0.1955116 0.1957492 0.1959782 0.1962082 0.19645 0.1967015
 0.1969573 0.1972107 0.1974496 0.1976704 0.197888 0.1981146 0.1983471 0.1985812 0.1988124 0.199019
 0.1991535 0.1991012 0.1985644 0.1969451 0.1933366 0.1867012 0.1762714 0.1620226 0.1448523 0.1262674
 0.1078307 0.09075058 0.07575256 0.0631648 0.05307459 0.04543035 0.0400978 0.0369573 0.03601544 0.03752369
 0.0421 0.05035573 0.06151957 0.07223567 0.0778815 0.07621709 0.06952366 0.06252103 0.05845202 0.05753367
 0.05837489 0.05979342 0.06141721 0.0634679 0.06632 0.07006913 0.07451652 0.07964194 0.08583564 0.09339835
 0.1019386 0.1105376 0.1185462 0.1260891 0.1337497 0.1418552 0.150135 0.1579924 0.1649801 0.171019
 0.1762999 0.1810751 0.1855154 0.1896999 0.1936743 0.1974455 0.2008882 0.2037102 0.2055984 0.206456
 0.2065125 0.2061972 0.2058904 0.205774 0.20587 0.20615 0.2065888 0.207164 0.2078541 0.2086355
 0.2094766 0.2103447 0.2112173 0.2120772 0.2129042 0.2136824 0.2144032 0.2150591 0.2156466 0.2161741
 0.2166573 0.2171083 0.2175332 0.2179351 0.2183145 0.218675 0.2190238 0.2193608 0.2196746 0.219956
 0.2202083 0.2204387 0.2206535 0.2208615 0.2210719 0.2212873 0.2215046 0.2217236 0.2219461 0.2221718
 0.2223965 0.2226154 0.2228269 0.2230352 0.2232455 0.2234549 0.2236558 0.2238472 0.2240354 0.2242263
 0.2244209 0.2246178 0.2248124 0.2250005 0.2251852 0.2253774 0.225584 0.2258011 0.2260181 0.2262259
 0.2264245 0.2266278 0.2268495 0.2270848 0.2273138 0.227527 0.2277346 0.2279536 0.2281924 0.2284431
 0.2286792 0.2288705 0.2290097 0.2291244 0.2292612 0.2294517 0.2296877 0.2299311 0.2301522 0.2303543
 0.2305538 0.2307544 0.2309486 0.2311307 0.2313045 0.2314912 0.2317198 0.2319943 0.2322826 0.2325529
 0.232801 0.2330366 0.233269 0.2335094 0.2337528 0.2339624 0.234105 0.234207 0.2343517 0.2346126
 0.2349854 0.2353852 0.2357225 0.235981 0.2362082 0.2364525 0.2367333 0.2370267 0.2372399 0.2372712
 0.2371677 0.2371564 0.2374358 0.2379763 0.2385799 0.239085 0.2394635 0.2397647 0.2400279 0.2402443
 0.2403713 0.2403848 0.2403409 0.2403921 0.2406881 0.2412211 0.241811 0.2422844 0.2426132 0.2428534
 0.2430449 0.2432057 0.2433016 0.2431917 0.2427778 0.2422794 0.2421783 0.2427503 0.2437475 0.2446591
 0.2452195 0.245544 0.2458322 0.2461255 0.2463658 0.246449 0.2461172 0.2451016 0.2436467 0.2426579
 0.2429594 0.2444664 0.2463271 0.2477711 0.2486012 0.2490144 0.2492623 0.2494757 0.2495676 0.2492526
 0.2483666 0.2472793 0.2467967 0.2474184 0.2487746 0.2500205 0.2506975 0.2509723 0.2511813 0.2514531
 0.2516291 0.2512233 0.2496925 0.2472355 0.2452059 0.2451675 0.2473671 0.2504376 0.2527525 0.2538275
 0.2542069 0.254274 0.2536913 0.2520183 0.2493722 0.2463843 0.2440169 0.2434307 0.2452056 0.2483836
 0.2510199 0.2520995 0.2523857 0.2531489 0.2546493 0.2561422 0.2568562 0.2565981 0.2556127 0.254146
 0.2523283 0.2505867 0.2498887 0.2510483 0.2537345 0.2565956 0.2585161 0.2594655 0.2598944 0.2594107
 0.2565253 0.2504401 0.243265 0.2394243 0.241749 0.2485173 0.255303 0.2593253 0.26097 0.2617146
 0.2621548 0.261835 0.2595052 0.2538048 0.2454033 0.2383444 0.2373001 0.2429413 0.2511769 0.2569771
 0.2578015 0.253859 0.2471934 0.2410714 0.238646 0.2410466 0.2468927 0.2536561 0.2591766 0.2622419
 0.2625666 0.2606821 0.2579119 0.2560493 0.2560529 0.2566293 0.2552184 0.2512267 0.2470141 0.2444303
 0.2419529 0.2375017 0.2329971 0.23309 0.2391112 0.2468455 0.2512734 0.2516624 0.2506502 0.2494466
 0.2457598 0.2370891 0.2254488 0.217458 0.2185504 0.2273367 0.2368498 0.2413698 0.2409661 0.2394508
 0.2392901 0.2390978 0.2356006 0.2279158 0.2197201 0.2161655 0.2184011 0.2225413 0.2242631 0.2222568
 0.216719 0.207967 0.1989134 0.1959438 0.2035199 0.2187067 0.2334798 0.2413312 0.2396342 0.2281914
 0.2101479 0.1938924 0.1889733 0.1975455 0.2117481 0.220935 0.2201177 0.2108381 0.1966142 0.1805449
 0.1667514 0.1607942 0.1663274 0.1814005 0.1985504 0.2085185 0.2053486 0.191009 0.1757968 0.1709282
 0.1783353 0.1893429 0.1944006 0.1917557 0.1860693 0.1823882 0.1832308 0.1882099 0.1944554 0.1992793
 0.2023178 0.2025519 0.1954201 0.1783083 0.1578955 0.1457841 0.1464416 0.1548706 0.1658966 0.1788243
 0.1914617 0.1969247 0.1914164 0.1814683 0.1784096 0.1863433 0.198622 0.2059745 0.2056829 0.2020916
 0.1998661 0.1989981 0.1971565 0.1951106 0.1969123 0.204315 0.2137154 0.2201709 0.2225331 0.2230071
 0.2233901 0.2237094 0.2234955 0.222588 0.2210457 0.2192757 0.2179163 0.2170986 0.2163046 0.2151183
 0.2132209 0.2093053 0.2014084 0.1898207 0.1788562 0.1734904 0.1741429 0.1770479 0.1797174 0.1823451
 0.1827553 0.174991 0.1571423 0.1377617 0.1296619 0.137557 0.1545511 0.1699804 0.1775694 0.1759908
 0.1657145 0.149218 0.1335358 0.1280827 0.1370617 0.1555065 0.1746046 0.1892133 0.1984765 0.2017824
 0.1979776 0.1883932 0.1779813 0.1725105 0.1751017 0.1848561 0.1971396 0.20476 0.2014807 0.1882302
 0.1759138 0.177379 0.1938958 0.2130081 0.2225306 0.2229028 0.2222492 0.2237436 0.2240306 0.2221019
 0.2228508 0.2303281 0.2417487 0.2502356 0.2508727 0.2426421 0.2277336 0.2120011 0.203474 0.2059571
 0.2147292 0.2216953 0.2232265 0.2196718 0.2105699 0.196716 0.1853117 0.1856142 0.1981919 0.2136596
 0.2233628 0.2272801 0.2301263 0.2332337 0.2329409 0.226158 0.2155422 0.2078722 0.2073485 0.2119125
 0.2167229 0.2192517 0.219341 0.2163355 0.2094923 0.201216 0.1970643 0.2009287 0.2110105 0.2215037
 0.2277814 0.2292786 0.2281131 0.226339 0.2245598 0.2221123 0.2184692 0.2150393 0.2148772 0.2194
 0.2260939 0.2310795 0.2335451 0.2360177 0.2404152 0.2454252 0.2481227 0.247178 0.244134 0.2420648
 0.2431008 0.2467188 0.2501209 0.2506194 0.2481884 0.245719 0.2463567 0.250512 0.2558206 0.2598317
 0.2620083 0.2632066 0.2642218 0.2651002 0.2651194 0.2633389 0.2599365 0.256992 0.2570185 0.2604685
 0.2652976 0.2690713 0.2709242 0.2714253 0.2712506 0.2704788 0.268985 0.2670819 0.2655245 0.2649143
 0.2652638 0.2661683 0.2672203 0.2681805 0.2689399 0.269493 0.2699074 0.2702374 0.2704942 0.2706941
 0.2708541 0.2709329 0.2708755 0.2707484 0.2707375 0.2709494 0.2712745 0.2715033 0.2715116 0.2712576
 0.270669 0.269669 0.2683097 0.2667548 0.2650926 0.2632795 0.2613764 0.2598032 0.2592098 0.2599882
 0.2619095 0.2642735 0.2663926 0.2679238 0.268847 0.2692919 0.2694297 0.2694236 0.2693741 0.2692912
 0.2691379 0.2688993 0.2685992 0.2682651 0.2679079 0.2675446 0.2672127 0.266942 0.266721 0.2665012
 0.2662297 0.2658742 0.2654368 0.2649491 0.2644387 0.2638918 0.2632554 0.2624831 0.261575 0.260581
 0.2595785 0.2586377 0.2577834 0.2569758 0.2561425 0.2552315 0.2542175 0.2530695 0.2517705 0.2503899
 0.2490802 0.2479556 0.2469991 0.2461066 0.2451788 0.2441543 0.2430056 0.2417485 0.240436 0.2391183
 0.2378082 0.2364875 0.2351288 0.2337101 0.232219 0.2306491 0.2289974 0.2272693 0.2254856 0.2236727
 0.2218286 0.219887 0.2177195 0.2151822 0.2121601 0.2085811 0.2044272 0.1997662 0.1947609 0.189624
 0.1845556 0.1797132 0.1752197 0.1711842 0.1677096 0.164878 0.1627313 0.1612806 0.1605249 0.1604568
 0.1610595 0.1623084 0.1641541 0.16649 0.1691519 0.171956 0.1747314 0.1773394 0.1797051 0.1818468
 0.1838493 0.1857834 0.1876476 0.1893865 0.1909586 0.1923653 0.1936139 0.1946864 0.1955661 0.1962723
 0.1968477 0.1973302 0.1977505 0.1981335 0.1984844 0.1987884 0.199038 0.1992518 0.1994655 0.1997072
 0.1999811 0.2002793 0.2006129 0.2010223 0.201549 0.2022029 0.2029586 0.2037715 0.2046003 0.2054302
 0.2062752 0.2071604 0.2081144 0.2091725 0.2103669 0.2117062 0.2131706 0.2147199 0.2162924 0.2178069
 0.2191813 0.2203543 0.2212961 0.2220048 0.2224916 0.2227749 0.2228884 0.2228782 0.2227743 0.222581
 0.2223031 0.2219585 0.2215566 0.2210926 0.2205686 0.220003 0.2194148 0.2188196 0.2182305 0.2176498
 0.2170672 0.2164794 0.2159017 0.2153525 0.2148336 0.2143279 0.2138187 0.2133089 0.2128139 0.2123299
 0.2118241 0.2112609 0.2106215 0.2098935 0.2090627 0.2081209 0.2070712 0.2059252 0.2047006 0.2034085
 0.2020431 0.2005923 0.1990552 0.1974384 0.1957458 0.1939781 0.1921277 0.1901775 0.1881332 0.1860577
 0.1840418 0.1821407 0.180354 0.1786609 0.1770528 0.1755401 0.174134 0.1728217 0.1715683 0.1703522
 0.1691823 0.1680705 0.1670076 0.1659802 0.1649992 0.1641011 0.1633253 0.1626843 0.1621497 0.1616775
 0.1612454 0.1608538 0.1605097 0.160233 0.1600586 0.1599945 0.1599847 0.1599407 0.1598085 0.1595966
 0.1593534 0.1591299 0.1589572 0.1588405 0.1587588 0.1586581 0.1584586 0.158081 0.1574628 0.1565534
 0.1553214 0.1537827 0.1520116 0.1501226 0.148248 0.1465137 0.1450097 0.1437795 0.1428292 0.1421238
 0.1415844 0.1411302 0.1407399 0.1404683 0.1403934 0.1405253 0.1407499 0.1408962 0.1408958 0.1408575
 0.1409639 0.1413192 0.1418985 0.1425902 0.1432661 0.1438423 0.1442941 0.1446205 0.144823 0.1449172
 0.144926 0.1448562 0.1447076 0.1444913 0.144219 0.1438962 0.1435288 0.1431058 0.1425906 0.1419677
 0.1412661 0.1405097 0.1396838 0.1387614 0.1377117 0.1365076 0.1352103 0.1340355 0.133264 0.1330725
 0.1334435 0.1341911 0.1350875 0.1360041 0.1368824 0.1375621 0.1378231 0.137744 0.1378835 0.1388815
 0.1408502 0.1432494 0.1453573 0.1467712 0.1474647 0.1475431 0.1470952 0.1461853 0.144816 0.1429314
 0.1405483 0.1378082 0.1348622 0.1318394 0.128932 0.1263458 0.1241732 0.12241 0.1210229 0.1200332
 0.1195783 0.1193283 0.1174728 0.1116485 0.1025667 0.09569098 0.09666778 0.1049839 0.1142966 0.1191508
 0.1193451 0.1177387 0.1163203 0.1153961 0.1148649 0.1148599 0.115505 0.1166692 0.1179804 0.1190504
 0.1197244 0.1200369 0.1199284 0.1190419 0.1166789 0.1120199 0.1047825 0.09582886 0.08687764 0.07948765
 0.07435042 0.07132415 0.06978825 0.06900425 0.06847464 0.06815897 0.06835675 0.06936197 0.07121728 0.07376498
 0.07682319 0.080172 0.08342375 0.08615652 0.08824629 0.08988589 0.09123544 0.09222852 0.09273873 0.09276056
 0.0923919 0.09176245 0.09100568 0.09021484 0.08937958 0.08840062 0.0872378 0.08606349 0.08518121 0.08473522
 0.08458786 0.08452711 0.08447438 0.08444218 0.08442524 0.08440156 0.0843662 0.08435312 0.08445819 0.0847742
 0.08525608 0.08572425 0.08603343 0.08618467 0.08626851 0.0863164 0.08619431 0.08571899 0.08496212 0.08428125
 0.08385926 0.08338486 0.08246259 0.08122369 0.08025232 0.07995148 0.08019017 0.0805379 0.08066333 0.08050811
 0.08025292 0.08020256 0.08057549 0.08124578</values></Ydata></ScSm><ScRf><Ydata ylabel="Single channel"><values byteorder="INTEL" format="FLOAT32" numvalues="1820"> 0.06049252 0.06065293 0.06075253 0.06078874 0.06078598 0.06079181 0.06085527 0.06099448 0.06118213 0.06136146
 0.06148425 0.06154211 0.06155524 0.06153533 0.06148708 0.06144951 0.06149262 0.06164671 0.06185309 0.06200258
 0.0620246 0.06195232 0.06190446 0.06197082 0.06209275 0.06208412 0.06180798 0.06133173 0.06087779 0.06061701
 0.06056596 0.06072053 0.06116023 0.0618353 0.06233406 0.06217836 0.06142235 0.06068035 0.06044558 0.06061834
 0.06079122 0.06072152 0.0604054 0.05998747 0.05980805 0.06031243 0.061612 0.06312156 0.06377029 0.06267919
 0.05978888 0.05605835 0.05311045 0.0523618 0.05402555 0.05682531 0.05895285 0.05951062 0.05894276 0.05812164
 0.05740742 0.05676021 0.05634822 0.05658018 0.05753889 0.05860132 0.05876298 0.0574988 0.05538954 0.05370851
 0.05326175 0.05388596 0.05513058 0.0567454 0.05798487 0.05721994 0.05354348 0.04879115 0.04671747 0.0494258
 0.05512414 0.05988003 0.06111956 0.05906581 0.0555884 0.05265199 0.05157509 0.05267977 0.05524454 0.0581068
 0.0603639 0.0614005 0.06073087 0.05842796 0.05553646 0.05355974 0.05353256 0.05561997 0.05908779 0.06236619
 0.06375844 0.06269341 0.06010755 0.05745671 0.05575862 0.05559051 0.05722683 0.06035519 0.0640611 0.06735694
 0.06958355 0.07047835 0.07023291 0.06937229 0.06835334 0.0674845 0.06720546 0.06782073 0.06877557 0.06886311
 0.06754021 0.06565596 0.06457821 0.06477864 0.06545565 0.06550814 0.06464897 0.06322476 0.0611264 0.05777267
 0.05344372 0.04963309 0.04755742 0.04723455 0.04837261 0.05083796 0.05360174 0.05467795 0.0532903 0.05125949
 0.05119243 0.05370127 0.05708516 0.05941422 0.06032025 0.06086648 0.06217384 0.06427236 0.06596008 0.06571174
 0.06319267 0.06010981 0.05900705 0.06076851 0.0637673 0.06586611 0.06667092 0.06729266 0.06840406 0.06919347
 0.06820919 0.06508416 0.06146018 0.05997037 0.06194548 0.06608501 0.06940091 0.06942237 0.06585813 0.06067307
 0.05655866 0.05506628 0.0561902 0.05939557 0.06421266 0.06969185 0.07415602 0.07613546 0.07543008 0.07304133
 0.07002616 0.06651472 0.06224522 0.05818495 0.05674215 0.05949541 0.06517465 0.07071567 0.07399375 0.07488812
 0.07409284 0.07180136 0.06790433 0.06327648 0.06020631 0.06061695 0.0637486 0.06658611 0.06701633 0.06575529
 0.06480278 0.06494834 0.06547458 0.0656922 0.06593606 0.067004 0.06901589 0.07111457 0.07228979 0.07229036
 0.07167062 0.07114506 0.07093789 0.0706183 0.06971484 0.0686662 0.0687639 0.0707331 0.07372831 0.07619965
 0.07744612 0.07786877 0.0779279 0.0773413 0.07549189 0.07258169 0.07010739 0.06974635 0.07173002 0.07469869
 0.07711738 0.07838073 0.07866593 0.07837498 0.0778634 0.07732891 0.07686964 0.07672779 0.07722601 0.07830265
 0.07941224 0.08007218 0.08025545 0.08013725 0.07974985 0.07906805 0.07826491 0.07770297 0.07766917 0.07816378
 0.07895536 0.07978702 0.08045942 0.080786 0.08066227 0.08021678 0.07973824 0.07941026 0.07923842 0.07922997
 0.07946632 0.07994536 0.08049065 0.08089583 0.08109076 0.08112678 0.08106524 0.08092961 0.08073863 0.08055434
 0.08048587 0.08061194 0.08088125 0.08114656 0.0813394 0.08154034 0.08181188 0.08204436 0.08207121 0.08189161
 0.0816804 0.08159734 0.08166001 0.08178872 0.08189481 0.0818978 0.08172001 0.08135547 0.08095756 0.08077854
 0.08096826 0.08146799 0.08210679 0.08272449 0.083194 0.08344109 0.08349916 0.08347499 0.08342566 0.08332036
 0.08313556 0.08294168 0.08287933 0.08305424 0.08344221 0.08389828 0.08427097 0.08449568 0.08459262 0.08463802
 0.08473727 0.08493863 0.08515184 0.08523027 0.0851551 0.08506925 0.08510736 0.08524603 0.08534689 0.08532058
 0.08522519 0.08520105 0.0853208 0.08552666 0.08571793 0.08586763 0.0860315 0.08625316 0.08647668 0.08657148
 0.08646704 0.08624944 0.0860796 0.08602543 0.08603451 0.08606657 0.08616588 0.08636709 0.08659732 0.08673535
 0.08674926 0.08672684 0.08676186 0.08684173 0.08686939 0.08677973 0.08660764 0.08644737 0.0863722 0.08639465
 0.0864742 0.08654509 0.08655185 0.08648083 0.08636379 0.08624595 0.08615369 0.08610277 0.08612983 0.08627959
 0.08653299 0.08676587 0.08682388 0.08666073 0.08639053 0.08618605 0.08612239 0.08612402 0.08605936 0.08587128
 0.0856116 0.08537057 0.08519767 0.08508487 0.08499746 0.08491172 0.08484254 0.08484338 0.08495295 0.08512062
 0.08521023 0.08511596 0.08486763 0.08459596 0.08440927 0.08433009 0.08432268 0.0843372 0.08434414 0.08436029
 0.08442186 0.08451007 0.08454309 0.0844727 0.08435282 0.08428773 0.08434612 0.08453038 0.08477402 0.08495612
 0.08497977 0.0848678 0.08474541 0.08471245 0.08476472 0.08484474 0.08492303 0.08500604 0.08509853 0.08519582
 0.08530761 0.08546297 0.0856816 0.08594467 0.08619706 0.08638285 0.08649158 0.08657795 0.08672599 0.08698024
 0.08730811 0.08762953 0.08788352 0.08807127 0.08823939 0.08842405 0.08862146 0.08882041 0.08904265 0.08932087
 0.08964638 0.08997269 0.09027019 0.09054986 0.0908335 0.09112588 0.09142148 0.09172715 0.09207161 0.09248061
 0.0929275 0.0933224 0.09358212 0.09371455 0.09381914 0.09400888 0.09433188 0.09473595 0.09509176 0.09529138
 0.09535986 0.09544021 0.09563681 0.0959083 0.09615429 0.09637098 0.09665778 0.09707598 0.097555 0.09795691
 0.09820776 0.09835257 0.09849323 0.09868196 0.09887882 0.09901785 0.09909946 0.09918736 0.09932086 0.09948206
 0.09966595 0.09992488 0.1002976 0.1007306 0.1011183 0.1014033 0.1016014 0.1017499 0.1018702 0.1019643
 0.1020213 0.1020408 0.1020603 0.1021291 0.1022418 0.1023343 0.1023681 0.1023828 0.1024456 0.1025834
 0.1027903 0.1030611 0.1033782 0.10369 0.1039566 0.1042112 0.1045268 0.1049022 0.1052293 0.1054067
 0.1054521 0.1054608 0.1054866 0.1055232 0.1055836 0.1057234 0.105972 0.1062925 0.1066315 0.1069724
 0.1073249 0.1076833 0.1080097 0.1082495 0.1083641 0.1083628 0.108308 0.1082897 0.1083829 0.1086117
 0.1089361 0.1092786 0.1095734 0.1097857 0.1098929 0.1098853 0.10981 0.109778 0.1098773 0.1100743
 0.1102319 0.1102268 0.1100272 0.1096624 0.1091589 0.1085355 0.1078423 0.1071722 0.1066193 0.1062317
 0.1060161 0.1059861 0.1061839 0.1066322 0.1072721 0.1079771 0.1086305 0.1091567 0.1094798 0.1095071
 0.1091954 0.1086086 0.1078817 0.107139 0.1064548 0.105847 0.1052807 0.104712 0.104177 0.1038309
 0.1038726 0.1044231 0.1054665 0.1068657 0.1084074 0.1098667 0.1110918 0.1120595 0.1128492 0.1135549
 0.1142262 0.1148829 0.1155448 0.1162139 0.116847 0.1173912 0.1178467 0.1182635 0.1186787 0.1190834
 0.1194451 0.119738 0.1199614 0.1201477 0.1203347 0.1205119 0.1206198 0.1206187 0.1205356 0.1204246
 0.1203026 0.1201387 0.1198867 0.1195237 0.119086 0.1186908 0.1185145 0.1187202 0.1193714 0.1203961
 0.1216391 0.1229549 0.1242448 0.1254179 0.1263716 0.1270482 0.1274876 0.1277938 0.1280593 0.1283328
 0.1286289 0.128941 0.1292499 0.1295417 0.12982 0.1301021 0.1304062 0.1307375 0.131075 0.1313798
 0.1316307 0.1318568 0.1321225 0.132468 0.1328658 0.1332464 0.1335734 0.133876 0.1341937 0.1345094
 0.1347708 0.1349643 0.1351353 0.1353412 0.1356134 0.1359532 0.1363254 0.1366619 0.1369088 0.1370806
 0.137243 0.1374436 0.1376795 0.1379262 0.1381716 0.1384162 0.1386614 0.1389131 0.1391868 0.1394889
 0.1397912 0.1400413 0.1402129 0.1403397 0.1404859 0.1406864 0.1409221 0.1411524 0.1413615 0.1415747
 0.1418303 0.142133 0.1424376 0.1426848 0.1428518 0.1429668 0.1430791 0.1432236 0.1434069 0.1436163
 0.1438345 0.1440509 0.1442644 0.1444798 0.1447007 0.1449252 0.1451462 0.1453575 0.1455588 0.1457566
 0.1459595 0.1461709 0.1463915 0.1466302 0.1469015 0.1472012 0.1474922 0.1477311 0.1479061 0.1480393
 0.1481585 0.1482836 0.1484304 0.1486069 0.1488059 0.1490129 0.1492203 0.1494271 0.14963 0.1498261
 0.1500216 0.1502275 0.1504468 0.1506718 0.1508951 0.1511198 0.1513515 0.1515855 0.1518071 0.1520066
 0.1521886 0.1523692 0.1525628 0.1527686 0.1529699 0.153151 0.1533153 0.1534819 0.1536642 0.1538601
 0.1540606 0.1542601 0.1544587 0.1546581 0.1548575 0.1550516 0.1552356 0.1554136 0.155598 0.1557991
 0.1560158 0.1562344 0.1564402 0.1566304 0.1568155 0.1570066 0.1572062 0.1574112 0.1576178 0.1578209
 0.1580158 0.1582035 0.1583905 0.1585819 0.1587769 0.1589716 0.1591657 0.1593644 0.1595717 0.159783
 0.1599902 0.1601903 0.1603868 0.1605853 0.160791 0.1610059 0.1612252 0.1614408 0.1616502 0.1618563
 0.1620627 0.1622732 0.1624922 0.162719 0.1629463 0.1631695 0.1633903 0.1636102 0.1638239 0.1640218
 0.1641971 0.1643549 0.16451 0.1646756 0.1648532 0.1650384 0.1652281 0.1654198 0.1656114 0.1658031
 0.1659968 0.1661922 0.1663881 0.1665839 0.1667794 0.1669764 0.167178 0.1673842 0.1675911 0.1677971
 0.1680026 0.1682042 0.1683998 0.1685955 0.1688002 0.1690166 0.1692421 0.1694721 0.169699 0.1699176
 0.1701282 0.1703328 0.1705313 0.170728 0.1709278 0.1711287 0.1713284 0.1715322 0.1717431 0.1719552
 0.1721648 0.1723738 0.1725807 0.172782 0.172981 0.1731831 0.1733881 0.173597 0.1738133 0.1740341
 0.1742541 0.174474 0.1746947 0.1749121 0.1751257 0.175339 0.1755489 0.1757528 0.1759571 0.1761672
 0.1763816 0.1765994 0.1768175 0.177014 0.1771408 0.1770891 0.1765969 0.1751444 0.1719305 0.1660197
 0.1567112 0.1439794 0.1286363 0.1120417 0.09559606 0.08037257 0.06701031 0.05579747 0.04681215 0.04001062
 0.03527607 0.0325017 0.03168663 0.03304655 0.03713104 0.04449019 0.05443995 0.06398952 0.06901877 0.06753077
 0.06155847 0.05531081 0.05168005 0.05085666 0.05159736 0.05285204 0.05429683 0.05613196 0.0586877 0.06204561
 0.06602886 0.07062174 0.07617139 0.08294044 0.09057544 0.09825879 0.105416 0.1121599 0.119011 0.1262622
 0.1336714 0.1407051 0.1469664 0.1523877 0.1571361 0.1614289 0.1654176 0.1691811 0.1727666 0.1761749
 0.1792808 0.181814 0.1834988 0.1842602 0.1843121 0.1840379 0.1837742 0.1836826 0.1837839 0.1840535
 0.1844688 0.1850094 0.1856538 0.1863776 0.1871497 0.1879412 0.1887338 0.1895125 0.1902608 0.1909688
 0.1916315 0.192239 0.1927823 0.1932671 0.1937104 0.1941271 0.1945256 0.1949053 0.1952596 0.1955892
 0.1959067 0.1962208 0.196523 0.1968002 0.1970491 0.1972757 0.1974916 0.1977102 0.1979347 0.1981543
 0.1983598 0.198556 0.198753 0.1989552 0.1991619 0.1993693 0.1995719 0.1997688 0.1999647 0.2001622
 0.2003585 0.2005533 0.2007495 0.2009457 0.2011394 0.2013341 0.2015338 0.2017331 0.2019215 0.2020963
 0.2022673 0.202449 0.2026486 0.2028601 0.2030748 0.2032938 0.2035219 0.2037517 0.203969 0.204171
 0.2043662 0.2045626 0.2047645 0.2049758 0.2051913 0.205393 0.2055655 0.2057149 0.205869 0.2060571
 0.2062831 0.2065197 0.2067357 0.2069252 0.2071032 0.2072816 0.2074623 0.207643 0.2078266 0.2080284
 0.2082672 0.2085382 0.2088083 0.209054 0.2092833 0.2095111 0.2097395 0.209969 0.2101986 0.2104054
 0.2105598 0.2106748 0.21082 0.211068 0.2114218 0.2118039 0.2121298 0.2123832 0.2126058 0.2128399
 0.2131029 0.2133771 0.2135832 0.2136289 0.2135503 0.2135486 0.2138098 0.2143171 0.2148918 0.2153758
 0.2157329 0.2160124 0.2162662 0.2164955 0.2166514 0.2166923 0.216661 0.2167031 0.2169666 0.2174542
 0.2180081 0.2184669 0.2187902 0.2190166 0.2191864 0.2193294 0.2194196 0.2193207 0.2189373 0.2184773
 0.2183961 0.2189533 0.2199149 0.2207985 0.2213467 0.2216588 0.2219201 0.2221783 0.2223918 0.2224744
 0.2221941 0.2213022 0.220013 0.2191432 0.2194372 0.2208141 0.2225035 0.2238203 0.2245982 0.2250134
 0.2252827 0.22552 0.2256485 0.2254079 0.224641 0.2236722 0.2232271 0.2237655 0.2249702 0.2260911
 0.226715 0.2269864 0.2272054 0.2274878 0.2276841 0.2273417 0.2259626 0.2237407 0.221927 0.2219477
 0.2240094 0.2268511 0.2289911 0.2299969 0.2303705 0.2304614 0.2299584 0.2284553 0.2260593 0.2233508
 0.2212095 0.2206911 0.2223226 0.2252312 0.2276461 0.228647 0.2289367 0.2296753 0.2310954 0.2325121
 0.2332173 0.2330303 0.2321721 0.2308671 0.2292344 0.2276649 0.2270499 0.2281453 0.2306563 0.2333402
 0.2351577 0.2360642 0.2364734 0.2360431 0.2334257 0.2278926 0.2213659 0.2178824 0.2200272 0.2262328
 0.2324658 0.2361909 0.2377563 0.2385016 0.2389581 0.2387016 0.2365961 0.2314107 0.2237607 0.217336
 0.2164066 0.2215933 0.2291629 0.2345193 0.2353399 0.2318115 0.2257927 0.2202574 0.2180823 0.2203065
 0.2256843 0.2319165 0.2370259 0.2398952 0.240259 0.2386012 0.2361265 0.2344706 0.2345094 0.2350603
 0.2337869 0.2301612 0.2263551 0.2240546 0.2218488 0.2178267 0.2137624 0.2139378 0.2195762 0.2267929
 0.2309613 0.2314053 0.2305551 0.229522 0.2261892 0.218255 0.2075912 0.2003206 0.2014627 0.2097241
 0.2186556 0.222967 0.2227262 0.2214632 0.221463 0.2214411 0.2183588 0.2113969 0.203979 0.2008952
 0.2031986 0.2072602 0.2090609 0.207386 0.2024036 0.1943937 0.1860874 0.1834841 0.1907824 0.2052403
 0.2193322 0.2269429 0.2255858 0.2150438 0.1982611 0.1831701 0.1788264 0.1872834 0.2010903 0.2101522
 0.2097346 0.2012803 0.1880989 0.1731349 0.1603756 0.1552367 0.1613005 0.1766955 0.1941466 0.20457
 0.2020733 0.188564 0.1742207 0.1701707 0.1783189 0.1900032 0.1956964 0.1936592 0.1885621 0.1854934
 0.1870405 0.1928233 0.1998834 0.2054681 0.2092297 0.2100705 0.2031587 0.1857271 0.1647598 0.1523982
 0.153329 0.1623626 0.1741408 0.187961 0.2014745 0.2073714 0.2016252 0.1911308 0.1878424 0.1960792
 0.2088278 0.2163278 0.2157317 0.2116269 0.2089472 0.2077214 0.2055253 0.2031585 0.2048451 0.2124081
 0.2220829 0.2287168 0.2311261 0.2316311 0.2321178 0.2326024 0.2325678 0.2318375 0.2304917 0.2289762
 0.2279652 0.2276026 0.2273677 0.2268602 0.2257663 0.2226496 0.2152623 0.2037038 0.1924339 0.1867392
 0.1871267 0.1896872 0.1919127 0.1941486 0.194156 0.1856048 0.1664333 0.1456853 0.1369245 0.1451309
 0.1629947 0.1792446 0.1872812 0.1857364 0.1750968 0.1578971 0.1414151 0.1354049 0.1441477 0.1623414
 0.1807643 0.1942287 0.2021921 0.2043447 0.1996023 0.1892417 0.1781952 0.1722338 0.1744304 0.1837945
 0.1956251 0.2027489 0.1990228 0.1854298 0.1727754 0.1737296 0.1895398 0.207954 0.2169907 0.2170755
 0.2161938 0.2174813 0.2176588 0.2157329 0.2164975 0.2239462 0.2353948 0.2441314 0.2453156 0.2378903
 0.2239607 0.2092794 0.2017444 0.2050283 0.2143334 0.2215537 0.2230889 0.2193548 0.2100061 0.1959641
 0.1844932 0.1848233 0.1974589 0.2129837 0.2227568 0.2267759 0.2297522 0.2330019 0.2328585 0.226242
 0.2158195 0.2083639 0.2080552 0.2128224 0.2178445 0.2206354 0.2210562 0.2184202 0.211927 0.2039545
 0.2000899 0.2042659 0.2146667 0.2254018 0.231754 0.2331222 0.2316423 0.229411 0.2270786 0.2240229
 0.2197443 0.2156702 0.2148723 0.218788 0.2249297 0.229444 0.231523 0.2336652 0.2377533 0.2424638
 0.244876 0.2436537 0.2403117 0.2378916 0.2385179 0.2417147 0.2447673 0.2450415 0.2424861 0.2399113
 0.2403999 0.2443686 0.2495133 0.2534339 0.2555882 0.2567914 0.2578124 0.2587011 0.2587483 0.2570194
 0.253678 0.2507626 0.2507455 0.2540815 0.2587751 0.2624415 0.2642358 0.2647302 0.2646027 0.2639269
 0.2625546 0.2607561 0.2592456 0.258612 0.2588881 0.2596972 0.2606474 0.2615043 0.2621583 0.2625977
 0.2628805 0.2630621 0.2631734 0.2632626 0.2633676 0.2634349 0.2633724 0.2632237 0.263188 0.2633958
 0.2637379 0.2639869 0.2640131 0.2637879 0.2632508 0.2623224 0.2610502 0.2596044 0.2580813 0.2564322
 0.2547014 0.253291 0.2528371 0.2537244 0.2557268 0.2581519 0.2603175 0.261889 0.2628638 0.2633834
 0.2636071 0.2636693 0.2636548 0.2635861 0.2634498 0.2632402 0.2629693 0.2626469 0.2622736 0.2618645
 0.2614677 0.261136 0.2608747 0.2606279 0.2603231 0.2599244 0.2594458 0.2589248 0.2583877 0.2578252
 0.2571953 0.2564536 0.2555892 0.25464 0.253679 0.2527784 0.2519634 0.2511989 0.2504296 0.2496246
 0.2487622 0.247794 0.2466849 0.245501 0.2444029 0.2435141 0.2428182 0.2421995 0.2415454 0.240791
 0.2399117 0.2389257 0.2378882 0.2368456 0.2357997 0.2347218 0.2335815 0.2323504 0.231004 0.229541
 0.2279864 0.2263701 0.2247188 0.2230577 0.2213856 0.2196345 0.2176724 0.2153524 0.2125565 0.2092085
 0.2052855 0.2008448 0.1960392 0.1910838 0.186189 0.1815168 0.1771889 0.1733124 0.1699791 0.1672527
 0.1651707 0.1637573 0.1630332 0.163016 0.1637103 0.1650852 0.1670599 0.1695143 0.1723077 0.1752848
 0.1782757 0.1811167 0.1837024 0.1860357 0.1882076 0.1902996 0.1923043 0.1941518 0.1957937 0.1972286
 0.1984645 0.1994974 0.200336 0.2010189 0.201596 0.2021004 0.2025433 0.2029268 0.2032517 0.2035138
 0.20371 0.2038575 0.2039944 0.2041567 0.2043584 0.204597 0.2048673 0.205172 0.205529 0.2059617
 0.2064733 0.2070366 0.2076177 0.2082041 0.2088071 0.2094519 0.2101707 0.2109977 0.2119625 0.2130813
 0.2143461 0.2157148 0.2171145 0.2184551 0.2196513 0.2206441 0.2214084 0.2219386 0.2222382 0.2223279
 0.222249 0.2220436 0.2217374 0.221346 0.2208863 0.2203725 0.2198097 0.2191973 0.2185365 0.2178348
 0.2171089 0.2163851 0.2156885 0.2150249 0.2143769 0.2137263 0.2130773 0.2124492 0.211846 0.2112523
 0.2106595 0.2100787 0.2095209 0.2089779 0.2084263 0.2078384 0.207185 0.2064451 0.2056195 0.2047226
 0.2037527 0.2026831 0.2014932 0.2001975 0.1988261 0.1973886 0.1958738 0.1942819 0.192632 0.1909293
 0.1891408 0.1872253 0.1851925 0.1831257 0.1811369 0.1792973 0.1776101 0.176036 0.1745366 0.173101
 0.1717436 0.1704759 0.1692841 0.1681429 0.1670415 0.1659841 0.1649725 0.1640041 0.1630874 0.1622467
 0.1615103 0.1608883 0.1603633 0.1599086 0.1595147 0.1591855 0.1589253 0.158745 0.1586634 0.1586737
 0.1587227 0.1587438 0.1587036 0.1586093 0.1584904 0.1583793 0.1582938 0.1582346 0.1581906 0.158131
 0.1579905 0.1576792 0.1571097 0.1562215 0.1550007 0.1534859 0.1517477 0.1498792 0.1480127 0.1463058
 0.1448734 0.1437488 0.1429068 0.1422869 0.1418051 0.1413935 0.1410455 0.1408123 0.1407595 0.140902
 0.1411489 0.141344 0.1414137 0.1414544 0.141641 0.1420764 0.1427321 0.1434872 0.1442117 0.1448399
 0.1453638 0.1457684 0.1460288 0.1461593 0.1462007 0.1461682 0.1460601 0.1458879 0.145659 0.1453658
 0.1450081 0.1445859 0.1440822 0.1434921 0.1428327 0.1421047 0.1412908 0.1403864 0.1393769 0.1382305
 0.1370028 0.1359061 0.135206 0.1350663 0.1354843 0.1363043 0.1373114 0.1383635 0.1393747 0.140163
 0.1405115 0.1405171 0.1407403 0.1418036 0.1438102 0.1462294 0.1483572 0.1498145 0.1505878 0.1507606
 0.1503879 0.1495314 0.1482102 0.1463644 0.1439908 0.1412238 0.1382195 0.13512 0.1321402 0.1294988
 0.1272828 0.1254903 0.1241078 0.1231643 0.12278 0.1225905 0.1207243 0.1147636 0.1054717 0.09848251
 0.09957024 0.1081627 0.1177335 0.1226966 0.1228614 0.1211811 0.1197121 0.1187604 0.1182065 0.1181932
 0.1188597 0.1200648 0.1214176 0.1225159 0.1231899 0.1234724 0.1233292 0.122418 0.1200135 0.1152564
 0.1078477 0.09865496 0.0894299 0.08179288 0.07648501 0.07336465 0.07177986 0.07096133 0.07039653 0.07006006
 0.07028601 0.07137726 0.0733509 0.07603239 0.07923891 0.08273087 0.08609164 0.08889899 0.09104648 0.09273123
 0.09411103 0.09512267 0.09564141 0.09566505 0.09529918 0.0946679 0.09388891 0.09305936 0.09218836 0.09118074
 0.08999117 0.0887977 0.08790843 0.08746536 0.08733998 0.0873292 0.08733113 0.08731921 0.08727762 0.08720614
 0.08713081 0.0871107 0.08724482 0.08760299 0.08811758 0.08860219 0.08890295 0.08901186 0.0890358 0.08903691
 0.08888726 0.08838426 0.08758472 0.08684584 0.086355 0.08580236 0.08479038 0.0834582 0.08241655 0.0820878
 0.08232874 0.08269055 0.08284207 0.08271474 0.08245319 0.08234727 0.08265067 0.08328429 0.08380126 0.08380856
</values></Ydata></ScRf><Data_Parameters_AB><parameter name="DPF">1</parameter><parameter name="NPT">3497</parameter><parameter name="FXV">3996</parameter><parameter name="LXV">500</parameter><parameter name="CSF">1</parameter><parameter name="MXY">0.0319860316812992</parameter><parameter name="MNY">-0.0631304904818535</parameter><parameter name="DAT">30/05/2022</parameter><parameter name="TIM">12:04:28.953 (GMT+2)</parameter><parameter name="DXU">WN</parameter></Data_Parameters_AB><AB__Qtest><MainReport name="Quality Test Report"><Header><Line><Legend>Test result ok/not ok [1/0]: </Legend><Value>0</Value></Line><Line><Legend>Method file: </Legend><Value>C:\Users\Public\Documents\Bruker\OPUS_8.2.28\QT\IRBT_v3_default.QT</Value></Line></Header><Matrix><Line><Legend></Legend><Legend>min</Legend><Legend>max</Legend><Legend>measured</Legend></Line><Line><Value>Absorption (X-Range 1):</Value><Value>0.400000</Value><Value>2.000000</Value><Value>0.068715</Value></Line><Line><Value>Noise (X-Range 4):</Value><Value></Value><Value>0.000300</Value><Value>0.000061</Value></Line><Line><Value>Signal/Noise (X-Range 2):</Value><Value>200.000000</Value><Value></Value><Value>21.484525</Value></Line><Line><Value>Signal/Noise (X-Range 3):</Value><Value>40.000000</Value><Value></Value><Value>9.016880</Value></Line><Line><Value>Water vapour (X-Range 5):</Value><Value></Value><Value>0.000300</Value><Value>0.000050</Value></Line><Line><Value>Signal/Water (X-Range 2):</Value><Value>100.000000</Value><Value></Value><Value>26.276022</Value></Line><Line><Value>Signal/Water (X-Range 3):</Value><Value>20.000000</Value><Value></Value><Value>11.027832</Value></Line><Line><Value>Fringes (X-Range 6):</Value><Value></Value><Value>0.000100</Value><Value>0.000060</Value></Line></Matrix></MainReport></AB__Qtest><Data_Parameters_ScSm><parameter name="DPF">1</parameter><parameter name="NPT">1814</parameter><parameter name="FXV">3996.33169228125</parameter><parameter name="LXV">499.541461535156</parameter><parameter name="CSF">1</parameter><parameter name="MXY">0.271511614322662</parameter><parameter name="MNY">0.0360154360532761</parameter><parameter name="DAT">30/05/2022</parameter><parameter name="TIM">12:04:28.953 (GMT+2)</parameter><parameter name="DXU">WN</parameter></Data_Parameters_ScSm><Data_Parameters_ScRf><parameter name="DPF">1</parameter><parameter name="NPT">1820</parameter><parameter name="FXV">4004.04661832813</parameter><parameter name="LXV">495.683998511719</parameter><parameter name="CSF">1</parameter><parameter name="MXY">0.264730215072632</parameter><parameter name="MNY">0.0316866338253021</parameter><parameter name="DAT">30/05/2022</parameter><parameter name="TIM">12:04:02.757 (GMT+2)</parameter><parameter name="DXU">WN</parameter></Data_Parameters_ScRf><Optic_Parameters_Rf><parameter name="APR">0</parameter><parameter name="APT">Open</parameter><parameter name="BMS">KBr</parameter><parameter name="DTC">RT-DLaTGS_IR-Biotyper [Microplate reader]</parameter><parameter name="HPF">0</parameter><parameter name="LPF">10.0</parameter><parameter name="LPV">4000</parameter><parameter name="PGR">0</parameter><parameter name="RCH">Module port</parameter><parameter name="RDX">0</parameter><parameter name="SRC">MIR</parameter><parameter name="VEL">10.0</parameter><parameter name="SON">Off</parameter></Optic_Parameters_Rf><Acquisition_Parameters_Rf><parameter name="ADT">1</parameter><parameter name="AQM">DD</parameter><parameter name="CFE">0</parameter><parameter name="COR">0</parameter><parameter name="DEL">0</parameter><parameter name="DLY">0</parameter><parameter name="HFW">8000</parameter><parameter name="LFW">0</parameter><parameter name="NSR">32</parameter><parameter name="PLF">AB</parameter><parameter name="RES">6</parameter><parameter name="RGN">-1</parameter><parameter name="STR">0</parameter><parameter name="TCL">MakeCompatibleScalar (0, {WSV=1.000000, ARV=0});</parameter><parameter name="TDL">37</parameter><parameter name="RPO">0</parameter></Acquisition_Parameters_Rf><FT_-_Parameters_Rf><parameter name="APF">B3</parameter><parameter name="HFQ">500</parameter><parameter name="LFQ">4000</parameter><parameter name="NLI">0</parameter><parameter name="PHR">24</parameter><parameter name="PHZ">ML</parameter><parameter name="SPZ">NO</parameter><parameter name="ZFF">1</parameter></FT_-_Parameters_Rf><Optic_Parameters_><parameter name="APR">0</parameter><parameter name="APT">Open</parameter><parameter name="BMS">KBr</parameter><parameter name="CHN">Module port</parameter><parameter name="DTC">RT-DLaTGS_IR-Biotyper [Microplate reader]</parameter><parameter name="HPF">0</parameter><parameter name="LPF">10.0</parameter><parameter name="LPV">4000</parameter><parameter name="PGN">0</parameter><parameter name="RDX">0</parameter><parameter name="SRC">MIR</parameter><parameter name="VEL">10.0</parameter><parameter name="SON">Off</parameter></Optic_Parameters_><FT_-_Parameters_><parameter name="APF">B3</parameter><parameter name="HFQ">500</parameter><parameter name="LFQ">4000</parameter><parameter name="NLI">0</parameter><parameter name="PHR">24</parameter><parameter name="PHZ">ML</parameter><parameter name="SPZ">NO</parameter><parameter name="ZFF">1</parameter></FT_-_Parameters_><Acquisition_Parameters_><parameter name="ADT">1</parameter><parameter name="AQM">DD</parameter><parameter name="CFE">0</parameter><parameter name="COR">0</parameter><parameter name="DEL">0</parameter><parameter name="DLY">0</parameter><parameter name="HFW">8000</parameter><parameter name="LFW">0</parameter><parameter name="NSS">32</parameter><parameter name="PLF">AB</parameter><parameter name="RES">6</parameter><parameter name="SOT">0</parameter><parameter name="TCL">MakeCompatibleScalar (0, {WSV=1.000000, ARV=0});</parameter><parameter name="TDL">37</parameter><parameter name="SPO">0</parameter><parameter name="SGN">-1</parameter></Acquisition_Parameters_><Instrument_Parameters_Rf><parameter name="HFL">15800.168544</parameter><parameter name="LFL">0</parameter><parameter name="LWN">15800.168544</parameter><parameter name="ABP">32197</parameter><parameter name="SSP">1</parameter><parameter name="ARG">2</parameter><parameter name="ASG">2</parameter><parameter name="ASS">32</parameter><parameter name="GFW">16</parameter><parameter name="GBW">16</parameter><parameter name="BFW">0</parameter><parameter name="BBW">0</parameter><parameter name="PKA">7289</parameter><parameter name="PKL">4996</parameter><parameter name="PRA">7464</parameter><parameter name="PRL">5001</parameter><parameter name="P2A">1</parameter><parameter name="P2L">1</parameter><parameter name="P2R">1</parameter><parameter name="P2K">1</parameter><parameter name="DAQ">0</parameter><parameter name="AG2">1</parameter><parameter name="SSM">1</parameter><parameter name="RSN">25288</parameter><parameter name="CRR">0</parameter><parameter name="SRT">1653912242.758</parameter><parameter name="DUR">19.6379852294922</parameter><parameter name="TSC">28.2</parameter><parameter name="MVD">0.514732718467712</parameter><parameter name="AN1">0.225802540411766</parameter><parameter name="AN2">0</parameter><parameter name="VSN">2.485 Apr  4 2017</parameter><parameter name="SRN">0085</parameter><parameter name="CAM">0</parameter><parameter name="INS">IR-Biotyper</parameter><parameter name="FOC">69</parameter><parameter name="RDY">1</parameter><parameter name="ARS">32</parameter></Instrument_Parameters_Rf><Sample_Parameters_><parameter name="BLD"></parameter><parameter name="CNM">Admin</parameter><parameter name="CPY"></parameter><parameter name="DPM"></parameter><parameter name="EXP">IRBT_v3_32Scans.XPM</parameter><parameter name="LCT"></parameter><parameter name="SFM">Microplate, HTS-XT</parameter><parameter name="SNM">220530-1021_AML29F (D_2)_C9_46f86e63-d4d5-40e5-a130-492d9bff8c46.0</parameter><parameter name="XPP">C:\Users\Public\Documents\Bruker\OPUS_8.2.28\XPM</parameter><parameter name="IST">OK</parameter><parameter name="CPG">1252</parameter><parameter name="UID">a1d4374c-3237-499b-bc56-6071d449dce7</parameter></Sample_Parameters_><Instrument_Parameters_><parameter name="HFL">15800.168544</parameter><parameter name="LFL">0</parameter><parameter name="LWN">15800.168544</parameter><parameter name="ABP">32197</parameter><parameter name="SSP">1</parameter><parameter name="ASG">2</parameter><parameter name="ARG">2</parameter><parameter name="ASS">32</parameter><parameter name="GFW">16</parameter><parameter name="GBW">16</parameter><parameter name="BFW">0</parameter><parameter name="BBW">0</parameter><parameter name="PKA">7742</parameter><parameter name="PKL">4988</parameter><parameter name="PRA">8001</parameter><parameter name="PRL">4993</parameter><parameter name="P2A">1</parameter><parameter name="P2L">1</parameter><parameter name="P2R">1</parameter><parameter name="P2K">1</parameter><parameter name="DAQ">0</parameter><parameter name="AG2">1</parameter><parameter name="SSM">1</parameter><parameter name="RSN">13270</parameter><parameter name="CRR">0</parameter><parameter name="SRT">1653912268.954</parameter><parameter name="DUR">19.6369934082031</parameter><parameter name="TSC">28.1</parameter><parameter name="MVD">0.394843697547913</parameter><parameter name="AN1">0.225830795218846</parameter><parameter name="AN2">0</parameter><parameter name="VSN">2.485 Apr  4 2017</parameter><parameter name="SRN">0085</parameter><parameter name="CAM">0</parameter><parameter name="INS">IR-Biotyper</parameter><parameter name="FOC">69</parameter><parameter name="RDY">1</parameter></Instrument_Parameters_><History/></OPUSDataFile>
