<?xml version="1.0" encoding="UTF-8" ?>
<OPUSDataFile><AB><Ydata ylabel="Absorbance Units"><values byteorder="INTEL" format="FLOAT32" numvalues="3497"> -0.0888153 -0.08884821 -0.08889075 -0.08894408 -0.08899155 -0.08903228 -0.08904763 -0.0890386 -0.08901146 -0.08897062
 -0.08894615 -0.08893836 -0.08896732 -0.08902382 -0.089097 -0.08917711 -0.08924113 -0.08929097 -0.08931846 -0.08933222
 -0.08933785 -0.0893366 -0.08933198 -0.08931826 -0.08929301 -0.08925704 -0.0892086 -0.08915759 -0.08910486 -0.08906089
 -0.08902672 -0.08900961 -0.08900999 -0.0890298 -0.08906831 -0.08911654 -0.08917283 -0.0892216 -0.08926427 -0.0892961
 -0.08932255 -0.08935474 -0.08939521 -0.08945579 -0.08952899 -0.08961289 -0.08969454 -0.08976254 -0.08981106 -0.08983205
 -0.08983134 -0.08980835 -0.0897728 -0.08972681 -0.0896774 -0.08962558 -0.08957835 -0.08953609 -0.08950918 -0.08949824
 -0.08951177 -0.08954931 -0.08960763 -0.08968414 -0.08976205 -0.08983873 -0.08989517 -0.08993176 -0.08993826 -0.08992074
 -0.08988177 -0.08983462 -0.08979484 -0.08977323 -0.08978798 -0.08982833 -0.08989891 -0.08996769 -0.09002296 -0.09004667
 -0.09002712 -0.08998476 -0.08991907 -0.08986437 -0.08982449 -0.08981553 -0.08983863 -0.08989125 -0.08997251 -0.09007117
 -0.09018446 -0.09029093 -0.09038631 -0.09044112 -0.09045882 -0.09042872 -0.09036665 -0.09029365 -0.09022301 -0.0901807
 -0.09016584 -0.09018946 -0.0902362 -0.09030275 -0.09036875 -0.09042413 -0.090464 -0.09048233 -0.09049576 -0.09050611
 -0.09052718 -0.0905619 -0.09059939 -0.0906392 -0.09066124 -0.0906661 -0.09065783 -0.09064021 -0.0906402 -0.0906579
 -0.09071072 -0.0907902 -0.09088575 -0.09098667 -0.09106719 -0.09112982 -0.09116442 -0.09118513 -0.09120312 -0.09121864
 -0.09123795 -0.09124701 -0.09123786 -0.09121817 -0.09118255 -0.09117173 -0.09119084 -0.09127706 -0.09143804 -0.09165563
 -0.09193002 -0.09213807 -0.09227431 -0.09222286 -0.09200502 -0.09170167 -0.09133451 -0.09103271 -0.09078965 -0.09065454
 -0.09061018 -0.09065422 -0.09075928 -0.09089582 -0.09103347 -0.09113386 -0.09119347 -0.09119269 -0.09116366 -0.09111437
 -0.09106952 -0.09104113 -0.09101947 -0.09100541 -0.09098277 -0.09094875 -0.09090877 -0.09086286 -0.09083298 -0.09082001
 -0.09084141 -0.09089519 -0.09097954 -0.09108767 -0.09119427 -0.09129155 -0.09134495 -0.09135693 -0.0913117 -0.09122669
 -0.09111443 -0.09099522 -0.09089048 -0.0908104 -0.09076796 -0.09076117 -0.090794 -0.09085458 -0.09094221 -0.09103918
 -0.09114315 -0.09123698 -0.091319 -0.09137344 -0.09139927 -0.09138356 -0.09132673 -0.09123274 -0.09110477 -0.09096531
 -0.09081746 -0.09068491 -0.09056897 -0.09048484 -0.09043223 -0.09041943 -0.09044005 -0.09049374 -0.09056237 -0.09063296
 -0.09068557 -0.09070192 -0.0906836 -0.09062216 -0.09054421 -0.09045384 -0.090378 -0.09032328 -0.09029613 -0.09029866
 -0.09032404 -0.09037202 -0.09043464 -0.09051119 -0.09058966 -0.09066866 -0.09073162 -0.09077957 -0.09080613 -0.09081674
 -0.09082217 -0.0908266 -0.09084368 -0.09087138 -0.09091305 -0.09096442 -0.09102094 -0.09108642 -0.09115966 -0.09125216
 -0.09137053 -0.09151261 -0.09168442 -0.09185332 -0.09201598 -0.09213697 -0.09221046 -0.0922359 -0.09221295 -0.09214181
 -0.09202189 -0.09183755 -0.0915942 -0.09131864 -0.09102362 -0.09077592 -0.09057932 -0.09048231 -0.0904699 -0.09054597
 -0.09067293 -0.09080554 -0.09091815 -0.09096338 -0.09096423 -0.09091845 -0.0908583 -0.09079963 -0.0907485 -0.09071223
 -0.09067628 -0.09063882 -0.09059037 -0.09052813 -0.09046547 -0.09040281 -0.09036431 -0.09035069 -0.09037601 -0.09043825
 -0.09053343 -0.09065311 -0.09076469 -0.09085426 -0.0908624 -0.09079694 -0.09063406 -0.09041443 -0.09018082 -0.08995984
 -0.08979639 -0.08967815 -0.08961669 -0.08957298 -0.08953418 -0.08947085 -0.08936744 -0.08923487 -0.0890701 -0.08890427
 -0.08874127 -0.08859435 -0.08846501 -0.08834202 -0.08822493 -0.08810347 -0.08798004 -0.08786808 -0.08776899 -0.08769725
 -0.08764889 -0.08761985 -0.08760846 -0.0876097 -0.08762371 -0.08765185 -0.08768481 -0.08771938 -0.08773389 -0.08771421
 -0.08764751 -0.08752247 -0.08734577 -0.08711725 -0.08684251 -0.08652153 -0.08616446 -0.08577079 -0.08536737 -0.0849559
 -0.0845582 -0.08417484 -0.08381358 -0.08347494 -0.08316723 -0.08289028 -0.08265051 -0.08244198 -0.08225263 -0.08207587
 -0.08189123 -0.08170285 -0.08150808 -0.08131091 -0.08112065 -0.08091772 -0.08069529 -0.08042933 -0.08010028 -0.07972842
 -0.07931201 -0.0788886 -0.07846621 -0.07806002 -0.07767335 -0.07730577 -0.07695747 -0.07662636 -0.07631266 -0.07602205
 -0.0757549 -0.07551997 -0.07531132 -0.07511418 -0.07491072 -0.07464168 -0.07430235 -0.07384148 -0.07330257 -0.07271885
 -0.07213319 -0.07160409 -0.07112735 -0.07072232 -0.0703577 -0.07002675 -0.06969721 -0.06935622 -0.06899638 -0.06861147
 -0.06822086 -0.06782668 -0.0674387 -0.06705857 -0.06666217 -0.06624799 -0.0657832 -0.06527059 -0.06471443 -0.06412359
 -0.06353848 -0.06296456 -0.06243934 -0.06195911 -0.06153833 -0.06116067 -0.06081427 -0.06047539 -0.06011579 -0.05972942
 -0.05929855 -0.05884542 -0.05837653 -0.05790482 -0.05744093 -0.0569614 -0.05646309 -0.05592814 -0.05534951 -0.05476737
 -0.05418335 -0.05365387 -0.05317983 -0.05276582 -0.05240715 -0.05206887 -0.05174794 -0.05141178 -0.05106311 -0.05069172
 -0.0503039 -0.04990784 -0.04950549 -0.0491058 -0.04869984 -0.04828452 -0.04784602 -0.04737165 -0.04686409 -0.04631556
 -0.04575559 -0.04518994 -0.04464693 -0.04413506 -0.04365707 -0.04321614 -0.04279177 -0.04238309 -0.04196297 -0.04153061
 -0.04107559 -0.04059988 -0.04011538 -0.03962234 -0.03912965 -0.03863239 -0.0381192 -0.03759051 -0.03703677 -0.03647349
 -0.0359161 -0.03538096 -0.03489306 -0.03444706 -0.03405111 -0.03368205 -0.0333321 -0.03298307 -0.032626 -0.03226134
 -0.0318868 -0.03151194 -0.0311387 -0.0307636 -0.03038719 -0.02998638 -0.02956024 -0.02909125 -0.0285823 -0.0280484
 -0.02749552 -0.02695992 -0.02644172 -0.02596242 -0.02551311 -0.02508709 -0.02467506 -0.02425909 -0.02384121 -0.02341406
 -0.0229909 -0.02257896 -0.02218517 -0.02181916 -0.02146373 -0.02111869 -0.02075462 -0.0203641 -0.01993794 -0.01947179
 -0.01898596 -0.01848114 -0.01798622 -0.01750235 -0.01704678 -0.0166189 -0.01622143 -0.01585245 -0.01550539 -0.01517769
 -0.01485904 -0.01454684 -0.01423107 -0.01391077 -0.01357958 -0.01324047 -0.01289346 -0.01254302 -0.01219389 -0.01184236
 -0.01148941 -0.01112505 -0.01074372 -0.01035207 -0.009947021 -0.009558872 -0.009191847 -0.008861231 -0.008570039 -0.008285752
 -0.008006299 -0.007682818 -0.007317481 -0.006905213 -0.00645675 -0.006019696 -0.005600739 -0.005248769 -0.004953268 -0.004720362
 -0.004528068 -0.004347222 -0.004165978 -0.003958092 -0.003733678 -0.003490364 -0.003243425 -0.00300172 -0.002764934 -0.002535987
 -0.002306212 -0.002073165 -0.001838126 -0.001600416 -0.001367517 -0.00114012 -0.0009193846 -0.0007051874 -0.0004922619 -0.0002795757
 -5.653017E-05 0.0001788391 0.000442665 0.0007335705 0.001059397 0.001409539 0.001768199 0.002122073 0.002443715 0.002731816
 0.002972444 0.003177117 0.003349169 0.003498996 0.003633197 0.003753528 0.003861279 0.003958914 0.00404544 0.004133353
 0.00422342 0.004332197 0.004461346 0.004614959 0.00479285 0.00498219 0.005181918 0.005376796 0.005567369 0.005748625
 0.005921028 0.006083777 0.006235989 0.006373923 0.006500955 0.006617576 0.00673475 0.006863289 0.007011252 0.007191302
 0.007392924 0.007619203 0.007840849 0.008049952 0.008222737 0.008349556 0.008438186 0.008485855 0.008526803 0.008563722
 0.00861788 0.008689488 0.008758943 0.008823665 0.008849227 0.008838794 0.008787126 0.008704498 0.008619371 0.008539487
 0.008496409 0.008487683 0.008525728 0.008598288 0.008699362 0.008813672 0.008927648 0.009036672 0.00913145 0.009227008
 0.009325152 0.009443727 0.009590629 0.009753381 0.009934851 0.01008965 0.0102145 0.01027254 0.01026278 0.01019634
 0.01007748 0.009952831 0.009823626 0.009722222 0.009642462 0.009580428 0.009534211 0.009494119 0.009470548 0.009476103
 0.009514475 0.00960225 0.009713442 0.009839839 0.009944569 0.01000264 0.01001354 0.00996374 0.009899019 0.00982531
 0.009787632 0.009796231 0.00984882 0.009947952 0.01004853 0.01014826 0.01020196 0.01021061 0.01016444 0.01007055
 0.009957631 0.009834574 0.00974507 0.009691109 0.009701891 0.009765095 0.009880187 0.01002102 0.01016267 0.01028097
 0.01034721 0.01036378 0.0103179 0.01024359 0.01014675 0.01006506 0.01000923 0.009993043 0.01002057 0.01009
 0.01020116 0.01035928 0.01056459 0.01082338 0.0111329 0.01147079 0.01182811 0.01214725 0.01242197 0.01259669
 0.01268353 0.01267373 0.01260069 0.01250778 0.01242622 0.01241101 0.0124568 0.01258765 0.01275334 0.01294111
 0.01309115 0.01317796 0.01317928 0.01307932 0.01291023 0.01267089 0.01242097 0.01216557 0.0119436 0.01175668
 0.01160025 0.01147259 0.01135256 0.01124236 0.01114176 0.01105632 0.01100621 0.01098944 0.01101648 0.01107052
 0.01113555 0.01118487 0.01118587 0.01111795 0.01095176 0.01069395 0.01033178 0.009909174 0.009432654 0.00896058
 0.008507495 0.008108204 0.007771844 0.007497469 0.007286757 0.007119186 0.006993555 0.006878493 0.006771902 0.006638674
 0.006480498 0.006284798 0.006060878 0.00583367 0.005607737 0.005411371 0.005228827 0.005051411 0.004856406 0.004610545
 0.004318691 0.003963875 0.003589878 0.003209201 0.002873565 0.002606769 0.002423531 0.002339281 0.00230983 0.002336209
 0.002336168 0.002302747 0.002174648 0.001949077 0.001633864 0.001234454 0.0008139641 0.0003770708 -1.668263E-05 -0.0003713323
 -0.0006675256 -0.0009144145 -0.001122038 -0.001299055 -0.001462249 -0.001618918 -0.001783205 -0.001958188 -0.002152067 -0.002359689
 -0.002581992 -0.002808463 -0.003035554 -0.003256766 -0.003469007 -0.003674721 -0.003873079 -0.004073371 -0.00427624 -0.004490532
 -0.004716673 -0.004955051 -0.005204834 -0.005456725 -0.005709598 -0.005952018 -0.006184608 -0.006402429 -0.006608916 -0.006808574
 -0.007006119 -0.007210939 -0.007425594 -0.007657418 -0.007903847 -0.008165954 -0.008438682 -0.008719445 -0.009005933 -0.009296571
 -0.009591529 -0.009891189 -0.01019245 -0.01049561 -0.01079242 -0.01108225 -0.01135788 -0.01161894 -0.01186485 -0.01209614
 -0.01231869 -0.01253338 -0.01274797 -0.01296295 -0.01318424 -0.01341141 -0.0136469 -0.01388883 -0.01413596 -0.01438497
 -0.01463248 -0.01487404 -0.01510646 -0.01532279 -0.01551999 -0.01568851 -0.0158236 -0.01592257 -0.01597996 -0.01601835
 -0.01603663 -0.01608372 -0.01616354 -0.01631919 -0.01655298 -0.01686313 -0.01724519 -0.01764563 -0.01805702 -0.01840775
 -0.01869879 -0.01888897 -0.01899833 -0.01904586 -0.01906573 -0.01912196 -0.01923264 -0.01945322 -0.01975388 -0.0201402
 -0.02054776 -0.02094308 -0.02128813 -0.02155372 -0.02176137 -0.02190829 -0.02203293 -0.02214407 -0.02224067 -0.02232502
 -0.02236672 -0.02236428 -0.02231402 -0.02221976 -0.02212802 -0.02204497 -0.02203248 -0.02208792 -0.02223957 -0.02247095
 -0.02276069 -0.02308809 -0.02340836 -0.02371534 -0.02398071 -0.02421874 -0.02443124 -0.02463195 -0.02483273 -0.02502585
 -0.02521231 -0.02537858 -0.02551811 -0.02564217 -0.02574987 -0.02586638 -0.02599539 -0.02613362 -0.02628107 -0.02640201
 -0.02649568 -0.02654058 -0.02654232 -0.02652257 -0.02648794 -0.0264757 -0.02648296 -0.02652342 -0.02658665 -0.02666068
 -0.02674055 -0.02681203 -0.0268859 -0.02696173 -0.02706325 -0.02720277 -0.02739708 -0.02766052 -0.02797661 -0.02835105
 -0.02872812 -0.02910218 -0.0294136 -0.02965397 -0.02981356 -0.02989129 -0.02994373 -0.02997529 -0.03006109 -0.03019857
 -0.03041478 -0.0306952 -0.03100318 -0.03132521 -0.0316073 -0.031853 -0.03204032 -0.03218742 -0.0323062 -0.03241264
 -0.03252499 -0.0326461 -0.03278433 -0.0329309 -0.03308593 -0.03323495 -0.03337418 -0.03349459 -0.03359187 -0.03367914
 -0.03375573 -0.03385511 -0.03397916 -0.03414723 -0.03435729 -0.03458498 -0.03482546 -0.03503338 -0.0352127 -0.03535014
 -0.03546036 -0.03557353 -0.03569686 -0.03586131 -0.03605292 -0.0362702 -0.03649165 -0.03669801 -0.03688072 -0.03702908
 -0.03714409 -0.03722576 -0.03726754 -0.03726888 -0.03721843 -0.03711251 -0.03695643 -0.03674824 -0.03652127 -0.03627717
 -0.03606674 -0.03589229 -0.03579759 -0.03578046 -0.03585287 -0.03600493 -0.03620916 -0.03645246 -0.03668864 -0.03691196
 -0.03708979 -0.03722842 -0.03732088 -0.03737976 -0.03741266 -0.03742968 -0.03743888 -0.03744396 -0.03744844 -0.03745162
 -0.03745416 -0.037454 -0.03745163 -0.03744055 -0.03742146 -0.03737257 -0.03729282 -0.03714379 -0.03692411 -0.03660465
 -0.03619004 -0.03569233 -0.03512243 -0.0345279 -0.03391489 -0.03332508 -0.03275237 -0.03220605 -0.0316761 -0.031153
 -0.03063332 -0.03011154 -0.02958526 -0.02905473 -0.0285073 -0.02793932 -0.02733694 -0.02669265 -0.02601587 -0.02530296
 -0.02459384 -0.02389081 -0.02324173 -0.02264967 -0.02214212 -0.02171878 -0.02137806 -0.02111737 -0.02091952 -0.02078267
 -0.02069237 -0.02064502 -0.02062888 -0.0206306 -0.02062641 -0.02059436 -0.0204984 -0.02032661 -0.02005279 -0.01968839
 -0.01923067 -0.01869944 -0.01810399 -0.01744771 -0.01673467 -0.01595608 -0.01510938 -0.01419923 -0.01322371 -0.01221382
 -0.01117094 -0.01014678 -0.009144972 -0.008227896 -0.007399539 -0.006717925 -0.006183079 -0.005827898 -0.005646235 -0.005639459
 -0.005801216 -0.006119753 -0.006594946 -0.007221651 -0.008002225 -0.008939644 -0.01002692 -0.0112659 -0.01263248 -0.01412318
 -0.0156973 -0.01734804 -0.0190243 -0.02071912 -0.02237913 -0.02399875 -0.02553295 -0.02697856 -0.02831005 -0.02952743
 -0.03062917 -0.03161795 -0.03250983 -0.03330906 -0.03403876 -0.03470542 -0.03533562 -0.03593714 -0.03653689 -0.03713563
 -0.03774907 -0.0383624 -0.03897168 -0.03955382 -0.04009382 -0.0405791 -0.04099891 -0.04135811 -0.04165506 -0.0419005
 -0.04209667 -0.04224687 -0.04235256 -0.04240459 -0.04240259 -0.04233036 -0.04218813 -0.0419761 -0.04170071 -0.04140363
 -0.04109625 -0.04084831 -0.04066128 -0.04058144 -0.04058697 -0.04066737 -0.04078357 -0.04088596 -0.04093918 -0.04089442
 -0.04073975 -0.0404482 -0.04004355 -0.03952027 -0.03893775 -0.03830392 -0.03769759 -0.03713069 -0.036677 -0.03634511
 -0.03619045 -0.03621702 -0.03646518 -0.03693624 -0.0376557 -0.03861944 -0.03981858 -0.0412351 -0.04280061 -0.04448202
 -0.04616129 -0.04780976 -0.04931606 -0.05068431 -0.05186645 -0.05290232 -0.05380702 -0.05462344 -0.05538462 -0.05610372
 -0.05679729 -0.05745181 -0.0580667 -0.05862939 -0.05913595 -0.05958969 -0.05998952 -0.06035085 -0.06067448 -0.06097839
 -0.06126337 -0.06154324 -0.06181785 -0.06209319 -0.06236793 -0.06264063 -0.06290845 -0.06316378 -0.06340307 -0.06361523
 -0.06380158 -0.06395575 -0.06409072 -0.06421264 -0.06434137 -0.06449237 -0.06467115 -0.06488948 -0.06512228 -0.06536865
 -0.0655886 -0.06577314 -0.0659062 -0.06598189 -0.06602766 -0.06604444 -0.06607655 -0.06612501 -0.06620643 -0.06631716
 -0.0664372 -0.06656446 -0.06667701 -0.06678157 -0.06688423 -0.06699373 -0.06713208 -0.06729589 -0.06749343 -0.06770857
 -0.06793067 -0.06814513 -0.06833877 -0.06850841 -0.0686487 -0.06876414 -0.06885391 -0.06892763 -0.06898554 -0.06904413
 -0.06910487 -0.06918464 -0.0692849 -0.06940888 -0.06955604 -0.06971397 -0.06988141 -0.07004321 -0.0701993 -0.07034123
 -0.07046993 -0.07058335 -0.07068308 -0.07077046 -0.07084846 -0.07092135 -0.07099148 -0.07106347 -0.07113495 -0.07120706
 -0.07127269 -0.07132865 -0.0713719 -0.07139852 -0.07141983 -0.07143561 -0.07146688 -0.07151656 -0.07159445 -0.07170198
 -0.07182463 -0.07196128 -0.07208757 -0.07220392 -0.07230125 -0.07238319 -0.07246065 -0.0725361 -0.07262322 -0.0727191
 -0.07282621 -0.07293697 -0.07304303 -0.07313723 -0.07320867 -0.07325868 -0.07328167 -0.07329229 -0.0732931 -0.07330503
 -0.07333516 -0.0733943 -0.07348742 -0.07360741 -0.07375507 -0.07391251 -0.07407861 -0.07423761 -0.07438898 -0.07452547
 -0.07464758 -0.07475559 -0.07485067 -0.07493756 -0.07501778 -0.07509807 -0.07517925 -0.07526671 -0.07535852 -0.075455
 -0.07555226 -0.07564639 -0.07573625 -0.07581895 -0.07589819 -0.07597489 -0.07605194 -0.07613095 -0.07621032 -0.07628995
 -0.07636858 -0.0764458 -0.07652353 -0.07660197 -0.07668098 -0.07676032 -0.0768334 -0.07689964 -0.07695087 -0.07698783
 -0.07700859 -0.077016 -0.07701635 -0.07701362 -0.07701852 -0.07703341 -0.07706654 -0.07711644 -0.077185 -0.07726906
 -0.07736712 -0.07747698 -0.07759821 -0.07772597 -0.07786029 -0.07799004 -0.0781134 -0.07822039 -0.07830872 -0.07838111
 -0.07843728 -0.07849015 -0.07854027 -0.07859695 -0.07865952 -0.07872644 -0.07879643 -0.07886259 -0.07892501 -0.0789798
 -0.07902909 -0.07907469 -0.0791197 -0.07916937 -0.07922484 -0.07929005 -0.07936193 -0.07944056 -0.07952009 -0.0795979
 -0.07967034 -0.07973527 -0.07979352 -0.07984475 -0.07989106 -0.07993278 -0.07997 -0.08000273 -0.08003168 -0.08005707
 -0.0800847 -0.08011501 -0.08015496 -0.08020374 -0.0802617 -0.08032699 -0.08039394 -0.08046245 -0.08052909 -0.08059578
 -0.08066423 -0.08073448 -0.08080794 -0.08088192 -0.0809548 -0.08102556 -0.08109278 -0.08115851 -0.0812235 -0.08128735
 -0.08135082 -0.08140858 -0.08145995 -0.08150169 -0.08153325 -0.08155912 -0.08157966 -0.08160336 -0.08163041 -0.08166613
 -0.08170993 -0.081762 -0.08182149 -0.08188617 -0.08195506 -0.08202537 -0.08209586 -0.08216369 -0.08222798 -0.08228669
 -0.08234008 -0.0823874 -0.08243029 -0.08246899 -0.08250599 -0.08254226 -0.08257881 -0.08261643 -0.08265268 -0.08268739
 -0.08271778 -0.08274338 -0.08276726 -0.0827897 -0.08281928 -0.08285605 -0.08290458 -0.08296327 -0.08302694 -0.08309394
 -0.08315624 -0.08321432 -0.08326504 -0.08331022 -0.08335119 -0.08338916 -0.0834259 -0.08346181 -0.08349773 -0.08353355
 -0.08356953 -0.08360494 -0.08363951 -0.08367313 -0.08370551 -0.08373824 -0.08377158 -0.08380562 -0.08384053 -0.08387294
 -0.08390266 -0.08392603 -0.08394325 -0.0839547 -0.08396105 -0.08396569 -0.08396902 -0.08397406 -0.08398094 -0.08399142
 -0.08400546 -0.08402397 -0.08404628 -0.08407199 -0.08410063 -0.08413146 -0.08416531 -0.08420251 -0.08424337 -0.08428901
 -0.08433506 -0.08438158 -0.08441999 -0.08444913 -0.08446311 -0.08446109 -0.08444559 -0.0844169 -0.08438513 -0.08435119
 -0.08432733 -0.08431379 -0.08431908 -0.08434138 -0.08438066 -0.08443266 -0.0844887 -0.08454528 -0.08459247 -0.08463214
 -0.08466136 -0.08468635 -0.08471088 -0.08473822 -0.08477221 -0.08480863 -0.08484725 -0.08488278 -0.08491312 -0.08494077
 -0.08496515 -0.08499493 -0.08503089 -0.08507666 -0.0851322 -0.08518971 -0.08524832 -0.08529627 -0.08533431 -0.08535936
 -0.0853743 -0.08538669 -0.0853981 -0.08541654 -0.08543943 -0.08546697 -0.08549493 -0.08551817 -0.08553678 -0.08554786
 -0.08555713 -0.08556624 -0.08558089 -0.08560426 -0.08563498 -0.08567419 -0.08571438 -0.08575461 -0.08578973 -0.08581898
 -0.08584454 -0.08586651 -0.08588897 -0.08591176 -0.08593502 -0.08595828 -0.08597917 -0.08599768 -0.08601281 -0.08602428
 -0.08603103 -0.08603266 -0.08602741 -0.0860169 -0.08600108 -0.08598457 -0.08597062 -0.08596243 -0.08596314 -0.08597115
 -0.085987 -0.08600681 -0.08602977 -0.08605351 -0.08607757 -0.08610093 -0.08612352 -0.08614334 -0.08616029 -0.08617277
 -0.08618112 -0.08618783 -0.08619361 -0.08620372 -0.08621776 -0.08623773 -0.08626156 -0.08628571 -0.08630878 -0.08632643
 -0.08634021 -0.08634966 -0.0863579 -0.08636721 -0.08637901 -0.08639511 -0.08641391 -0.08643574 -0.0864566 -0.08647563
 -0.08648998 -0.08649862 -0.08650453 -0.08650765 -0.08651542 -0.08652815 -0.08654797 -0.08657413 -0.08659928 -0.08662288
 -0.08663763 -0.08664529 -0.08664754 -0.08664656 -0.0866486 -0.08665283 -0.08666106 -0.08667103 -0.08668055 -0.08668962
 -0.08669746 -0.08670481 -0.08671242 -0.08671854 -0.08672281 -0.08672354 -0.08671945 -0.08671468 -0.08670935 -0.08670969
 -0.08671655 -0.08672836 -0.08674499 -0.08675686 -0.08676405 -0.08676321 -0.08675667 -0.08675499 -0.08676051 -0.08678702
 -0.08683379 -0.08690587 -0.0870018 -0.08712051 -0.08726378 -0.08743274 -0.0876299 -0.08785881 -0.08811609 -0.08840187
 -0.08870944 -0.0890349 -0.08938146 -0.0897468 -0.09014878 -0.09058991 -0.0910819 -0.0916276 -0.09220725 -0.0928195
 -0.09340915 -0.09397182 -0.09444142 -0.0948148 -0.09503957 -0.0951172 -0.09502177 -0.09476358 -0.09434353 -0.09379452
 -0.09315829 -0.09248548 -0.09184632 -0.09127025 -0.09080333 -0.09044725 -0.09021424 -0.09009989 -0.09010661 -0.09022388
 -0.09045639 -0.09075773 -0.09112842 -0.09147628 -0.09179323 -0.09201216 -0.09212968 -0.09214807 -0.09207036 -0.09193005
 -0.09173203 -0.09151889 -0.09129537 -0.0911022 -0.0909358 -0.09081106 -0.09071501 -0.09063492 -0.09055793 -0.09046497
 -0.09034986 -0.09020062 -0.09002046 -0.08980482 -0.0895701 -0.08931842 -0.08907378 -0.08884156 -0.08864049 -0.08847498
 -0.0883489 -0.08826395 -0.08820557 -0.08817294 -0.0881407 -0.08810829 -0.08806055 -0.088 -0.08793293 -0.08786208
 -0.08780131 -0.08774878 -0.08770782 -0.087674 -0.0876409 -0.08760796 -0.08757059 -0.08753416 -0.08750105 -0.08747645
 -0.08746523 -0.08746415 -0.08747476 -0.08748618 -0.08749617 -0.08749681 -0.08748562 -0.08746616 -0.08743805 -0.08741225
 -0.08738936 -0.08737717 -0.08737559 -0.08738555 -0.08740648 -0.08743584 -0.08747284 -0.08751369 -0.08755735 -0.08759969
 -0.08764002 -0.08767545 -0.08770565 -0.08772925 -0.08774606 -0.08775512 -0.08775778 -0.08775377 -0.08774707 -0.08773877
 -0.08773278 -0.08773044 -0.08773289 -0.08774072 -0.08775263 -0.08776867 -0.08778581 -0.0878039 -0.08781905 -0.08783131
 -0.08784013 -0.08784646 -0.08785574 -0.08786829 -0.08788911 -0.08791538 -0.08794362 -0.08796989 -0.08798514 -0.08799034
 -0.08798121 -0.08796544 -0.08794703 -0.08793368 -0.08793206 -0.08794069 -0.08796229 -0.08798606 -0.0880101 -0.08802509
 -0.08802849 -0.08802148 -0.08800352 -0.08798233 -0.08795829 -0.0879366 -0.08791731 -0.08790201 -0.08789106 -0.08788732
 -0.08789121 -0.08790629 -0.08793131 -0.08796589 -0.08800689 -0.08804931 -0.0880901 -0.08812359 -0.08814909 -0.08816353
 -0.08816955 -0.08816707 -0.08816103 -0.08815316 -0.08814693 -0.08814389 -0.08814368 -0.08814671 -0.08815041 -0.08815453
 -0.08815806 -0.08816095 -0.08816405 -0.08816741 -0.08817169 -0.08817674 -0.08818187 -0.08818708 -0.08819189 -0.0881968
 -0.08820273 -0.0882101 -0.08822036 -0.08823262 -0.08824683 -0.088261 -0.08827353 -0.08828317 -0.0882884 -0.08829038
 -0.08828893 -0.0882865 -0.08828367 -0.088282 -0.08828202 -0.08828329 -0.08828589 -0.08828819 -0.0882901 -0.0882911
 -0.08829135 -0.08829281 -0.08829568 -0.08830235 -0.08831227 -0.08832487 -0.08833885 -0.08835075 -0.08835986 -0.08836325
 -0.08836127 -0.08835292 -0.08833944 -0.08832111 -0.08830033 -0.08827776 -0.08825785 -0.0882423 -0.08823444 -0.08823615
 -0.0882451 -0.08826187 -0.08827876 -0.08829504 -0.08830537 -0.08830935 -0.08830929 -0.08830559 -0.0883048 -0.08830688
 -0.08831525 -0.0883288 -0.08834568 -0.08836431 -0.0883801 -0.08839181 -0.08839522 -0.08839012 -0.08837394 -0.0883491
 -0.08831574 -0.08827911 -0.08824154 -0.08820891 -0.08818421 -0.08816988 -0.08816784 -0.08817499 -0.08819173 -0.08821059
 -0.08823095 -0.08824635 -0.08825635 -0.08825868 -0.08825336 -0.08824071 -0.08822078 -0.08819385 -0.08816071 -0.08812376
 -0.08808532 -0.08805225 -0.08802638 -0.08801505 -0.08801596 -0.08803082 -0.08805238 -0.08807576 -0.08809409 -0.08810101
 -0.08809707 -0.08807936 -0.08805693 -0.0880313 -0.08801093 -0.08799831 -0.08799201 -0.08799258 -0.08799196 -0.08798966
 -0.08798307 -0.08797262 -0.08796491 -0.08796033 -0.08796547 -0.08797874 -0.08799791 -0.08802043 -0.08803826 -0.08805121
 -0.08805436 -0.088051 -0.08804305 -0.08803367 -0.08802722 -0.08802176 -0.08801829 -0.08801115 -0.08799773 -0.0879769
 -0.0879465 -0.08791395 -0.08787983 -0.08785266 -0.08783382 -0.08782358 -0.08782215 -0.08782246 -0.08782423 -0.08782157
 -0.08781497 -0.08780465 -0.08779161 -0.08777992 -0.08776993 -0.08776487 -0.08776402 -0.08776778 -0.0877749 -0.08778442
 -0.08779429 -0.08780284 -0.08780767 -0.08780663 -0.08779956 -0.08778487 -0.08776757 -0.08774816 -0.08773336 -0.08772475
 -0.08772413 -0.08773232 -0.08774412 -0.08775932 -0.08777 -0.08777596 -0.08777265 -0.08776071 -0.08774211 -0.08771813
 -0.08769518 -0.08767329 -0.08765634 -0.0876423 -0.0876293 -0.08761594 -0.0875989 -0.08758014 -0.08755983 -0.08754113
 -0.08752621 -0.08751605 -0.08751178 -0.08751237 -0.08751785 -0.08752692 -0.08753959 -0.08755344 -0.0875684 -0.08758039
 -0.08758916 -0.08759049 -0.08758434 -0.08756935 -0.08754609 -0.08751742 -0.08748433 -0.0874525 -0.08742197 -0.08739613
 -0.08737341 -0.08735252 -0.08733206 -0.08730902 -0.08728488 -0.0872592 -0.08723572 -0.08721662 -0.08720402 -0.08720043
 -0.08720196 -0.08720931 -0.08721245 -0.08720985 -0.0871931 -0.08716039 -0.08711511 -0.08705721 -0.08699915 -0.08694142
 -0.08689303 -0.08685341 -0.08682281 -0.08680029 -0.08678237 -0.08676846 -0.08675555 -0.08674277 -0.08672712 -0.08670826
 -0.086684 -0.08665601 -0.08662487 -0.08659249 -0.0865607 -0.08652875 -0.08649738 -0.08646299 -0.08642464 -0.08638009
 -0.08632825 -0.08627162 -0.08621006 -0.08614913 -0.08608916 -0.08603381 -0.08598311 -0.08593661 -0.08589418 -0.08585461
 -0.08581801 -0.08578447 -0.0857537 -0.08572508 -0.08569796 -0.08567059 -0.0856433 -0.08561584 -0.08558857 -0.08556265
 -0.08553524 -0.08550563 -0.0854691 -0.08542296 -0.08536693 -0.08529933 -0.08522639 -0.08514868 -0.08507318 -0.08500092
 -0.08493447 -0.0848741 -0.08481923 -0.08476987 -0.08472572 -0.08468694 -0.08465473 -0.08462876 -0.08460874 -0.08459339
 -0.08457929 -0.08456518 -0.08454724 -0.08452459 -0.08449492 -0.08445683 -0.08440802 -0.08434873 -0.08427721 -0.08419877
 -0.08411467 -0.08403134 -0.08395152 -0.08387552 -0.08380442 -0.08373341 -0.08366197 -0.08358747 -0.08350962 -0.08342982
 -0.08334822 -0.08326805 -0.08318961 -0.08311671 -0.08304949 -0.08299086 -0.08294017 -0.08289705 -0.08286092 -0.08283041
 -0.08280537 -0.08278612 -0.08276947 -0.08275432 -0.08273282 -0.08269989 -0.08265013 -0.0825782 -0.08248949 -0.08238301
 -0.08227131 -0.08215649 -0.08204795 -0.08194751 -0.08185586 -0.08177334 -0.0816935 -0.08161609 -0.08153632 -0.0814552
 -0.08137797 -0.08130617 -0.08125051 -0.08120901 -0.08118358 -0.08116711 -0.08114716 -0.08111829 -0.08106586 -0.08099477
 -0.0809029 -0.08080026 -0.08069303 -0.08058599 -0.08048346 -0.0803839 -0.08028772 -0.08019294 -0.08009872 -0.08000731
 -0.07991861 -0.07983779 -0.07976525 -0.07970394 -0.07965382 -0.07961243 -0.07957866 -0.07954337 -0.07950463 -0.07944858
 -0.07937565 -0.07927785 -0.07916144 -0.07903437 -0.07890233 -0.0787775 -0.07865896 -0.07855023 -0.07844893 -0.07835395
 -0.07826546 -0.07818422 -0.07810656 -0.07803299 -0.07795325 -0.07786508 -0.07776362 -0.07764694 -0.07752447 -0.07739664
 -0.07727409 -0.07715695 -0.07704397 -0.07693433 -0.07682034 -0.07670239 -0.07657745 -0.07644773 -0.07631767 -0.07618943
 -0.07607029 -0.07595852 -0.07585623 -0.07575711 -0.07565561 -0.07554849 -0.07543032 -0.07530636 -0.07517761 -0.07504868
 -0.07492255 -0.07479466 -0.07466481 -0.07452711 -0.07437985 -0.07422926 -0.07407539 -0.07393201 -0.0737995 -0.07368287
 -0.07358035 -0.0734798 -0.07337826 -0.07325456 -0.07311 -0.07293554 -0.07273823 -0.07252822 -0.07230943 -0.07209297
 -0.07187573 -0.07165874 -0.07143863 -0.07121208 -0.07098204 -0.07074787 -0.07051689 -0.07029152 -0.07007517 -0.06987071
 -0.0696682 -0.06946863 -0.06924438 -0.06899353 -0.068693 -0.06834267 -0.06795467 -0.0675307 -0.0670928 -0.06663693
 -0.06615759 -0.06564666 -0.06507732 -0.06444499 -0.06372533 -0.06292442 -0.06203615 -0.0610801 -0.06006984 -0.05902932
 -0.05797882 -0.05692991 -0.0558922 -0.05487095 -0.05386234 -0.05290447 -0.05199772 -0.05121413 -0.05056405 -0.05008497
 -0.04978205 -0.04963686 -0.04964782 -0.04977492 -0.05001446 -0.05031866 -0.05068314 -0.05106239 -0.05145412 -0.05183091
 -0.05218605 -0.0524969 -0.05274926 -0.05291038 -0.05298224 -0.05294932 -0.05283547 -0.05265129 -0.05241697 -0.05214427
 -0.05184427 -0.05152247 -0.05118562 -0.05083847 -0.05046915 -0.05008079 -0.04962212 -0.0490896 -0.0484371 -0.04766495
 -0.04682988 -0.04593869 -0.04508225 -0.04425253 -0.04345862 -0.04268891 -0.04191106 -0.04112484 -0.04031512 -0.03948364
 -0.03863378 -0.03774606 -0.03681308 -0.03578657 -0.03463152 -0.03331778 -0.03180144 -0.03015794 -0.02838565 -0.02662687
 -0.0249157 -0.02331477 -0.02184209 -0.02047478 -0.01921372 -0.0180114 -0.01686459 -0.01570257 -0.01451842 -0.01321026
 -0.01178765 -0.01022499 -0.008572167 -0.006979094 -0.005456411 -0.004115642 -0.002899987 -0.001772656 -0.0006922263 0.0004031805
 0.001511769 0.002652489 0.00380945 0.004977879 0.006153204 0.007337079 0.008507265 0.009661752 0.01076829 0.01181886
 0.01282678 0.01379184 0.01474338 0.01568159 0.01657887 0.01743119 0.01818489 0.01884542 0.01940917 0.01988915
 0.02032614 0.02072217 0.02110551 0.02146135 0.02177549 0.02204954 0.02227437 0.02247127 0.02265548 0.02283041
 0.0230067 0.02316216 0.02329356 0.02337597 0.02340386 0.02335982 0.0232409 0.02303449 0.02273815 0.02236795
 0.02192538 0.02146132 0.02097566 0.02048904 0.01999429 0.01946534 0.01889886 0.01826674 0.01757973 0.01684079
 0.01607628 0.01532541 0.01460787 0.01396216 0.01338358 0.01288023 0.01244464 0.01207177 0.01176998 0.01154137
 0.01139079 0.01132248 0.01132089 0.01138495 0.01149802 0.01165831 0.01186207 0.01210909 0.01239951 0.01273273
 0.0131031 0.01350888 0.01393836 0.01438997 0.01485187 0.01532537 0.01580634 0.01629989 0.01681112 0.01734598
 0.01791207 0.01851399 0.0191573 0.01984401 0.02057709 0.02135449 0.0221768 0.02303904 0.02394141 0.02487346
 0.02583581 0.02680242 0.0277716 0.02871445 0.02963001 0.03052539 0.03140423 0.03231139 0.03324276 0.03420657
 0.03518302 0.0361079 0.03697796 0.03775054 0.0384421 0.0390663 0.03961627 0.04009548 0.040479 0.04074724
 0.04089376 0.04091457 0.04079297 0.04053372 0.04007019 0.03938089 0.03846153 0.03728824 0.03605891 0.03479046
 0.03359071 0.03246318 0.03130986 0.03012653 0.02883355 0.02743927 0.02594742 0.02436606 0.02273148 0.02102703
 0.01924468 0.01734003 0.01522092 0.01292047 0.01038243 0.007824393 0.005401629 0.003211578 0.001389418 -0.0002224998
 -0.00164923 -0.003019671 -0.004378851 -0.005731397 -0.007087122 -0.008405793 -0.009683208 -0.01091838 -0.01211144 -0.01329133
 -0.01445814 -0.01562314 -0.01678276 -0.01792351 -0.01904304 -0.02012596 -0.02117369 -0.02218089 -0.02315222 -0.02409066
 -0.02500514 -0.02590282 -0.02680071 -0.02770677 -0.02865507 -0.02966499 -0.0307579 -0.03196893 -0.03319449 -0.03443042
 -0.03551146 -0.03639694 -0.0371202 -0.0376752 -0.03819679 -0.03869136 -0.03922679 -0.03979908 -0.04038499 -0.04097724
 -0.04152076 -0.04202121 -0.04246936 -0.04287229 -0.04324741 -0.04358272 -0.04386944 -0.04409029 -0.04421749 -0.04425917
 -0.04420852 -0.04408929 -0.04391286 -0.04369137 -0.04343373 -0.04313532 -0.04280158 -0.04239918 -0.04193105 -0.04131046
 -0.04053053 -0.03950967 -0.0382447 -0.03683775 -0.03530622 -0.03389344 -0.03259873 -0.03154717 -0.03071467 -0.03008697
 -0.02964199 -0.02932599 -0.02912096 -0.02897874 -0.02888168 -0.02879728 -0.02870259 -0.0285706 -0.02838859 -0.02813502
 -0.02783831 -0.02750239 -0.02715733 -0.02681497 -0.02646872 -0.02611956 -0.02575551 -0.02537428 -0.02498883 -0.02459986
 -0.02423635 -0.02389849 -0.02359861 -0.02333284 -0.0230874 -0.02285587 -0.02261 -0.02234417 -0.02203038 -0.0216699
 -0.02125227 -0.02078115 -0.02026065 -0.01968144 -0.01904063 -0.01832138 -0.01751184 -0.01661087 -0.01561281 -0.01453253
 -0.01337503 -0.01213735 -0.01082303 -0.009398631 -0.007859915 -0.006200747 -0.004420973 -0.002616893 -0.0007969997 0.0009024314
 0.002484128 0.003894875 0.005143153 0.006235932 0.007165475 0.007921473 0.008484098 0.008815219 0.008907009 0.008730474
 0.008302758 0.007623186 0.006722814 0.005616123 0.004329701 0.002874071 0.001272592 -0.0004747288 -0.002312611 -0.004240104
 -0.006155834 -0.008050314 -0.009849912 -0.01155027 -0.01316386 -0.01469401 -0.0161896 -0.01764803 -0.01908122 -0.02047814
 -0.02180427 -0.02305609 -0.02420355 -0.02526022 -0.0262319 -0.02713902 -0.02800654 -0.02884847 -0.02968599 -0.03051709
 -0.03135019 -0.03216506 -0.03295785 -0.03370582 -0.03440108 -0.03503929 -0.03561698 -0.0361479 -0.03663319 -0.03708214
 -0.03749534 -0.03786031 -0.03817581 -0.03842038 -0.03859609 -0.03870277 -0.03874676 -0.03875082 -0.03871861 -0.03867054
 -0.03860588 -0.03853216 -0.03844829 -0.03835483 -0.0382539 -0.03814554 -0.03803737 -0.0379316 -0.03784065 -0.03776902
 -0.03772688 -0.0377177 -0.03774621 -0.0378136 -0.03792257 -0.03807379 -0.03826532 -0.03849712 -0.03875462 -0.0390364
 -0.03931986 -0.03960378 -0.03986952 -0.0401166 -0.04033351 -0.04052011 -0.04066952 -0.04078418 -0.0408636 -0.04091403
 -0.04094136 -0.04095346 -0.04095804 -0.04096108 -0.04096832 -0.04098079 -0.04100115 -0.04102414 -0.04104921 -0.04107038
 -0.04108569 -0.04109832 -0.04110772 -0.04112653 -0.04115545 -0.04120569 -0.04127713 -0.04137072 -0.04148473 -0.04160939
 -0.04174232 -0.04186945 -0.0419901 -0.04209446 -0.04218576 -0.04226417 -0.04233506 -0.04240533 -0.04247686 -0.04255482
 -0.04263474 -0.04271633 -0.04279279 -0.04286128 -0.04291851 -0.04296248 -0.04299552 -0.04301756 -0.04303211 -0.04303971
 -0.04304021 -0.04303368 -0.04301668 -0.04298925 -0.04295082 -0.04290209 -0.04284716 -0.04278656 -0.04272491 -0.04266119
 -0.0425959 -0.04252627 -0.04244818 -0.04235879 -0.04225265 -0.04212978 -0.04198732 -0.04182972 -0.04165809 -0.04147811
 -0.04129232 -0.0411036 -0.04091316 -0.04072224 -0.04053113 -0.04034117 -0.04015256 -0.03996586 -0.03978115 -0.03959724
 -0.0394141 -0.03923098 -0.03904819 -0.03886707 -0.03868841 -0.03851567 -0.03834996 -0.03819599 -0.03805387 -0.0379264
 -0.03781189 -0.0377091 -0.03761764 -0.03753543 -0.03746713 -0.03741413 -0.03738253 -0.03737583 -0.03739391 -0.0374385
 -0.03750252 -0.03758544 -0.03767882 -0.03778175 -0.03788833 -0.03799816 -0.03810781 -0.03821722 -0.03832487 -0.03843079
 -0.0385344 -0.03863563 -0.03873394 -0.03882918 -0.03892078 -0.03900844 -0.03909148 -0.03916932 -0.03924103 -0.039306
 -0.03936359 -0.03941279 -0.03945312 -0.03948306 -0.03950152 -0.03950921 -0.03950525 -0.03949529 -0.03947987 -0.03946563
 -0.03945371 -0.03944389 -0.03943634 -0.03942243 -0.03940149 -0.03936156 -0.03930228 -0.03921481 -0.03910042 -0.03895837
 -0.03879206 -0.03860921 -0.03841332 -0.03821449 -0.03801304 -0.03781461 -0.03761457 -0.03741229 -0.03719923 -0.03697089
 -0.03671947 -0.03644025 -0.03613176 -0.03579178 -0.03542546 -0.03503296 -0.03462121 -0.03419079 -0.03374843 -0.03329454
 -0.03283665 -0.03237518 -0.03191727 -0.03146342 -0.0310203 -0.03058876 -0.03017637 -0.02978226 -0.02940946 -0.02905315
 -0.02870587 -0.0283647 -0.02802058 -0.02768009 -0.02734491 -0.02702365 -0.02672413 -0.02644293 -0.02618223 -0.02593034
 -0.02568427 -0.02543734 -0.0251878 -0.02493321 -0.02467339 -0.02440377 -0.02412404 -0.02383117 -0.02352521 -0.02320709
 -0.02287684 -0.02253487 -0.02218135 -0.02181695 -0.02144231 -0.02106038 -0.02066934 -0.0202687 -0.01985304 -0.01941526
 -0.01895205 -0.01845684 -0.01793276 -0.01737843 -0.01680213 -0.01620521 -0.0156005 -0.01499057 -0.01439003 -0.01380208
 -0.01323425 -0.01268807 -0.01216301 -0.01165903 -0.01118 -0.01072656 -0.01031129 -0.009934476 -0.00960536 -0.009321103
 -0.009077026 -0.008866252 -0.00866989 -0.00847932 -0.008269711 -0.008037935 -0.007768112 -0.00746645 -0.007132779 -0.006773766
 -0.006394163 -0.00599517 -0.0055771 -0.005145372 -0.004700139 -0.004252686 -0.003805439 -0.003363163 -0.002926857 -0.002496073
 -0.002070675 -0.001657663 -0.001257486 -0.0008789742 -0.0005218174 -0.0001870757 0.0001246586 0.0004113429 0.0006699958 0.0008911488
 0.001073651 0.00121113 0.001303359 0.001349416 0.001343716 0.001281522 0.001157368 0.0009634772 0.0007086757 0.0003913924
 3.367343E-05 -0.0003601942 -0.0007671003 -0.001182799 -0.00158849 -0.001981599 -0.002349852 -0.002692092 -0.003007296 -0.003295803
 -0.003565257 -0.003816388 -0.004058258 -0.004290797 -0.004519659 -0.004742002 -0.004954785 -0.005151298 -0.005317894 -0.005449532
 -0.005532504 -0.005569759 -0.005558068 -0.005504891 -0.005413953 -0.005290315 -0.005137015 -0.004956452 -0.004749796 -0.004518331
 -0.004261829 -0.00398485 -0.003686685 -0.003384102 -0.003077949 -0.002790859 -0.00252307 -0.002276345 -0.00204737 -0.001810953
 -0.001565412 -0.001288219 -0.0009845347 -0.0006559041 -0.0003101768 3.76326E-05 0.0003814292 0.0007075554 0.001011999 0.001285838
 0.00152983 0.001740788 0.0019247 0.002083724 0.002220755 0.002337656 0.002432424 0.002504451 0.002555433 0.002584985
 0.002600325 0.002601909 0.002595684 0.002581726 0.002560578 0.002531113 0.002485783 0.002421893 0.002323372 0.002189345
 0.002007486 0.001782333 0.001516219 0.001214722 0.0008868927 0.0005340223 0.000159729 -0.0002338655 -0.0006460483 -0.001069769
 -0.001501698 -0.001937785 -0.002374382 -0.002818963 -0.003271017 -0.003745843 -0.004244821 -0.004782815 -0.005361056 -0.005986816
 -0.006660126 -0.007378546 -0.008141414 -0.008942789 -0.00978181 -0.01065313 -0.01155319 -0.01247083 -0.01339955 -0.01432165
 -0.01523317 -0.01612177 -0.01698554 -0.01782064 -0.01861957 -0.01937741 -0.0200862 -0.02073838 -0.02134207 -0.02189541
 -0.02241984 -0.02291949 -0.02340741 -0.02388677 -0.02435353 -0.02480787 -0.02523837 -0.02564446 -0.02601558 -0.02635163
 -0.02664679 -0.02690206 -0.02711814 -0.02729719 -0.02744463 -0.02756453 -0.02766574 -0.02775512 -0.02784643 -0.02794137
 -0.028051 -0.02815957 -0.02826397 -0.02833822 -0.02836826 -0.02834542 -0.02825963 -0.0281325 -0.02796422 -0.02778876
 -0.02761081 -0.02744894 -0.02730557 -0.02717109 -0.02704455 -0.0269012 -0.0267417 -0.0265584 -0.02635779 -0.02616496
 -0.02598582 -0.02585353 -0.02576242 -0.02572009 -0.02571115 -0.02571782 -0.0257285 -0.0257241 -0.02570494 -0.02566404
 -0.02561025 -0.02554567 -0.02547796 -0.0254112 -0.02534322 -0.0252759 -0.02519574 -0.02510214 -0.02497646 -0.02481729
 -0.02461081 -0.02435683 -0.02405747 -0.02371561 -0.02335567 -0.02298194 -0.02262818 -0.02229402 -0.02199766 -0.0217325
 -0.02149427 -0.02127668 -0.0210691 -0.02086822 -0.02066813 -0.02046436 -0.02025226 -0.02002948 -0.01979175 -0.01954712
 -0.01929568 -0.01905143 -0.01881775 -0.01860025 -0.01840067 -0.01821526 -0.01804373 -0.01788617 -0.01774275 -0.01762021
 -0.01751769 -0.01743217 -0.01735928 -0.01727655 -0.01718109 -0.01704893 -0.01688857 -0.01670261 -0.01650759 -0.01633017
 -0.01617424 -0.01605898 -0.01596471 -0.01588592 -0.01579991 -0.01569121 -0.0155617 -0.01540543 -0.01524449 -0.01508265
 -0.01493501 -0.01480534 -0.01468926 -0.01458705 -0.01448642 -0.01438689 -0.01428197 -0.01417201 -0.01405719 -0.01393839
 -0.01381913 -0.01370141 -0.01359274 -0.01349522 -0.01341787 -0.01335859 -0.01331978 -0.01329437 -0.01327651 -0.01326036
 -0.01323957 -0.01321354 -0.01318016 -0.01314136 -0.01309716 -0.01305015 -0.01300114 -0.01295032 -0.01289861 -0.01283803
 -0.01276814 -0.01267901 -0.01257055 -0.01245021 -0.01232006 -0.01220394 -0.01210138 -0.01202448 -0.01196723 -0.01191778
 -0.01187089 -0.01180928 -0.01173304 -0.01163546 -0.01151691 -0.01137606 -0.01121141 -0.01102086 -0.01080587 -0.01056424
 -0.01030701 -0.01003476 -0.009767527 -0.009509176 -0.009276113 -0.009072432 -0.008894811 -0.008744127 -0.008598339 -0.008456349
 -0.008297878 -0.008123325 -0.007928301 -0.007714605 -0.007488363 -0.007251307 -0.007011895 -0.006770828 -0.006533925 -0.006300263
 -0.006071044 -0.005844976 -0.005621348 -0.005398709 -0.005177125 -0.004951125 -0.004718311 -0.004474176 -0.004213945 -0.003949014
 -0.003678622 -0.003427244 -0.003198533 -0.003005473 -0.002850133 -0.002724912 -0.002629298 -0.002547906 -0.002479606 -0.002407657
 -0.002331433 -0.002236803 -0.002128126 -0.002010019 -0.001890331 -0.001790641 -0.001708386 -0.001653267 -0.001608602 -0.001560965
 -0.001497919 -0.001403117 -0.001283065 -0.001133614 -0.0009748315 -0.000811202 -0.0006627223 -0.0005357772 -0.0004347912 -0.0003634817
 -0.000301506 -0.000247971 -0.0001769039 -8.732477E-05 2.342192E-05 0.000153683 0.0002867255 0.0004227416 0.0005528793 0.0006812473
 0.0008156045 0.0009608168 0.001131973 0.001329053 0.001562939 0.001819023 0.002090798 0.002352334 0.002581586 0.002768383
 0.00289656 0.002986621 0.003039597 0.003083781 0.003125914 0.003181777 0.003254393 0.003353065 0.003478996 0.003635318
 0.003821967 0.004025787 0.004245357 0.004460678 0.004671978 0.004869979 0.005056117 0.005230412 0.005393278 0.005545889
 0.005687454 0.005818188 0.005934738 0.006034028 0.006112624 0.006165755 0.006196448 0.006204346 0.006194857 0.006170226
 0.006131198 0.006076803 0.00601597 0.005948055 0.005896505 0.005863789 0.005857254 0.005876991 0.005900872 0.005928496
 0.005946863 0.00595928 0.005978354 0.006003648 0.006040989 0.006086559 0.006132271 0.006181845 0.006237473 0.006302726
 0.006384293 0.006477446 0.006577609 0.006692076 0.006818899 0.006982116 0.007196448 0.007444794 0.007733667 0.007997579
 0.008224076 0.008402172 0.008527768 0.008636035 0.008728626 0.00883326 0.008949885 0.009089282 0.009246999 0.009407661
 0.009562084 0.009669995 0.009730231 0.009715754 0.009641839 0.009520108 0.009363681 0.009193247 0.009008557 0.008812969
 0.008613707 0.008411948 0.008225365 0.008061728 0.007925144 0.007818616 0.007738175 0.007682796 0.007657518 0.007663363
 0.007693921 0.007748615 0.007792935 0.007824791 0.007808883 0.007746024 0.007621214 0.007438784 0.007200252 0.006920175
 0.006626988 0.006343651 0.006125425 0.005964673 0.005886786 0.005838956 0.00578881 0.005702065 0.005544993 0.005332902
 0.005060725 0.004759336 0.004429122 0.004125937 0.003853473 0.00369234 0.0036526 0.003748447 0.003980402 0.004270927
 0.004617256 0.004962169 0.0053111 0.005669144 0.006034697 0.006406199 0.006775813 0.007121261 0.007446536 0.007747463
 0.008031285 0.008305943 0.008571484 0.008828403 0.009082776 0.009335659 0.009599705 0.00987934 0.01018326 0.01051199
 0.01088377 0.01130036 0.01178485 0.01234145 0.01295472 0.0136238 0.01429493 0.01496605 0.01559845 0.01619094
 0.01672081 0.01717988 0.01752578 0.01775664 0.01783813 0.01779599 0.01764989 0.01743875 0.01721315 0.01699707
 0.01682602 0.01670492 0.01664738 0.01664359 0.01669348 0.01678538 0.01691465 0.01708564 0.01730009 0.0175503
 0.01783903 0.01810573 0.01834724 0.01850723 0.0185893 0.01862386 0.01861834 0.01863735 0.01867075 0.01871741
 0.01876346 0.01876906 0.01874479 0.01868855 0.01861665 0.01855177 0.01848823 0.01843164 0.01836556 0.01828269
 0.01817185 0.01802599 0.01784565 0.01762629 0.01739033 0.01714038 0.01689696 0.01666523 0.01641254 0.01613731
 0.01577357 0.01532195 0.01476995 0.01412951 0.01346209 0.01278177 0.01217082 0.01163444 0.01123177 0.01094527
 0.01078158 0.0106984 0.01064993 0.01060843 0.01052913 0.01042922 0.01030421 0.01018011 0.01007042 0.009969214
 0.00987805 0.009785646 0.009687825 0.00959879 0.009519278 0.009464093 0.00943411</values></Ydata></AB><ScSm><Ydata ylabel="Single channel"><values byteorder="INTEL" format="FLOAT32" numvalues="1814"> 0.07480626 0.07482389 0.07491066 0.0750871 0.07531832 0.07553601 0.07568776 0.07576983 0.07580414 0.07579437
 0.07573962 0.07568912 0.0757324 0.07590982 0.07615553 0.07634319 0.07638814 0.07632381 0.07628433 0.07637258
 0.07651851 0.07650079 0.07615445 0.07555968 0.07498933 0.07465864 0.07459213 0.07478269 0.07532375 0.07615164
 0.07675909 0.07656015 0.07562904 0.07472898 0.0744645 0.07470004 0.07492143 0.0748283 0.07442659 0.07390717
 0.07369211 0.07432276 0.07593006 0.0777936 0.07859578 0.07725058 0.07368167 0.06907376 0.06543446 0.06451471
 0.06657536 0.07003735 0.07266797 0.07336039 0.07266111 0.07164238 0.07074799 0.06993513 0.06941853 0.06970383
 0.07089169 0.0722148 0.07243429 0.07089496 0.06830293 0.06622854 0.06567577 0.06644927 0.06798859 0.06997979
 0.07150844 0.07057518 0.06606168 0.06022003 0.05766729 0.06099405 0.06799838 0.07384293 0.07535987 0.07281779
 0.06850877 0.06485263 0.0634945 0.06485899 0.06806344 0.07165081 0.07447545 0.07576239 0.07491724 0.07204399
 0.06844515 0.06598646 0.06595227 0.0685479 0.07285899 0.07693052 0.07865378 0.07732604 0.07411959 0.07084503
 0.068759 0.06856576 0.07059512 0.07445672 0.07902464 0.08308914 0.0858444 0.08696514 0.08667746 0.08561605
 0.08433985 0.08324243 0.08288948 0.08366524 0.08486719 0.08498087 0.08332992 0.08097703 0.0796277 0.07987006
 0.08070935 0.08077788 0.07971738 0.07795902 0.07537296 0.07124098 0.06590216 0.06119497 0.05862176 0.05820433
 0.05957345 0.06255307 0.06587855 0.0671256 0.06536528 0.06285319 0.06279276 0.06591992 0.07012422 0.07302052
 0.07415342 0.0748357 0.07645535 0.07905474 0.0811497 0.08085056 0.07773829 0.07391928 0.07253547 0.07467984
 0.07834837 0.08090951 0.08187956 0.08262245 0.08395778 0.08488232 0.08361407 0.07970911 0.0751963 0.07332876
 0.07575348 0.08085981 0.08494595 0.08495906 0.08054884 0.07414219 0.0690489 0.06717235 0.06850012 0.07236402
 0.07817608 0.08476815 0.0900901 0.09236117 0.09137064 0.08836666 0.08462754 0.08028029 0.07499346 0.06995513
 0.06809881 0.07132877 0.07808782 0.08466065 0.08848815 0.08943837 0.08835696 0.08548615 0.08070614 0.07506207
 0.07126562 0.07159059 0.07513855 0.078347 0.07872017 0.07710318 0.07585378 0.07590041 0.076397 0.07652789
 0.07667229 0.07775039 0.07990119 0.08213943 0.08331242 0.08314893 0.08229413 0.08155605 0.08117583 0.08065736
 0.07946254 0.07808731 0.07800802 0.08007101 0.08333151 0.08602327 0.08733027 0.08768825 0.08760938 0.08677883
 0.08451292 0.08104981 0.07807729 0.07748185 0.07952619 0.08268704 0.085241 0.0865006 0.08665453 0.0861524
 0.08539839 0.08461259 0.0838957 0.08351952 0.0838643 0.08488206 0.08596449 0.08655448 0.08660606 0.08631957
 0.08574825 0.08486566 0.0838396 0.0830473 0.08281027 0.08315577 0.08384739 0.08459637 0.08516788 0.08535714
 0.0850674 0.08444969 0.08380327 0.0833017 0.08294404 0.08275444 0.0828377 0.08319321 0.0836264 0.08391796
 0.08399969 0.0839245 0.08374397 0.08347236 0.0831333 0.08279942 0.08258401 0.08257105 0.08272332 0.08289839
 0.08300458 0.08309011 0.08321391 0.08329703 0.0832048 0.08293874 0.08265103 0.08248194 0.08244951 0.08248451
 0.08250248 0.08241984 0.08215617 0.0817045 0.08121786 0.08094972 0.08104914 0.08144996 0.0819748 0.08247046
 0.08282772 0.08298603 0.08298183 0.08291838 0.08284399 0.08271173 0.08248048 0.08221614 0.08207412 0.08218007
 0.08251534 0.08292553 0.08325117 0.08342925 0.08348052 0.08347037 0.08349063 0.0835928 0.08371323 0.08373384
 0.08363549 0.08353198 0.08353765 0.08364408 0.08374048 0.08373894 0.08367087 0.08365288 0.08375721 0.08394185
 0.08411711 0.0842474 0.08436645 0.08450982 0.08464849 0.08469713 0.08460644 0.08443855 0.08431315 0.08428369
 0.08431537 0.08437845 0.08449593 0.08467872 0.08486743 0.08497931 0.08499838 0.08498915 0.08501485 0.08505952
 0.08505014 0.08494885 0.08479969 0.0846824 0.0846408 0.0846609 0.08469894 0.08471756 0.08470087 0.08464901
 0.08456849 0.08446831 0.08435886 0.08425646 0.08419496 0.08421683 0.08432552 0.08444694 0.08446857 0.08433704
 0.08411148 0.08390898 0.0837958 0.08373733 0.08365375 0.08351011 0.08333935 0.08319144 0.08308601 0.08301331
 0.08295458 0.08289549 0.08284315 0.08283933 0.08293009 0.0831011 0.0832603 0.08331369 0.08325388 0.08315693
 0.08310152 0.08311125 0.08316246 0.08322366 0.08328982 0.08338729 0.08353136 0.08368052 0.08376741 0.08378251
 0.08379088 0.08386019 0.0840083 0.08421817 0.08445243 0.08464919 0.08475778 0.08479817 0.08484823 0.08495848
 0.08510876 0.08525597 0.08539203 0.08553834 0.08570789 0.08589786 0.08611204 0.08636904 0.08668076 0.08702838
 0.08736251 0.08763229 0.08782752 0.08799967 0.08823095 0.08856879 0.08898634 0.08940747 0.08977059 0.09007308
 0.09035775 0.09065816 0.09096799 0.09127359 0.0915973 0.09197745 0.09241185 0.09285396 0.09326705 0.0936556
 0.0940413 0.0944327 0.09482654 0.09522603 0.09564929 0.09611225 0.09659618 0.09704258 0.09740227 0.09768882
 0.09796859 0.09830329 0.09870984 0.09915441 0.09956594 0.09988228 0.1001157 0.1003548 0.1006696 0.1010305
 0.1013599 0.1016473 0.1019648 0.1023659 0.1028117 0.1032179 0.1035489 0.1038431 0.104155 0.1044896
 0.1047948 0.1050192 0.105172 0.1053174 0.1055093 0.1057519 0.106036 0.1063794 0.1067978 0.1072533
 0.1076713 0.1080025 0.1082465 0.1084303 0.1085911 0.108765 0.108963 0.109167 0.1093616 0.109545
 0.1097057 0.1098277 0.1099344 0.110087 0.1103179 0.110603 0.1109166 0.1112701 0.1116684 0.1120682
 0.1124253 0.1127659 0.1131573 0.1136039 0.1140165 0.1143074 0.1144795 0.1145953 0.1146974 0.1148043
 0.1149588 0.1152176 0.1155865 0.1160057 0.1164085 0.1167679 0.1170861 0.117363 0.1175889 0.1177556
 0.1178668 0.1179429 0.1180185 0.1181372 0.1183412 0.1186466 0.11902 0.1193909 0.1196962 0.1199045
 0.1199978 0.1199631 0.1198256 0.1196652 0.1195561 0.1194847 0.1193501 0.1190505 0.1185513 0.1178741
 0.1170498 0.1161024 0.1150714 0.1140331 0.1130876 0.112323 0.1117974 0.1115535 0.11163 0.1120294
 0.1126731 0.1134117 0.1140864 0.1145674 0.1147432 0.114521 0.113877 0.1128912 0.1117093 0.1104732
 0.1092851 0.1082029 0.1072419 0.1064074 0.1057633 0.1054663 0.1057072 0.1066083 0.1081611 0.1102236
 0.1125557 0.114889 0.1170196 0.1188705 0.1204733 0.1218923 0.1231716 0.1243428 0.1254465 0.1265138
 0.1275344 0.1284709 0.1293075 0.1300609 0.1307452 0.1313488 0.1318469 0.1322205 0.1324675 0.1326103
 0.132687 0.132723 0.1327206 0.1326829 0.1326238 0.1325334 0.1323505 0.1319926 0.1314187 0.1306712
 0.1298847 0.129275 0.1291039 0.1296025 0.1308691 0.1328053 0.1351498 0.1375958 0.139898 0.1419023
 0.143531 0.1447794 0.1457163 0.1464499 0.1470752 0.1476509 0.1482075 0.1487584 0.1493027 0.1498297
 0.1503298 0.1508051 0.1512723 0.1517495 0.1522348 0.1527056 0.1531448 0.1535649 0.1539999 0.1544713
 0.1549652 0.1554455 0.1558939 0.1563294 0.1567758 0.1572189 0.15762 0.1579691 0.1583022 0.1586646
 0.1590775 0.1595348 0.1600083 0.1604528 0.1608335 0.1611564 0.1614625 0.1617876 0.1621369 0.1624966
 0.1628551 0.1632084 0.1635557 0.1639037 0.1642693 0.1646608 0.1650548 0.1654065 0.1656934 0.1659398
 0.1661943 0.1664856 0.1668055 0.1671261 0.1674344 0.1677483 0.1680981 0.1684866 0.168876 0.1692199
 0.1695071 0.1697675 0.1700399 0.1703405 0.1706622 0.1709912 0.1713171 0.1716325 0.1719352 0.1722308
 0.1725293 0.1728353 0.1731457 0.1734539 0.1737555 0.1740528 0.1743519 0.1746573 0.1749707 0.1752972
 0.1756456 0.1760142 0.1763797 0.1767089 0.1769845 0.1772186 0.1774423 0.1776831 0.1779507 0.1782376
 0.1785329 0.1788311 0.17913 0.1794268 0.1797195 0.1800098 0.1803018 0.1805983 0.180899 0.1812022
 0.1815087 0.1818225 0.1821444 0.1824647 0.1827676 0.1830457 0.1833081 0.183572 0.1838483 0.1841342
 0.1844169 0.1846866 0.1849457 0.1852069 0.1854822 0.1857725 0.1860665 0.1863486 0.1866121 0.1868652
 0.1871225 0.1873928 0.1876758 0.1879667 0.1882597 0.1885514 0.1888411 0.1891265 0.1894034 0.1896729
 0.1899421 0.1902148 0.1904872 0.1907584 0.191035 0.1913206 0.191608 0.191886 0.1921521 0.1924142
 0.1926834 0.1929631 0.193246 0.1935245 0.1937982 0.1940702 0.1943404 0.1946072 0.1948699 0.1951302
 0.1953921 0.1956583 0.1959254 0.1961882 0.1964494 0.1967188 0.197001 0.1972934 0.1975906 0.1978837
 0.198163 0.1984275 0.1986892 0.1989619 0.1992467 0.1995296 0.1997922 0.200031 0.2002605 0.2004958
 0.2007388 0.2009861 0.2012383 0.2014958 0.2017547 0.2020118 0.2022661 0.2025179 0.2027732 0.2030399
 0.2033168 0.2035945 0.2038679 0.2041392 0.2044101 0.2046818 0.2049552 0.2052274 0.2054961 0.2057652
 0.2060376 0.2063095 0.206579 0.2068492 0.2071179 0.2073791 0.2076345 0.2078919 0.2081548 0.2084239
 0.2086978 0.2089681 0.2092286 0.2094853 0.2097474 0.2100162 0.2102914 0.2105715 0.2108467 0.2111098
 0.2113685 0.2116328 0.2119009 0.2121696 0.2124385 0.2127029 0.2129629 0.2132318 0.2135167 0.2138039
 0.2140799 0.2143456 0.2146056 0.214866 0.2151371 0.2154191 0.215696 0.2159567 0.2161992 0.2164123
 0.2165541 0.2164932 0.2158856 0.2140585 0.2100063 0.2025869 0.1909652 0.175139 0.1561316 0.1356335
 0.1153752 0.09667438 0.08030969 0.06662668 0.05570516 0.04746481 0.04173379 0.03836567 0.0373586 0.03897694
 0.04388702 0.0527637 0.06479882 0.07638013 0.08249781 0.08069953 0.07343537 0.06582512 0.06140572 0.06042346
 0.06136014 0.06291901 0.06469129 0.06691933 0.07001288 0.07408268 0.07892502 0.08452816 0.09131584 0.09960465
 0.108959 0.1183788 0.1271648 0.1354621 0.143915 0.1528868 0.1620789 0.170824 0.1786133 0.1853502
 0.1912497 0.1966039 0.2016143 0.2063659 0.2108897 0.2151737 0.2190751 0.2222755 0.2244276 0.2254186
 0.2255063 0.2251794 0.2248697 0.2247791 0.224925 0.2252699 0.2257856 0.2264523 0.2272526 0.2281638
 0.2291489 0.2301646 0.2311789 0.2321695 0.2331159 0.2340027 0.2348228 0.2355731 0.2362555 0.2368817
 0.2374645 0.2380089 0.2385155 0.2389866 0.2394247 0.2398343 0.2402231 0.2405971 0.2409563 0.2412986
 0.2416224 0.2419262 0.2422117 0.2424848 0.2427512 0.2430137 0.2432763 0.2435425 0.2438083 0.2440666
 0.2443179 0.2445673 0.2448154 0.2450613 0.2453087 0.24556 0.2458116 0.2460584 0.2462994 0.2465369
 0.2467747 0.2470181 0.2472684 0.2475199 0.2477654 0.2480019 0.2482316 0.2484596 0.2486892 0.248919
 0.2491496 0.2493915 0.2496554 0.249936 0.250217 0.2504898 0.2507553 0.2510162 0.2512767 0.2515405
 0.2517987 0.2520304 0.2522261 0.2524034 0.2525959 0.2528275 0.2530926 0.2533625 0.2536142 0.2538505
 0.2540835 0.2543157 0.2545394 0.2547456 0.2549354 0.2551353 0.2553878 0.2557038 0.2560458 0.2563707
 0.2566673 0.2569421 0.257208 0.2574882 0.2577874 0.2580606 0.2582538 0.2583843 0.2585503 0.2588458
 0.2592705 0.2597258 0.2601091 0.260403 0.2606592 0.2609279 0.2612301 0.2615454 0.2617777 0.2618165
 0.2617109 0.2617093 0.2620308 0.2626445 0.2633334 0.2639194 0.2643679 0.2647288 0.2650461 0.2653127
 0.2654791 0.2655107 0.2654683 0.2655275 0.265859 0.26645 0.2670976 0.2676145 0.267976 0.2682461
 0.2684699 0.2686692 0.2687998 0.2686902 0.2682224 0.2676497 0.2675284 0.2681796 0.2693239 0.2703775
 0.2710285 0.2713982 0.2717091 0.272011 0.2722475 0.2723128 0.2719255 0.2707882 0.2691741 0.2680887
 0.2684362 0.2701061 0.2721521 0.2737388 0.2746652 0.275144 0.275434 0.275669 0.2757571 0.2753905
 0.274388 0.2731539 0.2725758 0.2732086 0.2746528 0.2759864 0.276707 0.2769938 0.2772114 0.2775005
 0.2776816 0.2772045 0.275461 0.2726856 0.2704024 0.2703547 0.2728032 0.2762132 0.2787727 0.2799499
 0.2803578 0.2804195 0.2797453 0.2778372 0.2748386 0.2714704 0.2688024 0.2681086 0.2700267 0.2735018
 0.2763813 0.2775382 0.2778233 0.2786529 0.2803144 0.2819706 0.2827525 0.2824364 0.2812917 0.2795997
 0.2775182 0.2755302 0.274712 0.2759677 0.2789302 0.282096 0.2842182 0.2852503 0.2856818 0.2850775
 0.2817952 0.2749612 0.266924 0.2625968 0.2651214 0.272581 0.2800577 0.2844676 0.2862464 0.2870347
 0.2874837 0.2870821 0.2844529 0.2780983 0.2687503 0.2608635 0.2596057 0.2657418 0.2747684 0.2811244
 0.2819903 0.2775875 0.2701651 0.2633248 0.2605548 0.2631185 0.269501 0.2769049 0.2829306 0.2862354
 0.2865164 0.2843765 0.2812713 0.2791537 0.2790627 0.2795812 0.277909 0.2734033 0.2686616 0.2657155
 0.2628902 0.2578999 0.2528541 0.2528568 0.2593647 0.2677498 0.2725022 0.2728114 0.2715637 0.2700884
 0.2658889 0.2562428 0.2433543 0.2344365 0.2353935 0.2446898 0.2547141 0.259208 0.258213 0.2558503
 0.2548044 0.2536287 0.2488869 0.2397241 0.2301414 0.2256911 0.2276594 0.2319678 0.2340287 0.2323859
 0.2271226 0.2184387 0.2093463 0.2066245 0.2150398 0.2314691 0.2473454 0.2557185 0.2537999 0.2414137
 0.2219442 0.2043371 0.198754 0.2074882 0.2221853 0.2315372 0.2302685 0.2200655 0.2047059 0.1874594
 0.1725952 0.165871 0.1710758 0.1861742 0.2034102 0.2132043 0.2094496 0.1942294 0.1781503 0.172708
 0.1798713 0.190767 0.1956297 0.1926512 0.1865762 0.1825497 0.1831295 0.1879098 0.1939757 0.1986105
 0.2014596 0.2015294 0.1942696 0.1770659 0.1566001 0.1444727 0.1451425 0.153619 0.1647555 0.177865
 0.1907092 0.1963387 0.1909486 0.1811437 0.1783388 0.1866479 0.1993476 0.2070783 0.2070983 0.2037899
 0.2018436 0.2012088 0.1994932 0.1974834 0.1993229 0.2068068 0.2162549 0.2226239 0.2247613 0.2249506
 0.2250519 0.2251015 0.2246158 0.2234262 0.2215936 0.2195336 0.2178953 0.2168225 0.2158204 0.2145087
 0.2125973 0.2087662 0.2009646 0.1893246 0.1780049 0.1719294 0.1716007 0.1734017 0.1749839 0.1766785
 0.1764947 0.1686616 0.151283 0.1326453 0.1251897 0.1334901 0.1508537 0.1669277 0.1755682 0.1753293
 0.166427 0.1511368 0.1365045 0.1321166 0.1422246 0.1616379 0.1812973 0.1960962 0.2054115 0.2087454
 0.2048739 0.1950944 0.1845169 0.1791669 0.1823358 0.1930948 0.2065463 0.2150419 0.2119295 0.1982039
 0.1855185 0.1875827 0.2057003 0.2265015 0.2369635 0.237629 0.2372498 0.2391936 0.2397988 0.2379925
 0.239118 0.2475929 0.2603862 0.2699947 0.2710251 0.2623165 0.2462055 0.2290177 0.2194448 0.2216348
 0.2305605 0.2375564 0.2387329 0.2344593 0.2242542 0.2090118 0.196485 0.1965812 0.2098566 0.2262111
 0.2363646 0.240312 0.243129 0.2462706 0.2458437 0.2385425 0.2271627 0.2188689 0.2180778 0.2225675
 0.2271861 0.2292613 0.2286564 0.2247244 0.2166975 0.2070487 0.2015136 0.2041346 0.2131276 0.2226137
 0.2279413 0.2286378 0.2269619 0.2250527 0.2235113 0.2216159 0.2187627 0.2163128 0.2173211 0.2231875
 0.2312938 0.2376356 0.2413893 0.2451688 0.2509112 0.257167 0.2608234 0.2604875 0.2578259 0.2561339
 0.2576979 0.2619729 0.2659774 0.2668253 0.2644591 0.2619568 0.2627056 0.2671784 0.2728593 0.2771242
 0.2794018 0.2806202 0.2816434 0.2825313 0.2825142 0.2805842 0.2769491 0.273886 0.2741342 0.278168
 0.2837226 0.2881044 0.290345 0.2910657 0.2910236 0.2903201 0.2888104 0.2868072 0.2851101 0.2843816
 0.2846748 0.2855966 0.2867284 0.287802 0.2886753 0.2893188 0.2897859 0.2901257 0.2903655 0.290563
 0.2907681 0.2909257 0.290932 0.2908248 0.2908115 0.2910353 0.2913918 0.2916446 0.2916459 0.2913489
 0.2906811 0.2895625 0.2880475 0.2863098 0.2844414 0.2823933 0.2802324 0.2784177 0.2776642 0.2784088
 0.2804059 0.2828808 0.2850668 0.2865905 0.2874527 0.2878189 0.2878815 0.2878125 0.2877259 0.2876487
 0.2875452 0.2873775 0.2871431 0.2868631 0.2865595 0.286256 0.2859865 0.2857748 0.2856048 0.2854217
 0.2851644 0.2848002 0.2843395 0.2838212 0.2832726 0.2826751 0.2819746 0.2811272 0.2801344 0.2790427
 0.2779198 0.276823 0.2757713 0.2747366 0.2736699 0.2725315 0.2712854 0.2698799 0.268292 0.2666044
 0.2649867 0.2635567 0.2622893 0.2610741 0.259821 0.2584901 0.2570737 0.2555898 0.2540761 0.2525634
 0.2510588 0.2495509 0.248017 0.2464278 0.2447567 0.2429852 0.2411039 0.2391189 0.2370578 0.2349565
 0.2328176 0.2305715 0.2280819 0.2251952 0.2217877 0.217782 0.2131609 0.2080017 0.2024876 0.1968645
 0.1913733 0.1862049 0.1814859 0.177292 0.1736765 0.1706869 0.1683602 0.1667151 0.165757 0.1654835
 0.1658857 0.166942 0.168595 0.1707337 0.1732119 0.1758794 0.1785835 0.1811722 0.1835483 0.1857294
 0.1878203 0.1899093 0.1919971 0.1940213 0.1959257 0.1976847 0.1992729 0.2006512 0.2018024 0.2027587
 0.2035761 0.2042931 0.204923 0.2054634 0.2059025 0.2062278 0.2064379 0.2065431 0.2065634 0.2065285
 0.2064728 0.2064281 0.2064259 0.2064962 0.2066516 0.2068758 0.2071333 0.2073916 0.2076454 0.2079239
 0.2082677 0.2087037 0.2092543 0.2099597 0.2108608 0.2119604 0.213219 0.2145784 0.2159769 0.2173566
 0.21867 0.2198739 0.2209243 0.2217886 0.2224611 0.2229571 0.2233022 0.2235307 0.2236838 0.2238045
 0.2239316 0.2240883 0.2242754 0.2244836 0.2247031 0.2249121 0.225079 0.2251922 0.2252636 0.2252924
 0.2252547 0.2251413 0.2249778 0.2247972 0.2246065 0.2243848 0.2241019 0.2237421 0.223314 0.2228403
 0.2223393 0.2218113 0.2212236 0.2205116 0.2196209 0.2185504 0.2173396 0.2160222 0.2146098 0.2131036
 0.2115046 0.2098239 0.2080916 0.2063406 0.2045725 0.2027483 0.2008108 0.1987234 0.1965095 0.1942554
 0.1920611 0.1899818 0.1880161 0.1861358 0.1843191 0.1825701 0.1809109 0.1793505 0.1778754 0.1764764
 0.1751579 0.173911 0.1727064 0.1715323 0.1704172 0.1694044 0.1685187 0.1677571 0.1670986 0.1665203
 0.1660079 0.1655551 0.1651724 0.1648953 0.1647513 0.1647055 0.1646674 0.1645639 0.1643845 0.1641581
 0.1639223 0.1637121 0.1635484 0.1634294 0.1633356 0.1632294 0.1630445 0.162692 0.1620846 0.161158
 0.159888 0.1583049 0.1564867 0.1545407 0.1525947 0.150784 0.1492193 0.1479614 0.1470129 0.1463138
 0.1457577 0.1452558 0.1447969 0.1444462 0.1442834 0.1443211 0.1444534 0.1445131 0.1444255 0.1442942
 0.1443082 0.1445833 0.1450975 0.1457325 0.1463559 0.1468888 0.1473064 0.1475883 0.1477125 0.1476984
 0.1475981 0.1474364 0.1472051 0.1469071 0.1465629 0.1461836 0.1457634 0.1452844 0.1447242 0.1440758
 0.1433497 0.1425514 0.1416835 0.1407522 0.1397282 0.1385514 0.1372511 0.1360349 0.1351923 0.1349215
 0.1352349 0.1359647 0.136871 0.1377978 0.1386762 0.1393532 0.1396108 0.1395181 0.1396321 0.1406019
 0.1425367 0.1448748 0.1468874 0.1482004 0.1488179 0.1488386 0.1483244 0.1473368 0.1459001 0.1439679
 0.1415479 0.13878 0.1358255 0.132808 0.1298878 0.1272412 0.1249672 0.1231036 0.1216652 0.1206958
 0.1203131 0.1201269 0.1182542 0.1123048 0.1030549 0.09608729 0.09711143 0.1055567 0.1149637 0.1198105
 0.1199115 0.1181764 0.1166385 0.1156401 0.1151094 0.1151894 0.1159884 0.1173401 0.1188294 0.1200312
 0.1207761 0.1211128 0.1210106 0.1201344 0.1177933 0.1131672 0.1059701 0.09704897 0.08809572 0.08065201
 0.07542691 0.07232498 0.07076479 0.07001168 0.0695421 0.06928395 0.06951671 0.07053331 0.07239427 0.07496098
 0.07804294 0.08138305 0.08456831 0.08719301 0.08916722 0.09069677 0.09193402 0.09280605 0.09318227 0.09304715
 0.092495 0.09167007 0.09072212 0.08974326 0.08872055 0.08758166 0.08633851 0.08519287 0.08441859 0.08409351
 0.08403268 0.0840171 0.08397278 0.08390765 0.0838215 0.08371975 0.08362144 0.08355897 0.08362018 0.08390882
 0.08439898 0.0849102 0.08527105 0.08545169 0.08553107 0.08555768 0.08542822 0.08497629 0.08426822 0.08365491
 0.08332862 0.08298939 0.08223059 0.08114924 0.0802933 0.08004928 0.08030057 0.08065371 0.08080509 0.08068644
 0.08044507 0.08037154 0.08070555 0.08135383</values></Ydata></ScSm><ScRf><Ydata ylabel="Single channel"><values byteorder="INTEL" format="FLOAT32" numvalues="1820"> 0.06067681 0.06083516 0.06093392 0.06097184 0.06097217 0.06097731 0.06103427 0.0611677 0.06135776 0.06154496
 0.06167144 0.06172511 0.06173182 0.06170849 0.06165828 0.06161644 0.06165381 0.06180597 0.06201933 0.06218608
 0.06223156 0.06217901 0.06213695 0.062194 0.06230073 0.06227847 0.06198619 0.06148354 0.06099693 0.06071178
 0.06065407 0.06081609 0.06126865 0.06195591 0.06246116 0.06230197 0.06153464 0.06078283 0.06054734 0.06072754
 0.06090991 0.06084606 0.06052779 0.06009854 0.05990513 0.0604055 0.06171814 0.06324998 0.06391226 0.06281205
 0.05988955 0.05611703 0.05313774 0.05238431 0.05406963 0.0568995 0.05904421 0.05959792 0.05901247 0.05817197
 0.05744109 0.05677783 0.05635002 0.05657236 0.05753474 0.05861215 0.0587864 0.05751882 0.05539153 0.05369249
 0.05323788 0.05386087 0.05510475 0.05672158 0.05796773 0.05720306 0.05350628 0.0487198 0.04662817 0.04935917
 0.05511184 0.05991722 0.06116883 0.05908457 0.05555414 0.05256994 0.05147148 0.05258863 0.05519355 0.05810688
 0.06040665 0.06146203 0.0607796 0.05843584 0.05549179 0.05347499 0.05344103 0.05556115 0.05908601 0.06241402
 0.06382048 0.06273186 0.06010696 0.0574258 0.05571567 0.05555327 0.0572111 0.06037303 0.06411801 0.06745172
 0.06970811 0.0706161 0.07036321 0.06948209 0.06844521 0.06757425 0.06731328 0.06795828 0.06893348 0.06901151
 0.0676486 0.06571592 0.06460637 0.06479858 0.06547806 0.06552689 0.0646532 0.06321014 0.06109155 0.05771039
 0.05334547 0.04950149 0.04740546 0.04707285 0.04820545 0.05066879 0.05343039 0.05449227 0.05307303 0.05100925
 0.0509323 0.0534627 0.05688538 0.05924966 0.06017878 0.06074323 0.06207459 0.06420174 0.06590695 0.06564744
 0.06308895 0.05996476 0.0588528 0.06064563 0.06368924 0.06581312 0.06661846 0.06723692 0.06835683 0.06915941
 0.06817449 0.06502833 0.06137902 0.05988706 0.06189498 0.06608321 0.06942803 0.06943604 0.0658226 0.06058023
 0.05642792 0.05492865 0.05607384 0.05932252 0.06419857 0.06973815 0.07424256 0.07622934 0.07550655 0.07309467
 0.07005815 0.06651451 0.06218836 0.05806074 0.05658 0.05935357 0.06509802 0.07070866 0.07403178 0.07494255
 0.07413967 0.0718167 0.06786586 0.06317703 0.06006605 0.06047613 0.0636387 0.06650535 0.06693792 0.06565951
 0.06469484 0.06484524 0.06538343 0.06560727 0.06585307 0.06692937 0.0689586 0.0710716 0.07224517 0.07222998
 0.07159601 0.071071 0.07087781 0.07057214 0.06967157 0.06861965 0.06872503 0.07072271 0.07375824 0.07626559
 0.07753678 0.07797433 0.07803658 0.07743417 0.07554728 0.07258861 0.07007778 0.06971383 0.07173098 0.07474974
 0.07720986 0.07849465 0.07878581 0.07849373 0.07797654 0.07742956 0.07695229 0.07679789 0.0773022 0.07840341
 0.07953933 0.08020984 0.08038568 0.08025296 0.07985431 0.07916604 0.07835747 0.07779045 0.07775696 0.07826246
 0.07907446 0.07992889 0.08061799 0.08094998 0.08082044 0.08036307 0.0798724 0.07953461 0.07935713 0.0793518
 0.07960172 0.08009635 0.08064752 0.08104853 0.08124086 0.08128305 0.08122911 0.08109113 0.08088741 0.08069027
 0.08061749 0.08074808 0.08102707 0.08130527 0.08151303 0.08172803 0.08200927 0.08224487 0.08226827 0.08208103
 0.08186193 0.08177269 0.08182946 0.08195154 0.08205298 0.08205575 0.08187918 0.08151117 0.08110318 0.08091229
 0.08109605 0.08160012 0.08225077 0.08287896 0.08335039 0.08359273 0.08364913 0.08363336 0.08359748 0.08349659
 0.08329788 0.08307911 0.08300017 0.08318001 0.08359016 0.08407082 0.08445927 0.08468929 0.08478524 0.08482665
 0.08491831 0.08510691 0.08530481 0.08537148 0.08529036 0.08520013 0.08523176 0.08536366 0.08546031 0.0854308
 0.08533074 0.08530407 0.08543207 0.08566135 0.08588295 0.08605239 0.08621381 0.08641736 0.08662589 0.08672068
 0.08662546 0.08641198 0.08623552 0.08617288 0.08618562 0.0862386 0.08636757 0.08659258 0.08683105 0.086962
 0.08696158 0.08692756 0.08695905 0.08704062 0.08706694 0.08696786 0.08678302 0.08661751 0.08655025 0.08658743
 0.08667627 0.0867459 0.0867467 0.08667254 0.08655505 0.08643445 0.08633495 0.08627384 0.08628926 0.08642736
 0.08667314 0.08690684 0.08697304 0.0868187 0.08655279 0.0863496 0.08628871 0.08629523 0.08623338 0.08604296
 0.08577774 0.0855312 0.08535151 0.08522663 0.08512404 0.08503013 0.08496633 0.08497897 0.08509365 0.08525731
 0.08534354 0.08525366 0.0850138 0.08474908 0.08456909 0.08449959 0.08450224 0.08452252 0.08453144 0.08454919
 0.08461045 0.08469093 0.08470867 0.08462323 0.08449541 0.08442844 0.08448596 0.08466809 0.08490901 0.08508907
 0.08511401 0.08500937 0.08489771 0.08487134 0.0849226 0.08499829 0.08507371 0.08515544 0.08524866 0.08535282
 0.0854801 0.08565486 0.08588785 0.08615393 0.08639795 0.08656949 0.08666542 0.08674489 0.08689179 0.0871477
 0.08747684 0.08779763 0.08804992 0.08823577 0.08840001 0.08857594 0.08875974 0.08894408 0.08915606 0.08943338
 0.08976934 0.09011262 0.09042291 0.09070307 0.09097625 0.09125565 0.0915444 0.09185366 0.09221062 0.09263416
 0.09308935 0.09348211 0.09373181 0.09385352 0.09395397 0.09414859 0.09448177 0.09489454 0.09525195 0.09544427
 0.09549925 0.09556702 0.09576027 0.09604181 0.09630829 0.09654787 0.09685038 0.09726793 0.09772568 0.0980935
 0.09831749 0.09845965 0.09861824 0.0988244 0.09902185 0.09914669 0.09921135 0.09928806 0.09941989 0.09959145
 0.09979607 0.1000778 0.1004668 0.1009084 0.1013007 0.1015875 0.1017821 0.101922 0.102034 0.1021254
 0.1021853 0.102208 0.1022268 0.102292 0.1024023 0.1024968 0.1025361 0.102558 0.1026288 0.102776
 0.1029923 0.1032691 0.1035854 0.1038911 0.1041515 0.1044045 0.1047217 0.1050964 0.1054187 0.1055921
 0.1056409 0.1056611 0.1056994 0.1057415 0.1057992 0.1059339 0.1061804 0.1065009 0.1068375 0.1071723
 0.1075179 0.1078703 0.108191 0.1084267 0.1085422 0.1085481 0.1085066 0.108506 0.1086184 0.1088623
 0.1091923 0.1095288 0.1098069 0.1099971 0.1100849 0.110065 0.109981 0.1099403 0.1100354 0.1102393
 0.1104119 0.1104181 0.1102175 0.1098419 0.1093278 0.1087016 0.1080134 0.1073485 0.1067939 0.1063986
 0.1061772 0.1061476 0.1063495 0.1068015 0.1074438 0.1081505 0.1088034 0.1093271 0.1096472 0.1096705
 0.1093511 0.1087554 0.1080264 0.1072941 0.1066286 0.10604 0.1054883 0.1049293 0.1044008 0.1040601
 0.1041084 0.1046677 0.1057204 0.1071232 0.1086569 0.1100981 0.1113043 0.112261 0.1130493 0.1137606
 0.1144423 0.1151105 0.1157794 0.1164476 0.117075 0.1176137 0.1180658 0.1184798 0.1188908 0.1192881
 0.1196397 0.1199254 0.1201522 0.1203552 0.1205653 0.120759 0.120865 0.1208436 0.1207351 0.1206108
 0.1204939 0.1203459 0.1201097 0.1197571 0.1193231 0.1189262 0.1187496 0.1189641 0.1196313 0.1206663
 0.1219029 0.123199 0.1244698 0.1256343 0.1265892 0.1272681 0.1277046 0.1280047 0.1282669 0.1285413
 0.1288391 0.1291527 0.1294665 0.129765 0.1300428 0.1303123 0.1306017 0.13093 0.1312761 0.1315878
 0.1318362 0.1320582 0.1323294 0.1326896 0.1330997 0.1334826 0.1338051 0.1341048 0.1344239 0.1347395
 0.1349913 0.1351659 0.1353192 0.1355179 0.1357904 0.1361284 0.1364962 0.1368363 0.1370993 0.1372866
 0.1374468 0.1376278 0.1378441 0.1380858 0.1383403 0.1385964 0.1388471 0.1390995 0.1393776 0.1396936
 0.1400153 0.1402804 0.1404578 0.1405839 0.1407266 0.1409197 0.1411424 0.1413553 0.1415472 0.1417497
 0.1420062 0.1423228 0.1426487 0.1429153 0.1430961 0.1432229 0.1433486 0.143506 0.143698 0.1439124
 0.144134 0.1443474 0.1445441 0.1447303 0.1449217 0.1451263 0.1453374 0.1455449 0.1457467 0.1459458
 0.1461458 0.1463508 0.1465703 0.1468181 0.1471026 0.1474123 0.1477113 0.1479594 0.1481403 0.1482687
 0.1483747 0.1484887 0.1486332 0.1488152 0.1490234 0.1492381 0.1494466 0.1496484 0.1498504 0.1500584
 0.1502717 0.1504836 0.1506884 0.1508881 0.1510923 0.1513109 0.1515448 0.1517835 0.1520133 0.1522268
 0.1524241 0.1526116 0.1527984 0.1529899 0.1531794 0.1533562 0.153521 0.1536886 0.1538714 0.154068
 0.1542693 0.1544688 0.1546652 0.1548599 0.1550544 0.1552491 0.1554439 0.1556381 0.155832 0.1560278
 0.1562285 0.1564329 0.1566354 0.1568328 0.1570295 0.1572312 0.1574382 0.1576457 0.1578487 0.1580451
 0.1582362 0.1584241 0.1586105 0.158799 0.1589956 0.159201 0.1594091 0.1596145 0.1598171 0.1600177
 0.1602161 0.1604151 0.1606189 0.1608281 0.1610412 0.161256 0.1614671 0.1616689 0.1618647 0.1620636
 0.1622684 0.1624765 0.1626891 0.1629111 0.1631426 0.1633798 0.1636187 0.1638538 0.1640752 0.1642732
 0.1644483 0.1646133 0.1647823 0.1649572 0.1651317 0.1653075 0.1654928 0.1656855 0.1658713 0.1660428
 0.1662095 0.1663873 0.1665839 0.1667942 0.1670059 0.1672133 0.1674222 0.1676373 0.1678516 0.1680558
 0.1682513 0.1684455 0.1686441 0.1688479 0.1690544 0.1692601 0.1694669 0.1696791 0.1698968 0.1701172
 0.170339 0.170559 0.1707723 0.1709804 0.1711877 0.1713913 0.171588 0.1717858 0.1719938 0.1722093
 0.1724249 0.1726372 0.1728448 0.1730486 0.1732539 0.1734626 0.1736692 0.1738729 0.1740794 0.1742894
 0.174499 0.1747094 0.1749236 0.1751408 0.1753596 0.1755771 0.1757874 0.1759934 0.1762082 0.1764332
 0.1766545 0.1768653 0.177067 0.1772448 0.1773555 0.1772937 0.1767904 0.1752978 0.1719758 0.16587
 0.1562942 0.1432572 0.1276064 0.1107349 0.09407301 0.07870909 0.06527705 0.05404753 0.04507887 0.03830778
 0.03359925 0.03083503 0.03001095 0.03134005 0.03536663 0.04264437 0.05251337 0.0620149 0.06703933 0.06556761
 0.0596014 0.0533399 0.04969204 0.04887133 0.0496433 0.05094628 0.05243221 0.05427994 0.0568161 0.06013962
 0.06410002 0.06870009 0.07428993 0.08112285 0.08883003 0.09657823 0.1037856 0.1105756 0.1174934 0.1248503
 0.1323975 0.139575 0.1459631 0.1514907 0.1563382 0.1607362 0.1648382 0.1687153 0.1724079 0.1759195
 0.1791302 0.1817646 0.1835263 0.1843211 0.1843642 0.184062 0.1837754 0.1836748 0.1837775 0.1840541
 0.1844794 0.1850303 0.1856852 0.186423 0.1872148 0.1880301 0.1888482 0.1896514 0.1904143 0.1911178
 0.1917647 0.1923691 0.1929372 0.1934626 0.1939369 0.1943627 0.1947578 0.1951407 0.1955133 0.1958679
 0.1962022 0.1965175 0.1968088 0.197069 0.1972996 0.1975112 0.1977183 0.1979317 0.1981524 0.198373
 0.1985896 0.1988043 0.1990178 0.199226 0.1994281 0.1996273 0.1998252 0.2000217 0.2002174 0.2004124
 0.2006051 0.2007964 0.2009894 0.2011846 0.2013809 0.2015794 0.2017815 0.2019851 0.202185 0.2023754
 0.2025546 0.2027285 0.2029067 0.2030939 0.203292 0.2035069 0.2037418 0.2039827 0.2042093 0.2044173
 0.2046202 0.2048292 0.2050441 0.2052575 0.2054569 0.2056296 0.2057773 0.2059233 0.2060992 0.20632
 0.2065692 0.2068093 0.2070151 0.2071929 0.2073655 0.2075462 0.2077331 0.2079188 0.2081029 0.208301
 0.2085334 0.2087954 0.2090575 0.2093031 0.2095424 0.2097842 0.2100236 0.2102634 0.2105082 0.2107339
 0.2109004 0.2110111 0.2111359 0.2113573 0.2116903 0.2120627 0.212384 0.2126296 0.2128434 0.2130775
 0.2133531 0.2136413 0.2138482 0.2138823 0.2137952 0.2137997 0.214074 0.2145851 0.2151502 0.2156235
 0.2159805 0.2162687 0.2165311 0.2167635 0.2169168 0.2169496 0.2169074 0.2169425 0.2172078 0.2177009
 0.2182518 0.2186956 0.2190056 0.2192392 0.2194396 0.2196217 0.2197413 0.2196545 0.219266 0.2187856
 0.2186727 0.2191972 0.2201382 0.2210208 0.2215843 0.2219169 0.2221945 0.2224618 0.2226786 0.2227565
 0.2224562 0.221528 0.2202018 0.2193193 0.2196361 0.2210574 0.2227877 0.2241271 0.22491 0.2253172
 0.2255675 0.2257775 0.225876 0.2256075 0.2248181 0.223839 0.2234049 0.2239756 0.2252204 0.2263736
 0.2270161 0.2272948 0.2275109 0.2277801 0.2279568 0.2275927 0.2261888 0.2239362 0.222093 0.2221023
 0.2241819 0.2270615 0.2292382 0.2302679 0.2306543 0.2307453 0.2302185 0.2286652 0.2262115 0.2234598
 0.221297 0.2207783 0.222431 0.2253773 0.2278299 0.2288563 0.2291646 0.2299282 0.2313825 0.2328304
 0.2335467 0.2333403 0.2324343 0.2310642 0.2293622 0.2277372 0.2271005 0.2282165 0.2307761 0.2335124
 0.2353731 0.2363153 0.236755 0.2363385 0.2336922 0.2280706 0.2214233 0.2178581 0.2200134 0.2263011
 0.2326191 0.2363887 0.2379682 0.2387227 0.2391889 0.238931 0.2367964 0.2315432 0.223799 0.2172978
 0.2163559 0.2215977 0.2292486 0.2346613 0.2354809 0.2318869 0.2257623 0.2201349 0.2179317 0.2201993
 0.2256585 0.231972 0.2371436 0.2400502 0.2404234 0.2387493 0.2362477 0.2345773 0.2346263 0.2351967
 0.2339215 0.2302636 0.2264176 0.2240856 0.2218333 0.2177243 0.2135621 0.2136969 0.2193817 0.2266909
 0.2309368 0.2314231 0.230598 0.2295827 0.2262369 0.218228 0.2074407 0.200066 0.2011924 0.2095264
 0.2185494 0.2229038 0.2226529 0.2213701 0.2213726 0.2213562 0.218233 0.2111644 0.2036199 0.2004637
 0.2027765 0.2068895 0.2087286 0.2070597 0.202056 0.1939969 0.1856237 0.1829863 0.1903429 0.2049497
 0.2192055 0.2269092 0.2255323 0.2148617 0.1978862 0.1826273 0.1782378 0.1867953 0.2007682 0.2099419
 0.2095197 0.2009693 0.187666 0.1726012 0.1597765 0.1546161 0.1607206 0.1762194 0.1937889 0.2042652
 0.2017044 0.1880407 0.1735525 0.1694684 0.1777105 0.1895361 0.1953199 0.193289 0.1881501 0.185049
 0.1866114 0.1924575 0.1995962 0.2052458 0.209056 0.2099205 0.202967 0.1854063 0.1642752 0.1518003
 0.1527023 0.161772 0.1736386 0.1875958 0.2012477 0.2072002 0.2013955 0.1908024 0.1874869 0.1958035
 0.2086667 0.2162216 0.2156003 0.2114461 0.2087456 0.2075223 0.2053183 0.2029348 0.2046357 0.2122654
 0.2220298 0.2287329 0.231181 0.2317133 0.2322286 0.2327399 0.2327227 0.2319932 0.2306263 0.2290746
 0.2280334 0.2276655 0.2274525 0.2269825 0.225921 0.2228018 0.2153513 0.2036771 0.1922897 0.1865288
 0.1869059 0.1894743 0.1916994 0.1939295 0.1939161 0.1852873 0.1659629 0.1450442 0.1361879 0.1444135
 0.1623722 0.1787266 0.1868309 0.1852896 0.1745716 0.1572302 0.1406152 0.1345612 0.1433652 0.1616703
 0.180196 0.193732 0.2017238 0.2038404 0.1989983 0.1885177 0.177381 0.1713806 0.173594 0.183035
 0.194983 0.2021956 0.1984539 0.1847477 0.1719966 0.1729899 0.1889684 0.2075507 0.2166499 0.2167121
 0.2158032 0.2170796 0.2172263 0.2152549 0.2160323 0.2236037 0.2352402 0.2441285 0.245353 0.2378391
 0.2237244 0.2088495 0.2012287 0.2045877 0.2140602 0.2214216 0.2230143 0.219262 0.2098269 0.1956421
 0.1840411 0.1843504 0.1970949 0.2127791 0.2226775 0.2267784 0.2298288 0.2331489 0.2330264 0.2263434
 0.2157954 0.2082339 0.2078941 0.2126921 0.2177559 0.2205673 0.2209843 0.2183197 0.2117704 0.2037348
 0.1998468 0.2040723 0.2145762 0.2254088 0.2318073 0.2331706 0.2316641 0.2294095 0.2270581 0.223967
 0.219621 0.2154694 0.2146402 0.2186028 0.2248361 0.2294239 0.2315364 0.2337008 0.2378266 0.2425795
 0.2450092 0.2437669 0.2403834 0.237931 0.2385566 0.2417795 0.2448519 0.2451051 0.242488 0.2398559
 0.2403429 0.2443708 0.2495899 0.253557 0.2557311 0.2569572 0.2580183 0.2589471 0.2590038 0.2572354
 0.25382 0.2508416 0.2508136 0.2541914 0.2589429 0.2626498 0.2644632 0.2649701 0.2648579 0.2641947
 0.2628164 0.2609829 0.2594146 0.2587242 0.2589734 0.2597985 0.2607924 0.2616876 0.2623533 0.2627861
 0.2630677 0.2632639 0.263395 0.2634912 0.2635849 0.2636345 0.2635639 0.263418 0.263381 0.2635754
 0.2639066 0.2641669 0.2642231 0.2640232 0.2634919 0.2625574 0.2612817 0.2598375 0.2583128 0.2566518
 0.2548988 0.2534625 0.2529908 0.2538815 0.2559128 0.2583817 0.2605897 0.2621909 0.2631754 0.2636819
 0.2638798 0.2639303 0.2639402 0.2639225 0.2638269 0.2636164 0.2633035 0.2629273 0.2625216 0.2621165
 0.2617463 0.2614345 0.2611676 0.2608969 0.2605691 0.2601573 0.2596743 0.2591588 0.2586403 0.2581004
 0.2574775 0.2567172 0.2558208 0.254849 0.2538884 0.2530087 0.2522258 0.251493 0.2507395 0.2499175
 0.2490034 0.247974 0.2468303 0.2456545 0.2445923 0.2437378 0.2430538 0.2424227 0.2417456 0.2409707
 0.2400753 0.2390737 0.2380208 0.2369637 0.2358968 0.2347851 0.2336098 0.2323675 0.2310487 0.2296427
 0.2281487 0.226577 0.2249521 0.2233061 0.2216388 0.2198791 0.2179006 0.2155738 0.2127914 0.2094707
 0.205572 0.2011378 0.1963142 0.1913244 0.1864036 0.1817348 0.177429 0.1735551 0.1701823 0.1673963
 0.1652777 0.1638709 0.1631791 0.1631899 0.1638933 0.1652633 0.1672305 0.1696799 0.1724674 0.1754345
 0.1784165 0.181257 0.1838511 0.1861975 0.1883863 0.1904981 0.1925157 0.1943583 0.1959795 0.197392
 0.198614 0.1996423 0.2004834 0.2011733 0.2017563 0.2022559 0.2026778 0.2030303 0.2033322 0.2036
 0.2038349 0.2040323 0.2041988 0.204357 0.2045371 0.2047623 0.2050353 0.2053499 0.2057178 0.2061656
 0.2066943 0.2072646 0.207837 0.208407 0.2089933 0.2096176 0.2103127 0.2111264 0.2120972 0.2132308
 0.2144992 0.2158537 0.2172322 0.2185602 0.2197585 0.2207617 0.2215335 0.2220636 0.2223584 0.2224422
 0.2223583 0.2221524 0.2218536 0.2214765 0.2210316 0.2205283 0.2199717 0.2193644 0.2187108 0.2180171
 0.2172934 0.2165588 0.2158411 0.2151613 0.2145174 0.2138886 0.2132604 0.2126375 0.2120311 0.2114407
 0.2108561 0.210272 0.2096937 0.2091289 0.2085716 0.2079902 0.2073385 0.206586 0.2057394 0.2048227
 0.2038388 0.20276 0.2015635 0.2002647 0.1989019 0.1974927 0.1960199 0.1944605 0.1928131 0.191086
 0.1892691 0.1873399 0.1853066 0.1832358 0.1812229 0.1793399 0.1776126 0.176033 0.1745738 0.1732005
 0.1718844 0.1706103 0.1693768 0.1681968 0.1670898 0.1660597 0.1650851 0.1641442 0.163244 0.1624169
 0.1616905 0.1610621 0.1605049 0.1600041 0.1595778 0.1592495 0.1590167 0.158867 0.1588025 0.1588159
 0.1588604 0.158871 0.1588092 0.1586811 0.1585263 0.1583938 0.1583124 0.1582799 0.1582717 0.1582397
 0.158107 0.1577872 0.15721 0.156327 0.1551193 0.153614 0.151883 0.15003 0.148188 0.1464989
 0.1450603 0.1439039 0.1430212 0.1423714 0.1418748 0.1414546 0.1411029 0.1408864 0.1408817 0.1410875
 0.1413753 0.1415601 0.1415709 0.1415334 0.1416563 0.1420587 0.1427122 0.1434898 0.144254 0.1449256
 0.1454817 0.1459047 0.146181 0.1463365 0.1464094 0.146394 0.1462649 0.1460329 0.1457372 0.1454095
 0.1450592 0.1446588 0.1441578 0.1435433 0.1428545 0.1421251 0.1413553 0.1405252 0.1395783 0.1384473
 0.1371833 0.1360218 0.1352553 0.1350652 0.1354566 0.1362737 0.1372961 0.1383771 0.1394247 0.1402375
 0.1405691 0.1405081 0.1406518 0.1416771 0.1437081 0.1461848 0.1483577 0.1498242 0.1505747 0.1507069
 0.1502835 0.1493645 0.1479668 0.1460359 0.1435824 0.140757 0.137727 0.1346292 0.1316511 0.1289778
 0.1266873 0.1248059 0.1233608 0.1224013 0.1220393 0.1218833 0.1200297 0.1140447 0.1047162 0.09773272
 0.09889719 0.1076024 0.117259 0.1222555 0.122422 0.1207327 0.1192428 0.118261 0.1176913 0.1176992
 0.1184222 0.1196974 0.121111 0.122251 0.1229543 0.123269 0.1231682 0.1223029 0.1199348 0.1151955
 0.1077885 0.09859749 0.08938743 0.08176687 0.07644841 0.0732834 0.07164663 0.0707965 0.07022169 0.06988335
 0.07010869 0.07120298 0.07319022 0.07590234 0.07915071 0.08267383 0.08603663 0.08882171 0.09094185 0.09260699
 0.09397746 0.09498978 0.09551847 0.09556121 0.09522969 0.09465738 0.09395593 0.09318847 0.09232002 0.09124191
 0.08994815 0.08868233 0.08778977 0.08739331 0.08731494 0.08732243 0.08732979 0.08734648 0.0873651 0.0873495
 0.08728251 0.08721961 0.08729529 0.08761424 0.08812077 0.08862878 0.08898005 0.08914462 0.08919069 0.08915693
 0.08893457 0.08836691 0.08753821 0.08679112 0.08628153 0.08569349 0.08465688 0.08333753 0.08233827 0.08204526
 0.08228675 0.08261634 0.08272564 0.08256477 0.08228419 0.08217417 0.08248782 0.08313929 0.08366777 0.0836674
</values></Ydata></ScRf><Data_Parameters_AB><parameter name="DPF">1</parameter><parameter name="NPT">3497</parameter><parameter name="FXV">3996</parameter><parameter name="LXV">500</parameter><parameter name="CSF">1</parameter><parameter name="MXY">0.0409145727753639</parameter><parameter name="MNY">-0.0951172038912773</parameter><parameter name="DAT">31/05/2022</parameter><parameter name="TIM">11:37:22.937 (GMT+2)</parameter><parameter name="DXU">WN</parameter></Data_Parameters_AB><AB__Qtest><MainReport name="Quality Test Report"><Header><Line><Legend>Test result ok/not ok [1/0]: </Legend><Value>0</Value></Line><Line><Legend>Method file: </Legend><Value>C:\Users\Public\Documents\Bruker\OPUS_8.2.28\QT\IRBT_v3_default.QT</Value></Line></Header><Matrix><Line><Legend></Legend><Legend>min</Legend><Legend>max</Legend><Legend>measured</Legend></Line><Line><Value>Absorption (X-Range 1):</Value><Value>0.400000</Value><Value>2.000000</Value><Value>0.111458</Value></Line><Line><Value>Noise (X-Range 4):</Value><Value></Value><Value>0.000300</Value><Value>0.000042</Value></Line><Line><Value>Signal/Noise (X-Range 2):</Value><Value>200.000000</Value><Value></Value><Value>56.181872</Value></Line><Line><Value>Signal/Noise (X-Range 3):</Value><Value>40.000000</Value><Value></Value><Value>35.882822</Value></Line><Line><Value>Water vapour (X-Range 5):</Value><Value></Value><Value>0.000300</Value><Value>0.000049</Value></Line><Line><Value>Signal/Water (X-Range 2):</Value><Value>100.000000</Value><Value></Value><Value>48.129254</Value></Line><Line><Value>Signal/Water (X-Range 3):</Value><Value>20.000000</Value><Value></Value><Value>30.739692</Value></Line><Line><Value>Fringes (X-Range 6):</Value><Value></Value><Value>0.000100</Value><Value>0.000058</Value></Line></Matrix></MainReport></AB__Qtest><Data_Parameters_ScSm><parameter name="DPF">1</parameter><parameter name="NPT">1814</parameter><parameter name="FXV">3996.33169228125</parameter><parameter name="LXV">499.541461535156</parameter><parameter name="CSF">1</parameter><parameter name="MXY">0.2916459441185</parameter><parameter name="MNY">0.0373585969209671</parameter><parameter name="DAT">31/05/2022</parameter><parameter name="TIM">11:37:22.937 (GMT+2)</parameter><parameter name="DXU">WN</parameter></Data_Parameters_ScSm><Data_Parameters_ScRf><parameter name="DPF">1</parameter><parameter name="NPT">1820</parameter><parameter name="FXV">4004.04661832813</parameter><parameter name="LXV">495.683998511719</parameter><parameter name="CSF">1</parameter><parameter name="MXY">0.264970064163208</parameter><parameter name="MNY">0.0300109535455704</parameter><parameter name="DAT">31/05/2022</parameter><parameter name="TIM">11:36:56.903 (GMT+2)</parameter><parameter name="DXU">WN</parameter></Data_Parameters_ScRf><Optic_Parameters_Rf><parameter name="APR">0</parameter><parameter name="APT">Open</parameter><parameter name="BMS">KBr</parameter><parameter name="DTC">RT-DLaTGS_IR-Biotyper [Microplate reader]</parameter><parameter name="HPF">0</parameter><parameter name="LPF">10.0</parameter><parameter name="LPV">4000</parameter><parameter name="PGR">0</parameter><parameter name="RCH">Module port</parameter><parameter name="RDX">0</parameter><parameter name="SRC">MIR</parameter><parameter name="VEL">10.0</parameter><parameter name="SON">Off</parameter></Optic_Parameters_Rf><Acquisition_Parameters_Rf><parameter name="ADT">1</parameter><parameter name="AQM">DD</parameter><parameter name="CFE">0</parameter><parameter name="COR">0</parameter><parameter name="DEL">0</parameter><parameter name="DLY">0</parameter><parameter name="HFW">8000</parameter><parameter name="LFW">0</parameter><parameter name="NSR">32</parameter><parameter name="PLF">AB</parameter><parameter name="RES">6</parameter><parameter name="RGN">-1</parameter><parameter name="STR">0</parameter><parameter name="TCL">MakeCompatibleScalar (0, {WSV=1.000000, ARV=0});</parameter><parameter name="TDL">37</parameter><parameter name="RPO">0</parameter></Acquisition_Parameters_Rf><FT_-_Parameters_Rf><parameter name="APF">B3</parameter><parameter name="HFQ">500</parameter><parameter name="LFQ">4000</parameter><parameter name="NLI">0</parameter><parameter name="PHR">24</parameter><parameter name="PHZ">ML</parameter><parameter name="SPZ">NO</parameter><parameter name="ZFF">1</parameter></FT_-_Parameters_Rf><Optic_Parameters_><parameter name="APR">0</parameter><parameter name="APT">Open</parameter><parameter name="BMS">KBr</parameter><parameter name="CHN">Module port</parameter><parameter name="DTC">RT-DLaTGS_IR-Biotyper [Microplate reader]</parameter><parameter name="HPF">0</parameter><parameter name="LPF">10.0</parameter><parameter name="LPV">4000</parameter><parameter name="PGN">0</parameter><parameter name="RDX">0</parameter><parameter name="SRC">MIR</parameter><parameter name="VEL">10.0</parameter><parameter name="SON">Off</parameter></Optic_Parameters_><FT_-_Parameters_><parameter name="APF">B3</parameter><parameter name="HFQ">500</parameter><parameter name="LFQ">4000</parameter><parameter name="NLI">0</parameter><parameter name="PHR">24</parameter><parameter name="PHZ">ML</parameter><parameter name="SPZ">NO</parameter><parameter name="ZFF">1</parameter></FT_-_Parameters_><Acquisition_Parameters_><parameter name="ADT">1</parameter><parameter name="AQM">DD</parameter><parameter name="CFE">0</parameter><parameter name="COR">0</parameter><parameter name="DEL">0</parameter><parameter name="DLY">0</parameter><parameter name="HFW">8000</parameter><parameter name="LFW">0</parameter><parameter name="NSS">32</parameter><parameter name="PLF">AB</parameter><parameter name="RES">6</parameter><parameter name="SOT">0</parameter><parameter name="TCL">MakeCompatibleScalar (0, {WSV=1.000000, ARV=0});</parameter><parameter name="TDL">37</parameter><parameter name="SPO">0</parameter><parameter name="SGN">-1</parameter></Acquisition_Parameters_><Instrument_Parameters_Rf><parameter name="HFL">15800.168544</parameter><parameter name="LFL">0</parameter><parameter name="LWN">15800.168544</parameter><parameter name="ABP">32197</parameter><parameter name="SSP">1</parameter><parameter name="ARG">2</parameter><parameter name="ASG">2</parameter><parameter name="ASS">32</parameter><parameter name="GFW">16</parameter><parameter name="GBW">16</parameter><parameter name="BFW">0</parameter><parameter name="BBW">0</parameter><parameter name="PKA">7263</parameter><parameter name="PKL">4996</parameter><parameter name="PRA">7450</parameter><parameter name="PRL">5001</parameter><parameter name="P2A">1</parameter><parameter name="P2L">1</parameter><parameter name="P2R">1</parameter><parameter name="P2K">1</parameter><parameter name="DAQ">0</parameter><parameter name="AG2">1</parameter><parameter name="SSM">1</parameter><parameter name="RSN">25477</parameter><parameter name="CRR">0</parameter><parameter name="SRT">1653997016.903</parameter><parameter name="DUR">19.6379852294922</parameter><parameter name="TSC">28.9</parameter><parameter name="MVD">0.219597890973091</parameter><parameter name="AN1">0.225792166822211</parameter><parameter name="AN2">0</parameter><parameter name="VSN">2.485 Apr  4 2017</parameter><parameter name="SRN">0085</parameter><parameter name="CAM">0</parameter><parameter name="INS">IR-Biotyper</parameter><parameter name="FOC">69</parameter><parameter name="RDY">1</parameter><parameter name="ARS">32</parameter></Instrument_Parameters_Rf><Sample_Parameters_><parameter name="BLD"></parameter><parameter name="CNM">Admin</parameter><parameter name="CPY"></parameter><parameter name="DPM"></parameter><parameter name="EXP">IRBT_v3_32Scans.XPM</parameter><parameter name="LCT"></parameter><parameter name="SFM">Microplate, HTS-XT</parameter><parameter name="SNM">220531-1021(v.3)_AML29F (D_4)_H8_2186b606-6321-4dd2-95bf-d904a690e4af.0</parameter><parameter name="XPP">C:\Users\Public\Documents\Bruker\OPUS_8.2.28\XPM</parameter><parameter name="IST">OK</parameter><parameter name="CPG">1252</parameter><parameter name="UID">1c2a320f-9305-4b83-ab77-03deaad0a4d4</parameter></Sample_Parameters_><Instrument_Parameters_><parameter name="HFL">15800.168544</parameter><parameter name="LFL">0</parameter><parameter name="LWN">15800.168544</parameter><parameter name="ABP">32197</parameter><parameter name="SSP">1</parameter><parameter name="ASG">2</parameter><parameter name="ARG">2</parameter><parameter name="ASS">32</parameter><parameter name="GFW">16</parameter><parameter name="GBW">16</parameter><parameter name="BFW">0</parameter><parameter name="BBW">0</parameter><parameter name="PKA">8138</parameter><parameter name="PKL">4988</parameter><parameter name="PRA">8413</parameter><parameter name="PRL">4993</parameter><parameter name="P2A">1</parameter><parameter name="P2L">1</parameter><parameter name="P2R">1</parameter><parameter name="P2K">1</parameter><parameter name="DAQ">0</parameter><parameter name="AG2">1</parameter><parameter name="SSM">1</parameter><parameter name="RSN">13364</parameter><parameter name="CRR">0</parameter><parameter name="SRT">1653997042.937</parameter><parameter name="DUR">19.6379852294922</parameter><parameter name="TSC">28.9</parameter><parameter name="MVD">0.201965823769569</parameter><parameter name="AN1">0.225790854017011</parameter><parameter name="AN2">0</parameter><parameter name="VSN">2.485 Apr  4 2017</parameter><parameter name="SRN">0085</parameter><parameter name="CAM">0</parameter><parameter name="INS">IR-Biotyper</parameter><parameter name="FOC">69</parameter><parameter name="RDY">1</parameter></Instrument_Parameters_><History/></OPUSDataFile>
