<?xml version="1.0" encoding="UTF-8" ?>
<OPUSDataFile><AB><Ydata ylabel="Absorbance Units"><values byteorder="INTEL" format="FLOAT32" numvalues="3497"> -0.08089549 -0.08093845 -0.08099214 -0.08105715 -0.08112487 -0.08119486 -0.0812592 -0.08131754 -0.08136356 -0.08139689
 -0.08141191 -0.08140897 -0.08138505 -0.08134354 -0.08128917 -0.08122882 -0.08117563 -0.08113401 -0.08111639 -0.08111661
 -0.0811363 -0.0811613 -0.08118409 -0.08119696 -0.08119342 -0.08117967 -0.08115524 -0.08113075 -0.08110821 -0.08109137
 -0.08108097 -0.08107554 -0.08107502 -0.0810797 -0.08108979 -0.08110852 -0.08113557 -0.08117124 -0.08121385 -0.08125794
 -0.08130161 -0.08133728 -0.08136516 -0.08138177 -0.08138929 -0.08138929 -0.08138231 -0.08136991 -0.08135009 -0.08132152
 -0.08128531 -0.08124026 -0.08119351 -0.08114653 -0.08110478 -0.08106966 -0.08104121 -0.0810193 -0.08100741 -0.08100571
 -0.08102439 -0.08106323 -0.08112342 -0.08120186 -0.08128031 -0.08135667 -0.08141164 -0.08144976 -0.08147155 -0.08148366
 -0.08149833 -0.08151691 -0.08154685 -0.08158386 -0.08162782 -0.08167204 -0.08171407 -0.0817449 -0.08176048 -0.08175587
 -0.08172654 -0.08168475 -0.08162962 -0.08158858 -0.08156396 -0.08157951 -0.08163674 -0.08173829 -0.08188243 -0.08204715
 -0.08222786 -0.08238552 -0.08251723 -0.08258879 -0.08260673 -0.0825673 -0.08248352 -0.08237584 -0.08225193 -0.08212858
 -0.08200889 -0.08189918 -0.08180485 -0.08172929 -0.08167991 -0.0816609 -0.08167364 -0.0817213 -0.08179233 -0.08188726
 -0.08198215 -0.08207522 -0.08214119 -0.08217841 -0.08218194 -0.08215331 -0.08211377 -0.08206569 -0.08203481 -0.08202025
 -0.08203302 -0.08206945 -0.08212713 -0.08220058 -0.08228073 -0.08236068 -0.08242889 -0.08248126 -0.08250959 -0.08251624
 -0.08249936 -0.08246536 -0.08241475 -0.08235846 -0.082297 -0.08225062 -0.08222082 -0.0822368 -0.08230234 -0.08243195
 -0.08262728 -0.08282628 -0.0830227 -0.08310168 -0.08307347 -0.08294386 -0.08273533 -0.08253963 -0.0823595 -0.08224925
 -0.08219766 -0.08221295 -0.08227557 -0.08236816 -0.08246874 -0.08255253 -0.08261092 -0.08262841 -0.08261865 -0.082582
 -0.0825367 -0.08248895 -0.08244236 -0.08239903 -0.08235445 -0.08230786 -0.0822624 -0.08221815 -0.08218659 -0.08216806
 -0.08216995 -0.08219082 -0.08222576 -0.08227175 -0.08231448 -0.0823525 -0.08237408 -0.0823817 -0.08237325 -0.08235448
 -0.08233019 -0.08230844 -0.08229658 -0.0823025 -0.08233348 -0.08239048 -0.0824784 -0.08258354 -0.08270589 -0.0828204
 -0.08292297 -0.08299572 -0.08303557 -0.08304211 -0.08301505 -0.08296199 -0.08288339 -0.08278725 -0.08267421 -0.08255182
 -0.08242132 -0.08229038 -0.08216198 -0.08204657 -0.08194838 -0.08188069 -0.08184258 -0.08184168 -0.08186521 -0.08190741
 -0.08195058 -0.08198112 -0.08199548 -0.08198599 -0.08196729 -0.08194126 -0.08192246 -0.08191448 -0.08192014 -0.08194029
 -0.08197334 -0.08201924 -0.08207759 -0.08214793 -0.08222328 -0.08230148 -0.08236401 -0.08240986 -0.08242307 -0.0824085
 -0.0823692 -0.08231316 -0.08225644 -0.08220238 -0.08216229 -0.08213409 -0.08211837 -0.08211733 -0.08212947 -0.08216748
 -0.08223682 -0.08234316 -0.08249427 -0.08266423 -0.08285265 -0.08301688 -0.08315099 -0.08324315 -0.08329216 -0.08329979
 -0.08326532 -0.08317249 -0.08302434 -0.08282989 -0.08260084 -0.082389 -0.0822018 -0.08208872 -0.08204099 -0.08207321
 -0.08215432 -0.08225249 -0.08234221 -0.08238207 -0.08238891 -0.08235781 -0.08231912 -0.08228738 -0.08226795 -0.08226912
 -0.08226866 -0.08226492 -0.08223226 -0.08216614 -0.08206838 -0.08193833 -0.08180387 -0.0816667 -0.0815578 -0.08147756
 -0.08144575 -0.08145795 -0.08151155 -0.0815927 -0.08166326 -0.08171471 -0.08170662 -0.08165783 -0.08157428 -0.0814779
 -0.08139541 -0.08132127 -0.08126445 -0.08119874 -0.08111378 -0.08099822 -0.08084144 -0.08066846 -0.08048022 -0.08031085
 -0.08016541 -0.08005354 -0.07997672 -0.07991517 -0.07986766 -0.07980864 -0.07973997 -0.07966248 -0.07958035 -0.07951285
 -0.07945855 -0.07942338 -0.07940451 -0.07939883 -0.07940616 -0.07942708 -0.07945552 -0.07949026 -0.0795139 -0.07951529
 -0.07948442 -0.07941106 -0.0793066 -0.07917334 -0.07901529 -0.07883567 -0.07862026 -0.07836702 -0.07807392 -0.07774016
 -0.07738855 -0.07702085 -0.07667005 -0.07633786 -0.07605388 -0.07581569 -0.07563267 -0.07549398 -0.07537603 -0.07526886
 -0.07513895 -0.07499346 -0.07482583 -0.07465122 -0.07448594 -0.07432374 -0.07417069 -0.07400016 -0.07379857 -0.07356451
 -0.07329141 -0.07300108 -0.07269748 -0.07238991 -0.07208044 -0.07176688 -0.07144897 -0.07113268 -0.07081895 -0.07052766
 -0.07025941 -0.07003102 -0.06983665 -0.06966534 -0.0695018 -0.06929752 -0.06904531 -0.06869873 -0.06828618 -0.06782168
 -0.06734182 -0.06688791 -0.06647044 -0.0661106 -0.06579813 -0.06553783 -0.06530134 -0.06508362 -0.0648532 -0.06460106
 -0.06432419 -0.06401959 -0.06370699 -0.06338776 -0.06306883 -0.06274959 -0.06241322 -0.06205904 -0.06167255 -0.06125761
 -0.06082236 -0.06037246 -0.05992789 -0.05949123 -0.05907777 -0.05868454 -0.05831586 -0.05796214 -0.05761652 -0.05727094
 -0.05691677 -0.05655597 -0.05618753 -0.05581369 -0.05543683 -0.0550481 -0.05464619 -0.05422347 -0.05377704 -0.05332235
 -0.05285979 -0.0524181 -0.05199827 -0.05161612 -0.05126991 -0.05095487 -0.05066597 -0.05037964 -0.05009107 -0.04977212
 -0.0494273 -0.04904895 -0.04865089 -0.04824945 -0.04785156 -0.04747341 -0.04710395 -0.04674281 -0.04637306 -0.04598416
 -0.04557866 -0.04515204 -0.04472527 -0.04430174 -0.04389627 -0.04351208 -0.04314703 -0.0428016 -0.04246024 -0.04212204
 -0.04176904 -0.04140098 -0.04100725 -0.04058903 -0.04014458 -0.03967749 -0.03919475 -0.03870435 -0.03822398 -0.03776161
 -0.03733817 -0.03694873 -0.03659974 -0.0362731 -0.03595886 -0.03564518 -0.03532157 -0.03499474 -0.03466345 -0.03434068
 -0.03403029 -0.03373128 -0.03344558 -0.03315404 -0.03285559 -0.03252983 -0.03217641 -0.03179452 -0.03138669 -0.03097373
 -0.03055732 -0.03015771 -0.02977112 -0.02939807 -0.02903234 -0.02866084 -0.02828272 -0.0278888 -0.02748783 -0.02708287
 -0.02668724 -0.02631134 -0.0259603 -0.02564225 -0.0253445 -0.02506751 -0.02478743 -0.02449952 -0.02418816 -0.02384964
 -0.02348709 -0.02309996 -0.02270544 -0.02230454 -0.02191781 -0.02154559 -0.02120072 -0.0208811 -0.02058509 -0.02030835
 -0.02003784 -0.01976978 -0.0194898 -0.01919842 -0.01888858 -0.01856723 -0.01823697 -0.0179082 -0.01758899 -0.01728386
 -0.01699863 -0.01672691 -0.01646865 -0.01621469 -0.01596279 -0.01570996 -0.01545585 -0.01519652 -0.01493202 -0.01464924
 -0.01434759 -0.01401658 -0.01365806 -0.01328235 -0.01289443 -0.01252305 -0.01217095 -0.01186299 -0.01159439 -0.01136948
 -0.01117741 -0.01100543 -0.01084426 -0.01067946 -0.01050941 -0.01032842 -0.01013881 -0.00994078 -0.0097345 -0.009519852
 -0.009297847 -0.009068022 -0.008835534 -0.008601079 -0.008367385 -0.008134835 -0.007901562 -0.00766759 -0.00743482 -0.007203686
 -0.006980289 -0.006762711 -0.006546217 -0.006326359 -0.006085492 -0.005825343 -0.00553692 -0.005234179 -0.004931234 -0.004643891
 -0.004395734 -0.004185613 -0.004024151 -0.003891254 -0.00378091 -0.003675574 -0.003566493 -0.003454137 -0.003336792 -0.003219929
 -0.003105158 -0.0029855 -0.002860793 -0.002719052 -0.002559902 -0.002381418 -0.002184239 -0.00197328 -0.001749237 -0.001516524
 -0.001278162 -0.001044245 -0.0008201425 -0.0006234151 -0.0004525233 -0.0003168154 -0.0002011415 -9.579086E-05 1.673178E-05 0.0001543175
 0.0003158219 0.0005102297 0.000712347 0.0009175515 0.001099533 0.001249096 0.001368682 0.001454942 0.001537859 0.001619817
 0.001717795 0.00183177 0.001937614 0.002032909 0.002082249 0.002090207 0.002057933 0.001996765 0.001943004 0.001901591
 0.00190304 0.001939551 0.002014 0.002114773 0.002230576 0.002355824 0.002481756 0.002611816 0.002743848 0.00288832
 0.003048393 0.003230649 0.003440503 0.003659782 0.003889861 0.0040864 0.004246059 0.004333511 0.004347845 0.004300607
 0.0041963 0.004083603 0.003964561 0.003876543 0.003814161 0.003779136 0.003768323 0.003773527 0.003800147 0.00385397
 0.003935626 0.004053304 0.004188927 0.004334633 0.004469319 0.004577141 0.004661521 0.004716091 0.004767456 0.004820419
 0.004893773 0.004993144 0.005107049 0.005236085 0.005347878 0.005440831 0.005487151 0.005487876 0.005440449 0.005350898
 0.005246144 0.005134642 0.00505774 0.005017861 0.005044066 0.005124333 0.005257753 0.005420578 0.005589069 0.005744436
 0.005862886 0.005947346 0.005989568 0.006010703 0.006014859 0.006022877 0.006040081 0.00607822 0.006139135 0.006233394
 0.006361839 0.006536027 0.006756308 0.007019804 0.007323247 0.007634357 0.00794647 0.008207757 0.008416126 0.008532908
 0.008571016 0.008533157 0.008447571 0.008355469 0.008281764 0.008272887 0.008323417 0.008452694 0.008618892 0.008811508
 0.008979664 0.00910276 0.009157007 0.00912961 0.009034844 0.00887044 0.008673238 0.00844565 0.008223278 0.008007898
 0.007820253 0.007660245 0.007534482 0.007441931 0.007381107 0.007350881 0.007347744 0.007369263 0.007411434 0.007464907
 0.007518812 0.007552262 0.007542076 0.007466283 0.007297911 0.00703971 0.006677772 0.006252464 0.00576872 0.005283281
 0.004809037 0.004386204 0.0040235 0.003733219 0.003518329 0.003364648 0.003271136 0.003195652 0.003134784 0.003034967
 0.00289817 0.002702941 0.002461457 0.002202664 0.001935042 0.001696603 0.001475981 0.001274706 0.001074162 0.0008501233
 0.0006063413 0.0003310005 5.482959E-05 -0.0002118729 -0.0004388845 -0.0006105703 -0.0007242619 -0.0007718175 -0.0007842396 -0.0007614009
 -0.000757662 -0.0007772721 -0.0008678797 -0.00103172 -0.001273029 -0.001587643 -0.00193148 -0.002298918 -0.002635279 -0.002942283
 -0.003194636 -0.003401978 -0.003572125 -0.00371602 -0.003853956 -0.003992192 -0.004145992 -0.004314312 -0.004502429 -0.004703122
 -0.004914756 -0.005129149 -0.005343148 -0.005551721 -0.005752922 -0.005945556 -0.006128695 -0.006306218 -0.006478094 -0.006652531
 -0.006829945 -0.007015605 -0.007209136 -0.007407771 -0.007610984 -0.007813986 -0.008017696 -0.008222928 -0.008430252 -0.008642464
 -0.008856831 -0.009070641 -0.009280675 -0.009481067 -0.009674276 -0.009858675 -0.0100424 -0.01022925 -0.01042458 -0.0106324
 -0.01084903 -0.01107508 -0.01130238 -0.01152959 -0.01175258 -0.01197058 -0.01218553 -0.0123975 -0.01260979 -0.01282238
 -0.01303566 -0.0132495 -0.01346309 -0.01367706 -0.01389296 -0.01411182 -0.01433716 -0.01456848 -0.01480696 -0.01505067
 -0.01529824 -0.01554729 -0.01579719 -0.01604096 -0.01627802 -0.01649113 -0.01667473 -0.01681413 -0.01690046 -0.01695099
 -0.01696243 -0.01698889 -0.01703445 -0.01714872 -0.01733436 -0.01759106 -0.01791474 -0.01825643 -0.01861043 -0.01891789
 -0.01918036 -0.01936787 -0.01949457 -0.01957403 -0.01962856 -0.01970048 -0.01980137 -0.01996678 -0.02017896 -0.0204416
 -0.02071771 -0.02098752 -0.02123182 -0.02143477 -0.02161035 -0.02175871 -0.02189591 -0.02202724 -0.02213979 -0.0222338
 -0.02228185 -0.02228248 -0.02223362 -0.02213843 -0.02203524 -0.02192972 -0.02187536 -0.02187234 -0.02195309 -0.02210682
 -0.02232758 -0.02259797 -0.02288719 -0.02318456 -0.02346403 -0.023729 -0.02397413 -0.02420369 -0.02442192 -0.02461895
 -0.0247926 -0.02493293 -0.02503319 -0.02511047 -0.02516422 -0.02522795 -0.02530592 -0.02540489 -0.02552541 -0.02563565
 -0.02573406 -0.02579031 -0.02580801 -0.02579214 -0.02574926 -0.025706 -0.02566414 -0.02564197 -0.02563607 -0.02564851
 -0.02567687 -0.02571732 -0.02577423 -0.0258476 -0.02594849 -0.02608296 -0.02625792 -0.02648119 -0.02673807 -0.02703107
 -0.02732116 -0.02760374 -0.02784114 -0.02802767 -0.02816171 -0.02824281 -0.02831291 -0.0283751 -0.02848237 -0.028633
 -0.02884693 -0.0291134 -0.02940596 -0.02971246 -0.029989 -0.03023428 -0.03042365 -0.03056855 -0.03067087 -0.03074631
 -0.03080691 -0.03086624 -0.03093515 -0.03101952 -0.03112647 -0.03124619 -0.03137963 -0.0315061 -0.03162118 -0.03171989
 -0.03179933 -0.03188689 -0.03198396 -0.03212138 -0.03229821 -0.03250844 -0.03274699 -0.0329777 -0.03320103 -0.03339669
 -0.03357446 -0.03374892 -0.03392532 -0.03412332 -0.03433211 -0.0345486 -0.03475728 -0.03494228 -0.03510219 -0.03523016
 -0.03533512 -0.03542103 -0.03548525 -0.03553034 -0.03553875 -0.03550715 -0.03542845 -0.03529931 -0.03514761 -0.0349746
 -0.03483355 -0.03472656 -0.03469552 -0.03473681 -0.03485156 -0.03503013 -0.03523871 -0.03546859 -0.03568117 -0.03587433
 -0.03602645 -0.03614122 -0.03621386 -0.03625105 -0.0362556 -0.03623609 -0.03619758 -0.03614689 -0.0360884 -0.03602265
 -0.03595125 -0.03586984 -0.03577824 -0.035671 -0.03554809 -0.03539884 -0.03522274 -0.03499901 -0.03472678 -0.03438791
 -0.03398521 -0.03352528 -0.0330158 -0.03248885 -0.03194982 -0.03143013 -0.03092578 -0.03044604 -0.02998006 -0.02951902
 -0.0290534 -0.0285727 -0.02807098 -0.02754292 -0.026983 -0.02638746 -0.02575546 -0.02508317 -0.02438677 -0.0236655
 -0.02295384 -0.02225452 -0.02160157 -0.02099724 -0.02045632 -0.01997898 -0.01956783 -0.01922431 -0.01895908 -0.01877437
 -0.01868867 -0.01869381 -0.01878675 -0.01893952 -0.01910841 -0.01925702 -0.01932258 -0.01929007 -0.01911911 -0.01883171
 -0.01842472 -0.01793681 -0.01738338 -0.01678532 -0.01615384 -0.01548277 -0.01477389 -0.01401068 -0.01319132 -0.01230707
 -0.01135714 -0.01034639 -0.009275564 -0.008157773 -0.00699281 -0.005787182 -0.004537098 -0.003231362 -0.001866703 -0.0004246784
 0.00108459 0.002664584 0.004270346 0.005873607 0.007364637 0.00867515 0.009622458 0.01009831 0.009933922 0.009014165
 0.007354242 0.004890662 0.001910654 -0.001575265 -0.005135298 -0.008725627 -0.01201192 -0.01496909 -0.01749714 -0.01960086
 -0.0213617 -0.02279307 -0.024022 -0.02505498 -0.02598286 -0.02680755 -0.02757838 -0.02829716 -0.02898975 -0.02965472
 -0.03030163 -0.0309241 -0.03152027 -0.03208372 -0.03260938 -0.03309647 -0.03354274 -0.03395202 -0.03432493 -0.03466449
 -0.03497206 -0.03524461 -0.03548287 -0.03567335 -0.03581536 -0.03589059 -0.0358992 -0.03584107 -0.03572182 -0.03557855
 -0.03541972 -0.03530118 -0.03522167 -0.03521146 -0.03525274 -0.03533094 -0.03542202 -0.03549091 -0.03552066 -0.03548592
 -0.03537614 -0.03518036 -0.03488686 -0.03449088 -0.03397603 -0.03334003 -0.03255673 -0.03162328 -0.03050454 -0.02919232
 -0.02770226 -0.02603123 -0.02436498 -0.02272454 -0.02149794 -0.02070981 -0.02074536 -0.02156387 -0.02324379 -0.02565297
 -0.02850395 -0.03165271 -0.03469985 -0.03759279 -0.04008826 -0.0422408 -0.04400659 -0.04547967 -0.04670331 -0.0477469
 -0.04864891 -0.04944509 -0.05015164 -0.05078856 -0.05136147 -0.05188251 -0.05235352 -0.05278263 -0.05317037 -0.0535268
 -0.05385249 -0.0541581 -0.05444388 -0.05471659 -0.05497609 -0.05522557 -0.05546452 -0.05569393 -0.05591173 -0.05611484
 -0.05630121 -0.05646531 -0.05661109 -0.05673778 -0.05685677 -0.05697415 -0.05709956 -0.05724037 -0.05739304 -0.05756035
 -0.05772553 -0.05788641 -0.05802739 -0.05814552 -0.05824147 -0.05831476 -0.05838192 -0.05844377 -0.05851649 -0.05859929
 -0.05869409 -0.0587987 -0.05890436 -0.05901128 -0.05911443 -0.05921762 -0.05932567 -0.05944119 -0.05957124 -0.05971166
 -0.05986329 -0.06001539 -0.06016256 -0.06029421 -0.06040378 -0.06048893 -0.06054552 -0.06058484 -0.06060642 -0.06063259
 -0.06066567 -0.06072382 -0.0608088 -0.06091795 -0.06105029 -0.06118425 -0.06131836 -0.06143093 -0.06152331 -0.06158844
 -0.06163085 -0.06165838 -0.06167654 -0.06169936 -0.06172941 -0.0617775 -0.06183854 -0.06191392 -0.0619914 -0.0620642
 -0.06212262 -0.06215881 -0.06217677 -0.06217338 -0.06216733 -0.06216072 -0.06217363 -0.06220955 -0.06227194 -0.06236178
 -0.06246224 -0.06257236 -0.06267271 -0.06276399 -0.06284247 -0.06291024 -0.06297522 -0.06303687 -0.06309827 -0.06315676
 -0.06320811 -0.06325185 -0.06328479 -0.06330963 -0.06332729 -0.06334145 -0.06335369 -0.06336997 -0.06339229 -0.06342831
 -0.06348115 -0.06355289 -0.06364572 -0.063751 -0.06386857 -0.06398516 -0.06409981 -0.06420314 -0.06429491 -0.06437269
 -0.06443704 -0.06449101 -0.06453579 -0.06457804 -0.06461857 -0.0646633 -0.06471179 -0.06476612 -0.06482521 -0.06488818
 -0.06495492 -0.06502524 -0.0650984 -0.065175 -0.06525038 -0.06532347 -0.06538752 -0.0654396 -0.06547909 -0.06550413
 -0.06552375 -0.0655384 -0.06555997 -0.06558946 -0.06563105 -0.06568463 -0.06574494 -0.06581097 -0.06587228 -0.06592799
 -0.06596787 -0.06599333 -0.06600159 -0.06599817 -0.06599168 -0.06598841 -0.0660016 -0.06603087 -0.06608234 -0.06614809
 -0.06622541 -0.06630611 -0.06638557 -0.06646065 -0.0665293 -0.06659153 -0.06664687 -0.06669681 -0.06674129 -0.06678361
 -0.06682397 -0.06686558 -0.06690846 -0.06695206 -0.06699607 -0.06703743 -0.06707612 -0.06711011 -0.06714029 -0.06716779
 -0.06719404 -0.06722257 -0.06725371 -0.06729025 -0.06732939 -0.06737002 -0.06740813 -0.06744026 -0.06746591 -0.06748271
 -0.06749652 -0.06750767 -0.06752542 -0.06755169 -0.0675925 -0.06764956 -0.06771907 -0.06780124 -0.06788298 -0.06796364
 -0.0680311 -0.06808593 -0.06812708 -0.06815647 -0.06818228 -0.0682056 -0.06823409 -0.06826702 -0.06830682 -0.06835186
 -0.06840102 -0.06845269 -0.06850463 -0.06855679 -0.068608 -0.06866027 -0.0687143 -0.06877135 -0.06883277 -0.06889495
 -0.06895777 -0.06901558 -0.0690675 -0.06911138 -0.06914691 -0.06917562 -0.06919765 -0.06921536 -0.06922909 -0.06924222
 -0.06925554 -0.06927461 -0.06929955 -0.06933428 -0.06937665 -0.06942478 -0.06947544 -0.06952307 -0.06956667 -0.06960247
 -0.06963313 -0.06965899 -0.0696836 -0.06970889 -0.06973612 -0.06976628 -0.06979875 -0.06983337 -0.06987084 -0.06991114
 -0.069956 -0.07000564 -0.07005929 -0.0701168 -0.07017308 -0.0702277 -0.07027452 -0.07031374 -0.07034259 -0.07036239
 -0.07037542 -0.0703833 -0.0703906 -0.07039768 -0.07040744 -0.07041823 -0.07042956 -0.0704397 -0.07044663 -0.07045197
 -0.07045506 -0.07046118 -0.07047188 -0.07049079 -0.07051968 -0.07055576 -0.07059953 -0.07064228 -0.07068345 -0.07071455
 -0.07073525 -0.07074296 -0.07073838 -0.07072645 -0.07070855 -0.0706938 -0.07068295 -0.07068354 -0.07069448 -0.07071766
 -0.07075044 -0.07079034 -0.07083397 -0.07087754 -0.07091763 -0.0709509 -0.0709751 -0.07098756 -0.07099062 -0.07098331
 -0.07097362 -0.07096275 -0.07095855 -0.07096277 -0.07097508 -0.07099593 -0.07101692 -0.07103767 -0.07105064 -0.0710564
 -0.07105668 -0.07105321 -0.07105555 -0.07106431 -0.07108731 -0.07112205 -0.0711678 -0.07122055 -0.0712741 -0.07132627
 -0.07137237 -0.07141238 -0.07144506 -0.07147052 -0.07148823 -0.07149966 -0.07150434 -0.07150742 -0.07150953 -0.07151692
 -0.07153073 -0.071553 -0.07158412 -0.0716222 -0.07166715 -0.07171769 -0.07177362 -0.07183315 -0.0718951 -0.0719529
 -0.07200503 -0.07204231 -0.07206622 -0.07207408 -0.07207132 -0.07206467 -0.0720582 -0.07206021 -0.07206713 -0.07208028
 -0.07209158 -0.07209644 -0.07209365 -0.07207975 -0.07206526 -0.07205123 -0.07204966 -0.0720631 -0.07209194 -0.07213691
 -0.07218725 -0.07224242 -0.07229225 -0.07233693 -0.0723744 -0.0724055 -0.07243364 -0.072459 -0.07248403 -0.07250834
 -0.07253227 -0.07255552 -0.07257811 -0.07259891 -0.07261746 -0.0726307 -0.07263619 -0.07263246 -0.07261667 -0.0725945
 -0.07256605 -0.07254158 -0.07252371 -0.07251707 -0.07252346 -0.07253748 -0.07255905 -0.07257959 -0.07259874 -0.07261303
 -0.07262282 -0.07263053 -0.07263663 -0.07264486 -0.07265498 -0.07266831 -0.07268422 -0.07270186 -0.07272127 -0.07274219
 -0.07276461 -0.07278943 -0.07281339 -0.07283549 -0.07284981 -0.07285251 -0.0728427 -0.07281749 -0.0727858 -0.07274845
 -0.07271635 -0.07269165 -0.07267673 -0.07267232 -0.07267258 -0.07267725 -0.07268202 -0.07268716 -0.07269417 -0.07270324
 -0.07271661 -0.07273324 -0.07275105 -0.07276889 -0.07278283 -0.07279336 -0.07279927 -0.07280196 -0.07280278 -0.07280157
 -0.07279871 -0.07279347 -0.07278505 -0.07277496 -0.07276309 -0.07275287 -0.07274503 -0.07274201 -0.07274439 -0.07275236
 -0.07276609 -0.07278346 -0.07280433 -0.07282421 -0.07284304 -0.07285812 -0.07287041 -0.07288335 -0.07289834 -0.07292205
 -0.07295475 -0.07300024 -0.07305823 -0.07312917 -0.07321474 -0.07331607 -0.07343702 -0.07358042 -0.0737498 -0.07394747
 -0.074176 -0.07443659 -0.07473128 -0.07506045 -0.075427 -0.0758316 -0.07627533 -0.07675935 -0.07726919 -0.07780364
 -0.07830768 -0.07877559 -0.07912248 -0.07934918 -0.07941031 -0.07932255 -0.07911779 -0.07880921 -0.07844194 -0.07802044
 -0.07756364 -0.07709274 -0.07663283 -0.07621216 -0.07585976 -0.07558974 -0.07541728 -0.07534444 -0.07537831 -0.0755033
 -0.07572495 -0.07598411 -0.07627761 -0.07651994 -0.07670108 -0.07679898 -0.07681253 -0.07678413 -0.07671495 -0.07663043
 -0.07652888 -0.07641216 -0.07628203 -0.07614513 -0.07600464 -0.07587246 -0.0757468 -0.07563184 -0.07551998 -0.07540517
 -0.0752797 -0.07513416 -0.0749704 -0.07478426 -0.07458931 -0.07438877 -0.07419538 -0.07401359 -0.07384527 -0.07369173
 -0.07354924 -0.07341757 -0.07329397 -0.07317827 -0.07306831 -0.07296403 -0.07286377 -0.0727677 -0.07267579 -0.07258816
 -0.07250512 -0.07242698 -0.07235423 -0.0722881 -0.07223067 -0.07218286 -0.0721476 -0.07212161 -0.07210469 -0.07208952
 -0.07207248 -0.07204779 -0.0720118 -0.07196528 -0.07190679 -0.07184357 -0.07177616 -0.07171303 -0.07165515 -0.07160585
 -0.07156534 -0.07153109 -0.07150297 -0.07147832 -0.07145751 -0.07144157 -0.07143031 -0.07142393 -0.0714213 -0.07141944
 -0.07141853 -0.07141684 -0.07141665 -0.0714203 -0.07142804 -0.07144206 -0.07145789 -0.07147452 -0.07148556 -0.0714883
 -0.07147956 -0.07145731 -0.07142469 -0.07138117 -0.07133555 -0.07128847 -0.07124823 -0.0712153 -0.07119077 -0.07117424
 -0.07116077 -0.07115011 -0.07113846 -0.07112596 -0.07111148 -0.07109467 -0.07107415 -0.07104967 -0.07101982 -0.07098562
 -0.07094727 -0.07090685 -0.07086563 -0.07082622 -0.07079006 -0.07075966 -0.07073659 -0.07072064 -0.07071278 -0.07070829
 -0.0707068 -0.07070294 -0.07069604 -0.07068458 -0.07066847 -0.07064892 -0.07062598 -0.07060032 -0.07057197 -0.07054134
 -0.07050875 -0.07047533 -0.07044167 -0.07040942 -0.07037944 -0.07035375 -0.07033299 -0.07031912 -0.07031073 -0.07030841
 -0.07030719 -0.0703048 -0.07029694 -0.07028043 -0.07025791 -0.07022847 -0.07020036 -0.07017493 -0.07015678 -0.070147
 -0.0701409 -0.07013827 -0.07013109 -0.07011935 -0.07010107 -0.07007703 -0.07005128 -0.07002389 -0.06999774 -0.06997145
 -0.06994296 -0.06991142 -0.06987368 -0.06983183 -0.06978601 -0.06974116 -0.06970101 -0.06966959 -0.06965097 -0.06964377
 -0.06964938 -0.06966136 -0.0696786 -0.06969516 -0.06970973 -0.06972045 -0.06972701 -0.06972927 -0.06972721 -0.06971997
 -0.06970758 -0.06969033 -0.06966859 -0.06964475 -0.06961891 -0.06959295 -0.06956621 -0.06953792 -0.06950767 -0.06947389
 -0.06943823 -0.06940124 -0.06936669 -0.06933771 -0.06931704 -0.06930824 -0.069308 -0.06931732 -0.06932683 -0.06933445
 -0.06933296 -0.06932005 -0.06929767 -0.06926537 -0.06923112 -0.06919535 -0.06916461 -0.06913895 -0.06912033 -0.06910834
 -0.06910164 -0.06909929 -0.06909743 -0.06909493 -0.06908675 -0.06907333 -0.06905237 -0.06902684 -0.06899922 -0.06897229
 -0.06894972 -0.06893107 -0.06891767 -0.06890638 -0.06889633 -0.06888505 -0.06887162 -0.0688555 -0.06883641 -0.06881481
 -0.06879061 -0.06876597 -0.06874098 -0.06872024 -0.06870393 -0.06869589 -0.06869556 -0.06870165 -0.06871296 -0.06872422
 -0.06873476 -0.06874008 -0.06874044 -0.0687342 -0.06872193 -0.06870344 -0.06867995 -0.06865198 -0.06862193 -0.0685911
 -0.06856176 -0.0685351 -0.06851222 -0.06849357 -0.06847992 -0.06847136 -0.06846913 -0.06847357 -0.0684829 -0.0684971
 -0.06850848 -0.06851654 -0.06851205 -0.06849568 -0.06846659 -0.06842741 -0.06838786 -0.06834988 -0.06832429 -0.06830903
 -0.06830624 -0.06831129 -0.06831954 -0.06832746 -0.06833055 -0.06832711 -0.06831483 -0.0682936 -0.06826182 -0.06822441
 -0.06818105 -0.06814267 -0.06811101 -0.06809452 -0.06809496 -0.0681088 -0.06813605 -0.06816358 -0.06819081 -0.06820691
 -0.06821249 -0.06820627 -0.06818958 -0.06816699 -0.06813897 -0.06810898 -0.06807679 -0.06804303 -0.06800891 -0.06797577
 -0.06794569 -0.06792134 -0.06790226 -0.06788954 -0.06788007 -0.06787269 -0.06786595 -0.06785887 -0.06785313 -0.06784917
 -0.06784636 -0.067845 -0.06783997 -0.06783098 -0.06781421 -0.06778985 -0.06776075 -0.06772766 -0.06769704 -0.06766889
 -0.0676469 -0.06762984 -0.06761649 -0.06760573 -0.06759491 -0.06758375 -0.06757096 -0.06755633 -0.06753917 -0.06751973
 -0.0674971 -0.06747488 -0.06745369 -0.06743894 -0.06743303 -0.067435 -0.06744618 -0.06745669 -0.06746566 -0.06746507
 -0.06745423 -0.06743637 -0.06741191 -0.06738923 -0.06736816 -0.06735155 -0.06733837 -0.06732606 -0.06731397 -0.06729913
 -0.06728141 -0.06725904 -0.06723278 -0.06720221 -0.06717014 -0.06713834 -0.06711039 -0.06708944 -0.06707533 -0.06706997
 -0.06706708 -0.06706604 -0.06705831 -0.06704191 -0.06701399 -0.0669734 -0.06692615 -0.06687246 -0.06682174 -0.06677423
 -0.06673489 -0.06670317 -0.06667803 -0.06665865 -0.06664141 -0.06662531 -0.06660598 -0.06658279 -0.06655207 -0.06651533
 -0.06647217 -0.0664267 -0.06638221 -0.06634191 -0.0663095 -0.06628339 -0.06626462 -0.06624778 -0.06623168 -0.066212
 -0.06618727 -0.06615856 -0.06612554 -0.06609263 -0.06606011 -0.06602966 -0.06600118 -0.06597188 -0.06594185 -0.06590995
 -0.0658772 -0.06584733 -0.06582085 -0.06580154 -0.06578813 -0.06578026 -0.06577604 -0.06577315 -0.06576955 -0.06576328
 -0.06575099 -0.06573031 -0.06569866 -0.06565346 -0.06559768 -0.06553058 -0.0654603 -0.06538794 -0.06532094 -0.06526046
 -0.06520886 -0.0651665 -0.06512958 -0.06509781 -0.06506551 -0.06503308 -0.06500046 -0.06496896 -0.06494455 -0.06492678
 -0.06491867 -0.06491638 -0.0649146 -0.06490923 -0.06489202 -0.0648631 -0.06481835 -0.06476361 -0.06470022 -0.0646366
 -0.06457671 -0.06452536 -0.06448572 -0.06445468 -0.06443305 -0.06441154 -0.0643893 -0.06435818 -0.06431748 -0.06426622
 -0.06420466 -0.06413872 -0.06406911 -0.06400415 -0.06394389 -0.06389337 -0.0638511 -0.06381585 -0.06378549 -0.06375521
 -0.06372442 -0.06369033 -0.06365336 -0.0636131 -0.06356952 -0.06352257 -0.06347179 -0.06341681 -0.06335788 -0.06329478
 -0.06322886 -0.06315989 -0.0630919 -0.06302503 -0.06296569 -0.06291438 -0.06287452 -0.06284606 -0.06282662 -0.06281571
 -0.06280854 -0.06280453 -0.06279925 -0.06279137 -0.06277525 -0.06274936 -0.0627071 -0.0626507 -0.06257914 -0.06249851
 -0.06241412 -0.06232997 -0.06225086 -0.06217574 -0.06210587 -0.06203732 -0.06196935 -0.06189822 -0.06182263 -0.06174357
 -0.0616604 -0.06158076 -0.06150503 -0.06144292 -0.06139467 -0.06136389 -0.06134916 -0.06134203 -0.06133929 -0.06132211
 -0.06128917 -0.06122456 -0.06113484 -0.06102356 -0.060901 -0.06078343 -0.06067408 -0.06058292 -0.06050578 -0.06044349
 -0.06038971 -0.06034214 -0.0602955 -0.06024769 -0.0601962 -0.06013996 -0.06007969 -0.06001543 -0.05994746 -0.0598759
 -0.0597978 -0.05971307 -0.05962059 -0.05952103 -0.05941951 -0.05931671 -0.05921866 -0.05912496 -0.05903754 -0.05895577
 -0.0588794 -0.05880783 -0.05874093 -0.058676 -0.05861073 -0.05854243 -0.05846794 -0.05838861 -0.05830385 -0.058217
 -0.05812957 -0.05804071 -0.05795099 -0.05785601 -0.05775508 -0.05764709 -0.05753176 -0.05741392 -0.05729377 -0.05717514
 -0.05705735 -0.05693654 -0.05681153 -0.05667378 -0.05652513 -0.05636556 -0.05619936 -0.05603599 -0.0558754 -0.05572267
 -0.05557305 -0.0554232 -0.05527149 -0.05511411 -0.05495693 -0.05480127 -0.05465336 -0.05451653 -0.05438863 -0.05427137
 -0.05415208 -0.05403056 -0.05388522 -0.05371434 -0.05350431 -0.05325527 -0.05298156 -0.05268482 -0.05238647 -0.05208417
 -0.05177872 -0.05146604 -0.05113348 -0.05078146 -0.05040305 -0.05000482 -0.04959197 -0.04917271 -0.04875669 -0.04834911
 -0.04795752 -0.0475792 -0.04721667 -0.04685851 -0.04650128 -0.046139 -0.04576785 -0.04539885 -0.04503294 -0.04467903
 -0.04433828 -0.04400526 -0.04367994 -0.04336254 -0.04305462 -0.04277149 -0.04251277 -0.04228743 -0.04208823 -0.04190031
 -0.04171324 -0.04149698 -0.04125102 -0.04095773 -0.04063266 -0.0402842 -0.03992609 -0.03957215 -0.03922202 -0.03888015
 -0.03853865 -0.03819647 -0.0378454 -0.03748509 -0.03710112 -0.03669365 -0.03623144 -0.03571177 -0.03511717 -0.03444841
 -0.03375244 -0.03303264 -0.03234269 -0.03167582 -0.03102766 -0.03039032 -0.02973691 -0.02906655 -0.02836605 -0.0276337
 -0.02686657 -0.02604933 -0.02517169 -0.02420445 -0.02312311 -0.021916 -0.02055751 -0.0191033 -0.01755484 -0.01600891
 -0.0144881 -0.01304112 -0.01168064 -0.01039876 -0.009196959 -0.008042447 -0.006932729 -0.005808339 -0.004663207 -0.003409514
 -0.002055312 -0.0005783431 0.000979771 0.002494497 0.003956984 0.005274396 0.006494415 0.007648748 0.008770644 0.009911961
 0.01106634 0.01224574 0.01343576 0.01462852 0.01583021 0.01704378 0.01826227 0.0194881 0.02069285 0.02187154
 0.02302021 0.02413828 0.02522502 0.02627929 0.02725414 0.02814687 0.02890907 0.02954788 0.03007177 0.03049175
 0.0308473 0.03114122 0.03139885 0.03161693 0.03179872 0.03194826 0.03206868 0.03216943 0.03225806 0.03234001
 0.0324214 0.03249754 0.03257032 0.03262486 0.03265928 0.03265674 0.03261425 0.03252474 0.03238641 0.03221678
 0.03201691 0.03181618 0.03161309 0.03140596 0.03118886 0.03093136 0.03062963 0.03025305 0.02980793 0.02928638
 0.02871207 0.02811429 0.02751598 0.02695591 0.02643064 0.02595075 0.02550401 0.02508144 0.024697 0.02434965
 0.02406945 0.02386575 0.02373955 0.02369489 0.02370401 0.02376507 0.02385506 0.02397308 0.02411678 0.02428747
 0.02449741 0.02474732 0.02504756 0.02539677 0.02579593 0.02624413 0.02673947 0.02728264 0.02787435 0.02851371
 0.02920062 0.02993251 0.03070658 0.03152448 0.0323838 0.03329619 0.03426172 0.03530451 0.03642887 0.037658
 0.03899908 0.04043714 0.04197444 0.04354208 0.04513595 0.04666267 0.04811532 0.04939221 0.0504849 0.05128984
 0.05181568 0.05202495 0.05195471 0.05166153 0.05118665 0.05060929 0.04997187 0.04934355 0.04875857 0.04827069
 0.04786472 0.04755916 0.04728495 0.04703056 0.04670858 0.04628922 0.04576635 0.04512029 0.04449733 0.04391006
 0.04343264 0.04306751 0.04274594 0.04246484 0.04216786 0.04185995 0.04153859 0.04120879 0.04089277 0.04057498
 0.04025401 0.03985858 0.03929718 0.0384694 0.03719466 0.03554668 0.03348447 0.0312189 0.02886771 0.02647657
 0.02408822 0.02169299 0.01927887 0.01693684 0.01467464 0.01259443 0.01070996 0.009010593 0.007495393 0.0060804
 0.004763014 0.003485674 0.002253579 0.001064423 -7.565125E-05 -0.001145186 -0.002147758 -0.003077135 -0.003948035 -0.004778662
 -0.005584485 -0.006387586 -0.007200194 -0.008033226 -0.008909171 -0.009841951 -0.0108464 -0.01195072 -0.01306536 -0.01418722
 -0.01516861 -0.01597395 -0.01662635 -0.01711963 -0.01757444 -0.01799649 -0.01844998 -0.01893151 -0.01942312 -0.01991843
 -0.02037104 -0.02078488 -0.02115037 -0.02147067 -0.02175378 -0.02198654 -0.02215301 -0.02223978 -0.0222211 -0.02210675
 -0.02189319 -0.02159994 -0.02123713 -0.02081343 -0.0203355 -0.01980009 -0.0192105 -0.01854589 -0.01780597 -0.01695284
 -0.01598089 -0.01489548 -0.0136976 -0.01250931 -0.01133903 -0.01032719 -0.009467862 -0.008799803 -0.008312391 -0.007992564
 -0.007830019 -0.007802529 -0.00788616 -0.008038863 -0.008230523 -0.008413919 -0.008568193 -0.008659679 -0.008691791 -0.008651008
 -0.008571581 -0.008463149 -0.008348362 -0.008237763 -0.00812216 -0.008002255 -0.007862982 -0.007702474 -0.007519372 -0.007313599
 -0.007097059 -0.006870339 -0.0066444 -0.006418331 -0.006193368 -0.005966837 -0.005731077 -0.005482422 -0.005208383 -0.00490788
 -0.004573533 -0.004206248 -0.003806739 -0.003368321 -0.002889046 -0.002354193 -0.00175505 -0.001084505 -0.0003354191 0.0004820625
 0.001367418 0.002308323 0.003301899 0.004348993 0.005450127 0.006598518 0.007793648 0.008981933 0.01015844 0.01124523
 0.01224264 0.01311185 0.01385877 0.01448509 0.01499155 0.01538316 0.01565235 0.01579023 0.01578777 0.01562951
 0.01531668 0.01484118 0.0142202 0.01345749 0.01257799 0.01158979 0.01051568 0.009359312 0.008152119 0.006895925
 0.005640674 0.004391097 0.003184019 0.002021622 0.0009005811 -0.0001801629 -0.001237291 -0.002268089 -0.00326571 -0.004224787
 -0.005119862 -0.005954434 -0.006720287 -0.007432228 -0.008109445 -0.00876617 -0.009427488 -0.01009562 -0.01078384 -0.01147821
 -0.01217786 -0.01285959 -0.01351467 -0.01412847 -0.0146934 -0.01521624 -0.01569536 -0.01615126 -0.01658601 -0.01701119
 -0.01742755 -0.01782216 -0.01819326 -0.01851342 -0.01878286 -0.01898773 -0.0191327 -0.01922655 -0.0192745 -0.01929278
 -0.01928527 -0.01926507 -0.01923487 -0.01920314 -0.01916935 -0.01913592 -0.01910114 -0.0190634 -0.01902639 -0.01898944
 -0.01896307 -0.018949 -0.01895861 -0.01899413 -0.0190616 -0.01916238 -0.01929207 -0.01945051 -0.01962325 -0.01980944
 -0.01999441 -0.0201777 -0.02034986 -0.02050983 -0.0206489 -0.02076599 -0.02085303 -0.02091244 -0.02094345 -0.02095179
 -0.02094386 -0.02092329 -0.0208955 -0.02086045 -0.02081907 -0.02077241 -0.02071996 -0.02066728 -0.02061495 -0.02057094
 -0.02053655 -0.02051761 -0.02051506 -0.02052921 -0.02056015 -0.02060341 -0.02065866 -0.02072068 -0.02078913 -0.02085957
 -0.02093164 -0.0210013 -0.02106922 -0.02113447 -0.02119925 -0.02126739 -0.02133896 -0.02141701 -0.02149655 -0.02157494
 -0.02164722 -0.0217088 -0.02176129 -0.02180317 -0.02184148 -0.02187763 -0.02191718 -0.02196168 -0.02201126 -0.02206657
 -0.02212047 -0.0221726 -0.02221287 -0.0222412 -0.02225396 -0.02225248 -0.02224351 -0.02222808 -0.02221455 -0.02220087
 -0.02218716 -0.02216896 -0.02213879 -0.02209364 -0.02202588 -0.02193792 -0.02182758 -0.02170307 -0.02156811 -0.02142946
 -0.02129201 -0.02115282 -0.02101314 -0.02086344 -0.02070175 -0.02052548 -0.02033323 -0.02013657 -0.01993605 -0.01974869
 -0.01957477 -0.0194215 -0.01928691 -0.01916206 -0.01904462 -0.01891948 -0.01878931 -0.01865069 -0.01851314 -0.01839087
 -0.0182923 -0.01823549 -0.01821709 -0.01824344 -0.01829935 -0.01837881 -0.01846766 -0.01855775 -0.01864697 -0.01873216
 -0.0188202 -0.01891201 -0.01901159 -0.01911995 -0.01923285 -0.01935016 -0.0194641 -0.01957422 -0.01967288 -0.01975936
 -0.01982497 -0.01986956 -0.01988636 -0.01987888 -0.01985023 -0.01980929 -0.01977161 -0.01974683 -0.01975452 -0.01979404
 -0.01987626 -0.01998167 -0.02010626 -0.02021962 -0.02030774 -0.0203568 -0.02035541 -0.02032597 -0.02026739 -0.02022273
 -0.02019675 -0.02021558 -0.02028149 -0.02038306 -0.02051823 -0.02065068 -0.02077881 -0.02087258 -0.02093566 -0.02096506
 -0.0209677 -0.02096105 -0.02094608 -0.02093496 -0.02091933 -0.02089397 -0.0208513 -0.02078067 -0.02068618 -0.02056514
 -0.02043011 -0.02028535 -0.02014018 -0.01999922 -0.01986038 -0.01972564 -0.01958007 -0.01942289 -0.01923505 -0.01901518
 -0.01875711 -0.01846164 -0.01814254 -0.01780167 -0.01745905 -0.01711406 -0.0167757 -0.01644057 -0.01610459 -0.01576474
 -0.01541312 -0.01505026 -0.01467256 -0.01428474 -0.01388895 -0.01349101 -0.01309462 -0.01270438 -0.01232246 -0.01195352
 -0.01159891 -0.01126304 -0.01094737 -0.01065111 -0.01037487 -0.0101109 -0.009858851 -0.009606985 -0.009354552 -0.009088056
 -0.008807125 -0.008501409 -0.008173204 -0.007825291 -0.00746187 -0.007096268 -0.006728683 -0.00636679 -0.006006019 -0.005642961
 -0.00527612 -0.004902074 -0.004523634 -0.004142468 -0.003757331 -0.003368971 -0.002972292 -0.002565213 -0.002148681 -0.001721748
 -0.00129169 -0.00085931 -0.0004286719 -1.710166E-07 0.0004280891 0.0008561357 0.001285342 0.001714543 0.002136996 0.002549743
 0.002936721 0.003296942 0.00361688 0.003903823 0.004162211 0.004405441 0.004652832 0.004911268 0.005195956 0.005500284
 0.005826576 0.006160556 0.006497026 0.006825656 0.007140861 0.007446193 0.007739763 0.008037848 0.008342081 0.008664449
 0.009006129 0.009362105 0.009731759 0.01010249 0.01047399 0.01083836 0.01119555 0.01154134 0.01187538 0.01219488
 0.01249875 0.01278544 0.01304947 0.01328477 0.01348285 0.01363236 0.01373428 0.0137829 0.01379239 0.01376705
 0.01371825 0.01365097 0.01356614 0.01346382 0.01334936 0.01322229 0.01309937 0.01298168 0.01288265 0.01280225
 0.01273794 0.01268816 0.01263979 0.01259231 0.01253562 0.01247262 0.0124054 0.01233825 0.01228148 0.01223392
 0.01219938 0.01217229 0.01214719 0.01212582 0.01210548 0.01209654 0.01210385 0.01213 0.01218007 0.01223696
 0.01230131 0.01233957 0.0123493 0.01229121 0.01216225 0.01194148 0.0116297 0.01124907 0.01080448 0.01034458
 0.009869985 0.00941013 0.008959904 0.00851865 0.008085775 0.00765875 0.007241311 0.006839998 0.006449537 0.006070613
 0.005688131 0.00529256 0.004875221 0.004427548 0.003956967 0.003461753 0.002960172 0.002454769 0.00196281 0.001487308
 0.001031878 0.0005973473 0.0001720695 -0.0002446521 -0.0006667253 -0.001094104 -0.001532615 -0.001981707 -0.002442455 -0.002913868
 -0.003394684 -0.003882057 -0.004370628 -0.004856736 -0.005333613 -0.005798395 -0.006246416 -0.006675492 -0.007082498 -0.007468178
 -0.00783099 -0.008176834 -0.008506929 -0.008826453 -0.00913656 -0.009440139 -0.009736929 -0.01003652 -0.01033937 -0.01065949
 -0.01099698 -0.01135068 -0.01171811 -0.0120787 -0.01243068 -0.01275465 -0.01305236 -0.01331855 -0.01355617 -0.01376802
 -0.01395718 -0.01412814 -0.01428496 -0.01443296 -0.01457441 -0.01471286 -0.01484691 -0.01497684 -0.0151009 -0.01521834
 -0.0153294 -0.01543347 -0.01553456 -0.01563263 -0.01573557 -0.01584405 -0.01596092 -0.01608586 -0.01620832 -0.01632724
 -0.01642841 -0.01651314 -0.01657945 -0.01663001 -0.01667185 -0.01670572 -0.01673627 -0.01676363 -0.01679012 -0.01681485
 -0.01683946 -0.01685767 -0.01686663 -0.01685936 -0.01682999 -0.01678343 -0.01671815 -0.01664822 -0.01657643 -0.01651069
 -0.016453 -0.01640067 -0.01635376 -0.01630694 -0.01626006 -0.01621151 -0.01616175 -0.01611385 -0.01606848 -0.01603078
 -0.01599989 -0.01597637 -0.0159581 -0.0159406 -0.01592398 -0.01590584 -0.01588883 -0.01587509 -0.01586507 -0.01586064
 -0.01585818 -0.0158573 -0.01585212 -0.01584146 -0.01581812 -0.0157802 -0.01572459 -0.01564973 -0.01556393 -0.01546753
 -0.01537193 -0.01527736 -0.01518274 -0.01508703 -0.01498004 -0.0148623 -0.01473077 -0.01458707 -0.01443542 -0.01427454
 -0.01410413 -0.01392189 -0.01372265 -0.0135104 -0.01328465 -0.01305689 -0.0128338 -0.01262562 -0.01244046 -0.01227602
 -0.01213565 -0.0120037 -0.01187803 -0.01174386 -0.01159797 -0.01144167 -0.01127433 -0.01111101 -0.0109524 -0.01081013
 -0.01068331 -0.01056887 -0.010465 -0.01036054 -0.01025661 -0.01014926 -0.01004376 -0.009949775 -0.009868742 -0.009810287
 -0.009763654 -0.009723703 -0.009675867 -0.009605959 -0.009515891 -0.009399667 -0.009275505 -0.009148696 -0.009028338 -0.008919655
 -0.008810606 -0.008700627 -0.008575856 -0.008434602 -0.008281626 -0.008117461 -0.007959203 -0.007807132 -0.007671244 -0.00754984
 -0.007440053 -0.007340406 -0.007244904 -0.007153333 -0.007063052 -0.006972694 -0.006880051 -0.00678179 -0.006673691 -0.006554198
 -0.006420349 -0.006274063 -0.006114682 -0.005947235 -0.005771632 -0.005598834 -0.005429815 -0.005280522 -0.005153548 -0.005056524
 -0.00499108 -0.004942977 -0.004911098 -0.004865401 -0.0048046 -0.004703263 -0.004564044 -0.004383887 -0.004170876 -0.003947101
 -0.003720277 -0.003519125 -0.00334096 -0.003196779 -0.003073949 -0.002963979 -0.002856884 -0.002742425 -0.002618481 -0.002481422
 -0.002332036 -0.002168947 -0.00199759 -0.001817364 -0.001642115 -0.001473473 -0.001322782 -0.001191552 -0.001076758 -0.0009780265
 -0.0008813157 -0.000785593 -0.0006753566 -0.0005506673 -0.000402348 -0.0002336941 -4.920054E-05 0.0001462909 0.0003397569 0.0005304465
 0.0007114339 0.0008844184 0.001050007 0.001205434 0.00134913 0.001478532 0.001590256 0.001690331 0.001779685 0.001864665
 0.001947651 0.00202678 0.002101935 0.002172451 0.00223794 0.002305222 0.002374615 0.002451435 0.002535372 0.002625514
 0.002721093 0.002818016 0.002915506 0.003007884 0.003097453 0.003184589 0.003276086 0.00338368 0.003507259 0.003655241
 0.003812339 0.003970756 0.004117988 0.004242729 0.004352163 0.004445362 0.004534027 0.004621319 0.004709782 0.004799763
 0.004895896 0.004998462 0.005113863 0.005242279 0.005379804 0.005526796 0.005683862 0.00585434 0.006057667 0.006292768
 0.006570095 0.006878351 0.007198493 0.007521596 0.007823273 0.008108307 0.00837062 0.008622823 0.008872281 0.009127099
 0.009396701 0.009670471 0.009952107 0.0102068 0.01042752 0.01058924 0.01068322 0.01073483 0.01074412 0.01075917
 0.010782 0.01082709 0.01089285 0.01096612 0.01104772 0.01113564 0.01123196 0.01134513 0.01147 0.01160211
 0.01172987 0.01183403 0.01190677 0.01192898 0.01190996 0.01184404 0.01176296 0.01167901 0.01162161 0.01160785
 0.01163166 0.01169768 0.01177806 0.01186863 0.01195746 0.01204306 0.01212177 0.01219322 0.01224429 0.01227643
 0.01229842 0.01231668 0.01237371 0.01246665 0.01261426 0.01279733 0.0129817 0.01315574 0.01328109 0.01337116
 0.01342202 0.01345943 0.01349845 0.01356511 0.01367833 0.01384465 0.01408317 0.01433175 0.0145834 0.01476648
 0.01486136 0.01489811 0.01487564 0.01485798 0.01484822 0.01488231 0.01495973 0.01508968 0.01526662 0.01546913
 0.01568666 0.01587136 0.01602105 0.01610213 0.01613133 0.0161196 0.01608183 0.01604332 0.0159955 0.01594072
 0.01586712 0.01576556 0.0156433 0.01549895 0.01534824 0.01519358 0.0150511 0.01492274 0.01482575 0.0147623
 0.01473578 0.01474633 0.01478224 0.01484335 0.01492564 0.01502796 0.01514731 0.01527236 0.01536669 0.01541397
 0.01535349 0.01519303 0.01490545 0.01453904 0.01412567 0.01373339 0.01342164 0.01323497 0.0132267 0.01335511
 0.01363767 0.01393786 0.01422925 0.01440176 0.01442353 0.01433096 0.01411899 0.01391778 0.01373389 0.01365465
 0.01367785 0.01380639 0.01402975 0.01429371 0.01458768 0.01484208 0.01506512 0.01523484 0.01537904 0.01553529
 0.01571382 0.01594827 0.01621458 0.01650793 0.01679875 0.01707032 0.01730551 0.01749421 0.01763021 0.01770505
 0.01774739 0.01775614 0.01779142 0.01786026 0.01797951 0.01815001 0.01831488 0.01847128 0.01856576 0.01860386
 0.01858976 0.01853056 0.01845217 0.0183587 0.01826929 0.01819223 0.01814989 0.0181446 0.01819284 0.01827665
 0.01839027 0.01851044 0.01862233 0.01871667 0.0187849 0.01883364 0.01886136 0.01888469 0.01890752 0.01892962
 0.01895327 0.01894441 0.0189013 0.01880487 0.0186588 0.01850535 0.01834881 0.01823989 0.01816973 0.01813358
 0.01812243 0.01810991 0.01809985 0.0180897 0.01807646 0.01805945 0.01802498 0.01795882 0.01786404 0.01773582
 0.0175896 0.01743264 0.01726287 0.01708142 0.01688231 0.01666198 0.0164392 0.01621445 0.01601671 0.01584759
 0.01572012 0.01563296 0.01557479 0.01553941 0.01548588 0.0154071 0.01525097 0.01502663 0.01472253 0.01436773
 0.01400404 0.01365282 0.01335742 0.01311753 0.01294811 0.01283887 0.01279191 0.01278412 0.01281142 0.01284004
 0.01285958 0.01285687 0.01282576 0.01278225 0.01272694 0.01267841 0.01263777</values></Ydata></AB><ScSm><Ydata ylabel="Single channel"><values byteorder="INTEL" format="FLOAT32" numvalues="1814"> 0.07321517 0.07323819 0.07332796 0.07350313 0.07373361 0.07395564 0.07411338 0.07419468 0.07421958 0.0742009
 0.07414748 0.07410675 0.07415708 0.0743316 0.07456911 0.07475486 0.07481082 0.07476431 0.07473435 0.07481498
 0.07494663 0.074933 0.07462701 0.07410043 0.07359685 0.07330765 0.07325441 0.07343312 0.07393134 0.07469178
 0.07525226 0.07507895 0.07423894 0.07342595 0.0731898 0.07340953 0.0736208 0.07354856 0.07319075 0.07271778
 0.07252166 0.07310502 0.07458565 0.07629693 0.07702996 0.07579078 0.07250555 0.06825697 0.06489728 0.06405543
 0.06597991 0.06920037 0.07163282 0.07224675 0.07156149 0.07059322 0.06977163 0.06905931 0.06863616 0.06894119
 0.07005135 0.07126419 0.07144955 0.07000637 0.06758634 0.06564899 0.0651351 0.06586704 0.06732148 0.06919934
 0.0706256 0.06969801 0.06536308 0.05978161 0.05735625 0.06053959 0.06721722 0.07279054 0.0742701 0.0719182
 0.06788652 0.06444223 0.06314242 0.06440619 0.06741102 0.07078394 0.07344742 0.07467291 0.07389497 0.07120275
 0.06781685 0.06548977 0.06542977 0.06783821 0.07186785 0.07568602 0.07730801 0.07607314 0.07308511 0.07004017
 0.0681098 0.06795454 0.06988668 0.07352817 0.0778009 0.08156709 0.08409873 0.0851257 0.08487356 0.08392499
 0.0827792 0.08178229 0.08145323 0.08215716 0.08325484 0.08335088 0.08182611 0.07967046 0.07845841 0.07871763
 0.07951218 0.07957828 0.07859851 0.07696927 0.07453741 0.0706127 0.06553587 0.06106587 0.05861979 0.05820997
 0.05949991 0.06234241 0.06553751 0.06676686 0.06512675 0.0627326 0.0626049 0.0654564 0.06934083 0.07204992
 0.07315302 0.07384751 0.07540528 0.07786402 0.07984631 0.07958795 0.07668918 0.07311137 0.07179131 0.07375769
 0.0771483 0.07951215 0.08039771 0.08107774 0.08232557 0.08321717 0.08208662 0.07849681 0.07432021 0.07259515
 0.07487944 0.07968624 0.08355593 0.08361655 0.07952113 0.07353611 0.06877184 0.06702825 0.06830451 0.07197087
 0.07745931 0.08365899 0.08864886 0.09077407 0.0898502 0.08705205 0.08357802 0.07954573 0.07464339 0.0699852
 0.06831651 0.07140544 0.07777117 0.08392417 0.08747838 0.0883294 0.08727969 0.08455115 0.08002311 0.07468444
 0.07110485 0.07143261 0.07481001 0.07787354 0.07828763 0.0768687 0.07582704 0.07599209 0.0765239 0.07664904
 0.07675473 0.07774123 0.07975307 0.08186025 0.08297382 0.08283775 0.08205782 0.08139013 0.08105636 0.08059025
 0.07949716 0.07825688 0.07825165 0.0802491 0.08333986 0.08587351 0.08710839 0.08746254 0.08740778 0.08664694
 0.08455581 0.08137245 0.07866676 0.07817298 0.08011127 0.0830566 0.08541785 0.08657686 0.08672473 0.08628073
 0.0856123 0.08492001 0.08430108 0.08400351 0.08435878 0.08530386 0.08628337 0.08680918 0.08685724 0.08660942
 0.0861025 0.08530699 0.0843841 0.08369045 0.08351888 0.08387558 0.08452601 0.08520795 0.0857237 0.08589697
 0.08563716 0.08507799 0.08449639 0.08405901 0.0837677 0.08363473 0.08373922 0.08407239 0.08446319 0.0847223
 0.08479077 0.08471529 0.0845448 0.08429778 0.08400027 0.08372113 0.08356304 0.08359265 0.08375791 0.08391845
 0.08400271 0.08407979 0.08421408 0.08431834 0.08424821 0.08400187 0.08373225 0.08357814 0.08355314 0.08358648
 0.08359953 0.08351848 0.08326964 0.08284485 0.08238707 0.08213645 0.0822368 0.08262895 0.08314493 0.08363436
 0.08398852 0.08415057 0.0841566 0.08409986 0.08402085 0.08388101 0.08365539 0.08341132 0.08328503 0.08338237
 0.083684 0.08405133 0.08434132 0.08449942 0.0845488 0.08455262 0.08459484 0.08471678 0.08484834 0.08487168
 0.08477236 0.08466737 0.08466822 0.08476067 0.08483468 0.08481111 0.08472751 0.08469717 0.08478612 0.08495039
 0.08510138 0.08520561 0.08530121 0.08542749 0.08555382 0.08559169 0.08549404 0.08532737 0.08520681 0.08517131
 0.08517443 0.08519044 0.08526044 0.08541171 0.08558504 0.085684 0.08568123 0.08564355 0.085646 0.08568278
 0.08568169 0.08559547 0.08545333 0.0853251 0.08525873 0.0852556 0.08528304 0.08529814 0.08527017 0.08519451
 0.08508985 0.08497861 0.08486963 0.08476865 0.08470695 0.08473467 0.08485751 0.08498943 0.0850037 0.08484818
 0.08459923 0.0843908 0.08429202 0.08425781 0.08419351 0.08405311 0.08386952 0.08370395 0.08358708 0.08350813
 0.08344072 0.0833713 0.0833165 0.08332129 0.08342244 0.08359405 0.08374198 0.0837797 0.08371025 0.0836148
 0.0835672 0.08358093 0.083628 0.08368117 0.0837403 0.08383239 0.08397381 0.08412641 0.08422071 0.08423598
 0.08422778 0.08426797 0.08438881 0.08458236 0.08480689 0.08498926 0.08507289 0.08508144 0.08510113 0.0851893
 0.08532929 0.08547909 0.085628 0.08578877 0.08596218 0.08613826 0.08632495 0.08655262 0.08684227 0.0871758
 0.08750038 0.08776469 0.08796159 0.08814297 0.08838478 0.0887246 0.08912936 0.08952413 0.08985361 0.09012151
 0.0903742 0.09064649 0.09093325 0.0912227 0.09153771 0.09191328 0.09234097 0.09276968 0.09316408 0.09353512
 0.09391135 0.09430459 0.09470996 0.09512463 0.09555782 0.09601875 0.09648946 0.09691852 0.09726147 0.0975295
 0.09778719 0.0981029 0.09850269 0.09895009 0.09935827 0.09965189 0.09984598 0.1000438 0.1003284 0.1006764
 0.1010093 0.1013097 0.1016404 0.1020501 0.1025004 0.1029042 0.1032188 0.1034817 0.1037607 0.1040759
 0.1043784 0.1046081 0.1047639 0.1049045 0.1050817 0.1053026 0.1055654 0.105893 0.106298 0.1067353
 0.107128 0.1074346 0.1076669 0.1078554 0.1080259 0.1081946 0.1083612 0.1085132 0.1086527 0.108799
 0.1089526 0.1090897 0.1092102 0.1093571 0.1095669 0.1098311 0.1101277 0.1104593 0.1108266 0.1111967
 0.1115395 0.1118832 0.1122842 0.1127326 0.1131322 0.1134009 0.1135575 0.1136793 0.1138082 0.1139462
 0.1141177 0.1143725 0.1147233 0.1151235 0.1155174 0.1158837 0.1162261 0.1165449 0.1168266 0.1170501
 0.1172014 0.1172906 0.1173569 0.1174562 0.1176373 0.1179149 0.1182532 0.1185843 0.118849 0.1190148
 0.1190619 0.118984 0.1188223 0.1186667 0.1185823 0.1185351 0.1184145 0.118128 0.117655 0.1170149
 0.1162202 0.1152822 0.114248 0.1132088 0.1122672 0.1115012 0.1109581 0.1106797 0.1107152 0.1110866
 0.1117348 0.1125159 0.1132567 0.1138035 0.1140316 0.1138559 0.1132708 0.1123651 0.1112729 0.1101085
 0.1089429 0.107802 0.1066666 0.1055056 0.1043502 0.1033346 0.1026513 0.1024778 0.1029565 0.1041993
 0.1062314 0.1088891 0.1118069 0.1145665 0.1168991 0.1187617 0.1202588 0.1215295 0.1226871 0.1237922
 0.1248412 0.1257963 0.1266424 0.1274016 0.1280967 0.1287249 0.1292675 0.1297055 0.1300296 0.1302531
 0.1304076 0.1305117 0.13056 0.1305503 0.1305001 0.130416 0.130259 0.129954 0.1294296 0.1286508
 0.1276361 0.1264776 0.1253869 0.1247369 0.12499 0.126451 0.1290152 0.1321763 0.1353143 0.1379938
 0.1400527 0.1415305 0.1425725 0.1433521 0.1440068 0.1446112 0.145193 0.1457561 0.1462924 0.1467948
 0.1472681 0.1477294 0.148198 0.1486804 0.1491591 0.149601 0.1499915 0.1503582 0.150753 0.1512046
 0.1516914 0.1521637 0.152598 0.1530184 0.1534526 0.1538807 0.1542566 0.1545714 0.1548683 0.1551969
 0.1555791 0.1560103 0.1564616 0.1568831 0.1572374 0.1575323 0.1578068 0.1580886 0.1583819 0.1586866
 0.1590078 0.1593429 0.1596777 0.1600057 0.1603423 0.1607017 0.1610646 0.1613874 0.1616501 0.1618816
 0.1621271 0.1624044 0.1626947 0.1629704 0.1632272 0.1634932 0.1638044 0.1641642 0.1645325 0.1648586
 0.1651256 0.165357 0.1655886 0.1658413 0.1661167 0.1664078 0.1667044 0.1669942 0.167269 0.167535
 0.1678098 0.1681034 0.1684052 0.1686954 0.1689653 0.1692241 0.1694864 0.1697592 0.1700439 0.1703455
 0.170672 0.1710178 0.1713568 0.1716593 0.1719152 0.1721368 0.1723436 0.1725509 0.1727707 0.1730099
 0.1732677 0.1735366 0.1738082 0.1740786 0.1743466 0.1746126 0.1748775 0.1751444 0.1754151 0.1756874
 0.1759591 0.1762354 0.176527 0.1768343 0.1771411 0.1774272 0.1776875 0.1779336 0.1781818 0.1784385
 0.1786977 0.1789502 0.1791967 0.1794479 0.179713 0.1799891 0.1802649 0.1805311 0.180787 0.1810382
 0.18129 0.1815442 0.1818015 0.1820626 0.1823247 0.1825827 0.1828338 0.1830797 0.183324 0.1835726
 0.1838313 0.1841002 0.1843725 0.1846431 0.1849128 0.1851804 0.1854386 0.1856816 0.1859129 0.1861426
 0.1863797 0.1866267 0.1868825 0.1871465 0.1874168 0.1876861 0.1879459 0.188194 0.1884333 0.1886693
 0.1889111 0.1891686 0.1894432 0.1897265 0.1900091 0.1902839 0.1905435 0.1907863 0.191023 0.1912687
 0.1915285 0.1917947 0.1920567 0.1923114 0.192567 0.1928317 0.1931013 0.1933632 0.1936104 0.1938437
 0.1940659 0.1942843 0.1945096 0.1947458 0.194988 0.195233 0.1954835 0.1957408 0.1960025 0.1962636
 0.1965188 0.1967675 0.1970157 0.1972661 0.1975143 0.1977594 0.1980109 0.1982757 0.1985504 0.1988262
 0.1990949 0.1993534 0.1996085 0.1998695 0.2001347 0.2003945 0.2006457 0.2008902 0.2011298 0.201371
 0.2016226 0.2018831 0.2021425 0.2023979 0.2026526 0.2029081 0.2031659 0.2034262 0.2036838 0.2039368
 0.2041922 0.2044499 0.2046977 0.2049326 0.2051679 0.2054137 0.2056692 0.2059315 0.2061952 0.2064544
 0.2067131 0.2069778 0.2072431 0.2075011 0.2077553 0.2080066 0.2082481 0.2084822 0.2087162 0.2089354
 0.209088 0.209041 0.2084657 0.2067144 0.2028049 0.1956085 0.1842932 0.1688465 0.1502669 0.1302117
 0.1103846 0.09208943 0.07610114 0.06276263 0.05214799 0.04416776 0.03863862 0.03540164 0.03444385 0.03601785
 0.04077147 0.04936432 0.06101859 0.07223365 0.07814801 0.07637797 0.0692957 0.06186515 0.0575202 0.05651184
 0.05738639 0.05889984 0.06065295 0.0628632 0.06591175 0.06990454 0.07465295 0.08014938 0.08679761 0.0948968
 0.1040251 0.1132164 0.1217901 0.1298802 0.1381088 0.1468313 0.1557602 0.1642452 0.1717885 0.178296
 0.1839792 0.1891236 0.193924 0.198466 0.20279 0.2068949 0.2106392 0.2136972 0.2157176 0.2165949
 0.2165949 0.2162032 0.2158398 0.2156986 0.2158001 0.2161123 0.2166039 0.2172431 0.2180016 0.2188554
 0.2197746 0.2207249 0.2216794 0.2226163 0.2235134 0.2243536 0.2251277 0.2258294 0.2264563 0.2270171
 0.2275285 0.2280064 0.2284605 0.2288907 0.2292915 0.2296665 0.2300315 0.2303933 0.2307377 0.231045
 0.2313114 0.2315497 0.2317797 0.2320164 0.2322592 0.2324948 0.2327166 0.2329327 0.2331532 0.2333795
 0.2336094 0.2338397 0.2340638 0.2342749 0.2344711 0.2346546 0.2348322 0.235018 0.2352262 0.2354561
 0.2356938 0.2359271 0.2361517 0.2363661 0.2365707 0.2367705 0.236973 0.2371819 0.2373933 0.2376001
 0.2378042 0.238023 0.2382704 0.2385344 0.2387883 0.2390217 0.2392457 0.2394716 0.2397016 0.2399335
 0.2401595 0.2403651 0.240543 0.2407076 0.2408881 0.241104 0.2413456 0.2415845 0.2418022 0.2420045
 0.2422041 0.242406 0.2426121 0.242824 0.2430423 0.2432753 0.2435374 0.2438245 0.2441075 0.2443673
 0.2446117 0.2448518 0.2450921 0.245344 0.2456123 0.245867 0.2460665 0.2462182 0.2463925 0.2466645
 0.2470404 0.2474435 0.2477859 0.2480484 0.2482777 0.2485246 0.2488122 0.2491187 0.2493557 0.2494271
 0.2493766 0.2494149 0.2497229 0.2502679 0.2508641 0.2513645 0.2517494 0.2520699 0.2523631 0.2526162
 0.2527811 0.2528275 0.2528062 0.2528658 0.2531559 0.2536756 0.2542571 0.2547352 0.2550794 0.2553393
 0.2555547 0.2557458 0.2558745 0.2557944 0.2554058 0.2549253 0.2548283 0.2553942 0.2563944 0.2573336
 0.257935 0.2582884 0.2585795 0.2588577 0.2590833 0.2591668 0.2588556 0.2578791 0.2564723 0.2555242
 0.2558402 0.2573291 0.2591548 0.2605747 0.2614044 0.2618281 0.2620767 0.2622784 0.2623656 0.2620768
 0.2612501 0.2602268 0.2597733 0.2603742 0.261684 0.2628936 0.2635562 0.2638246 0.2640233 0.2642853
 0.2644612 0.2640706 0.2625754 0.2601737 0.2581999 0.2581864 0.2603641 0.2633831 0.2656513 0.2667069
 0.2670917 0.2671749 0.266614 0.2649754 0.2623753 0.2594207 0.2570434 0.2564003 0.2581046 0.2612413
 0.2638835 0.2650009 0.2653274 0.2661119 0.2676121 0.2690958 0.2698061 0.2695527 0.2685721 0.2671016
 0.2652726 0.2635192 0.2628146 0.2639754 0.2666704 0.2695414 0.2714602 0.2723881 0.2727858 0.2722848
 0.2694139 0.2633693 0.2562354 0.2524091 0.2547087 0.2614218 0.2681485 0.2721304 0.2737547 0.274483
 0.2749025 0.2745709 0.2722505 0.2665597 0.2581252 0.2509823 0.2498543 0.2554696 0.2637375 0.2695825
 0.2704309 0.266495 0.2598338 0.2537168 0.2512891 0.2536679 0.2594677 0.2661693 0.2716281 0.2746455
 0.2749513 0.2730883 0.2703621 0.2685189 0.2684887 0.2690032 0.2675509 0.2635548 0.2593402 0.2567028
 0.2540942 0.2494621 0.2447887 0.2447681 0.2507293 0.2584308 0.262838 0.2632177 0.2621973 0.26095
 0.2571428 0.2482741 0.2364138 0.2282491 0.2292303 0.2379217 0.2472983 0.2516257 0.2510027 0.2492652
 0.2488697 0.2484214 0.2446904 0.2368688 0.2286562 0.2251309 0.2273241 0.2312867 0.2327285 0.2304219
 0.2246265 0.2156926 0.2065579 0.2035998 0.2111956 0.2262995 0.2408644 0.2484699 0.2465869 0.2350472
 0.2169673 0.2006743 0.1956277 0.203916 0.217715 0.2265142 0.2254333 0.215988 0.2015884 0.1852784
 0.1711946 0.1648701 0.1698593 0.1841812 0.2005239 0.2098744 0.2064313 0.1921104 0.1769481 0.171845
 0.1786246 0.1888252 0.1932258 0.1902247 0.1843883 0.1805445 0.1810099 0.1853496 0.1908454 0.1949964
 0.1975034 0.1974299 0.1904693 0.1741576 0.1548463 0.1435511 0.144481 0.1528035 0.1635018 0.1758824
 0.1879293 0.1931934 0.1880872 0.1787596 0.1759184 0.1834705 0.1951631 0.2022464 0.2021497 0.1989618
 0.197053 0.1963646 0.194677 0.1927684 0.1945393 0.2016504 0.2106223 0.2167157 0.2188454 0.2191339
 0.2192987 0.2193574 0.2188589 0.2176584 0.2158244 0.2137474 0.2120275 0.2107906 0.2095606 0.2079556
 0.2056779 0.2015167 0.1936678 0.1824306 0.1718407 0.1665501 0.1669755 0.1696183 0.1721209 0.1745863
 0.1749291 0.1676187 0.1509636 0.1330066 0.1256712 0.1332722 0.149329 0.1639171 0.1712362 0.1700725
 0.1608275 0.1457631 0.1314879 0.1269501 0.1362021 0.1545452 0.1735481 0.1882489 0.1978025 0.201612
 0.1985346 0.1897982 0.1801805 0.1753384 0.1783674 0.1883782 0.2008043 0.208618 0.2057313 0.1930206
 0.1811413 0.1827435 0.1991674 0.2182049 0.2278177 0.2283878 0.2279498 0.2297107 0.2303768 0.228851
 0.2298208 0.2372352 0.2484263 0.2567233 0.2573187 0.2491647 0.2343512 0.2186109 0.209865 0.2119063
 0.2201439 0.2266624 0.2279291 0.2242958 0.215273 0.2015902 0.1903108 0.1905611 0.2029154 0.2181208
 0.2276247 0.2313761 0.2340062 0.2368523 0.2363729 0.2295838 0.2190995 0.2115283 0.210927 0.2152248
 0.2196523 0.2217407 0.2213688 0.2179439 0.2107759 0.2021938 0.1975309 0.200492 0.2093437 0.2185813
 0.2238792 0.224788 0.2233724 0.2215961 0.2200358 0.2180654 0.2151507 0.2125332 0.2130076 0.2178888
 0.2248414 0.2302344 0.2332874 0.236347 0.2411942 0.2465772 0.2497264 0.2493773 0.2469803 0.2454396
 0.2467783 0.2505212 0.2540423 0.2548063 0.2527808 0.2506915 0.251513 0.2556338 0.2608098 0.264714
 0.2668389 0.2680092 0.2689993 0.2698722 0.2699545 0.2683636 0.2652748 0.2626554 0.2628692 0.2663256
 0.2710769 0.2748091 0.2766929 0.2772639 0.2771709 0.2764952 0.2751108 0.2732964 0.2717575 0.2710759
 0.2712943 0.2720595 0.2729925 0.2738507 0.2745151 0.2749825 0.2753286 0.2756121 0.2758449 0.2760487
 0.276247 0.2763965 0.2764233 0.2763693 0.2764102 0.2766619 0.2770261 0.2772901 0.2773208 0.2770801
 0.276509 0.2755305 0.2741729 0.2725727 0.2708153 0.2688837 0.2668705 0.2652051 0.2645271 0.2652232
 0.2670771 0.2693996 0.2714903 0.2729774 0.2738275 0.2741932 0.2742907 0.2743171 0.2743735 0.274441
 0.2744464 0.2743496 0.2741656 0.2739263 0.2736505 0.2733561 0.2730726 0.2728168 0.2725637 0.2722624
 0.2718877 0.2714655 0.2710388 0.2706109 0.2701313 0.2695405 0.268824 0.2680185 0.2671758 0.2663289
 0.265489 0.2646645 0.2638658 0.2630858 0.2622855 0.2614066 0.2603924 0.2592028 0.2578498 0.2564375
 0.2551245 0.2540014 0.2530189 0.2520518 0.2510061 0.2498466 0.2485687 0.2471852 0.2457273 0.2442284
 0.2427027 0.2411468 0.2395526 0.2379119 0.2362131 0.2344436 0.2326009 0.2306963 0.2287478 0.2267666
 0.2247408 0.2226097 0.2202564 0.2175419 0.2143511 0.2106076 0.2062802 0.2014189 0.1961858 0.1908171
 0.1855392 0.1805168 0.1758663 0.1716915 0.1680962 0.1651619 0.1629262 0.1613894 0.1605409 0.1603714
 0.1608698 0.1620088 0.1637258 0.1659095 0.1684102 0.1710627 0.1737016 0.1761831 0.1784267 0.1804468
 0.1823311 0.184165 0.1859643 0.1876777 0.1892502 0.1906637 0.1919159 0.1929909 0.1938777 0.1945992
 0.1952019 0.1957256 0.1961898 0.1965961 0.1969406 0.1972311 0.1974835 0.1976993 0.1978654 0.1979882
 0.1981176 0.1983359 0.1987237 0.1993164 0.2000805 0.2009423 0.2018445 0.2027645 0.2036937 0.2046297
 0.2055868 0.2065968 0.2076987 0.2089294 0.2103131 0.2118513 0.2135287 0.2153158 0.2171569 0.2189658
 0.2206478 0.2221252 0.2233514 0.2243145 0.2250284 0.225521 0.2258276 0.2259854 0.2260206 0.2259495
 0.2257959 0.2255882 0.2253348 0.2250216 0.2246346 0.2241713 0.2236404 0.22307 0.2225017 0.2219605
 0.2214399 0.2209222 0.2204006 0.21988 0.2193671 0.2188606 0.2183507 0.217831 0.217307 0.2167829
 0.2162474 0.215674 0.2150244 0.2142564 0.2133498 0.2123237 0.2112085 0.2100119 0.208726 0.2073516
 0.2058989 0.2043753 0.2027855 0.201132 0.1994138 0.1976243 0.195748 0.1937638 0.1916763 0.1895433
 0.187454 0.1854797 0.1836488 0.1819494 0.1803427 0.1787902 0.1772795 0.1758166 0.1744026 0.1730379
 0.1717394 0.1705293 0.1694078 0.1683515 0.1673382 0.1663719 0.1654859 0.1647164 0.1640678 0.1635149
 0.1630331 0.1626208 0.1622958 0.1620809 0.1619801 0.161957 0.1619481 0.1618977 0.1617754 0.1615769
 0.1613305 0.1610886 0.1608903 0.1607377 0.160608 0.1604622 0.1602355 0.1598389 0.1591831 0.1582038
 0.1568822 0.155255 0.1534031 0.1514396 0.1495056 0.1477416 0.1462343 0.1450013 0.1440263 0.1432768
 0.1426917 0.1421994 0.1417757 0.1414673 0.1413463 0.1414213 0.1415865 0.1416866 0.1416647 0.1416234
 0.1417232 0.1420483 0.1425755 0.1432159 0.1438606 0.1444229 0.1448602 0.1451595 0.1453259 0.1453847
 0.1453607 0.1452532 0.1450568 0.1447883 0.1444676 0.1440977 0.1436801 0.1432147 0.1426833 0.1420648
 0.1413541 0.1405529 0.1396661 0.1387037 0.1376472 0.1364522 0.1351586 0.1339733 0.1331746 0.1329368
 0.1332437 0.1339167 0.134737 0.1355826 0.1363974 0.1370163 0.1372074 0.1370478 0.1371215 0.1381018
 0.1400957 0.1425121 0.1445881 0.1459337 0.1465557 0.146562 0.1460251 0.1450224 0.1435978 0.1417104
 0.1393419 0.1365882 0.1335877 0.1304863 0.1274933 0.1248197 0.122561 0.1207174 0.1192591 0.1182132
 0.1177266 0.1174705 0.1156208 0.1098064 0.1007557 0.09395044 0.09501532 0.1033833 0.1126758 0.1174473
 0.1175315 0.1158189 0.1143201 0.1133585 0.1128425 0.1129007 0.1136434 0.114928 0.1163783 0.1176019
 0.1184331 0.1188919 0.1189029 0.118093 0.1157588 0.1111047 0.1038966 0.09503038 0.08621435 0.07896444
 0.07392958 0.07094549 0.06939578 0.06857413 0.06802934 0.06774781 0.0680123 0.06907372 0.0709465 0.07347631
 0.07649599 0.07979269 0.08298329 0.08565179 0.08767004 0.08921853 0.09046371 0.09137329 0.09184937 0.09187786
 0.09152645 0.09090766 0.09015485 0.08935831 0.08850157 0.08749508 0.0863207 0.08515179 0.08426356 0.08378569
 0.08361194 0.08357085 0.08357634 0.08359534 0.08360138 0.0835948 0.08359221 0.08361553 0.08373665 0.08404501
 0.08451097 0.0849689 0.08527754 0.08543409 0.08552069 0.08556639 0.08545339 0.08502088 0.08433442 0.08371218
 0.08331188 0.08284686 0.08196124 0.08078475 0.07986392 0.07958175 0.07982818 0.08020513 0.08038932 0.08029877
 0.08007653 0.08000433 0.08031294 0.0809188</values></Ydata></ScSm><ScRf><Ydata ylabel="Single channel"><values byteorder="INTEL" format="FLOAT32" numvalues="1820"> 0.06049615 0.06064297 0.06073575 0.06077252 0.06077397 0.06078111 0.06083831 0.06096506 0.06114049 0.06131515
 0.06144568 0.06152295 0.06155948 0.06155679 0.06151487 0.06147506 0.06151154 0.06165798 0.06186153 0.0620215
 0.06207073 0.06203228 0.06200466 0.06206445 0.06216241 0.06213909 0.06187692 0.06143718 0.06102061 0.06078501
 0.06074928 0.06090973 0.06133538 0.06197564 0.06244644 0.06230268 0.06159541 0.06090084 0.06068458 0.06085516
 0.06102605 0.06096161 0.06065601 0.06025223 0.0600796 0.06056025 0.06179532 0.0632273 0.06384007 0.06279704
 0.06003824 0.05647641 0.05366436 0.05296043 0.05456799 0.05726121 0.05930604 0.05984175 0.05929158 0.05849192
 0.05779789 0.05718432 0.05681176 0.057055 0.05797983 0.05899529 0.05915327 0.05795083 0.05593072 0.05430813
 0.05386854 0.05446927 0.05567769 0.05724391 0.05843848 0.05767618 0.05407183 0.04941396 0.04737077 0.05000276
 0.05556409 0.06021992 0.06146365 0.05950597 0.05614585 0.05327993 0.05220345 0.05325741 0.05575377 0.05855481
 0.06077055 0.06179614 0.06115738 0.05892459 0.0561119 0.05417711 0.05412448 0.05612039 0.05946013 0.0626203
 0.06395082 0.06290349 0.06040081 0.05785955 0.05625563 0.05613388 0.05774935 0.06078808 0.0643571 0.06751107
 0.06963861 0.07050484 0.07029234 0.06949349 0.06853721 0.06771535 0.06744994 0.06803453 0.06893707 0.06900255
 0.06771967 0.06591341 0.06489675 0.06511313 0.06578498 0.06585582 0.06505485 0.06370898 0.06169014 0.05842106
 0.05418378 0.05044752 0.04839908 0.04805038 0.04912252 0.05150117 0.05419319 0.05525682 0.05391623 0.05192007
 0.05179258 0.05414551 0.05736733 0.05961603 0.06052888 0.06110635 0.06241435 0.06448548 0.06616613 0.06597604
 0.0635722 0.06058693 0.05947782 0.06111566 0.0639509 0.06593347 0.06668562 0.06727785 0.06836157 0.0691579
 0.06826118 0.06529906 0.06183885 0.06042159 0.06234497 0.06636409 0.06959439 0.06964427 0.06622586 0.0612333
 0.0572688 0.05583732 0.05693559 0.06004138 0.06469383 0.06997439 0.07426736 0.07615979 0.07546726 0.07316624
 0.0702811 0.06693168 0.06285462 0.05897503 0.0576097 0.06027109 0.06572474 0.07102028 0.07412992 0.07495646
 0.07416809 0.07193549 0.06814418 0.06364537 0.06065863 0.06104279 0.06406354 0.06681684 0.06727426 0.06612944
 0.06529778 0.06551452 0.06606193 0.06626355 0.0664497 0.06740947 0.06927964 0.07125082 0.07236101 0.07237123
 0.07180476 0.07132983 0.07114993 0.07085717 0.07001419 0.06904618 0.06917825 0.07108845 0.07396375 0.07633127
 0.07753067 0.07794595 0.07801361 0.0774687 0.07573345 0.07300343 0.07069032 0.07036961 0.07225084 0.07504678
 0.07731155 0.07848167 0.07873484 0.07845972 0.07799506 0.07752286 0.07712466 0.07701288 0.077478 0.07846385
 0.07947556 0.08007519 0.08023655 0.08011735 0.07975054 0.07911984 0.07838644 0.07788123 0.07786468 0.07833274
 0.07906942 0.07984036 0.08046565 0.08077201 0.08065883 0.08024327 0.07979353 0.07948396 0.07932842 0.07933794
 0.07957745 0.08002628 0.08051418 0.08086248 0.08102463 0.08105571 0.08100622 0.08088792 0.08071485 0.08054712
 0.08048707 0.08060589 0.08085686 0.08110797 0.08129849 0.08150119 0.08177048 0.08200115 0.08203533 0.08186993
 0.0816673 0.08157751 0.0816199 0.08172527 0.08181661 0.08182079 0.08166185 0.08132929 0.08096385 0.08080032
 0.08097778 0.0814434 0.08204452 0.08263649 0.08309524 0.08334088 0.08340248 0.08338662 0.08334899 0.08325352
 0.08307239 0.08287677 0.08280972 0.0829782 0.08336022 0.08381407 0.08418801 0.08441363 0.08450971 0.08455417
 0.0846516 0.0848476 0.08505417 0.08513211 0.08506609 0.08499275 0.08503515 0.08516301 0.08524317 0.08519968
 0.08509886 0.08507709 0.08520009 0.08541083 0.08561115 0.0857679 0.0859274 0.0861349 0.08634713 0.08644356
 0.08635193 0.08614799 0.08598246 0.08592059 0.08591667 0.08593979 0.08603673 0.0862378 0.08646712 0.08660565
 0.08662396 0.08660822 0.08664909 0.08673391 0.08676719 0.08668179 0.08650711 0.08633603 0.08624947 0.08626916
 0.08635445 0.08643223 0.08644415 0.08638111 0.08627736 0.08617309 0.08608788 0.08603591 0.08605671 0.08619791
 0.0864408 0.08665939 0.08669801 0.08651347 0.0862279 0.08602278 0.08597718 0.08601239 0.08598642 0.08582806
 0.08557811 0.08532499 0.08512565 0.08498421 0.08487862 0.08479381 0.08474324 0.08476663 0.08488582 0.08504501
 0.08511807 0.08501191 0.08475997 0.08449014 0.08431002 0.08424379 0.08425322 0.08428109 0.08429098 0.08429782
 0.0843411 0.08440916 0.08442859 0.08435641 0.08424493 0.08419053 0.0842528 0.08442988 0.08465947 0.08483021
 0.08485219 0.0847467 0.08463138 0.08460169 0.08465756 0.08474827 0.08484396 0.08494259 0.08504125 0.08513509
 0.0852392 0.08538835 0.08560456 0.08586728 0.08611881 0.08630511 0.08642113 0.08652109 0.08667882 0.08692959
 0.08724406 0.0875539 0.08780432 0.08799191 0.08815635 0.08833335 0.08852381 0.08871964 0.08894202 0.08922265
 0.08955278 0.08988309 0.09017784 0.09044491 0.09071139 0.09099081 0.09128159 0.09158824 0.09193546 0.09234588
 0.09279077 0.09318008 0.0934331 0.09356084 0.09366375 0.09385325 0.09417501 0.09457593 0.09492907 0.09512994
 0.09520158 0.09527976 0.09546775 0.09573639 0.0959986 0.09624656 0.09656031 0.09698682 0.09745805 0.0978474
 0.09808891 0.09822878 0.09836504 0.09854449 0.09872633 0.09885095 0.09892608 0.09901633 0.09915789 0.099331
 0.09952784 0.09979428 0.1001654 0.1005933 0.100982 0.1012763 0.1014856 0.1016414 0.1017636 0.1018553
 0.1019071 0.1019188 0.1019264 0.1019807 0.1020847 0.1021816 0.1022281 0.1022505 0.1023099 0.1024398
 0.1026417 0.1029103 0.1032251 0.1035356 0.103804 0.1040634 0.1043842 0.1047622 0.1050861 0.1052546
 0.1052918 0.1053001 0.1053338 0.1053792 0.105442 0.1055775 0.1058194 0.106132 0.1064575 0.1067779
 0.1071119 0.1074662 0.1078045 0.1080606 0.1081853 0.1081894 0.1081438 0.1081393 0.1082432 0.1084722
 0.1087863 0.1091116 0.1093845 0.1095731 0.1096624 0.1096522 0.1095907 0.109579 0.1096923 0.1098909
 0.11004 0.1100224 0.1098116 0.109439 0.1089324 0.1083124 0.1076301 0.1069718 0.1064203 0.1060191
 0.1057848 0.105745 0.1059443 0.1063944 0.1070251 0.1077105 0.1083435 0.1088585 0.1091841 0.1092272
 0.1089392 0.108376 0.1076654 0.1069301 0.1062452 0.1056312 0.1050575 0.1044886 0.1039652 0.1036349
 0.1036818 0.1042213 0.1052466 0.1066314 0.108164 0.109617 0.1108402 0.1118135 0.1126126 0.1133246
 0.1139971 0.1146502 0.1153033 0.1159615 0.1165932 0.1171547 0.1176382 0.118075 0.1184898 0.1188777
 0.1192189 0.1194993 0.1197242 0.1199232 0.1201226 0.1202995 0.1203916 0.1203701 0.1202779 0.1201739
 0.1200651 0.1199075 0.1196531 0.1192881 0.1188555 0.1184708 0.1183069 0.1185262 0.1191923 0.120229
 0.1214748 0.1227818 0.1240563 0.1252164 0.1261653 0.1268431 0.1272833 0.1275865 0.1278474 0.1281171
 0.1284105 0.1287203 0.1290282 0.1293205 0.1295982 0.1298762 0.1301764 0.1305105 0.1308591 0.1311767
 0.1314348 0.1316592 0.1319132 0.1322401 0.1326212 0.1329961 0.1333272 0.133634 0.1339498 0.134262
 0.1345228 0.1347162 0.1348839 0.1350853 0.1353565 0.1356996 0.1360774 0.1364213 0.1366777 0.1368562
 0.1370144 0.1372008 0.1374256 0.1376768 0.1379389 0.1381959 0.1384392 0.1386821 0.1389548 0.1392681
 0.1395837 0.1398393 0.1400125 0.1401464 0.1403017 0.1404978 0.1407098 0.140911 0.1411037 0.1413157
 0.1415746 0.1418769 0.1421782 0.1424237 0.1425948 0.1427211 0.1428494 0.143009 0.1432044 0.1434253
 0.1436546 0.1438741 0.1440743 0.1442618 0.1444525 0.1446563 0.1448709 0.1450889 0.145305 0.1455167
 0.1457225 0.1459233 0.1461263 0.1463491 0.1466106 0.1469073 0.1472016 0.1474473 0.147629 0.1477677
 0.1478939 0.1480278 0.1481804 0.1483561 0.1485502 0.1487525 0.1489565 0.1491623 0.1493713 0.1495814
 0.1497883 0.1499916 0.1501971 0.1504105 0.1506323 0.15086 0.15109 0.1513141 0.1515226 0.1517142
 0.1518989 0.1520876 0.1522832 0.1524813 0.1526736 0.152855 0.1530302 0.1532096 0.1533984 0.1535922
 0.1537856 0.1539779 0.1541718 0.1543705 0.1545752 0.1547825 0.1549856 0.1551807 0.1553699 0.1555582
 0.1557491 0.1559409 0.1561311 0.1563215 0.1565173 0.1567177 0.1569149 0.1571058 0.1572974 0.1574968
 0.1577009 0.1579009 0.1580925 0.1582806 0.1584745 0.1586801 0.1588946 0.15911 0.1593186 0.1595173
 0.1597101 0.1599062 0.1601115 0.1603235 0.1605371 0.1607504 0.160963 0.1611736 0.1613835 0.1615956
 0.1618093 0.1620208 0.1622284 0.1624334 0.1626398 0.1628516 0.1630692 0.163287 0.1634985 0.1637007
 0.1638931 0.1640768 0.1642551 0.1644312 0.1646082 0.1647901 0.1649786 0.1651679 0.1653504 0.1655255
 0.1656973 0.1658705 0.1660532 0.1662537 0.1664689 0.1666845 0.1668915 0.1670944 0.1673028 0.1675206
 0.1677416 0.1679546 0.1681546 0.1683482 0.1685422 0.1687367 0.168933 0.1691354 0.1693421 0.1695456
 0.169746 0.1699516 0.1701677 0.1703921 0.1706167 0.170832 0.1710361 0.1712381 0.1714455 0.1716566
 0.1718673 0.1720759 0.1722795 0.1724768 0.1726741 0.1728774 0.173088 0.173307 0.1735334 0.1737592
 0.1739792 0.174198 0.174417 0.1746294 0.174836 0.1750461 0.1752613 0.1754763 0.1756914 0.1759069
 0.1761181 0.1763249 0.1765281 0.1767111 0.1768294 0.1767739 0.1762728 0.1747818 0.1714649 0.1653585
 0.1557562 0.1426513 0.1268918 0.1098812 0.09306365 0.0775463 0.0639872 0.05267608 0.04367357 0.03690406
 0.03221823 0.02948742 0.02869624 0.03004436 0.03407022 0.04133605 0.05119531 0.06069071 0.06570036 0.06419589
 0.0581852 0.05188185 0.04820096 0.0473516 0.04809771 0.04938774 0.05088633 0.05277326 0.05536398 0.05874729
 0.0627712 0.06743863 0.07309385 0.07998465 0.08774822 0.09556603 0.1028632 0.1097526 0.1167605 0.124188
 0.1317918 0.1390203 0.1454494 0.150994 0.1558282 0.1601969 0.1642775 0.1681541 0.1718627 0.1753929
 0.1786123 0.1812382 0.1829753 0.1837368 0.1837469 0.1834177 0.1831105 0.1829914 0.1830729 0.1833257
 0.1837308 0.1842735 0.1849367 0.1856964 0.186514 0.1873477 0.1881727 0.1889776 0.1897497 0.1904766
 0.1911533 0.1917767 0.1923428 0.1928537 0.1933174 0.1937416 0.194134 0.1945016 0.1948486 0.1951811
 0.1955109 0.1958427 0.1961633 0.1964538 0.1967072 0.1969299 0.1971353 0.1973382 0.1975485 0.1977648
 0.1979786 0.1981836 0.1983801 0.1985761 0.1987821 0.1989982 0.1992127 0.1994156 0.1996096 0.1998015
 0.199993 0.2001838 0.2003741 0.2005635 0.2007511 0.2009375 0.2011233 0.2013078 0.2014928 0.2016817
 0.2018768 0.2020785 0.2022853 0.2024928 0.2026991 0.2029085 0.2031247 0.2033416 0.2035533 0.203765
 0.2039844 0.2042084 0.2044279 0.2046376 0.2048336 0.2050112 0.2051735 0.2053354 0.2055144 0.2057177
 0.2059354 0.2061488 0.2063475 0.2065379 0.2067302 0.2069249 0.2071156 0.2072979 0.2074752 0.2076643
 0.2078862 0.2081402 0.2084013 0.2086499 0.2088866 0.2091154 0.2093368 0.209559 0.209784 0.2099895
 0.2101532 0.2102966 0.2104795 0.2107475 0.2110862 0.211429 0.2117139 0.2119379 0.2121483 0.2123907
 0.2126757 0.2129648 0.2131664 0.2132036 0.2131361 0.2131623 0.213439 0.21393 0.2144695 0.2149297
 0.2152891 0.2155843 0.2158462 0.2160695 0.216217 0.2162604 0.2162444 0.2163047 0.2165754 0.2170508
 0.2175758 0.2180028 0.2183087 0.2185418 0.2187395 0.2189207 0.2190527 0.2190027 0.2186741 0.2182529
 0.2181628 0.2186574 0.2195362 0.2203608 0.2208896 0.2212043 0.2214701 0.2217326 0.2219568 0.2220581
 0.2218097 0.2209777 0.2197752 0.2189806 0.2192909 0.2206181 0.2222297 0.2234798 0.2242121 0.2245921
 0.2248273 0.2250345 0.2251538 0.2249486 0.224269 0.2234088 0.2230364 0.2235775 0.2247346 0.2258057
 0.2264039 0.2266647 0.226868 0.2271206 0.2272873 0.2269573 0.2256755 0.2236201 0.221948 0.2219841
 0.2239233 0.2265911 0.2286027 0.2295547 0.2299194 0.2300241 0.2295732 0.2281819 0.2259472 0.2234067
 0.2213822 0.2208767 0.2224075 0.2251676 0.2274832 0.2284691 0.228775 0.2294934 0.2308488 0.2321991
 0.2328748 0.2327021 0.2318886 0.2306502 0.2291071 0.2276349 0.2270751 0.2281349 0.2305292 0.2330819
 0.2348093 0.2356649 0.2360396 0.2356192 0.2331401 0.2279169 0.2217657 0.2185034 0.2205689 0.2264671
 0.2323744 0.235898 0.2373787 0.2380905 0.2385412 0.2383317 0.2363684 0.2314458 0.2241273 0.2179538
 0.2170527 0.2220472 0.229349 0.2345201 0.2353199 0.2319439 0.2261953 0.2209261 0.2188749 0.2210177
 0.2261559 0.2320984 0.2369658 0.2396989 0.240055 0.2385062 0.2361942 0.2346533 0.2347065 0.2352454
 0.2340667 0.2306638 0.2270778 0.2248831 0.2227161 0.2187709 0.2147914 0.2149126 0.2203069 0.2272371
 0.2312673 0.2317564 0.2310193 0.2300767 0.2268557 0.2191471 0.2087955 0.2017405 0.2028288 0.2107923
 0.2193932 0.2235412 0.2233305 0.2221695 0.2222276 0.2222338 0.2192722 0.212604 0.2055599 0.2027235
 0.2050293 0.2089195 0.2105259 0.2087241 0.2037119 0.1957892 0.187654 0.1851592 0.1923322 0.2064106
 0.2200397 0.2273325 0.2259556 0.2157317 0.1995065 0.184955 0.1808326 0.1890905 0.2024888 0.2112734
 0.2108874 0.2026986 0.1898529 0.1752058 0.1627025 0.1576607 0.1635488 0.1785263 0.1955381 0.2057545
 0.2033888 0.1902503 0.1762789 0.1723643 0.1803434 0.1917096 0.1971695 0.1950986 0.1901095 0.1871375
 0.1886344 0.1942063 0.2010105 0.206403 0.2100322 0.210791 0.2039569 0.186861 0.166373 0.154397
 0.1555105 0.1645494 0.1761373 0.1895416 0.2025846 0.2082835 0.2027348 0.1925635 0.1893389 0.1972892
 0.2096595 0.2169868 0.2164752 0.2125377 0.2099397 0.2087015 0.2064797 0.2040838 0.2056581 0.2129967
 0.2224327 0.2289277 0.2312974 0.2317767 0.2322024 0.2326131 0.2325311 0.2317952 0.2304736 0.2289747
 0.2279324 0.2274872 0.2271532 0.2265633 0.2254299 0.2223734 0.2152151 0.2040341 0.1931436 0.1876884
 0.1881825 0.1908168 0.1931069 0.1953439 0.1953325 0.1869231 0.1681438 0.1478547 0.1393107 0.1473621
 0.1648405 0.1807097 0.1885216 0.1869686 0.1765559 0.1597575 0.1436611 0.1378105 0.146451 0.1644393
 0.1827098 0.1960914 0.2040129 0.2062168 0.2016928 0.1916789 0.1809666 0.1752057 0.1774247 0.186641
 0.1982324 0.205209 0.2016066 0.1883488 0.1758933 0.1765963 0.1917955 0.2096557 0.2184714 0.2185541
 0.21766 0.2189308 0.2192402 0.217545 0.2183478 0.2254572 0.2363514 0.2446615 0.2457671 0.2386206
 0.2251906 0.2109784 0.2035992 0.2066364 0.2155086 0.222412 0.2238644 0.2202546 0.2112298 0.1976546
 0.1865399 0.1868298 0.1990387 0.2140601 0.2235099 0.2273571 0.2301496 0.2331811 0.2329428 0.2264801
 0.216373 0.2091659 0.2088984 0.2135512 0.218431 0.2211196 0.2215025 0.2189448 0.2126868 0.2050281
 0.2013574 0.2054384 0.2154701 0.2257527 0.2317816 0.2330474 0.2316408 0.2295601 0.2274012 0.2245626
 0.2205687 0.2167616 0.216042 0.2197774 0.2256219 0.2299224 0.2319038 0.2339392 0.2378352 0.2423545
 0.2447256 0.2436635 0.2405821 0.2383465 0.2389632 0.2419886 0.2448695 0.2451313 0.2427357 0.2403346
 0.2408272 0.2446005 0.2494846 0.253217 0.2552791 0.256436 0.2574222 0.2583004 0.2584177 0.2569042
 0.2539016 0.2512805 0.2513111 0.2544084 0.2587373 0.262111 0.2637634 0.2642264 0.2641166 0.2634896
 0.2622063 0.260527 0.2591202 0.2585276 0.2587723 0.2595037 0.2603587 0.261115 0.2616706 0.2620329
 0.2622831 0.2624773 0.2626174 0.2627192 0.2628195 0.2628935 0.262871 0.2627763 0.2627623 0.2629382
 0.2632253 0.2634426 0.2634704 0.2632576 0.2627308 0.2618204 0.2605752 0.2591439 0.2576064 0.2559238
 0.2541635 0.2527371 0.2522747 0.2531533 0.2551468 0.2575644 0.2597224 0.2612841 0.2622478 0.2627589
 0.2629794 0.2630486 0.2630567 0.2630247 0.2629251 0.2627317 0.2624468 0.2620918 0.261693 0.2612848
 0.2609127 0.260612 0.2603708 0.2601251 0.2598022 0.2593715 0.2588575 0.2583107 0.2577655 0.2572089
 0.256585 0.2558379 0.2549606 0.2540077 0.2530654 0.2522022 0.2514291 0.2506991 0.2499516 0.2491516
 0.2482742 0.2472785 0.2461457 0.2449505 0.2438455 0.2429468 0.2422449 0.2416314 0.2409882 0.2402416
 0.2393699 0.2383957 0.237367 0.2363206 0.2352586 0.2341599 0.2330026 0.2317668 0.2304317 0.2289864
 0.227443 0.2258355 0.2242067 0.2225845 0.2209477 0.2192093 0.2172402 0.2149109 0.2121125 0.2087626
 0.2048285 0.2003652 0.1955297 0.1905439 0.1856266 0.1809456 0.1766197 0.1727441 0.1694026 0.1666661
 0.1645921 0.1632228 0.1625763 0.1626422 0.1633897 0.1647756 0.1667407 0.1691953 0.172006 0.1750003
 0.1779925 0.1808228 0.1833997 0.185731 0.1878985 0.1899708 0.1919362 0.1937339 0.1953292 0.196726
 0.1979269 0.1989253 0.1997371 0.2004077 0.2009812 0.2014771 0.2019 0.202258 0.2025662 0.2028374
 0.2030759 0.2032833 0.2034659 0.2036379 0.2038226 0.204046 0.2043232 0.2046561 0.2050472 0.2055016
 0.2060098 0.2065487 0.2071074 0.2076938 0.2083132 0.2089615 0.2096524 0.210431 0.2113532 0.2124521
 0.21372 0.215108 0.2165358 0.2179064 0.2191238 0.2201163 0.2208531 0.2213422 0.2216137 0.2217057
 0.2216547 0.2214869 0.2212172 0.2208548 0.2204057 0.2198741 0.2192727 0.2186258 0.2179553 0.2172671
 0.2165618 0.2158528 0.2151643 0.2145106 0.2138859 0.213276 0.2126742 0.2120782 0.211481 0.2108775
 0.2102761 0.2096941 0.2091386 0.2086003 0.2080585 0.2074833 0.2068384 0.2060971 0.2052566 0.204329
 0.2033191 0.2022187 0.201023 0.1997412 0.1983852 0.1969569 0.1954531 0.1938767 0.1922349 0.1905248
 0.188726 0.186816 0.1848053 0.1827603 0.1807788 0.1789345 0.1772427 0.1756766 0.1742 0.1727893
 0.1714363 0.1701409 0.1689057 0.1677375 0.1666467 0.1656322 0.1646735 0.1637478 0.162855 0.1620202
 0.1612757 0.1606377 0.1600968 0.1596327 0.1592361 0.1589082 0.1586512 0.1584778 0.1584095 0.1584416
 0.1585163 0.1585549 0.1585122 0.1583971 0.1582547 0.1581307 0.1580423 0.1579795 0.1579239 0.1578457
 0.1576859 0.1573624 0.1567957 0.1559271 0.1547357 0.1532493 0.1515318 0.1496739 0.1478064 0.1460864
 0.1446359 0.143501 0.1426651 0.1420648 0.1416021 0.1411967 0.1408436 0.1406111 0.1405788 0.1407565
 0.1410324 0.1412359 0.1412962 0.1413186 0.1414795 0.1418815 0.1425116 0.1432736 0.1440412 0.1447177
 0.1452596 0.145649 0.1458859 0.1460023 0.1460315 0.1459718 0.1458175 0.145593 0.1453241 0.1450128
 0.1446549 0.1442443 0.1437664 0.1432171 0.1425972 0.141886 0.1410658 0.1401514 0.1391381 0.1379861
 0.1367411 0.1356188 0.1348979 0.1347586 0.1352065 0.1360695 0.1370989 0.1381387 0.1391277 0.1399151
 0.1402788 0.1402856 0.1404907 0.1415527 0.1436066 0.1460999 0.1482695 0.1497025 0.1504037 0.1504911
 0.150026 0.1490536 0.147591 0.1456044 0.1431234 0.1402924 0.1372513 0.1341178 0.1310906 0.1283815
 0.126078 0.1241937 0.12274 0.1217563 0.1213509 0.1211438 0.1192595 0.1132872 0.1040101 0.09708781
 0.09829019 0.1069895 0.1165991 0.1215347 0.1216621 0.1199784 0.1185371 0.1176232 0.117113 0.1171596
 0.1179078 0.1192076 0.1206538 0.1218436 0.1226226 0.1230306 0.1230087 0.1221754 0.1197914 0.1150253
 0.107621 0.09846305 0.08927962 0.08165134 0.07630777 0.07314289 0.07155706 0.07079834 0.07031709 0.07002937
 0.07024223 0.07128461 0.07322226 0.07590181 0.07912058 0.08261533 0.08597744 0.08880857 0.09100229 0.09273006
 0.09413238 0.09515245 0.09567818 0.09571552 0.09538071 0.09480374 0.09408159 0.09326977 0.09235603 0.09126996
 0.09001233 0.08878486 0.08788446 0.08743133 0.08729099 0.08727255 0.08728907 0.08731763 0.08733068 0.08730623
 0.08725043 0.087216 0.08731177 0.08762582 0.08810729 0.08858006 0.08889186 0.08902416 0.08906123 0.08904532
 0.08885461 0.08831905 0.08752072 0.08681045 0.08636004 0.08586168 0.08491507 0.08362011 0.08254361 0.08212158
 0.08227776 0.08261342 0.08279079 0.08270723 0.08248345 0.08239758 0.08269612 0.08330491 0.0837971 0.0837949
</values></Ydata></ScRf><Data_Parameters_AB><parameter name="DPF">1</parameter><parameter name="NPT">3497</parameter><parameter name="FXV">3996</parameter><parameter name="LXV">500</parameter><parameter name="CSF">1</parameter><parameter name="MXY">0.0520249493420124</parameter><parameter name="MNY">-0.0832997858524323</parameter><parameter name="DAT">27/05/2022</parameter><parameter name="TIM">11:39:09.540 (GMT+2)</parameter><parameter name="DXU">WN</parameter></Data_Parameters_AB><AB__Qtest><MainReport name="Quality Test Report"><Header><Line><Legend>Test result ok/not ok [1/0]: </Legend><Value>0</Value></Line><Line><Legend>Method file: </Legend><Value>C:\Users\Public\Documents\Bruker\OPUS_8.2.28\QT\IRBT_v3_default.QT</Value></Line></Header><Matrix><Line><Legend></Legend><Legend>min</Legend><Legend>max</Legend><Legend>measured</Legend></Line><Line><Value>Absorption (X-Range 1):</Value><Value>0.400000</Value><Value>2.000000</Value><Value>0.101176</Value></Line><Line><Value>Noise (X-Range 4):</Value><Value></Value><Value>0.000300</Value><Value>0.000050</Value></Line><Line><Value>Signal/Noise (X-Range 2):</Value><Value>200.000000</Value><Value></Value><Value>40.702703</Value></Line><Line><Value>Signal/Noise (X-Range 3):</Value><Value>40.000000</Value><Value></Value><Value>18.473486</Value></Line><Line><Value>Water vapour (X-Range 5):</Value><Value></Value><Value>0.000300</Value><Value>0.000066</Value></Line><Line><Value>Signal/Water (X-Range 2):</Value><Value>100.000000</Value><Value></Value><Value>30.805013</Value></Line><Line><Value>Signal/Water (X-Range 3):</Value><Value>20.000000</Value><Value></Value><Value>13.981282</Value></Line><Line><Value>Fringes (X-Range 6):</Value><Value></Value><Value>0.000100</Value><Value>0.000060</Value></Line></Matrix></MainReport></AB__Qtest><Data_Parameters_ScSm><parameter name="DPF">1</parameter><parameter name="NPT">1814</parameter><parameter name="FXV">3996.33169228125</parameter><parameter name="LXV">499.541461535156</parameter><parameter name="CSF">1</parameter><parameter name="MXY">0.277320802211761</parameter><parameter name="MNY">0.0344438478350639</parameter><parameter name="DAT">27/05/2022</parameter><parameter name="TIM">11:39:09.540 (GMT+2)</parameter><parameter name="DXU">WN</parameter></Data_Parameters_ScSm><Data_Parameters_ScRf><parameter name="DPF">1</parameter><parameter name="NPT">1820</parameter><parameter name="FXV">4004.04661832813</parameter><parameter name="LXV">495.683998511719</parameter><parameter name="CSF">1</parameter><parameter name="MXY">0.26422643661499</parameter><parameter name="MNY">0.0286962352693081</parameter><parameter name="DAT">27/05/2022</parameter><parameter name="TIM">11:38:43.115 (GMT+2)</parameter><parameter name="DXU">WN</parameter></Data_Parameters_ScRf><Optic_Parameters_Rf><parameter name="APR">0</parameter><parameter name="APT">Open</parameter><parameter name="BMS">KBr</parameter><parameter name="DTC">RT-DLaTGS_IR-Biotyper [Microplate reader]</parameter><parameter name="HPF">0</parameter><parameter name="LPF">10.0</parameter><parameter name="LPV">4000</parameter><parameter name="PGR">0</parameter><parameter name="RCH">Module port</parameter><parameter name="RDX">0</parameter><parameter name="SRC">MIR</parameter><parameter name="VEL">10.0</parameter><parameter name="SON">Off</parameter></Optic_Parameters_Rf><Acquisition_Parameters_Rf><parameter name="ADT">1</parameter><parameter name="AQM">DD</parameter><parameter name="CFE">0</parameter><parameter name="COR">0</parameter><parameter name="DEL">0</parameter><parameter name="DLY">0</parameter><parameter name="HFW">8000</parameter><parameter name="LFW">0</parameter><parameter name="NSR">32</parameter><parameter name="PLF">AB</parameter><parameter name="RES">6</parameter><parameter name="RGN">-1</parameter><parameter name="STR">0</parameter><parameter name="TCL">MakeCompatibleScalar (0, {WSV=1.000000, ARV=0});</parameter><parameter name="TDL">37</parameter><parameter name="RPO">0</parameter></Acquisition_Parameters_Rf><FT_-_Parameters_Rf><parameter name="APF">B3</parameter><parameter name="HFQ">500</parameter><parameter name="LFQ">4000</parameter><parameter name="NLI">0</parameter><parameter name="PHR">24</parameter><parameter name="PHZ">ML</parameter><parameter name="SPZ">NO</parameter><parameter name="ZFF">1</parameter></FT_-_Parameters_Rf><Optic_Parameters_><parameter name="APR">0</parameter><parameter name="APT">Open</parameter><parameter name="BMS">KBr</parameter><parameter name="CHN">Module port</parameter><parameter name="DTC">RT-DLaTGS_IR-Biotyper [Microplate reader]</parameter><parameter name="HPF">0</parameter><parameter name="LPF">10.0</parameter><parameter name="LPV">4000</parameter><parameter name="PGN">0</parameter><parameter name="RDX">0</parameter><parameter name="SRC">MIR</parameter><parameter name="VEL">10.0</parameter><parameter name="SON">Off</parameter></Optic_Parameters_><FT_-_Parameters_><parameter name="APF">B3</parameter><parameter name="HFQ">500</parameter><parameter name="LFQ">4000</parameter><parameter name="NLI">0</parameter><parameter name="PHR">24</parameter><parameter name="PHZ">ML</parameter><parameter name="SPZ">NO</parameter><parameter name="ZFF">1</parameter></FT_-_Parameters_><Acquisition_Parameters_><parameter name="ADT">1</parameter><parameter name="AQM">DD</parameter><parameter name="CFE">0</parameter><parameter name="COR">0</parameter><parameter name="DEL">0</parameter><parameter name="DLY">0</parameter><parameter name="HFW">8000</parameter><parameter name="LFW">0</parameter><parameter name="NSS">32</parameter><parameter name="PLF">AB</parameter><parameter name="RES">6</parameter><parameter name="SOT">0</parameter><parameter name="TCL">MakeCompatibleScalar (0, {WSV=1.000000, ARV=0});</parameter><parameter name="TDL">37</parameter><parameter name="SPO">0</parameter><parameter name="SGN">-1</parameter></Acquisition_Parameters_><Instrument_Parameters_Rf><parameter name="HFL">15800.168544</parameter><parameter name="LFL">0</parameter><parameter name="LWN">15800.168544</parameter><parameter name="ABP">32197</parameter><parameter name="SSP">1</parameter><parameter name="ARG">2</parameter><parameter name="ASG">2</parameter><parameter name="ASS">32</parameter><parameter name="GFW">16</parameter><parameter name="GBW">16</parameter><parameter name="BFW">0</parameter><parameter name="BBW">0</parameter><parameter name="PKA">7266</parameter><parameter name="PKL">4996</parameter><parameter name="PRA">7447</parameter><parameter name="PRL">5001</parameter><parameter name="P2A">1</parameter><parameter name="P2L">1</parameter><parameter name="P2R">1</parameter><parameter name="P2K">1</parameter><parameter name="DAQ">0</parameter><parameter name="AG2">1</parameter><parameter name="SSM">1</parameter><parameter name="RSN">24872</parameter><parameter name="CRR">0</parameter><parameter name="SRT">1653651523.115</parameter><parameter name="DUR">19.6349945068359</parameter><parameter name="TSC">27.8</parameter><parameter name="MVD">0.350149154663086</parameter><parameter name="AN1">0.225794509926787</parameter><parameter name="AN2">0</parameter><parameter name="VSN">2.485 Apr  4 2017</parameter><parameter name="SRN">0085</parameter><parameter name="CAM">0</parameter><parameter name="INS">IR-Biotyper</parameter><parameter name="FOC">69</parameter><parameter name="RDY">1</parameter><parameter name="ARS">32</parameter></Instrument_Parameters_Rf><Sample_Parameters_><parameter name="BLD"></parameter><parameter name="CNM">Admin</parameter><parameter name="CPY"></parameter><parameter name="DPM"></parameter><parameter name="EXP">IRBT_v3_32Scans.XPM</parameter><parameter name="LCT"></parameter><parameter name="SFM">Microplate, HTS-XT</parameter><parameter name="SNM">220527-1039(v.2)_ATH27F (D_2)_D5_127e9e60-c52a-466c-815b-bc9cbf53300a.0</parameter><parameter name="XPP">C:\Users\Public\Documents\Bruker\OPUS_8.2.28\XPM</parameter><parameter name="IST">OK</parameter><parameter name="CPG">1252</parameter><parameter name="UID">6bd7e191-7580-498f-892d-7f2b9dae594a</parameter></Sample_Parameters_><Instrument_Parameters_><parameter name="HFL">15800.168544</parameter><parameter name="LFL">0</parameter><parameter name="LWN">15800.168544</parameter><parameter name="ABP">32197</parameter><parameter name="SSP">1</parameter><parameter name="ASG">2</parameter><parameter name="ARG">2</parameter><parameter name="ASS">32</parameter><parameter name="GFW">16</parameter><parameter name="GBW">16</parameter><parameter name="BFW">0</parameter><parameter name="BBW">0</parameter><parameter name="PKA">7907</parameter><parameter name="PKL">4988</parameter><parameter name="PRA">8195</parameter><parameter name="PRL">4993</parameter><parameter name="P2A">1</parameter><parameter name="P2L">1</parameter><parameter name="P2R">1</parameter><parameter name="P2K">1</parameter><parameter name="DAQ">0</parameter><parameter name="AG2">1</parameter><parameter name="SSM">1</parameter><parameter name="RSN">13062</parameter><parameter name="CRR">0</parameter><parameter name="SRT">1653651549.541</parameter><parameter name="DUR">19.635986328125</parameter><parameter name="TSC">27.8</parameter><parameter name="MVD">0.242758974432945</parameter><parameter name="AN1">0.225823339218823</parameter><parameter name="AN2">0</parameter><parameter name="VSN">2.485 Apr  4 2017</parameter><parameter name="SRN">0085</parameter><parameter name="CAM">0</parameter><parameter name="INS">IR-Biotyper</parameter><parameter name="FOC">69</parameter><parameter name="RDY">1</parameter></Instrument_Parameters_><History/></OPUSDataFile>
