<?xml version="1.0" encoding="UTF-8" ?>
<OPUSDataFile><AB><Ydata ylabel="Absorbance Units"><values byteorder="INTEL" format="FLOAT32" numvalues="3497"> -0.07693451 -0.07697211 -0.07699601 -0.07700588 -0.07700621 -0.07699725 -0.07698437 -0.0769674 -0.07694551 -0.07691838
 -0.07688323 -0.0768411 -0.07679352 -0.07674275 -0.07669441 -0.07665092 -0.0766183 -0.07659884 -0.076598 -0.07661485
 -0.07665318 -0.07670202 -0.07675907 -0.07680675 -0.07683702 -0.07684437 -0.07682297 -0.07678934 -0.07674417 -0.07670943
 -0.07668794 -0.07668445 -0.07669932 -0.07672051 -0.07674746 -0.07676968 -0.07678805 -0.07680245 -0.07681388 -0.07682613
 -0.07683869 -0.07685218 -0.07686585 -0.07687853 -0.0768903 -0.07690135 -0.07691026 -0.07691727 -0.0769171 -0.0769075
 -0.07688291 -0.07683937 -0.07678016 -0.07670338 -0.07662369 -0.07654244 -0.07647572 -0.07642554 -0.07639714 -0.07639089
 -0.07640038 -0.07642485 -0.07645265 -0.07648333 -0.07650796 -0.0765275 -0.07654031 -0.07654804 -0.07655414 -0.07655887
 -0.07656457 -0.07656981 -0.07657368 -0.07657561 -0.07657421 -0.07657132 -0.07656777 -0.0765643 -0.07656213 -0.07655802
 -0.07655113 -0.07654011 -0.0765234 -0.07650979 -0.07649946 -0.07650666 -0.07653221 -0.07658232 -0.076656 -0.07674165
 -0.07683611 -0.07691368 -0.07697324 -0.07699443 -0.07698379 -0.07694574 -0.07688948 -0.07683329 -0.07677979 -0.07673969
 -0.07671101 -0.07669541 -0.0766912 -0.07669781 -0.07671423 -0.07674028 -0.0767739 -0.07681518 -0.07685913 -0.07690577
 -0.07694539 -0.0769774 -0.0769892 -0.07697997 -0.07694531 -0.07688649 -0.07682003 -0.07674944 -0.07670551 -0.07668904
 -0.07672232 -0.07679757 -0.07691076 -0.0770456 -0.07717304 -0.07728215 -0.07734508 -0.07736931 -0.07735033 -0.07730152
 -0.07722897 -0.07714224 -0.07704364 -0.07695019 -0.07686424 -0.07681035 -0.07679325 -0.0768271 -0.07691599 -0.07704087
 -0.07720135 -0.07731814 -0.07738788 -0.07733871 -0.07718381 -0.07697274 -0.0767194 -0.07650473 -0.0763263 -0.07621872
 -0.0761737 -0.07619592 -0.07626884 -0.07637899 -0.07650139 -0.0766111 -0.07669352 -0.07672859 -0.07673053 -0.0766978
 -0.07665515 -0.07661065 -0.07656962 -0.07653556 -0.07649799 -0.07645585 -0.07640523 -0.07634567 -0.07629 -0.07623941
 -0.07621503 -0.07621694 -0.07625888 -0.07633509 -0.07643456 -0.07654457 -0.07662718 -0.07667591 -0.07665648 -0.07658476
 -0.07646137 -0.07631628 -0.07617415 -0.07605588 -0.07598263 -0.07595412 -0.07597877 -0.0760356 -0.07612337 -0.07621113
 -0.07629281 -0.07635264 -0.07638708 -0.07640491 -0.07640651 -0.07639948 -0.07638315 -0.07634588 -0.07628744 -0.07619817
 -0.07608334 -0.07595711 -0.07582665 -0.07571916 -0.07563363 -0.075584 -0.07555756 -0.07554527 -0.07553426 -0.07550707
 -0.07546869 -0.07541293 -0.07536232 -0.07532477 -0.07531441 -0.07534045 -0.0753883 -0.07545879 -0.07552417 -0.07558071
 -0.07562043 -0.07564234 -0.07566214 -0.07568056 -0.07571272 -0.07575602 -0.07580099 -0.07584314 -0.0758568 -0.07584633
 -0.07580673 -0.07575151 -0.07570333 -0.07566857 -0.07566804 -0.0756911 -0.07573669 -0.07579155 -0.07584356 -0.07589999
 -0.07595868 -0.07603749 -0.07614523 -0.07627039 -0.07641771 -0.07653563 -0.07661904 -0.07663046 -0.07656658 -0.07643989
 -0.07625266 -0.07604595 -0.07582267 -0.07562333 -0.07544726 -0.07531396 -0.07521982 -0.07516612 -0.07514828 -0.07516065
 -0.07519516 -0.07524052 -0.0752887 -0.0753276 -0.07535797 -0.07537623 -0.07538725 -0.07539337 -0.07539317 -0.07538819
 -0.07536872 -0.07533342 -0.07527374 -0.07518745 -0.07508259 -0.07495917 -0.07484311 -0.07473595 -0.07466639 -0.07463422
 -0.07465475 -0.07472142 -0.07482067 -0.07493678 -0.07501969 -0.07506379 -0.07502784 -0.07493514 -0.07479706 -0.07463789
 -0.07448541 -0.07434457 -0.07422764 -0.07412773 -0.07404505 -0.07397199 -0.07390573 -0.0738453 -0.07378963 -0.07374263
 -0.07370503 -0.07367598 -0.07365578 -0.07362945 -0.07359605 -0.07353599 -0.07345174 -0.07334998 -0.0732371 -0.07314444
 -0.07307231 -0.07303879 -0.07303773 -0.07306769 -0.07311923 -0.07318299 -0.0732429 -0.07328311 -0.07328905 -0.07324231
 -0.07315531 -0.07302471 -0.07288105 -0.07273593 -0.07258993 -0.07244772 -0.07228514 -0.07209875 -0.07188462 -0.07164168
 -0.07139298 -0.07113984 -0.0709071 -0.07069486 -0.07051654 -0.0703696 -0.07025211 -0.07015893 -0.07007485 -0.06999765
 -0.06991421 -0.06982994 -0.06974724 -0.06966875 -0.0696029 -0.06953344 -0.06945543 -0.06934718 -0.06919352 -0.06900312
 -0.06877301 -0.06852594 -0.06826669 -0.06800336 -0.06773769 -0.06747021 -0.06720088 -0.06693627 -0.0666772 -0.06643989
 -0.06622507 -0.06604787 -0.06590437 -0.06578994 -0.06569249 -0.06557658 -0.0654342 -0.06522611 -0.06497163 -0.06467698
 -0.06436857 -0.0640762 -0.06380358 -0.06356487 -0.06334525 -0.0631441 -0.06293905 -0.06272255 -0.06248536 -0.06222163
 -0.06194832 -0.06166612 -0.06139635 -0.06114097 -0.06089805 -0.06066667 -0.0604241 -0.06017028 -0.05989279 -0.05959608
 -0.05929231 -0.05898612 -0.05869725 -0.05842583 -0.05818284 -0.05796244 -0.05776322 -0.05757483 -0.05738746 -0.05719422
 -0.05698739 -0.05676634 -0.05653105 -0.05627371 -0.05599399 -0.05567583 -0.0553132 -0.05491446 -0.05447595 -0.05404982
 -0.05363937 -0.05328767 -0.05299493 -0.05275098 -0.05255179 -0.05236083 -0.05217662 -0.05197253 -0.05175206 -0.05150995
 -0.05125321 -0.05099233 -0.05073335 -0.05049024 -0.05026097 -0.05005237 -0.04984866 -0.04964459 -0.04941858 -0.04915695
 -0.04885973 -0.04851947 -0.04816415 -0.04779712 -0.04744502 -0.04711267 -0.04680411 -0.04652047 -0.04624667 -0.04598194
 -0.04571104 -0.04543435 -0.04514858 -0.04485396 -0.04455021 -0.0442359 -0.04390531 -0.04356074 -0.04320132 -0.04283653
 -0.04247871 -0.04213477 -0.04181807 -0.04152315 -0.04125134 -0.04099355 -0.04074469 -0.04050474 -0.04027181 -0.04005185
 -0.03984671 -0.0396545 -0.03947656 -0.03929676 -0.03911434 -0.03890823 -0.03867783 -0.03841553 -0.03812363 -0.03781761
 -0.03750073 -0.03719744 -0.0369057 -0.03663421 -0.03637504 -0.03611604 -0.03585315 -0.03557213 -0.03528286 -0.03498685
 -0.0347016 -0.03444122 -0.03420845 -0.03401325 -0.03383208 -0.03366173 -0.03347449 -0.03326188 -0.03302283 -0.03275426
 -0.03247895 -0.03219839 -0.03192884 -0.03167054 -0.03141986 -0.03117603 -0.0309304 -0.03068442 -0.03044003 -0.0301995
 -0.02997138 -0.02975474 -0.02955279 -0.02936124 -0.02917518 -0.02899241 -0.02880862 -0.02862453 -0.02844058 -0.0282533
 -0.02806219 -0.02786065 -0.0276442 -0.02742048 -0.02718791 -0.02696958 -0.02676925 -0.02659357 -0.02644464 -0.02629045
 -0.02612912 -0.02591873 -0.02566144 -0.02535508 -0.02500939 -0.02466847 -0.02433915 -0.02406839 -0.02384776 -0.0236865
 -0.02356467 -0.02345743 -0.0233533 -0.02322821 -0.02309107 -0.02293969 -0.02278711 -0.02264187 -0.02249956 -0.02236195
 -0.02221676 -0.02206009 -0.02189443 -0.02171853 -0.02154634 -0.0213789 -0.02122442 -0.02108307 -0.02095295 -0.02083267
 -0.02071082 -0.02058362 -0.02042689 -0.0202386 -0.01999604 -0.01970913 -0.01938302 -0.0190376 -0.01870382 -0.01839253
 -0.01812892 -0.0179052 -0.01772458 -0.01757493 -0.01745027 -0.01734725 -0.01726416 -0.01719748 -0.01714812 -0.01710161
 -0.0170567 -0.0169977 -0.016923 -0.01682937 -0.01671678 -0.01658961 -0.01644768 -0.01629039 -0.01611774 -0.01592749
 -0.01572349 -0.01551484 -0.0153081 -0.01512252 -0.01495816 -0.01482744 -0.01471588 -0.01461653 -0.01450871 -0.01437341
 -0.01420852 -0.01400155 -0.01378283 -0.01355665 -0.01335978 -0.01320421 -0.01309051 -0.01302383 -0.01296499 -0.01291121
 -0.01283419 -0.01273353 -0.01262981 -0.01252633 -0.01246511 -0.0124429 -0.01246936 -0.0125319 -0.01259745 -0.01265592
 -0.01266702 -0.01263637 -0.0125502 -0.01243048 -0.0122926 -0.01215811 -0.01205088 -0.01196693 -0.01191691 -0.0118666
 -0.01180865 -0.01171069 -0.01155964 -0.01136726 -0.01112907 -0.01089961 -0.01068254 -0.01052624 -0.01043226 -0.01039937
 -0.01042358 -0.01046522 -0.01052268 -0.010566 -0.01059986 -0.01062524 -0.01064218 -0.01065502 -0.01065238 -0.01061775
 -0.01054767 -0.01042482 -0.01027428 -0.01010387 -0.009948285 -0.009830822 -0.009752805 -0.009725866 -0.009714078 -0.009712361
 -0.009689002 -0.00963631 -0.009559874 -0.00945834 -0.009363049 -0.009275543 -0.009223357 -0.009205743 -0.009227454 -0.009283596
 -0.009353979 -0.00943131 -0.009481973 -0.009502658 -0.009467067 -0.009383554 -0.009248913 -0.009083823 -0.008905776 -0.008737155
 -0.00860076 -0.008502713 -0.008456039 -0.008443004 -0.008463799 -0.008488023 -0.008509792 -0.008504666 -0.008468176 -0.008388689
 -0.008264626 -0.00809356 -0.007875532 -0.007619061 -0.007326774 -0.007026421 -0.006723762 -0.006462885 -0.006247212 -0.006114491
 -0.006055994 -0.006077202 -0.006153696 -0.006254687 -0.006353489 -0.006407903 -0.006413742 -0.006347543 -0.006239182 -0.006092036
 -0.005951008 -0.005832088 -0.005762246 -0.00575388 -0.005798 -0.005897879 -0.006017323 -0.006154079 -0.006271543 -0.00636805
 -0.00643102 -0.006462059 -0.006473422 -0.006467163 -0.006461133 -0.006453876 -0.006450521 -0.006447601 -0.00643821 -0.006424824
 -0.006404303 -0.006390768 -0.006395392 -0.006436148 -0.006531619 -0.006684379 -0.006905409 -0.007173048 -0.007485966 -0.007810331
 -0.008139564 -0.008444347 -0.008719658 -0.008946979 -0.00912355 -0.009250503 -0.0093282 -0.009387441 -0.009430836 -0.009499763
 -0.009591158 -0.009713174 -0.00985516 -0.009984169 -0.01009825 -0.01017064 -0.01022052 -0.01026343 -0.01032134 -0.01042907
 -0.01058116 -0.01079289 -0.01102599 -0.01126963 -0.01147864 -0.01163291 -0.01171652 -0.01171557 -0.01166549 -0.01156455
 -0.01148558 -0.01143476 -0.01146508 -0.01157889 -0.01176192 -0.01200906 -0.01225796 -0.01250584 -0.01270375 -0.01285739
 -0.01295944 -0.01301729 -0.0130435 -0.0130432 -0.01302784 -0.01300502 -0.0129856 -0.0129787 -0.01299548 -0.01303681
 -0.01310823 -0.01319948 -0.01330911 -0.01342509 -0.01354402 -0.01366059 -0.01377305 -0.01388317 -0.01399069 -0.01410194
 -0.01421728 -0.01434646 -0.01448995 -0.01465694 -0.0148466 -0.01506045 -0.01529491 -0.01553962 -0.01578982 -0.01602944
 -0.0162567 -0.01646052 -0.01664483 -0.01680858 -0.01695938 -0.01710187 -0.01724374 -0.01739023 -0.01754512 -0.01771199
 -0.0178869 -0.01807049 -0.01825369 -0.01843511 -0.0186093 -0.01877525 -0.01893661 -0.01909357 -0.01925188 -0.01941144
 -0.01957246 -0.01973449 -0.01989442 -0.02005319 -0.02021195 -0.02037269 -0.020541 -0.02071694 -0.02090454 -0.02109884
 -0.02129772 -0.02149156 -0.021674 -0.02183346 -0.0219625 -0.0220536 -0.02209995 -0.02210978 -0.02207951 -0.02204156
 -0.0219978 -0.02199301 -0.02203187 -0.02213956 -0.02231747 -0.02254839 -0.02282876 -0.02311077 -0.02339097 -0.0236237
 -0.02381175 -0.02393723 -0.0240123 -0.02405288 -0.02407666 -0.02411974 -0.02419002 -0.02431615 -0.02447999 -0.0246823
 -0.02488801 -0.02507708 -0.02523388 -0.0253424 -0.02542515 -0.02548305 -0.02554519 -0.02561912 -0.02569972 -0.02578897
 -0.02585185 -0.02588654 -0.02587124 -0.02580824 -0.02571925 -0.02561095 -0.02553379 -0.02549012 -0.02551845 -0.02560897
 -0.02576142 -0.02595745 -0.02616707 -0.02637896 -0.02656606 -0.02673308 -0.02687454 -0.02699868 -0.02711102 -0.02720743
 -0.02728804 -0.02734666 -0.02737865 -0.02739828 -0.02740531 -0.02742658 -0.0274656 -0.02752648 -0.02760963 -0.02768646
 -0.02775548 -0.027788 -0.0277871 -0.02775505 -0.02769866 -0.02764379 -0.0275933 -0.02756855 -0.02756448 -0.02758338
 -0.0276168 -0.0276542 -0.02769551 -0.0277333 -0.02778284 -0.02784887 -0.02794869 -0.02809383 -0.02827575 -0.02850007
 -0.02872532 -0.02894697 -0.02912426 -0.02925093 -0.02932755 -0.0293538 -0.02937272 -0.02938679 -0.029441 -0.02953282
 -0.02967222 -0.02985051 -0.0300423 -0.03024036 -0.03041322 -0.03056241 -0.03067465 -0.03075883 -0.03081922 -0.03086571
 -0.03090739 -0.03095064 -0.03100231 -0.03106147 -0.03113143 -0.03120047 -0.03126707 -0.0313175 -0.03134745 -0.03136259
 -0.03136145 -0.03137335 -0.03139989 -0.03146316 -0.03156177 -0.03168131 -0.03181769 -0.03193634 -0.03203938 -0.03211373
 -0.03216925 -0.03222455 -0.03228367 -0.03236616 -0.03245968 -0.03256012 -0.03264858 -0.0327073 -0.03272874 -0.03270188
 -0.03263298 -0.03252213 -0.03237484 -0.03219385 -0.03197483 -0.0317173 -0.03141792 -0.03107481 -0.03070519 -0.03030974
 -0.02993319 -0.02957872 -0.02930134 -0.02910157 -0.02901329 -0.02902905 -0.02914273 -0.02933996 -0.02958426 -0.02986231
 -0.03013485 -0.03039705 -0.03062706 -0.0308281 -0.03099578 -0.03113437 -0.03124612 -0.03133041 -0.03138827 -0.03141528
 -0.03141029 -0.03137126 -0.03129736 -0.03119035 -0.03105075 -0.03087483 -0.03066251 -0.03039679 -0.03007659 -0.02968166
 -0.02921388 -0.0286731 -0.02806594 -0.0274173 -0.02673154 -0.02603447 -0.02532043 -0.02459365 -0.02384168 -0.02305183
 -0.02221376 -0.02131511 -0.02034962 -0.01931118 -0.01819472 -0.01699557 -0.01571722 -0.01435579 -0.01293611 -0.01145821
 -0.009966703 -0.008464752 -0.007000918 -0.005578145 -0.004240122 -0.002989507 -0.001871135 -0.0008886676 -9.009874E-05 0.0005255585
 0.0009283021 0.001138801 0.001180388 0.001103471 0.000994283 0.0009182001 0.0009857474 0.001239793 0.001758701 0.002536358
 0.003597884 0.004899318 0.006433297 0.008148603 0.0100326 0.01204199 0.0141688 0.01637842 0.01866658 0.02101002
 0.02340705 0.02584692 0.02832944 0.03085175 0.03341297 0.03600913 0.03863315 0.04126303 0.04387676 0.04641827
 0.04884534 0.05107429 0.05303585 0.0546373 0.05576153 0.05630469 0.05611337 0.05506568 0.05309577 0.05010254
 0.04627487 0.04158913 0.03649298 0.03103553 0.02570781 0.02056933 0.01591468 0.01176788 0.008163153 0.005093669
 0.002440934 0.0001925782 -0.001788436 -0.003509401 -0.005068623 -0.006472366 -0.007784551 -0.009011122 -0.01019212 -0.01132721
 -0.01243353 -0.01350234 -0.01453238 -0.01551435 -0.01644159 -0.01731179 -0.01812276 -0.01887352 -0.01956545 -0.02018728
 -0.02073888 -0.02120023 -0.02156947 -0.02182885 -0.02197706 -0.02200544 -0.02191458 -0.02171233 -0.02140381 -0.02102506
 -0.02058615 -0.0201467 -0.0197118 -0.01933053 -0.01898843 -0.01869091 -0.01839951 -0.01807657 -0.01767021 -0.01712739
 -0.01640367 -0.01545701 -0.01427089 -0.01282578 -0.01113309 -0.009190745 -0.007017161 -0.004610079 -0.002012703 0.000784311
 0.003597862 0.006422924 0.008822547 0.01076641 0.01168467 0.01157745 0.01012891 0.007442743 0.003729144 -0.000835178
 -0.005689326 -0.01070423 -0.01537654 -0.0196992 -0.02344782 -0.0267057 -0.0294642 -0.03182055 -0.03382877 -0.03555844
 -0.03704717 -0.03834381 -0.03946571 -0.04045409 -0.04131762 -0.042089 -0.04277249 -0.04339143 -0.04394753 -0.04445881
 -0.04492607 -0.04536296 -0.04576983 -0.04615553 -0.04652033 -0.04687054 -0.04720524 -0.04752616 -0.04782999 -0.04811155
 -0.04836819 -0.04859249 -0.04878917 -0.04895698 -0.0491097 -0.04925486 -0.04940329 -0.04956413 -0.04973041 -0.04990499
 -0.05006458 -0.05020499 -0.05031197 -0.0503813 -0.05042922 -0.05045606 -0.05049653 -0.05055163 -0.05063898 -0.05075559
 -0.05088736 -0.05103114 -0.05116418 -0.05129034 -0.05140707 -0.05152231 -0.05165159 -0.05179467 -0.05196137 -0.05213798
 -0.05231727 -0.05248359 -0.05262387 -0.05273458 -0.05280907 -0.05285658 -0.05287703 -0.0528852 -0.05288265 -0.05288736
 -0.0529013 -0.05294001 -0.05300497 -0.05309611 -0.05321267 -0.0533368 -0.05346716 -0.05358503 -0.05369143 -0.05378048
 -0.05385449 -0.05391673 -0.0539689 -0.05401512 -0.05405776 -0.05410172 -0.05414788 -0.05420069 -0.05425365 -0.05430569
 -0.05434549 -0.05436632 -0.05436815 -0.05434604 -0.05432072 -0.05429399 -0.05429101 -0.05431624 -0.05437222 -0.0544601
 -0.05455538 -0.0546567 -0.05473758 -0.05479909 -0.0548366 -0.05485382 -0.05486439 -0.05486991 -0.05488253 -0.05490006
 -0.05492418 -0.0549519 -0.05497977 -0.05500624 -0.05502801 -0.05504676 -0.05506103 -0.0550781 -0.05509938 -0.05513578
 -0.05519158 -0.05526945 -0.05537273 -0.05548729 -0.05561291 -0.05572687 -0.05582741 -0.05590254 -0.05595238 -0.05598413
 -0.05599941 -0.05601463 -0.05602999 -0.05605555 -0.05608922 -0.0561306 -0.05617707 -0.05622321 -0.05626804 -0.0563074
 -0.05634325 -0.05637508 -0.05640756 -0.05644348 -0.05648606 -0.05653866 -0.05659738 -0.05666281 -0.05672594 -0.05678485
 -0.05683523 -0.05687564 -0.0569113 -0.05694234 -0.05697704 -0.05701563 -0.05706171 -0.05711464 -0.05717122 -0.05723009
 -0.05728353 -0.05733089 -0.0573655 -0.05738935 -0.05740216 -0.05740848 -0.05741433 -0.05742277 -0.05743959 -0.05746345
 -0.05749587 -0.05753252 -0.05757196 -0.05761079 -0.05764737 -0.05768174 -0.0577133 -0.05774492 -0.05777684 -0.05781159
 -0.05784946 -0.0578893 -0.05793099 -0.05797095 -0.05800913 -0.05804338 -0.05807416 -0.05810216 -0.0581281 -0.05815434
 -0.05818132 -0.0582112 -0.05824374 -0.05827957 -0.05831824 -0.05835935 -0.05840325 -0.05845017 -0.05849993 -0.05855354
 -0.05860647 -0.05865819 -0.05870214 -0.05873625 -0.0587607 -0.05877429 -0.05878772 -0.0588016 -0.05882737 -0.05886531
 -0.05891595 -0.05897805 -0.05904138 -0.05910486 -0.05915757 -0.0592009 -0.05923272 -0.0592563 -0.05927736 -0.05929749
 -0.05932203 -0.05934909 -0.05937886 -0.05940912 -0.05943782 -0.05946584 -0.05949289 -0.05952061 -0.05954976 -0.05957976
 -0.05961057 -0.05964194 -0.05967362 -0.05970797 -0.05974513 -0.05978727 -0.05983435 -0.05988461 -0.05993764 -0.05998933
 -0.06003947 -0.06008498 -0.06012589 -0.06016083 -0.06018966 -0.0602114 -0.06022611 -0.06023291 -0.06023357 -0.06022844
 -0.06022229 -0.06021781 -0.06022024 -0.06023302 -0.06025748 -0.06029553 -0.06034331 -0.06040087 -0.06046194 -0.06052612
 -0.06058545 -0.0606394 -0.06067932 -0.06070492 -0.06071262 -0.06070347 -0.06068468 -0.06065818 -0.06063715 -0.06062175
 -0.06062009 -0.06062955 -0.06064881 -0.06067537 -0.0607046 -0.06073683 -0.06077054 -0.06080709 -0.06084782 -0.06089068
 -0.06093629 -0.06097789 -0.06101383 -0.06103788 -0.06104782 -0.06104428 -0.06102626 -0.0610025 -0.06097338 -0.06095071
 -0.06093502 -0.06093456 -0.06094887 -0.0609776 -0.06101896 -0.06106455 -0.0611125 -0.06115253 -0.06118474 -0.06120395
 -0.06121247 -0.0612114 -0.06120282 -0.06118955 -0.06117174 -0.06115017 -0.06112506 -0.06109595 -0.0610659 -0.06103534
 -0.06100867 -0.06098706 -0.06097236 -0.06096523 -0.06096404 -0.06096874 -0.06097706 -0.06098887 -0.06100225 -0.06101694
 -0.06102957 -0.06104003 -0.06104532 -0.06104666 -0.06104585 -0.0610448 -0.06104889 -0.06105774 -0.06107394 -0.06109403
 -0.06111557 -0.0611357 -0.0611508 -0.06116267 -0.06117037 -0.06117931 -0.0611911 -0.06120926 -0.0612355 -0.06126733
 -0.06130518 -0.06134152 -0.06137582 -0.06140143 -0.06141811 -0.0614258 -0.06142507 -0.06142132 -0.06141524 -0.06141321
 -0.06141531 -0.06142544 -0.06144265 -0.06146754 -0.06149748 -0.0615295 -0.06156006 -0.06158418 -0.06160085 -0.06160672
 -0.0616059 -0.06159882 -0.06159142 -0.0615861 -0.06158468 -0.06158836 -0.06159491 -0.06160402 -0.06161536 -0.06162876
 -0.06164666 -0.06166908 -0.06169467 -0.06172287 -0.06174706 -0.06176725 -0.06177934 -0.06178504 -0.06178761 -0.06178837
 -0.0617923 -0.06179832 -0.06180723 -0.06181692 -0.06182529 -0.0618316 -0.06183437 -0.06183441 -0.06183127 -0.06182758
 -0.06182356 -0.06182386 -0.06182947 -0.06184391 -0.06186836 -0.06189985 -0.06193858 -0.06197523 -0.06200936 -0.06203306
 -0.06204673 -0.06205105 -0.06204754 -0.06204458 -0.06204272 -0.06204901 -0.06206115 -0.06207833 -0.06209676 -0.0621097
 -0.06211696 -0.06211418 -0.06210739 -0.06209866 -0.06209574 -0.06210378 -0.06212408 -0.06215987 -0.06220259 -0.0622518
 -0.06229521 -0.06233063 -0.0623531 -0.06236157 -0.06236182 -0.06235417 -0.06234787 -0.06234284 -0.06234163 -0.06234326
 -0.06234366 -0.06234263 -0.06233658 -0.06232769 -0.06231841 -0.06231223 -0.06231578 -0.06233051 -0.06236183 -0.06240541
 -0.0624616 -0.06252055 -0.06257795 -0.06262551 -0.06265877 -0.062677 -0.06267841 -0.06266887 -0.06264856 -0.06262566
 -0.06260077 -0.06258166 -0.06256873 -0.06256833 -0.06258032 -0.06260595 -0.06264428 -0.062691 -0.06274537 -0.0628019
 -0.06286225 -0.06292636 -0.06299846 -0.06308454 -0.06318887 -0.06331883 -0.06347474 -0.06366014 -0.06387068 -0.06410539
 -0.06435949 -0.06463046 -0.06491849 -0.06522195 -0.0655489 -0.06589979 -0.06628554 -0.06670769 -0.06716632 -0.06766117
 -0.0681605 -0.06865933 -0.06909212 -0.06945371 -0.06967895 -0.06977291 -0.06971471 -0.06951945 -0.06920653 -0.06879744
 -0.06832816 -0.06782799 -0.06733947 -0.06688653 -0.06650075 -0.06619006 -0.06596755 -0.06582938 -0.06577986 -0.06580091
 -0.0658941 -0.06601635 -0.06616356 -0.06628728 -0.06638119 -0.06644177 -0.06646879 -0.06648824 -0.06649972 -0.06650664
 -0.06650573 -0.06647933 -0.06642764 -0.06633926 -0.06622261 -0.06608898 -0.06595076 -0.06583427 -0.06574096 -0.0656868
 -0.06565542 -0.06564192 -0.06562521 -0.06559205 -0.06553415 -0.06544363 -0.06532792 -0.06518593 -0.06503303 -0.06487061
 -0.06471542 -0.06456907 -0.06444322 -0.06433848 -0.06425522 -0.06419275 -0.06414327 -0.06410578 -0.06407088 -0.06403794
 -0.06399958 -0.06395629 -0.06390448 -0.06384788 -0.06379008 -0.06373607 -0.06369332 -0.06366272 -0.06364868 -0.0636458
 -0.06365329 -0.06366352 -0.06367391 -0.06367823 -0.06367424 -0.06366021 -0.06363492 -0.06360322 -0.06356522 -0.06352864
 -0.06349391 -0.06346533 -0.06344297 -0.06342817 -0.06342141 -0.06342633 -0.06344316 -0.06347588 -0.06352163 -0.0635769
 -0.06363618 -0.06368879 -0.06373207 -0.06375748 -0.06376914 -0.06376626 -0.06375688 -0.06374521 -0.06373587 -0.06373238
 -0.0637324 -0.06373651 -0.06373917 -0.06373948 -0.06373453 -0.06372379 -0.06370839 -0.06368839 -0.06366741 -0.06364571
 -0.06362778 -0.0636135 -0.06360497 -0.06360103 -0.06359883 -0.06359721 -0.0635914 -0.06358273 -0.06357069 -0.06355823
 -0.06354903 -0.06354333 -0.06354323 -0.06354573 -0.06354959 -0.0635533 -0.06355537 -0.06355828 -0.06356231 -0.06356987
 -0.06358177 -0.06359616 -0.06361311 -0.06362813 -0.06364098 -0.06364965 -0.06365436 -0.06365758 -0.06365942 -0.06366212
 -0.06366474 -0.06366506 -0.06366256 -0.06365409 -0.06364167 -0.06362677 -0.06361231 -0.06360279 -0.06359804 -0.06360019
 -0.0636057 -0.06361327 -0.06362006 -0.06362437 -0.06362624 -0.06362508 -0.06362319 -0.06362077 -0.06362016 -0.0636217
 -0.06362572 -0.06363226 -0.0636385 -0.06364422 -0.0636457 -0.06364332 -0.06363722 -0.06362858 -0.06362203 -0.06361787
 -0.06361993 -0.06362604 -0.06363476 -0.06364316 -0.0636466 -0.06364549 -0.06363755 -0.06362739 -0.06361677 -0.06360956
 -0.06360818 -0.06361189 -0.06362126 -0.06363335 -0.06364774 -0.06366233 -0.06367689 -0.0636896 -0.06370035 -0.06370731
 -0.0637105 -0.06370962 -0.06370501 -0.06369831 -0.06369019 -0.06368373 -0.06367964 -0.06368162 -0.06368898 -0.06370328
 -0.06372076 -0.06373805 -0.06375108 -0.06375452 -0.06374937 -0.0637335 -0.06371314 -0.06368997 -0.06366917 -0.06365257
 -0.06364185 -0.0636375 -0.06364055 -0.0636512 -0.06366959 -0.06369578 -0.06372586 -0.06375937 -0.06378889 -0.06381417
 -0.06382956 -0.06383593 -0.06383312 -0.0638229 -0.0638095 -0.06379405 -0.0637807 -0.06376877 -0.06375914 -0.06375093
 -0.06374324 -0.06373695 -0.06373212 -0.06373015 -0.06373201 -0.06373659 -0.06374407 -0.06375192 -0.06375958 -0.06376676
 -0.06377327 -0.06378088 -0.0637897 -0.06379892 -0.06380821 -0.06381235 -0.06381097 -0.06379853 -0.06377615 -0.06374422
 -0.06370579 -0.06366833 -0.06363459 -0.06361344 -0.06360392 -0.06360959 -0.06362514 -0.06364807 -0.06367234 -0.06369387
 -0.06370912 -0.06371558 -0.06371278 -0.06369966 -0.06367906 -0.06365064 -0.06362171 -0.06359268 -0.06357358 -0.06356508
 -0.06357217 -0.06359444 -0.06362593 -0.06366514 -0.06369915 -0.06372741 -0.06374014 -0.06373952 -0.06372517 -0.06370133
 -0.06367488 -0.06364928 -0.06363225 -0.06362288 -0.06362442 -0.06363037 -0.06363852 -0.06364173 -0.06363581 -0.06362067
 -0.06359428 -0.06356452 -0.06353219 -0.06350498 -0.06348404 -0.06347107 -0.0634663 -0.0634669 -0.06347263 -0.0634793
 -0.06348674 -0.06349174 -0.06349465 -0.06349497 -0.06349339 -0.06349165 -0.06348961 -0.06348808 -0.06348596 -0.06348199
 -0.06347598 -0.06346666 -0.06345645 -0.06344593 -0.06343856 -0.06343611 -0.06343959 -0.0634504 -0.0634643 -0.06348127
 -0.06349412 -0.06350191 -0.06350159 -0.0634928 -0.0634805 -0.06346504 -0.06345265 -0.06344286 -0.06343544 -0.06342931
 -0.06341963 -0.06340697 -0.0633897 -0.0633703 -0.06335255 -0.06333793 -0.06333082 -0.06332867 -0.06333156 -0.06333461
 -0.06333444 -0.06332988 -0.0633183 -0.06330563 -0.06329261 -0.06328585 -0.06328738 -0.06329579 -0.06331167 -0.06332674
 -0.06334049 -0.06334744 -0.06334772 -0.06334352 -0.06333537 -0.06332824 -0.06332192 -0.06331838 -0.06331668 -0.06331546
 -0.06331377 -0.06330917 -0.06330155 -0.06328937 -0.06327408 -0.06325594 -0.06323756 -0.06322037 -0.06320667 -0.06319828
 -0.06319407 -0.06319479 -0.06319544 -0.06319524 -0.06319044 -0.0631801 -0.06316707 -0.06315143 -0.06313881 -0.06312925
 -0.06312361 -0.0631214 -0.06311954 -0.06311817 -0.06311625 -0.06311423 -0.06311336 -0.06311256 -0.06311067 -0.06310609
 -0.06309549 -0.06308054 -0.06306057 -0.06304059 -0.0630236 -0.06301225 -0.06300938 -0.0630113 -0.06301791 -0.06302392
 -0.06302784 -0.06302983 -0.06302956 -0.06303003 -0.06303159 -0.06303004 -0.06302491 -0.0630061 -0.062974 -0.06292559
 -0.06286374 -0.06279828 -0.06273233 -0.06267964 -0.06264069 -0.06262353 -0.06262513 -0.06264648 -0.06267978 -0.06272022
 -0.06275657 -0.06278013 -0.06278619 -0.06276836 -0.06273571 -0.06268843 -0.06264009 -0.0625937 -0.0625543 -0.0625231
 -0.06249881 -0.06248142 -0.06246916 -0.0624619 -0.06245703 -0.06245423 -0.06244968 -0.06244338 -0.06243303 -0.06241937
 -0.06240297 -0.06238475 -0.06236673 -0.06234919 -0.06233386 -0.06231896 -0.06230399 -0.06228602 -0.06226246 -0.06223396
 -0.06219911 -0.06216364 -0.06212891 -0.06209911 -0.06207594 -0.06205694 -0.06204229 -0.06202677 -0.06200999 -0.06198975
 -0.06196612 -0.06194076 -0.06191412 -0.0618903 -0.06186958 -0.06185573 -0.06184795 -0.06184645 -0.06184925 -0.06185278
 -0.06185542 -0.06185352 -0.06184671 -0.06183349 -0.06181378 -0.06178702 -0.06175362 -0.0617134 -0.06166751 -0.06161581
 -0.06156124 -0.06150373 -0.06144935 -0.06139852 -0.06135864 -0.06133037 -0.06131473 -0.06131143 -0.0613129 -0.06131873
 -0.06132215 -0.06132403 -0.06132506 -0.06132535 -0.06132662 -0.061326 -0.0613188 -0.06130305 -0.06127279 -0.0612317
 -0.06118035 -0.06112431 -0.06106765 -0.06101226 -0.06096008 -0.06091078 -0.06086428 -0.06082183 -0.06078347 -0.06075145
 -0.06072623 -0.06070754 -0.06069551 -0.06068626 -0.06067964 -0.06067308 -0.06066669 -0.06066081 -0.06065457 -0.06064521
 -0.06063022 -0.06060038 -0.06055589 -0.06049126 -0.06041186 -0.06032223 -0.06022776 -0.06013514 -0.06004699 -0.05996674
 -0.05989557 -0.05983524 -0.05978416 -0.05974312 -0.05970576 -0.05967109 -0.05963367 -0.05959215 -0.05954941 -0.05950544
 -0.05946618 -0.05943162 -0.05939993 -0.05937016 -0.05933335 -0.0592895 -0.05923277 -0.05916602 -0.05909364 -0.05901993
 -0.05895635 -0.05890269 -0.05886588 -0.05883712 -0.05881175 -0.05877924 -0.05872963 -0.05866363 -0.05857716 -0.0584812
 -0.05837789 -0.05827698 -0.05818106 -0.05809379 -0.05801619 -0.05794735 -0.05788742 -0.0578318 -0.05778012 -0.05772513
 -0.05766626 -0.05759553 -0.05751262 -0.0574109 -0.05729231 -0.05715791 -0.05701207 -0.05686411 -0.05671629 -0.05657678
 -0.05644253 -0.05631448 -0.05618664 -0.05605466 -0.05591718 -0.05577079 -0.05562278 -0.05547422 -0.05533304 -0.05520243
 -0.05507814 -0.05496176 -0.05483117 -0.05468501 -0.05450222 -0.05428264 -0.05403523 -0.05376216 -0.05348726 -0.05320914
 -0.05293491 -0.05265989 -0.05237451 -0.05207455 -0.05174707 -0.05139028 -0.05099553 -0.05056517 -0.05009766 -0.04959792
 -0.04906997 -0.0485127 -0.04792846 -0.04730771 -0.04664593 -0.0459464 -0.045205 -0.04445275 -0.04369314 -0.04294849
 -0.04222153 -0.04150419 -0.04079637 -0.04009537 -0.03940448 -0.03875173 -0.03814066 -0.03760412 -0.03713984 -0.03675925
 -0.03645592 -0.03622481 -0.03605446 -0.03592936 -0.0358343 -0.03574947 -0.03566478 -0.03556777 -0.03545435 -0.0353193
 -0.03516341 -0.03498493 -0.03479038 -0.03458139 -0.03435953 -0.03412693 -0.03386622 -0.03357619 -0.03324274 -0.0328664
 -0.03248011 -0.03208665 -0.03172758 -0.03139826 -0.03109816 -0.03082164 -0.03055058 -0.03028481 -0.03001598 -0.02974405
 -0.02946924 -0.02918056 -0.02887343 -0.02852002 -0.02810259 -0.02759451 -0.02696953 -0.02625316 -0.02543684 -0.02459992
 -0.02375788 -0.02296272 -0.02222625 -0.02154826 -0.02093044 -0.02035148 -0.01980992 -0.01927323 -0.01873736 -0.01814919
 -0.01750927 -0.0167825 -0.01599173 -0.01518987 -0.01439219 -0.01366471 -0.01298706 -0.01235939 -0.01175703 -0.01115377
 -0.01053932 -0.009898159 -0.009229666 -0.008528803 -0.007801372 -0.007044271 -0.006281917 -0.005517632 -0.004777678 -0.004068392
 -0.003382299 -0.002719675 -0.002062518 -0.001410793 -0.0007848156 -0.0001877193 0.0003402713 0.0008014451 0.001184541 0.001497086
 0.001755695 0.001967129 0.002153341 0.0023174 0.002472822 0.002620482 0.002765301 0.002909323 0.003056446 0.00320381
 0.003353544 0.003492769 0.003619012 0.003717454 0.003785023 0.003809512 0.003789096 0.003713452 0.003580856 0.003399615
 0.003170623 0.002927554 0.002670421 0.002414314 0.002153467 0.001867155 0.001550082 0.001172903 0.0007388556 0.0002356441
 -0.0003187688 -0.0009049346 -0.001504646 -0.002088303 -0.002658904 -0.003208949 -0.003746941 -0.004281611 -0.004792931 -0.005280504
 -0.00570733 -0.006061721 -0.006342067 -0.006543446 -0.00669897 -0.0068109 -0.006904969 -0.006982182 -0.007044299 -0.007090444
 -0.007111795 -0.007109175 -0.007081938 -0.007032351 -0.006967874 -0.006888554 -0.006798655 -0.00669591 -0.006578507 -0.006445367
 -0.006293959 -0.006126266 -0.005942071 -0.005746041 -0.005540109 -0.00532854 -0.005114497 -0.004893881 -0.004667974 -0.004422617
 -0.004155624 -0.003859988 -0.003534113 -0.003190744 -0.002830515 -0.002467616 -0.002101276 -0.001727293 -0.001345854 -0.0009530366
 -0.0005554308 -0.000173569 0.0001902845 0.0005180027 0.0008188511 0.001100109 0.001366344 0.001629305 0.001877105 0.002107451
 0.002301744 0.002452495 0.002539311 0.002555816 0.002479409 0.002297783 0.002034481 0.001683896 0.001336462 0.001001843
 0.0006974858 0.000423634 0.0001225483 -0.0002070116 -0.0005979178 -0.001046499 -0.001549914 -0.002105939 -0.002701861 -0.003347176
 -0.004051387 -0.004836121 -0.005749819 -0.006772581 -0.007930615 -0.009110277 -0.01022786 -0.01123863 -0.01207304 -0.01282334
 -0.01350629 -0.01419519 -0.01491726 -0.01566761 -0.01645215 -0.01723187 -0.01800308 -0.01875319 -0.01948174 -0.02020484
 -0.02092279 -0.02164539 -0.02236922 -0.02308117 -0.02377759 -0.02443766 -0.02506452 -0.0256528 -0.02621231 -0.02675513
 -0.02729018 -0.02783018 -0.02838382 -0.0289569 -0.02956941 -0.0302322 -0.03096122 -0.03178091 -0.03261979 -0.03347699
 -0.03422637 -0.03483869 -0.03532508 -0.03567979 -0.03599575 -0.03627736 -0.0365799 -0.03690162 -0.03724121 -0.03759362
 -0.03792976 -0.03825 -0.03854151 -0.03880484 -0.03903885 -0.03923398 -0.03937513 -0.03945455 -0.03945375 -0.03938343
 -0.0392449 -0.03905065 -0.03881101 -0.03851948 -0.03818169 -0.03776581 -0.03727596 -0.03662929 -0.03582555 -0.03470447
 -0.03324971 -0.03136377 -0.02904372 -0.02656271 -0.02395434 -0.02171005 -0.01982575 -0.01854015 -0.01780365 -0.01758764
 -0.01782413 -0.01835805 -0.01911866 -0.01992371 -0.02074927 -0.0214964 -0.02218116 -0.02278977 -0.02332667 -0.02379028
 -0.02418629 -0.02450958 -0.02479677 -0.0250558 -0.0253111 -0.02557037 -0.02582221 -0.0260669 -0.02628319 -0.02647007
 -0.02662826 -0.02675937 -0.02688331 -0.02700149 -0.02713241 -0.0272751 -0.02743815 -0.02761509 -0.027798 -0.02797517
 -0.02812462 -0.02823908 -0.02830303 -0.02831139 -0.0282587 -0.02813203 -0.02792317 -0.02762474 -0.02722873 -0.02674916
 -0.02618724 -0.02555884 -0.02486839 -0.02410938 -0.02328129 -0.02238001 -0.02140544 -0.02040374 -0.01937939 -0.01840332
 -0.01747382 -0.01661791 -0.0158286 -0.01509369 -0.01441339 -0.01377888 -0.01320134 -0.01269237 -0.0122676 -0.01194842
 -0.01174567 -0.01167551 -0.01173889 -0.01194216 -0.01227703 -0.0127446 -0.01332631 -0.01402284 -0.01479372 -0.01563712
 -0.01648938 -0.01734463 -0.01815473 -0.01891683 -0.01962667 -0.02028552 -0.02091003 -0.02149969 -0.0220604 -0.02258862
 -0.02307334 -0.02351542 -0.02390745 -0.02426174 -0.0245912 -0.024916 -0.02526344 -0.0256472 -0.02609165 -0.02658506
 -0.02713522 -0.02770056 -0.02827065 -0.02880284 -0.02928171 -0.02969973 -0.03004996 -0.03036147 -0.0306356 -0.03090694
 -0.0311775 -0.03145486 -0.03173717 -0.03200096 -0.03224426 -0.03244206 -0.03259762 -0.03270854 -0.03278046 -0.03282525
 -0.0328472 -0.032858 -0.03286114 -0.03286471 -0.0328711 -0.03288463 -0.03290642 -0.03293802 -0.03298041 -0.03303444
 -0.03309992 -0.03317769 -0.0332634 -0.03335733 -0.03344977 -0.0335401 -0.03361696 -0.0336797 -0.03372284 -0.0337469
 -0.03375742 -0.03375556 -0.03375166 -0.0337451 -0.03373976 -0.03373308 -0.03372069 -0.0337011 -0.03366975 -0.03362653
 -0.03357036 -0.03349894 -0.03341032 -0.03330227 -0.0331708 -0.03302356 -0.03285964 -0.03269795 -0.0325424 -0.03240954
 -0.03230365 -0.0322265 -0.03217944 -0.03215169 -0.03214271 -0.03213892 -0.03213987 -0.03213672 -0.03212989 -0.03211716
 -0.03209972 -0.03208028 -0.03206046 -0.03204529 -0.03203623 -0.03203834 -0.03205114 -0.03207706 -0.03211211 -0.03215499
 -0.03219888 -0.03224021 -0.03227281 -0.03229344 -0.03229931 -0.03228876 -0.03226287 -0.03222157 -0.03216591 -0.03209607
 -0.03201125 -0.03191139 -0.03179891 -0.03167459 -0.03155033 -0.03142758 -0.03132224 -0.03123355 -0.03116831 -0.03112228
 -0.03108929 -0.03106408 -0.0310349 -0.03099906 -0.030948 -0.03088353 -0.0308035 -0.03071301 -0.03061424 -0.03051118
 -0.03040628 -0.03029961 -0.03019173 -0.03008163 -0.02996923 -0.02985399 -0.02973603 -0.0296126 -0.02948357 -0.02934462
 -0.02919558 -0.02903361 -0.02885858 -0.02866775 -0.02846165 -0.02823826 -0.02800361 -0.02776773 -0.02754534 -0.02736514
 -0.02723982 -0.02720037 -0.02723824 -0.02736375 -0.02754297 -0.02776322 -0.02798667 -0.02819454 -0.02837059 -0.02850465
 -0.02860441 -0.02866887 -0.02871225 -0.02873617 -0.02874741 -0.02874652 -0.02873268 -0.02870552 -0.02865969 -0.02859373
 -0.02849547 -0.02836378 -0.02818456 -0.0279648 -0.02770897 -0.02743834 -0.02718886 -0.02698342 -0.02686992 -0.0268415
 -0.0269202 -0.02705519 -0.02722915 -0.02738339 -0.02748477 -0.02752617 -0.02748981 -0.02743291 -0.02735945 -0.02733797
 -0.02737848 -0.02749792 -0.02769876 -0.02792926 -0.02818458 -0.02837861 -0.02850975 -0.0285193 -0.02842112 -0.02823199
 -0.02797774 -0.0277344 -0.02751352 -0.0273784 -0.02730629 -0.02729933 -0.02732065 -0.02733586 -0.0273341 -0.0272932
 -0.02723622 -0.02716683 -0.02710637 -0.02706573 -0.02703319 -0.0270115 -0.02696532 -0.02689084 -0.02676613 -0.02658919
 -0.02637234 -0.02611721 -0.02585389 -0.02558284 -0.02532239 -0.02506964 -0.02482318 -0.02457973 -0.02433022 -0.02407288
 -0.02380036 -0.0235126 -0.02320588 -0.02288314 -0.02254489 -0.0221961 -0.02183968 -0.02147942 -0.02111732 -0.02075601
 -0.0203965 -0.02004066 -0.01968963 -0.01933982 -0.0189915 -0.01863508 -0.01826996 -0.01788966 -0.01749424 -0.01708511
 -0.01666275 -0.01623146 -0.01579114 -0.01534369 -0.01488848 -0.01442509 -0.01395228 -0.01346751 -0.01297017 -0.01245792
 -0.01193242 -0.01139379 -0.0108452 -0.01028807 -0.00972629 -0.009161036 -0.008597916 -0.008038936 -0.007486379 -0.006942078
 -0.006398506 -0.005854995 -0.005305464 -0.00474916 -0.004197692 -0.003652039 -0.003131674 -0.002635964 -0.002170111 -0.001731422
 -0.001311648 -0.0009091267 -0.0005158042 -0.000130179 0.0002544023 0.0006378299 0.001025046 0.00140795 0.001782727 0.002138003
 0.002464123 0.002760917 0.003023572 0.003264766 0.003485981 0.00370248 0.003917013 0.004141191 0.004377055 0.004626928
 0.004891331 0.005160486 0.005433718 0.005698175 0.0059536 0.00619264 0.006414727 0.006614021 0.006789075 0.006932728
 0.007044822 0.007122221 0.007164098 0.007168897 0.007133869 0.007054615 0.006934248 0.006770723 0.006576907 0.006357662
 0.006121813 0.005874276 0.005611466 0.005333495 0.005036333 0.004718902 0.004386044 0.004037988 0.003679878 0.003311658
 0.002931315 0.002538248 0.0021266 0.001696868 0.001246498 0.0007795878 0.0003037331 -0.000172439 -0.0006306664 -0.001061944
 -0.001447372 -0.001781973 -0.002053916 -0.002264947 -0.002407872 -0.00250362 -0.002550458 -0.002601344 -0.002665059 -0.002808478
 -0.003046191 -0.003415757 -0.003926478 -0.004563363 -0.005327216 -0.006160494 -0.00705935 -0.00794975 -0.008829264 -0.009642659
 -0.01039515 -0.01107764 -0.0116998 -0.01228508 -0.01283549 -0.0133676 -0.01387486 -0.01435446 -0.01480334 -0.01521571
 -0.01559671 -0.01594697 -0.01627403 -0.01658088 -0.01687386 -0.01715577 -0.01742825 -0.01769304 -0.01794337 -0.01817892
 -0.01839124 -0.01857953 -0.01874545 -0.01888946 -0.01902228 -0.01914472 -0.0192679 -0.01939215 -0.01952517 -0.01966619
 -0.01981759 -0.01997716 -0.02014182 -0.02030999 -0.02047851 -0.02064597 -0.02081144 -0.02096957 -0.02111698 -0.02124939
 -0.02136167 -0.02146225 -0.0215504 -0.02164419 -0.02174699 -0.0218707 -0.02201748 -0.02219022 -0.02238924 -0.022617
 -0.02287357 -0.02316099 -0.02347855 -0.02382229 -0.02419004 -0.02457136 -0.0249623 -0.02534703 -0.02572144 -0.02606972
 -0.02639138 -0.02667875 -0.02693455 -0.02715866 -0.02735356 -0.02751844 -0.02766358 -0.02778794 -0.02792099 -0.02806843
 -0.02826469 -0.02851931 -0.02884074 -0.02923385 -0.02967303 -0.03015754 -0.03064597 -0.03113615 -0.0315887 -0.03200277
 -0.03235235 -0.03264029 -0.03286321 -0.03302859 -0.03315445 -0.03324952 -0.03333937 -0.03342813 -0.03353443 -0.03365132
 -0.03378198 -0.03390928 -0.03402326 -0.03411184 -0.03416441 -0.03418729 -0.03417883 -0.03415304 -0.03411342 -0.03406275
 -0.03400244 -0.03392587 -0.03383249 -0.03372115 -0.03359213 -0.03345448 -0.03330958 -0.03317267 -0.03304489 -0.03294072
 -0.03285777 -0.0327985 -0.03275586 -0.0327172 -0.03267739 -0.03262233 -0.03255527 -0.03247336 -0.03238354 -0.0322897
 -0.03219595 -0.03210488 -0.03201915 -0.03193998 -0.0318693 -0.03180873 -0.03175265 -0.03170168 -0.03163988 -0.03156628
 -0.03146422 -0.03133322 -0.03116934 -0.03097408 -0.03075851 -0.03052439 -0.03028613 -0.03004302 -0.02980035 -0.02955688
 -0.02931109 -0.02906616 -0.02882425 -0.0285929 -0.02837961 -0.02819084 -0.02803365 -0.02790894 -0.0278211 -0.02776017
 -0.02772752 -0.02769777 -0.02766765 -0.02760847 -0.02751468 -0.02738201 -0.02720862 -0.02702246 -0.02682506 -0.02664853
 -0.02649208 -0.02636267 -0.02625713 -0.0261632 -0.02608106 -0.02600407 -0.02593597 -0.02588241 -0.02584291 -0.02582126
 -0.02581012 -0.02580419 -0.02579664 -0.0257804 -0.02575527 -0.02571875 -0.02567472 -0.02562313 -0.02557067 -0.0255178
 -0.02547503 -0.02544376 -0.02543145 -0.02543927 -0.02546035 -0.02549409 -0.02552295 -0.02554666 -0.02555443 -0.02554879
 -0.0255357 -0.02551833 -0.02551032 -0.02551059 -0.02552482 -0.02554722 -0.0255715 -0.02559461 -0.02560947 -0.02562085
 -0.02563034 -0.02564047 -0.0256551 -0.02566589 -0.02567099 -0.02566399 -0.0256413 -0.0256123 -0.02557784 -0.02554577
 -0.02551751 -0.02548008 -0.0254328 -0.02535948 -0.02526179 -0.02514789 -0.0250221 -0.02491052 -0.02481375 -0.02474953
 -0.0247106 -0.02469309 -0.02468377 -0.0246621 -0.02461929 -0.02453502 -0.02441924 -0.02426804 -0.0241074 -0.02394848
 -0.02380896 -0.02369943 -0.02361552 -0.02355941 -0.02351694 -0.02348667 -0.02345712 -0.02342737 -0.02338753 -0.02333706
 -0.02326736 -0.02317837 -0.02306554 -0.0229298 -0.0227724 -0.02259582 -0.0224077 -0.02221121 -0.02201667 -0.02182568
 -0.02164445 -0.02147455 -0.02131884 -0.02118088 -0.02106524 -0.0209696 -0.02089694 -0.02083279 -0.02077424 -0.02070553
 -0.02062188 -0.02051965 -0.02039685 -0.02026079 -0.02011162 -0.01996115 -0.01980995 -0.01966659 -0.01953011 -0.0193944
 -0.01925807 -0.0191083 -0.0189499 -0.01878983 -0.0186361 -0.0185127 -0.01841462 -0.01834865 -0.01829711 -0.01824345
 -0.01817829 -0.01808819 -0.01797603 -0.01784091 -0.01768249 -0.01750016 -0.01729496 -0.01706454 -0.01682554 -0.01657925
 -0.01634482 -0.01612462 -0.01591755 -0.01572328 -0.0155218 -0.0153114 -0.01506725 -0.01478894 -0.0144598 -0.01408399
 -0.01366486 -0.01320878 -0.01273255 -0.01223578 -0.01172614 -0.01119858 -0.01064717 -0.01007925 -0.009490632 -0.008913746
 -0.008354419 -0.007870247 -0.007476435 -0.007234787 -0.007166439 -0.007279675 -0.007588028 -0.008003602 -0.008523485 -0.009016371
 -0.00947596 -0.009821675 -0.01005631 -0.01017751 -0.01019465 -0.01015209 -0.01005991 -0.009974431 -0.009897551 -0.009865413
 -0.009862874 -0.009885581 -0.009911868 -0.009913731 -0.009889489 -0.009822381 -0.00973986 -0.009648134 -0.009580342 -0.009551714
 -0.009569159 -0.009641939 -0.009738985 -0.009858862 -0.009961047 -0.01004089 -0.01009149 -0.01011266 -0.01012434 -0.01012552
 -0.01011248 -0.01008097 -0.01000237 -0.009881965 -0.009718473 -0.009526965 -0.009341135 -0.009167784 -0.009033475 -0.008934445
 -0.008876276 -0.008854673 -0.008870892 -0.008912209 -0.0089783 -0.009037565 -0.009078968 -0.009082557 -0.009036091 -0.008965972
 -0.008874043 -0.008784762 -0.008701165 -0.008624498 -0.008554937 -0.00849376 -0.008440857 -0.008395866 -0.008358095 -0.008322859
 -0.008291079 -0.008264453 -0.008241649 -0.008222278 -0.008200438 -0.008163547 -0.008117242 -0.008059145 -0.00800654 -0.007976549
 -0.007962656 -0.007973026 -0.007971803 -0.00794697 -0.007880148 -0.007760135 -0.007607913 -0.00742325 -0.007239162 -0.007058528
 -0.006904174 -0.006777287 -0.006684838 -0.006625604 -0.006587345 -0.006569435 -0.006559737 -0.006563791 -0.006595147 -0.006655828
 -0.006764225 -0.006901155 -0.007047019 -0.007180082 -0.007261199 -0.007304576 -0.007303257 -0.007290401 -0.007283021 -0.00729606
 -0.007342614 -0.007409587 -0.007504398 -0.007566507 -0.007592229 -0.007497503 -0.007270463 -0.00691827 -0.006441747 -0.005973494
 -0.00551926 -0.005193613 -0.004983094 -0.00487544 -0.004847372 -0.004812475 -0.004761295 -0.004624869 -0.004417964 -0.004126409
 -0.003786859 -0.00343245 -0.003094285 -0.002813159 -0.002580567 -0.002407017 -0.002262747 -0.002137472 -0.002020237 -0.001907679
 -0.001790017 -0.001668553 -0.001508843 -0.001307479 -0.001044681 -0.0007194842 -0.0003614577 2.637695E-05 0.0003983167 0.0007542191
 0.001069632 0.001347423 0.001583332 0.001782343 0.001953761 0.002100782 0.002234636 0.002350491 0.002444555 0.002520912
 0.002574522 0.002633057 0.00271149 0.002821505 0.002978223 0.003149223 0.003329327 0.003493669 0.003633972 0.003768184
 0.00389729 0.004035036 0.004182157 0.00432964 0.004478608 0.004640785 0.00481878 0.005038652 0.005292364 0.005568319
 0.005851875 0.006101947 0.006313213 0.006458085 0.006539506 0.00654775 0.006495425 0.006383529 0.006241133 0.006084196
 0.005930265 0.005796325 0.005656928 0.005512848 0.005319968 0.005070415 0.004743283 0.004334014 0.003857377 0.00331402
 0.002759042 0.002196554 0.001697127 0.0012573 0.0008973469 0.0006017364 0.0003237993 5.78988E-05 -0.0002393252 -0.0005484399
 -0.0008570411 -0.001147834 -0.001389635 -0.001594303 -0.0017569 -0.001903899 -0.002049563 -0.002206351 -0.002387313 -0.002572922
 -0.00276524 -0.002921148 -0.003032041 -0.003084034 -0.003071445 -0.003045822 -0.003009831</values></Ydata></AB><ScSm><Ydata ylabel="Single channel"><values byteorder="INTEL" format="FLOAT32" numvalues="1814"> 0.07254992 0.07255922 0.07263345 0.07279827 0.0730242 0.07323927 0.07338036 0.07343853 0.07344323 0.07341159
 0.07335047 0.07330704 0.07336275 0.07354952 0.07379737 0.07398191 0.0740229 0.07395456 0.07390792 0.07398561
 0.07412317 0.0741049 0.07376563 0.07318084 0.07261926 0.0722938 0.07222626 0.07240441 0.07291847 0.07371261
 0.07429975 0.07410805 0.07319925 0.07230727 0.0720249 0.07223617 0.0724522 0.07237503 0.07199441 0.07148784
 0.07127219 0.07188258 0.07344469 0.0752514 0.07602349 0.0747156 0.07125925 0.06680015 0.06327954 0.06239339
 0.064394 0.067747 0.0702844 0.07093641 0.07024397 0.06925786 0.06840903 0.0676436 0.0671543 0.0674248
 0.06855642 0.0698133 0.0700043 0.06850471 0.06600237 0.06400855 0.06347867 0.0642159 0.06568532 0.06759558
 0.06906597 0.06815713 0.06378248 0.05812219 0.05564702 0.0588638 0.06563842 0.0712869 0.07274479 0.07027797
 0.06611142 0.06258698 0.0612861 0.06260592 0.06568854 0.06913444 0.07184967 0.07309124 0.07228073 0.06951047
 0.06603318 0.0636501 0.06360393 0.06609608 0.0702465 0.0741708 0.07583603 0.07456269 0.07147452 0.06830907
 0.06627797 0.06607361 0.06802972 0.07177047 0.07619396 0.08011784 0.08276287 0.08382253 0.08352285 0.08248362
 0.08125059 0.08020245 0.07987466 0.08062784 0.08178326 0.08188733 0.08029683 0.07803994 0.07675346 0.07699028
 0.07778667 0.07783537 0.07680374 0.0751053 0.07260451 0.06860892 0.06345721 0.05892656 0.05645485 0.05605356
 0.05737495 0.06026589 0.06350793 0.06474516 0.06306531 0.06064405 0.06058089 0.06359175 0.06764183 0.07043118
 0.07152016 0.07217009 0.07371274 0.07618797 0.07817403 0.07786407 0.07486492 0.07120714 0.06990898 0.07200895
 0.07556197 0.07802638 0.07894357 0.07964593 0.08093845 0.08185375 0.08066019 0.07691697 0.07257751 0.07078147
 0.07311979 0.07804352 0.08198887 0.0820129 0.07777184 0.07160083 0.06669424 0.06489632 0.06620389 0.06997585
 0.07564013 0.08206085 0.08725381 0.08949584 0.08857612 0.08569609 0.08209879 0.07791983 0.07284375 0.068019
 0.06628627 0.06949063 0.07611705 0.08255273 0.08630835 0.08725812 0.08623189 0.08347066 0.07885657 0.07340803
 0.06977609 0.07018091 0.07372956 0.07692248 0.07732147 0.07577391 0.07460181 0.07470836 0.07525054 0.07542631
 0.07562017 0.07674938 0.07895315 0.08125282 0.08249817 0.0824095 0.08162346 0.08095095 0.0806407 0.08019692
 0.07907565 0.07776826 0.07774868 0.07986197 0.08316584 0.08590086 0.08725672 0.08766887 0.08764558 0.08687124
 0.08466794 0.08127967 0.07839034 0.07787437 0.0799854 0.08320116 0.08580529 0.08711778 0.08733205 0.08689763
 0.0862152 0.08550389 0.08486794 0.0845801 0.08501257 0.08610527 0.08724609 0.08788791 0.08799934 0.08778331
 0.0872798 0.08644927 0.08546479 0.08472437 0.08456365 0.08500218 0.08578269 0.08660376 0.08723547 0.08748374
 0.08725362 0.08668948 0.08608852 0.08563322 0.0853349 0.08522148 0.08538916 0.08582398 0.08632387 0.08667043
 0.08679883 0.08676505 0.08662596 0.08640259 0.08612044 0.08584853 0.08569683 0.08574754 0.08595778 0.08617721
 0.08631326 0.08642304 0.08657549 0.08669388 0.08663841 0.08640522 0.08614673 0.0860081 0.08601107 0.08608478
 0.0861395 0.08608586 0.0858382 0.08538777 0.0848954 0.08463139 0.08475861 0.08520925 0.08579062 0.086334
 0.08672387 0.08690088 0.08690499 0.08684418 0.08677284 0.08664814 0.08642847 0.0861776 0.08605047 0.08617234
 0.08652067 0.08693581 0.08725782 0.08742943 0.08747847 0.08747336 0.08750404 0.08761781 0.08774745 0.08777431
 0.08768135 0.08758269 0.08758806 0.08768357 0.08775993 0.08773755 0.08765489 0.0876286 0.0877272 0.08790678
 0.08807942 0.08821288 0.08834139 0.08849303 0.08862481 0.08864313 0.0885081 0.08830292 0.08815893 0.08811972
 0.08813179 0.08815998 0.08823986 0.08839665 0.08857196 0.0886742 0.08868141 0.08865997 0.088677 0.08871633
 0.08870015 0.08858505 0.08841256 0.08826526 0.08819502 0.0881969 0.08822922 0.08824527 0.08821656 0.08814159
 0.08803834 0.08792476 0.08780663 0.08769284 0.08762322 0.08765517 0.08779433 0.08794661 0.08797422 0.08781849
 0.08755915 0.0873407 0.08723955 0.08720669 0.08713679 0.08697797 0.08676556 0.08656549 0.08641157 0.08629704
 0.08620137 0.08611453 0.08605167 0.08605424 0.08615528 0.08632246 0.08645147 0.08644898 0.08632359 0.08617213
 0.08608167 0.08606664 0.08609137 0.08612251 0.08616009 0.0862328 0.08635306 0.08647341 0.0865203 0.08648284
 0.08643395 0.08645403 0.08656892 0.08675964 0.08697844 0.08714838 0.08720642 0.08717276 0.08713995 0.08717589
 0.08726669 0.08736339 0.08744943 0.08754101 0.08764859 0.0877708 0.08792006 0.08812614 0.08840366 0.08872508
 0.08903249 0.08927785 0.08946112 0.08963785 0.08988249 0.09022965 0.0906436 0.09104611 0.09137824 0.09164296
 0.09188971 0.09215587 0.09243405 0.09270731 0.09299643 0.09333996 0.09373669 0.0941429 0.09452657 0.09489476
 0.09526666 0.095645 0.09602134 0.09639733 0.09679434 0.09723512 0.09770412 0.09813637 0.09847017 0.09871206
 0.09893674 0.09922688 0.09961614 0.1000642 0.1004714 0.1007513 0.1009203 0.1010915 0.1013502 0.1016645
 0.1019535 0.1022153 0.1025323 0.1029516 0.1034129 0.1038112 0.1041071 0.1043524 0.104619 0.1049157
 0.1051805 0.1053551 0.1054563 0.1055583 0.1057115 0.1059112 0.1061527 0.10647 0.1068823 0.1073347
 0.1077337 0.1080318 0.1082452 0.1084084 0.1085468 0.1086779 0.1088071 0.10893 0.1090531 0.1091923
 0.1093372 0.1094524 0.1095334 0.109629 0.1097875 0.1100117 0.1102869 0.1106148 0.110985 0.111347
 0.1116585 0.1119514 0.1122988 0.1127058 0.1130772 0.1133191 0.1134369 0.1135024 0.1135624 0.1136298
 0.1137378 0.1139364 0.114229 0.1145595 0.1148698 0.1151421 0.1153807 0.1155825 0.1157341 0.1158253
 0.1158619 0.1158735 0.1159111 0.1160321 0.1162779 0.1166482 0.1170874 0.1175072 0.1178369 0.1180433
 0.1181096 0.11803 0.1178458 0.1176532 0.1175242 0.1174243 0.1172342 0.1168504 0.1162442 0.1154326
 0.1144296 0.1132471 0.1119287 0.1105656 0.1092711 0.1081377 0.1072266 0.1065991 0.106336 0.1064922
 0.1070175 0.1077381 0.1084218 0.1088508 0.10885 0.1083091 0.1072287 0.1057386 0.1040348 0.1022835
 0.1005721 0.09891428 0.09727529 0.0956299 0.09404602 0.09271818 0.09190148 0.09182056 0.09264086 0.09445831
 0.09722027 0.1006331 0.1042131 0.1075018 0.1102647 0.1125083 0.1143565 0.1159439 0.1173807 0.1187328
 0.1200029 0.1211574 0.1221853 0.1231143 0.1239703 0.1247427 0.1253931 0.1258824 0.1261961 0.1263584
 0.1264134 0.1263832 0.1262628 0.1260564 0.1257868 0.1254462 0.1249571 0.1242059 0.1231111 0.1216595
 0.1199131 0.1180485 0.1164392 0.1156662 0.1163097 0.1185822 0.122124 0.1261913 0.1300725 0.1333536
 0.135911 0.1377959 0.1391556 0.140173 0.1410009 0.1417306 0.1424065 0.1430463 0.1436514 0.1442187
 0.1447518 0.1452612 0.1457616 0.1462627 0.146754 0.1472067 0.147604 0.1479686 0.1483496 0.1487805
 0.1492495 0.1497133 0.1501459 0.1505638 0.1509914 0.1514127 0.1517867 0.1521044 0.1524023 0.1527245
 0.1530944 0.153513 0.1539522 0.1543568 0.1546844 0.1549473 0.1551976 0.1554758 0.1557853 0.1561107
 0.1564398 0.1567668 0.1570875 0.1574043 0.1577293 0.1580694 0.1584055 0.1587 0.1589352 0.1591365
 0.1593501 0.159602 0.1598802 0.160154 0.1604102 0.1606735 0.1609831 0.1613461 0.1617198 0.162047
 0.162303 0.1625079 0.1627018 0.162916 0.1631623 0.1634368 0.1637245 0.1640063 0.1642697 0.16452
 0.1647763 0.1650534 0.1653472 0.1656398 0.165916 0.1661756 0.1664305 0.1666926 0.1669689 0.1672668
 0.1675942 0.167943 0.1682806 0.1685707 0.1688031 0.1689959 0.1691738 0.1693546 0.1695529 0.1697809
 0.1700396 0.170316 0.1705929 0.1708613 0.1711211 0.1713757 0.1716267 0.1718759 0.1721278 0.1723877
 0.1726596 0.1729444 0.1732384 0.1735304 0.1738066 0.1740624 0.174307 0.1745543 0.1748107 0.1750716
 0.1753262 0.1755667 0.1757973 0.1760317 0.1762794 0.176536 0.1767894 0.1770337 0.1772742 0.1775186
 0.1777682 0.178018 0.1782636 0.178506 0.178749 0.1789947 0.1792431 0.1794943 0.1797488 0.1800072
 0.1802687 0.1805307 0.1807887 0.1810386 0.1812779 0.1815078 0.1817333 0.1819599 0.1821905 0.1824279
 0.1826761 0.1829343 0.1831928 0.18344 0.1836721 0.1838943 0.1841163 0.1843478 0.1845926 0.1848471
 0.1851057 0.1853652 0.185622 0.185872 0.1861136 0.1863472 0.186574 0.1867991 0.1870315 0.1872761
 0.1875303 0.1877897 0.1880483 0.1882974 0.1885321 0.1887576 0.1889819 0.1892064 0.1894263 0.1896378
 0.1898443 0.1900564 0.1902817 0.190514 0.1907427 0.1909689 0.1912016 0.1914434 0.1916906 0.1919404
 0.1921904 0.1924381 0.1926819 0.1929208 0.1931536 0.1933841 0.1936183 0.1938577 0.1941039 0.1943625
 0.1946312 0.194895 0.195145 0.1953888 0.1956341 0.1958801 0.1961251 0.1963692 0.196611 0.196853
 0.1971024 0.1973621 0.1976277 0.1978935 0.1981522 0.1983985 0.1986404 0.198891 0.1991492 0.1994029
 0.1996501 0.1998986 0.2001536 0.2004157 0.2006785 0.2009297 0.2011683 0.2014113 0.2016693 0.2019324
 0.2021898 0.2024416 0.2026901 0.2029413 0.203207 0.2034862 0.2037614 0.2040234 0.204274 0.2044983
 0.204646 0.2045918 0.2040289 0.2023466 0.1986042 0.1917105 0.1808564 0.1660234 0.1481668 0.1288747
 0.1097798 0.09213161 0.076671 0.06372665 0.05337986 0.04556641 0.04013159 0.03693471 0.03597191 0.03750361
 0.04217833 0.05064136 0.06211078 0.07313628 0.07895309 0.07724018 0.07033271 0.06309067 0.05886726 0.05790095
 0.0587654 0.0602396 0.06193 0.06405378 0.06699616 0.0708696 0.07548513 0.08082286 0.08727013 0.09512074
 0.1039677 0.1128728 0.1211763 0.1290113 0.1369823 0.1454312 0.1540761 0.1622873 0.1695886 0.175895
 0.1814124 0.1864133 0.191085 0.1955103 0.199723 0.2037122 0.2073416 0.2103113 0.2122983 0.2132029
 0.2132726 0.2129652 0.2126775 0.2125904 0.2127194 0.2130364 0.2135204 0.2141508 0.2149023 0.2157448
 0.2166419 0.2175601 0.2184796 0.219385 0.2202562 0.2210761 0.2218382 0.2225397 0.2231792 0.2237602
 0.2242882 0.2247692 0.2252151 0.2256419 0.2260578 0.2264609 0.2268485 0.2272183 0.2275635 0.2278757
 0.2281559 0.2284167 0.2286734 0.2289325 0.2291884 0.229433 0.2296673 0.2299002 0.2301388 0.2303851
 0.2306372 0.2308871 0.2311254 0.2313527 0.2315804 0.2318133 0.2320441 0.2322666 0.2324839 0.2326998
 0.2329159 0.2331379 0.2333734 0.2336198 0.2338635 0.2340942 0.2343142 0.2345351 0.234765 0.2349998
 0.2352307 0.2354607 0.235703 0.2359621 0.2362264 0.2364832 0.2367309 0.2369761 0.2372268 0.2374843
 0.2377352 0.2379574 0.2381432 0.2383129 0.2385016 0.2387311 0.2389912 0.2392498 0.239487 0.2397127
 0.2399444 0.2401817 0.2404094 0.2406138 0.2407961 0.2409834 0.2412138 0.2414963 0.2418 0.2420966
 0.2423857 0.2426694 0.242939 0.2431968 0.2434522 0.2436894 0.2438778 0.2440271 0.244208 0.2444963
 0.2448938 0.2453164 0.245673 0.2459484 0.2461906 0.2464464 0.2467371 0.2470441 0.2472745 0.2473204
 0.2472281 0.2472355 0.2475512 0.2481424 0.2487979 0.2493469 0.2497602 0.250092 0.2503892 0.2506477
 0.2508203 0.2508678 0.2508361 0.2508855 0.2511849 0.2517362 0.2523527 0.2528507 0.2531981 0.2534535
 0.253665 0.2538593 0.2539954 0.2539052 0.2534717 0.2529351 0.2528265 0.253452 0.2545468 0.255557
 0.2561861 0.2565461 0.2568464 0.257137 0.2573688 0.2574435 0.2570925 0.2560293 0.2545099 0.25349
 0.2538337 0.255441 0.2574094 0.2589362 0.2598267 0.2602915 0.2605869 0.2608389 0.2609494 0.2606232
 0.2596997 0.2585738 0.2580851 0.258748 0.2601738 0.2614827 0.2621941 0.2624753 0.2626775 0.2629477
 0.2631331 0.2627235 0.2611375 0.2585756 0.256461 0.2564422 0.2587795 0.2620309 0.2644811 0.2656255
 0.2660456 0.2661404 0.2655349 0.2637536 0.2609349 0.2577688 0.255277 0.2546712 0.2565522 0.2599089
 0.2626922 0.2638345 0.2641489 0.2649843 0.2666141 0.2682419 0.2690423 0.2688007 0.2677674 0.2662036
 0.2642626 0.2624129 0.261683 0.2629291 0.2657966 0.2688531 0.2709154 0.2719481 0.2724258 0.2719312
 0.2688874 0.2624508 0.2548548 0.2507814 0.25323 0.2603852 0.2675673 0.2718324 0.2735857 0.2743885
 0.2748688 0.2745432 0.2720905 0.2660701 0.2571825 0.2496954 0.2485529 0.2544805 0.2631677 0.2692972
 0.2701722 0.2660045 0.2589537 0.2524736 0.2498996 0.252434 0.2586272 0.2658027 0.2716573 0.2748976
 0.2752324 0.2732424 0.2703272 0.2683625 0.2683458 0.2689171 0.2673883 0.2631399 0.2586586 0.2558884
 0.2532182 0.2484566 0.2436434 0.2436998 0.2500334 0.2581872 0.2628511 0.2632393 0.2621264 0.2607876
 0.2568148 0.2475865 0.2352394 0.2267501 0.2278273 0.2369834 0.2468669 0.2514552 0.2508267 0.2489913
 0.2485347 0.2479969 0.2439546 0.2355028 0.2264969 0.2223089 0.2241235 0.227894 0.2291449 0.2265662
 0.2204416 0.2111667 0.2017515 0.1987251 0.206622 0.2223835 0.2377264 0.245925 0.2442531 0.2325091
 0.2139516 0.1972334 0.1921871 0.2010339 0.215695 0.225227 0.2244993 0.2150926 0.2006178 0.1842504
 0.1702144 0.1642293 0.1700782 0.1857786 0.2036389 0.2140766 0.2109103 0.196182 0.180582 0.1757412
 0.1836356 0.1952308 0.2006013 0.1979301 0.1920717 0.1882976 0.1892505 0.1945192 0.2010897 0.206162
 0.2093784 0.2096776 0.2022897 0.1845009 0.1633062 0.1508037 0.1516195 0.1605358 0.172197 0.1859009
 0.1993045 0.2051358 0.1994166 0.1890476 0.1859476 0.1944074 0.2074166 0.2152344 0.2150355 0.2114177
 0.2092857 0.2085957 0.2068679 0.2049295 0.2070773 0.21514 0.2252586 0.2321899 0.2347547 0.2353344
 0.2358491 0.2363143 0.2362113 0.2353658 0.2338601 0.2321538 0.23094 0.2303671 0.2299059 0.2291459
 0.2277515 0.2242556 0.2164082 0.2043549 0.1926208 0.1865351 0.1866067 0.1888968 0.1908663 0.1928593
 0.19267 0.1840141 0.1648587 0.144233 0.1356491 0.1440519 0.1621531 0.1787271 0.1871811 0.1860909
 0.1758554 0.1589773 0.142847 0.1374271 0.1471003 0.1664537 0.1860839 0.2007063 0.2097092 0.2126377
 0.2082742 0.1979495 0.1868609 0.1811057 0.1839706 0.1944667 0.2076409 0.2158282 0.2123915 0.1983428
 0.1853315 0.1870522 0.2048167 0.2252941 0.2354882 0.2359228 0.2353211 0.2370676 0.2375367 0.2356319
 0.2366112 0.244845 0.2573581 0.2667434 0.2676497 0.2588744 0.2426289 0.2250383 0.2146421 0.2157212
 0.2237258 0.2304907 0.2322376 0.2290294 0.2199957 0.2058084 0.1941365 0.1948664 0.2086223 0.2254432
 0.2361373 0.2406752 0.2440639 0.2477169 0.2477241 0.2407867 0.2297559 0.2218836 0.2216392 0.226781
 0.2320958 0.2348562 0.2348788 0.2314638 0.2238292 0.2145538 0.2095773 0.2130624 0.2231065 0.2335362
 0.2394362 0.2402313 0.2382221 0.2356558 0.2332428 0.2303363 0.2263867 0.2228266 0.2227962 0.2277366
 0.2349904 0.2404763 0.2433287 0.2461818 0.2510219 0.256444 0.259377 0.2584737 0.2554192 0.2534623
 0.2547953 0.2588018 0.2625083 0.263105 0.260608 0.2580991 0.2589018 0.2634255 0.2691433 0.2734563
 0.2758115 0.2771375 0.2782916 0.2793223 0.2794446 0.277636 0.2740776 0.2709874 0.2710394 0.2747043
 0.2798066 0.2837774 0.2857197 0.2862397 0.2860405 0.2851904 0.2835416 0.2814063 0.2795774 0.2787203
 0.2788997 0.2797185 0.2807338 0.2816596 0.2823591 0.2828213 0.2831169 0.2833098 0.2834362 0.2835479
 0.2836816 0.2837769 0.283733 0.2835841 0.2835193 0.2836624 0.2839061 0.2840338 0.2839327 0.2835872
 0.2829354 0.281882 0.2804562 0.2788163 0.2770591 0.2751482 0.2731501 0.2714991 0.2708732 0.2716882
 0.2737069 0.2761756 0.278332 0.2797818 0.2805171 0.2807538 0.280785 0.2808556 0.2810515 0.2812847
 0.2814078 0.2813447 0.2811175 0.2807828 0.280377 0.2799219 0.2794408 0.2789341 0.2783656 0.2777192
 0.2770664 0.2765255 0.2761331 0.275784 0.2753244 0.2746927 0.2739516 0.2732028 0.2724866 0.2717539
 0.2709123 0.2699149 0.2688238 0.2677706 0.2668319 0.2659533 0.2650043 0.2638937 0.2626384 0.2613496
 0.2601569 0.2591156 0.2581771 0.2572469 0.2562525 0.2551566 0.2539449 0.252627 0.2512305 0.2497762
 0.2482673 0.2467002 0.2450712 0.2433725 0.2415917 0.2397163 0.2377379 0.235663 0.2335239 0.2313616
 0.2291766 0.2268931 0.2243756 0.2214828 0.2181041 0.2141649 0.2096428 0.2046041 0.1992126 0.1936865
 0.1882447 0.183074 0.1783139 0.1740596 0.170382 0.1673424 0.1649849 0.1633295 0.1623832 0.1621502
 0.162628 0.1637893 0.1655603 0.1678144 0.1703978 0.1731561 0.1759352 0.1785871 0.1810185 0.1832414
 0.1853487 0.1874224 0.1894627 0.1914044 0.1931894 0.1948078 0.1962705 0.1975758 0.1987244 0.1997452
 0.2006805 0.2015563 0.2023791 0.2031452 0.2038384 0.2044286 0.2048848 0.2052018 0.2054353 0.205709
 0.2061627 0.2068727 0.2078204 0.2089225 0.2100821 0.2112288 0.212338 0.2134193 0.2144884 0.21555
 0.2165981 0.21763 0.2186722 0.2197861 0.2210284 0.2224066 0.2238852 0.2254224 0.2269795 0.2285034
 0.2299187 0.2311416 0.2321108 0.2328134 0.2332754 0.2335264 0.2335876 0.2334908 0.2332858 0.2330227
 0.2327368 0.232444 0.2321437 0.231829 0.2314918 0.2311154 0.2306828 0.2301998 0.2296888 0.2291561
 0.2286039 0.2280799 0.2276692 0.2274139 0.2272643 0.227119 0.2268942 0.2265586 0.2261256 0.2256313
 0.2251115 0.2245776 0.223996 0.2232998 0.2224417 0.2214295 0.2202975 0.2190599 0.2177129 0.2162598
 0.2147113 0.2130755 0.211365 0.2096003 0.2077909 0.2059161 0.2039295 0.2017905 0.1995147 0.1971952
 0.1949563 0.1928766 0.1909581 0.1891554 0.1874216 0.1857366 0.1841051 0.1825346 0.1810249 0.1795855
 0.1782421 0.1770102 0.1758759 0.1748107 0.1737954 0.1728276 0.171925 0.1711185 0.1704309 0.1698614
 0.1693932 0.1690095 0.1687063 0.1684992 0.1684081 0.16842 0.1684765 0.1685045 0.1684568 0.1683316
 0.1681684 0.1680172 0.1679 0.1678089 0.167733 0.1676548 0.1675161 0.1672155 0.1666492 0.1657453
 0.1644771 0.162874 0.1610252 0.1590607 0.1571174 0.1553099 0.1537195 0.1524052 0.1514015 0.150684
 0.1501569 0.14971 0.1493011 0.1489808 0.1488419 0.1489209 0.1491245 0.1492813 0.1493023 0.1492721
 0.1493654 0.1496988 0.1502669 0.1509663 0.1516617 0.1522577 0.1527216 0.1530478 0.1532378 0.1533132
 0.1532984 0.1531896 0.1529776 0.152681 0.1523235 0.1519091 0.1514406 0.1509258 0.150353 0.149695
 0.1489353 0.148073 0.1471183 0.1460786 0.1449226 0.143602 0.1421734 0.1408624 0.13995 0.1396058
 0.1398173 0.1404147 0.1411761 0.1419579 0.1426774 0.1431621 0.143218 0.1430034 0.143182 0.1444422
 0.1468185 0.149603 0.151943 0.1534337 0.154132 0.1542082 0.1537559 0.1528169 0.1513811 0.1494008
 0.1469193 0.1441021 0.1410914 0.137979 0.1349361 0.1321889 0.1298658 0.1279806 0.1265009 0.1254557
 0.124996 0.1247613 0.1228232 0.1167015 0.1071826 0.1000315 0.1011521 0.1099562 0.1197622 0.1248536
 0.1250319 0.1233 0.1217479 0.1207102 0.1200976 0.1200608 0.1207345 0.1219784 0.1233848 0.1245119
 0.12517 0.1254067 0.1252053 0.1242307 0.1217565 0.1169114 0.1093901 0.100084 0.09077056 0.08305825
 0.07766342 0.07444917 0.07278849 0.07193413 0.07138006 0.07106702 0.07126354 0.07225251 0.07411532 0.07674988
 0.07997297 0.08348855 0.08682775 0.08955476 0.0915933 0.0931862 0.0945075 0.09547616 0.09594822 0.09591319
 0.09547484 0.09476793 0.09392117 0.09301609 0.09203526 0.09088916 0.08956906 0.08828614 0.08736122 0.08692008
 0.08678968 0.08673333 0.08666317 0.08658691 0.08649765 0.0863802 0.08624128 0.08612394 0.08613105 0.0863663
 0.08680032 0.08726483 0.08760756 0.08780172 0.087909 0.08795542 0.08782722 0.08736998 0.08667804 0.08611342
 0.08583234 0.08547521 0.08461826 0.08341175 0.08247636 0.08222251 0.08250216 0.08288326 0.08305156 0.08294705
 0.08272375 0.08267823 0.08306105 0.08377966</values></Ydata></ScSm><ScRf><Ydata ylabel="Single channel"><values byteorder="INTEL" format="FLOAT32" numvalues="1820"> 0.06053054 0.06068264 0.06076767 0.06078857 0.06077401 0.06077213 0.06083163 0.06097184 0.0611656 0.06135298
 0.06148221 0.06154452 0.06156082 0.06154121 0.06148783 0.06143975 0.0614718 0.0616218 0.06183573 0.06200182
 0.06204158 0.06198074 0.06193472 0.06199463 0.06210652 0.06208776 0.06179977 0.06130653 0.06083336 0.06055965
 0.06050707 0.06066918 0.06112065 0.0618076 0.0623132 0.06215446 0.0613863 0.06063036 0.06038809 0.06056273
 0.06074243 0.06067626 0.06035638 0.05993224 0.05975239 0.06026487 0.06157664 0.0630957 0.06374514 0.06264114
 0.05972468 0.05596482 0.05300063 0.05225874 0.05394628 0.05676907 0.05890431 0.05945358 0.0588706 0.0580369
 0.05731506 0.05666252 0.05624543 0.05647444 0.05743625 0.05850667 0.05867219 0.05739925 0.05527142 0.05357385
 0.05312008 0.05374462 0.05499335 0.05661689 0.05786836 0.05710905 0.05342253 0.04864974 0.04656465 0.0492861
 0.05501682 0.05980093 0.06104209 0.0589586 0.05543431 0.05245617 0.05136054 0.05247473 0.0550691 0.05796703
 0.06025521 0.06131206 0.06064513 0.05832096 0.05538667 0.05336276 0.05330978 0.05541083 0.05892564 0.06225405
 0.06366788 0.0625896 0.05997446 0.05729875 0.05558665 0.05541462 0.0570595 0.06021207 0.063954 0.06728586
 0.06953597 0.07043755 0.07018922 0.06932575 0.06830572 0.06743331 0.06714877 0.0677617 0.06871621 0.06879625
 0.06745392 0.06554611 0.0644538 0.06465382 0.06533699 0.06538966 0.06451966 0.0630789 0.060964 0.0575924
 0.05324171 0.04941008 0.04732221 0.04699892 0.04814488 0.05061947 0.05338504 0.05445039 0.05304478 0.05100248
 0.05093871 0.05346199 0.05686299 0.05920676 0.06012454 0.06068163 0.06200258 0.0641185 0.06582025 0.06556962
 0.06302829 0.05991966 0.05881244 0.06059778 0.06363003 0.06574836 0.06655392 0.06716991 0.06827968 0.0690684
 0.0680725 0.06491997 0.061267 0.0597722 0.06177659 0.06595901 0.06929716 0.0693043 0.06570227 0.06048214
 0.05635291 0.05486636 0.05600796 0.05923774 0.06408665 0.06960064 0.0740871 0.07606283 0.07533241 0.07291546
 0.06987941 0.06634718 0.06204721 0.05795486 0.05650092 0.05927556 0.0649951 0.07057156 0.07386917 0.07477101
 0.07397605 0.07167602 0.06775922 0.06310643 0.0600199 0.06043136 0.0635724 0.0664091 0.06682224 0.06554386
 0.06459361 0.06476173 0.0653125 0.06553935 0.0657764 0.06683387 0.0688422 0.0709433 0.07211931 0.07211526
 0.07148875 0.07095954 0.07075424 0.07044065 0.06954516 0.06850709 0.06862114 0.07061248 0.07363066 0.0761225
 0.07738848 0.07782882 0.07789518 0.07729612 0.07541464 0.07246298 0.06995302 0.06957677 0.07157162 0.07456898
 0.07701553 0.0782928 0.07857861 0.0782838 0.07777018 0.07723542 0.07677679 0.07663976 0.07715172 0.07824991
 0.0793805 0.0800519 0.08023515 0.08011045 0.07971467 0.07902145 0.07820154 0.07762286 0.0775834 0.07808772
 0.07889695 0.07974461 0.08042821 0.08076158 0.08063856 0.08018529 0.07969163 0.0793467 0.07916403 0.07915641
 0.07940347 0.07989485 0.08044797 0.08085749 0.08105654 0.08109542 0.0810317 0.08088879 0.08069101 0.08050574
 0.08044125 0.08057051 0.08083884 0.08110058 0.08128886 0.08148348 0.08174881 0.08198065 0.08201429 0.08184341
 0.08163667 0.08155262 0.08161047 0.08173281 0.08183563 0.08184209 0.08166973 0.081301 0.08088325 0.08067571
 0.080843 0.08133834 0.0819925 0.08263577 0.0831278 0.08338818 0.0834545 0.08343975 0.08340058 0.08329923
 0.08310585 0.0828926 0.08281128 0.08298028 0.08337862 0.08385316 0.08424113 0.08447154 0.08456402 0.08459769
 0.08468257 0.08487184 0.08507942 0.08516137 0.0850976 0.08502395 0.08506581 0.08519602 0.08528091 0.08523946
 0.08513655 0.08511652 0.08525196 0.08547842 0.08568362 0.0858328 0.0859844 0.08619232 0.08640938 0.08650696
 0.08641195 0.08620625 0.08604573 0.08599375 0.08599804 0.08602425 0.08612274 0.08632801 0.08656253 0.0867027
 0.08671922 0.08670138 0.08673918 0.08681498 0.08683135 0.08672656 0.08653904 0.08636655 0.08628659 0.08631343
 0.08640327 0.08648586 0.08650425 0.08644452 0.0863355 0.0862185 0.08611911 0.08605587 0.08606981 0.08621033
 0.08646168 0.086698 0.08675654 0.08658163 0.08628738 0.08605998 0.08599211 0.08601484 0.08598591 0.0858288
 0.08558181 0.08533499 0.08514735 0.08502114 0.08492759 0.08484451 0.08478378 0.08479078 0.08489676 0.08505341
 0.08513565 0.08504394 0.08480211 0.0845323 0.08434336 0.08426335 0.0842563 0.08426818 0.08427184 0.08429215
 0.0843655 0.08446122 0.08448804 0.08440313 0.08427279 0.08420585 0.08426727 0.08445585 0.08470288 0.08488315
 0.08489814 0.08477724 0.08465371 0.08462727 0.0846885 0.0847787 0.08486962 0.08496366 0.08505794 0.08514704
 0.08524987 0.08540492 0.08563113 0.08590101 0.08615391 0.08633636 0.0864421 0.08652478 0.08666541 0.08691064
 0.08723459 0.08756077 0.08782473 0.08802073 0.08819155 0.0883752 0.08857116 0.08876748 0.08898191 0.08924737
 0.08956237 0.08988695 0.09018905 0.09047075 0.09074812 0.09102897 0.09131696 0.09162734 0.09198967 0.09242062
 0.09288043 0.09327213 0.09351696 0.09363426 0.09373234 0.09392502 0.0942556 0.09466689 0.09502764 0.09523112
 0.09530446 0.09539073 0.09559143 0.09586209 0.09610286 0.09631415 0.09659919 0.09701853 0.09749679 0.09789357
 0.098141 0.09829364 0.09845243 0.09865393 0.09884402 0.09896116 0.09902349 0.0991059 0.09924468 0.09941407
 0.09960604 0.09987438 0.1002593 0.1007058 0.1011031 0.101388 0.1015759 0.1017113 0.1018219 0.1019095
 0.1019605 0.1019752 0.1019945 0.1020687 0.102189 0.1022876 0.1023235 0.1023363 0.1023955 0.1025329
 0.1027455 0.1030266 0.103352 0.1036641 0.1039222 0.104166 0.104476 0.1048529 0.1051845 0.1053654
 0.1054137 0.1054251 0.1054521 0.1054875 0.1055461 0.1056857 0.1059369 0.1062631 0.1066083 0.1069509
 0.1072981 0.1076493 0.1079762 0.1082288 0.1083628 0.1083769 0.1083293 0.1083146 0.1084155 0.1086567
 0.1089906 0.109332 0.1096149 0.1098129 0.1099131 0.1099086 0.1098421 0.109818 0.1099207 0.1101162
 0.1102676 0.1102527 0.1100423 0.1096696 0.1091653 0.1085502 0.1078701 0.1072079 0.1066492 0.1062448
 0.1060136 0.1059798 0.1061871 0.1066515 0.1073042 0.1080103 0.1086516 0.1091589 0.1094643 0.1094771
 0.1091507 0.1085501 0.1078187 0.1070868 0.1064212 0.1058256 0.1052598 0.1046887 0.1041577 0.1038178
 0.1038563 0.1043949 0.1054331 0.106843 0.1084007 0.1098649 0.1110824 0.1120417 0.1128306 0.113543
 0.1142266 0.1148992 0.1155765 0.1162569 0.1168998 0.1174559 0.1179227 0.1183421 0.1187459 0.1191279
 0.1194644 0.1197401 0.1199609 0.1201591 0.1203665 0.1205637 0.1206813 0.1206744 0.1205733 0.1204413
 0.1203033 0.1201311 0.1198781 0.1195179 0.1190808 0.1186809 0.1184995 0.1187059 0.1193629 0.1203929
 0.1216384 0.1229559 0.1242474 0.1254193 0.1263689 0.1270421 0.1274817 0.1277913 0.1280604 0.1283343
 0.1286268 0.1289343 0.1292431 0.1295409 0.1298241 0.130102 0.1303955 0.1307218 0.1310672 0.1313861
 0.1316458 0.1318715 0.1321325 0.1324754 0.1328738 0.1332532 0.133572 0.1338606 0.1341645 0.1344697
 0.1347196 0.1348984 0.1350583 0.1352662 0.1355537 0.1359132 0.1363019 0.1366491 0.1368993 0.1370633
 0.137207 0.1373869 0.1376127 0.1378661 0.1381297 0.1383907 0.1386412 0.1388916 0.139169 0.1394826
 0.1397919 0.1400342 0.1401893 0.1403061 0.140455 0.1406632 0.1409038 0.1411351 0.1413444 0.1415593
 0.1418192 0.1421292 0.1424419 0.1426913 0.1428508 0.1429538 0.1430621 0.1432173 0.1434218 0.1436527
 0.1438854 0.1441045 0.1443069 0.1445026 0.1447072 0.1449258 0.1451487 0.145364 0.1455694 0.1457709
 0.1459735 0.1461782 0.1463868 0.1466103 0.1468655 0.1471533 0.1474433 0.1476928 0.1478833 0.1480298
 0.1481599 0.1482944 0.1484471 0.1486253 0.1488269 0.1490415 0.1492586 0.1494725 0.1496822 0.149887
 0.1500855 0.1502786 0.1504705 0.1506656 0.1508675 0.1510831 0.1513181 0.1515632 0.1517937 0.1519918
 0.152165 0.1523386 0.1525314 0.1527412 0.1529494 0.1531416 0.1533223 0.1535073 0.1537047 0.1539084
 0.1541081 0.1542991 0.1544828 0.1546638 0.1548453 0.1550284 0.1552133 0.1554031 0.1556026 0.1558141
 0.1560343 0.1562541 0.1564642 0.1566611 0.1568485 0.1570328 0.1572208 0.1574202 0.1576329 0.1578496
 0.1580572 0.1582501 0.158434 0.1586187 0.1588098 0.159005 0.1591984 0.1593901 0.1595864 0.159792
 0.1600041 0.1602158 0.1604195 0.1606133 0.1608045 0.1610052 0.1612192 0.16144 0.1616609 0.1618804
 0.1620985 0.1623152 0.1625317 0.1627491 0.1629668 0.1631839 0.1633984 0.1636071 0.1638092 0.1640058
 0.1641956 0.1643772 0.164553 0.1647266 0.1648999 0.1650742 0.16525 0.1654247 0.165599 0.1657829
 0.1659844 0.1661981 0.1664118 0.1666175 0.1668138 0.1670055 0.1672018 0.1674067 0.167614 0.1678171
 0.1680173 0.168218 0.1684213 0.1686292 0.168842 0.1690553 0.1692667 0.169477 0.1696859 0.1698922
 0.170099 0.1703095 0.1705217 0.1707335 0.1709442 0.1711504 0.1713524 0.1715577 0.1717708 0.1719854
 0.1721964 0.1724058 0.1726158 0.1728282 0.1730461 0.1732664 0.1734782 0.1736766 0.1738679 0.1740597
 0.1742596 0.1744748 0.174702 0.1749293 0.175153 0.1753773 0.1755982 0.1758084 0.1760095 0.1762064
 0.1764024 0.1766063 0.1768235 0.1770331 0.1771794 0.1771419 0.1766459 0.1751614 0.1718819 0.1658722
 0.156433 0.1435418 0.1280223 0.1112564 0.09467037 0.07935403 0.06594717 0.05472665 0.04575494 0.03897289
 0.03424979 0.03147011 0.03063302 0.03195913 0.03600233 0.0433198 0.05324255 0.06279275 0.06784528 0.06638265
 0.06042048 0.05416557 0.05051915 0.049683 0.05042193 0.05168706 0.05314843 0.0549974 0.05755863 0.06091449
 0.06489401 0.06948732 0.07504426 0.08183034 0.08949803 0.09723264 0.1044522 0.1112576 0.1181659 0.1254767
 0.1329554 0.1400671 0.1464043 0.1518863 0.1566762 0.161002 0.1650307 0.1688463 0.1724892 0.1759544
 0.1791186 0.1817115 0.1834467 0.1842347 0.1842832 0.1839834 0.1836878 0.1835738 0.18367 0.1839483
 0.1843751 0.1849216 0.1855677 0.1862958 0.1870795 0.1878885 0.1887002 0.1894946 0.1902514 0.1909613
 0.1916261 0.1922425 0.1928014 0.1933024 0.1937553 0.1941688 0.1945498 0.194908 0.1952532 0.1955904
 0.1959206 0.1962381 0.196534 0.1968051 0.1970568 0.1972949 0.1975229 0.1977436 0.1979582 0.1981663
 0.1983697 0.1985726 0.1987771 0.1989845 0.1991975 0.199415 0.1996277 0.1998282 0.2000207 0.2002143
 0.2004125 0.2006127 0.2008087 0.2009952 0.2011731 0.2013521 0.2015429 0.2017463 0.2019536 0.2021564
 0.2023532 0.2025481 0.2027418 0.20293 0.2031156 0.2033144 0.2035393 0.2037832 0.2040253 0.20425
 0.2044537 0.2046423 0.2048294 0.2050287 0.2052377 0.2054368 0.2056107 0.2057686 0.2059397 0.2061444
 0.2063725 0.2065934 0.2067914 0.2069793 0.2071732 0.2073701 0.2075588 0.2077362 0.2079123 0.2081076
 0.2083389 0.2085963 0.2088487 0.2090829 0.2093147 0.2095562 0.2098026 0.2100511 0.2102969 0.210509
 0.2106526 0.210747 0.2108763 0.2111223 0.2114848 0.2118742 0.2121946 0.2124292 0.2126324 0.2128614
 0.2131377 0.2134322 0.2136503 0.2136948 0.2136105 0.2136103 0.2138799 0.2143916 0.2149599 0.215436
 0.2157978 0.2160938 0.2163596 0.2165836 0.216722 0.2167479 0.216714 0.2167645 0.2170371 0.2175232
 0.2180625 0.2185043 0.2188226 0.2190589 0.2192461 0.2194111 0.2195304 0.2194639 0.2191002 0.2186339
 0.2185257 0.2190538 0.2199991 0.2208792 0.2214292 0.2217426 0.2220037 0.2222611 0.2224751 0.2225578
 0.22227 0.2213579 0.2200439 0.2191632 0.2194704 0.2208746 0.2225861 0.2239092 0.2246808 0.2250847
 0.2253411 0.2255624 0.2256708 0.2254088 0.2246249 0.2236526 0.2232238 0.2237936 0.2250267 0.226158
 0.2267796 0.2270537 0.2272876 0.2275873 0.2277918 0.2274433 0.2260425 0.2237863 0.2219394 0.2219449
 0.2240143 0.2268739 0.2290266 0.2300356 0.2304075 0.2304931 0.229975 0.2284451 0.2260215 0.2232966
 0.2211528 0.2206439 0.2222986 0.225242 0.2276879 0.228701 0.2289892 0.2297309 0.2311677 0.232606
 0.2333218 0.233122 0.2322245 0.2308652 0.2291864 0.2275985 0.2269949 0.2281184 0.2306597 0.2333705
 0.2352118 0.2361376 0.2365576 0.2361232 0.233478 0.2278886 0.2212929 0.2177678 0.2199292 0.2261973
 0.2324944 0.2362542 0.237826 0.2385632 0.239007 0.2387372 0.2366118 0.2313831 0.2236605 0.2171627
 0.2162072 0.2214358 0.2290889 0.234519 0.2353613 0.2317898 0.2256864 0.2200736 0.2178699 0.2201216
 0.2255571 0.2318469 0.2369988 0.2398939 0.2402639 0.2385879 0.2360763 0.2343901 0.2344337 0.2350258
 0.2337958 0.2301773 0.2263346 0.2239707 0.2216857 0.2175744 0.2134364 0.2135942 0.2192835 0.2265833
 0.2308163 0.2312885 0.2304479 0.2294203 0.2260723 0.2180745 0.20731 0.199962 0.2011056 0.2094367
 0.2184398 0.2227719 0.2225069 0.2212176 0.221218 0.2212128 0.218129 0.21113 0.203662 0.200555
 0.2028716 0.206952 0.2087434 0.2070267 0.201982 0.1938982 0.1855233 0.182898 0.1902577 0.2048476
 0.2190813 0.2267795 0.2254201 0.2147831 0.197849 0.1826267 0.1782468 0.1867737 0.2006926 0.2098253
 0.2093962 0.2008637 0.1875812 0.1725286 0.1597064 0.1545388 0.1606249 0.1760999 0.1936563 0.2041432
 0.201614 0.1879869 0.1735258 0.1694547 0.1776949 0.1895005 0.1952446 0.1931656 0.1879917 0.1848793
 0.1864408 0.1922774 0.1993974 0.2050313 0.208831 0.2096833 0.2027194 0.1851645 0.1640588 0.1516149
 0.1525374 0.1616113 0.173464 0.1873902 0.2010067 0.2069416 0.2011473 0.1905755 0.187265 0.195564
 0.2084082 0.2159648 0.2153665 0.2112409 0.2085596 0.2073394 0.2051249 0.2027282 0.2044255 0.2120641
 0.2218415 0.228551 0.2309954 0.2315176 0.2320226 0.2325255 0.2325012 0.2317696 0.2304158 0.2288963
 0.2278908 0.2275352 0.2272977 0.2267784 0.22567 0.222527 0.2150815 0.2034327 0.1920757 0.1863341
 0.1867114 0.189264 0.1914692 0.1936885 0.1936839 0.1850884 0.1658148 0.1449438 0.1361112 0.1443305
 0.1622629 0.1785855 0.1866683 0.185134 0.1744619 0.1571901 0.1406315 0.1345939 0.1433816 0.1616651
 0.1801795 0.1937109 0.2016998 0.2038199 0.1989902 0.1885224 0.1773918 0.1713954 0.1736149 0.183056
 0.1949905 0.2021879 0.1984485 0.1847592 0.1720103 0.1729702 0.1888957 0.207445 0.2165512 0.2166425
 0.2157563 0.217046 0.2172133 0.215271 0.2160628 0.2236159 0.2352129 0.2440696 0.2452915 0.2378063
 0.2237363 0.2088921 0.2012598 0.2045641 0.2139691 0.2212853 0.2228675 0.2191304 0.2097241 0.1955754
 0.1840101 0.1843408 0.1970779 0.2127222 0.2225584 0.2265933 0.2295926 0.2328885 0.2327703 0.2261106
 0.2155868 0.2080343 0.2076852 0.2124683 0.2175282 0.2203499 0.220781 0.2181267 0.2115886 0.2035716
 0.199705 0.203942 0.2144436 0.2252719 0.2316787 0.2330667 0.2315922 0.2293646 0.2270304 0.2239536
 0.219627 0.215494 0.2146644 0.2186018 0.2248032 0.2293732 0.2314809 0.2336394 0.2377526 0.2424913
 0.2449096 0.2436616 0.2402854 0.2378575 0.2385167 0.2417667 0.2448509 0.2451041 0.242485 0.2398531
 0.2403385 0.2443592 0.2495704 0.2535355 0.255712 0.2569358 0.2579863 0.2589011 0.2589486 0.2571823
 0.2537816 0.2508223 0.2508014 0.2541632 0.2588829 0.2625635 0.2643681 0.2648693 0.2647297 0.2640176
 0.2626041 0.260785 0.2592773 0.2586542 0.2589375 0.2597521 0.2607079 0.2615684 0.2622257 0.2626739
 0.2629712 0.2631635 0.2632713 0.2633393 0.2634127 0.2634565 0.2633967 0.2632747 0.2632651 0.263481
 0.2638237 0.2640852 0.2641336 0.2639198 0.2633736 0.2624258 0.2611366 0.2596763 0.2581366 0.2564704
 0.2547271 0.2533094 0.2528522 0.2537468 0.2557795 0.2582572 0.2604742 0.2620669 0.2630254 0.2635127
 0.2637163 0.2637833 0.2637925 0.2637522 0.2636358 0.2634281 0.2631422 0.2628011 0.2624224 0.262028
 0.2616525 0.2613237 0.2610322 0.2607328 0.2603794 0.2599526 0.2594642 0.2589445 0.258417 0.2578669
 0.2572391 0.2564803 0.2555892 0.254628 0.2536887 0.2528386 0.2520777 0.2513443 0.2505725 0.2497382
 0.248838 0.2478465 0.2467401 0.2455725 0.2444828 0.243592 0.242899 0.2422914 0.2416423 0.2408808
 0.2399975 0.2390222 0.2379981 0.2369516 0.2358792 0.2347631 0.2335879 0.2323384 0.2309984 0.229562
 0.228038 0.2264441 0.2248079 0.2231602 0.2214979 0.2197488 0.2177859 0.2154743 0.2126996 0.209377
 0.2054704 0.2010291 0.1962059 0.1912252 0.1863107 0.1816308 0.1773002 0.1734122 0.1700558 0.1673104
 0.1652347 0.163857 0.1631729 0.163167 0.1638344 0.1651664 0.1671134 0.1695673 0.1723788 0.1753802
 0.1783975 0.1812675 0.1838834 0.186243 0.188432 0.1905269 0.1925176 0.1943396 0.1959569 0.1973782
 0.1986119 0.1996504 0.2005014 0.2012023 0.2017927 0.20229 0.2026995 0.2030373 0.2033302 0.2035938
 0.2038265 0.2040283 0.2042153 0.204409 0.2046209 0.2048515 0.2051001 0.2053793 0.2057185 0.2061414
 0.2066367 0.2071708 0.2077307 0.2083295 0.2089726 0.20965 0.2103709 0.21118 0.2121269 0.2132293
 0.2144677 0.2157997 0.2171698 0.2185068 0.2197245 0.2207394 0.2215009 0.2220056 0.2222859 0.2223851
 0.2223358 0.2221544 0.2218534 0.2214558 0.2209876 0.2204593 0.2198682 0.2192172 0.2185218 0.217801
 0.2170726 0.2163579 0.2156756 0.215025 0.214385 0.2137407 0.2131033 0.2124916 0.2119015 0.2113111
 0.2107129 0.2101218 0.2095517 0.2089955 0.2084314 0.2078337 0.2071763 0.2064368 0.2056039 0.2046793
 0.2036702 0.2025823 0.2014207 0.2001891 0.1988814 0.1974787 0.1959702 0.1943757 0.1927313 0.1910446
 0.1892735 0.1873662 0.1853265 0.1832346 0.1812028 0.1793128 0.17759 0.1760154 0.1745498 0.1731569
 0.1718201 0.1705385 0.1693124 0.1681426 0.1670347 0.1659868 0.1649814 0.1640065 0.1630811 0.1622438
 0.1615182 0.1608979 0.1603637 0.1599063 0.1595261 0.1592149 0.158961 0.1587771 0.1586958 0.1587209
 0.1588015 0.1588642 0.1588546 0.1587566 0.1585976 0.1584333 0.1583066 0.1582227 0.1581621 0.1580899
 0.1579456 0.1576456 0.1571025 0.1562437 0.1550391 0.1535268 0.1517997 0.14997 0.1481578 0.1464853
 0.1450459 0.1438836 0.1429991 0.1423512 0.141861 0.1414594 0.1411351 0.1409293 0.1408932 0.1410325
 0.1412597 0.1414281 0.1414679 0.1414717 0.1416151 0.1420142 0.1426618 0.1434491 0.1442329 0.1449125
 0.1454492 0.1458296 0.1460561 0.1461682 0.1462109 0.1461873 0.1460806 0.1458945 0.145642 0.1453342
 0.1449864 0.1445932 0.1441134 0.1435194 0.1428283 0.1420638 0.1412374 0.1403565 0.1393884 0.1382674
 0.1370255 0.1358812 0.1351286 0.1349604 0.1353838 0.1362307 0.1372671 0.1383461 0.1393931 0.1402299
 0.1406172 0.1406256 0.1408223 0.1418654 0.1438797 0.1463173 0.1484447 0.1498756 0.1506093 0.1507363
 0.1503033 0.1493686 0.147972 0.146084 0.1437107 0.1409652 0.137974 0.1348622 0.1318429 0.1291447
 0.1268742 0.1250494 0.1236643 0.1227417 0.1223887 0.1222212 0.1203443 0.1143326 0.1049775 0.09796016
 0.09907933 0.1077456 0.1173976 0.1224262 0.1226304 0.1209528 0.1194475 0.118442 0.1178519 0.1178379
 0.1185285 0.1197622 0.1211398 0.1222664 0.1229808 0.1233125 0.1232107 0.1223201 0.1199178 0.1151571
 0.1077479 0.09855866 0.08933707 0.08169598 0.07636833 0.07320975 0.0715768 0.07072056 0.07014976 0.06984142
 0.07010692 0.0712234 0.0732031 0.07588243 0.07908706 0.08258149 0.0859535 0.08877878 0.09093989 0.09262879
 0.09401055 0.09502631 0.09554481 0.09556501 0.09521592 0.09464527 0.09395789 0.09319964 0.09233405 0.09126941
 0.09000615 0.08876578 0.08786913 0.08744694 0.0873504 0.08735555 0.08735289 0.08733065 0.08729154 0.08722959
 0.08714747 0.08709756 0.08719973 0.08754672 0.08807473 0.08858903 0.08892839 0.08907601 0.08912314 0.08911618
 0.08892424 0.08835837 0.08749864 0.08672289 0.08622774 0.08569872 0.08472191 0.08341356 0.08236653 0.08200406
 0.08220136 0.08252398 0.08263664 0.08246617 0.0821777 0.08209538 0.08247831 0.08320515 0.08377204 0.08376072
</values></Ydata></ScRf><Data_Parameters_AB><parameter name="DPF">1</parameter><parameter name="NPT">3497</parameter><parameter name="FXV">3996</parameter><parameter name="LXV">500</parameter><parameter name="CSF">1</parameter><parameter name="MXY">0.0563046932220459</parameter><parameter name="MNY">-0.0773878768086433</parameter><parameter name="DAT">02/06/2022</parameter><parameter name="TIM">11:25:43.345 (GMT+2)</parameter><parameter name="DXU">WN</parameter></Data_Parameters_AB><AB__Qtest><MainReport name="Quality Test Report"><Header><Line><Legend>Test result ok/not ok [1/0]: </Legend><Value>0</Value></Line><Line><Legend>Method file: </Legend><Value>C:\Users\Public\Documents\Bruker\OPUS_8.2.28\QT\IRBT_v3_default.QT</Value></Line></Header><Matrix><Line><Legend></Legend><Legend>min</Legend><Legend>max</Legend><Legend>measured</Legend></Line><Line><Value>Absorption (X-Range 1):</Value><Value>0.400000</Value><Value>2.000000</Value><Value>0.067550</Value></Line><Line><Value>Noise (X-Range 4):</Value><Value></Value><Value>0.000300</Value><Value>0.000050</Value></Line><Line><Value>Signal/Noise (X-Range 2):</Value><Value>200.000000</Value><Value></Value><Value>27.189508</Value></Line><Line><Value>Signal/Noise (X-Range 3):</Value><Value>40.000000</Value><Value></Value><Value>28.094461</Value></Line><Line><Value>Water vapour (X-Range 5):</Value><Value></Value><Value>0.000300</Value><Value>0.000065</Value></Line><Line><Value>Signal/Water (X-Range 2):</Value><Value>100.000000</Value><Value></Value><Value>20.580473</Value></Line><Line><Value>Signal/Water (X-Range 3):</Value><Value>20.000000</Value><Value></Value><Value>21.265457</Value></Line><Line><Value>Fringes (X-Range 6):</Value><Value></Value><Value>0.000100</Value><Value>0.000076</Value></Line></Matrix></MainReport></AB__Qtest><Data_Parameters_ScSm><parameter name="DPF">1</parameter><parameter name="NPT">1814</parameter><parameter name="FXV">3996.33169228125</parameter><parameter name="LXV">499.541461535156</parameter><parameter name="CSF">1</parameter><parameter name="MXY">0.286239713430405</parameter><parameter name="MNY">0.0359719060361385</parameter><parameter name="DAT">02/06/2022</parameter><parameter name="TIM">11:25:43.345 (GMT+2)</parameter><parameter name="DXU">WN</parameter></Data_Parameters_ScSm><Data_Parameters_ScRf><parameter name="DPF">1</parameter><parameter name="NPT">1820</parameter><parameter name="FXV">4004.04661832813</parameter><parameter name="LXV">495.683998511719</parameter><parameter name="CSF">1</parameter><parameter name="MXY">0.264869272708893</parameter><parameter name="MNY">0.0306330174207687</parameter><parameter name="DAT">02/06/2022</parameter><parameter name="TIM">11:25:18.533 (GMT+2)</parameter><parameter name="DXU">WN</parameter></Data_Parameters_ScRf><Optic_Parameters_Rf><parameter name="APR">0</parameter><parameter name="APT">Open</parameter><parameter name="BMS">KBr</parameter><parameter name="DTC">RT-DLaTGS_IR-Biotyper [Microplate reader]</parameter><parameter name="HPF">0</parameter><parameter name="LPF">10.0</parameter><parameter name="LPV">4000</parameter><parameter name="PGR">0</parameter><parameter name="RCH">Module port</parameter><parameter name="RDX">0</parameter><parameter name="SRC">MIR</parameter><parameter name="VEL">10.0</parameter><parameter name="SON">Off</parameter></Optic_Parameters_Rf><Acquisition_Parameters_Rf><parameter name="ADT">1</parameter><parameter name="AQM">DD</parameter><parameter name="CFE">0</parameter><parameter name="COR">0</parameter><parameter name="DEL">0</parameter><parameter name="DLY">0</parameter><parameter name="HFW">8000</parameter><parameter name="LFW">0</parameter><parameter name="NSR">32</parameter><parameter name="PLF">AB</parameter><parameter name="RES">6</parameter><parameter name="RGN">-1</parameter><parameter name="STR">0</parameter><parameter name="TCL">MakeCompatibleScalar (0, {WSV=1.000000, ARV=0});</parameter><parameter name="TDL">37</parameter><parameter name="RPO">0</parameter></Acquisition_Parameters_Rf><FT_-_Parameters_Rf><parameter name="APF">B3</parameter><parameter name="HFQ">500</parameter><parameter name="LFQ">4000</parameter><parameter name="NLI">0</parameter><parameter name="PHR">24</parameter><parameter name="PHZ">ML</parameter><parameter name="SPZ">NO</parameter><parameter name="ZFF">1</parameter></FT_-_Parameters_Rf><Optic_Parameters_><parameter name="APR">0</parameter><parameter name="APT">Open</parameter><parameter name="BMS">KBr</parameter><parameter name="CHN">Module port</parameter><parameter name="DTC">RT-DLaTGS_IR-Biotyper [Microplate reader]</parameter><parameter name="HPF">0</parameter><parameter name="LPF">10.0</parameter><parameter name="LPV">4000</parameter><parameter name="PGN">0</parameter><parameter name="RDX">0</parameter><parameter name="SRC">MIR</parameter><parameter name="VEL">10.0</parameter><parameter name="SON">Off</parameter></Optic_Parameters_><FT_-_Parameters_><parameter name="APF">B3</parameter><parameter name="HFQ">500</parameter><parameter name="LFQ">4000</parameter><parameter name="NLI">0</parameter><parameter name="PHR">24</parameter><parameter name="PHZ">ML</parameter><parameter name="SPZ">NO</parameter><parameter name="ZFF">1</parameter></FT_-_Parameters_><Acquisition_Parameters_><parameter name="ADT">1</parameter><parameter name="AQM">DD</parameter><parameter name="CFE">0</parameter><parameter name="COR">0</parameter><parameter name="DEL">0</parameter><parameter name="DLY">0</parameter><parameter name="HFW">8000</parameter><parameter name="LFW">0</parameter><parameter name="NSS">32</parameter><parameter name="PLF">AB</parameter><parameter name="RES">6</parameter><parameter name="SOT">0</parameter><parameter name="TCL">MakeCompatibleScalar (0, {WSV=1.000000, ARV=0});</parameter><parameter name="TDL">37</parameter><parameter name="SPO">0</parameter><parameter name="SGN">-1</parameter></Acquisition_Parameters_><Instrument_Parameters_Rf><parameter name="HFL">15800.168544</parameter><parameter name="LFL">0</parameter><parameter name="LWN">15800.168544</parameter><parameter name="ABP">32197</parameter><parameter name="SSP">1</parameter><parameter name="ARG">2</parameter><parameter name="ASG">2</parameter><parameter name="ASS">32</parameter><parameter name="GFW">16</parameter><parameter name="GBW">16</parameter><parameter name="BFW">0</parameter><parameter name="BBW">0</parameter><parameter name="PKA">7269</parameter><parameter name="PKL">4996</parameter><parameter name="PRA">7448</parameter><parameter name="PRL">5001</parameter><parameter name="P2A">1</parameter><parameter name="P2L">1</parameter><parameter name="P2R">1</parameter><parameter name="P2K">1</parameter><parameter name="DAQ">0</parameter><parameter name="AG2">1</parameter><parameter name="SSM">1</parameter><parameter name="RSN">26045</parameter><parameter name="CRR">0</parameter><parameter name="SRT">1654169118.534</parameter><parameter name="DUR">19.6369934082031</parameter><parameter name="TSC">28.2</parameter><parameter name="MVD">0.229784280061722</parameter><parameter name="AN1">0.225817957985169</parameter><parameter name="AN2">0</parameter><parameter name="VSN">2.485 Apr  4 2017</parameter><parameter name="SRN">0085</parameter><parameter name="CAM">0</parameter><parameter name="INS">IR-Biotyper</parameter><parameter name="FOC">69</parameter><parameter name="RDY">1</parameter><parameter name="ARS">32</parameter></Instrument_Parameters_Rf><Sample_Parameters_><parameter name="BLD"></parameter><parameter name="CNM">Admin</parameter><parameter name="CPY"></parameter><parameter name="DPM"></parameter><parameter name="EXP">IRBT_v3_32Scans.XPM</parameter><parameter name="LCT"></parameter><parameter name="SFM">Microplate, HTS-XT</parameter><parameter name="SNM">220602-1054_ATH27F (D_1)_H2_26ee7f5d-1ad2-4ccd-98eb-1398f793ba7c.0</parameter><parameter name="XPP">C:\Users\Public\Documents\Bruker\OPUS_8.2.28\XPM</parameter><parameter name="IST">OK</parameter><parameter name="CPG">1252</parameter><parameter name="UID">a1718f22-10e2-42f0-a895-14a22e08fbcd</parameter></Sample_Parameters_><Instrument_Parameters_><parameter name="HFL">15800.168544</parameter><parameter name="LFL">0</parameter><parameter name="LWN">15800.168544</parameter><parameter name="ABP">32197</parameter><parameter name="SSP">1</parameter><parameter name="ASG">2</parameter><parameter name="ARG">2</parameter><parameter name="ASS">32</parameter><parameter name="GFW">16</parameter><parameter name="GBW">16</parameter><parameter name="BFW">0</parameter><parameter name="BBW">0</parameter><parameter name="PKA">7963</parameter><parameter name="PKL">4988</parameter><parameter name="PRA">8238</parameter><parameter name="PRL">4993</parameter><parameter name="P2A">1</parameter><parameter name="P2L">1</parameter><parameter name="P2R">1</parameter><parameter name="P2K">1</parameter><parameter name="DAQ">0</parameter><parameter name="AG2">1</parameter><parameter name="SSM">1</parameter><parameter name="RSN">13648</parameter><parameter name="CRR">0</parameter><parameter name="SRT">1654169143.345</parameter><parameter name="DUR">19.6369934082031</parameter><parameter name="TSC">28.2</parameter><parameter name="MVD">0.259482324123383</parameter><parameter name="AN1">0.225822050353675</parameter><parameter name="AN2">0</parameter><parameter name="VSN">2.485 Apr  4 2017</parameter><parameter name="SRN">0085</parameter><parameter name="CAM">0</parameter><parameter name="INS">IR-Biotyper</parameter><parameter name="FOC">69</parameter><parameter name="RDY">1</parameter></Instrument_Parameters_><History/></OPUSDataFile>
