<?xml version="1.0" encoding="UTF-8" ?>
<OPUSDataFile><AB><Ydata ylabel="Absorbance Units"><values byteorder="INTEL" format="FLOAT32" numvalues="3497"> -0.1025422 -0.1024713 -0.1024172 -0.1023804 -0.1023526 -0.1023334 -0.1023071 -0.1022737 -0.1022319 -0.1021846
 -0.1021492 -0.1021274 -0.1021367 -0.1021715 -0.1022297 -0.1023014 -0.1023692 -0.1024289 -0.102467 -0.1024885
 -0.1024917 -0.1024857 -0.1024747 -0.1024653 -0.1024611 -0.1024648 -0.1024779 -0.1024992 -0.1025291 -0.1025627
 -0.1025997 -0.1026328 -0.1026616 -0.1026799 -0.102688 -0.1026858 -0.1026747 -0.1026622 -0.1026498 -0.1026468
 -0.1026528 -0.1026723 -0.1027028 -0.1027428 -0.1027883 -0.1028348 -0.1028779 -0.1029125 -0.1029371 -0.1029489
 -0.1029508 -0.1029429 -0.1029291 -0.1029104 -0.1028893 -0.1028657 -0.102846 -0.1028303 -0.1028296 -0.1028445
 -0.1028766 -0.1029249 -0.1029734 -0.1030205 -0.1030471 -0.1030557 -0.1030446 -0.1030181 -0.1029861 -0.1029486
 -0.1029099 -0.10287 -0.1028283 -0.1027919 -0.1027652 -0.1027563 -0.1027744 -0.1028111 -0.1028693 -0.1029247
 -0.1029712 -0.1029946 -0.1029889 -0.1029698 -0.102937 -0.1029221 -0.102927 -0.102972 -0.1030564 -0.1031735
 -0.1033184 -0.1034592 -0.1035907 -0.1036751 -0.1037164 -0.1037019 -0.1036462 -0.1035674 -0.1034776 -0.1033996
 -0.1033351 -0.103295 -0.1032704 -0.1032602 -0.1032533 -0.1032435 -0.1032311 -0.1032135 -0.1032032 -0.1032021
 -0.1032168 -0.1032491 -0.1032897 -0.1033382 -0.1033813 -0.1034192 -0.1034498 -0.1034744 -0.1035003 -0.1035277
 -0.1035618 -0.1036006 -0.1036422 -0.1036838 -0.1037192 -0.1037481 -0.103767 -0.1037793 -0.1037871 -0.1037915
 -0.1037949 -0.1037934 -0.103785 -0.1037724 -0.1037528 -0.1037455 -0.1037518 -0.1037993 -0.1038921 -0.1040336
 -0.1042248 -0.1043903 -0.1045247 -0.104525 -0.1044044 -0.1041945 -0.1039164 -0.1036695 -0.1034543 -0.1033232
 -0.1032647 -0.1032868 -0.1033679 -0.1034892 -0.1036228 -0.1037387 -0.1038243 -0.1038589 -0.10386 -0.1038277
 -0.1037863 -0.1037443 -0.1037048 -0.1036701 -0.1036342 -0.1035958 -0.1035634 -0.1035373 -0.1035364 -0.1035605
 -0.1036133 -0.1036907 -0.1037688 -0.1038433 -0.103882 -0.1038893 -0.1038579 -0.1037983 -0.1037269 -0.1036474
 -0.1035704 -0.1034961 -0.1034254 -0.1033666 -0.1033229 -0.1033064 -0.1033241 -0.1033763 -0.1034677 -0.103577
 -0.1037032 -0.1038166 -0.1039139 -0.1039772 -0.1040052 -0.1039948 -0.1039464 -0.1038668 -0.1037577 -0.1036335
 -0.103497 -0.1033663 -0.1032453 -0.1031533 -0.1030923 -0.1030776 -0.1031013 -0.1031653 -0.1032476 -0.1033322
 -0.1033985 -0.1034258 -0.1034209 -0.1033768 -0.1033232 -0.1032671 -0.1032267 -0.1032082 -0.1032045 -0.1032159
 -0.1032333 -0.103256 -0.1032855 -0.1033218 -0.1033634 -0.1034088 -0.1034452 -0.1034728 -0.1034832 -0.1034808
 -0.1034721 -0.1034604 -0.1034557 -0.1034571 -0.1034675 -0.1034862 -0.1035118 -0.1035487 -0.103598 -0.1036666
 -0.1037591 -0.103872 -0.1040089 -0.1041458 -0.1042804 -0.1043847 -0.1044544 -0.1044859 -0.1044788 -0.1044325
 -0.1043466 -0.1042089 -0.1040236 -0.1038102 -0.1035801 -0.1033891 -0.1032424 -0.1031867 -0.1032083 -0.1033129
 -0.1034621 -0.1036096 -0.1037293 -0.1037727 -0.1037637 -0.1037001 -0.1036143 -0.1035217 -0.1034301 -0.103346
 -0.1032637 -0.1031829 -0.1031013 -0.1030179 -0.1029381 -0.102862 -0.1027993 -0.1027505 -0.1027267 -0.102728
 -0.1027621 -0.1028253 -0.1029091 -0.1030036 -0.1030763 -0.1031246 -0.1031229 -0.1030882 -0.1030319 -0.102968
 -0.1029175 -0.1028727 -0.1028377 -0.1027933 -0.1027305 -0.1026451 -0.1025302 -0.1024064 -0.1022755 -0.1021602
 -0.1020641 -0.1019918 -0.1019442 -0.1019093 -0.1018863 -0.1018597 -0.1018298 -0.1017905 -0.1017438 -0.1016946
 -0.1016453 -0.1016038 -0.1015725 -0.1015599 -0.1015663 -0.1015989 -0.1016476 -0.1017113 -0.1017647 -0.1017933
 -0.1017767 -0.1016979 -0.1015688 -0.1013863 -0.1011803 -0.1009562 -0.1007324 -0.1005128 -0.1002935 -0.1000748
 -0.09984391 -0.099601 -0.09934832 -0.09908925 -0.09884975 -0.09863274 -0.09846704 -0.09834684 -0.09827312 -0.09823467
 -0.09820916 -0.0981949 -0.09817983 -0.09816794 -0.09816426 -0.09815399 -0.09813358 -0.09807715 -0.09796711 -0.0978135
 -0.09761172 -0.09739438 -0.09716809 -0.09694631 -0.09673227 -0.09652208 -0.09631561 -0.09611174 -0.09591118 -0.09572931
 -0.09556808 -0.09545141 -0.09537611 -0.09534751 -0.0953484 -0.09533719 -0.09529437 -0.0951535 -0.0949343 -0.09462705
 -0.09427784 -0.09392811 -0.09359853 -0.09331804 -0.09307729 -0.09288199 -0.09270836 -0.09255041 -0.09239288 -0.09223039
 -0.09206628 -0.0919008 -0.09173319 -0.09156395 -0.09137317 -0.09115994 -0.09090582 -0.0906134 -0.09029347 -0.08995134
 -0.08961597 -0.08928908 -0.08899086 -0.08871883 -0.08847909 -0.08826502 -0.08807231 -0.08789013 -0.08770648 -0.0875167
 -0.08731133 -0.08710076 -0.08688718 -0.08667929 -0.08648373 -0.08628622 -0.08608648 -0.08586235 -0.08560909 -0.08533437
 -0.0850376 -0.08475386 -0.08448442 -0.08425096 -0.08405138 -0.08388024 -0.08373299 -0.08358797 -0.08344091 -0.08326763
 -0.08306943 -0.08283464 -0.08257378 -0.08229456 -0.08200973 -0.08173595 -0.0814733 -0.08123097 -0.08099049 -0.08074609
 -0.08048363 -0.08019347 -0.07989035 -0.07957361 -0.07926986 -0.0789831 -0.07872253 -0.07848968 -0.07827077 -0.07806483
 -0.07785078 -0.07762836 -0.07738576 -0.0771245 -0.0768443 -0.07654801 -0.07624259 -0.07593188 -0.07562635 -0.07532869
 -0.07504768 -0.07478176 -0.0745333 -0.07429786 -0.07407307 -0.0738566 -0.07364659 -0.07344322 -0.07324625 -0.07305576
 -0.07287203 -0.07269328 -0.07251983 -0.07234512 -0.07216888 -0.07197995 -0.07177784 -0.07155431 -0.07131038 -0.07105004
 -0.07077593 -0.07050198 -0.07022965 -0.06997123 -0.06972459 -0.06949206 -0.06926922 -0.06905027 -0.0688343 -0.06861632
 -0.0684033 -0.06819814 -0.06800687 -0.06783593 -0.0676759 -0.06752791 -0.06737033 -0.06719842 -0.06700176 -0.06677689
 -0.06653527 -0.06627718 -0.06602044 -0.06576573 -0.06552208 -0.06528948 -0.06507137 -0.06486804 -0.06468357 -0.0645166
 -0.06436715 -0.0642295 -0.0640929 -0.06395185 -0.06379213 -0.06361754 -0.06342444 -0.06322452 -0.06302571 -0.06283136
 -0.06264766 -0.06246338 -0.06227586 -0.06207861 -0.06186722 -0.06165619 -0.06144638 -0.06125449 -0.06108262 -0.06092194
 -0.06077147 -0.06060259 -0.06041517 -0.06019367 -0.05994356 -0.05968068 -0.05941264 -0.05917138 -0.05895743 -0.05878988
 -0.05865834 -0.05855748 -0.05847499 -0.05839511 -0.05831678 -0.05823337 -0.05815131 -0.05807368 -0.05799848 -0.05792768
 -0.05784899 -0.05775993 -0.05765361 -0.05752803 -0.05738743 -0.05723183 -0.05706821 -0.05689686 -0.05672161 -0.05654212
 -0.05635759 -0.05616695 -0.05596446 -0.05575022 -0.05551962 -0.05527786 -0.05503177 -0.05478946 -0.05456626 -0.05436395
 -0.05419155 -0.05404262 -0.05391513 -0.05380498 -0.05370818 -0.05362923 -0.05356916 -0.05352989 -0.05351422 -0.05350867
 -0.05351308 -0.05350488 -0.05348222 -0.05343237 -0.05335506 -0.05325399 -0.0531301 -0.05299306 -0.05284389 -0.05269139
 -0.05253814 -0.05239591 -0.0522677 -0.05216733 -0.05209054 -0.05204104 -0.05200285 -0.0519632 -0.05190537 -0.05181063
 -0.05168269 -0.05151266 -0.05133131 -0.05114463 -0.05098453 -0.0508618 -0.05077622 -0.05073183 -0.05069819 -0.05067311
 -0.05063587 -0.05058613 -0.05053752 -0.05049164 -0.05047095 -0.05047221 -0.05049246 -0.05052532 -0.05054842 -0.05056106
 -0.05054933 -0.0505194 -0.05047371 -0.05041925 -0.05036368 -0.05031197 -0.05027066 -0.05023905 -0.05022156 -0.0502038
 -0.05018417 -0.05014139 -0.05006826 -0.04996581 -0.04982962 -0.04969762 -0.04957185 -0.04949543 -0.04946978 -0.04949712
 -0.04957336 -0.04965925 -0.04975213 -0.04981622 -0.04985702 -0.04987282 -0.04986998 -0.04986315 -0.04985005 -0.0498339
 -0.04981057 -0.04977395 -0.04973122 -0.04968316 -0.04964392 -0.04962217 -0.04961997 -0.04964308 -0.04967461 -0.0497132
 -0.04973742 -0.04974316 -0.04972499 -0.04968102 -0.0496315 -0.04957771 -0.049554 -0.0495608 -0.04961821 -0.04972051
 -0.04985165 -0.0500016 -0.05012935 -0.0502317 -0.05027819 -0.05028044 -0.05023969 -0.05017504 -0.05010713 -0.05004648
 -0.0500096 -0.0499904 -0.04999187 -0.04999988 -0.05001032 -0.05001395 -0.05000768 -0.04998916 -0.04995799 -0.04991056
 -0.04984677 -0.04975887 -0.04964656 -0.04950712 -0.04934233 -0.04916758 -0.04898772 -0.04883571 -0.04871465 -0.04865504
 -0.04864947 -0.0487017 -0.04879148 -0.04889219 -0.04898384 -0.04903221 -0.04903877 -0.04898715 -0.04890767 -0.04880671
 -0.04872428 -0.04867626 -0.04868162 -0.04875156 -0.04886807 -0.04903292 -0.04920443 -0.04937932 -0.04952611 -0.04964346
 -0.04973122 -0.04979111 -0.04984201 -0.04988402 -0.04992832 -0.04997134 -0.05000723 -0.05003339 -0.05003889 -0.05002937
 -0.05000466 -0.0499816 -0.0499755 -0.05000523 -0.05009179 -0.05023596 -0.05044942 -0.05070502 -0.05099954 -0.05129633
 -0.05158604 -0.05184899 -0.05208004 -0.05227885 -0.05244469 -0.05258345 -0.0526955 -0.05279269 -0.05287632 -0.0529652
 -0.05305882 -0.05316589 -0.05328178 -0.0533948 -0.05350393 -0.05359757 -0.05368621 -0.05377983 -0.05388976 -0.05403607
 -0.05421136 -0.05442232 -0.05464069 -0.05485623 -0.05504076 -0.05518007 -0.05526936 -0.05530037 -0.05530176 -0.05527336
 -0.05526538 -0.05528219 -0.05535968 -0.05549945 -0.05569262 -0.05593558 -0.05618478 -0.05643789 -0.05665817 -0.05684993
 -0.05700745 -0.05713717 -0.05725138 -0.05735198 -0.05744737 -0.05753684 -0.0576212 -0.05770411 -0.0577869 -0.05787764
 -0.05798174 -0.05810033 -0.05823753 -0.05838059 -0.0585281 -0.05866529 -0.0587884 -0.0589002 -0.05899974 -0.05910577
 -0.05921919 -0.0593505 -0.0594986 -0.05965404 -0.05981506 -0.05996643 -0.06010931 -0.06023927 -0.06035886 -0.060472
 -0.06057935 -0.06068317 -0.06078481 -0.06088515 -0.06098943 -0.0611019 -0.06122578 -0.06136622 -0.06151495 -0.06167213
 -0.06182181 -0.06195944 -0.06207934 -0.0621783 -0.06226893 -0.06235158 -0.0624451 -0.06255044 -0.062675 -0.06281781
 -0.06297028 -0.06313049 -0.06328297 -0.06342786 -0.06355594 -0.06367169 -0.06378001 -0.06388655 -0.0640038 -0.0641309
 -0.06427406 -0.06442337 -0.06457471 -0.06471591 -0.06484006 -0.0649382 -0.06500534 -0.06503832 -0.06503269 -0.06500351
 -0.0649488 -0.06491099 -0.06489299 -0.06493935 -0.06505243 -0.06523468 -0.06548215 -0.06574743 -0.06602539 -0.06626064
 -0.06645611 -0.06658985 -0.06667351 -0.06672093 -0.06674647 -0.06677868 -0.06682695 -0.06691522 -0.06703828 -0.06720467
 -0.0673907 -0.06758823 -0.06777233 -0.06792997 -0.06805763 -0.06815016 -0.06822071 -0.06827157 -0.06830525 -0.06832316
 -0.06831027 -0.06826585 -0.06818621 -0.06807398 -0.06796033 -0.06785072 -0.06779474 -0.06779155 -0.06786918 -0.06801338
 -0.06820839 -0.06843341 -0.06864619 -0.06883926 -0.06898223 -0.06909334 -0.06917401 -0.06925049 -0.06934097 -0.06944692
 -0.06957755 -0.06970779 -0.06983281 -0.06993588 -0.07001125 -0.07007005 -0.0701124 -0.07015447 -0.07019717 -0.07023736
 -0.07027438 -0.07029735 -0.0703076 -0.07030728 -0.07029903 -0.07029425 -0.07029208 -0.07029712 -0.07030507 -0.07031025
 -0.07031148 -0.07030223 -0.07029193 -0.07028218 -0.07029279 -0.07033423 -0.07042152 -0.07056705 -0.07075748 -0.0709974
 -0.07124216 -0.07148685 -0.07168707 -0.0718364 -0.07192992 -0.07196695 -0.07198679 -0.07199223 -0.07203143 -0.07210273
 -0.07222304 -0.07238372 -0.07256364 -0.07275389 -0.07292142 -0.07306559 -0.07316851 -0.07323889 -0.07327804 -0.07329936
 -0.0733128 -0.07333074 -0.0733638 -0.07341354 -0.07348647 -0.07356506 -0.07364789 -0.07371103 -0.07374813 -0.0737614
 -0.07374823 -0.07374531 -0.07375461 -0.0738072 -0.07390167 -0.07402427 -0.07417034 -0.07430151 -0.07442094 -0.07451731
 -0.07460208 -0.07469971 -0.07481234 -0.0749598 -0.07512566 -0.07529983 -0.07546475 -0.07559965 -0.07570611 -0.07577708
 -0.07582629 -0.07585873 -0.07587835 -0.07588855 -0.07588156 -0.07585574 -0.07581107 -0.07574596 -0.0756807 -0.07561631
 -0.07558212 -0.07557863 -0.07561937 -0.07570075 -0.07580832 -0.07593623 -0.07605482 -0.07616208 -0.07623728 -0.07628382
 -0.07629821 -0.07628404 -0.07624486 -0.076181 -0.07609372 -0.07598332 -0.07584929 -0.07569559 -0.07552244 -0.07533776
 -0.07514286 -0.07494735 -0.07475349 -0.07456417 -0.07438116 -0.07418936 -0.07398813 -0.07374704 -0.07346506 -0.07312082
 -0.07271741 -0.07226254 -0.07176237 -0.07124457 -0.07071143 -0.07018402 -0.06965783 -0.06913505 -0.06860996 -0.06807529
 -0.06753121 -0.0669748 -0.06640942 -0.0658379 -0.06525638 -0.06466611 -0.06405433 -0.06341744 -0.06274913 -0.06204523
 -0.06132189 -0.06057866 -0.05985029 -0.05913872 -0.05848074 -0.05787802 -0.05736011 -0.0569278 -0.05660256 -0.05638186
 -0.05627224 -0.05626094 -0.05632578 -0.05644096 -0.05655595 -0.05664326 -0.05664829 -0.05656227 -0.05635495 -0.05604383
 -0.05562766 -0.05513399 -0.05457355 -0.05396299 -0.0533098 -0.05261603 -0.05188412 -0.05110601 -0.05028175 -0.04939641
 -0.04844907 -0.04742858 -0.04633536 -0.04517573 -0.04395114 -0.04267608 -0.04134765 -0.03996349 -0.0385173 -0.03698697
 -0.03538087 -0.03368708 -0.03196057 -0.03023295 -0.02863893 -0.02726698 -0.02632237 -0.0259373 -0.02627151 -0.02745088
 -0.02941024 -0.03220619 -0.03549201 -0.03924457 -0.04300414 -0.04672043 -0.05007191 -0.05303363 -0.05553606 -0.05758528
 -0.05928632 -0.06065194 -0.061817 -0.06278571 -0.0636444 -0.06439331 -0.06507435 -0.06569099 -0.06626714 -0.06680757
 -0.06732781 -0.06782877 -0.06831701 -0.06878945 -0.06924635 -0.06968387 -0.07010063 -0.07049377 -0.07086255 -0.07120401
 -0.071518 -0.0717994 -0.07204837 -0.07225277 -0.07241199 -0.07250823 -0.07254129 -0.07250495 -0.07240363 -0.07226274
 -0.0720906 -0.07193471 -0.07179768 -0.07171424 -0.07167307 -0.07167377 -0.07169476 -0.07171161 -0.07170188 -0.07163999
 -0.07150767 -0.07128879 -0.07096908 -0.07054181 -0.06998927 -0.06931048 -0.06846787 -0.06745797 -0.06622787 -0.06476621
 -0.06308877 -0.0611915 -0.05929776 -0.05743174 -0.05604075 -0.05514976 -0.05517867 -0.05607683 -0.05790424 -0.06051331
 -0.06356656 -0.06691138 -0.0701081 -0.07310767 -0.07565332 -0.07781134 -0.07954259 -0.08095353 -0.08209623 -0.08304708
 -0.0838501 -0.08454119 -0.08513759 -0.08565843 -0.08610865 -0.08650464 -0.08684821 -0.08715542 -0.08742731 -0.08767943
 -0.08791248 -0.08813863 -0.08835777 -0.08857546 -0.08879062 -0.08900245 -0.08920871 -0.08940364 -0.08958455 -0.08974328
 -0.08988013 -0.08999015 -0.09008069 -0.09015451 -0.09022381 -0.09029711 -0.09038074 -0.09048217 -0.09059155 -0.09071001
 -0.09081605 -0.09090549 -0.090966 -0.09099399 -0.09100224 -0.09099099 -0.09098741 -0.09099225 -0.09101902 -0.09106547
 -0.09112124 -0.091184 -0.09123667 -0.09128256 -0.09132035 -0.09135768 -0.09140936 -0.09147693 -0.09157216 -0.09168265
 -0.09180426 -0.09191772 -0.09200893 -0.09207032 -0.09209195 -0.09208668 -0.09205393 -0.09201667 -0.09197891 -0.09195723
 -0.09195468 -0.09197368 -0.09201488 -0.09206817 -0.09213287 -0.09219575 -0.09225678 -0.09230951 -0.09235487 -0.09239365
 -0.09242591 -0.09245226 -0.09247203 -0.09248333 -0.09248816 -0.09248752 -0.09248558 -0.09248714 -0.09249253 -0.09250486
 -0.09251785 -0.09252983 -0.09253482 -0.09252926 -0.09251751 -0.09249825 -0.09248665 -0.09248427 -0.09250344 -0.09254553
 -0.09260445 -0.0926792 -0.09274714 -0.09280743 -0.09284196 -0.09285388 -0.09284625 -0.09282435 -0.09280517 -0.09278962
 -0.09278928 -0.09279776 -0.09281205 -0.09282446 -0.09282503 -0.09281524 -0.09279021 -0.09276336 -0.09273845 -0.0927288
 -0.0927408 -0.09277304 -0.092828 -0.09289072 -0.09295992 -0.09302216 -0.09307623 -0.09311992 -0.09315331 -0.09318014
 -0.09320045 -0.09321617 -0.09322719 -0.09323356 -0.09323598 -0.09323609 -0.09323549 -0.09323793 -0.09324469 -0.09325931
 -0.09328128 -0.09331186 -0.09334849 -0.09339049 -0.09343375 -0.09347675 -0.09351517 -0.09354752 -0.09357091 -0.09358419
 -0.09358808 -0.09358207 -0.09357171 -0.09355722 -0.09354621 -0.09353895 -0.09354021 -0.09354921 -0.09356234 -0.09357771
 -0.0935846 -0.09358287 -0.09356471 -0.09353525 -0.09349942 -0.09346517 -0.09344625 -0.09344458 -0.09346926 -0.09351173
 -0.09357044 -0.09363355 -0.09369504 -0.09374951 -0.09379321 -0.09382894 -0.0938563 -0.09388031 -0.09390166 -0.09392257
 -0.09394339 -0.09396132 -0.09397616 -0.09398302 -0.09398213 -0.09397278 -0.09395625 -0.0939379 -0.09391887 -0.09390554
 -0.09389737 -0.09389672 -0.09390172 -0.09391101 -0.0939226 -0.09393446 -0.09394444 -0.09395049 -0.09395171 -0.09394675
 -0.09393739 -0.09392379 -0.09390797 -0.09389068 -0.0938709 -0.09384855 -0.09382301 -0.093794 -0.09376756 -0.09374412
 -0.0937338 -0.09373644 -0.09375563 -0.09378951 -0.0938317 -0.09388035 -0.09392654 -0.09397002 -0.09400607 -0.09403517
 -0.09405579 -0.09406931 -0.09407599 -0.09407862 -0.09407901 -0.09407921 -0.09408119 -0.0940833 -0.09408562 -0.09408562
 -0.09408239 -0.094077 -0.09406925 -0.09406272 -0.09405769 -0.09405557 -0.09405639 -0.09406023 -0.09406721 -0.09407865
 -0.09409432 -0.09411444 -0.09413771 -0.09416046 -0.09418169 -0.09419692 -0.09420788 -0.09421461 -0.09422025 -0.09422832
 -0.0942394 -0.09425586 -0.09427416 -0.09429346 -0.09431016 -0.09432246 -0.09433073 -0.09433454 -0.0943361 -0.09433571
 -0.0943343 -0.09433197 -0.09432936 -0.09432655 -0.09432596 -0.09432759 -0.09433297 -0.09434127 -0.0943495 -0.09435676
 -0.09435833 -0.09435485 -0.09434491 -0.09433077 -0.09431496 -0.09429944 -0.0942873 -0.09427874 -0.09427517 -0.09427484
 -0.09427752 -0.09428082 -0.09428371 -0.09428599 -0.09428729 -0.09428866 -0.0942904 -0.09429115 -0.09429099 -0.09428516
 -0.09427348 -0.09425283 -0.09422374 -0.09418952 -0.09415139 -0.09411711 -0.09408727 -0.09406812 -0.0940586 -0.09405998
 -0.09406977 -0.09408528 -0.09410378 -0.09412188 -0.09413721 -0.09414735 -0.09415045 -0.09414475 -0.09413058 -0.09410688
 -0.09407811 -0.09404443 -0.09401302 -0.09398499 -0.09396385 -0.09395021 -0.09394059 -0.0939348 -0.09392745 -0.09391877
 -0.09390838 -0.09389728 -0.09389047 -0.09388813 -0.0938941 -0.09390659 -0.09392411 -0.09394413 -0.0939621 -0.09397723
 -0.09398679 -0.09399184 -0.09399217 -0.09398929 -0.0939838 -0.09397681 -0.09396842 -0.09396125 -0.09395557 -0.09395517
 -0.09396069 -0.0939739 -0.09399528 -0.09402033 -0.09404872 -0.09407076 -0.09408611 -0.0940871 -0.09407482 -0.0940501
 -0.09401518 -0.0939774 -0.09393829 -0.09390475 -0.09387677 -0.09385744 -0.0938457 -0.09384213 -0.09384403 -0.09385031
 -0.09385695 -0.09386168 -0.09386238 -0.0938573 -0.09384861 -0.09383625 -0.09382348 -0.09381086 -0.09379924 -0.0937888
 -0.09377855 -0.09376846 -0.09375755 -0.09374592 -0.09373397 -0.09372227 -0.09371382 -0.09370916 -0.0937122 -0.0937215
 -0.09373669 -0.09375406 -0.09376779 -0.09377591 -0.09377321 -0.09376238 -0.09374316 -0.09372007 -0.09369548 -0.09367134
 -0.09364893 -0.09362832 -0.09360971 -0.09359334 -0.09357934 -0.09356711 -0.0935567 -0.0935456 -0.0935337 -0.09351885
 -0.09350125 -0.09348238 -0.09346276 -0.09344608 -0.09343214 -0.09342263 -0.09341611 -0.09341049 -0.09340423 -0.09339393
 -0.0933794 -0.09335878 -0.09333359 -0.09330398 -0.09327234 -0.09323967 -0.09320834 -0.09317949 -0.09315366 -0.09313131
 -0.09311153 -0.09309413 -0.09307928 -0.09306697 -0.09305839 -0.09305359 -0.09305027 -0.09304781 -0.09303822 -0.09302119
 -0.09299007 -0.09294655 -0.09289191 -0.09282941 -0.09276662 -0.09270596 -0.092655 -0.09261278 -0.09258199 -0.09255821
 -0.09253935 -0.09252115 -0.09250004 -0.09247732 -0.09245175 -0.09242957 -0.09241216 -0.09240293 -0.09240321 -0.092409
 -0.09242027 -0.0924296 -0.09243666 -0.09243786 -0.09243347 -0.09242528 -0.09241385 -0.092403 -0.09239302 -0.09238645
 -0.092384 -0.09238759 -0.09239982 -0.09242477 -0.0924661 -0.09252942 -0.0926163 -0.0927304 -0.09286928 -0.09303257
 -0.09321853 -0.09342555 -0.09365716 -0.09391394 -0.09419881 -0.09451412 -0.09484635 -0.09519589 -0.09552791 -0.09584057
 -0.09609921 -0.09630506 -0.09646051 -0.09656924 -0.09665823 -0.09671818 -0.09673665 -0.09669348 -0.09652697 -0.0962518
 -0.09584989 -0.09537891 -0.09489512 -0.09443639 -0.0940531 -0.09374531 -0.09352649 -0.09338623 -0.0933246 -0.09332891
 -0.09339941 -0.09350897 -0.09365607 -0.09380044 -0.09393808 -0.09404673 -0.09412523 -0.09417319 -0.09419071 -0.0941779
 -0.09413546 -0.09406688 -0.09397345 -0.0938619 -0.09373169 -0.09358381 -0.09342015 -0.09324203 -0.09305698 -0.09287354
 -0.09269699 -0.09253539 -0.09238601 -0.09225035 -0.09212213 -0.0919998 -0.09187747 -0.09175345 -0.09162433 -0.09148888
 -0.09134937 -0.09120549 -0.09106578 -0.09093068 -0.090808 -0.09069765 -0.09060115 -0.09051748 -0.09044179 -0.090373
 -0.09030453 -0.09023651 -0.09016551 -0.09009344 -0.09002221 -0.08995233 -0.08988627 -0.08982047 -0.08975302 -0.08968119
 -0.08960144 -0.08951879 -0.08943346 -0.08935313 -0.08928053 -0.0892154 -0.08915868 -0.08910402 -0.08905073 -0.08899757
 -0.08894448 -0.08889697 -0.0888551 -0.08882179 -0.08879594 -0.08877255 -0.08875046 -0.08872223 -0.08868923 -0.08865028
 -0.08860875 -0.08857001 -0.08853487 -0.0885077 -0.08848389 -0.08846167 -0.08843607 -0.08840281 -0.08836377 -0.08831772
 -0.08827139 -0.08822633 -0.08818621 -0.08815234 -0.08812222 -0.08809598 -0.08806784 -0.08803747 -0.08799919 -0.08795309
 -0.08789837 -0.08783635 -0.08777416 -0.0877132 -0.08766289 -0.08762193 -0.08759294 -0.08757151 -0.08755189 -0.08753035
 -0.08749974 -0.08746043 -0.08740936 -0.08735131 -0.08728754 -0.08722347 -0.08716189 -0.08710368 -0.08705021 -0.08699743
 -0.08694476 -0.08689003 -0.08683265 -0.08677685 -0.08672283 -0.08667625 -0.0866369 -0.08660356 -0.08657507 -0.08654371
 -0.08650921 -0.08646578 -0.08641554 -0.08636021 -0.08630275 -0.08624917 -0.08620019 -0.08615981 -0.0861251 -0.08609551
 -0.08606684 -0.08603649 -0.08600252 -0.08596336 -0.08591962 -0.08587097 -0.08581917 -0.08576436 -0.08570872 -0.08565239
 -0.08559855 -0.08554741 -0.08550144 -0.0854605 -0.08542348 -0.08538981 -0.08535521 -0.08531964 -0.08528032 -0.08523849
 -0.08519567 -0.08515292 -0.08511322 -0.08507548 -0.08503994 -0.08500446 -0.08496699 -0.08492764 -0.08488538 -0.08484263
 -0.0848 -0.08475941 -0.08472149 -0.08468725 -0.08465689 -0.08463144 -0.08461112 -0.0845953 -0.08458397 -0.08457334
 -0.08456312 -0.08454879 -0.0845303 -0.08450513 -0.08447343 -0.08443436 -0.08438818 -0.08433481 -0.08427523 -0.0842108
 -0.08414309 -0.08407434 -0.08400588 -0.08393925 -0.08387601 -0.08381693 -0.08376478 -0.08372083 -0.08368669 -0.08366391
 -0.0836484 -0.08364062 -0.08363026 -0.08361648 -0.08358956 -0.08354884 -0.08349421 -0.08342636 -0.08335581 -0.0832836
 -0.08322208 -0.08317028 -0.08313197 -0.08310396 -0.08308052 -0.0830588 -0.08303064 -0.08299677 -0.08295399 -0.08290639
 -0.08285602 -0.08280678 -0.08276203 -0.08272143 -0.08268652 -0.08265246 -0.08261867 -0.08257963 -0.0825341 -0.08248026
 -0.08241744 -0.08234929 -0.08227594 -0.08220515 -0.08213729 -0.0820797 -0.08203198 -0.08199584 -0.08196974 -0.08194894
 -0.08193183 -0.08191151 -0.08188851 -0.0818599 -0.08182875 -0.08179753 -0.08176883 -0.08174657 -0.08172874 -0.08171638
 -0.08170322 -0.08168707 -0.08166368 -0.08163069 -0.0815907 -0.08154327 -0.08149505 -0.08144674 -0.08140205 -0.08136128
 -0.08132281 -0.08128645 -0.08124838 -0.08120859 -0.08116504 -0.08111816 -0.08106856 -0.08101655 -0.08096327 -0.08090866
 -0.08085312 -0.08079647 -0.08073871 -0.08067959 -0.08061872 -0.08055658 -0.08049264 -0.08042976 -0.08036814 -0.08031335
 -0.08026706 -0.08023227 -0.08021057 -0.08019728 -0.08019248 -0.08018714 -0.08018072 -0.08016811 -0.08014938 -0.08012556
 -0.08009692 -0.08006598 -0.08003233 -0.07999583 -0.07995579 -0.07991019 -0.07985932 -0.07980225 -0.079741 -0.07967742
 -0.07961378 -0.07955275 -0.07949516 -0.07944235 -0.07939401 -0.07935 -0.07931122 -0.0792778 -0.07925084 -0.07923082
 -0.0792165 -0.07920812 -0.07920073 -0.07919411 -0.07918098 -0.079161 -0.07912769 -0.07908149 -0.07902147 -0.07894967
 -0.07887331 -0.07879457 -0.07872324 -0.07865893 -0.07860614 -0.07856174 -0.07852396 -0.07848938 -0.07845425 -0.07841727
 -0.07837595 -0.07833265 -0.07828704 -0.07824431 -0.07820602 -0.07817435 -0.07815078 -0.07812995 -0.07811175 -0.07808823
 -0.07805884 -0.07802192 -0.07797771 -0.07793081 -0.07788145 -0.0778336 -0.07778674 -0.07774089 -0.07769538 -0.07764824
 -0.07759958 -0.07754855 -0.07749572 -0.07744146 -0.07738626 -0.07733066 -0.07727493 -0.07721912 -0.07716423 -0.0771105
 -0.07705934 -0.07701132 -0.07696672 -0.07692588 -0.07688724 -0.0768507 -0.07681467 -0.07677904 -0.07674166 -0.07670233
 -0.07665743 -0.07660698 -0.07654908 -0.07648477 -0.07641702 -0.07634719 -0.07628044 -0.07621723 -0.07616092 -0.0761111
 -0.07606906 -0.07603304 -0.0760028 -0.07597419 -0.07594499 -0.07591131 -0.07587057 -0.0758226 -0.07576638 -0.07570471
 -0.07563769 -0.07556886 -0.07549849 -0.07543062 -0.07536553 -0.07530595 -0.07525177 -0.07520042 -0.07515122 -0.07509781
 -0.07504015 -0.07497419 -0.0749014 -0.07482304 -0.07474163 -0.07466206 -0.0745868 -0.0745215 -0.07446571 -0.07442216
 -0.0743858 -0.0743549 -0.07432365 -0.07428845 -0.07424941 -0.07420552 -0.07415966 -0.07411267 -0.07406332 -0.07401173
 -0.07395428 -0.07389064 -0.07382138 -0.07374679 -0.07367277 -0.07359974 -0.0735338 -0.0734743 -0.07342219 -0.07337563
 -0.07333016 -0.07328448 -0.07323357 -0.07317881 -0.0731198 -0.07305864 -0.07299779 -0.07293644 -0.07287516 -0.07281164
 -0.07274448 -0.07267444 -0.07260109 -0.07252719 -0.07245322 -0.07238079 -0.07231028 -0.07224115 -0.07217345 -0.07210505
 -0.07203586 -0.0719642 -0.07189047 -0.0718168 -0.07174402 -0.07167719 -0.0716159 -0.07156213 -0.07151372 -0.07146747
 -0.07142204 -0.07137404 -0.07132391 -0.07127102 -0.07121547 -0.07115725 -0.07109609 -0.07103162 -0.07096463 -0.07089557
 -0.07082339 -0.07074839 -0.07066688 -0.07057819 -0.07048237 -0.07037912 -0.0702774 -0.07017775 -0.07009135 -0.07001797
 -0.06996132 -0.06991961 -0.0698876 -0.06986269 -0.0698354 -0.06980321 -0.06975631 -0.06969514 -0.06961478 -0.06952103
 -0.06941686 -0.06930873 -0.06920227 -0.06909852 -0.06899998 -0.06890322 -0.06880741 -0.06871124 -0.06861366 -0.06851871
 -0.06842663 -0.06834186 -0.06826483 -0.06819497 -0.06813217 -0.06807374 -0.06801955 -0.06796807 -0.0679182 -0.06786488
 -0.06780606 -0.06773213 -0.06764486 -0.06754137 -0.0674286 -0.06731464 -0.06720439 -0.06710625 -0.06701908 -0.06694537
 -0.06688029 -0.06682287 -0.06676735 -0.06671206 -0.06665219 -0.06658637 -0.06651308 -0.06643178 -0.06634433 -0.06625082
 -0.06615316 -0.06605142 -0.06594659 -0.06583874 -0.06572896 -0.06561722 -0.06550375 -0.06538882 -0.06527261 -0.06515726
 -0.06504682 -0.06494351 -0.06485333 -0.06477359 -0.0647053 -0.06464127 -0.06457692 -0.0645084 -0.06443216 -0.06434982
 -0.06426144 -0.06416754 -0.06406835 -0.0639634 -0.06385212 -0.06373982 -0.06362669 -0.063522 -0.06342583 -0.06333726
 -0.06325436 -0.06316065 -0.06305461 -0.06291817 -0.06275656 -0.0625738 -0.06237913 -0.06219411 -0.06202045 -0.06187134
 -0.06174003 -0.06162509 -0.06151951 -0.06141739 -0.06131784 -0.06121865 -0.06112193 -0.06102884 -0.06093658 -0.06084609
 -0.06074659 -0.0606374 -0.06050438 -0.06034606 -0.06016185 -0.05995244 -0.05974084 -0.0595283 -0.05933687 -0.05916373
 -0.05900856 -0.05886617 -0.05872102 -0.05857042 -0.05839982 -0.05821365 -0.05800996 -0.05779934 -0.05759116 -0.0573931
 -0.05721573 -0.05705259 -0.05690717 -0.05675701 -0.05659636 -0.05640717 -0.05618169 -0.05593082 -0.05565376 -0.05537342
 -0.05509181 -0.05481456 -0.05454182 -0.05427185 -0.05400535 -0.05374882 -0.05350196 -0.05326888 -0.05304443 -0.05281615
 -0.05257818 -0.05231015 -0.05201653 -0.05169268 -0.05135084 -0.05100245 -0.05065211 -0.05030683 -0.04996581 -0.04962905
 -0.04930038 -0.04898064 -0.04867458 -0.04838538 -0.0481032 -0.04782985 -0.04753017 -0.04720174 -0.04681315 -0.04636432
 -0.04588261 -0.04537198 -0.04488274 -0.04441091 -0.04396431 -0.04353559 -0.0431062 -0.04267342 -0.04222335 -0.04175499
 -0.04126338 -0.04074207 -0.04018587 -0.03958123 -0.03891599 -0.03818714 -0.03738224 -0.03653496 -0.03564851 -0.03477225
 -0.0339192 -0.03310631 -0.03233935 -0.03160715 -0.0309098 -0.03022778 -0.02955969 -0.0288727 -0.02816405 -0.02738908
 -0.02655519 -0.02566683 -0.02474876 -0.02388688 -0.02307921 -0.02237141 -0.02172995 -0.02112333 -0.02053295 -0.01992414
 -0.01930434 -0.01866805 -0.01802586 -0.0173842 -0.01673878 -0.01608792 -0.01543546 -0.01478023 -0.01413714 -0.01350966
 -0.01289157 -0.01228279 -0.01167175 -0.01105869 -0.01046758 -0.00990095 -0.009395022 -0.008946073 -0.008555532 -0.008216457
 -0.007905875 -0.007625372 -0.007365943 -0.0071347 -0.006943317 -0.006781828 -0.006648073 -0.006521921 -0.006386552 -0.006237261
 -0.00606353 -0.005882336 -0.005695951 -0.005522852 -0.005368704 -0.005236369 -0.005127609 -0.005036074 -0.004961211 -0.004901774
 -0.00485787 -0.004837747 -0.00484161 -0.004874558 -0.004936193 -0.005026873 -0.005146831 -0.005298143 -0.005478552 -0.005686722
 -0.005914344 -0.006149206 -0.006384027 -0.006605587 -0.006814775 -0.007008756 -0.007187978 -0.007353586 -0.007499551 -0.007624023
 -0.007723411 -0.007795936 -0.007844373 -0.007869232 -0.007869656 -0.007845888 -0.007791421 -0.007705956 -0.007584862 -0.007428376
 -0.007236847 -0.007011163 -0.006755492 -0.006471372 -0.006165897 -0.005839791 -0.005498756 -0.005140821 -0.004766301 -0.004371003
 -0.003952127 -0.003502306 -0.00301814 -0.002485751 -0.001900297 -0.001242323 -0.0005060848 0.0003284439 0.00126758 0.002318446
 0.003486966 0.004740554 0.006080027 0.00742367 0.008766544 0.009997752 0.01110876 0.01197176 0.0125818 0.01283456
 0.01275358 0.01234938 0.01166826 0.01081303 0.009818687 0.008774421 0.007716201 0.00670915 0.005785585 0.004996496
 0.004326513 0.003790782 0.003330936 0.002935007 0.002540258 0.002126518 0.001679633 0.001187011 0.0007197132 0.0002828912
 -7.340738E-05 -0.0003471406 -0.0005489904 -0.0006790858 -0.0007418531 -0.0007355378 -0.0006507717 -0.0004904252 -0.0002526404 4.472702E-05
 0.0003836316 0.000698336 0.0009099214 0.0008899152 0.0004511488 -0.0004128233 -0.001816166 -0.003553517 -0.005548151 -0.007665222
 -0.00984188 -0.01201495 -0.01417304 -0.01620422 -0.01809199 -0.01975082 -0.02116718 -0.0223739 -0.02337298 -0.02425747
 -0.02503015 -0.02575227 -0.02642081 -0.02705052 -0.02763988 -0.02819042 -0.02870579 -0.02919393 -0.02966062 -0.03011747
 -0.03056986 -0.03102669 -0.03149411 -0.03197717 -0.03248652 -0.03303076 -0.03360885 -0.0342345 -0.0348462 -0.03543672
 -0.03593195 -0.03631135 -0.03660615 -0.03681508 -0.03700749 -0.03718663 -0.03737736 -0.03757712 -0.03776422 -0.03793593
 -0.03806483 -0.03815469 -0.03820533 -0.03821794 -0.03819796 -0.03813754 -0.03802641 -0.03785975 -0.03762549 -0.0373314
 -0.03697881 -0.03657678 -0.03613071 -0.03564434 -0.03512045 -0.03455918 -0.03396277 -0.03332019 -0.03263101 -0.0318767
 -0.03105293 -0.03018813 -0.0292843 -0.02845274 -0.02769786 -0.02710918 -0.0266786 -0.02640652 -0.02628481 -0.02628887
 -0.02641089 -0.02662699 -0.02691878 -0.02724981 -0.02760064 -0.02793738 -0.02824733 -0.02851051 -0.02872211 -0.02887052
 -0.02897175 -0.02902709 -0.02905824 -0.02907252 -0.02907156 -0.02905756 -0.02902097 -0.02896085 -0.02887423 -0.02876096
 -0.02862737 -0.02847371 -0.02830454 -0.02811959 -0.02791888 -0.02770355 -0.02747643 -0.02724119 -0.02700794 -0.02677845
 -0.02656304 -0.02635318 -0.02614691 -0.02592615 -0.0256782 -0.02538568 -0.02503506 -0.02462178 -0.02413903 -0.0235973
 -0.02299737 -0.02235052 -0.02165819 -0.02092935 -0.02016338 -0.01938961 -0.0186097 -0.0178785 -0.01719717 -0.0165969
 -0.01607281 -0.01561119 -0.01521016 -0.01485282 -0.01454784 -0.01430521 -0.01413729 -0.01407035 -0.01410566 -0.01425883
 -0.01451451 -0.0148683 -0.01529962 -0.01579609 -0.01634683 -0.01694493 -0.01758777 -0.01827613 -0.0189951 -0.0197459
 -0.02048982 -0.0212238 -0.02191322 -0.02255609 -0.02314932 -0.02369417 -0.02420658 -0.02468702 -0.02514649 -0.02558365
 -0.02599866 -0.02639236 -0.02676515 -0.02712234 -0.02747182 -0.02782005 -0.02817755 -0.02854708 -0.02893595 -0.02933852
 -0.02975693 -0.03017373 -0.03058527 -0.03096919 -0.03131833 -0.03162455 -0.0318833 -0.03210989 -0.03230479 -0.03248905
 -0.03266386 -0.03283178 -0.03299161 -0.03312707 -0.03323793 -0.0333137 -0.0333578 -0.03337711 -0.03337422 -0.03335903
 -0.03333134 -0.03329477 -0.03324949 -0.03319592 -0.03313741 -0.03307547 -0.03301647 -0.03296363 -0.03292319 -0.03289891
 -0.0328907 -0.03290035 -0.03292027 -0.03294993 -0.03298019 -0.03300994 -0.03303545 -0.03305643 -0.03307676 -0.03309704
 -0.03312673 -0.03316605 -0.03322238 -0.03329317 -0.03337464 -0.03346103 -0.03353653 -0.03359778 -0.03363026 -0.03363832
 -0.03361988 -0.0335841 -0.03353766 -0.03348664 -0.0334369 -0.03338839 -0.03334274 -0.03329701 -0.03325027 -0.03320278
 -0.03315377 -0.03310915 -0.03306932 -0.0330405 -0.03302311 -0.03301672 -0.03302094 -0.03302995 -0.03304366 -0.03305843
 -0.03307523 -0.03309596 -0.03312094 -0.03315286 -0.03318934 -0.03322835 -0.03326573 -0.03329572 -0.03331603 -0.03332187
 -0.03331611 -0.0332978 -0.03327428 -0.03324765 -0.03322499 -0.03320881 -0.03320143 -0.03320435 -0.03321272 -0.03322669
 -0.03323571 -0.03323917 -0.03322875 -0.03320466 -0.03316798 -0.03311994 -0.0330689 -0.03301548 -0.03296685 -0.03292171
 -0.0328811 -0.03284207 -0.03280066 -0.03275323 -0.03269364 -0.03262061 -0.0325298 -0.03242558 -0.03230803 -0.03218527
 -0.03206049 -0.03193857 -0.03182191 -0.03170975 -0.03160248 -0.03149756 -0.03139465 -0.03129375 -0.03119483 -0.03109971
 -0.03100838 -0.03092123 -0.03083778 -0.03075499 -0.03067263 -0.03058734 -0.03050118 -0.0304166 -0.03033785 -0.03027375
 -0.03022568 -0.03020088 -0.03019261 -0.03019926 -0.03021012 -0.03021751 -0.0302194 -0.03021096 -0.03020304 -0.0301975
 -0.03020341 -0.03022423 -0.03025263 -0.03028884 -0.03031775 -0.03033837 -0.03034861 -0.03034911 -0.03035081 -0.03035343
 -0.03036132 -0.03037168 -0.0303755 -0.03037169 -0.03035164 -0.03031881 -0.03027447 -0.0302242 -0.03017499 -0.03013137
 -0.03009999 -0.03008111 -0.03007814 -0.03008469 -0.03010001 -0.03011482 -0.03012607 -0.03013026 -0.03012553 -0.03011653
 -0.03010341 -0.0300921 -0.03008304 -0.03007611 -0.03007096 -0.03006152 -0.03004758 -0.03002409 -0.02999242 -0.02995505
 -0.02991369 -0.0298749 -0.0298371 -0.02980125 -0.02976339 -0.02971851 -0.02966554 -0.02960142 -0.02952782 -0.02944556
 -0.02935365 -0.02925242 -0.02913862 -0.029011 -0.02886991 -0.02871481 -0.02854918 -0.02837313 -0.02819137 -0.02800412
 -0.02781937 -0.02763746 -0.02746512 -0.0273013 -0.02714251 -0.02698655 -0.02682248 -0.02664994 -0.02646206 -0.02626079
 -0.02604625 -0.02582079 -0.02558675 -0.02534756 -0.02510595 -0.02486734 -0.02463529 -0.02441438 -0.02420791 -0.02401534
 -0.02383836 -0.02366923 -0.02350732 -0.02334298 -0.02317459 -0.02300174 -0.02282414 -0.02265128 -0.02248316 -0.02232065
 -0.0221617 -0.02199113 -0.02180897 -0.02160526 -0.02138589 -0.02116124 -0.02093631 -0.02072634 -0.02052925 -0.02034894
 -0.02018102 -0.02002321 -0.01987163 -0.01972493 -0.01957505 -0.01941881 -0.01924928 -0.01906193 -0.0188639 -0.01865437
 -0.0184503 -0.01825405 -0.01807102 -0.01790209 -0.01773136 -0.01755769 -0.0173581 -0.0171338 -0.01688009 -0.01660369
 -0.01632846 -0.01606183 -0.01583733 -0.01565379 -0.01552697 -0.01544631 -0.01540682 -0.01539369 -0.01539542 -0.01539221
 -0.01537071 -0.01531308 -0.0152057 -0.01505337 -0.01485093 -0.01462586 -0.0143823 -0.01414043 -0.01390406 -0.01367206
 -0.01344466 -0.01321706 -0.01298935 -0.0127644 -0.01254272 -0.01232939 -0.01212444 -0.01193061 -0.01174763 -0.01157633
 -0.01141596 -0.01126509 -0.01112461 -0.01099447 -0.0108774 -0.01077666 -0.01069123 -0.01062246 -0.01056513 -0.01051668
 -0.01047654 -0.01044383 -0.01042014 -0.01040652 -0.01039763 -0.0103929 -0.01038842 -0.01038358 -0.01038796 -0.01040205
 -0.0104362 -0.010489 -0.01055498 -0.01063166 -0.01070551 -0.01077597 -0.01083486 -0.01088232 -0.01091429 -0.01093283
 -0.01093695 -0.01093464 -0.01093173 -0.01093686 -0.01095897 -0.01099537 -0.01104975 -0.01110698 -0.01116425 -0.01120635
 -0.0112282 -0.01123258 -0.0112169 -0.01121101 -0.01121641 -0.01126957 -0.01137105 -0.01152733 -0.01173437 -0.01196427
 -0.01221385 -0.01245391 -0.01268637 -0.01290131 -0.01310265 -0.01329235 -0.01347549 -0.01365844 -0.0138476 -0.01405186
 -0.01427189 -0.01451238 -0.0147659 -0.01503042 -0.0153002 -0.01557278 -0.01584727 -0.01612365 -0.01639827 -0.01667085
 -0.01693697 -0.01719616 -0.01745005 -0.01769876 -0.0179453 -0.01818926 -0.01842859 -0.01866308 -0.01889061 -0.01911165
 -0.01932662 -0.01953566 -0.01973903 -0.01993724 -0.02013117 -0.02032078 -0.0205073 -0.02068727 -0.02085888 -0.02101968
 -0.021167 -0.02130494 -0.02143469 -0.02155707 -0.02167374 -0.02177552 -0.02186109 -0.02192776 -0.02197477 -0.02201621
 -0.02205264 -0.02209483 -0.02214144 -0.02218586 -0.02222748 -0.0222593 -0.02228363 -0.02230455 -0.02232156 -0.02233703
 -0.02234592 -0.02234133 -0.02232277 -0.02228502 -0.02223647 -0.02218012 -0.02212526 -0.02207824 -0.02203779 -0.0220066
 -0.02197278 -0.02193426 -0.02188339 -0.02181762 -0.02174732 -0.02167276 -0.02161186 -0.02156496 -0.02153445 -0.02151883
 -0.02150621 -0.02149673 -0.02148426 -0.02147098 -0.02146089 -0.02145349 -0.02145041 -0.02144857 -0.02144484 -0.02143593
 -0.02141841 -0.02138789 -0.0213402 -0.02127417 -0.02118563 -0.02108593 -0.02097607 -0.02087281 -0.02078112 -0.02070174
 -0.02063686 -0.02056903 -0.02049709 -0.02040873 -0.0203041 -0.0201937 -0.02007968 -0.01998549 -0.01991062 -0.01986708
 -0.01984863 -0.01984392 -0.01984671 -0.0198371 -0.01981819 -0.0197839 -0.01974459 -0.01970911 -0.01968134 -0.01966954
 -0.01966345 -0.01966247 -0.01965012 -0.01962134 -0.01956514 -0.01947737 -0.01935932 -0.01920918 -0.01904389 -0.0188641
 -0.01869598 -0.01854066 -0.0184159 -0.01832015 -0.01824877 -0.01819781 -0.01814622 -0.01809271 -0.0180208 -0.01793555
 -0.01783884 -0.01773641 -0.01763899 -0.01754412 -0.01745455 -0.01736311 -0.01726435 -0.01715888 -0.01704471 -0.01692747
 -0.01680975 -0.01668908 -0.01656557 -0.01643491 -0.0162951 -0.01615784 -0.01602345 -0.01591203 -0.01582416 -0.01576504
 -0.01573302 -0.01571593 -0.01571208 -0.01570778 -0.01570145 -0.0156821 -0.01564743 -0.01558664 -0.01550124 -0.01538616
 -0.01525135 -0.01510315 -0.01495372 -0.01481414 -0.01468751 -0.01457951 -0.01448353 -0.01439902 -0.0143187 -0.01424108
 -0.01416141 -0.01407943 -0.01398685 -0.01388308 -0.01375946 -0.01361588 -0.01345657 -0.01328342 -0.0131154 -0.0129537
 -0.01281475 -0.01269642 -0.01260167 -0.01252602 -0.01246275 -0.01240614 -0.01234556 -0.0122768 -0.01218989 -0.0120897
 -0.01197395 -0.0118568 -0.01174483 -0.0116452 -0.0115638 -0.01149212 -0.01142971 -0.01136684 -0.01130109 -0.01123668
 -0.01117343 -0.01112319 -0.01108628 -0.01106424 -0.01105536 -0.01104456 -0.0110297 -0.01099117 -0.01093086 -0.01084313
 -0.01073338 -0.01061158 -0.01047759 -0.010337 -0.01018378 -0.01001087 -0.009823654 -0.009617701 -0.009419193 -0.009237912
 -0.009097548 -0.009011636 -0.008973873 -0.008988931 -0.009025006 -0.009079303 -0.009120745 -0.009146398 -0.009141052 -0.009104135
 -0.009034554 -0.008933106 -0.008805671 -0.008654532 -0.008492725 -0.008324238 -0.008169108 -0.008027399 -0.007911624 -0.007812879
 -0.007723606 -0.007636423 -0.007537911 -0.007434642 -0.0073266 -0.007221936 -0.007128234 -0.007035288 -0.006942565 -0.006835404
 -0.006707845 -0.006567808 -0.006414037 -0.006269209 -0.006135375 -0.006021949 -0.005929164 -0.005849715 -0.00578314 -0.005721899
 -0.005666819 -0.005618486 -0.005577267 -0.00554569 -0.005521094 -0.005499586 -0.005477573 -0.005446966 -0.005409115 -0.00536181
 -0.005308968 -0.005254907 -0.005194427 -0.005127619 -0.005043991 -0.004938238 -0.004812847 -0.004665972 -0.004510226 -0.004347239
 -0.004184072 -0.004021095 -0.003869148 -0.003728969 -0.003621136 -0.003544647 -0.003499338 -0.003479105 -0.003451257 -0.003413995
 -0.003342216 -0.003243053 -0.003121439 -0.002979276 -0.002823902 -0.002648416 -0.002446265 -0.002218795 -0.00196064 -0.00168896
 -0.001406938 -0.001141949 -0.0009014247 -0.0007139827 -0.0005890078 -0.0005330797 -0.0005523399 -0.0006116697 -0.000709636 -0.0007996365
 -0.0008795935 -0.0009322687 -0.0009586426 -0.0009633249 -0.0009464281 -0.000909955 -0.0008542503 -0.000780374 -0.0006910963 -0.0005924164
 -0.0004877102 -0.0003830208 -0.0002848595 -0.0002012001 -0.0001392903 -0.0001099554 -0.0001056233 -0.0001287984 -0.0001583727 -0.0001865006
 -0.0002052144 -0.0002092521 -0.0002091313 -0.0002060055 -0.0002052203 -0.000207642 -0.0002103171 -0.0002131312 -0.0002151818 -0.0002155121
 -0.0002040966 -0.0001789154 -0.0001215184 -3.569085E-05 7.770558E-05 0.0002101754 0.0003413839 0.0004692594 0.0005806151 0.0006798531
 0.0007653647 0.0008458423 0.0009236488 0.001017013 0.001138564 0.001288534 0.001482646 0.001654521 0.001790294 0.001849356
 0.001813539 0.001756121 0.001681346 0.001656838 0.001685524 0.001761158 0.001879535 0.00199129 0.002095115 0.0021565
 0.002182283 0.002175354 0.002145713 0.002116848 0.002094674 0.002102707 0.00213026 0.002178445 0.002225363 0.002250929
 0.002255956 0.002229208 0.002201035 0.002179552 0.002186606 0.002232026 0.002307386 0.002414831 0.00252808 0.002645551
 0.002738257 0.002804763 0.002834402 0.002829588 0.002814727 0.002792489 0.002793476 0.002810974 0.002839232 0.002869498
 0.002874994 0.002862292 0.002830225 0.002785404 0.002740813 0.00268062 0.002594934 0.002479136 0.002321168 0.002148601
 0.001967349 0.00180264 0.001660924 0.001559666 0.001502006 0.001502907 0.00156633 0.001662414 0.001789494 0.00188564
 0.001952294 0.001985346 0.001994507 0.002035191 0.002107377 0.002242471 0.002429446 0.00265931 0.002921182 0.003198785
 0.00347237 0.003717709 0.003911722 0.004023025 0.004061924 0.004017399 0.003934167 0.003824386 0.003724822 0.003647457
 0.00360624 0.003606139 0.003643762 0.003720817 0.00380773 0.003902939 0.0039709 0.004012357 0.004026177 0.00401562
 0.004000304 0.003978279 0.003951262 0.003919786 0.00388302 0.003849451 0.003834858 0.003837797 0.00386441 0.003906235
 0.003953988 0.004018175 0.00410233 0.004213403 0.004362703 0.004515676 0.004667952 0.004782098 0.004848204 0.004873371
 0.004856493 0.004819094 0.00476228 0.004696905 0.004624981 0.004574454 0.004547937 0.004579818 0.004661666 0.0047846
 0.004934445 0.005070997 0.005193324 0.005280545 0.005340845 0.005377233 0.005391481 0.005388536 0.005359948 0.005304379
 0.005208077 0.005062303 0.004873873 0.004635023 0.00439875 0.004169994 0.004007083 0.003919119 0.003896256 0.003938312
 0.00398374 0.004031439 0.004051656 0.004048294 0.004031307 0.004000059 0.003956077 0.00389928 0.003826604 0.003747465
 0.003677557 0.003618998 0.003584883 0.003559949 0.003535995 0.003502985 0.003449848 0.003385485 0.0033093 0.003236059
 0.003170619 0.003115254 0.003073159 0.003026399 0.002973658 0.002899915 0.002804257</values></Ydata></AB><ScSm><Ydata ylabel="Single channel"><values byteorder="INTEL" format="FLOAT32" numvalues="1814"> 0.07702564 0.07703106 0.07711004 0.07728364 0.0775146 0.0777336 0.07788882 0.07797672 0.07801846 0.078017
 0.07797091 0.07792938 0.07798223 0.07816927 0.07842305 0.07861786 0.07867256 0.07862121 0.07859172 0.07868105
 0.07882319 0.07880893 0.0784822 0.07792063 0.07738563 0.07708094 0.07702585 0.07721257 0.07773496 0.07853745
 0.0791354 0.07896464 0.07809103 0.07724033 0.07698964 0.0772132 0.07742326 0.07732922 0.07693059 0.07641495
 0.07620327 0.07682377 0.07839118 0.08019519 0.08096128 0.07964624 0.07617755 0.07169983 0.06816445 0.06728305
 0.0693135 0.0727087 0.07527882 0.07593979 0.07523251 0.07421804 0.07334471 0.07257885 0.07212295 0.07244971
 0.07363856 0.07493669 0.07513963 0.07360822 0.07103276 0.06896156 0.06839893 0.06916679 0.07071242 0.07270998
 0.0742268 0.0732563 0.06869258 0.0628143 0.06025676 0.06360152 0.07062547 0.07649224 0.07805632 0.07558957
 0.07135025 0.06772113 0.06634299 0.06766164 0.07081424 0.07435603 0.07715475 0.07844812 0.07764233 0.07482406
 0.07126752 0.06881362 0.06873886 0.07126097 0.07548982 0.07949648 0.081194 0.07988937 0.07674349 0.07353802
 0.07150389 0.0713387 0.0733754 0.07721762 0.08172913 0.08571097 0.08839606 0.08949587 0.08923966 0.08823536
 0.08701311 0.0859502 0.08560374 0.0863584 0.0875317 0.08764306 0.08603379 0.08374687 0.08244787 0.08270337
 0.08353474 0.08360927 0.08258504 0.08087339 0.07831228 0.07417747 0.068831 0.06412612 0.06155186 0.06111581
 0.06246164 0.06543902 0.06879209 0.07008488 0.06836528 0.06585519 0.06572819 0.06873001 0.07280973 0.07564473
 0.07679003 0.07751778 0.07917234 0.08178569 0.08389218 0.08362263 0.08055674 0.07677257 0.07537785 0.07746065
 0.08105202 0.08356179 0.08451298 0.08524713 0.08657511 0.0875193 0.08632749 0.08254731 0.07815702 0.07635668
 0.07878286 0.08386536 0.08795713 0.08802893 0.08371162 0.07739636 0.07237078 0.0705387 0.07189758 0.07578109
 0.08159371 0.08816712 0.09346975 0.09574559 0.09479523 0.09186356 0.0882232 0.08399852 0.07885267 0.07395871
 0.07222535 0.07553408 0.08232342 0.08889456 0.09271048 0.0936531 0.09257204 0.08970562 0.08492775 0.07928893
 0.07552235 0.07591785 0.07956663 0.08288413 0.08337232 0.08189381 0.08080979 0.08101796 0.08162901 0.08181068
 0.08196598 0.08305577 0.08524397 0.08754431 0.08879033 0.08870058 0.08791977 0.08726025 0.08696292 0.08652729
 0.08541939 0.0841516 0.08420942 0.08642298 0.08981918 0.09261937 0.09401634 0.09445627 0.09445082 0.09368017
 0.09146535 0.08806241 0.08517694 0.08469461 0.086855 0.09011021 0.09273374 0.09405649 0.09428573 0.09387265
 0.0932109 0.09251584 0.09189512 0.09162431 0.09207083 0.09316869 0.09430884 0.09495232 0.09506857 0.09485466
 0.09435065 0.0935269 0.09256442 0.09185535 0.09171901 0.09216309 0.09293431 0.09374548 0.09437577 0.09462936
 0.09440719 0.09385438 0.09327058 0.09283693 0.09255967 0.09246052 0.09263177 0.09306045 0.09354938 0.09388501
 0.09400524 0.09396695 0.09382651 0.0936043 0.09332705 0.09306528 0.09292686 0.09298744 0.09319937 0.09341717
 0.09356353 0.09370866 0.09391428 0.09407608 0.09403232 0.09378572 0.09351381 0.09337656 0.09338973 0.09347048
 0.09352633 0.09347299 0.09322988 0.09279045 0.09231485 0.09206945 0.09221292 0.0926802 0.09328828 0.09387246
 0.09430599 0.09451272 0.09452737 0.09446658 0.09439513 0.0942748 0.09406423 0.09382515 0.09371033 0.0938473
 0.09422037 0.0946737 0.09504272 0.09526055 0.09534709 0.09536935 0.09542316 0.09556264 0.09571818 0.09576054
 0.09566914 0.09557066 0.09558984 0.09571015 0.09580339 0.09577788 0.09568276 0.09565754 0.09578244 0.09600413
 0.09621616 0.0963776 0.09652996 0.09671394 0.09688807 0.0969452 0.09682958 0.09662266 0.09646849 0.09642419
 0.09644236 0.09649199 0.09661408 0.09683141 0.09706767 0.09720931 0.09722967 0.09721206 0.09724307 0.09730959
 0.09732371 0.09723458 0.09708539 0.09696242 0.09691783 0.09694532 0.09700276 0.097042 0.09703075 0.09696463
 0.09686405 0.09675512 0.09665236 0.09656854 0.09654173 0.09662451 0.09681414 0.09700352 0.09704416 0.09688003
 0.09660698 0.09638503 0.09629262 0.09627199 0.09620956 0.09605222 0.09583864 0.09563795 0.09548548 0.09537534
 0.09528702 0.0952086 0.0951537 0.09516551 0.09527991 0.0954618 0.09559792 0.09558865 0.09544563 0.09527551
 0.09517445 0.09516074 0.09519479 0.09523293 0.09526686 0.09532866 0.09544463 0.09557807 0.09565172 0.09564021
 0.09560487 0.09562713 0.09574507 0.09595208 0.09620123 0.09640419 0.09648594 0.0964658 0.09644583 0.09650393
 0.09663025 0.096774 0.0969117 0.09705041 0.097197 0.09735596 0.09754644 0.09779555 0.09810866 0.09845394
 0.09877647 0.09902985 0.09921145 0.09937707 0.09960784 0.09994411 0.1003499 0.1007473 0.101084 0.1013677
 0.1016392 0.1019201 0.1021995 0.1024741 0.1027811 0.1031619 0.103604 0.1040488 0.1044556 0.1048342
 0.1052136 0.1056043 0.1059999 0.1064034 0.1068388 0.1073259 0.1078383 0.108302 0.1086568 0.1089168
 0.1091614 0.109474 0.1098888 0.1103636 0.1107927 0.1110857 0.1112643 0.111452 0.111739 0.1120876
 0.1124084 0.1126972 0.1130399 0.1134897 0.1139881 0.1144258 0.1147541 0.115018 0.1152916 0.1155948
 0.1158781 0.1160882 0.1162359 0.1163831 0.1165707 0.116794 0.1170556 0.117397 0.1178401 0.1183275
 0.118762 0.1190928 0.1193343 0.1195214 0.1196818 0.1198351 0.1199847 0.1201212 0.12025 0.1203926
 0.1205446 0.1206701 0.1207606 0.1208639 0.1210301 0.1212618 0.1215421 0.1218742 0.1222568 0.1226488
 0.1230074 0.1233544 0.123752 0.1242001 0.1246019 0.1248654 0.1250025 0.125093 0.1251853 0.1252867
 0.1254284 0.1256677 0.1260188 0.1264302 0.126843 0.1272385 0.1276259 0.1280066 0.1283595 0.1286457
 0.1288294 0.1289083 0.1289288 0.128969 0.1290983 0.1293372 0.1296435 0.1299412 0.130169 0.1302972
 0.1303064 0.1301868 0.1299772 0.1297748 0.1296591 0.1296001 0.1294718 0.1291585 0.1286292 0.1279102
 0.1270273 0.1260004 0.1248776 0.1237489 0.1227171 0.1218621 0.121234 0.1208802 0.1208622 0.1212162
 0.1218866 0.1227125 0.1234954 0.1240649 0.1242907 0.1240839 0.1234364 0.122443 0.1212509 0.1199849
 0.1187161 0.1174659 0.1162104 0.1149141 0.113607 0.1124332 0.1116104 0.1113547 0.1118555 0.1132661
 0.1156167 0.1186876 0.1220158 0.1251022 0.1276544 0.1296533 0.131238 0.1325724 0.1337854 0.1349428
 0.1360338 0.1370119 0.137867 0.1386409 0.1393716 0.1400537 0.1406527 0.1411368 0.1414965 0.1417525
 0.1419365 0.1420541 0.1420849 0.1420306 0.1419319 0.1418152 0.1416383 0.1413051 0.1407223 0.1398391
 0.1386618 0.1372804 0.1359388 0.1350916 0.135302 0.1369289 0.1398285 0.1433852 0.1468695 0.1497903
 0.1519884 0.1535337 0.1546015 0.1553825 0.1560211 0.1565986 0.1571531 0.157699 0.1582329 0.158743
 0.159224 0.1596855 0.1601488 0.1606289 0.1611115 0.1615577 0.1619454 0.1623013 0.1626812 0.1631194
 0.1635972 0.1640653 0.1644964 0.1649097 0.1653306 0.1657424 0.166105 0.1664129 0.1667065 0.1670298
 0.1674046 0.1678327 0.1682881 0.1687124 0.1690532 0.1693133 0.1695446 0.1697974 0.1700866 0.1704015
 0.1707278 0.1710556 0.1713798 0.171705 0.1720457 0.1724063 0.1727584 0.1730563 0.1732863 0.1734871
 0.1737124 0.1739798 0.1742652 0.1745376 0.174793 0.1750596 0.1753707 0.1757291 0.176095 0.176415
 0.1766646 0.1768648 0.177061 0.177289 0.1775571 0.1778493 0.17814 0.1784095 0.1786574 0.1789034
 0.1791694 0.1794575 0.1797497 0.1800268 0.1802851 0.1805356 0.1807919 0.1810604 0.1813429 0.1816455
 0.1819747 0.1823184 0.1826431 0.1829191 0.1831459 0.1833461 0.1835431 0.1837513 0.183978 0.1842237
 0.1844808 0.1847382 0.1849888 0.185234 0.185481 0.1857368 0.1860031 0.186275 0.1865436 0.1868008
 0.187048 0.1872987 0.1875664 0.1878471 0.1881217 0.1883764 0.1886145 0.1888493 0.189092 0.1893467
 0.1896075 0.1898628 0.1901072 0.190346 0.1905875 0.1908324 0.1910766 0.1913186 0.1915606 0.1918048
 0.1920515 0.1923006 0.1925517 0.1928041 0.193055 0.1933032 0.193551 0.1938 0.1940472 0.19429
 0.1945329 0.1947829 0.1950404 0.1952996 0.1955552 0.195807 0.1960574 0.1963061 0.1965496 0.1967869
 0.1970235 0.1972647 0.1975087 0.1977507 0.1979904 0.1982294 0.1984678 0.198706 0.1989445 0.1991835
 0.1994277 0.1996847 0.1999547 0.200227 0.2004918 0.200748 0.2009986 0.2012471 0.2014984 0.2017569
 0.2020229 0.2022929 0.2025624 0.2028268 0.2030822 0.2033239 0.2035476 0.2037568 0.2039648 0.2041809
 0.2044017 0.204621 0.2048409 0.205066 0.2052978 0.2055374 0.2057838 0.206032 0.2062765 0.2065155
 0.2067496 0.2069841 0.2072273 0.2074783 0.2077249 0.2079624 0.208199 0.2084401 0.2086824 0.2089258
 0.209173 0.2094227 0.2096732 0.2099271 0.2101842 0.2104397 0.2106923 0.2109424 0.2111875 0.2114304
 0.2116786 0.2119322 0.2121838 0.212432 0.2126803 0.2129291 0.2131776 0.2134241 0.2136647 0.2139
 0.2141367 0.2143754 0.2146105 0.2148466 0.2150931 0.2153444 0.2155908 0.2158372 0.21609 0.2163426
 0.2165889 0.2168321 0.2170727 0.217309 0.2175434 0.217774 0.2179976 0.2182255 0.2184683 0.2187002
 0.2188513 0.2187772 0.218143 0.2162804 0.2121574 0.2045817 0.1926804 0.1764515 0.1569513 0.1359184
 0.1151381 0.09598191 0.07926483 0.06533629 0.05425502 0.04591569 0.04012966 0.03673929 0.03573148 0.03736208
 0.04230083 0.05123802 0.06337027 0.07505351 0.08121893 0.07937591 0.0719915 0.06424032 0.0597077 0.05865911
 0.05957556 0.06115354 0.0629738 0.06526284 0.06841803 0.07255371 0.07748371 0.08320892 0.09014741 0.09859988
 0.1081186 0.1176961 0.1266272 0.135058 0.1436432 0.152752 0.1620741 0.170923 0.1787823 0.1855618
 0.1914817 0.1968337 0.2018221 0.206546 0.2110534 0.2153355 0.2192342 0.2224089 0.2245007 0.2254026
 0.2253876 0.2249573 0.2245498 0.2243694 0.2244372 0.2247221 0.225199 0.2258452 0.2266332 0.2275295
 0.22849 0.2294703 0.2304405 0.2313819 0.2322777 0.2331146 0.2338845 0.2345815 0.2352073 0.2357754
 0.2363016 0.2367921 0.2372482 0.2376721 0.2380677 0.2384401 0.2387952 0.2391319 0.239442 0.2397211
 0.2399738 0.2402072 0.2404285 0.240646 0.2408642 0.2410806 0.2412909 0.2414943 0.2416907 0.2418823
 0.2420757 0.2422762 0.2424824 0.2426921 0.2429054 0.2431183 0.2433212 0.2435093 0.2436897 0.2438727
 0.244065 0.2442681 0.2444754 0.2446747 0.2448594 0.2450375 0.245224 0.2454257 0.2456338 0.2458327
 0.2460187 0.2462065 0.2464109 0.2466293 0.2468507 0.2470712 0.2472899 0.2475011 0.2477046 0.2479097
 0.248116 0.2483044 0.2484594 0.2485931 0.24874 0.2489272 0.2491503 0.2493781 0.2495839 0.2497694
 0.2499525 0.2501419 0.2503325 0.2505141 0.2506857 0.2508679 0.25109 0.2513539 0.2516289 0.2518913
 0.252145 0.2523973 0.2526456 0.2528912 0.2531316 0.2533388 0.2534829 0.2535855 0.2537256 0.2539787
 0.2543434 0.2547315 0.2550481 0.2552773 0.255475 0.2557004 0.2559783 0.2562816 0.2565082 0.2565488
 0.2564485 0.2564365 0.2567148 0.2572548 0.2578546 0.2583466 0.2587033 0.2589853 0.2592463 0.25948
 0.259631 0.2596568 0.2596059 0.2596352 0.2599024 0.2604052 0.2609691 0.2614266 0.2617486 0.2619838
 0.2621708 0.2623332 0.262435 0.2623208 0.2618834 0.2613522 0.261227 0.2617916 0.2627924 0.2637085
 0.2642664 0.2645767 0.2648368 0.2650934 0.265301 0.2653638 0.2650151 0.2639722 0.2624823 0.2614715
 0.2617755 0.2632978 0.2651662 0.2665992 0.267399 0.2677686 0.267974 0.2681652 0.2682654 0.2679787
 0.2671158 0.2660256 0.2655099 0.2660797 0.2673816 0.2685822 0.2692252 0.2694724 0.2696551 0.2699031
 0.2700573 0.2696234 0.2680516 0.2655498 0.2634933 0.2634581 0.2656801 0.2687702 0.2710886 0.2721555
 0.2725224 0.2725669 0.2719412 0.2702067 0.2674881 0.2644122 0.261941 0.2612674 0.2630165 0.2662324
 0.2689206 0.2700195 0.2702922 0.2710357 0.2725252 0.2740116 0.2747141 0.2744349 0.2734158 0.2718985
 0.2700148 0.2682091 0.2674775 0.2686526 0.271392 0.2743045 0.2762362 0.2771483 0.2775146 0.2769617
 0.2739887 0.2677805 0.2604756 0.2565637 0.2589071 0.2657403 0.2725688 0.2765878 0.2782049 0.2789179
 0.2793252 0.2789695 0.2765846 0.2707636 0.2621506 0.2548591 0.2536969 0.2593999 0.2677994 0.273729
 0.2745718 0.2705442 0.2637411 0.2574907 0.2549956 0.2573954 0.2632813 0.2700883 0.2756294 0.2786795
 0.2789619 0.2770353 0.2742381 0.2723516 0.2723154 0.2728297 0.2713364 0.267253 0.2629558 0.2602848
 0.2576709 0.2530121 0.2482972 0.2482851 0.2543358 0.2621558 0.2666393 0.2670454 0.2660424 0.2648155
 0.2609852 0.252004 0.2399802 0.2317258 0.2327987 0.2417479 0.2514313 0.2560167 0.2556005 0.2540709
 0.2539096 0.2536832 0.2500891 0.2422909 0.2340598 0.2305916 0.2329528 0.2371076 0.2386565 0.2363282
 0.2303825 0.2211872 0.211771 0.2086923 0.2164593 0.2319568 0.2469225 0.2547608 0.2528821 0.2411176
 0.222657 0.2060466 0.2010211 0.2097458 0.2241737 0.2334729 0.2325987 0.223095 0.2084668 0.1918623
 0.1775922 0.1714446 0.1771619 0.1926978 0.2103878 0.2207294 0.2175638 0.2028765 0.187284 0.1823687
 0.1900925 0.2014602 0.2066417 0.2039175 0.1981538 0.1945176 0.1955172 0.2007053 0.2071483 0.2121309
 0.215303 0.2155789 0.2081907 0.1904324 0.1692944 0.1568902 0.157864 0.1669301 0.1785846 0.1920656
 0.2051747 0.2108511 0.2051493 0.1947819 0.1914717 0.1995141 0.2120818 0.2195998 0.2192399 0.2154647
 0.2130738 0.2120491 0.2099883 0.2077064 0.2094143 0.2169359 0.2265397 0.233095 0.2353923 0.2357051
 0.2359056 0.2360431 0.2356454 0.2345516 0.2328214 0.23086 0.2292949 0.2282353 0.2271468 0.2256195
 0.223353 0.2190493 0.2107559 0.1988184 0.1876643 0.1823654 0.1833209 0.1866447 0.1897465 0.1927581
 0.193373 0.1854452 0.1670655 0.1471318 0.1389019 0.1472229 0.1649223 0.1809376 0.1887731 0.1870895
 0.1764219 0.1593668 0.1432281 0.1377968 0.1474796 0.1671276 0.1875103 0.2031648 0.213134 0.2167945
 0.2129784 0.203082 0.1922884 0.1866682 0.1895031 0.1997996 0.2126544 0.220586 0.217162 0.2033412
 0.1903879 0.1916406 0.2085176 0.228183 0.2379725 0.238262 0.2374691 0.23897 0.2393429 0.2374541
 0.2381993 0.2456995 0.2571818 0.2657069 0.2662772 0.2578104 0.2424928 0.2263051 0.2175035 0.2200238
 0.229035 0.2362267 0.2378745 0.2343257 0.2250645 0.210878 0.1992072 0.1996405 0.2127709 0.2288727
 0.2389672 0.2430115 0.245874 0.248948 0.2484924 0.2413679 0.2303562 0.2224576 0.2219665 0.22669
 0.2315822 0.2340361 0.2339265 0.2306109 0.2233303 0.2145479 0.2099599 0.2135414 0.2234336 0.2337057
 0.2396803 0.2408506 0.2394169 0.2374682 0.2356065 0.2331662 0.2296098 0.226311 0.226286 0.2309425
 0.237783 0.2429399 0.2455974 0.2482735 0.2528797 0.2580985 0.2610003 0.2602541 0.2573961 0.2554782
 0.2566037 0.2602497 0.2636589 0.2641916 0.2618329 0.2594401 0.2601182 0.2642688 0.2695513 0.273539
 0.2756967 0.276874 0.2778736 0.2787648 0.278848 0.2771915 0.273952 0.2711511 0.2712389 0.2746572
 0.2794189 0.2831606 0.2850413 0.2856055 0.2855001 0.2847973 0.283371 0.2815109 0.2799339 0.2792252
 0.2794212 0.2801574 0.2810489 0.2818561 0.2824639 0.2828707 0.2831563 0.2833872 0.2835756 0.2837303
 0.2838618 0.2839257 0.2838606 0.2837244 0.2837041 0.2839145 0.2842462 0.2844763 0.2844694 0.2841864
 0.2835636 0.2825251 0.2811141 0.2794818 0.2777088 0.2757569 0.2737106 0.2720236 0.2713759 0.2721754
 0.2741887 0.276684 0.2789218 0.2805196 0.2814612 0.2819146 0.2820833 0.2821318 0.2821413 0.2821039
 0.281975 0.2817391 0.28142 0.2810462 0.2806354 0.280219 0.2798471 0.2795449 0.2792765 0.2789695
 0.278572 0.2780823 0.2775383 0.2769835 0.2764303 0.2758448 0.2751671 0.2743538 0.273409 0.2723845
 0.2713557 0.270387 0.2694997 0.2686584 0.2677999 0.2668769 0.2658589 0.2647011 0.2633742 0.2619507
 0.2606032 0.259466 0.2585222 0.2576516 0.2567428 0.2557332 0.2545952 0.2533364 0.2519969 0.2506164
 0.249209 0.2477744 0.2463114 0.2448074 0.2432303 0.2415494 0.2397644 0.2379086 0.2360222 0.2341245
 0.2321969 0.2301667 0.2279099 0.2252871 0.2221819 0.2185091 0.214227 0.2093853 0.2041558 0.1987848
 0.1935007 0.1884609 0.1837716 0.1795386 0.1758861 0.1729237 0.1707087 0.1692481 0.1685264 0.1685171
 0.1691875 0.170505 0.1724184 0.1748214 0.1775517 0.1804291 0.1832873 0.1859891 0.1884556 0.1906978
 0.1927957 0.1948184 0.1967595 0.198554 0.2001548 0.2015679 0.2028092 0.2038659 0.2047303 0.2054404
 0.206056 0.2066115 0.2071128 0.2075567 0.207936 0.2082449 0.2084912 0.2086977 0.2088873 0.2090743
 0.2092697 0.2094985 0.2098074 0.210242 0.210809 0.2114733 0.212192 0.2129388 0.2137075 0.2145101
 0.2153641 0.2162768 0.2172572 0.2183415 0.219579 0.2209891 0.222549 0.2242127 0.225918 0.2275775
 0.2290861 0.2303518 0.2313296 0.2320329 0.2325061 0.2327861 0.2328923 0.2328369 0.2326268 0.2322721
 0.231809 0.231291 0.2307468 0.2301678 0.2295418 0.2288712 0.2281601 0.2274109 0.2266392 0.2258714
 0.2251264 0.2244041 0.2236915 0.2229829 0.2222929 0.2216411 0.2210259 0.2204277 0.2198324 0.2192377
 0.2186391 0.2180176 0.2173326 0.2165304 0.2155817 0.2145095 0.2133582 0.2121406 0.2108351 0.2094252
 0.2079242 0.2063602 0.2047458 0.2030664 0.2013024 0.1994557 0.1975352 0.1955296 0.1934278 0.1912665
 0.1891275 0.1870881 0.1851889 0.1834342 0.1818009 0.1802557 0.1787778 0.1773641 0.1760159 0.1747322
 0.1735123 0.1723522 0.1712444 0.1701831 0.1691736 0.1682374 0.1674071 0.1667006 0.1661025 0.1655831
 0.1651273 0.1647312 0.1643937 0.1641327 0.1639813 0.1639389 0.1639439 0.1639142 0.1638049 0.1636227
 0.163403 0.1631817 0.1629786 0.1628029 0.1626587 0.1625237 0.162326 0.1619602 0.1613277 0.1603652
 0.1590585 0.157446 0.1556067 0.1536482 0.1517051 0.1499198 0.1483954 0.1471721 0.146239 0.1455419
 0.1449889 0.1444958 0.1440484 0.143719 0.1436104 0.1437494 0.1440129 0.1442008 0.1442231 0.1441898
 0.1442945 0.1446499 0.1452392 0.1459578 0.146672 0.1472798 0.1477419 0.1480558 0.1482289 0.1482823
 0.1482427 0.148123 0.1479309 0.1476813 0.1473814 0.1470308 0.14664 0.1462113 0.1457168 0.1451311
 0.1444532 0.1436741 0.1427757 0.1417676 0.1406602 0.1394323 0.1381236 0.1369383 0.1361644 0.1359814
 0.1363618 0.1371125 0.1380101 0.1389339 0.1398239 0.140502 0.1407281 0.1405936 0.1407137 0.1417769
 0.1438735 0.1463854 0.1485399 0.1499552 0.1506476 0.1507212 0.1502288 0.1492216 0.1477319 0.1457357
 0.1432505 0.1403987 0.1373193 0.1341441 0.1310748 0.1283252 0.1259951 0.1240929 0.1226033 0.121561
 0.1210988 0.1208501 0.1189345 0.1129359 0.1036257 0.0966486 0.09778909 0.1064557 0.1160676 0.1210067
 0.1211078 0.1193661 0.117859 0.1169037 0.116384 0.1164285 0.1171668 0.1184641 0.1199214 0.1211132
 0.121868 0.1222363 0.122182 0.1213484 0.1190085 0.1143117 0.1069725 0.09787952 0.08878261 0.08125798
 0.07600871 0.07290477 0.07132694 0.07052454 0.0699908 0.0696881 0.06992017 0.07098092 0.07291549 0.07556504
 0.07872423 0.0821367 0.08540595 0.08814277 0.09025703 0.09193845 0.09332296 0.09433415 0.09485033 0.09486735
 0.0944847 0.0938448 0.09309051 0.09230125 0.09144048 0.09040166 0.08916746 0.08794066 0.08703397 0.08657739
 0.08642046 0.08635706 0.08631835 0.08630908 0.08630532 0.0862778 0.08622831 0.08619651 0.08627804 0.08656991
 0.08703873 0.08751039 0.08782665 0.08796561 0.08800992 0.08801185 0.08787006 0.08741393 0.08669475 0.08603733
 0.08560985 0.0851104 0.0841555 0.08287363 0.08183971 0.08146262 0.08164165 0.08198738 0.0821861 0.08214342
 0.08196466 0.08190314 0.0821979 0.08279318</values></Ydata></ScSm><ScRf><Ydata ylabel="Single channel"><values byteorder="INTEL" format="FLOAT32" numvalues="1820"> 0.06050519 0.06065358 0.06075411 0.06080491 0.06082276 0.06084559 0.06091811 0.06106112 0.06125256 0.06143787
 0.06156706 0.06162908 0.06164381 0.0616253 0.06158071 0.06154811 0.06159271 0.06174094 0.06193734 0.06208296
 0.06211629 0.06206807 0.06204233 0.06211536 0.06223083 0.06221862 0.06195337 0.06149827 0.06106383 0.06081517
 0.06076946 0.06091931 0.06133664 0.06197599 0.06245153 0.06231263 0.06161093 0.06092743 0.06072635 0.06090858
 0.06108389 0.06102037 0.0607164 0.0603146 0.06014099 0.06061547 0.06184098 0.06326583 0.06387798 0.06283816
 0.06007999 0.0565139 0.05369604 0.05298919 0.05459818 0.0572943 0.05933838 0.05986829 0.05931308 0.05851601
 0.05783139 0.05722708 0.05685961 0.05710544 0.05803273 0.05904891 0.05920161 0.0579854 0.05594624 0.05430729
 0.0538605 0.05446362 0.05568029 0.05725559 0.05845407 0.05768602 0.05406923 0.0494031 0.04736547 0.05001708
 0.05560433 0.06028269 0.06153828 0.05957863 0.05620521 0.05332197 0.05223159 0.05327784 0.05577043 0.05856896
 0.06078339 0.06180865 0.0611676 0.05892859 0.05610934 0.05417358 0.05412664 0.0561316 0.05948262 0.06265795
 0.06400552 0.06296934 0.0604645 0.05790774 0.05628292 0.05614612 0.0577606 0.06081312 0.06440407 0.06757872
 0.06971794 0.07058298 0.07035784 0.06954223 0.06857415 0.0677503 0.06749264 0.06809268 0.0690145 0.06909531
 0.0678159 0.06600045 0.06496839 0.06516933 0.06582752 0.06588659 0.06507525 0.06371786 0.06168459 0.05840221
 0.05416018 0.05042957 0.04839101 0.04804985 0.04912641 0.05150855 0.05420144 0.05525854 0.05390391 0.05189454
 0.05176357 0.05412276 0.05735366 0.05961119 0.06053628 0.061132 0.06245966 0.06454267 0.06621917 0.06600678
 0.06357077 0.06056023 0.05944518 0.06109349 0.06394324 0.0659373 0.06669927 0.06729948 0.06838302 0.06916764
 0.06825405 0.06527956 0.06181473 0.06039892 0.06233049 0.06636601 0.06961469 0.06967197 0.06624287 0.06122927
 0.05725048 0.05582438 0.0569469 0.06008215 0.06475382 0.07003917 0.0743313 0.07622761 0.07554457 0.07325127
 0.07036431 0.06700043 0.06289966 0.0589975 0.05762346 0.06029619 0.06577535 0.07109638 0.07421874 0.07504209
 0.0742413 0.07199406 0.06818476 0.06366008 0.06064486 0.06101323 0.06403951 0.06681082 0.06728365 0.06614602
 0.06531647 0.06553207 0.06607503 0.0662729 0.06646199 0.06743143 0.06931125 0.07128544 0.07239021 0.07238914
 0.0718115 0.07133178 0.07115421 0.07086437 0.07001819 0.06904195 0.06916746 0.07107751 0.07395832 0.07633321
 0.07753736 0.07795128 0.07801264 0.07746223 0.07572581 0.07299556 0.07067959 0.0703575 0.07224597 0.07505772
 0.07734017 0.07852508 0.07878976 0.07852224 0.07805802 0.07757641 0.07716165 0.07703713 0.0775065 0.07851519
 0.07955426 0.08017107 0.08033893 0.08022335 0.07985893 0.07922441 0.07847972 0.077962 0.07793984 0.07841192
 0.07915605 0.07992738 0.08054246 0.08083631 0.08071814 0.0803053 0.07985947 0.07955068 0.07939251 0.07939747
 0.07963406 0.08008554 0.08057989 0.08093061 0.08108526 0.08110237 0.08104146 0.0809201 0.08075109 0.08059046
 0.08053857 0.08066635 0.08092429 0.08117568 0.08135881 0.08155271 0.08182016 0.08205772 0.08210057 0.08193824
 0.0817336 0.08164228 0.08168387 0.08178245 0.08185797 0.08184496 0.08167806 0.08134902 0.08099335 0.08084233
 0.08103665 0.08152382 0.0821455 0.08274946 0.08320998 0.08345218 0.08350985 0.08348987 0.08344706 0.08334623
 0.08315989 0.08295797 0.08288439 0.08304992 0.08343419 0.08389239 0.08426891 0.08449429 0.08458722 0.08462487
 0.08471316 0.0849022 0.08510782 0.08518934 0.08512556 0.08504868 0.08508371 0.08520738 0.08529143 0.08525786
 0.0851673 0.08515352 0.08528388 0.08550173 0.08570485 0.08585548 0.08600131 0.08619517 0.08640082 0.08649695
 0.08640408 0.08619381 0.08602239 0.08596526 0.08598021 0.08602851 0.086145 0.08635397 0.08658182 0.08671407
 0.0867228 0.08669388 0.08672059 0.08679581 0.0868271 0.08674525 0.08657628 0.08641165 0.08632992 0.08634709
 0.08641908 0.08647894 0.08648036 0.08642013 0.08632734 0.08623368 0.08615492 0.08610542 0.08612432 0.08625956
 0.08649647 0.08671449 0.08675937 0.08658359 0.08630262 0.08609337 0.08603488 0.0860524 0.08600926 0.08583906
 0.0855869 0.0853436 0.08516297 0.08504035 0.08494483 0.08485869 0.08479887 0.08481084 0.08492193 0.08508009
 0.08515984 0.08506575 0.08482784 0.08457033 0.08439555 0.08432145 0.08430871 0.08430987 0.08430486 0.08431711
 0.08437844 0.08446246 0.08448914 0.08441888 0.08430746 0.08425048 0.08430727 0.08447925 0.08470633 0.08487561
 0.0848958 0.0847902 0.08467889 0.08465548 0.0847142 0.08480039 0.08488633 0.08497629 0.08507214 0.08517005
 0.08528431 0.08544724 0.08567441 0.08593685 0.0861744 0.08633962 0.08643696 0.08652571 0.08667935 0.08692969
 0.0872429 0.08754867 0.0877956 0.08798606 0.08816116 0.08835237 0.08855551 0.08875966 0.08898352 0.08925758
 0.08957738 0.08990361 0.09020723 0.09049107 0.09076904 0.09104693 0.09132831 0.09162908 0.0919804 0.09240352
 0.09286448 0.09326719 0.09352595 0.09365152 0.09374896 0.09393271 0.09424721 0.09464025 0.09499098 0.09519768
 0.09527674 0.09535591 0.09553812 0.09579842 0.09605184 0.0962925 0.09660436 0.0970342 0.09750605 0.09788626
 0.09811298 0.09824525 0.09839065 0.09859373 0.09880092 0.09893797 0.09900682 0.09907962 0.09920672 0.09937715
 0.09958103 0.09985542 0.1002269 0.1006441 0.1010149 0.1012931 0.1014972 0.1016608 0.1017978 0.1019021
 0.101958 0.1019662 0.1019695 0.1020247 0.1021337 0.1022343 0.10228 0.102299 0.102355 0.1024816
 0.10268 0.1029469 0.1032632 0.1035763 0.1038451 0.1041023 0.1044221 0.1048038 0.1051363 0.1053166
 0.105367 0.1053866 0.1054228 0.1054578 0.1055029 0.1056244 0.1058617 0.1061775 0.1065105 0.1068397
 0.1071784 0.1075279 0.1078529 0.1080953 0.108214 0.1082218 0.1081863 0.1081928 0.1083023 0.1085275
 0.1088315 0.1091498 0.1094267 0.109629 0.1097308 0.1097206 0.1096443 0.1096108 0.1097049 0.1098933
 0.1100423 0.110033 0.1098373 0.1094853 0.1090006 0.1083959 0.1077152 0.1070473 0.1064877 0.1060926
 0.1058768 0.1058505 0.1060426 0.1064678 0.1070756 0.1077548 0.1083942 0.1089136 0.1092342 0.1092677
 0.1089752 0.1084164 0.1077141 0.1069835 0.1062995 0.1056893 0.1051252 0.1045626 0.1040316 0.1036815
 0.1037091 0.1042388 0.1052619 0.1066473 0.1081833 0.1096443 0.1108774 0.111857 0.1126563 0.1133629
 0.1140247 0.1146656 0.1153138 0.1159816 0.1166313 0.117204 0.1176836 0.1181081 0.1185148 0.1189032
 0.1192483 0.1195294 0.1197511 0.1199485 0.1201522 0.1203385 0.1204398 0.1204236 0.120333 0.1202319
 0.1201313 0.1199852 0.1197375 0.1193663 0.1189138 0.118503 0.1183174 0.1185263 0.1191931 0.120237
 0.1214908 0.1228022 0.124076 0.1252318 0.1261766 0.1268542 0.1273 0.1276135 0.1278858 0.1281641
 0.1284614 0.1287726 0.1290819 0.1293741 0.1296467 0.1299153 0.1302079 0.1305403 0.1308909 0.1312084
 0.1314629 0.1316848 0.131944 0.1322831 0.1326746 0.1330506 0.1333747 0.133674 0.1339868 0.1342982
 0.1345555 0.134743 0.1349098 0.1351234 0.1354183 0.1357842 0.136173 0.1365164 0.136768 0.1369405
 0.1370908 0.1372667 0.1374797 0.1377208 0.1379799 0.1382457 0.1385058 0.1387609 0.1390302 0.1393257
 0.1396206 0.1398608 0.1400208 0.140139 0.140284 0.1404897 0.1407311 0.1409614 0.1411646 0.1413714
 0.1416252 0.1419308 0.1422389 0.1424868 0.1426535 0.1427727 0.1428972 0.1430595 0.1432622 0.1434904
 0.1437227 0.1439403 0.1441371 0.1443237 0.1445168 0.1447219 0.1449309 0.145135 0.1453356 0.1455412
 0.1457564 0.1459773 0.1462001 0.1464348 0.1467001 0.1469939 0.1472785 0.1475077 0.147669 0.1477907
 0.1479107 0.1480509 0.1482157 0.1483994 0.1485931 0.148791 0.1489929 0.1492002 0.1494114 0.1496239
 0.1498366 0.1500486 0.1502576 0.150462 0.1506653 0.1508767 0.1511042 0.1513456 0.1515857 0.1518058
 0.1519966 0.1521651 0.1523292 0.1525044 0.1526928 0.1528871 0.1530806 0.1532727 0.1534658 0.1536618
 0.1538609 0.1540608 0.1542588 0.1544549 0.154649 0.1548393 0.1550262 0.1552144 0.1554077 0.1556033
 0.1557962 0.1559848 0.156171 0.1563585 0.1565515 0.1567529 0.1569618 0.1571721 0.1573767 0.1575741
 0.1577704 0.1579719 0.1581766 0.1583787 0.1585765 0.1587723 0.1589666 0.1591595 0.1593515 0.1595428
 0.1597354 0.1599356 0.1601473 0.1603659 0.1605843 0.1608002 0.161013 0.16122 0.1614211 0.161622
 0.1618299 0.1620477 0.1622736 0.1625012 0.1627256 0.1629479 0.1631712 0.1633919 0.1635999 0.1637871
 0.1639534 0.1641099 0.164272 0.1644468 0.1646289 0.1648114 0.1649917 0.1651682 0.1653396 0.1655128
 0.1657002 0.1659073 0.1661279 0.1663488 0.1665596 0.1667598 0.1669565 0.1671539 0.1673501 0.1675458
 0.1677455 0.167949 0.1681521 0.1683558 0.1685637 0.1687735 0.1689794 0.1691785 0.1693733 0.169571
 0.1697796 0.1699968 0.1702128 0.1704251 0.170639 0.1708539 0.171065 0.1712744 0.1714876 0.1717029
 0.1719143 0.1721188 0.1723175 0.1725169 0.1727253 0.1729412 0.1731556 0.1733677 0.1735835 0.1737995
 0.1740076 0.1742105 0.1744174 0.1746339 0.1748642 0.1751071 0.1753493 0.1755762 0.1757869 0.1759877
 0.1761853 0.1763887 0.1765971 0.1767842 0.1768983 0.1768333 0.1763235 0.1748262 0.1715011 0.1653798
 0.1557528 0.1426127 0.1268102 0.1097559 0.09290493 0.07737434 0.06382373 0.0525348 0.04355818 0.03681268
 0.03214367 0.02941258 0.02859739 0.02990587 0.03389434 0.041136 0.05098326 0.06047734 0.06550126 0.06402758
 0.05805143 0.05176838 0.0480874 0.0472264 0.04795993 0.04923843 0.0507237 0.05259654 0.05517802 0.05856073
 0.06259 0.06726148 0.07291329 0.07979327 0.08754513 0.09535763 0.1026585 0.1095586 0.1165805 0.1240206
 0.1316307 0.1388595 0.1452907 0.1508474 0.1557054 0.1601066 0.164223 0.1681294 0.1718527 0.1753838
 0.1786016 0.1812299 0.1829686 0.183726 0.1837324 0.1834074 0.1831082 0.1829909 0.1830669 0.1833184
 0.1837363 0.184301 0.18498 0.1857393 0.1865459 0.1873723 0.1882025 0.189022 0.1898049 0.1905256
 0.1911754 0.1917627 0.192304 0.1928148 0.1932999 0.1937533 0.1941726 0.1945655 0.1949385 0.1952895
 0.1956152 0.195917 0.1962008 0.1964716 0.1967282 0.1969642 0.1971784 0.1973824 0.1975891 0.1978021
 0.1980179 0.198233 0.1984433 0.1986454 0.1988408 0.1990361 0.199237 0.1994456 0.1996588 0.1998681
 0.2000663 0.2002551 0.2004412 0.200629 0.2008203 0.2010138 0.2012024 0.2013771 0.2015389 0.2017017
 0.2018824 0.2020881 0.202311 0.2025344 0.2027495 0.202963 0.2031826 0.2033998 0.2036019 0.2037921
 0.2039869 0.2041981 0.2044255 0.204659 0.2048781 0.205062 0.2052104 0.2053495 0.2055122 0.2057125
 0.2059365 0.2061566 0.2063591 0.2065555 0.2067645 0.2069874 0.2072068 0.2074022 0.2075706 0.2077384
 0.2079427 0.2081891 0.2084447 0.2086809 0.2089029 0.209129 0.2093666 0.2096139 0.2098575 0.2100674
 0.2102215 0.2103437 0.2105031 0.2107611 0.2111145 0.2114894 0.2118072 0.2120553 0.2122795 0.2125229
 0.212795 0.2130669 0.2132609 0.2133017 0.2132356 0.2132519 0.2135147 0.214001 0.2145467 0.2150129
 0.2153706 0.2156624 0.2159288 0.2161642 0.2163207 0.2163607 0.2163269 0.216359 0.2166013 0.2170632
 0.2175998 0.2180565 0.2183897 0.2186324 0.2188235 0.218994 0.2191199 0.2190679 0.2187383 0.2183175
 0.2182319 0.2187325 0.2196108 0.220424 0.2209364 0.2212408 0.2215056 0.2217715 0.2219992 0.2221066
 0.2218694 0.2210482 0.2198467 0.2190396 0.21933 0.2206408 0.2222457 0.2234963 0.2242293 0.2246081
 0.2248446 0.2250576 0.2251806 0.2249693 0.2242757 0.2234029 0.2230266 0.2235717 0.2247351 0.2258089
 0.2264047 0.226663 0.2268742 0.2271544 0.2273652 0.2270777 0.2258145 0.2237469 0.2220447 0.2220509
 0.2239677 0.2266204 0.2286285 0.2295932 0.2299778 0.2300894 0.229623 0.2282073 0.2259572 0.2234116
 0.2213827 0.2208734 0.2224134 0.2252008 0.2275489 0.2285534 0.2288558 0.2295546 0.2308873 0.2322221
 0.2328925 0.2327206 0.2319082 0.230668 0.22912 0.2276424 0.2270813 0.228145 0.2305429 0.2330961
 0.2348307 0.2357126 0.236127 0.2357347 0.2332508 0.2279932 0.2218039 0.2185266 0.2206082 0.2265373
 0.2324673 0.2359978 0.2374787 0.2381898 0.2386339 0.2384114 0.2364399 0.2315203 0.224206 0.2180258
 0.2171116 0.2220997 0.2294057 0.2345823 0.2353781 0.2319842 0.2262076 0.2209127 0.2188515 0.2210027
 0.2261581 0.232116 0.2369952 0.2397397 0.2401058 0.2385601 0.2362401 0.234684 0.2347216 0.2352464
 0.2340521 0.2306323 0.2270356 0.2248408 0.2226785 0.2187353 0.2147593 0.2148967 0.22032 0.2272739
 0.2313042 0.2317701 0.2310033 0.2300386 0.226805 0.2190906 0.208742 0.2017045 0.2028231 0.2108166
 0.2194329 0.22358 0.2233644 0.2222053 0.2222691 0.2222719 0.2192903 0.2125915 0.2055232 0.202684
 0.2050095 0.208926 0.2105459 0.2087385 0.2037116 0.1957782 0.1876397 0.1851448 0.1923203 0.2064096
 0.2200626 0.2273854 0.2260257 0.2157874 0.1995142 0.184905 0.1807503 0.1890163 0.202444 0.2112485
 0.2108617 0.2026609 0.1897997 0.1751314 0.1626033 0.1575457 0.1634381 0.1784383 0.1954815 0.2057289
 0.2033861 0.1902558 0.1762763 0.1723425 0.1803001 0.191649 0.1971003 0.1950328 0.1900586 0.1871044
 0.1886104 0.1941767 0.2009689 0.2063612 0.2100148 0.2108124 0.2040025 0.1868939 0.1663631 0.1543396
 0.1554183 0.1644387 0.1760292 0.1894652 0.2025606 0.2083033 0.202767 0.1925835 0.189347 0.1972983
 0.2096736 0.2169973 0.216477 0.2125415 0.2099637 0.2087538 0.2065524 0.2041637 0.2057347 0.2130597
 0.2224703 0.2289343 0.2312782 0.231743 0.2321663 0.2325875 0.2325254 0.2318076 0.2304922 0.2289906
 0.2279474 0.2275096 0.2271929 0.22663 0.2255267 0.2224887 0.215328 0.2041321 0.1932313 0.1877743
 0.1882617 0.1908757 0.1931422 0.1953657 0.195345 0.1869113 0.1680886 0.1477565 0.1391929 0.1472526
 0.1647533 0.1806421 0.188461 0.1868983 0.1764594 0.1596301 0.1435205 0.1376858 0.1463559 0.1643632
 0.1826391 0.1960284 0.2039641 0.2061724 0.2016301 0.191587 0.180858 0.1751055 0.1773497 0.186592
 0.1981968 0.2051681 0.201541 0.1882495 0.1757735 0.176485 0.1917108 0.2095889 0.2184026 0.2184774
 0.2175841 0.2188635 0.2191815 0.2174955 0.2183155 0.2254531 0.2363805 0.2447153 0.2458228 0.2386482
 0.2251669 0.2109036 0.2035 0.2065453 0.2154391 0.2223594 0.2238253 0.2202282 0.2112025 0.1976051
 0.1864683 0.186764 0.1990037 0.2140528 0.2235113 0.2273566 0.2301491 0.2331833 0.2329452 0.2264793
 0.2163701 0.2091655 0.2089004 0.2135477 0.2184144 0.221094 0.2214803 0.2189321 0.2126764 0.2050056
 0.2013098 0.2053643 0.2153904 0.2257088 0.2318083 0.2331422 0.2317644 0.2296701 0.2274787 0.2246081
 0.2205837 0.2167462 0.2160056 0.2197404 0.2256044 0.2299342 0.231948 0.2340153 0.2379338 0.2424532
 0.2447997 0.2437063 0.240608 0.2383727 0.2389947 0.2420252 0.2449172 0.2451976 0.2428193 0.2404309
 0.2409377 0.2447264 0.249614 0.2533327 0.2553781 0.2565325 0.2575282 0.2584096 0.2585095 0.2569609
 0.2539253 0.2512968 0.251354 0.2544975 0.2588654 0.2622533 0.2638962 0.2643408 0.2642215 0.2636029
 0.2623393 0.2606743 0.2592668 0.2586642 0.2589007 0.2596269 0.2604734 0.2612182 0.2617668 0.2621246
 0.2623615 0.2625349 0.2626649 0.2627787 0.2628995 0.2629821 0.2629513 0.2628416 0.2628191 0.2629997
 0.2633045 0.2635446 0.2635916 0.2633907 0.2628672 0.2619507 0.2606943 0.2592568 0.2577226 0.2560469
 0.2542866 0.2528492 0.2523672 0.2532262 0.2552112 0.2576385 0.2598194 0.2614037 0.2623811 0.2628981
 0.2631195 0.2631839 0.2631827 0.2631415 0.2630305 0.2628134 0.262491 0.2621029 0.2616963 0.2613052
 0.260955 0.2606625 0.2604145 0.260161 0.2598456 0.2594423 0.2589647 0.2584466 0.2579134 0.2573562
 0.2567297 0.2559848 0.2551135 0.2541644 0.2532199 0.2523494 0.251566 0.2508231 0.2500626 0.249255
 0.2483795 0.2473921 0.2462668 0.2450779 0.2439865 0.2431116 0.2424273 0.2418055 0.2411296 0.2403491
 0.2394609 0.2384851 0.237457 0.2364046 0.2353281 0.2342104 0.2330368 0.2317947 0.2304683 0.2290473
 0.2275326 0.2259404 0.224309 0.2226839 0.2210612 0.2193471 0.2173918 0.215056 0.2122379 0.2088666
 0.2049194 0.2004565 0.19563 0.1906479 0.1857215 0.1810261 0.1766955 0.1728328 0.169518 0.166809
 0.1647451 0.163354 0.1626576 0.1626738 0.1634086 0.1648319 0.1668604 0.1693633 0.1721826 0.1751497
 0.1780995 0.1808905 0.1834407 0.1857587 0.187923 0.1899987 0.1919718 0.1937782 0.1953803 0.1967864
 0.19801 0.1990462 0.199893 0.2005731 0.2011294 0.2016057 0.2020313 0.2024182 0.2027665 0.2030672
 0.2033069 0.2034835 0.2036188 0.2037531 0.2039261 0.2041591 0.2044493 0.2047819 0.2051536 0.2055776
 0.2060621 0.2065984 0.2071733 0.2077796 0.2084111 0.2090664 0.2097662 0.2105578 0.211492 0.2125937
 0.213848 0.2152082 0.2166101 0.2179733 0.2192013 0.2202059 0.220944 0.2214272 0.221698 0.2217998
 0.2217587 0.22158 0.2212685 0.2208492 0.220361 0.2198313 0.2192697 0.2186791 0.2180588 0.217404
 0.2167174 0.2160172 0.215325 0.2146487 0.2139836 0.2133277 0.2126891 0.2120766 0.2114877 0.2109116
 0.2103435 0.209784 0.2092296 0.2086712 0.2081035 0.2075179 0.2068873 0.2061738 0.2053541 0.2044303
 0.2034139 0.2023134 0.2011346 0.1998805 0.1985458 0.1971202 0.1956001 0.1939957 0.1923235 0.1905907
 0.1887825 0.1868737 0.1848691 0.1828327 0.1808626 0.1790312 0.177352 0.1757911 0.1743029 0.1728646
 0.1714883 0.1701934 0.1689749 0.1678142 0.1667094 0.1656694 0.1646886 0.1637542 0.1628731 0.1620712
 0.161365 0.1607468 0.1601959 0.1597002 0.1592652 0.1589042 0.1586321 0.1584688 0.1584274 0.1584812
 0.1585594 0.1585897 0.1585393 0.158422 0.1582836 0.158169 0.1580912 0.1580341 0.1579805 0.1579068
 0.1577562 0.157446 0.156896 0.1560405 0.1548432 0.1533275 0.1515788 0.1497143 0.1478611 0.1461452
 0.1446669 0.1434843 0.1426097 0.1419945 0.1415362 0.1411472 0.1408225 0.1406272 0.1406255 0.1408079
 0.1410557 0.1412088 0.1412169 0.141207 0.1413707 0.1418107 0.1424934 0.143291 0.1440595 0.144713
 0.1452319 0.1456096 0.1458405 0.1459558 0.1460007 0.1459802 0.1458761 0.145691 0.1454395 0.1451297
 0.1447715 0.1443655 0.1438912 0.1433349 0.142697 0.141963 0.1411209 0.1401933 0.1391894 0.1380737
 0.1368754 0.1357837 0.1350642 0.1348989 0.1352981 0.1360978 0.1370704 0.1380898 0.1391067 0.1399451
 0.1403421 0.1403484 0.1405378 0.141587 0.1436226 0.1460801 0.1482109 0.1496318 0.1503567 0.1504866
 0.1500631 0.1491241 0.1476836 0.1457005 0.1432 0.1403334 0.1372532 0.1340808 0.1310117 0.128262
 0.1259336 0.1240457 0.1225997 0.1216256 0.1212326 0.1210398 0.1191651 0.1131971 0.1039257 0.09700832
 0.09820473 0.1068932 0.116512 0.1214846 0.1216449 0.1199498 0.1184533 0.1174816 0.1169466 0.1170011
 0.1177682 0.1190813 0.1205319 0.1217227 0.122509 0.1229367 0.1229433 0.1221399 0.1197853 0.1150484
 0.1076683 0.09852893 0.08936927 0.08178064 0.07647999 0.0733249 0.07168622 0.07082451 0.07024725 0.06992822
 0.07018012 0.07128198 0.07324709 0.07591456 0.07911187 0.08260398 0.08598721 0.08885145 0.0910721 0.09280225
 0.09417583 0.09515171 0.0956431 0.09566212 0.09530739 0.09469961 0.09395652 0.09315774 0.0922807 0.09122016
 0.0899609 0.08872129 0.0878199 0.08738036 0.08725815 0.08725183 0.08726778 0.08728208 0.08727234 0.08722346
 0.08714721 0.08710451 0.08721407 0.08756383 0.08808781 0.08859348 0.0889237 0.089059 0.08907624 0.08901608
 0.08878012 0.08823522 0.08747625 0.08682529 0.0864106 0.0859067 0.08493234 0.08361895 0.08254759 0.08214404
 0.08231385 0.0826523 0.08283168 0.08276114 0.08255783 0.08247961 0.08275582 0.08331978 0.0837718 0.08374973
</values></Ydata></ScRf><Data_Parameters_AB><parameter name="DPF">1</parameter><parameter name="NPT">3497</parameter><parameter name="FXV">3996</parameter><parameter name="LXV">500</parameter><parameter name="CSF">1</parameter><parameter name="MXY">0.0128345582634211</parameter><parameter name="MNY">-0.104525022208691</parameter><parameter name="DAT">27/05/2022</parameter><parameter name="TIM">11:50:49.569 (GMT+2)</parameter><parameter name="DXU">WN</parameter></Data_Parameters_AB><AB__Qtest><MainReport name="Quality Test Report"><Header><Line><Legend>Test result ok/not ok [1/0]: </Legend><Value>0</Value></Line><Line><Legend>Method file: </Legend><Value>C:\Users\Public\Documents\Bruker\OPUS_8.2.28\QT\IRBT_v3_default.QT</Value></Line></Header><Matrix><Line><Legend></Legend><Legend>min</Legend><Legend>max</Legend><Legend>measured</Legend></Line><Line><Value>Absorption (X-Range 1):</Value><Value>0.400000</Value><Value>2.000000</Value><Value>0.076657</Value></Line><Line><Value>Noise (X-Range 4):</Value><Value></Value><Value>0.000300</Value><Value>0.000057</Value></Line><Line><Value>Signal/Noise (X-Range 2):</Value><Value>200.000000</Value><Value></Value><Value>18.510040</Value></Line><Line><Value>Signal/Noise (X-Range 3):</Value><Value>40.000000</Value><Value></Value><Value>9.117152</Value></Line><Line><Value>Water vapour (X-Range 5):</Value><Value></Value><Value>0.000300</Value><Value>0.000038</Value></Line><Line><Value>Signal/Water (X-Range 2):</Value><Value>100.000000</Value><Value></Value><Value>27.616587</Value></Line><Line><Value>Signal/Water (X-Range 3):</Value><Value>20.000000</Value><Value></Value><Value>13.602597</Value></Line><Line><Value>Fringes (X-Range 6):</Value><Value></Value><Value>0.000100</Value><Value>0.000052</Value></Line></Matrix></MainReport></AB__Qtest><Data_Parameters_ScSm><parameter name="DPF">1</parameter><parameter name="NPT">1814</parameter><parameter name="FXV">3996.33169228125</parameter><parameter name="LXV">499.541461535156</parameter><parameter name="CSF">1</parameter><parameter name="MXY">0.285605490207672</parameter><parameter name="MNY">0.0357314795255661</parameter><parameter name="DAT">27/05/2022</parameter><parameter name="TIM">11:50:49.569 (GMT+2)</parameter><parameter name="DXU">WN</parameter></Data_Parameters_ScSm><Data_Parameters_ScRf><parameter name="DPF">1</parameter><parameter name="NPT">1820</parameter><parameter name="FXV">4004.04661832813</parameter><parameter name="LXV">495.683998511719</parameter><parameter name="CSF">1</parameter><parameter name="MXY">0.264340758323669</parameter><parameter name="MNY">0.028597392141819</parameter><parameter name="DAT">27/05/2022</parameter><parameter name="TIM">11:50:23.720 (GMT+2)</parameter><parameter name="DXU">WN</parameter></Data_Parameters_ScRf><Optic_Parameters_Rf><parameter name="APR">0</parameter><parameter name="APT">Open</parameter><parameter name="BMS">KBr</parameter><parameter name="DTC">RT-DLaTGS_IR-Biotyper [Microplate reader]</parameter><parameter name="HPF">0</parameter><parameter name="LPF">10.0</parameter><parameter name="LPV">4000</parameter><parameter name="PGR">0</parameter><parameter name="RCH">Module port</parameter><parameter name="RDX">0</parameter><parameter name="SRC">MIR</parameter><parameter name="VEL">10.0</parameter><parameter name="SON">Off</parameter></Optic_Parameters_Rf><Acquisition_Parameters_Rf><parameter name="ADT">1</parameter><parameter name="AQM">DD</parameter><parameter name="CFE">0</parameter><parameter name="COR">0</parameter><parameter name="DEL">0</parameter><parameter name="DLY">0</parameter><parameter name="HFW">8000</parameter><parameter name="LFW">0</parameter><parameter name="NSR">32</parameter><parameter name="PLF">AB</parameter><parameter name="RES">6</parameter><parameter name="RGN">-1</parameter><parameter name="STR">0</parameter><parameter name="TCL">MakeCompatibleScalar (0, {WSV=1.000000, ARV=0});</parameter><parameter name="TDL">37</parameter><parameter name="RPO">0</parameter></Acquisition_Parameters_Rf><FT_-_Parameters_Rf><parameter name="APF">B3</parameter><parameter name="HFQ">500</parameter><parameter name="LFQ">4000</parameter><parameter name="NLI">0</parameter><parameter name="PHR">24</parameter><parameter name="PHZ">ML</parameter><parameter name="SPZ">NO</parameter><parameter name="ZFF">1</parameter></FT_-_Parameters_Rf><Optic_Parameters_><parameter name="APR">0</parameter><parameter name="APT">Open</parameter><parameter name="BMS">KBr</parameter><parameter name="CHN">Module port</parameter><parameter name="DTC">RT-DLaTGS_IR-Biotyper [Microplate reader]</parameter><parameter name="HPF">0</parameter><parameter name="LPF">10.0</parameter><parameter name="LPV">4000</parameter><parameter name="PGN">0</parameter><parameter name="RDX">0</parameter><parameter name="SRC">MIR</parameter><parameter name="VEL">10.0</parameter><parameter name="SON">Off</parameter></Optic_Parameters_><FT_-_Parameters_><parameter name="APF">B3</parameter><parameter name="HFQ">500</parameter><parameter name="LFQ">4000</parameter><parameter name="NLI">0</parameter><parameter name="PHR">24</parameter><parameter name="PHZ">ML</parameter><parameter name="SPZ">NO</parameter><parameter name="ZFF">1</parameter></FT_-_Parameters_><Acquisition_Parameters_><parameter name="ADT">1</parameter><parameter name="AQM">DD</parameter><parameter name="CFE">0</parameter><parameter name="COR">0</parameter><parameter name="DEL">0</parameter><parameter name="DLY">0</parameter><parameter name="HFW">8000</parameter><parameter name="LFW">0</parameter><parameter name="NSS">32</parameter><parameter name="PLF">AB</parameter><parameter name="RES">6</parameter><parameter name="SOT">0</parameter><parameter name="TCL">MakeCompatibleScalar (0, {WSV=1.000000, ARV=0});</parameter><parameter name="TDL">37</parameter><parameter name="SPO">0</parameter><parameter name="SGN">-1</parameter></Acquisition_Parameters_><Instrument_Parameters_Rf><parameter name="HFL">15800.168544</parameter><parameter name="LFL">0</parameter><parameter name="LWN">15800.168544</parameter><parameter name="ABP">32197</parameter><parameter name="SSP">1</parameter><parameter name="ARG">2</parameter><parameter name="ASG">2</parameter><parameter name="ASS">32</parameter><parameter name="GFW">16</parameter><parameter name="GBW">16</parameter><parameter name="BFW">0</parameter><parameter name="BBW">0</parameter><parameter name="PKA">7268</parameter><parameter name="PKL">4996</parameter><parameter name="PRA">7447</parameter><parameter name="PRL">5001</parameter><parameter name="P2A">1</parameter><parameter name="P2L">1</parameter><parameter name="P2R">1</parameter><parameter name="P2K">1</parameter><parameter name="DAQ">0</parameter><parameter name="AG2">1</parameter><parameter name="SSM">1</parameter><parameter name="RSN">24898</parameter><parameter name="CRR">0</parameter><parameter name="SRT">1653652223.721</parameter><parameter name="DUR">19.635986328125</parameter><parameter name="TSC">27.8</parameter><parameter name="MVD">0.224611595273018</parameter><parameter name="AN1">0.225780940488127</parameter><parameter name="AN2">0</parameter><parameter name="VSN">2.485 Apr  4 2017</parameter><parameter name="SRN">0085</parameter><parameter name="CAM">0</parameter><parameter name="INS">IR-Biotyper</parameter><parameter name="FOC">69</parameter><parameter name="RDY">1</parameter><parameter name="ARS">32</parameter></Instrument_Parameters_Rf><Sample_Parameters_><parameter name="BLD"></parameter><parameter name="CNM">Admin</parameter><parameter name="CPY"></parameter><parameter name="DPM"></parameter><parameter name="EXP">IRBT_v3_32Scans.XPM</parameter><parameter name="LCT"></parameter><parameter name="SFM">Microplate, HTS-XT</parameter><parameter name="SNM">220527-1039(v.2)_ATH27F (D_4)_A7_23b6de38-4c44-46be-9673-b7a5ae91a5b1.0</parameter><parameter name="XPP">C:\Users\Public\Documents\Bruker\OPUS_8.2.28\XPM</parameter><parameter name="IST">OK</parameter><parameter name="CPG">1252</parameter><parameter name="UID">8ba1d52c-c39e-493c-825e-2dc5b02f5a79</parameter></Sample_Parameters_><Instrument_Parameters_><parameter name="HFL">15800.168544</parameter><parameter name="LFL">0</parameter><parameter name="LWN">15800.168544</parameter><parameter name="ABP">32197</parameter><parameter name="SSP">1</parameter><parameter name="ASG">2</parameter><parameter name="ARG">2</parameter><parameter name="ASS">32</parameter><parameter name="GFW">16</parameter><parameter name="GBW">16</parameter><parameter name="BFW">0</parameter><parameter name="BBW">0</parameter><parameter name="PKA">8302</parameter><parameter name="PKL">4988</parameter><parameter name="PRA">8620</parameter><parameter name="PRL">4993</parameter><parameter name="P2A">1</parameter><parameter name="P2L">1</parameter><parameter name="P2R">1</parameter><parameter name="P2K">1</parameter><parameter name="DAQ">0</parameter><parameter name="AG2">1</parameter><parameter name="SSM">1</parameter><parameter name="RSN">13075</parameter><parameter name="CRR">0</parameter><parameter name="SRT">1653652249.57</parameter><parameter name="DUR">19.635986328125</parameter><parameter name="TSC">27.8</parameter><parameter name="MVD">0.203270480036736</parameter><parameter name="AN1">0.225799084163279</parameter><parameter name="AN2">0</parameter><parameter name="VSN">2.485 Apr  4 2017</parameter><parameter name="SRN">0085</parameter><parameter name="CAM">0</parameter><parameter name="INS">IR-Biotyper</parameter><parameter name="FOC">69</parameter><parameter name="RDY">1</parameter></Instrument_Parameters_><History/></OPUSDataFile>
