<?xml version="1.0" encoding="UTF-8" ?>
<OPUSDataFile><AB><Ydata ylabel="Absorbance Units"><values byteorder="INTEL" format="FLOAT32" numvalues="3497"> -0.07658315 -0.07658106 -0.07659113 -0.07661528 -0.07662459 -0.07661761 -0.07658007 -0.07651382 -0.07643766 -0.0763553
 -0.07629921 -0.0762679 -0.07627558 -0.07631394 -0.07637087 -0.07643951 -0.07650145 -0.07655942 -0.07660817 -0.07665577
 -0.07670821 -0.07676644 -0.07683554 -0.07690346 -0.07696877 -0.07701415 -0.07703421 -0.07702302 -0.07697656 -0.07691146
 -0.07682796 -0.07675446 -0.07669254 -0.07665631 -0.07664459 -0.0766457 -0.07665747 -0.07666021 -0.07665548 -0.07663757
 -0.07661097 -0.07658362 -0.0765581 -0.07654286 -0.07653672 -0.07654188 -0.07655553 -0.07657624 -0.07660166 -0.07663039
 -0.07666023 -0.07669102 -0.07671721 -0.07673787 -0.07674652 -0.07674109 -0.07672465 -0.07669648 -0.07667172 -0.07665119
 -0.07664854 -0.07666329 -0.07669264 -0.07673398 -0.07677002 -0.0767995 -0.07680777 -0.07679762 -0.07676715 -0.07672244
 -0.07667188 -0.07662198 -0.07658463 -0.07655951 -0.07655346 -0.07655358 -0.07655654 -0.07654567 -0.07651193 -0.07645477
 -0.07636925 -0.07627546 -0.07617482 -0.07609103 -0.07602672 -0.07599515 -0.07599725 -0.07603489 -0.07610727 -0.07620507
 -0.07632507 -0.07644396 -0.07655734 -0.07663455 -0.0766785 -0.07667755 -0.07664463 -0.07659661 -0.07654149 -0.07649805
 -0.07646032 -0.07643124 -0.07639883 -0.07635462 -0.07630063 -0.07623065 -0.07617116 -0.07612664 -0.07612291 -0.07616816
 -0.07625256 -0.07637857 -0.07649883 -0.07661076 -0.07667319 -0.07668719 -0.07665994 -0.07659751 -0.07654221 -0.07649633
 -0.07649359 -0.07652586 -0.07659313 -0.07667996 -0.07675878 -0.07682392 -0.07685314 -0.07686102 -0.07685196 -0.07683886
 -0.07683371 -0.07682966 -0.07682634 -0.07681838 -0.07679984 -0.07679265 -0.07679741 -0.07684895 -0.07695294 -0.07710873
 -0.07731732 -0.0774829 -0.07760002 -0.07755836 -0.07737532 -0.07710826 -0.07677838 -0.07650043 -0.07627039 -0.0761367
 -0.07608454 -0.07611472 -0.07620271 -0.07632428 -0.07644854 -0.07654004 -0.07658887 -0.0765715 -0.07651968 -0.07643723
 -0.07636367 -0.07631348 -0.07629128 -0.07630248 -0.07632617 -0.07636086 -0.07638933 -0.07641039 -0.07642015 -0.07641894
 -0.0764112 -0.07639807 -0.07638871 -0.07638417 -0.07639526 -0.07641818 -0.07645108 -0.0764847 -0.07650043 -0.07649709
 -0.076462 -0.07640889 -0.07634355 -0.07628139 -0.07623358 -0.07620592 -0.07620428 -0.07622529 -0.07627024 -0.07632976
 -0.07640362 -0.07647698 -0.07654915 -0.07659859 -0.07662398 -0.0766064 -0.07654621 -0.07644635 -0.07631017 -0.07616101
 -0.07600147 -0.07585401 -0.0757185 -0.07560595 -0.07551502 -0.07544882 -0.07540472 -0.07538232 -0.07537486 -0.07537787
 -0.07538235 -0.07538074 -0.07537247 -0.07535332 -0.07533484 -0.07531928 -0.07531545 -0.07532672 -0.07534639 -0.07537451
 -0.07539961 -0.07542092 -0.07543679 -0.07544744 -0.07545725 -0.07546591 -0.07547309 -0.07547822 -0.07547752 -0.07547362
 -0.07547057 -0.07547282 -0.07549129 -0.07552521 -0.07558013 -0.07564767 -0.07572259 -0.07579877 -0.07586913 -0.0759386
 -0.07600784 -0.07608033 -0.07615998 -0.07623305 -0.07629855 -0.07633924 -0.07635202 -0.07634059 -0.07630499 -0.07624874
 -0.07617132 -0.07606101 -0.07591992 -0.07575479 -0.07557297 -0.07540745 -0.07526295 -0.07517034 -0.07512522 -0.07513861
 -0.07519181 -0.07526788 -0.07534696 -0.07540134 -0.07543671 -0.07544633 -0.07544748 -0.0754474 -0.07545063 -0.0754618
 -0.07547102 -0.07547769 -0.07547015 -0.07544635 -0.07540681 -0.0753512 -0.07529186 -0.07522969 -0.07518102 -0.07514621
 -0.07513768 -0.07515137 -0.07518097 -0.07521507 -0.07521817 -0.07518824 -0.07509769 -0.0749699 -0.07482261 -0.07467667
 -0.07456113 -0.07447088 -0.07441491 -0.07437056 -0.07433006 -0.07427962 -0.07421104 -0.07413328 -0.07404638 -0.07396123
 -0.07388015 -0.07379649 -0.07371009 -0.07360774 -0.07348989 -0.07336541 -0.07323781 -0.07313917 -0.07306773 -0.07303478
 -0.07303324 -0.07304821 -0.07307894 -0.07311676 -0.0731642 -0.07322409 -0.07328919 -0.07335844 -0.07341194 -0.07343625
 -0.07342284 -0.07336069 -0.07326642 -0.0731432 -0.07300096 -0.07284353 -0.07266486 -0.07246404 -0.07224339 -0.07200274
 -0.07175502 -0.07150102 -0.07125464 -0.07101727 -0.07080536 -0.07062042 -0.07047933 -0.07037897 -0.07032186 -0.07029909
 -0.07029556 -0.07030461 -0.07031272 -0.07031326 -0.07030012 -0.07025546 -0.07016561 -0.0700234 -0.06981479 -0.06957217
 -0.06930027 -0.06903267 -0.06877843 -0.06854293 -0.06832854 -0.06812718 -0.06793838 -0.0677579 -0.06758598 -0.06742927
 -0.06728838 -0.06717356 -0.06708096 -0.06700398 -0.06692982 -0.0668195 -0.06666568 -0.06642655 -0.06612825 -0.06578419
 -0.06542788 -0.06509931 -0.06480163 -0.06455272 -0.06433141 -0.06413464 -0.06393775 -0.06373018 -0.06351194 -0.06327841
 -0.06305435 -0.06284293 -0.06265474 -0.06249164 -0.06232708 -0.06215926 -0.06194958 -0.06169975 -0.06140335 -0.06106772
 -0.06072066 -0.06036788 -0.06003949 -0.05973658 -0.05947638 -0.05925436 -0.05907483 -0.05892345 -0.05879088 -0.05865975
 -0.0585156 -0.05835212 -0.05816239 -0.05794857 -0.05771105 -0.05744674 -0.05715464 -0.05683503 -0.05648579 -0.05612979
 -0.05576808 -0.05543184 -0.05512188 -0.05484822 -0.05460889 -0.05439346 -0.05419906 -0.05400762 -0.05381804 -0.05361615
 -0.05340677 -0.05319071 -0.05297697 -0.05277987 -0.05259928 -0.0524464 -0.05229832 -0.05214804 -0.05196301 -0.05172165
 -0.05142899 -0.0510747 -0.05070695 -0.0503331 -0.04999045 -0.04968689 -0.04941797 -0.04918468 -0.04895684 -0.04873324
 -0.04849274 -0.04823681 -0.0479684 -0.04768877 -0.04740638 -0.04711812 -0.04681909 -0.04650717 -0.04617273 -0.04582389
 -0.04546497 -0.04511077 -0.04477748 -0.04447148 -0.04420438 -0.04396753 -0.04376154 -0.04357181 -0.0433939 -0.04321942
 -0.04304574 -0.04287109 -0.04269555 -0.04251253 -0.04232187 -0.04210919 -0.04187411 -0.04161134 -0.04132337 -0.04102829
 -0.04072948 -0.04045361 -0.04019811 -0.03997171 -0.03976516 -0.0395647 -0.0393631 -0.03914198 -0.0389066 -0.03865179
 -0.03839535 -0.03814713 -0.03792009 -0.03772684 -0.03755492 -0.03740704 -0.03725175 -0.03708279 -0.03688139 -0.03664253
 -0.03637599 -0.03608167 -0.03578124 -0.03547557 -0.03517808 -0.03488858 -0.03461108 -0.03434554 -0.03409421 -0.03385694
 -0.03363501 -0.03342713 -0.03323152 -0.03304684 -0.03287012 -0.03270183 -0.03254198 -0.03238927 -0.03224565 -0.03209996
 -0.03194936 -0.03177889 -0.03158076 -0.03135901 -0.03110933 -0.03086268 -0.03062226 -0.03041381 -0.03024072 -0.03008751
 -0.02995263 -0.02979263 -0.02960771 -0.02937802 -0.02911226 -0.02883929 -0.02856835 -0.02834495 -0.02816465 -0.0280445
 -0.02796572 -0.02790995 -0.02786091 -0.02779385 -0.0277084 -0.02759592 -0.0274638 -0.02731428 -0.02714944 -0.02697013
 -0.02677828 -0.02657286 -0.02636529 -0.02615645 -0.02595927 -0.02577503 -0.02560645 -0.02545345 -0.02531036 -0.02517624
 -0.02504162 -0.02490429 -0.02474883 -0.02457356 -0.02436309 -0.02412265 -0.02385227 -0.02356562 -0.02328103 -0.02301075
 -0.02277524 -0.02257433 -0.02241632 -0.02228964 -0.02219175 -0.02211052 -0.02204135 -0.02197842 -0.02191973 -0.02186296
 -0.02180793 -0.02175018 -0.02168954 -0.0216189 -0.02153784 -0.02143862 -0.02132115 -0.02118051 -0.02101844 -0.02083912
 -0.02064723 -0.02045846 -0.02027731 -0.02012249 -0.01999057 -0.01988817 -0.01980031 -0.0197164 -0.01961957 -0.01949201
 -0.0193356 -0.01914048 -0.01893743 -0.01873153 -0.01855874 -0.0184308 -0.01834896 -0.01831842 -0.01830089 -0.01829388
 -0.01826474 -0.01821265 -0.01814652 -0.01806894 -0.01800944 -0.01796661 -0.01795027 -0.01795437 -0.01796546 -0.01797928
 -0.01798007 -0.01796789 -0.01793557 -0.01788636 -0.01782013 -0.01774228 -0.01765768 -0.01756561 -0.01746989 -0.01735683
 -0.01722288 -0.01705738 -0.01685325 -0.01663092 -0.01638894 -0.0161753 -0.0159938 -0.01587812 -0.01582913 -0.01583451
 -0.01589066 -0.0159572 -0.01603347 -0.01609411 -0.01614329 -0.01618284 -0.01621174 -0.01623171 -0.01623293 -0.01619937
 -0.01613115 -0.01601532 -0.01587751 -0.01572874 -0.01559813 -0.01550776 -0.01545212 -0.01544004 -0.0154329 -0.01542377
 -0.01538477 -0.01530803 -0.01520675 -0.01508009 -0.01496691 -0.01486905 -0.01481627 -0.01480725 -0.01484227 -0.0149155
 -0.01499951 -0.01508677 -0.01513864 -0.01515305 -0.01510316 -0.01500054 -0.01484553 -0.01466375 -0.01447964 -0.01431654
 -0.01420243 -0.01413464 -0.01412501 -0.01414185 -0.01417926 -0.01420401 -0.01420644 -0.01417539 -0.01410753 -0.01400373
 -0.01386408 -0.01368382 -0.01346283 -0.01320009 -0.01289843 -0.0125842 -0.01226442 -0.01198936 -0.01176251 -0.01162528
 -0.01156782 -0.01159489 -0.01168151 -0.01179595 -0.01191075 -0.01198319 -0.01200661 -0.01195532 -0.01185884 -0.01171853
 -0.01158477 -0.01147441 -0.01142112 -0.01143941 -0.01152157 -0.01167163 -0.0118507 -0.01205632 -0.01225092 -0.01243269
 -0.01258519 -0.01270871 -0.01280069 -0.01286106 -0.01288752 -0.01288049 -0.0128381 -0.01276537 -0.01266929 -0.01256145
 -0.01245942 -0.01237931 -0.01234373 -0.01236439 -0.01245989 -0.01262357 -0.01286251 -0.01314636 -0.01346974 -0.01379529
 -0.01411341 -0.01440255 -0.01465719 -0.01487614 -0.01505832 -0.01521311 -0.01534106 -0.01545919 -0.01556849 -0.01568706
 -0.01581267 -0.01594475 -0.01607682 -0.01618549 -0.01627058 -0.01631532 -0.01633519 -0.01634417 -0.01636153 -0.01641614
 -0.01650897 -0.01665571 -0.01683179 -0.01703313 -0.01722428 -0.01739215 -0.01751489 -0.01758126 -0.01760402 -0.01757972
 -0.01755393 -0.01752978 -0.01755107 -0.01761986 -0.01774135 -0.01791257 -0.01810227 -0.01830697 -0.01849129 -0.01865588
 -0.01878317 -0.01887795 -0.0189406 -0.01897945 -0.01900661 -0.01903012 -0.01906492 -0.01910942 -0.01916935 -0.01923368
 -0.01929729 -0.01935601 -0.01940425 -0.01945508 -0.01950918 -0.01958516 -0.01968669 -0.01981905 -0.01998389 -0.02016912
 -0.0203741 -0.02058016 -0.0207869 -0.02098342 -0.02117128 -0.02135344 -0.02153115 -0.02171178 -0.02189197 -0.02206857
 -0.0222365 -0.02238413 -0.0225151 -0.02262565 -0.02273021 -0.02283807 -0.02296042 -0.02310821 -0.02327586 -0.02346614
 -0.02366182 -0.02385957 -0.0240461 -0.02421835 -0.02437376 -0.02451145 -0.02463675 -0.02474996 -0.02486155 -0.02497237
 -0.02509581 -0.02523201 -0.0253898 -0.02556661 -0.02575967 -0.0259636 -0.02616514 -0.02635983 -0.02653355 -0.02668819
 -0.02681868 -0.02693358 -0.02703821 -0.02713718 -0.02723741 -0.02732842 -0.02740941 -0.02746503 -0.02748822 -0.02748794
 -0.02746058 -0.02744824 -0.02745386 -0.02751839 -0.02764397 -0.02782878 -0.02806914 -0.02832018 -0.0285775 -0.02879119
 -0.0289643 -0.02907779 -0.02914384 -0.02917899 -0.02919788 -0.02923235 -0.02928715 -0.02938362 -0.02950896 -0.02966307
 -0.02982454 -0.02998082 -0.03012328 -0.03024335 -0.03035133 -0.03044837 -0.03054253 -0.03063752 -0.03071909 -0.03078705
 -0.03081647 -0.03080602 -0.03075246 -0.03065855 -0.03055735 -0.03045413 -0.03039775 -0.03038788 -0.03045307 -0.03058122
 -0.03076169 -0.03097564 -0.031187 -0.03138689 -0.03154735 -0.03167958 -0.03178162 -0.03187051 -0.03195794 -0.03204269
 -0.03212925 -0.03220298 -0.03225889 -0.03229923 -0.03232131 -0.03234836 -0.03238286 -0.0324347 -0.03250454 -0.0325706
 -0.03263147 -0.03266168 -0.03266395 -0.03264063 -0.03259724 -0.03255569 -0.03251678 -0.03249447 -0.03248399 -0.03248362
 -0.03248948 -0.03249449 -0.03250271 -0.03251248 -0.03253633 -0.0325799 -0.0326543 -0.03276788 -0.03291294 -0.03309312
 -0.03327798 -0.0334643 -0.03362108 -0.03374371 -0.03383022 -0.03388019 -0.03392602 -0.03396999 -0.03405195 -0.03417016
 -0.03433767 -0.03454488 -0.034766 -0.03498982 -0.03517459 -0.03532049 -0.03540494 -0.03544407 -0.03544505 -0.03542941
 -0.03541683 -0.03541943 -0.03545081 -0.03550876 -0.0355977 -0.03570344 -0.0358252 -0.03594138 -0.0360483 -0.03613178
 -0.03618874 -0.03622972 -0.0362551 -0.03629125 -0.0363384 -0.036406 -0.0364907 -0.03657534 -0.03665934 -0.03672885
 -0.03679157 -0.03685997 -0.03693882 -0.03704648 -0.03717106 -0.03730912 -0.03744021 -0.03754554 -0.03761664 -0.0376416
 -0.03762687 -0.03757225 -0.03748414 -0.03736436 -0.03721527 -0.03703661 -0.03683603 -0.03661326 -0.03638732 -0.03615919
 -0.03595739 -0.03578373 -0.03567014 -0.0356169 -0.03564456 -0.0357473 -0.03591802 -0.03614373 -0.03639103 -0.03664689
 -0.0368737 -0.0370671 -0.03720513 -0.03729534 -0.03733438 -0.03733775 -0.03731214 -0.03727209 -0.03722529 -0.03717692
 -0.0371311 -0.03708178 -0.03702969 -0.03696094 -0.03687483 -0.03675328 -0.03659523 -0.03638265 -0.03611522 -0.03578463
 -0.03539315 -0.03495005 -0.03445935 -0.03394141 -0.0333976 -0.03284258 -0.03227315 -0.03169103 -0.03109144 -0.03046934
 -0.02982145 -0.02914432 -0.02843331 -0.02768645 -0.02689523 -0.02605615 -0.02516283 -0.02421082 -0.0232085 -0.02215381
 -0.02107472 -0.01997236 -0.01888654 -0.01781955 -0.01681313 -0.01586972 -0.01503087 -0.01429945 -0.01371629 -0.01328043
 -0.01301675 -0.01290815 -0.01293578 -0.01305687 -0.01319854 -0.01330564 -0.01328382 -0.01310029 -0.01268964 -0.01206527
 -0.01120979 -0.01016961 -0.008955224 -0.007616049 -0.006165296 -0.00464203 -0.003054602 -0.001427653 0.0002344347 0.001929227
 0.003656124 0.005431535 0.007256016 0.009141843 0.01108634 0.01308009 0.01511567 0.01716307 0.01920931 0.02121298
 0.02315007 0.02497339 0.02663073 0.0280648 0.02916589 0.02984976 0.02995824 0.02937637 0.02801602 0.02577589
 0.02279831 0.01905334 0.01492476 0.010452 0.006068014 0.001824623 -0.002014124 -0.005426829 -0.008379761 -0.01087886
 -0.01302729 -0.01483572 -0.0164236 -0.01779565 -0.0190318 -0.02013453 -0.02114796 -0.02207806 -0.02295331 -0.02378193
 -0.02458563 -0.02536703 -0.02613809 -0.02688962 -0.02762194 -0.02831817 -0.02897244 -0.02957036 -0.03010692 -0.03057436
 -0.03097082 -0.03129081 -0.03153372 -0.03169394 -0.031771 -0.03176337 -0.03167201 -0.03151182 -0.03128729 -0.03103561
 -0.03076229 -0.03051103 -0.03027987 -0.03009013 -0.02992674 -0.02977731 -0.02961645 -0.02941198 -0.02913436 -0.02875071
 -0.02823393 -0.0275595 -0.02671284 -0.02568169 -0.02446476 -0.02305996 -0.02146504 -0.01967628 -0.0177085 -0.0155519
 -0.01333921 -0.01107324 -0.009104752 -0.007458845 -0.006606808 -0.006550683 -0.00756511 -0.009568873 -0.01241344 -0.01595591
 -0.01975513 -0.02370172 -0.02738597 -0.03079611 -0.03374077 -0.03628718 -0.03842327 -0.04023451 -0.04176691 -0.04308331
 -0.04421838 -0.04521098 -0.04607643 -0.04684307 -0.04751733 -0.04812118 -0.04865757 -0.04914183 -0.04957511 -0.04996878
 -0.05032345 -0.05064961 -0.050948 -0.0512293 -0.05149369 -0.05174833 -0.05199145 -0.0522224 -0.05243853 -0.05263351
 -0.05280898 -0.05296226 -0.05310221 -0.05323466 -0.05336947 -0.05351616 -0.05367299 -0.05384456 -0.05401422 -0.05417924
 -0.05432178 -0.05443658 -0.05452371 -0.0545811 -0.05462814 -0.0546659 -0.05471284 -0.05476907 -0.05483411 -0.05490628
 -0.05497178 -0.05503158 -0.05508051 -0.0551246 -0.05517718 -0.05524354 -0.05534221 -0.05546826 -0.05562636 -0.05580042
 -0.05597923 -0.0561465 -0.05628774 -0.05639909 -0.05647316 -0.05652048 -0.05654068 -0.05655225 -0.05655777 -0.05657541
 -0.056608 -0.05666265 -0.05674039 -0.05683102 -0.05693366 -0.0570298 -0.05711957 -0.0571949 -0.05725808 -0.05731504
 -0.05736648 -0.05741815 -0.05746776 -0.05751283 -0.05755354 -0.05758759 -0.05762019 -0.05765558 -0.05769652 -0.05774831
 -0.05780315 -0.05786011 -0.05790813 -0.05794229 -0.05796357 -0.05796951 -0.05797538 -0.05798249 -0.05800484 -0.05804384
 -0.05809717 -0.05816413 -0.05822845 -0.05828939 -0.05833284 -0.05836088 -0.05837391 -0.0583762 -0.05838012 -0.05838758
 -0.0584094 -0.05844181 -0.05848505 -0.05853309 -0.05857938 -0.05862354 -0.05866205 -0.05870103 -0.05874237 -0.0587903
 -0.05884723 -0.05891104 -0.05898187 -0.05905668 -0.05913506 -0.05921606 -0.0592997 -0.05938215 -0.05946306 -0.05953432
 -0.05959591 -0.05964336 -0.05967823 -0.05970461 -0.05972458 -0.05974625 -0.05977028 -0.05980231 -0.05984068 -0.05988608
 -0.05993513 -0.05998531 -0.06003296 -0.06007464 -0.06010966 -0.06013584 -0.06015775 -0.06017557 -0.06019666 -0.06022262
 -0.06025746 -0.06030229 -0.06035482 -0.0604151 -0.06047731 -0.06054111 -0.06060056 -0.06065513 -0.06069807 -0.06072902
 -0.06074163 -0.06073813 -0.06072017 -0.06069329 -0.06066887 -0.06065099 -0.06065106 -0.0606672 -0.06070224 -0.06075169
 -0.06081345 -0.06088447 -0.06096363 -0.06104638 -0.06113208 -0.06121303 -0.06128749 -0.06135119 -0.06140286 -0.06144611
 -0.06148103 -0.06151296 -0.06154205 -0.06156917 -0.06159408 -0.06161498 -0.06163226 -0.06164623 -0.06165832 -0.06167259
 -0.06169049 -0.06171762 -0.06175219 -0.06179562 -0.06184136 -0.0618838 -0.06191799 -0.06193689 -0.06194614 -0.06194479
 -0.06194536 -0.06195196 -0.06197028 -0.06200341 -0.06204527 -0.06209574 -0.06214681 -0.06219769 -0.06224769 -0.06229691
 -0.06234969 -0.06240604 -0.06246826 -0.06253532 -0.06260393 -0.06267271 -0.06273591 -0.06279327 -0.06284129 -0.06288111
 -0.06291258 -0.06293754 -0.06295719 -0.06297451 -0.06299127 -0.06301117 -0.06303663 -0.06306847 -0.0631083 -0.06315172
 -0.06319831 -0.0632432 -0.06328546 -0.06332464 -0.06336062 -0.06339466 -0.0634267 -0.06345392 -0.06347607 -0.06348907
 -0.06349393 -0.06349266 -0.0634876 -0.06348707 -0.06349184 -0.06350836 -0.06353381 -0.06356764 -0.06360509 -0.06364138
 -0.06367338 -0.06369692 -0.06371316 -0.0637206 -0.06372492 -0.06372681 -0.06373417 -0.06374882 -0.06377567 -0.06381626
 -0.06386662 -0.06392689 -0.06398544 -0.0640417 -0.06408512 -0.06411605 -0.06413285 -0.06413718 -0.06413568 -0.06412995
 -0.06412833 -0.06413122 -0.06414378 -0.06416459 -0.06419462 -0.06423009 -0.06426845 -0.06430439 -0.06433356 -0.064353
 -0.06435914 -0.06435549 -0.06434128 -0.06432538 -0.06430927 -0.06430079 -0.06430154 -0.06431282 -0.06433512 -0.06436335
 -0.0643972 -0.06442927 -0.06445934 -0.06448223 -0.06449849 -0.0645079 -0.06451128 -0.06451125 -0.06450745 -0.06450052
 -0.06448954 -0.06447238 -0.06445184 -0.06442824 -0.0644094 -0.06440085 -0.06440733 -0.06443483 -0.06447545 -0.06452997
 -0.06458165 -0.06462684 -0.06465574 -0.0646654 -0.06466179 -0.06464482 -0.06462757 -0.06461056 -0.06459936 -0.06459341
 -0.06458902 -0.06458611 -0.0645817 -0.06457784 -0.06457931 -0.06458779 -0.06461019 -0.06464411 -0.06469059 -0.06474268
 -0.06479458 -0.06483897 -0.06486841 -0.06488121 -0.06487295 -0.06485131 -0.0648163 -0.0647816 -0.06474991 -0.06473166
 -0.06472924 -0.06474282 -0.06477299 -0.06481084 -0.06485586 -0.06489658 -0.0649328 -0.06495771 -0.06497238 -0.06497823
 -0.06497713 -0.06497575 -0.06497467 -0.06497866 -0.06498659 -0.0649987 -0.06501427 -0.06503257 -0.06505319 -0.06507622
 -0.06509937 -0.06512187 -0.06514099 -0.06515509 -0.06516568 -0.06517242 -0.06517944 -0.06518757 -0.06519675 -0.06520722
 -0.06521463 -0.06521884 -0.06521887 -0.0652153 -0.06521355 -0.06521402 -0.06522217 -0.06523662 -0.06525632 -0.06527912
 -0.06529946 -0.06531733 -0.06532957 -0.06533903 -0.06534747 -0.06535709 -0.06537068 -0.06538684 -0.06540606 -0.06542499
 -0.06544255 -0.06545681 -0.06546701 -0.06547302 -0.06547455 -0.06547311 -0.06546866 -0.06546476 -0.06546161 -0.06546276
 -0.06546825 -0.06547955 -0.06549668 -0.06552049 -0.06555085 -0.06558859 -0.06563173 -0.06567738 -0.06572153 -0.06575652
 -0.06578103 -0.06578898 -0.06578635 -0.06577431 -0.06576186 -0.06575427 -0.06575479 -0.06576686 -0.06578534 -0.06581018
 -0.06583413 -0.06585602 -0.06587213 -0.06588194 -0.06588558 -0.06588308 -0.06587706 -0.06586786 -0.06586 -0.06585384
 -0.06585407 -0.06586035 -0.06587452 -0.06589519 -0.06592073 -0.06594901 -0.0659765 -0.06600096 -0.06601848 -0.06602865
 -0.06602886 -0.06602331 -0.06601252 -0.0660033 -0.06599868 -0.06599993 -0.06600886 -0.06601911 -0.06602997 -0.06603676
 -0.06603867 -0.06603939 -0.06603912 -0.06604447 -0.06605551 -0.06607517 -0.06610333 -0.06614096 -0.06618805 -0.0662457
 -0.06631296 -0.06638863 -0.06647101 -0.06655625 -0.06664549 -0.06673637 -0.06683682 -0.06694923 -0.06708848 -0.0672613
 -0.06748232 -0.06775937 -0.06809385 -0.06848965 -0.06893213 -0.06942044 -0.06993726 -0.07048128 -0.07103881 -0.07160873
 -0.07214973 -0.07265568 -0.07304243 -0.07330762 -0.07338774 -0.07329917 -0.07306022 -0.07269225 -0.07225071 -0.07174996
 -0.0712312 -0.07071406 -0.07023302 -0.06980401 -0.06945087 -0.06917475 -0.068983 -0.0688699 -0.06883653 -0.06887117
 -0.06897514 -0.06911806 -0.06929849 -0.06947026 -0.06962885 -0.0697477 -0.06982541 -0.06986151 -0.06985705 -0.06982183
 -0.06975965 -0.06969658 -0.06963529 -0.0696027 -0.06958937 -0.06958941 -0.0695883 -0.06955685 -0.06949726 -0.06939707
 -0.06927369 -0.06913716 -0.06899736 -0.06886441 -0.06873296 -0.06860317 -0.06847009 -0.06833088 -0.06819247 -0.06805485
 -0.06792949 -0.0678177 -0.06772349 -0.06764708 -0.06758336 -0.06753201 -0.06748757 -0.06745031 -0.06741958 -0.06739496
 -0.06737525 -0.06735864 -0.06734013 -0.06731912 -0.06729171 -0.06726022 -0.06722572 -0.06719019 -0.06715599 -0.06712241
 -0.06708968 -0.06705701 -0.0670238 -0.06699139 -0.06695986 -0.06693111 -0.06690544 -0.06688414 -0.06686731 -0.06685647
 -0.0668517 -0.06685436 -0.06686439 -0.06688176 -0.06690608 -0.06693552 -0.06696919 -0.06700347 -0.06703676 -0.06706376
 -0.06708319 -0.06709001 -0.06708577 -0.06706893 -0.06704532 -0.06701761 -0.06699429 -0.0669807 -0.06698114 -0.06700002
 -0.06703109 -0.0670752 -0.06711764 -0.06715631 -0.06718031 -0.06718787 -0.06718019 -0.06715725 -0.06712791 -0.06709258
 -0.0670586 -0.06702594 -0.06699795 -0.0669745 -0.06695711 -0.06694564 -0.06694073 -0.06694189 -0.06694884 -0.06696052
 -0.06697609 -0.06699342 -0.0670112 -0.06702617 -0.06703623 -0.06703956 -0.0670342 -0.06702308 -0.06700582 -0.06698924
 -0.06697426 -0.06696633 -0.06696634 -0.06697357 -0.06698804 -0.06700383 -0.06702058 -0.06703188 -0.06703786 -0.0670356
 -0.06702621 -0.0670115 -0.06699334 -0.06697704 -0.06696358 -0.06695743 -0.06695738 -0.0669643 -0.06697518 -0.06698815
 -0.06700034 -0.06700975 -0.06701474 -0.06701402 -0.06700789 -0.06699554 -0.06698124 -0.06696506 -0.06695423 -0.06694952
 -0.06695518 -0.06697152 -0.0669953 -0.06702597 -0.06705532 -0.06708296 -0.06710204 -0.06711354 -0.06711662 -0.06711414
 -0.06711241 -0.06711379 -0.06712639 -0.06714727 -0.06717808 -0.06721006 -0.06723694 -0.06725222 -0.06724869 -0.06723087
 -0.06719716 -0.0671596 -0.06712098 -0.06708921 -0.06706674 -0.06705181 -0.06704476 -0.06703933 -0.06703515 -0.06702936
 -0.06702208 -0.06701489 -0.06700788 -0.06700274 -0.06699876 -0.06699431 -0.06698874 -0.06697915 -0.06696652 -0.06695069
 -0.06693414 -0.06691974 -0.0669091 -0.06690511 -0.06690626 -0.06691302 -0.06692187 -0.0669315 -0.06693989 -0.06694593
 -0.06695063 -0.06695394 -0.06695715 -0.06696045 -0.0669634 -0.06696599 -0.06696821 -0.06697023 -0.06697457 -0.06698129
 -0.06699257 -0.06700741 -0.06702355 -0.06703924 -0.06704865 -0.06705163 -0.0670443 -0.06702993 -0.06701005 -0.06698992
 -0.0669747 -0.06696635 -0.0669688 -0.06697691 -0.06699052 -0.06700135 -0.06700684 -0.06700376 -0.06699051 -0.06697112
 -0.06694563 -0.06692036 -0.06689568 -0.06687511 -0.06685857 -0.06684562 -0.06683592 -0.0668272 -0.06681927 -0.06681004
 -0.0667997 -0.06678762 -0.06677411 -0.06675914 -0.06674374 -0.06672852 -0.06671616 -0.06670891 -0.06670913 -0.06671982
 -0.06673811 -0.06676514 -0.06679138 -0.06681491 -0.06682709 -0.0668253 -0.06681073 -0.06678253 -0.06675179 -0.06671911
 -0.06669547 -0.0666809 -0.06667779 -0.06668498 -0.06669641 -0.06671109 -0.06672197 -0.06672915 -0.06672926 -0.06672309
 -0.06671034 -0.0666919 -0.06666832 -0.06664148 -0.06661258 -0.06658471 -0.06655981 -0.06654023 -0.06652758 -0.06652187
 -0.06652363 -0.06653132 -0.06654494 -0.06656218 -0.06658293 -0.06660372 -0.06662436 -0.06663965 -0.06664938 -0.06664916
 -0.06663961 -0.06662216 -0.06659877 -0.06657772 -0.06656048 -0.06655595 -0.06656196 -0.06658003 -0.06660446 -0.06662913
 -0.06664923 -0.06665768 -0.06665535 -0.06663958 -0.06661655 -0.06658798 -0.06655896 -0.06653181 -0.06650574 -0.06648113
 -0.06645513 -0.06642714 -0.06639958 -0.06637251 -0.06635213 -0.06633843 -0.06633206 -0.06633216 -0.06633302 -0.06633454
 -0.06633289 -0.06632958 -0.06632672 -0.06632505 -0.06632727 -0.06633214 -0.06633931 -0.06634729 -0.06635463 -0.0663607
 -0.06636491 -0.06636633 -0.06636444 -0.06635889 -0.06634913 -0.06633707 -0.06632277 -0.06630924 -0.06629696 -0.06628625
 -0.06627723 -0.06626708 -0.06625572 -0.06624141 -0.06622458 -0.06620742 -0.06619045 -0.06617711 -0.06616689 -0.06616053
 -0.06615659 -0.06615299 -0.06614836 -0.06614031 -0.06612783 -0.06610901 -0.06608439 -0.06605288 -0.06601848 -0.06598213
 -0.06594846 -0.06591951 -0.0658948 -0.06587487 -0.06585643 -0.06583883 -0.06582398 -0.06581192 -0.06580734 -0.06581017
 -0.06581859 -0.06583182 -0.06584281 -0.06585182 -0.06585602 -0.06585638 -0.06585447 -0.06584992 -0.06584263 -0.06583242
 -0.06581832 -0.06580235 -0.06578589 -0.06577059 -0.06575874 -0.0657476 -0.06573717 -0.06572253 -0.06570207 -0.06567378
 -0.0656364 -0.06559347 -0.06554493 -0.06549728 -0.06545093 -0.06541036 -0.06537565 -0.06534721 -0.06532508 -0.06530963
 -0.06530119 -0.06530216 -0.06531134 -0.06532783 -0.0653481 -0.06536521 -0.06537692 -0.06537675 -0.06536626 -0.06534425
 -0.06531369 -0.0652759 -0.0652335 -0.06518714 -0.06514141 -0.06509744 -0.06505954 -0.06502924 -0.06500513 -0.0649877
 -0.06497 -0.06495162 -0.06492706 -0.06489639 -0.06486149 -0.06482333 -0.06479012 -0.06476244 -0.06474783 -0.06474441
 -0.06475198 -0.06476589 -0.06477768 -0.0647835 -0.06477381 -0.06475037 -0.06470992 -0.06465984 -0.06460312 -0.06454726
 -0.06449692 -0.06445277 -0.06441672 -0.0643837 -0.06435299 -0.06432112 -0.06428722 -0.06425375 -0.06422082 -0.06419166
 -0.0641662 -0.06414216 -0.06411906 -0.06409207 -0.0640613 -0.06402437 -0.0639822 -0.06393558 -0.06388643 -0.06383826
 -0.06379366 -0.06375783 -0.06373106 -0.06371684 -0.06370997 -0.0637093 -0.06370693 -0.06369897 -0.06368148 -0.06365173
 -0.06361236 -0.06356273 -0.06351034 -0.06345575 -0.06340738 -0.06336593 -0.06333469 -0.06331351 -0.06329771 -0.06328687
 -0.0632754 -0.06326389 -0.06325214 -0.06324029 -0.06322954 -0.06321765 -0.06320094 -0.06317773 -0.06314277 -0.06309996
 -0.06305023 -0.06299955 -0.06295273 -0.06291063 -0.06287594 -0.06284318 -0.06281171 -0.06277495 -0.06273107 -0.06267899
 -0.06261773 -0.06255377 -0.06248732 -0.06242924 -0.06238004 -0.06234916 -0.0623359 -0.06234036 -0.06235903 -0.06237723
 -0.06239095 -0.06237944 -0.06234564 -0.06228359 -0.06220221 -0.06211159 -0.06201641 -0.06192497 -0.06183764 -0.06175644
 -0.06168262 -0.06161724 -0.06156061 -0.0615142 -0.06147185 -0.06143315 -0.0613899 -0.06134073 -0.06128382 -0.06121878
 -0.06114944 -0.06107598 -0.06100185 -0.06092712 -0.060854 -0.06078244 -0.06071364 -0.06064718 -0.06058254 -0.06051937
 -0.06045703 -0.06039461 -0.06033117 -0.06026449 -0.06019183 -0.06011288 -0.06002521 -0.05993425 -0.05984128 -0.05975254
 -0.05967104 -0.059596 -0.05952843 -0.05946224 -0.05939687 -0.05932704 -0.05925228 -0.05917056 -0.05908179 -0.05898483
 -0.0588798 -0.0587666 -0.05864628 -0.05852287 -0.05839843 -0.05828158 -0.05817228 -0.05807612 -0.05798814 -0.05790528
 -0.05781937 -0.05772112 -0.05760686 -0.05746869 -0.0573159 -0.05714852 -0.05698327 -0.05682551 -0.05668496 -0.05656629
 -0.05646267 -0.05637589 -0.05627865 -0.05616941 -0.05601744 -0.05582227 -0.05558885 -0.05532077 -0.05505206 -0.05478311
 -0.05453505 -0.05430251 -0.05408189 -0.05386565 -0.05363709 -0.05339185 -0.05311542 -0.05281108 -0.05247533 -0.05211685
 -0.05174117 -0.05135141 -0.05095334 -0.05053514 -0.05009554 -0.04961894 -0.0490995 -0.04854372 -0.04795026 -0.04734073
 -0.04671682 -0.04608877 -0.04545706 -0.0448274 -0.04420145 -0.04359621 -0.04301385 -0.04247401 -0.04197672 -0.0415324
 -0.04113963 -0.04080235 -0.04051398 -0.04026989 -0.04005634 -0.03985889 -0.03966704 -0.03946932 -0.03926176 -0.0390394
 -0.03880319 -0.03855167 -0.03829043 -0.03802087 -0.03774455 -0.0374634 -0.03716221 -0.03684007 -0.03648088 -0.03608484
 -0.03567477 -0.03525329 -0.03485607 -0.03447974 -0.03412708 -0.03379291 -0.03346287 -0.03313516 -0.03280032 -0.0324558
 -0.0320971 -0.03171382 -0.03129803 -0.03083024 -0.03029466 -0.02968046 -0.02896998 -0.02819534 -0.02735551 -0.02651364
 -0.025684 -0.02489995 -0.02416985 -0.02349011 -0.0228617 -0.02226736 -0.02170577 -0.02114573 -0.02058317 -0.01996447
 -0.01929152 -0.01853532 -0.01772027 -0.01690889 -0.01611291 -0.0153962 -0.01473363 -0.014117 -0.01352055 -0.01291345
 -0.01228736 -0.01162626 -0.01093304 -0.01020373 -0.009448271 -0.008665036 -0.007881226 -0.007101773 -0.006349416 -0.005630636
 -0.004930775 -0.00424931 -0.00356834 -0.002888045 -0.002239067 -0.00162484 -0.001092932 -0.0006398548 -0.0002745501 1.120354E-05
 0.0002379297 0.0004110042 0.0005507663 0.0006605306 0.00075244 0.0008309153 0.000904066 0.0009761095 0.00105316 0.001134195
 0.001222374 0.001307267 0.00138777 0.001448689 0.001487801 0.001488077 0.001447945 0.001346245 0.001180688 0.0009449059
 0.0006392964 0.0002962072 -8.25222E-05 -0.0004643424 -0.000853354 -0.001252845 -0.001668202 -0.002119168 -0.00260522 -0.003138078
 -0.003706539 -0.004301058 -0.004907322 -0.005505667 -0.006092894 -0.00666105 -0.007210017 -0.007741571 -0.008241297 -0.008706624
 -0.009118649 -0.009470347 -0.009765734 -0.01000282 -0.01020195 -0.01036455 -0.01050622 -0.01062768 -0.010736 -0.01083103
 -0.01091435 -0.01098498 -0.01103918 -0.01107569 -0.0110878 -0.01107673 -0.01104024 -0.01098401 -0.010915 -0.0108388
 -0.01076559 -0.01069234 -0.01062222 -0.0105439 -0.01045265 -0.01034072 -0.01020329 -0.01004252 -0.009857164 -0.009655076
 -0.00943648 -0.009213401 -0.008986708 -0.008768559 -0.008559365 -0.008356431 -0.00815764 -0.007938745 -0.007699814 -0.007424686
 -0.007122999 -0.006817754 -0.006515877 -0.006246607 -0.006003769 -0.00578972 -0.005600262 -0.00542931 -0.005282441 -0.00516172
 -0.005071865 -0.005016161 -0.004995367 -0.005009934 -0.005062381 -0.005154802 -0.005280122 -0.005439393 -0.005609768 -0.005788593
 -0.005975023 -0.006169203 -0.00639063 -0.006639894 -0.006929843 -0.007259781 -0.007632705 -0.008047888 -0.008502445 -0.009000992
 -0.009547934 -0.01015836 -0.0108629 -0.01165457 -0.01255908 -0.01349796 -0.01441952 -0.01527855 -0.01602072 -0.01670258
 -0.0173312 -0.01795772 -0.01860092 -0.01925479 -0.01992292 -0.02057721 -0.02121453 -0.0218332 -0.02243324 -0.02303508
 -0.02363892 -0.02425453 -0.02487928 -0.02550388 -0.02612627 -0.02673451 -0.02732903 -0.02790465 -0.02846354 -0.02900535
 -0.0295361 -0.03005922 -0.03058787 -0.03112852 -0.0317044 -0.03233027 -0.03301543 -0.03378304 -0.03455539 -0.03532678
 -0.03598685 -0.03650729 -0.03691833 -0.03721668 -0.03749605 -0.03776089 -0.03805595 -0.03837838 -0.0387102 -0.03904646
 -0.03934857 -0.03962065 -0.03985702 -0.04006221 -0.04024835 -0.04040562 -0.04052567 -0.04059537 -0.04059312 -0.04052475
 -0.04038563 -0.04019042 -0.03994777 -0.03965847 -0.03932932 -0.03893783 -0.03848892 -0.03791425 -0.03721338 -0.0362568
 -0.03503048 -0.0334696 -0.03157254 -0.02958059 -0.02751981 -0.0257819 -0.02435935 -0.02341861 -0.02291813 -0.02281526
 -0.02305762 -0.02351558 -0.02413615 -0.02477748 -0.02542085 -0.02599032 -0.02649452 -0.02691923 -0.02726837 -0.02753707
 -0.02774277 -0.02788453 -0.02800364 -0.02811013 -0.02822842 -0.02836557 -0.02851762 -0.02868553 -0.02885303 -0.02901929
 -0.02917349 -0.02931596 -0.02944761 -0.02956986 -0.02969119 -0.02981216 -0.02994126 -0.03007345 -0.03020419 -0.03032202
 -0.03040656 -0.03045101 -0.03043928 -0.03037174 -0.03024493 -0.03005645 -0.02980392 -0.02948718 -0.02910373 -0.02866318
 -0.0281676 -0.02762291 -0.02703184 -0.02638369 -0.02567736 -0.02490818 -0.02407599 -0.02321949 -0.02234244 -0.02150431
 -0.02070399 -0.01996567 -0.01928452 -0.01865446 -0.0180769 -0.01754994 -0.01708202 -0.01668567 -0.01636745 -0.01614079
 -0.01600449 -0.01596174 -0.01601056 -0.01614883 -0.01638243 -0.01671322 -0.01714509 -0.01768432 -0.01830437 -0.0190071
 -0.01972991 -0.02046737 -0.02117049 -0.0218364 -0.02246259 -0.02305001 -0.02361206 -0.02414704 -0.0246515 -0.02512276
 -0.02554705 -0.02592874 -0.02626819 -0.02657771 -0.0268757 -0.02717544 -0.0274993 -0.02785332 -0.02825304 -0.02868687
 -0.02915833 -0.02963531 -0.03010932 -0.03054728 -0.030937 -0.03127362 -0.03155148 -0.03179709 -0.0320118 -0.0322261
 -0.03244178 -0.03266376 -0.03289033 -0.03309891 -0.03328811 -0.03343693 -0.03354867 -0.03362386 -0.03366669 -0.03368732
 -0.033688 -0.03367612 -0.03365462 -0.03362859 -0.03360287 -0.03358241 -0.03357155 -0.03357427 -0.03359131 -0.03362497
 -0.03366965 -0.03372555 -0.0337816 -0.03383631 -0.03388006 -0.03391144 -0.03392924 -0.03393329 -0.03392944 -0.03391798
 -0.0339044 -0.03388843 -0.03387161 -0.03385277 -0.03382882 -0.03379829 -0.03375552 -0.03370135 -0.03363359 -0.03355638
 -0.03347384 -0.03338846 -0.0333049 -0.03321955 -0.03313205 -0.03303785 -0.03293351 -0.03282375 -0.03270765 -0.03259776
 -0.03249618 -0.03241014 -0.03234119 -0.03228416 -0.03223883 -0.03219711 -0.03215911 -0.03212499 -0.03209537 -0.03207505
 -0.03206269 -0.0320563 -0.03205341 -0.03204602 -0.03203503 -0.03201717 -0.03199734 -0.03198021 -0.03196879 -0.0319684
 -0.03197573 -0.03199144 -0.03200834 -0.03202444 -0.03203242 -0.03203022 -0.03201263 -0.03197819 -0.03192606 -0.03185551
 -0.03177289 -0.03167848 -0.03158413 -0.03149037 -0.03140739 -0.03133447 -0.03127279 -0.03122026 -0.03116974 -0.03111982
 -0.03106298 -0.0310001 -0.03092907 -0.03085174 -0.03076982 -0.03068371 -0.03059478 -0.03050134 -0.03040332 -0.03029731
 -0.03018171 -0.0300554 -0.02991672 -0.02977135 -0.02961937 -0.02947018 -0.02932507 -0.02918616 -0.02905376 -0.02891967
 -0.02878338 -0.02863552 -0.02847616 -0.02830064 -0.02811018 -0.02790494 -0.02768994 -0.02747465 -0.0272705 -0.02710037
 -0.0269745 -0.02691777 -0.02692349 -0.02700011 -0.02712041 -0.02727384 -0.02743155 -0.02757848 -0.02770494 -0.02780382
 -0.02788237 -0.02794085 -0.02798551 -0.02801754 -0.02803407 -0.02803505 -0.02801472 -0.02797269 -0.02790288 -0.02780425
 -0.02766643 -0.02748957 -0.02726491 -0.02700143 -0.02671166 -0.0264173 -0.02615959 -0.02595867 -0.02586148 -0.02585785
 -0.02596628 -0.02613536 -0.02634636 -0.02654148 -0.02668853 -0.02677716 -0.02679025 -0.02677523 -0.02673495 -0.02672753
 -0.02676139 -0.02685054 -0.02699701 -0.02715809 -0.02733009 -0.02744618 -0.02750627 -0.02747232 -0.02735653 -0.02718255
 -0.02696862 -0.02677617 -0.0266078 -0.02650243 -0.02643815 -0.02640512 -0.02637991 -0.02633472 -0.02627154 -0.02618029
 -0.0260806 -0.0259798 -0.02588432 -0.02580068 -0.02571232 -0.02561821 -0.02549876 -0.02535101 -0.02517156 -0.02495983
 -0.02472607 -0.02447084 -0.02420441 -0.02392685 -0.0236432 -0.02335353 -0.02306117 -0.02276526 -0.02246625 -0.0221609
 -0.02184338 -0.02151216 -0.02116115 -0.02079573 -0.02041749 -0.02003395 -0.01965041 -0.01926965 -0.01889368 -0.0185246
 -0.01816265 -0.01781287 -0.01747695 -0.01715271 -0.01684101 -0.01652803 -0.01621298 -0.01588332 -0.01553895 -0.01517857
 -0.0148027 -0.01441446 -0.01401362 -0.01360087 -0.01317574 -0.01273727 -0.01228545 -0.01181942 -0.01134049 -0.01084943
 -0.01034894 -0.009841615 -0.009329253 -0.008813638 -0.00829552 -0.007774556 -0.007255548 -0.00673916 -0.006232016 -0.005736161
 -0.005250223 -0.004774637 -0.004302985 -0.003834767 -0.00337093 -0.002911753 -0.002462979 -0.002024587 -0.001598215 -0.001184962
 -0.0007894865 -0.0004143677 -7.078149E-05 0.0002444804 0.0005297638 0.000794948 0.001053024 0.001307366 0.001567791 0.001826634
 0.002081566 0.002327882 0.002561236 0.002787327 0.003006414 0.003225909 0.003447588 0.003673444 0.003904159 0.004137524
 0.004373497 0.004607824 0.004840197 0.005065318 0.005282424 0.005483728 0.005668135 0.005826241 0.005959018 0.006063557
 0.006142952 0.006203247 0.006241976 0.006260768 0.006249942 0.006200081 0.006109234 0.005970129 0.00579592 0.005590141
 0.005363789 0.005122286 0.004862884 0.004585836 0.004288091 0.003968554 0.003634304 0.003285672 0.0029311 0.002570767
 0.002206832 0.00183917 0.001467713 0.001092803 0.0007153042 0.0003367845 -3.909907E-05 -0.000408662 -0.0007644272 -0.001101106
 -0.001409917 -0.001684521 -0.001916208 -0.002101736 -0.00223185 -0.00232335 -0.002372361 -0.002429362 -0.002503103 -0.002653785
 -0.002896181 -0.003253293 -0.003733129 -0.004305867 -0.004970927 -0.005670772 -0.006402444 -0.007111948 -0.00779895 -0.008434146
 -0.009022177 -0.009566148 -0.01007205 -0.01055928 -0.0110275 -0.01148661 -0.01193016 -0.01235343 -0.01275193 -0.01311855
 -0.01345566 -0.01376128 -0.01404338 -0.01430435 -0.01455216 -0.01479055 -0.01501915 -0.01523921 -0.01544396 -0.01563215
 -0.01580556 -0.01596393 -0.01611935 -0.01627222 -0.01642914 -0.01658983 -0.01675441 -0.01692379 -0.01710286 -0.01729102
 -0.01749127 -0.0176973 -0.01789792 -0.01808978 -0.01826045 -0.01841914 -0.0185691 -0.01872096 -0.01888509 -0.01905764
 -0.01924128 -0.01942342 -0.01960066 -0.01976554 -0.01991553 -0.02005037 -0.02016892 -0.02028018 -0.02038423 -0.020503
 -0.02063767 -0.02081141 -0.02102314 -0.02127612 -0.02156552 -0.02187236 -0.02219231 -0.02250277 -0.02280409 -0.02308649
 -0.02335179 -0.02360042 -0.02382813 -0.02403216 -0.02420595 -0.0243401 -0.02444687 -0.02452237 -0.02460608 -0.02470726
 -0.0248616 -0.02508127 -0.0253621 -0.02570801 -0.0260803 -0.02647693 -0.02685652 -0.02721738 -0.02753357 -0.02780552
 -0.02802388 -0.02819174 -0.02831651 -0.02840319 -0.02846935 -0.02851881 -0.02856773 -0.02861607 -0.02867172 -0.02872935
 -0.02878841 -0.02883896 -0.02887485 -0.02888826 -0.02887275 -0.02883066 -0.02875948 -0.02867195 -0.02856886 -0.02846832
 -0.0283724 -0.02829674 -0.02824304 -0.02821028 -0.02819774 -0.02818392 -0.02816763 -0.02812817 -0.028068 -0.02798735
 -0.02788899 -0.02778251 -0.02766549 -0.02753715 -0.02739611 -0.02723698 -0.02706866 -0.02689564 -0.02673146 -0.02658756
 -0.02646744 -0.02637818 -0.02630826 -0.02625758 -0.02620701 -0.02615297 -0.02608064 -0.02598688 -0.02587109 -0.0257325
 -0.02558503 -0.02542952 -0.02528373 -0.02514744 -0.0250279 -0.02492139 -0.02481626 -0.02470629 -0.02456617 -0.02439493
 -0.02417443 -0.02391753 -0.02363051 -0.02333594 -0.02305767 -0.02281018 -0.02261395 -0.02246083 -0.02235614 -0.02227389
 -0.02220829 -0.02213542 -0.022048 -0.0219414 -0.02181271 -0.02167563 -0.02153076 -0.02139418 -0.02126647 -0.02115458
 -0.0210581 -0.02097647 -0.02090897 -0.02085203 -0.0208053 -0.02076526 -0.02073335 -0.02071073 -0.02069889 -0.02070204
 -0.02071618 -0.02074081 -0.02076641 -0.02078662 -0.02079481 -0.02078572 -0.02075906 -0.02071349 -0.02065066 -0.02056992
 -0.02047731 -0.02037239 -0.02027087 -0.02017366 -0.02009857 -0.02004618 -0.02002075 -0.02002074 -0.02003428 -0.02005947
 -0.02008025 -0.02009779 -0.02010641 -0.02011015 -0.02011526 -0.02012271 -0.02013863 -0.02015653 -0.02017296 -0.02018034
 -0.02017096 -0.02014606 -0.02010316 -0.02004927 -0.01998658 -0.01991769 -0.01984385 -0.01976367 -0.01967664 -0.01958586
 -0.01949113 -0.01940419 -0.01932575 -0.01927157 -0.01924139 -0.01924145 -0.01926734 -0.01930258 -0.01934016 -0.01934859
 -0.01932754 -0.01925762 -0.01915095 -0.01901447 -0.01886489 -0.01872206 -0.01859406 -0.01849477 -0.01841807 -0.01836666
 -0.01832531 -0.0182904 -0.01824809 -0.01819402 -0.01812504 -0.01803906 -0.01794591 -0.01784593 -0.01775334 -0.0176686
 -0.01759397 -0.01752774 -0.01745425 -0.01737214 -0.01726476 -0.01713582 -0.01698737 -0.01682488 -0.01666209 -0.01649876
 -0.01634062 -0.0161854 -0.0160311 -0.01588143 -0.01573849 -0.01560456 -0.01548391 -0.01536663 -0.01525113 -0.01512629
 -0.01498778 -0.01483943 -0.0146803 -0.01452319 -0.01436921 -0.01422433 -0.01408872 -0.01395889 -0.01383463 -0.01371176
 -0.01359174 -0.01347948 -0.01337717 -0.01329632 -0.01323327 -0.01318867 -0.01315129 -0.01310392 -0.0130417 -0.01294978
 -0.01283857 -0.01271081 -0.01257551 -0.01244038 -0.01229953 -0.01215251 -0.01199432 -0.01182252 -0.01164246 -0.01145497
 -0.01126055 -0.01105964 -0.01084481 -0.01061587 -0.01037441 -0.01012138 -0.009867523 -0.009612978 -0.009364521 -0.009120609
 -0.008881466 -0.008642083 -0.008394042 -0.008128093 -0.007825164 -0.007484724 -0.007093008 -0.006671936 -0.00622694 -0.005795194
 -0.005392061 -0.005057006 -0.004804922 -0.004665726 -0.004653646 -0.004754345 -0.004974576 -0.005236831 -0.005536407 -0.005791601
 -0.005998921 -0.006141051 -0.006221458 -0.006270665 -0.006290453 -0.006305643 -0.00631436 -0.006323026 -0.006330403 -0.006337824
 -0.006342343 -0.006341051 -0.006329097 -0.006299288 -0.006252073 -0.00618349 -0.006102174 -0.006009942 -0.005918846 -0.005833523
 -0.00576064 -0.005704673 -0.005655251 -0.005612563 -0.005557435 -0.005487268 -0.005406739 -0.005316346 -0.00524668 -0.005197816
 -0.005182869 -0.005196894 -0.005220314 -0.005249404 -0.005261773 -0.005257024 -0.005222995 -0.005162024 -0.005067501 -0.004956246
 -0.004840025 -0.004742465 -0.004690221 -0.004676569 -0.004715798 -0.004754742 -0.004777849 -0.00474883 -0.004645183 -0.004520095
 -0.004377037 -0.004270233 -0.004206777 -0.004183632 -0.004200615 -0.004231324 -0.004273543 -0.004292869 -0.004290404 -0.004250087
 -0.004182494 -0.004114583 -0.004053708 -0.004034887 -0.004045577 -0.00408394 -0.004131369 -0.004165482 -0.004180022 -0.004164272
 -0.004114191 -0.00402531 -0.003895196 -0.003717449 -0.003513371 -0.00328364 -0.003063192 -0.002858248 -0.002682934 -0.002539763
 -0.00242341 -0.002333676 -0.002265305 -0.002217477 -0.00217932 -0.002149902 -0.002115464 -0.002081485 -0.002057105 -0.002052061
 -0.002096235 -0.00218611 -0.00233471 -0.002520582 -0.002727442 -0.002932948 -0.003116045 -0.003262 -0.003356304 -0.00339928
 -0.003385838 -0.003329623 -0.003235058 -0.003099069 -0.002922458 -0.00269331 -0.002407814 -0.002105731 -0.001789213 -0.001523467
 -0.001305892 -0.00112693 -0.0009768095 -0.0007898343 -0.0005728834 -0.0003114635 -2.475483E-05 0.0002459532 0.0005000666 0.0007133503
 0.0009054798 0.00108879 0.001279252 0.001497673 0.001735693 0.002001544 0.00225772 0.002493776 0.002678138 0.002794069
 0.002867952 0.002896983 0.002944002 0.00301608 0.003130998 0.003289777 0.003460871 0.003644274 0.003830948 0.004024197
 0.00424196 0.004479612 0.004730375 0.004988746 0.00523466 0.005475924 0.005717576 0.005963016 0.006223896 0.006482607
 0.006731808 0.006950068 0.007124081 0.007242031 0.007294595 0.007286458 0.007210454 0.007110804 0.006989603 0.006911075
 0.006882946 0.006923803 0.007034857 0.0071869 0.007378687 0.007588722 0.007815736 0.008044944 0.008269045 0.008452215
 0.008594196 0.00867209 0.008700576 0.008695372 0.00866206 0.008615747 0.008548955 0.008455714 0.008346637 0.008222054
 0.008104793 0.008007077 0.007925369 0.007864628 0.007798005 0.007722481 0.007615384 0.007474361 0.007283241 0.007041043
 0.006746414 0.006401205 0.006030066 0.005634008 0.005232919 0.004822825 0.004396305 0.003957974 0.003509012 0.003069914
 0.002675677 0.002337389 0.002087204 0.001909101 0.001805278 0.001745957 0.001718536 0.001692758 0.001654229 0.001588071
 0.001482932 0.001362306 0.001225656 0.001114826 0.001035176 0.0009926859 0.0009879365</values></Ydata></AB><ScSm><Ydata ylabel="Single channel"><values byteorder="INTEL" format="FLOAT32" numvalues="1814"> 0.07260188 0.07260492 0.07268146 0.07285088 0.07307637 0.07328907 0.07343404 0.07350175 0.07351112 0.07347314
 0.07340194 0.07335687 0.07342311 0.07362538 0.07388301 0.07406594 0.07409673 0.07401733 0.07396348 0.07403557
 0.0741649 0.07413595 0.07378851 0.07320237 0.07264592 0.07232842 0.07226916 0.07245667 0.07298172 0.07378519
 0.07437571 0.0741822 0.07327363 0.07239048 0.07212247 0.07234095 0.072547 0.07244807 0.07205077 0.07154281
 0.07133518 0.0719512 0.07351262 0.07531542 0.0760819 0.07476526 0.07129749 0.06682731 0.06329756 0.06240395
 0.06439976 0.06775282 0.07029423 0.07094885 0.07025261 0.06925663 0.06839679 0.06762379 0.06713268 0.06740843
 0.06855287 0.06982611 0.07002685 0.06852078 0.06599699 0.06397989 0.06343884 0.06418027 0.06566286 0.06758711
 0.06906675 0.06815993 0.06378122 0.05811493 0.05563673 0.05885765 0.06564635 0.07131682 0.07279545 0.07033673
 0.06616113 0.06261726 0.06130087 0.06262141 0.06572148 0.06918886 0.07191443 0.07314977 0.07232139 0.06953038
 0.06603876 0.0636563 0.06362753 0.06614518 0.07031602 0.07424736 0.07590517 0.07461402 0.0715059 0.06832807
 0.06629686 0.06610087 0.06806698 0.07181697 0.07625057 0.08018494 0.08283712 0.08389914 0.08360051 0.0825635
 0.08133051 0.08027669 0.07994125 0.08069178 0.08184925 0.08195107 0.08034711 0.07807021 0.07676974 0.07700706
 0.07781525 0.07787709 0.07685389 0.07515986 0.07265893 0.06865242 0.0634762 0.05891857 0.05643555 0.05604535
 0.05738786 0.06029075 0.06352694 0.06474718 0.06305303 0.06063072 0.06058116 0.06361134 0.06767313 0.07046022
 0.07154099 0.07219241 0.07375422 0.07625891 0.07826749 0.07795827 0.07493602 0.07124451 0.06992225 0.07202
 0.07559004 0.07807934 0.07901938 0.07973821 0.0810404 0.08195786 0.08075519 0.07698967 0.07262361 0.07081355
 0.0731588 0.0781005 0.08205722 0.08207738 0.07782163 0.0716351 0.06671999 0.06492282 0.06623895 0.07002677
 0.07571587 0.08216807 0.08738899 0.08964489 0.08872508 0.08584133 0.08224442 0.0780654 0.07297826 0.06813063
 0.06637807 0.06958412 0.07623871 0.08271809 0.08651792 0.08750248 0.0864957 0.08373369 0.07909958 0.07362413
 0.06997655 0.07038583 0.07395066 0.07715514 0.0775526 0.07599603 0.07482035 0.07493752 0.07550222 0.07570162
 0.07591136 0.07704903 0.07925811 0.0815597 0.0828018 0.08271068 0.08193436 0.08128612 0.08100245 0.08057297
 0.07945248 0.07814489 0.07813723 0.08027632 0.08361076 0.08636983 0.08773804 0.08815373 0.08813165 0.08735885
 0.08515462 0.08176187 0.07887129 0.07836649 0.0805027 0.08375038 0.08638471 0.08772071 0.08794993 0.08752276
 0.08684319 0.08613262 0.0854945 0.0852017 0.0856315 0.08673108 0.08789109 0.08855954 0.08869532 0.08849341
 0.08799274 0.08715907 0.08617165 0.08543202 0.0852783 0.08573265 0.08653754 0.08738492 0.08803387 0.08828273
 0.08804044 0.08746607 0.08686975 0.08643229 0.08615186 0.08604696 0.08621634 0.08665244 0.08715349 0.08749731
 0.0876196 0.08758301 0.0874504 0.08724093 0.08697109 0.08670178 0.08654392 0.08658759 0.08679743 0.08702636
 0.08718295 0.08732334 0.08750956 0.08765332 0.08760788 0.0873746 0.0871184 0.08699069 0.08700658 0.08708382
 0.08712915 0.08705906 0.08679585 0.08633646 0.08584517 0.08559183 0.08573382 0.08619835 0.08679286 0.08734925
 0.08774882 0.08793071 0.08793883 0.08788288 0.08781114 0.08767617 0.08744335 0.08718895 0.08707277 0.08721548
 0.08758825 0.08802751 0.08836974 0.08855341 0.08860423 0.08859417 0.088622 0.08874284 0.08888893 0.08893275
 0.08884974 0.08875615 0.08876911 0.08887473 0.08895399 0.08892094 0.08882187 0.08878814 0.08889414 0.08908784
 0.08926815 0.08939596 0.08950913 0.08964653 0.08977412 0.08979869 0.08967333 0.08947444 0.08933207 0.08929382
 0.08931195 0.08935483 0.0894563 0.08963579 0.08982919 0.08994149 0.0899491 0.08991802 0.08991823 0.0899405
 0.08991501 0.08980095 0.08963457 0.0894909 0.08941967 0.08941898 0.08944866 0.08946 0.08942294 0.08933762
 0.08922558 0.08910897 0.08899656 0.08889508 0.08883712 0.08887424 0.08901302 0.08916484 0.08919653 0.08905052
 0.08880293 0.08859112 0.0884863 0.08844247 0.08836319 0.08820264 0.08799595 0.08780806 0.08767432 0.08758645
 0.08751366 0.08743277 0.08735544 0.08733344 0.08741488 0.08757606 0.08771235 0.08772501 0.08761485 0.08747101
 0.08737731 0.08735344 0.087372 0.08740141 0.08743625 0.08750337 0.08762226 0.0877519 0.08781362 0.08778481
 0.08773378 0.08774681 0.08785726 0.08804733 0.08826497 0.08842889 0.08847666 0.08843412 0.08839868 0.08843672
 0.08852959 0.08862914 0.08872566 0.08883798 0.08896759 0.08909884 0.08923868 0.08942731 0.08969855 0.09003638
 0.09037472 0.09064336 0.09082642 0.09098445 0.09121004 0.09154861 0.09196013 0.09235823 0.09268379 0.09294441
 0.09318966 0.09345223 0.09372294 0.09398928 0.09427761 0.09462775 0.09503585 0.09545457 0.09584764 0.09621581
 0.09657329 0.09692669 0.0972814 0.0976519 0.09806015 0.09851795 0.09899904 0.09943625 0.09977198 0.1000159
 0.100241 0.1005264 0.1009052 0.10134 0.1017335 0.1019982 0.1021507 0.1023103 0.1025702 0.1028985
 0.1032041 0.1034739 0.1037885 0.1042038 0.1046678 0.1050748 0.1053758 0.1056143 0.1058643 0.1061463
 0.1064094 0.106594 0.1067058 0.1068105 0.1069617 0.1071643 0.1074176 0.1077482 0.1081654 0.1086136
 0.109009 0.1093115 0.109533 0.1096986 0.1098308 0.1099526 0.1100741 0.1101903 0.1103063 0.1104401
 0.110584 0.1107033 0.1107921 0.1108976 0.1110641 0.1112882 0.1115512 0.1118569 0.1122058 0.1125606
 0.1128877 0.1132187 0.1136151 0.1140621 0.1144473 0.1146769 0.1147734 0.1148272 0.1148902 0.1149701
 0.1150957 0.1153168 0.1156381 0.1160022 0.1163498 0.1166637 0.1169516 0.1172124 0.1174304 0.1175884
 0.1176845 0.1177424 0.1178076 0.1179313 0.1181511 0.1184693 0.1188423 0.1192001 0.1194876 0.1196782
 0.1197532 0.1196998 0.1195519 0.1194011 0.1193221 0.1192849 0.1191671 0.118856 0.1183191 0.117581
 0.1166688 0.1156028 0.1144277 0.1132292 0.1121097 0.1111497 0.1104002 0.1099135 0.1097635 0.1100009
 0.1105779 0.1113311 0.112047 0.112528 0.1126116 0.1121885 0.1112558 0.1099398 0.1084322 0.1068911
 0.1053947 0.1039477 0.1025089 0.1010483 0.09962839 0.09843501 0.09771043 0.09766486 0.09845117 0.1001583
 0.1027361 0.1059058 0.1092092 0.1122197 0.1147309 0.1167623 0.1184332 0.1198661 0.1211618 0.1223808
 0.1235215 0.1245505 0.1254647 0.1262999 0.1270812 0.127792 0.1283914 0.1288438 0.129141 0.1293148
 0.1294161 0.1294661 0.1294442 0.1293299 0.1291321 0.1288535 0.1284477 0.1278327 0.1269395 0.1257439
 0.1242824 0.122699 0.121326 0.120688 0.1213045 0.1233576 0.1265164 0.1301202 0.1335487 0.1364444
 0.1386944 0.1403359 0.1415007 0.1423655 0.1430811 0.1437319 0.1443458 0.144923 0.1454586 0.1459562
 0.1464288 0.1468915 0.1473587 0.1478381 0.1483163 0.1487607 0.1491526 0.1495157 0.1499001 0.150337
 0.1508087 0.1512667 0.1516829 0.1520763 0.1524774 0.1528761 0.1532333 0.1535389 0.1538289 0.1541478
 0.1545178 0.1549368 0.1553776 0.1557899 0.1561328 0.1564103 0.1566631 0.1569277 0.1572143 0.1575167
 0.1578288 0.1581477 0.1584706 0.1587974 0.1591339 0.1594825 0.1598233 0.1601197 0.160355 0.1605572
 0.1607744 0.1610285 0.1613014 0.1615644 0.1618151 0.1620846 0.1624072 0.1627808 0.163157 0.1634771
 0.1637223 0.1639263 0.1641394 0.1643856 0.1646556 0.164931 0.1652024 0.165468 0.1657285 0.1659895
 0.1662587 0.166536 0.1668116 0.1670763 0.1673318 0.167587 0.1678511 0.168128 0.1684189 0.1687287
 0.1690636 0.169416 0.1697547 0.1700441 0.1702741 0.1704666 0.1706537 0.1708558 0.1710779 0.1713159
 0.1715635 0.1718166 0.1720738 0.172332 0.1725868 0.1728384 0.1730944 0.17336 0.1736305 0.1738983
 0.174167 0.1744493 0.1747482 0.1750473 0.1753245 0.1755746 0.1758123 0.1760571 0.1763181 0.1765899
 0.1768561 0.1771023 0.1773314 0.1775621 0.1778097 0.1780711 0.1783319 0.1785828 0.1788255 0.1790667
 0.179311 0.1795589 0.1798096 0.1800615 0.1803126 0.1805613 0.1808082 0.1810521 0.1812902 0.1815245
 0.1817646 0.1820191 0.182285 0.1825509 0.1828071 0.1830499 0.1832819 0.1835093 0.1837397 0.1839801
 0.1842322 0.1844887 0.184738 0.1849754 0.1852088 0.1854494 0.1857013 0.1859593 0.1862126 0.1864546
 0.1866924 0.1869388 0.187195 0.1874485 0.187693 0.187938 0.1881942 0.1884592 0.1887208 0.1889702
 0.1892123 0.1894596 0.1897164 0.1899724 0.1902167 0.1904502 0.19068 0.1909093 0.191136 0.1913552
 0.1915633 0.1917643 0.191967 0.1921775 0.1923987 0.1926333 0.1928784 0.1931232 0.1933635 0.1936063
 0.1938562 0.1941067 0.1943512 0.1945893 0.1948236 0.1950595 0.195303 0.1955529 0.1958036 0.1960556
 0.1963132 0.1965757 0.1968384 0.1970975 0.19735 0.1975988 0.1978529 0.1981133 0.1983696 0.1986164
 0.19886 0.1991047 0.1993516 0.199606 0.1998709 0.2001401 0.2004092 0.2006787 0.2009433 0.2011964
 0.2014432 0.2016926 0.2019448 0.202199 0.2024587 0.2027226 0.2029855 0.2032455 0.2035001 0.2037441
 0.2039831 0.2042289 0.2044831 0.2047409 0.2050016 0.205262 0.2055161 0.2057693 0.206026 0.2062627
 0.2064212 0.206374 0.2058067 0.2040939 0.2002863 0.193296 0.1823184 0.1673315 0.1492879 0.1297884
 0.1104921 0.09267153 0.07707631 0.0640329 0.05361624 0.04575474 0.04028793 0.03707444 0.03611384 0.03766861
 0.04238653 0.05091207 0.06245692 0.07354824 0.07938931 0.07764462 0.0706697 0.06336521 0.05911383 0.05815473
 0.05904129 0.06053432 0.06223996 0.06438536 0.06735691 0.07125688 0.07589206 0.08125435 0.08774646 0.09566545
 0.1045948 0.1135842 0.1219677 0.129879 0.1379277 0.1464607 0.1551971 0.1635029 0.1708932 0.1772764
 0.1828573 0.1879109 0.1926249 0.1970835 0.2013283 0.2053586 0.2090393 0.2120599 0.2140847 0.2150089
 0.2150837 0.2147741 0.2144803 0.2143816 0.2144927 0.2147896 0.2152597 0.2158892 0.2166542 0.2175193
 0.2184393 0.2193746 0.220304 0.2212152 0.2220919 0.22292 0.2236918 0.2244003 0.2250423 0.2256265
 0.2261649 0.2266624 0.227123 0.2275573 0.2279768 0.2283873 0.2287886 0.2291724 0.2295246 0.2298374
 0.2301168 0.2303772 0.2306299 0.2308798 0.2311254 0.2313639 0.2315978 0.2318347 0.2320802 0.2323335
 0.2325892 0.2328371 0.233069 0.2332895 0.2335154 0.2337564 0.2340046 0.2342444 0.2344689 0.2346839
 0.2349023 0.2351333 0.2353724 0.2356048 0.2358227 0.2360329 0.2362475 0.2364722 0.2367042 0.236935
 0.2371597 0.2373858 0.2376244 0.2378751 0.2381283 0.2383797 0.238631 0.2388819 0.2391327 0.2393855
 0.2396325 0.2398551 0.2400438 0.2402149 0.2404012 0.2406289 0.2408956 0.2411695 0.2414178 0.2416363
 0.2418426 0.2420506 0.2422585 0.2424563 0.2426437 0.2428451 0.2430944 0.2433922 0.2437007 0.2439923
 0.2442736 0.2445536 0.244827 0.2450944 0.2453583 0.2455939 0.2457666 0.2458937 0.2460583 0.2463424
 0.2467451 0.247174 0.2475308 0.2477991 0.2480334 0.2482903 0.248595 0.2489232 0.2491712 0.249224
 0.249128 0.2491255 0.2494314 0.2500204 0.250688 0.2512616 0.2517 0.252042 0.2523274 0.252556
 0.2526876 0.2526895 0.2526199 0.2526567 0.2529761 0.2535644 0.2542112 0.2547244 0.255084 0.2553591
 0.2555918 0.2557957 0.2559265 0.2558221 0.2553699 0.2548112 0.2546796 0.2552853 0.2563663 0.2573701
 0.2580032 0.2583779 0.2586977 0.2590043 0.2592428 0.2593127 0.2589429 0.2578459 0.2562841 0.2552274
 0.2555553 0.257174 0.2591741 0.2607349 0.2616417 0.2620959 0.2623647 0.2625973 0.2627119 0.2624034
 0.2614832 0.260329 0.2597932 0.2604157 0.2618195 0.2631198 0.2638312 0.2641236 0.2643483 0.2646441
 0.264844 0.264424 0.2627998 0.2601874 0.258037 0.2580123 0.2603663 0.2636395 0.2661071 0.2672622
 0.2676839 0.2677701 0.2671521 0.2653639 0.2625434 0.2593674 0.2568488 0.2562107 0.2580725 0.2614265
 0.2642098 0.2653447 0.2656498 0.2664833 0.2681192 0.2697515 0.2705414 0.2702691 0.2691942 0.2675959
 0.2656364 0.2637803 0.2630529 0.2643165 0.2672195 0.2703159 0.2724 0.2734258 0.2738762 0.2733437
 0.2702461 0.2637318 0.2560503 0.2519249 0.2543828 0.2615941 0.2688389 0.273148 0.2749284 0.2757481
 0.2762285 0.2758758 0.2733696 0.2672815 0.2583296 0.2508043 0.2496692 0.2556467 0.2643951 0.2705599
 0.2714271 0.267211 0.2600855 0.2535286 0.2509052 0.2534339 0.2596565 0.2668737 0.2727644 0.2760245
 0.2763524 0.2743229 0.2713445 0.26932 0.2692715 0.2698366 0.268303 0.2640362 0.2595335 0.2567511
 0.2540665 0.2492729 0.2444253 0.2444827 0.2508661 0.2590859 0.263787 0.2641702 0.2630303 0.261666
 0.2576711 0.2484121 0.2360259 0.2275134 0.2286118 0.2378369 0.2478115 0.2524871 0.2519419 0.2502076
 0.2498871 0.2495081 0.24561 0.2372639 0.2283463 0.2242738 0.2262452 0.2301806 0.2315634 0.2290608
 0.2229341 0.2135597 0.2039792 0.2008146 0.2086769 0.2244901 0.2398877 0.2480774 0.246312 0.2343918
 0.2156027 0.1986739 0.1935306 0.202417 0.2171752 0.226751 0.2259642 0.2164196 0.2017729 0.1852276
 0.1710352 0.1649601 0.1708207 0.1866188 0.2045953 0.2150917 0.2118871 0.1970396 0.1813045 0.1763886
 0.1842965 0.1959546 0.2013739 0.1987073 0.1928208 0.189015 0.1899596 0.1952508 0.20185 0.206927
 0.2101265 0.2104113 0.2030062 0.1851666 0.1638924 0.1513348 0.1521604 0.1611466 0.1729244 0.1867889
 0.2003617 0.2062922 0.2005603 0.1901365 0.1870662 0.1956916 0.2089237 0.2168979 0.2167375 0.2130903
 0.2109376 0.2102575 0.2085385 0.206591 0.2087505 0.2168921 0.2271444 0.2342032 0.2368504 0.2374829
 0.238057 0.2386007 0.2385804 0.2378019 0.236345 0.2346893 0.2335511 0.2330762 0.2327099 0.2320278
 0.2307048 0.2272722 0.2194409 0.2073306 0.1955166 0.1894174 0.1895663 0.1919669 0.194038 0.1961336
 0.1960086 0.1872439 0.1677321 0.1466528 0.1377961 0.1462416 0.16458 0.1813612 0.1898579 0.1886324
 0.1781128 0.1608508 0.1443443 0.1387008 0.14837 0.1678607 0.1876271 0.2023034 0.2112788 0.2141175
 0.2096096 0.1991086 0.1878575 0.1819987 0.1848405 0.1953833 0.2086275 0.2168437 0.2133525 0.199181
 0.1860452 0.1877077 0.2054905 0.2260132 0.2362305 0.2366625 0.2360464 0.237759 0.2381641 0.2361907
 0.2371439 0.2454097 0.2579821 0.267416 0.2683511 0.2596011 0.2434143 0.2259898 0.2159536 0.217578
 0.2261428 0.2332578 0.2350511 0.231657 0.2223217 0.2078059 0.1958686 0.1964733 0.2102304 0.2270808
 0.2377654 0.2422787 0.2456737 0.2493489 0.2493312 0.2422851 0.2310943 0.2230849 0.2227741 0.2279049
 0.2332231 0.2359903 0.23604 0.2326706 0.2250746 0.2158313 0.2109301 0.2145824 0.2248691 0.2355429
 0.2416257 0.2425333 0.2405881 0.2380466 0.2356027 0.2325906 0.2284717 0.2247272 0.2245523 0.2294047
 0.2366014 0.2420324 0.2448299 0.2476397 0.252454 0.2578647 0.2607873 0.2598491 0.2567146 0.2546433
 0.2558676 0.2598015 0.263465 0.2640178 0.2614565 0.2588711 0.2596067 0.2640861 0.269779 0.2740728
 0.2764006 0.277685 0.2787908 0.2797807 0.2798746 0.2780346 0.2744191 0.2712459 0.2712209 0.2748495
 0.279956 0.2839389 0.2858725 0.2863675 0.2861507 0.285306 0.2836837 0.2815837 0.2797848 0.2789396
 0.2791061 0.2798921 0.2808694 0.2817689 0.282462 0.2829346 0.2832451 0.2834442 0.2835597 0.2836433
 0.2837366 0.2837868 0.2837036 0.2835298 0.2834578 0.2836135 0.2838924 0.2840734 0.2840207 0.2836885
 0.2830025 0.281886 0.2804034 0.2787401 0.2769949 0.2751086 0.273118 0.2714449 0.2707798 0.2715624
 0.2735673 0.2760355 0.278196 0.2796582 0.280425 0.2807086 0.2807742 0.280834 0.2809636 0.2810968
 0.2811248 0.2810031 0.2807621 0.28044 0.2800417 0.2795675 0.2790418 0.2784859 0.2778883 0.277246
 0.2766216 0.2761107 0.2757355 0.275401 0.2749762 0.2744028 0.2737133 0.2729655 0.2721813 0.2713363
 0.2703955 0.2693668 0.2683221 0.2673412 0.2664287 0.2655035 0.2644699 0.2632849 0.2619762 0.260636
 0.2593852 0.2582945 0.2573308 0.2563916 0.2553838 0.2542611 0.2530145 0.2516582 0.2502195 0.2487269
 0.2471978 0.2456316 0.2440115 0.242318 0.2405407 0.2386761 0.2367242 0.2346948 0.2326129 0.2305032
 0.2283573 0.2261063 0.2236256 0.2207734 0.2174312 0.2135226 0.2090324 0.2040358 0.1987016 0.1932492
 0.187893 0.1828077 0.1781172 0.1739084 0.1702608 0.1672541 0.1649441 0.1633491 0.1624686 0.1623006
 0.1628344 0.1640328 0.1658211 0.1680875 0.1706941 0.1734874 0.1763016 0.1789813 0.1814363 0.1836804
 0.1858011 0.1878768 0.1899144 0.1918578 0.1936504 0.1952761 0.1967415 0.1980443 0.1991819 0.200176
 0.2010647 0.2018783 0.2026332 0.2033343 0.2039718 0.2045195 0.204946 0.2052411 0.2054562 0.2057143
 0.2061482 0.2068126 0.2076631 0.2086119 0.209592 0.2105779 0.2115688 0.2125624 0.2135481 0.2145206
 0.2154876 0.2164651 0.2174805 0.2185756 0.2197874 0.221129 0.2225932 0.2241548 0.2257581 0.2273233
 0.2287689 0.2300176 0.2310015 0.2316977 0.232147 0.2324115 0.2325239 0.2324913 0.2323248 0.2320493
 0.2316983 0.2313097 0.2309152 0.2305273 0.2301354 0.2297164 0.2292529 0.228745 0.2281984 0.2276102
 0.226992 0.2264022 0.2259214 0.2255832 0.2253402 0.2250977 0.2247761 0.2243479 0.2238359 0.2232808
 0.2227114 0.2221287 0.2214984 0.220762 0.2198762 0.2188434 0.217695 0.216454 0.2151259 0.2137077
 0.2121944 0.2105862 0.2088934 0.2071222 0.2052648 0.2033111 0.2012574 0.1991041 0.1968713 0.1946213
 0.1924411 0.1903921 0.1884866 0.1867028 0.1850109 0.1833911 0.1818358 0.1803326 0.1788629 0.1774324
 0.1760828 0.1748493 0.1737212 0.1726611 0.1716501 0.1707003 0.1698368 0.1690781 0.1684277 0.1678767
 0.1674117 0.1670242 0.1667217 0.1665309 0.1664698 0.1665091 0.1665748 0.166591 0.1665152 0.1663496
 0.1661413 0.1659556 0.1658283 0.1657495 0.1656909 0.1656228 0.1654913 0.1652019 0.1646404 0.1637203
 0.1624227 0.1607988 0.15894 0.156959 0.1549934 0.1531877 0.151647 0.1504125 0.1494703 0.1487551
 0.1481726 0.1476611 0.1472356 0.1469623 0.1468999 0.147038 0.1472576 0.1473869 0.1473569 0.1472881
 0.147384 0.1477598 0.1483818 0.1491197 0.1498284 0.150415 0.1508522 0.1511407 0.1512915 0.1513377
 0.1513119 0.1512091 0.1510116 0.1507327 0.1504019 0.1500311 0.1496186 0.1491509 0.1485973 0.1479346
 0.1471677 0.1463084 0.1453645 0.1443427 0.1432221 0.1419598 0.1405996 0.1393472 0.138474 0.1381581
 0.1384085 0.1390728 0.1399243 0.1407973 0.1415935 0.1421449 0.1422674 0.1421124 0.1423143 0.1435277
 0.1457852 0.1484265 0.1506673 0.1521299 0.1528358 0.1529028 0.152414 0.1514466 0.1500216 0.148076
 0.1456064 0.1427525 0.1396769 0.1365117 0.1334513 0.1307175 0.1284236 0.1265747 0.1251395 0.1241443
 0.1237226 0.1235007 0.1215761 0.1155155 0.1061028 0.09902486 0.1001103 0.1087867 0.1184612 0.1234846
 0.1236554 0.1219403 0.1204134 0.1194161 0.1188588 0.118871 0.1195603 0.1207762 0.1221233 0.1231861
 0.1238021 0.1240346 0.1238636 0.1229372 0.1205181 0.1157386 0.1083004 0.09909086 0.08987364 0.08224812
 0.07693283 0.07379299 0.07218938 0.07135187 0.07076646 0.07040172 0.07057419 0.0715871 0.07348506 0.07610349
 0.07923704 0.0826357 0.08590032 0.08862138 0.09068912 0.09229972 0.09361808 0.0945907 0.09509526 0.09510837
 0.09470341 0.09400262 0.09315059 0.09225144 0.09129378 0.09017516 0.08886759 0.08756927 0.08660211 0.086112
 0.08596049 0.0859378 0.08594869 0.08596025 0.0859258 0.08582107 0.08567052 0.08554135 0.0855568 0.08582945
 0.08631438 0.0868094 0.08714366 0.08730729 0.08739121 0.08743009 0.08729573 0.0868158 0.08607715 0.08545007
 0.08511489 0.08473828 0.08390333 0.08274161 0.08184543 0.08160612 0.08187252 0.08222313 0.08236155 0.08224268
 0.08202019 0.08197182 0.08232758 0.08299725</values></Ydata></ScSm><ScRf><Ydata ylabel="Single channel"><values byteorder="INTEL" format="FLOAT32" numvalues="1820"> 0.06057505 0.06072573 0.0608224 0.06086315 0.06086417 0.06086691 0.06092576 0.06107021 0.06127601 0.06147578
 0.06160722 0.06165608 0.06164635 0.06159816 0.06152534 0.0614726 0.0615094 0.06166265 0.06187477 0.06204099
 0.06208859 0.06203852 0.06199751 0.06205562 0.06216498 0.0621473 0.06186322 0.06137457 0.06090548 0.06063318
 0.06057567 0.06072495 0.06116015 0.06183529 0.06233736 0.06218025 0.06141512 0.06066467 0.06043202 0.0606164
 0.06079974 0.0607304 0.06040577 0.0599808 0.05980727 0.06033453 0.06166739 0.06320661 0.06386694 0.06276103
 0.05983186 0.05605207 0.05306491 0.05230342 0.05398133 0.05680512 0.05894651 0.05950347 0.05893199 0.05811355
 0.05740079 0.05673954 0.05629759 0.0565024 0.057457 0.05853805 0.05871826 0.0574497 0.0553141 0.05360656
 0.0531489 0.05377271 0.05501605 0.05662946 0.05787297 0.05710943 0.05341528 0.04862822 0.04653237 0.04926082
 0.05501813 0.05983465 0.06109716 0.05901683 0.0554827 0.05249368 0.05139685 0.05252238 0.05513319 0.05803905
 0.06031683 0.06134742 0.06065266 0.05831493 0.05538773 0.0533849 0.0533529 0.05546281 0.0589717 0.06228655
 0.06368875 0.06260405 0.05998357 0.05729943 0.0555794 0.05540965 0.0570722 0.06025095 0.06401478 0.06735917
 0.06961755 0.07052681 0.07028035 0.06940739 0.06837209 0.06749175 0.06721346 0.06784088 0.06880592 0.0688851
 0.06753343 0.06561709 0.06452252 0.06472279 0.06540191 0.06544591 0.06456839 0.06312397 0.06100454 0.05762271
 0.0532598 0.04942249 0.04733735 0.04701746 0.04816025 0.05062697 0.05338619 0.05444766 0.05303744 0.05099154
 0.05093217 0.05346877 0.05688127 0.05922363 0.06012932 0.0606759 0.06199546 0.0641161 0.0658223 0.06557257
 0.06302808 0.05991478 0.05880775 0.06060238 0.06364805 0.06577459 0.06658179 0.06720056 0.06831932 0.0691191
 0.06812964 0.06497835 0.06132494 0.05982945 0.06183179 0.06601144 0.06934795 0.06935161 0.06573738 0.06049468
 0.05634137 0.05484118 0.05598451 0.0592283 0.06409764 0.06963357 0.07414082 0.0761347 0.0754168 0.07300162
 0.06995347 0.0663978 0.06206976 0.05795365 0.05649031 0.05927616 0.0650226 0.07062727 0.07394192 0.07484624
 0.07404144 0.07172234 0.06778237 0.06311178 0.06002226 0.06044696 0.06360762 0.06645681 0.06686997 0.06558529
 0.06463093 0.06479833 0.06534702 0.06556825 0.06580042 0.06685947 0.06887608 0.07098639 0.07216709 0.07216374
 0.07153863 0.07101412 0.07081392 0.07050018 0.06959514 0.06853995 0.06863895 0.07062971 0.07366469 0.07617822
 0.07745367 0.07788658 0.07793866 0.07732897 0.07544094 0.07248359 0.06997181 0.06960338 0.07161356 0.07462364
 0.07707368 0.07834829 0.07863221 0.07833862 0.07782605 0.07728767 0.07682002 0.07667368 0.07718269 0.07828534
 0.07942246 0.08009805 0.08028415 0.08016337 0.07977258 0.07908468 0.07827028 0.07769609 0.07765836 0.07816241
 0.07897098 0.07981551 0.08048996 0.08080927 0.08067347 0.08021371 0.07972037 0.07938099 0.07920805 0.07921402
 0.07947695 0.07998183 0.08053994 0.08094418 0.08113384 0.08116806 0.08110718 0.08096918 0.08077053 0.08057665
 0.0805027 0.08063163 0.0809112 0.08118758 0.08138485 0.08158262 0.08184998 0.08208256 0.08211064 0.08192652
 0.08170505 0.08161259 0.08167107 0.08179963 0.08190846 0.08191706 0.08174421 0.08137774 0.08097018 0.08078011
 0.08096378 0.08146432 0.08211031 0.08273964 0.08322056 0.08347443 0.08353616 0.08351742 0.08347444 0.08336784
 0.08316711 0.08294803 0.08286764 0.08304624 0.08345968 0.08394828 0.08434322 0.0845714 0.08465534 0.08467938
 0.08475824 0.08494809 0.08516199 0.0852492 0.08518216 0.08509716 0.08512858 0.08525759 0.08535063 0.0853195
 0.08521969 0.08519004 0.08530746 0.08552063 0.08572707 0.08588856 0.08605167 0.08626254 0.08647494 0.08656545
 0.08646484 0.08625526 0.08609035 0.0860337 0.08603886 0.08607691 0.08619468 0.08641621 0.0866572 0.08679605
 0.0868082 0.08678466 0.086815 0.08688302 0.08689456 0.08678946 0.08660392 0.08643273 0.0863542 0.08638518
 0.08647921 0.08655737 0.08655826 0.08647624 0.08635528 0.08624434 0.08616319 0.08611928 0.08614716 0.08629595
 0.08655147 0.08679004 0.08685251 0.0866857 0.08640037 0.08617531 0.08609995 0.08610976 0.08606845 0.08590063
 0.08564249 0.08538391 0.08518604 0.08505317 0.08495781 0.08487894 0.08482766 0.08484524 0.08495848 0.08511859
 0.08520444 0.08512087 0.08489241 0.08463616 0.08445169 0.08436034 0.08432911 0.08431546 0.0843025 0.08431818
 0.0843983 0.08451222 0.08456676 0.08451171 0.08440302 0.08434162 0.08438969 0.08455016 0.08476657 0.0849299
 0.08494981 0.08484749 0.08473855 0.08471178 0.08476137 0.08483867 0.08492167 0.0850143 0.08511496 0.08521707
 0.08533207 0.08548975 0.08570871 0.08596875 0.08621453 0.086392 0.0864937 0.08657531 0.08672052 0.0869763
 0.08731361 0.08764981 0.08791438 0.08810113 0.08825868 0.08843093 0.08862026 0.08881776 0.08904468 0.08933071
 0.08966219 0.08998836 0.09027858 0.09054606 0.09081667 0.09109934 0.09139124 0.09169984 0.09205312 0.09247496
 0.09293524 0.09333964 0.093603 0.09373596 0.093842 0.09403355 0.09435411 0.09475018 0.09509876 0.09529927
 0.09537514 0.09545994 0.0956527 0.09591758 0.09616321 0.09638789 0.09668541 0.09710953 0.09758453 0.09797208
 0.09820503 0.09833926 0.09848218 0.09868034 0.09888259 0.09901612 0.09908363 0.09915758 0.09928695 0.0994588
 0.09966451 0.09994534 0.1003294 0.100762 0.1011465 0.1014338 0.1016379 0.1017885 0.1019041 0.1019925
 0.1020499 0.1020763 0.1021026 0.1021719 0.1022799 0.1023678 0.1023981 0.102406 0.1024588 0.1025929
 0.1028086 0.103094 0.1034184 0.1037267 0.1039851 0.1042348 0.1045523 0.1049369 0.1052775 0.1054664
 0.1055173 0.1055277 0.1055551 0.1055933 0.1056534 0.1057929 0.1060448 0.1063736 0.1067226 0.1070704
 0.1074208 0.1077657 0.1080732 0.108301 0.1084183 0.1084302 0.1083897 0.108382 0.1084837 0.1087209
 0.1090518 0.109395 0.1096817 0.1098797 0.1099758 0.1099713 0.1099141 0.1099045 0.1100183 0.1102183
 0.1103719 0.1103599 0.1101506 0.1097726 0.1092561 0.1086252 0.1079301 0.1072571 0.1066955 0.1062978
 0.1060789 0.1060539 0.1062587 0.1067088 0.1073415 0.1080308 0.1086661 0.109182 0.1095075 0.1095437
 0.1092372 0.1086492 0.107919 0.1071744 0.1064889 0.1058806 0.1053163 0.1047533 0.1042235 0.1038751
 0.103905 0.1044432 0.105488 0.1069054 0.1084699 0.1099427 0.1111697 0.1121356 0.1129263 0.1136362
 0.1143108 0.1149651 0.11562 0.1162866 0.1169293 0.1174894 0.1179517 0.1183583 0.118754 0.1191425
 0.1194974 0.1197931 0.1200289 0.1202352 0.1204427 0.1206317 0.1207375 0.1207234 0.1206222 0.1204908
 0.1203472 0.1201642 0.1199018 0.1195387 0.1191048 0.1187111 0.1185369 0.1187541 0.1194304 0.1204877
 0.1217568 0.1230807 0.1243618 0.1255218 0.1264686 0.1271426 0.1275767 0.1278756 0.1281392 0.1284171
 0.1287168 0.129026 0.1293286 0.1296165 0.1298941 0.1301766 0.1304842 0.1308238 0.1311693 0.1314745
 0.1317211 0.1319486 0.132223 0.1325738 0.1329657 0.1333365 0.1336618 0.1339724 0.1342984 0.1346125
 0.1348582 0.1350271 0.1351776 0.1353797 0.1356647 0.1360209 0.1364024 0.1367428 0.1369972 0.1371801
 0.1373471 0.1375388 0.1377575 0.1379917 0.138239 0.1384979 0.1387574 0.1390108 0.1392721 0.1395578
 0.1398516 0.1401046 0.1402862 0.1404232 0.1405758 0.1407786 0.1410136 0.1412394 0.1414409 0.1416476
 0.1419009 0.1422029 0.142504 0.1427465 0.1429154 0.1430437 0.1431769 0.1433408 0.1435365 0.1437526
 0.1439751 0.1441916 0.1443956 0.1445926 0.1447955 0.1450118 0.1452356 0.1454538 0.1456582 0.1458511
 0.1460423 0.1462424 0.1464601 0.1467082 0.146999 0.1473208 0.1476288 0.1478749 0.1480475 0.1481719
 0.1482818 0.1484019 0.1485471 0.14872 0.1489114 0.1491116 0.1493182 0.1495304 0.1497429 0.14995
 0.150151 0.1503515 0.1505601 0.1507822 0.1510155 0.1512537 0.1514899 0.1517157 0.1519217 0.1521048
 0.1522727 0.1524401 0.1526197 0.1528148 0.1530159 0.1532099 0.1533954 0.1535828 0.1537781 0.1539765
 0.1541706 0.1543588 0.1545438 0.1547306 0.1549263 0.155136 0.1553551 0.1555706 0.1557723 0.1559623
 0.1561517 0.156348 0.156549 0.1567488 0.1569442 0.1571352 0.1573238 0.157515 0.1577136 0.1579181
 0.1581213 0.1583163 0.1585027 0.1586868 0.1588778 0.1590811 0.1592939 0.1595087 0.15972 0.1599259
 0.1601277 0.160327 0.1605242 0.1607205 0.1609218 0.1611361 0.1613636 0.1615958 0.1618221 0.1620352
 0.1622334 0.1624236 0.1626191 0.1628277 0.1630472 0.1632721 0.1634983 0.1637214 0.1639346 0.1641312
 0.1643077 0.164469 0.1646288 0.1648009 0.1649893 0.1651874 0.1653829 0.1655647 0.1657337 0.1659041
 0.1660888 0.1662874 0.1664935 0.1667035 0.1669139 0.1671191 0.1673152 0.167503 0.1676888 0.1678819
 0.1680862 0.1682952 0.1685036 0.1687173 0.168941 0.1691664 0.1693829 0.1695894 0.1697925 0.1699986
 0.1702104 0.1704234 0.1706294 0.1708291 0.1710314 0.1712409 0.1714562 0.171677 0.1719008 0.1721199
 0.1723293 0.1725293 0.1727225 0.1729175 0.1731274 0.1733512 0.1735717 0.1737797 0.1739843 0.1741951
 0.1744136 0.1746385 0.1748637 0.1750781 0.1752796 0.1754763 0.1756735 0.1758747 0.1760877 0.176313
 0.1765392 0.1767591 0.1769728 0.1771682 0.1773026 0.1772614 0.1767656 0.1752736 0.1719693 0.1659199
 0.1564416 0.143526 0.1279952 0.111216 0.09460136 0.07924072 0.0657876 0.05453576 0.04555425 0.03877786
 0.03406911 0.0313128 0.03050809 0.0318678 0.03593544 0.04326293 0.05318097 0.06271452 0.06774484 0.06626068
 0.06027915 0.05400678 0.05034918 0.04951512 0.05026987 0.0515538 0.05302058 0.05485287 0.05738466 0.06071992
 0.0647018 0.0693159 0.0748982 0.08170509 0.08938636 0.09712686 0.1043468 0.1111532 0.1180693 0.1253952
 0.1328905 0.1400135 0.1463552 0.1518418 0.1566464 0.1609999 0.1650627 0.1689081 0.1725697 0.1760438
 0.179212 0.1818054 0.1835335 0.184307 0.1843446 0.1840519 0.183782 0.183697 0.1838087 0.1840844
 0.1844944 0.1850159 0.1856362 0.186348 0.1871306 0.1879497 0.1887744 0.1895825 0.1903544 0.1910754
 0.1917378 0.1923368 0.192873 0.1933594 0.1938142 0.1942464 0.1946556 0.1950395 0.1953987 0.1957388
 0.1960689 0.1963921 0.1967008 0.1969836 0.1972358 0.1974613 0.1976701 0.1978731 0.1980767 0.198283
 0.1984944 0.1987105 0.198924 0.1991272 0.1993205 0.1995088 0.1996959 0.1998855 0.2000787 0.2002698
 0.2004543 0.2006401 0.20084 0.2010548 0.2012746 0.2014918 0.2017036 0.201907 0.2021 0.2022864
 0.2024741 0.2026715 0.2028808 0.2030933 0.2032973 0.2034927 0.2036905 0.2038971 0.2041088 0.2043212
 0.2045337 0.2047463 0.2049592 0.2051699 0.2053689 0.2055454 0.2057023 0.2058594 0.2060374 0.2062439
 0.2064684 0.2066917 0.2069014 0.2071013 0.2073008 0.2075012 0.207695 0.2078742 0.2080425 0.2082244
 0.2084502 0.2087197 0.2089972 0.209251 0.2094798 0.2096953 0.2099105 0.2101431 0.2103947 0.2106255
 0.2107875 0.2108917 0.2110201 0.2112562 0.2116053 0.2119882 0.2123181 0.2125751 0.2127978 0.2130282
 0.2132869 0.2135553 0.2137488 0.2137754 0.213684 0.2136895 0.2139724 0.2144948 0.2150652 0.2155364
 0.2158909 0.2161806 0.216443 0.2166667 0.2168055 0.2168311 0.216798 0.2168548 0.2171424 0.2176487
 0.2182028 0.218646 0.2189566 0.2191891 0.2193814 0.2195498 0.219659 0.2195722 0.219194 0.218728
 0.2186267 0.2191559 0.2200951 0.220973 0.221533 0.2218656 0.222145 0.2224124 0.2226274 0.2227086
 0.2224231 0.2215156 0.2202012 0.2193128 0.2196112 0.2210133 0.2227301 0.2240596 0.2248296 0.2252185
 0.2254531 0.225662 0.2257756 0.2255265 0.2247472 0.2237669 0.2233286 0.2239014 0.2251561 0.22632
 0.2269671 0.2272417 0.2274449 0.2276924 0.2278452 0.2274698 0.2260781 0.2238564 0.2220452 0.2220694
 0.2241376 0.226985 0.2291281 0.2301425 0.2305364 0.2306484 0.2301449 0.228611 0.2261694 0.2234252
 0.2212721 0.2207663 0.2224263 0.2253655 0.2278009 0.2288111 0.2291083 0.2298603 0.231298 0.2327306
 0.2334435 0.2332508 0.2323728 0.2310404 0.2293803 0.2277886 0.2271617 0.2282641 0.2308038 0.2335294
 0.2353854 0.2363145 0.2367272 0.2362794 0.233614 0.2279946 0.2213654 0.2178187 0.2199821 0.2262687
 0.2325817 0.2363455 0.237921 0.2386784 0.2391587 0.2389218 0.2368021 0.2315443 0.2237746 0.2172423
 0.2162847 0.2215354 0.2292113 0.2346492 0.2354832 0.23189 0.2257522 0.2201001 0.2178711 0.2201301
 0.2256079 0.2319553 0.2371508 0.2400567 0.2404099 0.2387105 0.236187 0.2345034 0.2345538 0.2351416
 0.2338883 0.230238 0.2263786 0.2240265 0.2217714 0.2176877 0.2135669 0.2137345 0.2194238 0.2267052
 0.2309051 0.2313489 0.2304977 0.2294716 0.2261219 0.2181096 0.2073181 0.199943 0.2010804 0.2094368
 0.2184794 0.2228356 0.2225699 0.221272 0.2212747 0.2212792 0.2181913 0.2111561 0.2036258 0.2004613
 0.2027565 0.2068542 0.2086803 0.2069981 0.2019855 0.1939285 0.1855656 0.1829364 0.1902908 0.2048877
 0.2191369 0.2268464 0.2254861 0.2148319 0.197861 0.1825889 0.1781715 0.1866977 0.2006477 0.2098109
 0.2093883 0.2008476 0.1875641 0.1725203 0.1597028 0.1545306 0.1606168 0.1761102 0.1936968 0.2042045
 0.20167 0.1880124 0.1735101 0.1694046 0.177629 0.1894393 0.1952023 0.1931447 0.1879846 0.1848789
 0.1864492 0.1923015 0.199436 0.2050737 0.2088705 0.2097234 0.2027615 0.185195 0.1640564 0.1515679
 0.152452 0.1615073 0.173372 0.1873446 0.2010245 0.2070026 0.2012067 0.190606 0.1872794 0.1955916
 0.2084576 0.216018 0.215403 0.2112571 0.2085652 0.2073457 0.2051393 0.2027541 0.2044638 0.2121163
 0.2219113 0.2286409 0.2310988 0.2316166 0.2321018 0.2325901 0.2325743 0.2318655 0.2305199 0.2289794
 0.2279432 0.227579 0.2273661 0.2268889 0.2258135 0.2226757 0.2152033 0.2035093 0.1921149 0.1863652
 0.1867622 0.1893397 0.1915529 0.1937589 0.1937285 0.1851019 0.1657953 0.1448962 0.1360499 0.1442736
 0.1622233 0.1785672 0.1866644 0.1851261 0.1744258 0.1571114 0.1405183 0.1344722 0.1432748 0.1615769
 0.1800986 0.1936305 0.2016258 0.2037583 0.1989348 0.1884617 0.1773213 0.171317 0.1735302 0.1829681
 0.1949066 0.2021102 0.1983668 0.1846604 0.1718969 0.1728621 0.188811 0.2073824 0.2164955 0.2165851
 0.2157025 0.2169991 0.2171615 0.2152014 0.2159812 0.2235434 0.235165 0.2440448 0.2452762 0.2377845
 0.2236984 0.2088425 0.201217 0.204546 0.2139764 0.2213004 0.2228685 0.2191053 0.2096757 0.1955179
 0.1839647 0.1843299 0.1971166 0.2128113 0.222687 0.2267472 0.2297566 0.233045 0.2328998 0.226196
 0.2156227 0.2080363 0.207689 0.212509 0.2176152 0.2204661 0.2209034 0.2182391 0.2116771 0.2036252
 0.1997318 0.203975 0.2145173 0.2253934 0.231824 0.2332011 0.2316934 0.2294317 0.2270806 0.2240068
 0.2196897 0.2155584 0.214723 0.2186544 0.2248485 0.229406 0.2315029 0.2336632 0.2377891 0.24254
 0.2449639 0.243716 0.2403337 0.2378944 0.2385475 0.2418085 0.2449178 0.2451935 0.2425815 0.2399444
 0.2404231 0.2444414 0.2496526 0.253617 0.2557908 0.2570092 0.2580515 0.2589589 0.2590038 0.2572379
 0.253834 0.2508652 0.2508364 0.2542038 0.2589446 0.2626501 0.2644727 0.2649895 0.264875 0.2641917
 0.2627879 0.2609467 0.2594013 0.2587487 0.2590166 0.2598253 0.2607865 0.2616661 0.2623447 0.2628002
 0.2630935 0.2632898 0.2634194 0.2635139 0.2635972 0.263625 0.2635319 0.2633773 0.2633538 0.263581
 0.2639485 0.2642252 0.2642633 0.2640187 0.2634391 0.2624706 0.2611767 0.2597244 0.2582025 0.2565591
 0.254837 0.253433 0.2529814 0.2538753 0.2559015 0.258368 0.2605733 0.2621607 0.2631269 0.2636362
 0.2638677 0.2639535 0.2639629 0.2639066 0.2637681 0.263543 0.2632504 0.2629128 0.2625394 0.2621432
 0.2617615 0.2614363 0.2611674 0.2609022 0.2605754 0.2601517 0.259642 0.2590911 0.2585425 0.2579923
 0.2573783 0.2566297 0.2557337 0.254756 0.2538006 0.2529444 0.2521879 0.2514626 0.2506948 0.2498556
 0.2489415 0.2479298 0.246806 0.2456369 0.2445663 0.2437011 0.2430188 0.2424035 0.2417463 0.2409917
 0.2401245 0.2391591 0.2381358 0.2370924 0.2360336 0.2349369 0.2337751 0.2325231 0.2311606 0.2296883
 0.2281311 0.2265209 0.2248843 0.2232392 0.2215756 0.2198277 0.2178735 0.215569 0.2127866 0.2094414
 0.2055112 0.2010572 0.1962312 0.1912505 0.1863366 0.1816631 0.1773477 0.1734769 0.1701254 0.1673624
 0.1652514 0.1638396 0.1631446 0.1631582 0.163863 0.16523 0.1671966 0.1696555 0.1724665 0.1754692
 0.1784877 0.1813512 0.1839526 0.1863006 0.1884914 0.1906003 0.1926093 0.1944488 0.1960811 0.1975115
 0.198746 0.1997779 0.2006157 0.2012952 0.2018595 0.2023398 0.2027558 0.2031218 0.203447 0.2037297
 0.2039632 0.2041519 0.2043177 0.2044879 0.2046798 0.2048979 0.2051413 0.2054188 0.2057557 0.2061761
 0.2066714 0.2072047 0.2077499 0.2083159 0.2089268 0.2095982 0.2103411 0.2111786 0.2121448 0.2132625
 0.2145221 0.2158794 0.2172687 0.218611 0.2198198 0.2208195 0.2215717 0.2220774 0.2223593 0.2224473
 0.2223743 0.2221714 0.221867 0.2214868 0.2210459 0.2205407 0.2199617 0.2193182 0.2186388 0.2179462
 0.2172437 0.2165338 0.2158337 0.215159 0.2144993 0.2138319 0.2131602 0.2125162 0.2119202 0.2113562
 0.2107958 0.2102281 0.2096576 0.2090864 0.2085082 0.2079102 0.2072693 0.2065552 0.2057481 0.2048494
 0.2038659 0.2027866 0.20159 0.2002757 0.1988736 0.197416 0.1959103 0.1943472 0.1927207 0.1910256
 0.1892382 0.1873256 0.1852935 0.1832178 0.1812124 0.1793596 0.1776724 0.1761103 0.1746203 0.1731759
 0.1717911 0.1704932 0.169286 0.1681498 0.1670669 0.1660289 0.1650296 0.1640725 0.1631779 0.1623674
 0.1616481 0.1610167 0.1604672 0.1599922 0.1595841 0.1592391 0.1589621 0.1587738 0.1586976 0.1587241
 0.1587972 0.1588478 0.1588335 0.1587479 0.1586152 0.1584749 0.1583562 0.1582655 0.158197 0.1581281
 0.157998 0.1577097 0.157165 0.1562974 0.1550906 0.1535837 0.1518589 0.1500241 0.1482063 0.1465294
 0.1450763 0.1438826 0.1429588 0.1422824 0.1417835 0.1413845 0.1410623 0.1408571 0.1408276 0.1409834
 0.1412298 0.1414075 0.1414401 0.1414273 0.1415627 0.1419752 0.1426512 0.1434611 0.1442474 0.1449128
 0.1454323 0.1458007 0.1460238 0.1461452 0.1462111 0.1462141 0.1461221 0.1459406 0.1457013 0.1454196
 0.145087 0.1446775 0.1441661 0.1435585 0.1428784 0.1421268 0.1412958 0.1403961 0.1394133 0.1383002
 0.1370983 0.1360149 0.1353131 0.1351567 0.135549 0.1363446 0.1373374 0.1383928 0.1394266 0.1402433
 0.140601 0.140586 0.1407807 0.1418444 0.1438926 0.1463661 0.1485167 0.1499405 0.150629 0.1506899
 0.1502044 0.1492556 0.1478763 0.1460063 0.1436296 0.1408657 0.1378647 0.1347681 0.1317877 0.1291371
 0.1268988 0.1250675 0.1236349 0.1226516 0.1222626 0.1220998 0.1202546 0.1142785 0.1049487 0.09794424
 0.09906377 0.1077131 0.1173241 0.1222928 0.1224417 0.1207436 0.1192634 0.1183082 0.1177563 0.1177454
 0.118415 0.1196351 0.1210247 0.1221776 0.1229116 0.1232516 0.1231594 0.1222877 0.1199086 0.1151696
 0.107784 0.09862281 0.08942015 0.08177145 0.07641673 0.07324329 0.07162718 0.07080394 0.07025515 0.06995014
 0.07020903 0.07131377 0.07327692 0.07594185 0.07914288 0.08263955 0.08600359 0.08880721 0.09095451 0.09266298
 0.09409595 0.09516686 0.09572096 0.09575006 0.09537505 0.09473403 0.09395094 0.09312402 0.09225264 0.09122577
 0.09 0.08878116 0.08790213 0.08749652 0.08740252 0.08739354 0.08737452 0.08734392 0.0873007 0.08723539
 0.08715415 0.0871088 0.0872109 0.08754845 0.08806129 0.088558 0.08887678 0.08900415 0.0890415 0.08904415
 0.08888214 0.08836122 0.08755246 0.08682131 0.08635095 0.08581991 0.0848204 0.08348468 0.08241831 0.08204494
 0.0822344 0.08255548 0.08268447 0.08254801 0.08228566 0.08218995 0.08251882 0.08318821 0.08373649 0.08375794
</values></Ydata></ScRf><Data_Parameters_AB><parameter name="DPF">1</parameter><parameter name="NPT">3497</parameter><parameter name="FXV">3996</parameter><parameter name="LXV">500</parameter><parameter name="CSF">1</parameter><parameter name="MXY">0.029958238825202</parameter><parameter name="MNY">-0.0776000246405602</parameter><parameter name="DAT">02/06/2022</parameter><parameter name="TIM">11:40:02.658 (GMT+2)</parameter><parameter name="DXU">WN</parameter></Data_Parameters_AB><AB__Qtest><MainReport name="Quality Test Report"><Header><Line><Legend>Test result ok/not ok [1/0]: </Legend><Value>0</Value></Line><Line><Legend>Method file: </Legend><Value>C:\Users\Public\Documents\Bruker\OPUS_8.2.28\QT\IRBT_v3_default.QT</Value></Line></Header><Matrix><Line><Legend></Legend><Legend>min</Legend><Legend>max</Legend><Legend>measured</Legend></Line><Line><Value>Absorption (X-Range 1):</Value><Value>0.400000</Value><Value>2.000000</Value><Value>0.068299</Value></Line><Line><Value>Noise (X-Range 4):</Value><Value></Value><Value>0.000300</Value><Value>0.000044</Value></Line><Line><Value>Signal/Noise (X-Range 2):</Value><Value>200.000000</Value><Value></Value><Value>31.242236</Value></Line><Line><Value>Signal/Noise (X-Range 3):</Value><Value>40.000000</Value><Value></Value><Value>27.150783</Value></Line><Line><Value>Water vapour (X-Range 5):</Value><Value></Value><Value>0.000300</Value><Value>0.000084</Value></Line><Line><Value>Signal/Water (X-Range 2):</Value><Value>100.000000</Value><Value></Value><Value>16.391700</Value></Line><Line><Value>Signal/Water (X-Range 3):</Value><Value>20.000000</Value><Value></Value><Value>14.245059</Value></Line><Line><Value>Fringes (X-Range 6):</Value><Value></Value><Value>0.000100</Value><Value>0.000067</Value></Line></Matrix></MainReport></AB__Qtest><Data_Parameters_ScSm><parameter name="DPF">1</parameter><parameter name="NPT">1814</parameter><parameter name="FXV">3996.33169228125</parameter><parameter name="LXV">499.541461535156</parameter><parameter name="CSF">1</parameter><parameter name="MXY">0.286367475986481</parameter><parameter name="MNY">0.0361138433218002</parameter><parameter name="DAT">02/06/2022</parameter><parameter name="TIM">11:40:02.658 (GMT+2)</parameter><parameter name="DXU">WN</parameter></Data_Parameters_ScSm><Data_Parameters_ScRf><parameter name="DPF">1</parameter><parameter name="NPT">1820</parameter><parameter name="FXV">4004.04661832813</parameter><parameter name="LXV">495.683998511719</parameter><parameter name="CSF">1</parameter><parameter name="MXY">0.264989495277405</parameter><parameter name="MNY">0.0305080860853195</parameter><parameter name="DAT">02/06/2022</parameter><parameter name="TIM">11:39:36.983 (GMT+2)</parameter><parameter name="DXU">WN</parameter></Data_Parameters_ScRf><Optic_Parameters_Rf><parameter name="APR">0</parameter><parameter name="APT">Open</parameter><parameter name="BMS">KBr</parameter><parameter name="DTC">RT-DLaTGS_IR-Biotyper [Microplate reader]</parameter><parameter name="HPF">0</parameter><parameter name="LPF">10.0</parameter><parameter name="LPV">4000</parameter><parameter name="PGR">0</parameter><parameter name="RCH">Module port</parameter><parameter name="RDX">0</parameter><parameter name="SRC">MIR</parameter><parameter name="VEL">10.0</parameter><parameter name="SON">Off</parameter></Optic_Parameters_Rf><Acquisition_Parameters_Rf><parameter name="ADT">1</parameter><parameter name="AQM">DD</parameter><parameter name="CFE">0</parameter><parameter name="COR">0</parameter><parameter name="DEL">0</parameter><parameter name="DLY">0</parameter><parameter name="HFW">8000</parameter><parameter name="LFW">0</parameter><parameter name="NSR">32</parameter><parameter name="PLF">AB</parameter><parameter name="RES">6</parameter><parameter name="RGN">-1</parameter><parameter name="STR">0</parameter><parameter name="TCL">MakeCompatibleScalar (0, {WSV=1.000000, ARV=0});</parameter><parameter name="TDL">37</parameter><parameter name="RPO">0</parameter></Acquisition_Parameters_Rf><FT_-_Parameters_Rf><parameter name="APF">B3</parameter><parameter name="HFQ">500</parameter><parameter name="LFQ">4000</parameter><parameter name="NLI">0</parameter><parameter name="PHR">24</parameter><parameter name="PHZ">ML</parameter><parameter name="SPZ">NO</parameter><parameter name="ZFF">1</parameter></FT_-_Parameters_Rf><Optic_Parameters_><parameter name="APR">0</parameter><parameter name="APT">Open</parameter><parameter name="BMS">KBr</parameter><parameter name="CHN">Module port</parameter><parameter name="DTC">RT-DLaTGS_IR-Biotyper [Microplate reader]</parameter><parameter name="HPF">0</parameter><parameter name="LPF">10.0</parameter><parameter name="LPV">4000</parameter><parameter name="PGN">0</parameter><parameter name="RDX">0</parameter><parameter name="SRC">MIR</parameter><parameter name="VEL">10.0</parameter><parameter name="SON">Off</parameter></Optic_Parameters_><FT_-_Parameters_><parameter name="APF">B3</parameter><parameter name="HFQ">500</parameter><parameter name="LFQ">4000</parameter><parameter name="NLI">0</parameter><parameter name="PHR">24</parameter><parameter name="PHZ">ML</parameter><parameter name="SPZ">NO</parameter><parameter name="ZFF">1</parameter></FT_-_Parameters_><Acquisition_Parameters_><parameter name="ADT">1</parameter><parameter name="AQM">DD</parameter><parameter name="CFE">0</parameter><parameter name="COR">0</parameter><parameter name="DEL">0</parameter><parameter name="DLY">0</parameter><parameter name="HFW">8000</parameter><parameter name="LFW">0</parameter><parameter name="NSS">32</parameter><parameter name="PLF">AB</parameter><parameter name="RES">6</parameter><parameter name="SOT">0</parameter><parameter name="TCL">MakeCompatibleScalar (0, {WSV=1.000000, ARV=0});</parameter><parameter name="TDL">37</parameter><parameter name="SPO">0</parameter><parameter name="SGN">-1</parameter></Acquisition_Parameters_><Instrument_Parameters_Rf><parameter name="HFL">15800.168544</parameter><parameter name="LFL">0</parameter><parameter name="LWN">15800.168544</parameter><parameter name="ABP">32197</parameter><parameter name="SSP">1</parameter><parameter name="ARG">2</parameter><parameter name="ASG">2</parameter><parameter name="ASS">32</parameter><parameter name="GFW">16</parameter><parameter name="GBW">16</parameter><parameter name="BFW">0</parameter><parameter name="BBW">0</parameter><parameter name="PKA">7269</parameter><parameter name="PKL">4996</parameter><parameter name="PRA">7447</parameter><parameter name="PRL">5001</parameter><parameter name="P2A">1</parameter><parameter name="P2L">1</parameter><parameter name="P2R">1</parameter><parameter name="P2K">1</parameter><parameter name="DAQ">0</parameter><parameter name="AG2">1</parameter><parameter name="SSM">1</parameter><parameter name="RSN">26077</parameter><parameter name="CRR">0</parameter><parameter name="SRT">1654169976.983</parameter><parameter name="DUR">19.6379852294922</parameter><parameter name="TSC">28.2</parameter><parameter name="MVD">1.09092831611633</parameter><parameter name="AN1">0.225806519048088</parameter><parameter name="AN2">0</parameter><parameter name="VSN">2.485 Apr  4 2017</parameter><parameter name="SRN">0085</parameter><parameter name="CAM">0</parameter><parameter name="INS">IR-Biotyper</parameter><parameter name="FOC">69</parameter><parameter name="RDY">1</parameter><parameter name="ARS">32</parameter></Instrument_Parameters_Rf><Sample_Parameters_><parameter name="BLD"></parameter><parameter name="CNM">Admin</parameter><parameter name="CPY"></parameter><parameter name="DPM"></parameter><parameter name="EXP">IRBT_v3_32Scans.XPM</parameter><parameter name="LCT"></parameter><parameter name="SFM">Microplate, HTS-XT</parameter><parameter name="SNM">220602-1054_ATH27F (D_1)_H4_eea3868c-5da8-443b-89b7-6120e13ca3be.0</parameter><parameter name="XPP">C:\Users\Public\Documents\Bruker\OPUS_8.2.28\XPM</parameter><parameter name="IST">OK</parameter><parameter name="CPG">1252</parameter><parameter name="UID">d7212d50-0a39-4b36-9038-dc7ecf551c09</parameter></Sample_Parameters_><Instrument_Parameters_><parameter name="HFL">15800.168544</parameter><parameter name="LFL">0</parameter><parameter name="LWN">15800.168544</parameter><parameter name="ABP">32197</parameter><parameter name="SSP">1</parameter><parameter name="ASG">2</parameter><parameter name="ARG">2</parameter><parameter name="ASS">32</parameter><parameter name="GFW">16</parameter><parameter name="GBW">16</parameter><parameter name="BFW">0</parameter><parameter name="BBW">0</parameter><parameter name="PKA">8005</parameter><parameter name="PKL">4988</parameter><parameter name="PRA">8281</parameter><parameter name="PRL">4993</parameter><parameter name="P2A">1</parameter><parameter name="P2L">1</parameter><parameter name="P2R">1</parameter><parameter name="P2K">1</parameter><parameter name="DAQ">0</parameter><parameter name="AG2">1</parameter><parameter name="SSM">1</parameter><parameter name="RSN">13664</parameter><parameter name="CRR">0</parameter><parameter name="SRT">1654170002.659</parameter><parameter name="DUR">19.6379852294922</parameter><parameter name="TSC">28.8</parameter><parameter name="MVD">0.190328851342201</parameter><parameter name="AN1">0.225822642830548</parameter><parameter name="AN2">0</parameter><parameter name="VSN">2.485 Apr  4 2017</parameter><parameter name="SRN">0085</parameter><parameter name="CAM">0</parameter><parameter name="INS">IR-Biotyper</parameter><parameter name="FOC">69</parameter><parameter name="RDY">1</parameter></Instrument_Parameters_><History/></OPUSDataFile>
