<?xml version="1.0" encoding="UTF-8" ?>
<OPUSDataFile><AB><Ydata ylabel="Absorbance Units"><values byteorder="INTEL" format="FLOAT32" numvalues="3497"> -0.07619126 -0.07618356 -0.07617596 -0.07616857 -0.0761601 -0.07615048 -0.07613602 -0.07611673 -0.07609196 -0.07606243
 -0.07603233 -0.07600132 -0.07597093 -0.0759395 -0.0759022 -0.07586236 -0.07582108 -0.07578742 -0.07577342 -0.07578038
 -0.07581747 -0.07586882 -0.07592987 -0.07598288 -0.07601786 -0.0760361 -0.07603409 -0.07602744 -0.07601835 -0.0760162
 -0.07602268 -0.07603426 -0.07605083 -0.07606605 -0.07607996 -0.07609145 -0.07610101 -0.07611141 -0.0761221 -0.07613309
 -0.07614267 -0.07614601 -0.07614392 -0.07613365 -0.0761219 -0.07611473 -0.0761185 -0.07614271 -0.0761819 -0.07623878
 -0.076296 -0.07634825 -0.07638151 -0.0763897 -0.07637451 -0.07633372 -0.07628325 -0.07622381 -0.07617556 -0.07613964
 -0.07613107 -0.0761496 -0.07619654 -0.07626885 -0.07634994 -0.07643555 -0.07650094 -0.07654552 -0.07655372 -0.07653172
 -0.07648086 -0.07641196 -0.07633789 -0.07626598 -0.07620803 -0.07616086 -0.07612723 -0.07609794 -0.07606923 -0.07603896
 -0.07600447 -0.07597382 -0.07594746 -0.07593533 -0.07593849 -0.07596301 -0.07600929 -0.07607897 -0.07617154 -0.07628156
 -0.07640588 -0.07652405 -0.0766303 -0.07669047 -0.0767062 -0.07665907 -0.07656632 -0.07644671 -0.0763185 -0.07621247
 -0.07613156 -0.07609197 -0.07607859 -0.07608961 -0.07610415 -0.07611184 -0.07610925 -0.0760905 -0.07607403 -0.07606179
 -0.07607019 -0.0761024 -0.07615052 -0.07621439 -0.07626842 -0.07631207 -0.076331 -0.07632843 -0.07631689 -0.07630032
 -0.07630157 -0.07631832 -0.07635874 -0.07641315 -0.07646831 -0.07651899 -0.07655094 -0.07657152 -0.07658325 -0.07658869
 -0.07659354 -0.07658479 -0.07655726 -0.07650782 -0.07642975 -0.07635057 -0.07627195 -0.07623018 -0.07623079 -0.07627777
 -0.07637221 -0.07644658 -0.07649701 -0.07644521 -0.07630358 -0.07611283 -0.07588884 -0.07571648 -0.07559302 -0.07555626
 -0.07559202 -0.0756982 -0.0758488 -0.07601655 -0.07617028 -0.07627282 -0.07631603 -0.07627622 -0.07618909 -0.07605901
 -0.07593214 -0.07582456 -0.07574652 -0.07570481 -0.07568004 -0.07567088 -0.07566228 -0.07565311 -0.07564911 -0.07565115
 -0.07567526 -0.07572085 -0.0757945 -0.07588983 -0.0759886 -0.07608011 -0.07612631 -0.07612646 -0.07605594 -0.07593488
 -0.07577378 -0.07560134 -0.07544527 -0.07532175 -0.07525002 -0.07522653 -0.07525772 -0.07532211 -0.07541798 -0.07551475
 -0.07560689 -0.07567496 -0.07571537 -0.07572987 -0.07571829 -0.07568806 -0.0756392 -0.07557214 -0.07548693 -0.07538287
 -0.07526238 -0.07513285 -0.07499976 -0.07488 -0.07477868 -0.07471433 -0.07468356 -0.07469346 -0.07472777 -0.07477707
 -0.0748235 -0.07485192 -0.07486109 -0.07484502 -0.07481526 -0.0747739 -0.07472873 -0.07468131 -0.07463641 -0.07459415
 -0.0745647 -0.07454875 -0.07455099 -0.0745706 -0.07459336 -0.07461761 -0.07462318 -0.07461347 -0.07458971 -0.07455887
 -0.07454117 -0.07453658 -0.07455669 -0.07459251 -0.07463803 -0.07468443 -0.07471947 -0.07474746 -0.0747641 -0.07478729
 -0.07482328 -0.07488436 -0.07497855 -0.07509324 -0.07523022 -0.07535795 -0.07547377 -0.07554978 -0.0755842 -0.07555026
 -0.07544754 -0.07526363 -0.07500579 -0.07471626 -0.07440599 -0.074143 -0.07392807 -0.07380056 -0.07374896 -0.0737767
 -0.07385679 -0.07395967 -0.07405873 -0.07411544 -0.07413523 -0.07410637 -0.07405444 -0.07398769 -0.07392226 -0.07386664
 -0.07381577 -0.07377136 -0.07371756 -0.073652 -0.07357288 -0.07347962 -0.07338944 -0.07330325 -0.07323896 -0.07319555
 -0.07317694 -0.07317703 -0.07317547 -0.07316299 -0.07309979 -0.07299339 -0.0728318 -0.07264425 -0.07246524 -0.072308
 -0.07220307 -0.07212999 -0.07209008 -0.07204629 -0.0719822 -0.07188032 -0.0717276 -0.07154404 -0.07132941 -0.07111435
 -0.070903 -0.0707075 -0.07052924 -0.07035936 -0.07019726 -0.0700307 -0.06986081 -0.06969027 -0.0695208 -0.06936177
 -0.06921194 -0.06907228 -0.06894227 -0.06882171 -0.06870961 -0.06860769 -0.06850594 -0.06839956 -0.06827018 -0.06810357
 -0.06789524 -0.06763682 -0.06734243 -0.06701518 -0.06666181 -0.06628451 -0.06588318 -0.06545755 -0.06501316 -0.06455035
 -0.06407306 -0.06358168 -0.06308204 -0.06257685 -0.06208846 -0.06162046 -0.06120203 -0.06082986 -0.06051256 -0.0602391
 -0.05999406 -0.0597669 -0.05954114 -0.05930119 -0.05903215 -0.05870982 -0.05830924 -0.05783897 -0.05728723 -0.05670626
 -0.05611032 -0.05552667 -0.05496585 -0.05441801 -0.05388332 -0.05334993 -0.05281669 -0.05228927 -0.05176873 -0.05127782
 -0.05081714 -0.05040628 -0.05003685 -0.04969034 -0.04934521 -0.04892933 -0.04843794 -0.04781255 -0.047101 -0.0463397
 -0.04557375 -0.04486493 -0.0442096 -0.0436276 -0.04309041 -0.04259339 -0.04210258 -0.04160716 -0.04108678 -0.04053321
 -0.03995533 -0.03935244 -0.03874279 -0.03812797 -0.0375062 -0.03687695 -0.03622563 -0.03555362 -0.03486396 -0.03416106
 -0.03346589 -0.03278027 -0.0321205 -0.03148474 -0.03087897 -0.03029577 -0.02973119 -0.02916945 -0.0285944 -0.02799722
 -0.0273634 -0.026706 -0.0260267 -0.02533903 -0.02465044 -0.02395191 -0.02324231 -0.02251673 -0.02177154 -0.02103703
 -0.02031481 -0.01963761 -0.01900557 -0.01841288 -0.01785581 -0.01730274 -0.01675088 -0.01616976 -0.01556261 -0.0149196
 -0.01425263 -0.01357925 -0.01290985 -0.01227005 -0.01165111 -0.01105977 -0.0104678 -0.00985904 -0.009215012 -0.008517462
 -0.007784976 -0.007015879 -0.006245007 -0.005479519 -0.004738024 -0.00402481 -0.003337521 -0.002676731 -0.002025412 -0.001382648
 -0.0007303439 -6.914503E-05 0.0006043111 0.001287599 0.001971573 0.002655192 0.003330318 0.003998402 0.004657917 0.005311858
 0.00596315 0.006615372 0.007273939 0.007937421 0.008608061 0.009278255 0.00994512 0.01060366 0.01125079 0.01188931
 0.01251902 0.01314435 0.01376584 0.01438623 0.01500576 0.01562678 0.01624921 0.01686993 0.0174881 0.01809469
 0.01869048 0.01927328 0.01984639 0.02041844 0.02099121 0.02157282 0.02216198 0.02276067 0.023366 0.02397747
 0.02458775 0.025193 0.02578451 0.0263552 0.02690978 0.0274453 0.02798179 0.02852305 0.02908162 0.02966131
 0.03025085 0.03085016 0.03143631 0.03200839 0.03255227 0.03306939 0.03356476 0.03404186 0.03451938 0.03499888
 0.03549593 0.03600687 0.03653246 0.03706738 0.03760425 0.03814078 0.03867217 0.0391979 0.03971617 0.04022748
 0.04073157 0.0412293 0.04172229 0.04220407 0.04267457 0.04312172 0.04354231 0.04394409 0.04432623 0.04472674
 0.04514735 0.04562023 0.04614209 0.0467002 0.04728626 0.04785429 0.04840121 0.04889108 0.04933257 0.0497233
 0.05007901 0.05042122 0.05075884 0.05111131 0.05147156 0.05184155 0.05221053 0.05257136 0.05292832 0.05327966
 0.05363829 0.0540078 0.05438906 0.05478359 0.05518115 0.05558113 0.05597486 0.05636196 0.05673691 0.05709994
 0.05744985 0.05778884 0.05812663 0.05846528 0.05881769 0.05918045 0.05955397 0.05993153 0.06030331 0.06066629
 0.0610139 0.06134557 0.0616595 0.06195426 0.06222814 0.062483 0.06271765 0.0629409 0.06315365 0.06336675
 0.06358176 0.06380527 0.06403814 0.06427857 0.0645263 0.06477375 0.06502115 0.06526729 0.06551409 0.06577144
 0.06603798 0.0663175 0.0666012 0.06687302 0.06712594 0.0673392 0.06752157 0.06767008 0.06780656 0.06794478
 0.0681 0.0682862 0.06849644 0.0687349 0.06897636 0.06921685 0.06943432 0.06962404 0.06978537 0.06991746
 0.07003254 0.07013097 0.07021376 0.07028001 0.07031935 0.07033406 0.07032756 0.0703074 0.07029901 0.07030646
 0.07035397 0.07043234 0.07054174 0.07066408 0.07078 0.07088171 0.07095186 0.07101028 0.07105696 0.07112893
 0.07124026 0.07140472 0.07163444 0.07189117 0.07217504 0.0724199 0.07262007 0.07273636 0.0727677 0.0727292
 0.07262492 0.07250024 0.07235686 0.07222752 0.07210959 0.07201026 0.0719307 0.07187503 0.07184952 0.07186869
 0.07192601 0.07202755 0.0721431 0.07225483 0.07233708 0.07236571 0.07235795 0.07230791 0.0722645 0.07223851
 0.07225642 0.07232748 0.07242645 0.07255339 0.07265864 0.0727399 0.07276532 0.07273654 0.07265587 0.07252901
 0.07238399 0.07222792 0.07209764 0.07199659 0.07195269 0.07195803 0.07201765 0.07210951 0.0722151 0.07231174
 0.07237437 0.07240307 0.07238594 0.07235054 0.07230169 0.0722685 0.07225966 0.07228328 0.07234223 0.07243278
 0.07255436 0.07271368 0.07291114 0.07315867 0.07345407 0.07378327 0.07413672 0.07445909 0.07474128 0.07491972
 0.07500466 0.07497835 0.07487659 0.07474152 0.0746097 0.07454042 0.07453446 0.07462078 0.07475539 0.07493066
 0.07508656 0.07520191 0.07523711 0.07517512 0.07502347 0.07477581 0.07448908 0.07416625 0.07387499 0.07361839
 0.07342263 0.07328505 0.07318597 0.07312341 0.07307556 0.07304633 0.07303867 0.07305292 0.07309694 0.07315487
 0.07321212 0.07323903 0.07320037 0.0730736 0.07282571 0.07246757 0.07198685 0.07143369 0.07081693 0.0701981
 0.0695926 0.06903782 0.06854274 0.06811401 0.06775387 0.06744827 0.06719626 0.06696397 0.06674887 0.06650969
 0.06624893 0.06595531 0.06563919 0.06533079 0.06503262 0.06477114 0.06452836 0.06428965 0.06403594 0.06373477
 0.0633969 0.06301223 0.06262019 0.06223551 0.06189512 0.06161779 0.0614101 0.06128259 0.06120033 0.06116434
 0.06110669 0.06102218 0.06085026 0.06058813 0.06023329 0.05979144 0.05932375 0.05883809 0.05841048 0.05803928
 0.05776293 0.05756702 0.05744171 0.05736638 0.05730597 0.05724498 0.0571516 0.05702585 0.05685493 0.05665335
 0.05642435 0.05618278 0.05593583 0.05568589 0.05543612 0.05517803 0.0549113 0.05462493 0.05431807 0.05398088
 0.05361282 0.05320805 0.0527673 0.0522956 0.05179605 0.05128786 0.05077416 0.05027692 0.04979411 0.04933316
 0.04888775 0.04845023 0.04801888 0.04758682 0.04716069 0.0467433 0.0463398 0.04595568 0.04558535 0.04522946
 0.0448764 0.04452358 0.04416332 0.0437938 0.04341355 0.04302208 0.04262179 0.04221279 0.04180048 0.04138523
 0.04097319 0.0405643 0.04016178 0.03976483 0.03937244 0.03898396 0.03859702 0.03821233 0.03782973 0.03745051
 0.03707638 0.03670708 0.03634194 0.03598402 0.03563076 0.03530011 0.03499543 0.03474109 0.03454801 0.03440571
 0.03432109 0.03422481 0.03411281 0.0339052 0.03359775 0.03317795 0.03265207 0.03209199 0.03150778 0.03099636
 0.03055557 0.03023614 0.03001475 0.02986917 0.02976375 0.02963042 0.02945131 0.02917027 0.02881579 0.02838248
 0.02792902 0.0274875 0.02708599 0.02675023 0.02645036 0.02618538 0.02591868 0.0256395 0.02536523 0.02509412
 0.02488091 0.02472844 0.02465784 0.02466463 0.02469944 0.02475263 0.0247409 0.02466395 0.02447069 0.02417964
 0.02380399 0.02337169 0.0229354 0.02250732 0.02212706 0.02177877 0.0214643 0.02116306 0.02085962 0.02056013
 0.02026068 0.01998195 0.01973193 0.01950392 0.01930111 0.01908947 0.01886492 0.01861913 0.01835144 0.01810249
 0.01787457 0.01771101 0.01760715 0.01755946 0.0175577 0.01756305 0.01757096 0.01754983 0.01750418 0.0174272
 0.01732496 0.0172041 0.01706173 0.01690185 0.01670733 0.01647172 0.01617634 0.01580791 0.01537817 0.01487935
 0.01437003 0.01385504 0.01340439 0.01302723 0.01274358 0.01255513 0.0124099 0.01230307 0.01215564 0.01196813
 0.01169961 0.01136275 0.01097861 0.0105641 0.0101714 0.00980608 0.009504859 0.009254448 0.009057723 0.008889372
 0.008731147 0.008563031 0.008365676 0.00814313 0.007887376 0.007629164 0.007373687 0.007149831 0.006966986 0.006811625
 0.006686138 0.006536218 0.006358853 0.006118484 0.005817686 0.005485253 0.005127958 0.004805601 0.004513902 0.004272864
 0.004065735 0.003859668 0.003648228 0.003399515 0.003131477 0.002850023 0.002579009 0.002342596 0.002144915 0.001997274
 0.00188826 0.001814625 0.001773472 0.001761608 0.001789102 0.001857964 0.001970229 0.002128118 0.002307579 0.002507503
 0.002683625 0.002833931 0.002920035 0.002944052 0.002897529 0.002788225 0.002638599 0.002457849 0.002279423 0.002108386
 0.001969218 0.001860068 0.001790136 0.001750087 0.001736714 0.001738088 0.001745583 0.001756325 0.001765077 0.001781828
 0.001807557 0.001853435 0.001921482 0.002017641 0.0021416 0.002310811 0.002526045 0.002827616 0.003217313 0.003731268
 0.004365048 0.005111529 0.005959134 0.006860713 0.007808662 0.008758166 0.009713838 0.01066175 0.01161318 0.01257607
 0.01355919 0.01457107 0.01562062 0.0167125 0.01786138 0.0190743 0.02035898 0.02172446 0.02314289 0.02461713
 0.02607863 0.02752242 0.02887661 0.03013649 0.03126571 0.0322638 0.03312227 0.03383935 0.03439877 0.03479793
 0.03501093 0.03505219 0.03493132 0.03469528 0.0344191 0.03416457 0.03403664 0.03406684 0.03432446 0.03478897
 0.03547189 0.03633234 0.03735484 0.03852084 0.03982149 0.0412553 0.04282299 0.04450904 0.0463132 0.048207
 0.05018868 0.05223941 0.05435861 0.05653605 0.05877075 0.06104956 0.06337371 0.06573875 0.06815125 0.07062919
 0.07316885 0.07579013 0.07843705 0.08108884 0.08358118 0.08582387 0.08752425 0.0885222 0.08851404 0.08731691
 0.08487892 0.08108266 0.07631312 0.07056595 0.06452928 0.05826436 0.05239122 0.04695411 0.04222346 0.03819465
 0.03479574 0.03200031 0.02959969 0.02757844 0.02576865 0.02416659 0.02268261 0.02130956 0.01999662 0.01873515
 0.01749197 0.0162725 0.01506644 0.01389408 0.0127635 0.01169272 0.01069134 0.009766652 0.008921866 0.008162323
 0.007488349 0.006910605 0.006429704 0.006059899 0.005802078 0.005670101 0.005663543 0.005779135 0.00600969 0.00630837
 0.006660309 0.006980073 0.007261536 0.007436268 0.00752876 0.007540279 0.007524465 0.007542653 0.007649679 0.007913581
 0.008362586 0.00903522 0.009927824 0.01104838 0.01238396 0.01392693 0.01569692 0.01769038 0.01997042 0.02254955
 0.02541839 0.02858363 0.03172827 0.03481374 0.03712959 0.03862618 0.03856508 0.03701847 0.03381213 0.0291962
 0.02370096 0.0176034 0.01165884 0.005976918 0.001028596 -0.003276518 -0.006839742 -0.009835058 -0.01233635 -0.01447948
 -0.01633798 -0.01798081 -0.01943984 -0.02074956 -0.0219196 -0.02297466 -0.02391778 -0.02477149 -0.0255372 -0.02623959
 -0.02688006 -0.02748369 -0.0280515 -0.02860323 -0.02913839 -0.02966679 -0.03018481 -0.0306892 -0.0311736 -0.03162413
 -0.0320387 -0.03240568 -0.03273539 -0.03302988 -0.03330776 -0.03358121 -0.03386064 -0.03415638 -0.03445904 -0.03477046
 -0.03506861 -0.03534949 -0.03559928 -0.03581442 -0.03600457 -0.03616981 -0.03633329 -0.03649563 -0.03666764 -0.03684736
 -0.0370243 -0.03719793 -0.03735826 -0.03751133 -0.03766781 -0.0378344 -0.03803134 -0.03825407 -0.03850881 -0.03877848
 -0.03905141 -0.03931084 -0.03954226 -0.03974014 -0.0398969 -0.04001974 -0.04010673 -0.04017721 -0.04023257 -0.04029975
 -0.04038209 -0.04049729 -0.04064723 -0.04082497 -0.04102946 -0.041238 -0.04144993 -0.04164953 -0.04183808 -0.04201288
 -0.0421746 -0.04232342 -0.04245985 -0.04258363 -0.04269852 -0.04280917 -0.04291872 -0.04303401 -0.04314861 -0.04326281
 -0.0433627 -0.04344127 -0.04349429 -0.04351545 -0.04352332 -0.04351815 -0.04353012 -0.04356332 -0.04363276 -0.04374038
 -0.04387211 -0.04402666 -0.04417612 -0.0443203 -0.04444405 -0.04455044 -0.04464455 -0.0447292 -0.04481609 -0.04490326
 -0.0449938 -0.04508142 -0.04515884 -0.04522227 -0.04526299 -0.04528851 -0.04529772 -0.04530907 -0.04532958 -0.04537423
 -0.04545077 -0.04555692 -0.0456953 -0.04584951 -0.04601821 -0.04618574 -0.0463508 -0.04650676 -0.0466535 -0.04679096
 -0.04691945 -0.04704121 -0.04715659 -0.04726802 -0.04737632 -0.0474849 -0.04759465 -0.04770971 -0.0478283 -0.0479512
 -0.04807244 -0.04818697 -0.04829008 -0.0483753 -0.04844786 -0.04850644 -0.04856433 -0.04862521 -0.04869812 -0.04878658
 -0.04888764 -0.04900217 -0.04911806 -0.04923462 -0.04933969 -0.0494329 -0.04950999 -0.04957185 -0.04962356 -0.04966603
 -0.04970602 -0.04974356 -0.04978158 -0.04982112 -0.04986498 -0.0499156 -0.04997793 -0.05005191 -0.05014025 -0.05023896
 -0.05034604 -0.05045937 -0.05057674 -0.05070053 -0.05083134 -0.05096964 -0.05111655 -0.05126597 -0.0514176 -0.05156345
 -0.05170286 -0.05183108 -0.05194798 -0.05205307 -0.05214676 -0.05223188 -0.05230916 -0.05238318 -0.05245445 -0.05252704
 -0.05260066 -0.0526767 -0.0527545 -0.05283367 -0.0529139 -0.05299455 -0.05307623 -0.05315933 -0.05324375 -0.05333022
 -0.05341573 -0.05349983 -0.05357856 -0.05365043 -0.05371703 -0.05377768 -0.05384143 -0.05390887 -0.05398822 -0.05407963
 -0.05418267 -0.05429662 -0.05441503 -0.05453752 -0.05465898 -0.05477947 -0.05489683 -0.05501053 -0.05511859 -0.05522031
 -0.05531342 -0.05539892 -0.05547639 -0.05554863 -0.05561734 -0.05568442 -0.05575151 -0.05581796 -0.05588377 -0.0559487
 -0.05601216 -0.05607744 -0.05614467 -0.05621851 -0.05629943 -0.0563881 -0.0564844 -0.05658368 -0.05668541 -0.05678314
 -0.05687675 -0.05696196 -0.05703959 -0.05710965 -0.05717339 -0.05723359 -0.05729022 -0.0573446 -0.05739583 -0.05744266
 -0.0574872 -0.05752913 -0.05757505 -0.05762792 -0.05769211 -0.05777114 -0.05785932 -0.05795729 -0.05805225 -0.05814257
 -0.05821956 -0.0582821 -0.05833249 -0.05837104 -0.05840716 -0.05844143 -0.05848321 -0.05853201 -0.05859108 -0.05865862
 -0.05873122 -0.05880696 -0.05887983 -0.05895014 -0.05901518 -0.05907767 -0.05913983 -0.05920203 -0.05926695 -0.05932811
 -0.0593838 -0.05942649 -0.05945159 -0.05946387 -0.0594615 -0.05946246 -0.05946887 -0.05949419 -0.05954026 -0.05960105
 -0.05967599 -0.05974798 -0.05981673 -0.05987235 -0.05991653 -0.05995221 -0.05998085 -0.06000869 -0.0600353 -0.0600628
 -0.06009022 -0.06011672 -0.06014245 -0.06016699 -0.06019142 -0.0602161 -0.06024259 -0.06027139 -0.06030473 -0.06034328
 -0.06038918 -0.06044333 -0.06050493 -0.06057443 -0.06064678 -0.06072176 -0.06079264 -0.06085913 -0.06091654 -0.06096505
 -0.06100408 -0.06103453 -0.06106017 -0.06108254 -0.06110834 -0.06113842 -0.0611784 -0.06122676 -0.06128448 -0.06134776
 -0.06141333 -0.0614779 -0.06153769 -0.06159285 -0.06164174 -0.0616883 -0.06173309 -0.0617808 -0.06183271 -0.06189054
 -0.06195497 -0.06202395 -0.06209746 -0.06217214 -0.06224779 -0.06232015 -0.06238882 -0.06244828 -0.06249855 -0.06253602
 -0.06256271 -0.06258231 -0.06259829 -0.06262016 -0.06264872 -0.06269075 -0.06274126 -0.0627987 -0.06285556 -0.06290555
 -0.0629461 -0.06297262 -0.062992 -0.0630044 -0.06302091 -0.06304446 -0.06307918 -0.06312688 -0.06318109 -0.06324162
 -0.0632995 -0.06335439 -0.06340352 -0.06344724 -0.06348789 -0.06352583 -0.0635639 -0.06360251 -0.06364441 -0.06368986
 -0.06374156 -0.06379745 -0.06385668 -0.06391441 -0.06396502 -0.06400646 -0.06403373 -0.06405271 -0.06406403 -0.06407624
 -0.06409314 -0.06411595 -0.06414638 -0.06417894 -0.0642128 -0.06424617 -0.06427854 -0.06431531 -0.06435671 -0.06440607
 -0.06446281 -0.06452203 -0.0645828 -0.06463753 -0.06468664 -0.06472725 -0.0647606 -0.06478799 -0.06481047 -0.06482998
 -0.06484753 -0.06486476 -0.06488247 -0.06490189 -0.06492274 -0.06494534 -0.06496882 -0.06499287 -0.06501743 -0.06504241
 -0.06506816 -0.06509475 -0.06512219 -0.06515053 -0.06517909 -0.06520781 -0.06523456 -0.06525911 -0.06527822 -0.06529211
 -0.06529977 -0.06530265 -0.06530476 -0.06530751 -0.06531653 -0.06533095 -0.06535251 -0.06537835 -0.06540598 -0.06543364
 -0.06545876 -0.06548246 -0.06550457 -0.06552672 -0.06554985 -0.06557298 -0.06559627 -0.06561728 -0.06563531 -0.06565168
 -0.06566619 -0.06568479 -0.06570779 -0.06574116 -0.06578482 -0.06583986 -0.06590576 -0.06598014 -0.066063 -0.06615251
 -0.06625031 -0.06635821 -0.06647994 -0.06662127 -0.06678671 -0.06698348 -0.06721305 -0.06747983 -0.06777999 -0.06811253
 -0.06847485 -0.06886358 -0.06928802 -0.06974768 -0.07026266 -0.07083718 -0.07147453 -0.07217772 -0.07290624 -0.0736577
 -0.07436294 -0.07501911 -0.07557397 -0.07602514 -0.07633755 -0.07650037 -0.07645656 -0.07620341 -0.07568698 -0.07496172
 -0.07407153 -0.07310884 -0.07219438 -0.07137027 -0.07071191 -0.0702075 -0.06987001 -0.06968113 -0.06963819 -0.06972389
 -0.06994093 -0.07023711 -0.07061253 -0.07096464 -0.07128382 -0.07150508 -0.07162534 -0.07167503 -0.07165805 -0.07163014
 -0.07158965 -0.07155796 -0.07152633 -0.07147669 -0.07140245 -0.07127548 -0.07110507 -0.07088964 -0.07064948 -0.07040744
 -0.07017303 -0.06996371 -0.0697716 -0.06959775 -0.06943169 -0.06926896 -0.0691075 -0.06894545 -0.0687861 -0.06862974
 -0.06847879 -0.06833358 -0.06819411 -0.06806037 -0.06793123 -0.06780683 -0.06768841 -0.06757635 -0.06747367 -0.0673803
 -0.06729761 -0.06722514 -0.06716236 -0.06710944 -0.06706695 -0.06703339 -0.06700882 -0.06698725 -0.06696478 -0.06693515
 -0.06689247 -0.06683969 -0.06677453 -0.06670986 -0.06664807 -0.06659976 -0.06656782 -0.06655065 -0.06654884 -0.06655251
 -0.06656116 -0.06656751 -0.06657173 -0.06657393 -0.06657455 -0.06657621 -0.06657844 -0.0665808 -0.0665829 -0.06658308
 -0.06658262 -0.06658269 -0.06658479 -0.0665917 -0.06660221 -0.06661694 -0.06663238 -0.06664678 -0.0666579 -0.06666434
 -0.06666602 -0.06666255 -0.06665497 -0.06664322 -0.0666292 -0.06661297 -0.06659755 -0.0665831 -0.06657264 -0.06656624
 -0.06656574 -0.06657083 -0.06658106 -0.0665952 -0.06660892 -0.06662062 -0.06662396 -0.06661927 -0.0666033 -0.06657962
 -0.06655023 -0.06652024 -0.06649452 -0.06647517 -0.06646575 -0.06646216 -0.06646447 -0.06646558 -0.06646328 -0.06645579
 -0.06644166 -0.06642763 -0.06641414 -0.06640764 -0.06640851 -0.06641383 -0.06642307 -0.06642793 -0.06642868 -0.06642234
 -0.06641062 -0.06639806 -0.06638563 -0.0663784 -0.06637497 -0.0663757 -0.06637805 -0.06637896 -0.06637777 -0.06637228
 -0.06636487 -0.06635579 -0.06634851 -0.06634443 -0.06634529 -0.06635208 -0.06636371 -0.06638058 -0.06639836 -0.06641686
 -0.06642988 -0.06643707 -0.06643611 -0.06642745 -0.06641658 -0.06640422 -0.06639788 -0.06639659 -0.06640118 -0.06640936
 -0.06641548 -0.0664193 -0.06641705 -0.06641146 -0.06640413 -0.06639736 -0.0663941 -0.0663936 -0.06639657 -0.06640081
 -0.06640524 -0.06641019 -0.06641489 -0.06642357 -0.06643678 -0.06645766 -0.06648693 -0.06652155 -0.06656137 -0.06659874
 -0.06663341 -0.06666049 -0.06668047 -0.06669383 -0.06670123 -0.06670521 -0.06670617 -0.06670601 -0.06670538 -0.0667061
 -0.06670874 -0.0667149 -0.06672408 -0.06673684 -0.06675114 -0.06676617 -0.06677981 -0.06679077 -0.06679936 -0.0668048
 -0.06681132 -0.06681935 -0.06683321 -0.06685365 -0.0668798 -0.06691168 -0.06694368 -0.06697559 -0.06700294 -0.06702599
 -0.06704386 -0.0670568 -0.06706513 -0.06706905 -0.06706879 -0.06706551 -0.06706082 -0.06705689 -0.06705693 -0.06706229
 -0.0670758 -0.0670957 -0.06712271 -0.06715178 -0.06718146 -0.06720691 -0.06722607 -0.06723918 -0.06724544 -0.06725007
 -0.06725345 -0.06726056 -0.06727175 -0.06728788 -0.06730881 -0.06733285 -0.06735982 -0.06738801 -0.06741703 -0.06744478
 -0.06747066 -0.06749208 -0.06750898 -0.0675194 -0.06752533 -0.06752774 -0.06753033 -0.06753636 -0.06754851 -0.06756999
 -0.06759889 -0.06763627 -0.06767557 -0.06771572 -0.06774961 -0.06777558 -0.0677913 -0.06779584 -0.06779472 -0.06778815
 -0.0677871 -0.06779195 -0.06781085 -0.06784264 -0.06788467 -0.06793421 -0.06797939 -0.06801874 -0.06804144 -0.06805034
 -0.06804414 -0.06802956 -0.06801376 -0.06800266 -0.06800461 -0.06801882 -0.06804885 -0.06808625 -0.0681292 -0.06816852
 -0.06820074 -0.06822427 -0.06823746 -0.06824695 -0.06825306 -0.06826369 -0.06827937 -0.06830275 -0.06833357 -0.06836772
 -0.06840445 -0.0684365 -0.06846385 -0.06848201 -0.0684927 -0.06849777 -0.06849934 -0.0685024 -0.0685068 -0.06851508
 -0.06852413 -0.06853203 -0.06853679 -0.06853564 -0.06853157 -0.06852438 -0.06851985 -0.0685197 -0.0685266 -0.0685418
 -0.06856269 -0.06858933 -0.06861722 -0.06864607 -0.06867325 -0.06869876 -0.06872261 -0.0687451 -0.0687681 -0.06879163
 -0.06881709 -0.06884367 -0.06887024 -0.0688956 -0.06891704 -0.06893404 -0.06894467 -0.0689496 -0.06894835 -0.06894295
 -0.06893356 -0.06892487 -0.0689182 -0.06891926 -0.06893032 -0.06895237 -0.06898674 -0.06902725 -0.06907368 -0.06911743
 -0.06915794 -0.06919013 -0.06921402 -0.06922936 -0.06923689 -0.06924143 -0.06924396 -0.06925155 -0.06926329 -0.06928134
 -0.06930209 -0.06931984 -0.06933276 -0.06933458 -0.06932986 -0.06931929 -0.06931046 -0.06930857 -0.06931669 -0.0693389
 -0.06936889 -0.06940702 -0.06944088 -0.06946827 -0.06948074 -0.06947634 -0.06945921 -0.06942935 -0.0693993 -0.06936947
 -0.06934708 -0.06933135 -0.0693202 -0.06931303 -0.06930598 -0.06929965 -0.0692938 -0.06928876 -0.06928543 -0.0692828
 -0.06927998 -0.06927609 -0.06926977 -0.06926154 -0.06925108 -0.06923999 -0.06922865 -0.06921896 -0.06921144 -0.06920772
 -0.06920825 -0.06921362 -0.06922419 -0.06923759 -0.06925379 -0.0692662 -0.06927446 -0.06927163 -0.06925821 -0.06923381
 -0.06920023 -0.0691645 -0.069128 -0.06909819 -0.06907497 -0.06906176 -0.06905743 -0.06906253 -0.06907397 -0.06909041
 -0.06910577 -0.06911631 -0.06911703 -0.06910399 -0.06907907 -0.06904103 -0.06899741 -0.06894914 -0.06890344 -0.06886129
 -0.06882658 -0.06879966 -0.06878149 -0.06877204 -0.06877067 -0.06877726 -0.06879107 -0.0688116 -0.06883698 -0.06886586
 -0.06889375 -0.06891952 -0.06893877 -0.0689516 -0.06895652 -0.06895357 -0.0689424 -0.06892286 -0.06889392 -0.06885869
 -0.06881755 -0.06877573 -0.06873517 -0.06869719 -0.0686627 -0.06862939 -0.06859694 -0.06856564 -0.06853542 -0.06850946
 -0.06848781 -0.06847097 -0.06845862 -0.06844836 -0.06844012 -0.06843232 -0.06842498 -0.06841778 -0.06840996 -0.0684001
 -0.06838728 -0.06836972 -0.068347 -0.06831796 -0.06828291 -0.06824132 -0.06819508 -0.0681444 -0.06809259 -0.06804049
 -0.06799113 -0.06794526 -0.06790449 -0.06786918 -0.06783907 -0.06781421 -0.06779235 -0.06777342 -0.06775601 -0.06774049
 -0.06772947 -0.06772304 -0.06772397 -0.06772996 -0.06773691 -0.06774071 -0.06773073 -0.06770694 -0.06766291 -0.06760592
 -0.0675397 -0.06747229 -0.06741086 -0.06735624 -0.06731201 -0.06727083 -0.06723189 -0.06718611 -0.06713096 -0.06706521
 -0.06698759 -0.06690713 -0.06682419 -0.06675204 -0.0666912 -0.06665072 -0.06662969 -0.06662657 -0.06663776 -0.06664724
 -0.06665114 -0.06662825 -0.0665821 -0.06650726 -0.06641429 -0.06631541 -0.06621724 -0.06613115 -0.06605688 -0.06599814
 -0.06595099 -0.06591552 -0.06588456 -0.0658568 -0.06582337 -0.06578207 -0.06572917 -0.06566348 -0.06558822 -0.06550346
 -0.06541403 -0.06532022 -0.065227 -0.06513486 -0.06505037 -0.06497314 -0.06490567 -0.06484582 -0.06478875 -0.06473282
 -0.06467234 -0.06460726 -0.06453542 -0.06445645 -0.06436911 -0.06427378 -0.06416935 -0.06405993 -0.06394666 -0.06383426
 -0.06372496 -0.06361845 -0.06351551 -0.0634122 -0.06330808 -0.06320056 -0.06308933 -0.06297506 -0.06285777 -0.06273896
 -0.06261817 -0.06249266 -0.06236113 -0.06221547 -0.06205636 -0.06188034 -0.06169175 -0.06149784 -0.06130091 -0.06110834
 -0.06091721 -0.06072764 -0.06053588 -0.06033871 -0.06013666 -0.05992875 -0.0597179 -0.05950567 -0.05929009 -0.05907321
 -0.05883926 -0.05858841 -0.05828904 -0.05793867 -0.05751784 -0.0570267 -0.05648514 -0.05589414 -0.055274 -0.05461795
 -0.05390639 -0.05313053 -0.05225134 -0.05127223 -0.05017544 -0.04898317 -0.04771413 -0.04639906 -0.04507301 -0.04375783
 -0.04248018 -0.04124178 -0.04005079 -0.03889911 -0.03778054 -0.03671464 -0.03569869 -0.034786 -0.0339838 -0.0333216
 -0.03280339 -0.03241489 -0.03215521 -0.03200195 -0.03195446 -0.03199821 -0.03213279 -0.0323489 -0.03264568 -0.03302116
 -0.03346216 -0.03395119 -0.03445168 -0.03490408 -0.03528749 -0.03555151 -0.03571817 -0.03578601 -0.03578094 -0.03571609
 -0.03560125 -0.03544175 -0.03524327 -0.03500904 -0.03473505 -0.03442474 -0.03403826 -0.0335732 -0.03298553 -0.0322754
 -0.03148894 -0.03063274 -0.02979125 -0.02895712 -0.02814018 -0.02732768 -0.02648444 -0.02560833 -0.02467859 -0.02369686
 -0.02266357 -0.02156082 -0.02038171 -0.01907925 -0.01761849 -0.01597332 -0.01409943 -0.01208438 -0.009928571 -0.007790981
 -0.005709561 -0.00375727 -0.001954506 -0.0002788928 0.001268131 0.002741808 0.004146016 0.005568152 0.007016822 0.008617589
 0.01035947 0.01227694 0.01431101 0.01628731 0.01819174 0.01988998 0.02144985 0.02291384 0.02433445 0.02578843
 0.02727468 0.02881897 0.03039703 0.03200277 0.03362124 0.03525113 0.03686046 0.03844387 0.0399683 0.04142404
 0.04283681 0.04420759 0.04556919 0.04692139 0.04821229 0.04943613 0.05051196 0.05144758 0.05223667 0.05289536
 0.05347349 0.05397237 0.05442189 0.05480872 0.05511906 0.05536273 0.05553698 0.05567529 0.05580061 0.05593282
 0.05609319 0.05626518 0.05645201 0.05661739 0.05675321 0.05684014 0.05687196 0.05686176 0.05680874 0.05675441
 0.05670054 0.05667143 0.0566634 0.05664993 0.0566254 0.05654847 0.05641643 0.05619815 0.05589673 0.05549883
 0.05502146 0.05448055 0.05389861 0.05330401 0.05271108 0.05213148 0.05159528 0.05110773 0.05073609 0.05050335
 0.05045374 0.05061204 0.05093011 0.05141091 0.0519549 0.05255483 0.05312591 0.05366454 0.0541426 0.05456703
 0.05499237 0.05543287 0.05598861 0.05666771 0.05754849 0.0586297 0.05994848 0.0614946 0.06327791 0.06526215
 0.06742958 0.06970293 0.072031 0.07433378 0.07654942 0.07867612 0.08068134 0.08266977 0.08464976 0.08675739
 0.08901782 0.09147509 0.09414004 0.09693554 0.09985713 0.102793 0.1057328 0.1085454 0.1112001 0.1134665
 0.1153246 0.1165611 0.1172405 0.1173804 0.1170906 0.1165373 0.1158103 0.1150643 0.114342 0.1137317
 0.1132042 0.1127803 0.1123736 0.1119668 0.1114618 0.1108213 0.1100601 0.1091583 0.1083026 0.1075122
 0.1068306 0.106258 0.1056351 0.1049532 0.1040647 0.1029747 0.1016298 0.10005 0.09827714 0.09631348
 0.09420809 0.09189391 0.08929229 0.08634582 0.08289679 0.07913549 0.07512989 0.07110249 0.06722926 0.06344321
 0.05975607 0.05609845 0.0524307 0.04886822 0.0454178 0.04221448 0.03927686 0.03657806 0.03411616 0.0317678
 0.02953043 0.02733249 0.02518422 0.02310358 0.02109963 0.01921623 0.01744429 0.01578931 0.01422949 0.01273445
 0.01128724 0.009860837 0.008439784 0.00701333 0.005543137 0.004008165 0.002379322 0.0006118029 -0.001163657 -0.002943402
 -0.00450935 -0.005808741 -0.00687888 -0.007711045 -0.008483383 -0.009204279 -0.009963163 -0.0107547 -0.01154683 -0.01233078
 -0.01303818 -0.01367668 -0.01423785 -0.01472911 -0.01517115 -0.01554629 -0.01583939 -0.01602579 -0.01606703 -0.01596821
 -0.01571742 -0.01533611 -0.01483539 -0.01421815 -0.01349305 -0.0126356 -0.01165017 -0.01046902 -0.009091076 -0.007392376
 -0.005358526 -0.002941446 -0.0001405254 0.002773056 0.005771574 0.008436203 0.01077222 0.01259168 0.01392593 0.01477476
 0.01517594 0.01519773 0.01490427 0.01441738 0.01380019 0.01316546 0.01254979 0.01201558 0.0115744 0.01125613
 0.0110267 0.01088457 0.01078195 0.01070265 0.01064388 0.01059956 0.0106028 0.01065612 0.01078437 0.01098876
 0.01125222 0.01157228 0.01191206 0.01227324 0.01264387 0.01303275 0.01346318 0.01394267 0.01450344 0.01513892
 0.01585313 0.01663758 0.01747656 0.01838933 0.01938058 0.02048267 0.02171885 0.02308864 0.02460383 0.02622613
 0.02794713 0.02974659 0.03161632 0.0335815 0.03564531 0.0378082 0.04006992 0.04231391 0.04452979 0.04655245
 0.04838333 0.0499475 0.05125297 0.05229376 0.05306187 0.05353808 0.0537076 0.05353255 0.05302054 0.0521562
 0.05097904 0.04950849 0.04779365 0.0458642 0.04375324 0.04147629 0.03906051 0.03650488 0.03388249 0.03119513
 0.02857194 0.02602558 0.02364099 0.02142325 0.01935084 0.0174203 0.01557765 0.0138274 0.01216774 0.01060921
 0.009193671 0.007915025 0.006787865 0.005782175 0.00486023 0.003987095 0.003108696 0.002206012 0.001242201 0.0002280272
 -0.0008471371 -0.00194418 -0.003054105 -0.004135666 -0.005174737 -0.006160514 -0.007086323 -0.007973958 -0.008824527 -0.009661443
 -0.01048608 -0.01129026 -0.01207128 -0.01279029 -0.01344569 -0.01400658 -0.01447779 -0.01485982 -0.01515853 -0.01538857
 -0.01555174 -0.01565735 -0.01570568 -0.0156986 -0.01564178 -0.01553579 -0.01539966 -0.01523899 -0.01508482 -0.01494848
 -0.01485528 -0.01481478 -0.01483336 -0.01491411 -0.01505272 -0.01524916 -0.01549927 -0.01580283 -0.01615253 -0.0165472
 -0.0169706 -0.01741977 -0.01787022 -0.01831711 -0.01873056 -0.01910634 -0.01941813 -0.01966794 -0.01984551 -0.01995962
 -0.02001567 -0.02002311 -0.01999043 -0.01992589 -0.01983471 -0.01972687 -0.01960633 -0.01948268 -0.01935896 -0.01924085
 -0.01912954 -0.01902938 -0.01894077 -0.01886857 -0.01881307 -0.01877555 -0.01875567 -0.01874866 -0.01875395 -0.01876535
 -0.01878341 -0.01880591 -0.01883564 -0.01887758 -0.01893566 -0.01901941 -0.01912916 -0.01927089 -0.01943783 -0.01962768
 -0.01983115 -0.02004242 -0.02025617 -0.02046946 -0.02067859 -0.02088302 -0.02107585 -0.02125633 -0.02141635 -0.02155489
 -0.02166869 -0.02175746 -0.02182431 -0.02186963 -0.0219 -0.02191546 -0.02192002 -0.02191213 -0.02188886 -0.02184738
 -0.02177915 -0.02168276 -0.02155101 -0.02138657 -0.02118804 -0.02096344 -0.02071745 -0.02046042 -0.02019925 -0.01994053
 -0.01968911 -0.01944432 -0.01920762 -0.01897317 -0.01874062 -0.0185027 -0.01825883 -0.01800192 -0.01773155 -0.0174418
 -0.01713202 -0.01679212 -0.01642045 -0.01599899 -0.01553069 -0.01500967 -0.01445584 -0.01390872 -0.01340144 -0.01301131
 -0.0127505 -0.01267639 -0.01275007 -0.01296929 -0.01326403 -0.01359484 -0.01391398 -0.01418935 -0.01441929 -0.01459495
 -0.01473665 -0.014847 -0.01493819 -0.01501237 -0.01506831 -0.0151061 -0.01511977 -0.01510836 -0.01505824 -0.01496524
 -0.01479531 -0.01454473 -0.01417339 -0.01369723 -0.01312137 -0.01249783 -0.01191087 -0.01141999 -0.01114242 -0.0110727
 -0.01127112 -0.01163126 -0.0121225 -0.01261325 -0.01303452 -0.01335377 -0.01353231 -0.01366137 -0.01374642 -0.01389491
 -0.01412374 -0.014442 -0.01485259 -0.01525745 -0.01564967 -0.01590283 -0.01601802 -0.01593192 -0.01566771 -0.01527289
 -0.01478606 -0.01433163 -0.01392686 -0.01367144 -0.01353025 -0.01350847 -0.01354547 -0.01358701 -0.01360901 -0.01357457
 -0.01350776 -0.01341151 -0.0133008 -0.01318718 -0.01304039 -0.01285854 -0.01260456 -0.01227189 -0.01186591 -0.01138605
 -0.01087141 -0.01032356 -0.0097726 -0.009216925 -0.008660108 -0.008099854 -0.007528557 -0.006946621 -0.006350833 -0.005743548
 -0.005127074 -0.004504366 -0.003879651 -0.00325576 -0.002636666 -0.002023275 -0.001417172 -0.0008184446 -0.0002266786 0.0003547333
 0.0009251487 0.001480963 0.002020605 0.002548079 0.003063274 0.003574533 0.004082478 0.004587689 0.005089866 0.005582758
 0.006066639 0.006540143 0.007004702 0.007465403 0.007923182 0.008382761 0.008845053 0.009313101 0.009789363 0.01027732
 0.01078095 0.01130362 0.01185186 0.01242921 0.01304425 0.01370194 0.01440445 0.01515559 0.01594347 0.01676825
 0.0176086 0.01846271 0.01930951 0.02014751 0.02096252 0.02175436 0.02252052 0.02326164 0.02398203 0.02468002
 0.02535195 0.02599384 0.02659151 0.0271468 0.02765311 0.02812265 0.02856625 0.02899911 0.02943845 0.02989224
 0.03037193 0.03087329 0.03139954 0.03193571 0.03247857 0.03301564 0.03354274 0.03406272 0.03457455 0.03509152
 0.03561436 0.0361564 0.03671831 0.03731243 0.03793794 0.03859774 0.03928497 0.03997544 0.04065795 0.04128974
 0.04186558 0.04235541 0.04276094 0.04307399 0.04329283 0.0434142 0.04343404 0.04334616 0.04315885 0.04286968
 0.0425043 0.04206613 0.0415898 0.04108055 0.04057205 0.04006849 0.03959396 0.03915042 0.03874995 0.03839292
 0.03808491 0.03782509 0.03761174 0.03744093 0.03729552 0.03717203 0.03704866 0.03693323 0.03682497 0.03674577
 0.03672149 0.03677393 0.03693618 0.03720422 0.0375985 0.03806149 0.03859113 0.03907148 0.03947786 0.03968772
 0.03966989 0.03937905 0.03879827 0.03799682 0.03697606 0.03587419 0.03469805 0.03357256 0.03249645 0.0315219
 0.03063606 0.02981404 0.02904237 0.02826857 0.02749399 0.02669328 0.02588187 0.02506977 0.0242693 0.02349812
 0.02275296 0.02204074 0.02134227 0.02065433 0.01994889 0.01921826 0.01843931 0.0176052 0.01671133 0.01575511
 0.01474914 0.01369383 0.01260797 0.01149259 0.01036598 0.009228762 0.008094276 0.006962573 0.005840017 0.004728456
 0.003634754 0.002564153 0.001529577 0.0005351003 -0.0004073635 -0.001299948 -0.002139119 -0.002932148 -0.003681059 -0.004396734
 -0.005082992 -0.005752291 -0.006408941 -0.007060532 -0.007709196 -0.008358325 -0.009007673 -0.009668758 -0.01034221 -0.01104317
 -0.01177145 -0.01251899 -0.01328184 -0.01402437 -0.0147441 -0.01540947 -0.01602477 -0.01658538 -0.0170975 -0.01757148
 -0.01800973 -0.01841956 -0.01880183 -0.01915875 -0.01949389 -0.01980901 -0.02011035 -0.02040102 -0.02068493 -0.02096467
 -0.02123776 -0.02150418 -0.02176093 -0.02200699 -0.02224775 -0.02248346 -0.02272124 -0.02296095 -0.02319587 -0.02342444
 -0.02363016 -0.02381353 -0.02396714 -0.02409451 -0.02420175 -0.02429192 -0.02437411 -0.02444904 -0.02452211 -0.02459088
 -0.02465605 -0.02471185 -0.02475488 -0.02478096 -0.02478644 -0.02477367 -0.02474257 -0.02469589 -0.02463477 -0.02455671
 -0.0244614 -0.02434787 -0.0242158 -0.02407062 -0.02391272 -0.02375001 -0.02358349 -0.02342391 -0.02327351 -0.02314845
 -0.02304951 -0.02298874 -0.02296209 -0.02296841 -0.02300086 -0.02305062 -0.02311018 -0.0231713 -0.02322334 -0.02325821
 -0.02326566 -0.02323783 -0.02317515 -0.02307463 -0.02294631 -0.02279176 -0.02261831 -0.02242751 -0.02221912 -0.02199329
 -0.02174771 -0.02148238 -0.02119812 -0.02089541 -0.02057894 -0.02024896 -0.01990969 -0.01955994 -0.01919798 -0.01882373
 -0.01843358 -0.01803493 -0.01763394 -0.01724394 -0.01688023 -0.01655001 -0.01626493 -0.01601876 -0.01581329 -0.01563496
 -0.01548139 -0.01533628 -0.01519702 -0.01504598 -0.01488011 -0.01469194 -0.01447976 -0.0142625 -0.01404165 -0.01385433
 -0.01370097 -0.01360338 -0.01355561 -0.01354295 -0.01355663 -0.01356248 -0.01355733 -0.01351724 -0.01344655 -0.01334071
 -0.01320648 -0.01304823 -0.01287279 -0.01268587 -0.012492 -0.01229622 -0.01209396 -0.01188607 -0.01166171 -0.01141733
 -0.01115463 -0.01087125 -0.01059081 -0.01031466 -0.01006798 -0.009851468 -0.009666643 -0.009511093 -0.009363706 -0.009222397
 -0.00906536 -0.008894282 -0.00870165 -0.00849291 -0.008274807 -0.008053433 -0.007840676 -0.007638719 -0.007456018 -0.007286033
 -0.007128699 -0.006971872 -0.006809005 -0.00663592 -0.006447254 -0.006255453 -0.00606162 -0.005879884 -0.005713895 -0.005556816
 -0.005409091 -0.005247768 -0.005071959 -0.004870445 -0.00464488 -0.004405985 -0.004156075 -0.003911802 -0.003674008 -0.003453793
 -0.003251014 -0.003072021 -0.00291261 -0.002773051 -0.002639128 -0.002500599 -0.002335335 -0.002124737 -0.001857003 -0.0015149
 -0.001123141 -0.0006780067 -0.0002396185 0.0001810665 0.0005352 0.0008111182 0.001014989 0.00114469 0.001245857 0.001320804
 0.001411815 0.001519976 0.001672839 0.001868968 0.002120195 0.002416575 0.002736607 0.003065516 0.003358151 0.003616828
 0.003819803 0.003990795 0.004146227 0.004303015 0.004481991 0.004676767 0.004890286 0.005111462 0.005336201 0.005562435
 0.005788817 0.006016358 0.006244819 0.006476943 0.006712701 0.006959342 0.00721718 0.007490481 0.007778541 0.008076947
 0.008383446 0.00868558 0.00897964 0.009246665 0.009486642 0.009686632 0.009858137 0.01001032 0.01015882 0.01032515
 0.0105115 0.01072864 0.01096534 0.0112196 0.01147964 0.01174175 0.0119959 0.01223878 0.01246714 0.01267812
 0.01288889 0.01310007 0.0133366 0.01359944 0.01389255 0.0142153 0.01456073 0.0149317 0.01533948 0.01578708
 0.01629299 0.01685121 0.01745973 0.01810776 0.0187778 0.01946472 0.02015687 0.02085255 0.02155164 0.02223816
 0.02291447 0.02352913 0.02407327 0.02447453 0.02471078 0.02476337 0.02461656 0.02435793 0.02399048 0.02364054
 0.023314 0.02307664 0.02292611 0.02286213 0.02288001 0.02295803 0.02309078 0.02325114 0.02343328 0.02361025
 0.02378268 0.02393918 0.0240846 0.02422238 0.02434846 0.02446375 0.02455511 0.02461664 0.02463827 0.02461319
 0.02454616 0.02443285 0.02430364 0.0241593 0.02404907 0.02397762 0.02397246 0.02403459 0.02414408 0.02429816
 0.0244596 0.02462843 0.02478516 0.02493253 0.02506802 0.02519667 0.02532806 0.02546594 0.02562397 0.02579268
 0.02596765 0.02613928 0.02628949 0.02644705 0.02661179 0.02684627 0.02718183 0.02761134 0.02815314 0.02870172
 0.02923999 0.02973125 0.03016834 0.03057982 0.03096667 0.0313331 0.03167798 0.03198937 0.03226746 0.03251016
 0.03271341 0.03286417 0.03295542 0.03296036 0.03288766 0.03273408 0.03252297 0.03227672 0.03201581 0.03176001
 0.03152756 0.03133122 0.03118573 0.03110123 0.03107342 0.03110525 0.03117836 0.0312912 0.0314251 0.03157907
 0.0317266 0.03186624 0.03197364 0.03205043 0.03210732 0.03214786 0.03220198 0.03226124 0.03231709 0.03235115
 0.03231329 0.03220419 0.03199443 0.03171497 0.03138565 0.03103881 0.03070645 0.03040084 0.03014044 0.0299119
 0.02971694 0.02953054 0.02934056 0.02916912 0.02901102 0.02894669 0.02898452 0.02915774 0.02946768 0.029838
 0.0302628 0.03064628 0.03099278 0.03127424 0.03150517 0.03171688 0.03192593 0.03218913 0.0325042 0.03290512
 0.03334791 0.03380287 0.03421866 0.03453383 0.03476583 0.0348931 0.03499601 0.03509935 0.03525438 0.03548465
 0.03577483 0.03612961 0.03650042 0.03688436 0.03722836 0.03752954 0.037761 0.03792557 0.0380505 0.03813991
 0.03823507 0.03832887 0.03841738 0.03849457 0.03853838 0.0385625 0.03857866 0.03859999 0.03865156 0.03872137
 0.03881102 0.03889956 0.03897595 0.0390285 0.03904935 0.03903883 0.03899179 0.03893304 0.03886407 0.03881804
 0.03880008 0.03880184 0.03882297 0.0388221 0.03879905 0.03874044 0.03864959 0.0385407 0.03841226 0.03826474
 0.03809836 0.03791093 0.03771054 0.03751265 0.03731354 0.03711952 0.03691164 0.03667395 0.0364048 0.0360919
 0.03576549 0.03543095 0.03512397 0.03485634 0.03463819 0.03447761 0.03433868 0.03422143 0.03405519 0.03383609
 0.03352737 0.03313249 0.03268864 0.03220037 0.03171611 0.03122972 0.03074334 0.03025287 0.02974571 0.02923085
 0.02871653 0.02821312 0.02773271 0.02729033 0.02689608 0.02657754 0.02635515 0.02623363 0.02622994 0.02629309
 0.02641996 0.02653598 0.02662893 0.02664983 0.02659109 0.02645096 0.02622899</values></Ydata></AB><ScSm><Ydata ylabel="Single channel"><values byteorder="INTEL" format="FLOAT32" numvalues="1814"> 0.0724256 0.07243581 0.0725102 0.07266961 0.07288524 0.07309495 0.07324456 0.07332143 0.07334244 0.07331795
 0.07325755 0.0732108 0.07325643 0.07342567 0.0736554 0.07383229 0.07388391 0.07384323 0.0738296 0.0739315
 0.07408136 0.07407525 0.07376197 0.07321804 0.07270002 0.07240881 0.07236202 0.07254279 0.07303097 0.07377401
 0.07432199 0.07415014 0.07332398 0.07252701 0.07229921 0.07251626 0.07271568 0.07262757 0.07225691 0.07177747
 0.07157501 0.07214142 0.07359373 0.07527937 0.07600719 0.0747909 0.07155089 0.06735422 0.06403112 0.0631904
 0.06507836 0.06824908 0.07065287 0.07127279 0.07061093 0.06965695 0.06883056 0.06810347 0.06766873 0.06796993
 0.06908016 0.07029305 0.07048142 0.06904951 0.06664571 0.06471825 0.06420219 0.06492414 0.06636268 0.0682153
 0.06961696 0.06869587 0.06441565 0.05890322 0.05649601 0.05961678 0.06619169 0.07169338 0.07317117 0.07087398
 0.06691239 0.06351344 0.06221157 0.06342945 0.06636948 0.06968504 0.07231268 0.07353036 0.07277657 0.07013366
 0.06679983 0.06450044 0.06442545 0.06677401 0.0707178 0.07446253 0.07605907 0.07485033 0.07191063 0.06890312
 0.06698467 0.06681472 0.06870708 0.07228978 0.07649899 0.08021373 0.08271664 0.08373704 0.08348927 0.08254486
 0.08140351 0.08041658 0.0800953 0.08078986 0.08186516 0.08195043 0.08043815 0.07829861 0.07708148 0.07731746
 0.07809775 0.0781765 0.07722634 0.07562427 0.07321915 0.06934153 0.06433828 0.05994547 0.05755173 0.05715461
 0.05841193 0.06118365 0.06430522 0.06550436 0.06388481 0.06151762 0.06137433 0.06416159 0.06796644 0.07061614
 0.07169046 0.07237168 0.07391013 0.07633656 0.07828963 0.07803084 0.07516619 0.07162425 0.07029517 0.07219869
 0.07551478 0.07783733 0.07871388 0.07938118 0.08058956 0.08143256 0.08028588 0.07673302 0.07261281 0.07089482
 0.07309601 0.07776013 0.08150904 0.08154048 0.07751322 0.07163414 0.06693897 0.0651904 0.06638878 0.06991143
 0.07519843 0.08117171 0.08596611 0.08796975 0.08700161 0.08421151 0.08077982 0.07683176 0.07205512 0.06750023
 0.06580209 0.06867547 0.07470931 0.0805451 0.08387998 0.08461349 0.0835254 0.08083864 0.07644075 0.07126952
 0.06776762 0.06798391 0.07111249 0.07395683 0.07428619 0.07286398 0.07178644 0.07184701 0.07225638 0.07228252
 0.0722868 0.07311819 0.07491951 0.0768203 0.07779268 0.07758814 0.07677059 0.07604878 0.07563537 0.07510334
 0.07399496 0.07275099 0.07265017 0.07440664 0.07718039 0.07943896 0.08048795 0.08071151 0.08055502 0.07975967
 0.07775535 0.0747494 0.07217038 0.07160915 0.07327485 0.07586411 0.07791741 0.07886959 0.07890065 0.07839906
 0.07770233 0.07699219 0.07635348 0.07600561 0.07624319 0.07700698 0.07779895 0.07818266 0.07813309 0.07780688
 0.0772382 0.07641201 0.07548483 0.07478005 0.0745542 0.07480175 0.07530534 0.07583248 0.07621308 0.07629253
 0.07598867 0.07541905 0.07482872 0.07436528 0.07403338 0.07384933 0.0738853 0.07412975 0.07442325 0.07458952
 0.07457329 0.07442318 0.07419403 0.07390702 0.07358096 0.07326961 0.07306051 0.07301693 0.07310149 0.07319282
 0.07321924 0.07323229 0.07328968 0.07332218 0.07320603 0.07293658 0.0726451 0.07245461 0.07238008 0.07235953
 0.07232106 0.07219919 0.07193306 0.07151796 0.07107626 0.0708144 0.07085849 0.07116003 0.0715752 0.07197277
 0.07225215 0.07235467 0.07230924 0.07220589 0.0720918 0.07193797 0.07171897 0.07148653 0.07135415 0.0714135
 0.07165055 0.07194626 0.07217534 0.0722905 0.07231416 0.07230311 0.07232979 0.07242684 0.07252793 0.07252787
 0.07242003 0.07231763 0.07232184 0.0724107 0.07247503 0.07244217 0.07235163 0.07231027 0.07238057 0.07252803
 0.07267617 0.07278787 0.07288258 0.0729877 0.07308283 0.07310234 0.07301151 0.07286873 0.07277482 0.07276645
 0.07280311 0.07285361 0.07293908 0.07307681 0.07322648 0.07332263 0.07334633 0.0733417 0.07335766 0.0733874
 0.07337973 0.07330505 0.07319248 0.07310103 0.07306951 0.07309435 0.07314093 0.07317007 0.07315975 0.07310995
 0.07303353 0.07294475 0.07285286 0.07276849 0.07271837 0.07273888 0.07283215 0.07293301 0.07294586 0.07282905
 0.07263681 0.07246974 0.07238235 0.07234177 0.07227673 0.07215747 0.07201587 0.07189696 0.07181421 0.07175446
 0.07170269 0.07165337 0.07161692 0.07162654 0.07171705 0.071876 0.07202911 0.07209992 0.07208318 0.07204186
 0.07203853 0.07208715 0.07216477 0.07224676 0.0723309 0.07243854 0.07258432 0.07274088 0.07285534 0.07291026
 0.07294579 0.07301555 0.0731446 0.07332866 0.07353756 0.07371573 0.07381929 0.07386611 0.07392095 0.07402171
 0.07414645 0.07426023 0.07436518 0.0744866 0.07463112 0.07478528 0.07495028 0.07515588 0.07543083 0.07576705
 0.07611866 0.07643568 0.07670403 0.0769594 0.0772606 0.07764059 0.07807687 0.07850736 0.07887901 0.07918784
 0.07947274 0.07976976 0.08008272 0.08040613 0.08075748 0.08115926 0.0815976 0.08202873 0.08242752 0.08280708
 0.08319049 0.08358459 0.08398636 0.08439916 0.08483329 0.08529028 0.08574861 0.08617145 0.08653688 0.08685892
 0.08717539 0.08752003 0.08790555 0.08831436 0.0886981 0.08901057 0.08926221 0.08952311 0.08984819 0.09021454
 0.09056087 0.09087564 0.09120965 0.09160028 0.09201821 0.09240358 0.09273312 0.09303527 0.09334913 0.09368028
 0.09399457 0.09425317 0.0944557 0.09464388 0.09486002 0.09511641 0.09541366 0.09576336 0.09616511 0.09657626
 0.09693769 0.09722653 0.0974627 0.09767433 0.09788029 0.0980941 0.09831879 0.09854355 0.09875923 0.0989647
 0.09915054 0.09930414 0.09944418 0.09962094 0.09986368 0.1001538 0.1004664 0.100809 0.1011918 0.1015878
 0.1019599 0.1023181 0.1027092 0.1031408 0.103549 0.1038635 0.1040796 0.1042412 0.1043822 0.1045222
 0.1047006 0.104963 0.1053097 0.1056886 0.1060473 0.1063694 0.1066622 0.1069289 0.1071581 0.1073304
 0.1074344 0.1074841 0.1075219 0.1076023 0.1077681 0.1080287 0.1083518 0.1086777 0.1089498 0.109128
 0.109182 0.1090971 0.1089027 0.1086733 0.1084671 0.1082622 0.1079704 0.1075147 0.1068755 0.1060677
 0.1051031 0.103992 0.1027708 0.101517 0.1003347 0.09932369 0.09855717 0.09808613 0.09795509 0.09818681
 0.09873527 0.09946287 0.1001752 0.1006782 0.100816 0.1004989 0.09973142 0.09861034 0.09727661 0.09585605
 0.09442768 0.09301655 0.09160553 0.09017691 0.088769 0.08749527 0.08650845 0.08596451 0.0860353 0.08692466
 0.08879514 0.0916074 0.09502198 0.09850665 0.1015974 0.1040958 0.1060627 0.1076784 0.1091103 0.1104499
 0.1117091 0.1128629 0.113904 0.1148555 0.1157386 0.1165433 0.1172338 0.1177705 0.118133 0.1183366
 0.1184218 0.1184259 0.1183754 0.1182984 0.1182101 0.1180713 0.1177831 0.1172401 0.1163837 0.115211
 0.1137519 0.112076 0.1103815 0.109125 0.1089916 0.110549 0.1137959 0.1180589 0.1223903 0.1260914
 0.1289244 0.1309856 0.1324922 0.1336526 0.1346163 0.1354706 0.1362593 0.1369996 0.1376933 0.1383414
 0.1389539 0.1395447 0.1401214 0.1406845 0.1412259 0.1417312 0.1421949 0.1426369 0.1430932 0.143585
 0.144099 0.1446016 0.1450754 0.1455352 0.1460007 0.14646 0.1468818 0.1472581 0.1476159 0.1479894
 0.1483976 0.1488417 0.1493008 0.1497338 0.1501084 0.150432 0.1507419 0.1510674 0.1514115 0.1517629
 0.1521141 0.1524648 0.1528167 0.1531713 0.1535313 0.1538932 0.1542382 0.1545426 0.1548042 0.1550501
 0.1553126 0.1556008 0.1558989 0.1561869 0.1564623 0.1567468 0.1570698 0.1574367 0.1578164 0.1581656
 0.1584675 0.1587395 0.1590096 0.159292 0.1595872 0.1598915 0.160199 0.1605021 0.1607988 0.1610968
 0.1614034 0.1617142 0.1620192 0.162316 0.1626115 0.1629116 0.163214 0.1635113 0.1638029 0.1641033
 0.1644307 0.164783 0.1651309 0.1654423 0.1657093 0.1659491 0.1661849 0.1664336 0.1667037 0.1669965
 0.1673066 0.167625 0.1679429 0.1682535 0.1685524 0.1688391 0.1691181 0.1693979 0.1696861 0.1699847
 0.1702924 0.1706071 0.1709253 0.1712384 0.1715373 0.1718217 0.1721036 0.172398 0.1727097 0.173028
 0.1733336 0.1736168 0.1738863 0.1741586 0.1744399 0.1747233 0.1750022 0.1752778 0.1755569 0.1758447
 0.1761402 0.1764353 0.1767203 0.1769916 0.1772545 0.1775176 0.1777853 0.1780565 0.1783295 0.1786067
 0.1788902 0.1791766 0.1794594 0.1797371 0.1800132 0.1802904 0.1805674 0.1808412 0.1811093 0.181373
 0.1816382 0.1819074 0.1821743 0.1824322 0.1826839 0.1829386 0.1832009 0.1834686 0.1837394 0.1840136
 0.184294 0.1845798 0.1848642 0.1851391 0.1854022 0.1856577 0.1859131 0.1861781 0.1864589 0.186752
 0.1870486 0.187345 0.1876402 0.1879277 0.1881996 0.1884552 0.188701 0.1889451 0.1891935 0.1894461
 0.1896981 0.1899482 0.1902011 0.1904595 0.1907224 0.1909882 0.1912532 0.1915114 0.1917639 0.1920205
 0.192287 0.19256 0.1928334 0.1931026 0.1933644 0.193624 0.1938918 0.1941707 0.1944534 0.1947336
 0.1950106 0.1952863 0.1955664 0.195854 0.1961421 0.1964213 0.196693 0.1969632 0.1972329 0.1975031
 0.1977763 0.1980495 0.198318 0.1985862 0.1988602 0.1991407 0.1994269 0.1997158 0.1999953 0.200258
 0.200513 0.2007703 0.2010276 0.2012844 0.2015487 0.2018237 0.2021056 0.2023928 0.2026807 0.2029586
 0.2032234 0.2034815 0.2037355 0.203988 0.2042478 0.2045156 0.2047818 0.2050444 0.2053048 0.2055436
 0.2057082 0.2056732 0.2051251 0.203434 0.1996308 0.192593 0.1814916 0.1663142 0.1480497 0.128332
 0.108835 0.09084207 0.0751209 0.06201177 0.05158341 0.04374304 0.03831094 0.03513196 0.03418916 0.03572627
 0.04038391 0.04882011 0.06027437 0.07129936 0.07710691 0.07535174 0.06837381 0.06106491 0.05680577 0.05583604
 0.05671472 0.05821338 0.0599415 0.06211424 0.0651058 0.0690262 0.07370365 0.07913978 0.08572558 0.09373923
 0.1027536 0.1118177 0.1202699 0.1282525 0.136383 0.1450076 0.1538342 0.1622178 0.1696725 0.1761113
 0.1817388 0.1868236 0.1915525 0.1960225 0.2002933 0.2043709 0.2081068 0.2111679 0.2132026 0.2141039
 0.2141304 0.213761 0.2134162 0.2132931 0.2134103 0.2137314 0.2142245 0.2148628 0.2156228 0.2164823
 0.2174105 0.2183704 0.2193314 0.2202692 0.2211637 0.2220027 0.2227803 0.2234896 0.2241283 0.2247078
 0.225243 0.2257408 0.2262047 0.2266411 0.2270553 0.2274488 0.227824 0.2281823 0.228521 0.2288365
 0.2291286 0.229399 0.2296516 0.2298949 0.2301373 0.230382 0.2306302 0.230883 0.2311366 0.2313839
 0.2316241 0.2318635 0.2321068 0.2323521 0.2325932 0.2328258 0.2330524 0.2332819 0.2335179 0.2337534
 0.233982 0.2342089 0.2344431 0.2346835 0.2349222 0.235157 0.235395 0.235644 0.2359006 0.2361507
 0.2363866 0.236621 0.2368705 0.2371335 0.2373976 0.2376601 0.237925 0.2381888 0.2384482 0.2387077
 0.2389646 0.2391999 0.2394013 0.2395871 0.2397946 0.2400461 0.2403283 0.2406061 0.2408587 0.2410969
 0.2413414 0.2415956 0.241848 0.2420862 0.2423095 0.2425363 0.2427973 0.2431028 0.2434322 0.2437612
 0.2440805 0.2443831 0.2446634 0.2449328 0.2452041 0.2454613 0.2456786 0.24587 0.2460963 0.2464135
 0.2468153 0.2472317 0.2475927 0.2478912 0.2481693 0.248465 0.2487925 0.2491304 0.2493927 0.2494842
 0.2494507 0.2495094 0.2498514 0.2504502 0.2511153 0.2516854 0.252123 0.2524704 0.2527724 0.2530332
 0.2532176 0.2532955 0.2533123 0.2534142 0.2537504 0.2543163 0.2549397 0.2554549 0.2558331 0.2561226
 0.2563609 0.2565713 0.2567226 0.2566722 0.2563195 0.2558825 0.2558393 0.2564622 0.2575049 0.2584632
 0.259077 0.2594603 0.2598021 0.2601307 0.2603872 0.2604841 0.2601842 0.2592301 0.2578595 0.2569542
 0.2573097 0.2588319 0.2606895 0.2621419 0.2630012 0.2634512 0.2637299 0.263969 0.2640926 0.2638249
 0.2630009 0.2619757 0.2615361 0.2621752 0.2635368 0.2647932 0.2654864 0.2657717 0.2659822 0.2662597
 0.2664593 0.2660964 0.2646229 0.2622326 0.2602682 0.2602753 0.2624878 0.2655469 0.2678518 0.2689425
 0.2693665 0.2694924 0.2689699 0.2673577 0.2647701 0.2618185 0.2594474 0.2588322 0.2605934 0.2637984
 0.2664894 0.2676215 0.2679422 0.2687276 0.2702539 0.2717874 0.2725524 0.2723376 0.2713728 0.2699048
 0.2680781 0.2663364 0.2656587 0.2668636 0.2696159 0.2725522 0.2745407 0.2755339 0.275974 0.2754735
 0.2725549 0.2664322 0.2592317 0.2553977 0.2577657 0.2645933 0.2714288 0.2754832 0.2771446 0.277889
 0.2783141 0.2779774 0.2756296 0.2698759 0.2613568 0.2541565 0.2530461 0.2587507 0.2671265 0.2730441
 0.2739109 0.2699443 0.2632167 0.2570242 0.2545516 0.2569438 0.2628092 0.2695991 0.2751392 0.2782136
 0.2785445 0.2766761 0.2739256 0.2720586 0.2720165 0.2725166 0.2710184 0.2669421 0.2626509 0.2599693
 0.2573282 0.2526429 0.2479125 0.2478822 0.2538925 0.2616509 0.2660657 0.2663956 0.2652947 0.2639464
 0.2599962 0.2509247 0.2388215 0.2304153 0.2311727 0.2396209 0.2486636 0.2525037 0.2512141 0.2486401
 0.247278 0.2458195 0.2411597 0.2325807 0.2237668 0.219724 0.2214833 0.2251964 0.2266635 0.2246507
 0.219357 0.2110792 0.2026811 0.2004149 0.2085482 0.224026 0.2388697 0.2467153 0.2450497 0.2337103
 0.21581 0.1996315 0.1945696 0.2027012 0.216267 0.2248395 0.2235798 0.2140038 0.1995074 0.1831044
 0.1688621 0.1622202 0.1666819 0.180316 0.1959619 0.2048039 0.2011845 0.1869724 0.1719192 0.1666049
 0.1728128 0.1823675 0.1863491 0.1831976 0.1773122 0.1733387 0.1734985 0.1773805 0.1823901 0.1861203
 0.1882622 0.1879393 0.1811002 0.1654282 0.1469491 0.1361092 0.1369015 0.144734 0.1548215 0.1664827
 0.177815 0.1827367 0.1778541 0.1689548 0.1661374 0.1730999 0.1839653 0.1905013 0.1902999 0.1872311
 0.1854275 0.1848339 0.1833246 0.181556 0.1831111 0.1895013 0.1974815 0.202709 0.2043037 0.2043189
 0.2042856 0.2040533 0.2030553 0.2010958 0.1982652 0.1950423 0.1921757 0.1899662 0.1880297 0.185899
 0.1831244 0.1785344 0.1705736 0.159611 0.1492946 0.1438096 0.1436271 0.145709 0.147882 0.1500885
 0.1504696 0.1442633 0.1300235 0.1146722 0.1084678 0.1151309 0.1291223 0.1419824 0.1488147 0.1485895
 0.1415106 0.1293343 0.117769 0.1148104 0.1242083 0.1418539 0.1601999 0.1747368 0.184584 0.1890353
 0.1869385 0.1794301 0.1710137 0.1670545 0.1705369 0.1806789 0.1931591 0.2012242 0.1989604 0.1871715
 0.1761695 0.1782365 0.1946724 0.2135946 0.2232891 0.2241457 0.2240022 0.2259652 0.2267987 0.2254473
 0.2265256 0.2338877 0.2448649 0.2528663 0.253152 0.244678 0.2294556 0.2130227 0.2030726 0.203422
 0.2099275 0.2152556 0.2161348 0.2128118 0.2045998 0.1919825 0.1815908 0.1821215 0.1941505 0.2088663
 0.2180975 0.2217716 0.2242962 0.2269602 0.2264019 0.2197736 0.2095545 0.2020424 0.2011108 0.2047779
 0.2084707 0.2098206 0.2087445 0.2047538 0.1972454 0.1883973 0.1831743 0.1850481 0.1924808 0.2004672
 0.2050952 0.2060106 0.2051246 0.2041887 0.203645 0.2028478 0.2012736 0.2000618 0.2017841 0.2076003
 0.2152372 0.2212393 0.2248968 0.228473 0.2336552 0.2392183 0.2425229 0.2424293 0.2404215 0.2393456
 0.2411423 0.2453017 0.2492298 0.2504436 0.2489204 0.247332 0.2485799 0.2530163 0.2584078 0.2624499
 0.264641 0.2657973 0.2666973 0.2674423 0.2674236 0.26581 0.2627876 0.2603059 0.2607125 0.2644133
 0.2694589 0.2735196 0.2757268 0.2765596 0.2766218 0.2759918 0.2745805 0.2727091 0.2711006 0.2703316
 0.2704413 0.271088 0.2719112 0.2726793 0.273272 0.2736788 0.273973 0.2742268 0.2744805 0.2747758
 0.2751295 0.2754681 0.2756867 0.2758044 0.275981 0.2763225 0.2767341 0.2770202 0.2770661 0.2768365
 0.276259 0.2752398 0.2737997 0.2720786 0.2701749 0.2680895 0.265933 0.2641475 0.2633745 0.2639858
 0.2657326 0.2678859 0.2697064 0.2707978 0.271158 0.2710624 0.2708936 0.2709338 0.2712139 0.2715566
 0.2717663 0.2717704 0.2716084 0.2713425 0.2710032 0.2705981 0.2701165 0.2695022 0.2686747 0.2676573
 0.2666784 0.2660483 0.2658703 0.2659132 0.2658261 0.265459 0.2649354 0.2644389 0.2639927 0.2634454
 0.2626178 0.2614635 0.2601343 0.2588894 0.2578893 0.2570596 0.2561762 0.255077 0.2537768 0.2524056
 0.2510818 0.2498406 0.2486434 0.247427 0.2461394 0.244745 0.2432267 0.2415975 0.2398982 0.2381682
 0.2364218 0.2346542 0.2328576 0.2310247 0.2291439 0.2272026 0.2251972 0.2231417 0.221064 0.2189871
 0.2168986 0.2147272 0.2123485 0.2096211 0.2064195 0.2026471 0.1982603 0.1933142 0.1879828 0.1825123
 0.1771417 0.1720494 0.1673543 0.1631505 0.1595339 0.1565876 0.1543455 0.1527875 0.151875 0.1515844
 0.1519086 0.1528325 0.1543032 0.1562154 0.1584223 0.1607551 0.1630395 0.1651307 0.1669732 0.1686315
 0.1702373 0.171892 0.1736107 0.1753464 0.1770479 0.1786787 0.1801927 0.1815277 0.1826429 0.1835464
 0.1842768 0.1848755 0.185382 0.1858226 0.1861849 0.1864129 0.1864435 0.1862694 0.1859976 0.1858517
 0.1860721 0.1867673 0.1878486 0.1891081 0.1903641 0.191553 0.1927141 0.1939062 0.1951442 0.196401
 0.1976502 0.1989006 0.2002091 0.201666 0.2033505 0.205291 0.2074622 0.2098031 0.2122261 0.214623
 0.2168823 0.2189077 0.2206316 0.222029 0.2231196 0.2239548 0.2245934 0.2250809 0.2254427 0.2257046
 0.2259122 0.2261055 0.2262738 0.2263645 0.2263357 0.2261811 0.2259158 0.2255671 0.2251734 0.2247667
 0.2243581 0.2239441 0.2235242 0.2231085 0.2227125 0.22234 0.2219692 0.2215672 0.2211186 0.2206333
 0.2201251 0.2195857 0.2189737 0.2182345 0.2173429 0.2163164 0.215178 0.2139264 0.2125558 0.2110799
 0.2095222 0.2079008 0.206231 0.2045258 0.2027861 0.2009963 0.1991229 0.1971242 0.1949895 0.1927755
 0.19058 0.1884762 0.1864831 0.1845863 0.1827678 0.1810211 0.1793472 0.1777372 0.1761752 0.1746702
 0.1732642 0.1719859 0.1708154 0.1697109 0.1686526 0.1676535 0.1667432 0.1659505 0.1652855 0.164734
 0.1642701 0.1638739 0.1635432 0.1632949 0.1631439 0.1630688 0.1630068 0.1628901 0.1626849 0.1624054
 0.1621008 0.1618199 0.1615768 0.1613571 0.1611475 0.1609309 0.1606541 0.160224 0.1595415 0.1585348
 0.1571816 0.1555194 0.153634 0.1516388 0.1496633 0.147834 0.1462406 0.1449251 0.1438927 0.1431065
 0.1424876 0.141964 0.1415193 0.1411818 0.1409841 0.1409326 0.1409763 0.1410137 0.1409816 0.1409357
 0.1410045 0.1412711 0.1417233 0.1422849 0.1428633 0.1433836 0.143797 0.1440682 0.1441783 0.1441459
 0.1440137 0.1438085 0.1435357 0.1432 0.1428046 0.1423511 0.1418529 0.141323 0.1407471 0.140094
 0.1393411 0.1384788 0.1375166 0.1364784 0.1353527 0.1340896 0.1327189 0.1314428 0.1305421 0.1301923
 0.1303677 0.1308768 0.1314995 0.1321251 0.1327066 0.1330821 0.1330427 0.1327214 0.1327553 0.133812
 0.1359299 0.1384434 0.1405587 0.1418998 0.1425046 0.1425067 0.1419863 0.1410068 0.1395936 0.1377089
 0.135364 0.1326851 0.1298111 0.126853 0.1239745 0.1213613 0.1191157 0.1172682 0.115819 0.1147986
 0.114325 0.1140548 0.1122234 0.1065529 0.09775233 0.09110959 0.09204747 0.1000104 0.108839 0.1132938
 0.1132459 0.1115086 0.1100222 0.1090853 0.1086011 0.1086976 0.1094836 0.1108024 0.112249 0.1134104
 0.1141288 0.1144581 0.1143675 0.1135271 0.1112694 0.1068133 0.09990305 0.09138253 0.08290268 0.07594056
 0.07113301 0.06832759 0.06693011 0.06624156 0.06578631 0.06551079 0.0656826 0.06658559 0.06829566 0.07070057
 0.07362236 0.07680174 0.07982844 0.0823147 0.08419138 0.08567087 0.08689374 0.08776896 0.08816238 0.08807977
 0.08764195 0.08698978 0.08623192 0.08541612 0.08451636 0.0834708 0.08229014 0.08115582 0.08033679 0.07994729
 0.07985321 0.07985508 0.07986259 0.07986318 0.07984895 0.07982275 0.07980168 0.07981797 0.07995357 0.08029699
 0.0808119 0.0813266 0.08169251 0.08189878 0.0820248 0.08210298 0.082021 0.08162564 0.08099419 0.08045648
 0.08017524 0.07985939 0.07913715 0.07811188 0.07730573 0.07709621 0.07738721 0.07779597 0.07800358 0.07792622
 0.07770528 0.07762079 0.07790929 0.07851082</values></Ydata></ScSm><ScRf><Ydata ylabel="Single channel"><values byteorder="INTEL" format="FLOAT32" numvalues="1820"> 0.06047829 0.06063334 0.06073078 0.060769 0.06077127 0.06078191 0.0608464 0.06098292 0.06116902 0.06135279
 0.06148675 0.06155981 0.06158809 0.06157769 0.06152802 0.06147696 0.06149941 0.06163317 0.06182655 0.06197702
 0.06201858 0.06198014 0.0619649 0.06204765 0.0621705 0.06216265 0.06189978 0.06144639 0.06101219 0.06075956
 0.06070499 0.06084409 0.06125261 0.06188695 0.06236211 0.06222717 0.06152934 0.06084247 0.06062902 0.06079751
 0.06096772 0.06091043 0.06061929 0.06023136 0.06007005 0.06055326 0.06178138 0.06320303 0.06381254 0.06277844
 0.06003483 0.05648348 0.05367129 0.05296002 0.05456082 0.05725086 0.05929199 0.05981974 0.05926105 0.05845919
 0.05777006 0.0571618 0.05678876 0.05702639 0.0579469 0.05896389 0.05912559 0.05792114 0.0558925 0.05426332
 0.05382437 0.05442746 0.05563344 0.0571951 0.05839016 0.05763553 0.05404348 0.04940035 0.04737249 0.05001714
 0.05558555 0.06024196 0.06148094 0.05951581 0.05614877 0.05327827 0.05219929 0.05325135 0.05574445 0.05853983
 0.06075017 0.06177543 0.06114116 0.05890952 0.05608696 0.05413416 0.05406736 0.05606321 0.05941863 0.0626046
 0.06396233 0.06293463 0.06043765 0.0578877 0.05626635 0.05612624 0.05772804 0.06076055 0.06433171 0.067495
 0.0696343 0.07050738 0.07029168 0.06948163 0.06851438 0.06768966 0.0674317 0.06803048 0.06894819 0.06902467
 0.06774591 0.06593747 0.06491436 0.06512125 0.06578107 0.06583881 0.06502526 0.06366725 0.06163717 0.05836159
 0.05412704 0.05040172 0.04836572 0.04802574 0.04910398 0.05148972 0.05418915 0.05525517 0.05390763 0.0518966
 0.05175231 0.05409284 0.05731008 0.05956177 0.06048261 0.06107012 0.06238685 0.06446089 0.0661348 0.06592961
 0.06351069 0.06052092 0.0594221 0.06107924 0.06393242 0.06592529 0.06667998 0.06726792 0.06834006 0.06911997
 0.06820977 0.06524326 0.061785 0.06036855 0.06228967 0.06630907 0.06954707 0.06960962 0.06620148 0.06121195
 0.05724617 0.05581743 0.0569276 0.06004974 0.06471346 0.06999745 0.07429317 0.07619443 0.07551332 0.07321645
 0.07032286 0.06695552 0.06285778 0.05896079 0.05758645 0.06025056 0.06571658 0.07102608 0.07414305 0.07496839
 0.0741747 0.07193639 0.06813747 0.06362635 0.06062558 0.06100221 0.0640267 0.06679054 0.06725658 0.06611446
 0.06528225 0.06549914 0.06604856 0.06625322 0.06644296 0.06740715 0.06928247 0.07125743 0.07236595 0.07236578
 0.0717824 0.07129239 0.07110752 0.0708214 0.06999075 0.06903213 0.06916361 0.07106149 0.07391867 0.07627284
 0.07747054 0.07789329 0.07797004 0.07743065 0.07569594 0.0729609 0.07063848 0.07030986 0.07219106 0.07499462
 0.07726795 0.07844286 0.07869911 0.07842856 0.07796694 0.07748919 0.07707547 0.07694821 0.07741246 0.07841775
 0.07946047 0.08008826 0.08026713 0.08015572 0.07978989 0.07915401 0.07840981 0.07789105 0.0778622 0.07832082
 0.07904889 0.07980973 0.08042511 0.08072774 0.08062075 0.08021772 0.07977977 0.07947788 0.07932703 0.07933937
 0.07957942 0.08002754 0.08051653 0.08086853 0.08103301 0.08106092 0.08100421 0.08088058 0.08070834 0.08054622
 0.08049127 0.08060977 0.08085372 0.08109446 0.08127674 0.08147738 0.0817506 0.08198702 0.08202344 0.08185571
 0.08165157 0.08156635 0.08161633 0.0817236 0.08180855 0.08180562 0.08164673 0.08131932 0.08095592 0.08078825
 0.08096133 0.08142836 0.08203431 0.08262785 0.08308397 0.08332768 0.08338875 0.08336867 0.08332285 0.083224
 0.08305053 0.08286703 0.08280417 0.08296411 0.083331 0.08377321 0.08414528 0.08437702 0.08447834 0.08451888
 0.08460446 0.08479093 0.08499908 0.0850876 0.08503142 0.08496135 0.0850037 0.08513348 0.08521648 0.08517197
 0.08506665 0.08504313 0.08517 0.08538505 0.08558435 0.08573706 0.08589643 0.08610886 0.08632538 0.08642167
 0.08632807 0.08612388 0.08596049 0.08590479 0.08591542 0.08596082 0.08607695 0.08628115 0.08649635 0.0866165
 0.08662672 0.08661515 0.08666155 0.08674249 0.08676307 0.08666583 0.08648796 0.08632188 0.08624275 0.08626692
 0.08635169 0.08642523 0.08643191 0.08636437 0.08625744 0.08615187 0.08606726 0.08601505 0.0860314 0.08616605
 0.08640864 0.0866392 0.08669811 0.08653116 0.08625127 0.08603774 0.08597443 0.08599027 0.08594826 0.08577653
 0.08551466 0.08525537 0.08506159 0.08493611 0.08484831 0.08477725 0.08473697 0.08476821 0.08489092 0.08504884
 0.08511932 0.08501248 0.08476111 0.08448988 0.08430382 0.08422615 0.08422007 0.08423282 0.08423427 0.08424379
 0.0843007 0.08438889 0.08442922 0.08437333 0.08426914 0.08421154 0.08426358 0.08443007 0.08465329 0.08482164
 0.08484249 0.0847356 0.08461948 0.08459124 0.08465087 0.08474535 0.08484242 0.08493991 0.08503535 0.08512284
 0.08521688 0.08535507 0.0855645 0.08582766 0.08608499 0.08627596 0.08638937 0.08648046 0.0866314 0.08688322
 0.08720319 0.08751699 0.08777066 0.08796591 0.08814308 0.08833317 0.0885337 0.08873677 0.08896318 0.08924146
 0.0895606 0.08987471 0.09015547 0.09041567 0.09068085 0.09096013 0.09125049 0.09155853 0.09191098 0.09233065
 0.09278833 0.09319276 0.09345997 0.09359634 0.09369922 0.09388037 0.09418883 0.09457626 0.09492043 0.0951207
 0.09520242 0.09529959 0.09550692 0.0957825 0.0960321 0.09625442 0.09654386 0.09695487 0.09741569 0.09779516
 0.0980298 0.0981697 0.09831204 0.09850124 0.09869633 0.09883524 0.09891877 0.09900761 0.09914249 0.0993104
 0.09950526 0.09977053 0.1001388 0.1005606 0.1009396 0.1012238 0.1014285 0.1015894 0.1017248 0.1018309
 0.1018898 0.1018976 0.1018945 0.1019396 0.1020415 0.1021453 0.102205 0.102241 0.1023064 0.1024329
 0.1026286 0.1028953 0.1032116 0.1035208 0.1037822 0.1040325 0.1043466 0.1047227 0.1050518 0.105234
 0.10529 0.1053145 0.1053549 0.105398 0.105456 0.1055905 0.1058357 0.1061534 0.1064832 0.1068052
 0.1071348 0.1074771 0.1077996 0.1080435 0.1081636 0.1081683 0.1081243 0.1081219 0.1082298 0.1084652
 0.1087862 0.1091177 0.1093964 0.1095903 0.1096801 0.1096581 0.1095707 0.1095285 0.1096202 0.1098138
 0.1099726 0.109973 0.1097813 0.1094232 0.1089243 0.1083065 0.1076228 0.1069609 0.1064055 0.1060032
 0.105772 0.1057374 0.1059414 0.1063956 0.1070328 0.1077284 0.1083723 0.1088924 0.1092098 0.1092281
 0.1089071 0.1083206 0.1076097 0.1068928 0.1062294 0.1056285 0.1050595 0.1044896 0.1039603 0.103621
 0.1036592 0.1041923 0.1052134 0.1065986 0.1081398 0.1096067 0.1108384 0.1118064 0.1125901 0.1132873
 0.1139522 0.114608 0.115277 0.1159625 0.1166184 0.1171805 0.1176372 0.1180374 0.1184292 0.1188164
 0.1191716 0.1194676 0.1197 0.1198983 0.1200966 0.1202796 0.1203828 0.1203691 0.1202764 0.1201681
 0.1200584 0.1199056 0.1196576 0.1192944 0.118857 0.1184651 0.1182961 0.1185121 0.1191727 0.120201
 0.1214388 0.1227409 0.124012 0.1251682 0.1261133 0.1267887 0.1272279 0.127531 0.1277936 0.1280697
 0.1283761 0.1287028 0.1290249 0.1293221 0.1295947 0.1298621 0.1301504 0.1304719 0.1308073 0.1311147
 0.13137 0.1315987 0.1318587 0.1321862 0.13256 0.1329256 0.1332558 0.1335751 0.1339098 0.1342337
 0.1344934 0.1346807 0.1348478 0.1350576 0.1353419 0.1356962 0.1360787 0.1364202 0.1366708 0.1368439
 0.1369981 0.1371779 0.1373895 0.1376224 0.1378683 0.1381187 0.1383668 0.1386209 0.138903 0.1392186
 0.1395306 0.1397822 0.1399528 0.1400821 0.1402301 0.1404217 0.140636 0.1408413 0.1410339 0.1412463
 0.1415161 0.1418404 0.1421645 0.1424263 0.1426097 0.1427488 0.1428877 0.143048 0.1432305 0.1434292
 0.1436353 0.1438372 0.1440281 0.1442167 0.144421 0.1446474 0.1448824 0.1451064 0.1453123 0.1455073
 0.1457033 0.1459084 0.146127 0.1463659 0.1466329 0.1469215 0.1472004 0.1474332 0.1476101 0.1477518
 0.1478833 0.1480174 0.148161 0.1483223 0.1485065 0.1487116 0.1489306 0.1491536 0.1493707 0.1495761
 0.1497719 0.1499666 0.1501676 0.1503761 0.1505907 0.1508136 0.1510472 0.1512823 0.1514998 0.1516898
 0.1518631 0.1520409 0.1522343 0.152437 0.1526356 0.1528245 0.1530108 0.1532041 0.1534059 0.1536105
 0.1538119 0.1540073 0.1541969 0.1543843 0.1545745 0.1547689 0.1549642 0.1551566 0.1553471 0.1555413
 0.1557442 0.1559516 0.1561515 0.156338 0.1565191 0.1567085 0.1569123 0.157127 0.1573436 0.1575523
 0.1577487 0.1579356 0.1581196 0.1583051 0.1584928 0.158683 0.1588796 0.1590888 0.1593086 0.1595237
 0.1597199 0.1599022 0.1600898 0.1602958 0.1605181 0.1607478 0.1609758 0.1611965 0.161408 0.1616122
 0.1618128 0.1620143 0.1622187 0.1624237 0.1626284 0.1628384 0.1630592 0.1632857 0.1635048 0.1637059
 0.1638866 0.1640543 0.1642224 0.1643993 0.1645827 0.1647663 0.1649467 0.1651234 0.1652976 0.1654729
 0.1656522 0.1658378 0.1660347 0.1662441 0.1664556 0.1666573 0.1668515 0.16705 0.1672585 0.1674727
 0.167685 0.1678905 0.1680907 0.1682923 0.1684983 0.1687076 0.1689205 0.1691357 0.1693436 0.1695406
 0.1697402 0.1699553 0.1701791 0.1703982 0.1706108 0.170821 0.1710273 0.1712268 0.1714209 0.171617
 0.1718253 0.172047 0.1722692 0.1724813 0.1726876 0.1728938 0.1730978 0.1733003 0.1735085 0.1737247
 0.1739455 0.1741708 0.1743996 0.1746273 0.1748519 0.1750719 0.1752808 0.1754793 0.1756811 0.1758924
 0.176104 0.1763117 0.1765178 0.176709 0.1768383 0.1767895 0.1762848 0.1747818 0.1714527 0.1653383
 0.1557273 0.1426065 0.1268259 0.109798 0.09297521 0.07746698 0.06392641 0.0526345 0.04364746 0.03689187
 0.03221693 0.02948283 0.02866691 0.02998116 0.03398737 0.04125788 0.05113569 0.06064917 0.06567292 0.06418072
 0.05817828 0.05187583 0.04819232 0.04734316 0.04808916 0.04936788 0.05084077 0.05269943 0.05527544 0.0586637
 0.0627054 0.06739083 0.07305446 0.07994127 0.08769162 0.09549288 0.1027772 0.109664 0.1166807 0.1241215
 0.1317326 0.1389583 0.1453806 0.1509227 0.1557612 0.1601372 0.1642243 0.1681046 0.1718117 0.1753329
 0.1785402 0.1811604 0.1829025 0.1836749 0.1836959 0.1833773 0.1830816 0.1829751 0.1830685 0.1833317
 0.1837439 0.1842872 0.1849425 0.1856895 0.1864987 0.1873338 0.1881636 0.1889646 0.189721 0.1904305
 0.1910991 0.1917249 0.1922983 0.1928152 0.1932808 0.1937065 0.1941075 0.1944937 0.1948597 0.1951971
 0.1955122 0.1958188 0.1961184 0.1963999 0.1966548 0.1968853 0.1971022 0.1973166 0.197532 0.1977444
 0.1979507 0.198153 0.1983554 0.1985616 0.1987743 0.1989898 0.1992007 0.199405 0.1996079 0.1998112
 0.200012 0.2002108 0.2004104 0.2006084 0.2007993 0.2009811 0.201156 0.2013277 0.2015019 0.2016845
 0.2018807 0.2020925 0.2023129 0.2025258 0.2027212 0.2029101 0.2031109 0.2033272 0.2035482 0.203765
 0.2039733 0.2041714 0.2043653 0.2045663 0.2047737 0.2049706 0.2051452 0.2053083 0.2054837 0.2056844
 0.2059009 0.206113 0.206313 0.2065111 0.2067165 0.2069238 0.2071212 0.207301 0.2074657 0.2076357
 0.2078421 0.2080964 0.2083761 0.2086497 0.2089007 0.2091246 0.2093288 0.2095368 0.2097643 0.2099888
 0.2101695 0.2103055 0.210455 0.2106883 0.211019 0.2113855 0.2117069 0.2119554 0.2121624 0.212376
 0.2126274 0.2129036 0.2131208 0.2131837 0.2131268 0.2131432 0.2134088 0.2139081 0.2144735 0.2149567
 0.2153221 0.2156125 0.2158725 0.2161012 0.2162572 0.2163084 0.2162976 0.2163574 0.2166198 0.2170809
 0.2175902 0.2180046 0.2183024 0.2185311 0.218727 0.2189094 0.2190474 0.2190084 0.2186943 0.2182878
 0.2182072 0.2187001 0.2195655 0.2203737 0.2208937 0.2212101 0.221482 0.2217474 0.2219677 0.22206
 0.2218026 0.2209654 0.2197616 0.2189663 0.2192741 0.2205987 0.2222103 0.2234649 0.2242056 0.2245958
 0.2248387 0.2250455 0.2251542 0.2249331 0.2242413 0.2233778 0.2230094 0.2235531 0.2247037 0.2257598
 0.2263432 0.2265986 0.2268096 0.2270825 0.2272784 0.2269768 0.2257115 0.2236567 0.2219745 0.2219969
 0.2239227 0.2265798 0.2285881 0.229546 0.2299181 0.23002 0.2295545 0.2281505 0.2259158 0.2233821
 0.2213582 0.2208479 0.2223816 0.2251578 0.227495 0.2284963 0.2288029 0.2295039 0.2308297 0.2321531
 0.2328156 0.2326398 0.2318235 0.2305814 0.2290414 0.2275853 0.22705 0.2281314 0.2305367 0.2330939
 0.2348308 0.2357067 0.2361033 0.2356913 0.2332017 0.2279585 0.2217932 0.2185305 0.2206066 0.2265173
 0.2324299 0.2359473 0.2374135 0.2381114 0.2385571 0.2383538 0.2364037 0.2314931 0.2241784 0.2179981
 0.2170829 0.2220614 0.2293501 0.234515 0.2353162 0.2319437 0.226193 0.2209143 0.2188535 0.2209928
 0.2261307 0.2320673 0.2369186 0.239632 0.239977 0.2384343 0.2361433 0.2346286 0.2347031 0.2352525
 0.234072 0.2306572 0.227055 0.2248478 0.2226792 0.2187422 0.2147714 0.2148939 0.2202847 0.2272135
 0.2312441 0.2317268 0.2309732 0.2300126 0.2267849 0.2190875 0.2087603 0.2017303 0.2028306 0.2107886
 0.2193766 0.2235189 0.2233146 0.2221628 0.2222196 0.2222094 0.2192228 0.2125336 0.2054846 0.2026643
 0.2049996 0.2089142 0.2105255 0.2087124 0.2036881 0.1957614 0.1876231 0.1851169 0.1922734 0.2063427
 0.2199765 0.227283 0.2259179 0.2156955 0.1994609 0.1848977 0.1807699 0.1890285 0.2024277 0.2112148
 0.2108409 0.202674 0.1898453 0.1751954 0.1626719 0.1576098 0.1634937 0.178486 0.1955218 0.2057581
 0.2034011 0.1902618 0.1762844 0.1723573 0.1803138 0.1916512 0.197091 0.1950257 0.1900707 0.1871441
 0.1886716 0.1942431 0.2010223 0.2063892 0.210015 0.2107956 0.2039917 0.1869131 0.1664214 0.1544268
 0.155515 0.1645268 0.1760938 0.189495 0.2025553 0.2082776 0.2027383 0.1925534 0.1893 0.1972218
 0.2095769 0.2169067 0.2164124 0.2125002 0.2099269 0.2087033 0.2064829 0.2040844 0.2056647 0.2130164
 0.2224578 0.2289416 0.2312918 0.2317576 0.2321799 0.2325906 0.232504 0.2317574 0.2304251 0.228925
 0.2278951 0.227473 0.2271686 0.2266125 0.2255107 0.2224714 0.2153066 0.2040997 0.1931767 0.1876929
 0.1881649 0.1907851 0.193071 0.1953116 0.1953063 0.186902 0.1681271 0.1478419 0.1392984 0.1473445
 0.1648121 0.1806686 0.1884715 0.1869178 0.1765139 0.1597323 0.143658 0.1378265 0.1464719 0.1644487
 0.1827058 0.1960898 0.2040299 0.2062503 0.201724 0.1916912 0.1809592 0.1751913 0.1774149 0.1866387
 0.1982338 0.2052096 0.2016039 0.1883435 0.1758896 0.1765963 0.1917931 0.2096404 0.2184401 0.2185143
 0.2176196 0.2188905 0.2191982 0.2175052 0.218318 0.2254397 0.2363401 0.2446495 0.2457563 0.2386189
 0.2252002 0.2109925 0.2036101 0.2066408 0.2155042 0.2223957 0.2238381 0.2202246 0.2111993 0.1976238
 0.1865154 0.1868211 0.1990429 0.2140577 0.2234836 0.2273098 0.2301027 0.2331574 0.2329527 0.2265205
 0.216435 0.2092405 0.208974 0.2136127 0.2184686 0.2211389 0.2215178 0.2189642 0.2127071 0.2050403
 0.2013504 0.2054049 0.21542 0.2257196 0.231802 0.2331283 0.2317504 0.2296518 0.2274453 0.2245595
 0.2205392 0.2167299 0.2160233 0.219772 0.2256195 0.2299134 0.2318901 0.2339314 0.2378406 0.2423705
 0.2447455 0.2436865 0.2406135 0.2383882 0.2390067 0.2420228 0.2448929 0.2451557 0.2427753 0.2403941
 0.2408978 0.2446633 0.2495181 0.2532102 0.2552412 0.2563927 0.2573968 0.258297 0.2584203 0.2568923
 0.2538716 0.2512515 0.2513067 0.2544341 0.2587799 0.2621604 0.2638236 0.264301 0.2641946 0.2635559
 0.2622622 0.2605869 0.2591892 0.2585942 0.2588246 0.2595436 0.2603957 0.2611565 0.2617207 0.2620912
 0.2623404 0.2625224 0.2626503 0.2627526 0.2628621 0.2629379 0.262899 0.2627761 0.262738 0.2629039
 0.2631912 0.2634075 0.2634301 0.2632182 0.2627118 0.2618431 0.2606472 0.2592526 0.2577256 0.256032
 0.2542541 0.2528125 0.2523349 0.2531968 0.2551798 0.2576019 0.2597777 0.2613605 0.2623399 0.2628545
 0.2630599 0.2630978 0.2630742 0.2630252 0.2629223 0.2627286 0.2624453 0.2621036 0.2617335 0.2613561
 0.2609959 0.2606755 0.2603907 0.2601037 0.2597663 0.2593519 0.2588679 0.2583464 0.2578143 0.2572608
 0.2566347 0.2558843 0.2550051 0.2540518 0.2531103 0.2522487 0.2514756 0.2507402 0.249981 0.2491661
 0.2482726 0.2472581 0.2461073 0.244911 0.2438387 0.2429977 0.2423431 0.2417383 0.2410731 0.2403043
 0.2394285 0.2384628 0.2374386 0.236381 0.2352911 0.2341586 0.232974 0.2317228 0.2303863 0.2289584
 0.2274501 0.2258766 0.2242559 0.2226099 0.2209366 0.2191734 0.217201 0.2148841 0.2121043 0.2087756
 0.2048658 0.2004292 0.195617 0.1906433 0.1857211 0.1810184 0.1766618 0.1727621 0.1694204 0.1667127
 0.1646797 0.1633345 0.1626805 0.1627213 0.1634527 0.1648423 0.1668179 0.1692711 0.1720634 0.1750338
 0.1780119 0.1808403 0.1834135 0.1857245 0.1878601 0.189909 0.1918727 0.1936834 0.1952925 0.1967024
 0.197924 0.1989501 0.199781 0.2004499 0.2010099 0.2015015 0.2019367 0.2023104 0.2026226 0.2028841
 0.2031063 0.2032952 0.2034597 0.2036193 0.2038006 0.2040244 0.2042957 0.204614 0.204991 0.2054444
 0.2059684 0.2065305 0.2071053 0.207694 0.2083112 0.2089717 0.2096991 0.2105288 0.2114927 0.2126031
 0.2138491 0.2151975 0.2165889 0.2179371 0.2191444 0.2201344 0.2208744 0.2213705 0.2216511 0.2217545
 0.2217149 0.2215498 0.2212671 0.2208836 0.2204239 0.2199026 0.2193275 0.2187134 0.2180766 0.2174169
 0.2167258 0.2160118 0.2153027 0.2146184 0.2139537 0.2132954 0.2126455 0.2120181 0.2114195 0.2108423
 0.2102781 0.2097229 0.2091735 0.2086255 0.208073 0.2074979 0.2068635 0.2061318 0.2052899 0.2043519
 0.2033343 0.2022389 0.2010606 0.1998031 0.1984738 0.1970697 0.1955782 0.1939936 0.1923245 0.1905804
 0.1887561 0.1868413 0.1848499 0.1828378 0.1808817 0.179038 0.1773232 0.1757258 0.1742266 0.1728125
 0.1714787 0.170219 0.1690196 0.1678704 0.166777 0.1657451 0.1647613 0.1638067 0.1628886 0.1620451
 0.1613153 0.160702 0.160168 0.1596746 0.1592212 0.1588387 0.1585595 0.158404 0.1583745 0.158435
 0.1585141 0.1585501 0.1585245 0.1584493 0.1583429 0.1582211 0.1580964 0.1579826 0.1578951 0.1578255
 0.1577081 0.1574306 0.1568831 0.156002 0.1547845 0.1532762 0.1515463 0.1496884 0.1478377 0.1461456
 0.1447129 0.1435682 0.1426967 0.1420483 0.1415389 0.1411041 0.1407561 0.1405659 0.1405922 0.140816
 0.141113 0.1413189 0.1413715 0.1413772 0.1415152 0.1419021 0.1425361 0.1433077 0.144064 0.1447076
 0.1452251 0.1456188 0.1458698 0.1459828 0.1459959 0.1459363 0.145813 0.1456389 0.1454213 0.1451553
 0.1448369 0.1444549 0.1439828 0.1434101 0.1427507 0.1420091 0.1411828 0.1402784 0.1392698 0.1381007
 0.13682 0.1356627 0.1349244 0.1347827 0.1352277 0.1360829 0.1371152 0.1381839 0.1392204 0.1400454
 0.1404115 0.1403861 0.140547 0.1415709 0.1435891 0.146039 0.1481663 0.1495815 0.1502978 0.1504167
 0.1499833 0.1490481 0.1476411 0.145716 0.1432653 0.1404078 0.137297 0.1340879 0.1310079 0.1282793
 0.1259872 0.1241244 0.1226718 0.1216617 0.1212328 0.1210344 0.1191828 0.1132377 0.1039722 0.09706177
 0.09829473 0.107049 0.1167261 0.1217133 0.1218487 0.1201303 0.1186404 0.1176869 0.1171419 0.1171491
 0.1178632 0.1191525 0.1206123 0.1218226 0.1226153 0.123031 0.1230153 0.1221853 0.1197983 0.1150237
 0.1076098 0.09844923 0.08928081 0.08169265 0.07640593 0.0732878 0.0717093 0.07091068 0.0703657 0.07002797
 0.07022707 0.07128626 0.07324982 0.07594696 0.07917137 0.08266799 0.08603895 0.08888629 0.09108958 0.092806
 0.09418085 0.09517995 0.09570919 0.09576902 0.09545147 0.09486644 0.09411235 0.09326273 0.09231892 0.09120928
 0.08993167 0.08869939 0.08782786 0.08743674 0.08736022 0.08736707 0.08735679 0.08733304 0.08731057 0.08728762
 0.08725563 0.08724052 0.08734065 0.08765319 0.08813868 0.08862187 0.08894141 0.08906675 0.08907823 0.08903432
 0.08884399 0.08835236 0.08761841 0.08695 0.0864985 0.0859753 0.08501428 0.08373066 0.08267829 0.08226824
 0.08240946 0.08271141 0.08286321 0.08278578 0.08259486 0.0825336 0.08281644 0.0833738 0.08381276 0.08378139
</values></Ydata></ScRf><Data_Parameters_AB><parameter name="DPF">1</parameter><parameter name="NPT">3497</parameter><parameter name="FXV">3996</parameter><parameter name="LXV">500</parameter><parameter name="CSF">1</parameter><parameter name="MXY">0.117380350828171</parameter><parameter name="MNY">-0.076706200838089</parameter><parameter name="DAT">27/05/2022</parameter><parameter name="TIM">11:40:57.493 (GMT+2)</parameter><parameter name="DXU">WN</parameter></Data_Parameters_AB><AB__Qtest><MainReport name="Quality Test Report"><Header><Line><Legend>Test result ok/not ok [1/0]: </Legend><Value>0</Value></Line><Line><Legend>Method file: </Legend><Value>C:\Users\Public\Documents\Bruker\OPUS_8.2.28\QT\IRBT_v3_default.QT</Value></Line></Header><Matrix><Line><Legend></Legend><Legend>min</Legend><Legend>max</Legend><Legend>measured</Legend></Line><Line><Value>Absorption (X-Range 1):</Value><Value>0.400000</Value><Value>2.000000</Value><Value>0.129429</Value></Line><Line><Value>Noise (X-Range 4):</Value><Value></Value><Value>0.000300</Value><Value>0.000042</Value></Line><Line><Value>Signal/Noise (X-Range 2):</Value><Value>200.000000</Value><Value></Value><Value>61.236698</Value></Line><Line><Value>Signal/Noise (X-Range 3):</Value><Value>40.000000</Value><Value></Value><Value>46.656956</Value></Line><Line><Value>Water vapour (X-Range 5):</Value><Value></Value><Value>0.000300</Value><Value>0.000072</Value></Line><Line><Value>Signal/Water (X-Range 2):</Value><Value>100.000000</Value><Value></Value><Value>35.463446</Value></Line><Line><Value>Signal/Water (X-Range 3):</Value><Value>20.000000</Value><Value></Value><Value>27.020014</Value></Line><Line><Value>Fringes (X-Range 6):</Value><Value></Value><Value>0.000100</Value><Value>0.000050</Value></Line></Matrix></MainReport></AB__Qtest><Data_Parameters_ScSm><parameter name="DPF">1</parameter><parameter name="NPT">1814</parameter><parameter name="FXV">3996.33169228125</parameter><parameter name="LXV">499.541461535156</parameter><parameter name="CSF">1</parameter><parameter name="MXY">0.278544455766678</parameter><parameter name="MNY">0.0341891571879387</parameter><parameter name="DAT">27/05/2022</parameter><parameter name="TIM">11:40:57.493 (GMT+2)</parameter><parameter name="DXU">WN</parameter></Data_Parameters_ScSm><Data_Parameters_ScRf><parameter name="DPF">1</parameter><parameter name="NPT">1820</parameter><parameter name="FXV">4004.04661832813</parameter><parameter name="LXV">495.683998511719</parameter><parameter name="CSF">1</parameter><parameter name="MXY">0.264301031827927</parameter><parameter name="MNY">0.0286669060587883</parameter><parameter name="DAT">27/05/2022</parameter><parameter name="TIM">11:40:31.644 (GMT+2)</parameter><parameter name="DXU">WN</parameter></Data_Parameters_ScRf><Optic_Parameters_Rf><parameter name="APR">0</parameter><parameter name="APT">Open</parameter><parameter name="BMS">KBr</parameter><parameter name="DTC">RT-DLaTGS_IR-Biotyper [Microplate reader]</parameter><parameter name="HPF">0</parameter><parameter name="LPF">10.0</parameter><parameter name="LPV">4000</parameter><parameter name="PGR">0</parameter><parameter name="RCH">Module port</parameter><parameter name="RDX">0</parameter><parameter name="SRC">MIR</parameter><parameter name="VEL">10.0</parameter><parameter name="SON">Off</parameter></Optic_Parameters_Rf><Acquisition_Parameters_Rf><parameter name="ADT">1</parameter><parameter name="AQM">DD</parameter><parameter name="CFE">0</parameter><parameter name="COR">0</parameter><parameter name="DEL">0</parameter><parameter name="DLY">0</parameter><parameter name="HFW">8000</parameter><parameter name="LFW">0</parameter><parameter name="NSR">32</parameter><parameter name="PLF">AB</parameter><parameter name="RES">6</parameter><parameter name="RGN">-1</parameter><parameter name="STR">0</parameter><parameter name="TCL">MakeCompatibleScalar (0, {WSV=1.000000, ARV=0});</parameter><parameter name="TDL">37</parameter><parameter name="RPO">0</parameter></Acquisition_Parameters_Rf><FT_-_Parameters_Rf><parameter name="APF">B3</parameter><parameter name="HFQ">500</parameter><parameter name="LFQ">4000</parameter><parameter name="NLI">0</parameter><parameter name="PHR">24</parameter><parameter name="PHZ">ML</parameter><parameter name="SPZ">NO</parameter><parameter name="ZFF">1</parameter></FT_-_Parameters_Rf><Optic_Parameters_><parameter name="APR">0</parameter><parameter name="APT">Open</parameter><parameter name="BMS">KBr</parameter><parameter name="CHN">Module port</parameter><parameter name="DTC">RT-DLaTGS_IR-Biotyper [Microplate reader]</parameter><parameter name="HPF">0</parameter><parameter name="LPF">10.0</parameter><parameter name="LPV">4000</parameter><parameter name="PGN">0</parameter><parameter name="RDX">0</parameter><parameter name="SRC">MIR</parameter><parameter name="VEL">10.0</parameter><parameter name="SON">Off</parameter></Optic_Parameters_><FT_-_Parameters_><parameter name="APF">B3</parameter><parameter name="HFQ">500</parameter><parameter name="LFQ">4000</parameter><parameter name="NLI">0</parameter><parameter name="PHR">24</parameter><parameter name="PHZ">ML</parameter><parameter name="SPZ">NO</parameter><parameter name="ZFF">1</parameter></FT_-_Parameters_><Acquisition_Parameters_><parameter name="ADT">1</parameter><parameter name="AQM">DD</parameter><parameter name="CFE">0</parameter><parameter name="COR">0</parameter><parameter name="DEL">0</parameter><parameter name="DLY">0</parameter><parameter name="HFW">8000</parameter><parameter name="LFW">0</parameter><parameter name="NSS">32</parameter><parameter name="PLF">AB</parameter><parameter name="RES">6</parameter><parameter name="SOT">0</parameter><parameter name="TCL">MakeCompatibleScalar (0, {WSV=1.000000, ARV=0});</parameter><parameter name="TDL">37</parameter><parameter name="SPO">0</parameter><parameter name="SGN">-1</parameter></Acquisition_Parameters_><Instrument_Parameters_Rf><parameter name="HFL">15800.168544</parameter><parameter name="LFL">0</parameter><parameter name="LWN">15800.168544</parameter><parameter name="ABP">32197</parameter><parameter name="SSP">1</parameter><parameter name="ARG">2</parameter><parameter name="ASG">2</parameter><parameter name="ASS">32</parameter><parameter name="GFW">16</parameter><parameter name="GBW">16</parameter><parameter name="BFW">0</parameter><parameter name="BBW">0</parameter><parameter name="PKA">7266</parameter><parameter name="PKL">4996</parameter><parameter name="PRA">7446</parameter><parameter name="PRL">5001</parameter><parameter name="P2A">1</parameter><parameter name="P2L">1</parameter><parameter name="P2R">1</parameter><parameter name="P2K">1</parameter><parameter name="DAQ">0</parameter><parameter name="AG2">1</parameter><parameter name="SSM">1</parameter><parameter name="RSN">24876</parameter><parameter name="CRR">0</parameter><parameter name="SRT">1653651631.644</parameter><parameter name="DUR">19.635986328125</parameter><parameter name="TSC">27.8</parameter><parameter name="MVD">0.229124814271927</parameter><parameter name="AN1">0.225817352112613</parameter><parameter name="AN2">0</parameter><parameter name="VSN">2.485 Apr  4 2017</parameter><parameter name="SRN">0085</parameter><parameter name="CAM">0</parameter><parameter name="INS">IR-Biotyper</parameter><parameter name="FOC">69</parameter><parameter name="RDY">1</parameter><parameter name="ARS">32</parameter></Instrument_Parameters_Rf><Sample_Parameters_><parameter name="BLD"></parameter><parameter name="CNM">Admin</parameter><parameter name="CPY"></parameter><parameter name="DPM"></parameter><parameter name="EXP">IRBT_v3_32Scans.XPM</parameter><parameter name="LCT"></parameter><parameter name="SFM">Microplate, HTS-XT</parameter><parameter name="SNM">220527-1039(v.2)_ATH27F (D_3)_F5_18daba05-79e0-47d3-b9aa-910fa04b16dc.0</parameter><parameter name="XPP">C:\Users\Public\Documents\Bruker\OPUS_8.2.28\XPM</parameter><parameter name="IST">OK</parameter><parameter name="CPG">1252</parameter><parameter name="UID">2253a498-42e3-4285-a0b2-6068fd121354</parameter></Sample_Parameters_><Instrument_Parameters_><parameter name="HFL">15800.168544</parameter><parameter name="LFL">0</parameter><parameter name="LWN">15800.168544</parameter><parameter name="ABP">32197</parameter><parameter name="SSP">1</parameter><parameter name="ASG">2</parameter><parameter name="ARG">2</parameter><parameter name="ASS">32</parameter><parameter name="GFW">16</parameter><parameter name="GBW">16</parameter><parameter name="BFW">0</parameter><parameter name="BBW">0</parameter><parameter name="PKA">7645</parameter><parameter name="PKL">4988</parameter><parameter name="PRA">7955</parameter><parameter name="PRL">4993</parameter><parameter name="P2A">1</parameter><parameter name="P2L">1</parameter><parameter name="P2R">1</parameter><parameter name="P2K">1</parameter><parameter name="DAQ">0</parameter><parameter name="AG2">1</parameter><parameter name="SSM">1</parameter><parameter name="RSN">13064</parameter><parameter name="CRR">0</parameter><parameter name="SRT">1653651657.494</parameter><parameter name="DUR">19.6349945068359</parameter><parameter name="TSC">27.8</parameter><parameter name="MVD">0.202506005764008</parameter><parameter name="AN1">0.225831755439901</parameter><parameter name="AN2">0</parameter><parameter name="VSN">2.485 Apr  4 2017</parameter><parameter name="SRN">0085</parameter><parameter name="CAM">0</parameter><parameter name="INS">IR-Biotyper</parameter><parameter name="FOC">69</parameter><parameter name="RDY">1</parameter></Instrument_Parameters_><History/></OPUSDataFile>
