<?xml version="1.0" encoding="UTF-8" ?>
<OPUSDataFile><AB><Ydata ylabel="Absorbance Units"><values byteorder="INTEL" format="FLOAT32" numvalues="3497"> -0.07498138 -0.07499512 -0.07499707 -0.0749873 -0.07496425 -0.07492786 -0.07488248 -0.07482888 -0.0747775 -0.07472973
 -0.07469961 -0.07468654 -0.07469747 -0.07472728 -0.07476837 -0.07481456 -0.07485133 -0.07487871 -0.0748892 -0.07489062
 -0.07488582 -0.07488375 -0.07489072 -0.07490874 -0.07494153 -0.07498159 -0.07502861 -0.0750719 -0.07510941 -0.0751369
 -0.07515331 -0.07516351 -0.07516775 -0.07517046 -0.07517137 -0.07516738 -0.07515848 -0.07514185 -0.07511991 -0.0750995
 -0.07508316 -0.07508124 -0.07509241 -0.0751202 -0.07515937 -0.07520603 -0.07525416 -0.0752983 -0.07533328 -0.07535496
 -0.07536054 -0.07534687 -0.07531841 -0.07527379 -0.07522751 -0.07518072 -0.0751516 -0.07514226 -0.07516187 -0.07521107
 -0.07528136 -0.07537121 -0.07545754 -0.07553959 -0.07559932 -0.07564068 -0.07566784 -0.07568571 -0.07570959 -0.07573799
 -0.07577623 -0.07581903 -0.07586138 -0.07590229 -0.07593938 -0.07597275 -0.07600406 -0.07602496 -0.07603332 -0.07602037
 -0.07598072 -0.07592507 -0.0758518 -0.07579055 -0.07574374 -0.07573747 -0.07577338 -0.07585805 -0.07598995 -0.07615155
 -0.07633724 -0.07650527 -0.07664961 -0.07672171 -0.07672936 -0.07666136 -0.0765414 -0.07640421 -0.076266 -0.07616268
 -0.07608989 -0.07605895 -0.07605155 -0.07606123 -0.07607188 -0.07607327 -0.07606874 -0.07605509 -0.07604977 -0.07605592
 -0.0760804 -0.07612548 -0.07617637 -0.07623237 -0.07627393 -0.07630128 -0.07631399 -0.07631455 -0.0763187 -0.07632715
 -0.07635181 -0.07638959 -0.07643921 -0.07649701 -0.07655573 -0.07661478 -0.07667162 -0.07672369 -0.07677143 -0.0768021
 -0.0768088 -0.07678284 -0.07671337 -0.07662334 -0.07651091 -0.07642613 -0.07637624 -0.07640234 -0.07651193 -0.07669924
 -0.07696512 -0.07720768 -0.0774205 -0.07747761 -0.07739487 -0.07721038 -0.07694776 -0.07672068 -0.07652798 -0.07642534
 -0.07639752 -0.07644801 -0.07655071 -0.07667959 -0.07680582 -0.07689433 -0.07693907 -0.07692034 -0.07686616 -0.076781
 -0.07669547 -0.07662072 -0.07656188 -0.0765224 -0.07649461 -0.07647768 -0.07647111 -0.07647472 -0.07649631 -0.07653605
 -0.07659882 -0.0766826 -0.07677866 -0.07688133 -0.07696502 -0.07702465 -0.07703138 -0.07699183 -0.07689919 -0.07677512
 -0.07664088 -0.07651839 -0.07643436 -0.07639538 -0.07641532 -0.07648326 -0.07660087 -0.07674599 -0.07691467 -0.07708365
 -0.07724861 -0.07739403 -0.07751813 -0.07760799 -0.07766279 -0.07766892 -0.07762665 -0.07753788 -0.07740563 -0.07725037
 -0.07707532 -0.07690306 -0.07673622 -0.07659218 -0.07647335 -0.07639293 -0.07634835 -0.07634463 -0.07636953 -0.07641616
 -0.07646987 -0.07651906 -0.07656036 -0.07658856 -0.07660954 -0.07662456 -0.07663496 -0.07664141 -0.07664176 -0.07663523
 -0.07662778 -0.07661959 -0.07662418 -0.07664201 -0.07668268 -0.07674442 -0.07682106 -0.07690848 -0.07698645 -0.07705433
 -0.07709835 -0.07712439 -0.07713641 -0.07713979 -0.07714391 -0.0771482 -0.0771541 -0.07716401 -0.07717608 -0.07720558
 -0.07725768 -0.07734533 -0.07747795 -0.07763606 -0.07782175 -0.0779884 -0.07813098 -0.07822094 -0.07825611 -0.07822412
 -0.07812457 -0.07794501 -0.07769145 -0.07739513 -0.07707038 -0.07679147 -0.07656582 -0.07645605 -0.07644778 -0.07655637
 -0.07673258 -0.07692345 -0.07708728 -0.07715594 -0.07715752 -0.07708301 -0.07698666 -0.07689225 -0.07681896 -0.07678187
 -0.0767588 -0.07675009 -0.07672136 -0.07666715 -0.07658408 -0.0764709 -0.07636253 -0.07626113 -0.07620789 -0.07620215
 -0.07626271 -0.07638052 -0.07653444 -0.07670584 -0.07683211 -0.07690906 -0.07689083 -0.07680712 -0.07667646 -0.07652508
 -0.07638704 -0.07626033 -0.07615557 -0.07605735 -0.07596033 -0.07585916 -0.07574881 -0.07564092 -0.07553655 -0.07544713
 -0.07537509 -0.07531561 -0.07526889 -0.07521302 -0.07514702 -0.07505046 -0.07492597 -0.07478197 -0.07462362 -0.07447753
 -0.07434455 -0.07423995 -0.0741634 -0.07412144 -0.07411268 -0.07414166 -0.07419568 -0.07427057 -0.07433908 -0.07438383
 -0.07438708 -0.07433403 -0.07423189 -0.07408008 -0.07388503 -0.07364818 -0.07337066 -0.07305165 -0.07270422 -0.07232895
 -0.07194505 -0.07155368 -0.07117439 -0.07080987 -0.07048924 -0.07021446 -0.07001333 -0.06987736 -0.06980179 -0.06976887
 -0.06974218 -0.06971419 -0.06965879 -0.06957991 -0.06947599 -0.06933955 -0.0691686 -0.06894699 -0.0686622 -0.06832721
 -0.06793888 -0.0675321 -0.06711248 -0.06670623 -0.06631745 -0.06595702 -0.06562621 -0.06532212 -0.06504454 -0.06478836
 -0.06455409 -0.0643458 -0.06416042 -0.06399307 -0.06382809 -0.06361995 -0.06335757 -0.0629859 -0.0625378 -0.06202791
 -0.06150236 -0.06101405 -0.06057055 -0.06019749 -0.05986977 -0.05958648 -0.05931069 -0.05903059 -0.05872785 -0.05839432
 -0.05804173 -0.05767042 -0.05729267 -0.05690981 -0.05651291 -0.05610139 -0.05566246 -0.05519767 -0.05471292 -0.05421088
 -0.05370612 -0.05319984 -0.0527011 -0.05221399 -0.05174986 -0.05131306 -0.05091743 -0.05055451 -0.05022443 -0.04990969
 -0.04959774 -0.04928344 -0.04896124 -0.04863223 -0.04829951 -0.04794461 -0.04756552 -0.04714008 -0.04666194 -0.04615479
 -0.04561883 -0.0451095 -0.04462832 -0.04419648 -0.04380972 -0.04344421 -0.04309563 -0.0427312 -0.04235352 -0.04195086
 -0.04153288 -0.04111237 -0.04069714 -0.04030564 -0.03993321 -0.03958691 -0.03924492 -0.03889814 -0.03852146 -0.03809705
 -0.03763083 -0.03711506 -0.036589 -0.03605869 -0.03555492 -0.0350843 -0.03464218 -0.03422939 -0.03381765 -0.03340585
 -0.03297579 -0.03252896 -0.03207025 -0.03160047 -0.0311266 -0.03064621 -0.03015422 -0.02965249 -0.02913939 -0.02862483
 -0.02812177 -0.02763639 -0.02718176 -0.02675128 -0.02634594 -0.0259542 -0.02557101 -0.02518969 -0.02480627 -0.02442242
 -0.02403688 -0.02365838 -0.02328805 -0.02293081 -0.0225876 -0.02224631 -0.02190611 -0.02154792 -0.02117293 -0.02078147
 -0.0203779 -0.01998338 -0.0195979 -0.01923504 -0.01888617 -0.01854111 -0.01819191 -0.0178205 -0.01743188 -0.01702116
 -0.01660455 -0.01619172 -0.01579168 -0.01541482 -0.01504786 -0.01469109 -0.01432185 -0.01393389 -0.01352396 -0.01308889
 -0.01264952 -0.01220698 -0.0117821 -0.01137545 -0.01099041 -0.01062594 -0.01027463 -0.009935921 -0.00960394 -0.009277733
 -0.008952273 -0.008625159 -0.008288392 -0.007942858 -0.007583523 -0.007220622 -0.006861122 -0.006515894 -0.006198374 -0.005899057
 -0.005621606 -0.0053374 -0.005036636 -0.004708583 -0.004344567 -0.003973552 -0.003597302 -0.003248324 -0.002930393 -0.002633627
 -0.002356682 -0.002058649 -0.001739529 -0.001379164 -0.0009853442 -0.0005825156 -0.0001796304 0.0001818514 0.0005040489 0.0007675918
 0.0009881977 0.001178213 0.001354363 0.001539469 0.001735706 0.001953741 0.002182571 0.002419558 0.00265666 0.002889516
 0.003120371 0.003348405 0.003580014 0.003815985 0.004060317 0.004313532 0.004574289 0.004842429 0.00511258 0.005385067
 0.005659934 0.005939018 0.006232065 0.006538408 0.006863638 0.007200283 0.007536817 0.007864938 0.008166313 0.008441847
 0.008683886 0.008901608 0.009098871 0.009282809 0.009458657 0.00962603 0.009785942 0.009936495 0.01007652 0.01021056
 0.01033834 0.01047054 0.01060794 0.01075897 0.01092391 0.01110415 0.01129933 0.01150698 0.01172643 0.01195423
 0.01218814 0.01242045 0.01264756 0.01285761 0.01305064 0.01321885 0.01337187 0.01351339 0.0136606 0.01382672
 0.01402093 0.01425618 0.01451368 0.01479508 0.01506018 0.01530002 0.01549193 0.01562835 0.01573032 0.01579815
 0.01586749 0.01593948 0.01601837 0.01610162 0.01616542 0.01621037 0.01622491 0.01621633 0.01620034 0.01618435
 0.01619218 0.01622488 0.01629616 0.01639844 0.01653148 0.01668114 0.01683742 0.01699188 0.0171346 0.01727621
 0.01741639 0.01757296 0.0177528 0.01794814 0.01816239 0.01835342 0.01851838 0.01861897 0.01865414 0.01863232
 0.01855811 0.01848026 0.01840061 0.01835634 0.01834013 0.01834767 0.01837407 0.01840285 0.01844336 0.01850248
 0.01858779 0.01871707 0.01886973 0.01904217 0.0191991 0.01931829 0.01939597 0.01941878 0.01942658 0.0194245
 0.01945076 0.01951469 0.01960845 0.01973387 0.01984593 0.01994246 0.01998601 0.01997842 0.01992155 0.01982314
 0.01972168 0.01962535 0.01958169 0.01958976 0.01967516 0.01982132 0.0200197 0.02024225 0.02045811 0.02064616
 0.0207779 0.02085898 0.02087941 0.02087063 0.02083881 0.02081663 0.02081298 0.02084307 0.0209105 0.02101926
 0.02116985 0.02136761 0.02161271 0.02190504 0.02224217 0.022602 0.0229776 0.02332256 0.02363059 0.02385437
 0.02399912 0.02404657 0.02402095 0.0239452 0.02385322 0.02379052 0.02377111 0.02382832 0.02393159 0.02408336
 0.02422161 0.0243266 0.02435519 0.02428814 0.02414092 0.02390822 0.02365169 0.02337553 0.02313516 0.02293303
 0.02278249 0.0226816 0.0226147 0.02258034 0.0225634 0.02256414 0.02257686 0.02259937 0.02262685 0.02265047
 0.02265861 0.02263432 0.02255739 0.0224115 0.02217436 0.02185315 0.02143724 0.02096949 0.02045703 0.01995435
 0.01947579 0.01904978 0.01868453 0.01837482 0.01812183 0.0179028 0.01771645 0.01753328 0.01735232 0.01715045
 0.01693164 0.01670329 0.0164729 0.01627277 0.01609849 0.01596245 0.01584166 0.01570669 0.01553979 0.01530358
 0.01501406 0.01466321 0.01429526 0.01392769 0.01360089 0.01333541 0.01313939 0.01302429 0.01295406 0.01292937
 0.01288382 0.01281185 0.01266279 0.01243434 0.01213289 0.01176295 0.01137673 0.01097793 0.01061484 0.0102842
 0.01000181 0.009760282 0.009551883 0.009368954 0.009197242 0.009029856 0.008853996 0.008666747 0.008460952 0.008239927
 0.008002163 0.007756374 0.007504189 0.007256596 0.007016288 0.006791048 0.006583285 0.006389848 0.006211278 0.006033997
 0.005857307 0.005669124 0.005469505 0.005255366 0.005027329 0.004786794 0.004534725 0.004273844 0.004007453 0.003743435
 0.003486336 0.003247824 0.003027063 0.002830347 0.002646828 0.002472183 0.002292116 0.002097154 0.001882908 0.001643548
 0.001388986 0.001119763 0.0008484011 0.0005772854 0.0003106435 4.920497E-05 -0.0002073571 -0.0004590147 -0.0007032732 -0.000940255
 -0.00116977 -0.001393455 -0.001620603 -0.001852324 -0.002098758 -0.002356632 -0.002624401 -0.002896533 -0.003162489 -0.003422027
 -0.003669485 -0.003910427 -0.004148964 -0.004383642 -0.004619218 -0.004836328 -0.005030417 -0.005181269 -0.005278396 -0.00533792
 -0.005355406 -0.005391212 -0.005449768 -0.005587545 -0.005807546 -0.006107346 -0.006481924 -0.006869922 -0.007264887 -0.007596503
 -0.007867812 -0.008046921 -0.008151846 -0.008203289 -0.00822833 -0.008280298 -0.008372587 -0.008548935 -0.008785307 -0.009084994
 -0.0093993 -0.009700919 -0.009968154 -0.01017944 -0.01036368 -0.01052276 -0.01068928 -0.01087327 -0.0110564 -0.01124015
 -0.01137102 -0.01144623 -0.01144413 -0.01136889 -0.01126609 -0.01114488 -0.0110837 -0.01108257 -0.01118871 -0.0113844
 -0.01165565 -0.01197718 -0.01230028 -0.01261465 -0.01288577 -0.01312588 -0.01333306 -0.01352119 -0.01370051 -0.01386665
 -0.01402032 -0.01415579 -0.01426781 -0.01437599 -0.01448112 -0.01461211 -0.0147736 -0.01495837 -0.01516625 -0.01535015
 -0.01550827 -0.01560323 -0.01564002 -0.01562782 -0.01557533 -0.01551912 -0.01546167 -0.01542846 -0.01541405 -0.01542078
 -0.01544324 -0.01547325 -0.01551638 -0.01556962 -0.01565424 -0.01577923 -0.01596563 -0.01622907 -0.01655472 -0.0169507
 -0.01735135 -0.01775024 -0.01807599 -0.01831823 -0.01847039 -0.01853146 -0.01857263 -0.01859851 -0.01869075 -0.0188452
 -0.01908199 -0.01938613 -0.01971484 -0.02005677 -0.02036088 -0.02063049 -0.0208462 -0.02102083 -0.02116135 -0.02127904
 -0.0213849 -0.02148604 -0.0215892 -0.02169747 -0.02181467 -0.02193603 -0.02206196 -0.02218284 -0.02229594 -0.02240409
 -0.02250596 -0.02262433 -0.02276044 -0.02293315 -0.0231412 -0.0233711 -0.02361893 -0.02385151 -0.02407109 -0.02426543
 -0.02444547 -0.02463287 -0.02483256 -0.02506768 -0.02532415 -0.02559792 -0.02586628 -0.02610797 -0.0263146 -0.0264728
 -0.02659256 -0.02667472 -0.02672821 -0.02675718 -0.02675688 -0.02672689 -0.02666346 -0.0265643 -0.02645207 -0.02632772
 -0.02624216 -0.02619763 -0.02623849 -0.02636048 -0.02656289 -0.02683324 -0.02712616 -0.02743074 -0.02769624 -0.0279223
 -0.02808439 -0.02818956 -0.02823616 -0.02823228 -0.02818227 -0.0280972 -0.0279819 -0.02785247 -0.02771532 -0.02758359
 -0.02746301 -0.02735423 -0.02725973 -0.02716675 -0.02707534 -0.0269617 -0.02682458 -0.02663082 -0.02637901 -0.02604121
 -0.02562035 -0.02511802 -0.02454381 -0.02393344 -0.02329622 -0.02267519 -0.0220688 -0.02149682 -0.02094598 -0.02040971
 -0.01987264 -0.01931996 -0.01874272 -0.01813176 -0.01748414 -0.01679595 -0.01607013 -0.01530444 -0.01451411 -0.01369892
 -0.01288838 -0.01208476 -0.01131842 -0.01059133 -0.009921264 -0.009308987 -0.008766659 -0.00829671 -0.007921395 -0.007642711
 -0.007485264 -0.007438302 -0.007495947 -0.007626567 -0.007778531 -0.007914229 -0.007965634 -0.007919843 -0.00773713 -0.007439472
 -0.007026417 -0.006526748 -0.005954707 -0.005314833 -0.004613556 -0.003835778 -0.002979689 -0.002034756 -0.0009989692 0.0001252017
 0.001337869 0.002625967 0.003988137 0.005400753 0.006862815 0.008353308 0.009877453 0.01144188 0.01305704 0.0147575
 0.01653797 0.01842263 0.02035417 0.02230535 0.02413102 0.02573961 0.02690388 0.02748353 0.02728435 0.02616703
 0.02416671 0.02121223 0.01765566 0.0135133 0.009294405 0.005051719 0.001169835 -0.002322148 -0.005316461 -0.007818873
 -0.009928251 -0.01165881 -0.01315167 -0.01441173 -0.01552975 -0.01650842 -0.01739641 -0.0182033 -0.01896685 -0.01969558
 -0.0204175 -0.02112742 -0.02183289 -0.02251842 -0.02317668 -0.02379783 -0.02437507 -0.02490906 -0.02539905 -0.02584533
 -0.02624892 -0.0266022 -0.02690508 -0.02714453 -0.02731976 -0.02741743 -0.02743771 -0.02738092 -0.02725247 -0.02708701
 -0.02689534 -0.0267404 -0.02662531 -0.02659697 -0.02663603 -0.02673612 -0.02686135 -0.02696658 -0.02702168 -0.02698465
 -0.02684406 -0.0265816 -0.02619623 -0.02568632 -0.0250419 -0.02426549 -0.02332111 -0.02220588 -0.02086855 -0.01929786
 -0.01751232 -0.015508 -0.01351269 -0.01155146 -0.01008657 -0.00914626 -0.009181214 -0.01014276 -0.01211872 -0.01495394
 -0.01830906 -0.0220147 -0.02560072 -0.02900469 -0.03193887 -0.03446933 -0.03654474 -0.03828029 -0.03973041 -0.04097695
 -0.04206779 -0.04303683 -0.04390226 -0.04467678 -0.04536467 -0.04597501 -0.04650867 -0.04697707 -0.04738072 -0.04774024
 -0.04805709 -0.04835815 -0.04864423 -0.04893499 -0.0492283 -0.04952691 -0.04982635 -0.05011625 -0.05039346 -0.05064611
 -0.05087666 -0.05108143 -0.05126943 -0.05144635 -0.05162199 -0.05180514 -0.05199664 -0.05220167 -0.05240696 -0.05261138
 -0.05279644 -0.05295746 -0.05309002 -0.05319129 -0.05328137 -0.05336121 -0.05345683 -0.05356845 -0.05369815 -0.05384283
 -0.05397933 -0.0541072 -0.05420946 -0.05429416 -0.05437327 -0.05445644 -0.05456965 -0.05471095 -0.05489228 -0.05509745
 -0.05531807 -0.05553539 -0.05573493 -0.05590822 -0.05604646 -0.05615485 -0.05623125 -0.05629101 -0.05633548 -0.05638395
 -0.05643876 -0.05651363 -0.05660987 -0.05672693 -0.05686417 -0.05700817 -0.05715767 -0.05729687 -0.05742563 -0.0575344
 -0.05762473 -0.05769511 -0.05774876 -0.05779045 -0.05782373 -0.05785531 -0.05788663 -0.05792163 -0.05795937 -0.05800034
 -0.05804357 -0.05808855 -0.05813545 -0.05818392 -0.05823577 -0.05829081 -0.05835383 -0.05842529 -0.05850986 -0.05860814
 -0.05871565 -0.05883176 -0.05894204 -0.05904609 -0.05913289 -0.05920504 -0.05926732 -0.0593235 -0.05938783 -0.0594589
 -0.05954298 -0.05963157 -0.0597166 -0.05978995 -0.05983859 -0.05986744 -0.05987193 -0.05987187 -0.0598735 -0.05989566
 -0.05994711 -0.06002805 -0.06014193 -0.06027235 -0.06041823 -0.06056226 -0.06070308 -0.06083225 -0.06094956 -0.06105268
 -0.06114187 -0.06121736 -0.06128021 -0.06133448 -0.06138221 -0.06143124 -0.06148279 -0.06154373 -0.06161185 -0.06168762
 -0.06176702 -0.06184597 -0.06192351 -0.06199699 -0.06206966 -0.06214259 -0.06221708 -0.06229473 -0.06237076 -0.06244452
 -0.06251225 -0.06257285 -0.06263008 -0.06268396 -0.06274226 -0.06280513 -0.06287424 -0.06294845 -0.06301975 -0.06308652
 -0.06313673 -0.0631713 -0.06318499 -0.06318349 -0.06317399 -0.06316457 -0.06316961 -0.06319235 -0.06324289 -0.06331511
 -0.06340978 -0.06351486 -0.06362575 -0.06373238 -0.0638302 -0.06391706 -0.06399105 -0.06405725 -0.06411582 -0.0641733
 -0.06423024 -0.064289 -0.06434963 -0.06441122 -0.06447378 -0.06453715 -0.06460115 -0.06466518 -0.06472829 -0.06478719
 -0.06484198 -0.06489038 -0.06493535 -0.06497974 -0.06502645 -0.06508022 -0.06513935 -0.06520506 -0.06527216 -0.06533852
 -0.06540101 -0.06545763 -0.06551003 -0.06555782 -0.06560534 -0.065653 -0.06570511 -0.06576206 -0.06582531 -0.06589478
 -0.06596737 -0.06604254 -0.06611437 -0.06618282 -0.0662441 -0.06629957 -0.06635112 -0.06640028 -0.06645144 -0.06650399
 -0.06655962 -0.0666154 -0.06666891 -0.06671859 -0.06676191 -0.0668012 -0.06683639 -0.06687158 -0.06690815 -0.06694799
 -0.0669919 -0.06703938 -0.06709054 -0.06714407 -0.06719987 -0.06725727 -0.06731631 -0.06737832 -0.06744353 -0.06751475
 -0.06759169 -0.06767531 -0.06776372 -0.0678523 -0.06793834 -0.06801403 -0.06807824 -0.06812518 -0.06815778 -0.06817535
 -0.06818542 -0.06819179 -0.06820302 -0.06822444 -0.06825878 -0.06830958 -0.06836932 -0.06843805 -0.06850314 -0.06856277
 -0.06861026 -0.06864464 -0.06866986 -0.06868626 -0.06870327 -0.0687214 -0.06874911 -0.06878629 -0.06883726 -0.06890061
 -0.06897539 -0.06905817 -0.06914214 -0.06922343 -0.06929333 -0.06935101 -0.06939166 -0.06941863 -0.06943224 -0.0694371
 -0.06943504 -0.06943035 -0.06942414 -0.06942193 -0.06942481 -0.06943789 -0.06946234 -0.06949787 -0.06954476 -0.06959675
 -0.0696535 -0.06970895 -0.06976317 -0.06981452 -0.06986302 -0.06990803 -0.06994899 -0.06998377 -0.07001235 -0.07003307
 -0.07004794 -0.07005881 -0.07006834 -0.07008009 -0.07009479 -0.07011423 -0.07013771 -0.07016517 -0.07019661 -0.07023213
 -0.07027133 -0.07031465 -0.0703584 -0.07040228 -0.07044225 -0.0704778 -0.07051019 -0.07053953 -0.07057001 -0.07060147
 -0.07063403 -0.07066717 -0.07069778 -0.07072698 -0.07075641 -0.07078784 -0.07082671 -0.07087152 -0.07092341 -0.07097779
 -0.07103004 -0.07107832 -0.07111891 -0.07115509 -0.07118736 -0.07121897 -0.07125157 -0.07128447 -0.07131778 -0.07135042
 -0.07138196 -0.07141414 -0.07144701 -0.07148264 -0.0715211 -0.07156187 -0.07160484 -0.07164884 -0.07169408 -0.07174138
 -0.07179036 -0.07184097 -0.07189123 -0.07193703 -0.07197671 -0.07200509 -0.07202439 -0.07203371 -0.07203913 -0.07204434
 -0.07205435 -0.07207309 -0.07210061 -0.07213849 -0.07218219 -0.07223136 -0.07228044 -0.07232858 -0.07237256 -0.07241191
 -0.07244749 -0.07247937 -0.07251076 -0.07254178 -0.07257482 -0.07260973 -0.07264714 -0.07268658 -0.07272717 -0.07276808
 -0.07280727 -0.07284376 -0.07287508 -0.07290122 -0.07292076 -0.07293557 -0.07294599 -0.07295544 -0.0729657 -0.07297883
 -0.07299665 -0.07301635 -0.07303812 -0.07305656 -0.07307065 -0.07307919 -0.07308167 -0.07308403 -0.07308659 -0.07309589
 -0.07311177 -0.07313511 -0.07316537 -0.07320043 -0.07323997 -0.07328244 -0.07332652 -0.07336926 -0.07340826 -0.0734381
 -0.07345912 -0.07346836 -0.07347086 -0.0734688 -0.07346754 -0.07347105 -0.07347929 -0.0734939 -0.07350995 -0.07352653
 -0.0735405 -0.07355084 -0.07356008 -0.07356827 -0.07357963 -0.07359431 -0.07361132 -0.07363022 -0.07364574 -0.07365815
 -0.07366583 -0.07366998 -0.073674 -0.07367801 -0.07368425 -0.07369147 -0.07369826 -0.0737052 -0.0737117 -0.07372062
 -0.07373431 -0.0737531 -0.07377896 -0.07380671 -0.07383546 -0.07385927 -0.07387614 -0.07388554 -0.07388659 -0.07388462
 -0.07387993 -0.0738779 -0.07387877 -0.07388446 -0.07389507 -0.07391188 -0.0739355 -0.07396998 -0.07401614 -0.07407895
 -0.07415828 -0.0742563 -0.07437238 -0.07450625 -0.07465815 -0.07482772 -0.07501686 -0.07522629 -0.0754594 -0.07571779
 -0.07600462 -0.07632214 -0.07666798 -0.07704303 -0.07743866 -0.07785361 -0.07828274 -0.07872529 -0.07918379 -0.07965811
 -0.08013269 -0.08060354 -0.0810212 -0.08138131 -0.08163387 -0.08177991 -0.08179781 -0.08168802 -0.08143494 -0.08105494
 -0.08055343 -0.07998139 -0.07939281 -0.07883123 -0.07834852 -0.07795613 -0.07767306 -0.07749855 -0.07743756 -0.07748126
 -0.07763525 -0.07785296 -0.07813463 -0.07839026 -0.07861099 -0.07874796 -0.07879878 -0.07879317 -0.0787337 -0.07865901
 -0.07856884 -0.07848094 -0.07839454 -0.07831798 -0.07824765 -0.07818145 -0.07811163 -0.07802458 -0.07791707 -0.07777787
 -0.07761455 -0.07742729 -0.07722953 -0.07702857 -0.07683164 -0.076644 -0.0764632 -0.07628933 -0.07612088 -0.07595681
 -0.07580348 -0.07566138 -0.07553608 -0.07542782 -0.0753315 -0.07524642 -0.07516218 -0.07507911 -0.0749935 -0.07490662
 -0.07482117 -0.07473733 -0.07465708 -0.07457956 -0.07450405 -0.07443041 -0.07435787 -0.0742876 -0.07421989 -0.07415672
 -0.07409913 -0.07404857 -0.07400618 -0.0739708 -0.07394267 -0.07391889 -0.07389893 -0.07388179 -0.07386725 -0.07385644
 -0.07384941 -0.07384507 -0.07384315 -0.07383968 -0.0738346 -0.07382534 -0.07381251 -0.07379667 -0.07377877 -0.07376101
 -0.07374451 -0.07373209 -0.07372437 -0.07372373 -0.07372832 -0.0737384 -0.07374918 -0.07375828 -0.07376219 -0.07375839
 -0.07374851 -0.07373187 -0.07371394 -0.07369538 -0.0736808 -0.07367089 -0.07366581 -0.0736656 -0.07366623 -0.07366748
 -0.07366553 -0.07366064 -0.07365244 -0.07364135 -0.07362891 -0.07361468 -0.0735985 -0.07357955 -0.07355603 -0.07352857
 -0.0734966 -0.07346272 -0.07342888 -0.07339661 -0.07336773 -0.07334077 -0.07331567 -0.0732907 -0.07326481 -0.07324061
 -0.07321816 -0.07320134 -0.0731909 -0.07318404 -0.07318062 -0.07317149 -0.07315644 -0.07313006 -0.07309363 -0.07305165
 -0.073006 -0.07296583 -0.07293197 -0.07291131 -0.07290275 -0.07290834 -0.07292472 -0.07294974 -0.0729782 -0.0730055
 -0.07302779 -0.07304122 -0.07304637 -0.07304212 -0.07303197 -0.07301652 -0.07299841 -0.07297823 -0.0729569 -0.07293452
 -0.07291209 -0.07288964 -0.07287043 -0.07285467 -0.07284644 -0.07284515 -0.07284991 -0.07285846 -0.072862 -0.07285903
 -0.07284003 -0.07280862 -0.07276504 -0.07271714 -0.07267425 -0.07264111 -0.0726262 -0.07262554 -0.07264064 -0.07266198
 -0.07268654 -0.0727071 -0.07272068 -0.072727 -0.07272514 -0.07271942 -0.0727101 -0.07270198 -0.07269534 -0.07269193
 -0.07269163 -0.07269304 -0.07269582 -0.07269714 -0.07269692 -0.07269323 -0.07268648 -0.07267658 -0.07266413 -0.07264997
 -0.07263466 -0.07261898 -0.07260384 -0.07259028 -0.07257866 -0.07256989 -0.07256226 -0.07255553 -0.07254744 -0.07253686
 -0.07252517 -0.07251204 -0.07250191 -0.07249537 -0.07249345 -0.07249626 -0.07249849 -0.07249981 -0.07249411 -0.07248187
 -0.07246272 -0.0724379 -0.07241189 -0.07238533 -0.07236236 -0.07234235 -0.07232629 -0.07231309 -0.07230183 -0.07229176
 -0.07228196 -0.07227204 -0.07226153 -0.07225027 -0.07223793 -0.07222524 -0.07221212 -0.07220028 -0.07218993 -0.07218286
 -0.07217936 -0.07217962 -0.07218367 -0.07218977 -0.07219769 -0.07220378 -0.0722078 -0.07220595 -0.07219891 -0.07218668
 -0.07217111 -0.07215693 -0.07214516 -0.07214049 -0.0721411 -0.0721472 -0.07215556 -0.0721634 -0.07216927 -0.07217123
 -0.07217026 -0.0721662 -0.07216053 -0.07215369 -0.07214609 -0.07213796 -0.07212871 -0.07211833 -0.07210584 -0.07209114
 -0.07207512 -0.07205803 -0.07204374 -0.0720327 -0.07203005 -0.07203547 -0.07205123 -0.07207527 -0.0721042 -0.0721346
 -0.07215896 -0.07217533 -0.07217725 -0.07216793 -0.07214662 -0.07212059 -0.07209384 -0.07207112 -0.07205637 -0.07204672
 -0.07204282 -0.07203801 -0.07203091 -0.07201926 -0.07200226 -0.07198426 -0.07196547 -0.07194997 -0.07193765 -0.07192668
 -0.07191683 -0.07190496 -0.07189219 -0.07188123 -0.07187315 -0.07187295 -0.07187888 -0.07189075 -0.07190519 -0.07191738
 -0.07192697 -0.07193137 -0.07193321 -0.0719334 -0.07193375 -0.07193569 -0.07193796 -0.07194067 -0.07194177 -0.07194088
 -0.07193709 -0.07193014 -0.07192113 -0.07191008 -0.07189897 -0.07188785 -0.07187781 -0.07186876 -0.07186037 -0.07185282
 -0.07184657 -0.0718419 -0.07184003 -0.07184026 -0.0718422 -0.07184432 -0.07184436 -0.07184181 -0.07183516 -0.07182527
 -0.07181216 -0.07179687 -0.07177972 -0.07176187 -0.07174353 -0.07172617 -0.07171012 -0.07169621 -0.07168475 -0.07167444
 -0.07166526 -0.07165441 -0.07164181 -0.0716261 -0.0716078 -0.07158951 -0.07157213 -0.07156094 -0.0715557 -0.07155916
 -0.07156897 -0.07158247 -0.07159714 -0.07160846 -0.07161614 -0.07161784 -0.07161572 -0.07161012 -0.0716037 -0.07159787
 -0.07159307 -0.0715905 -0.07158575 -0.07157844 -0.07156345 -0.07153971 -0.07150903 -0.07147133 -0.07143503 -0.07140038
 -0.07137205 -0.07134928 -0.07132886 -0.07131029 -0.07128944 -0.07126702 -0.07124263 -0.0712174 -0.07119304 -0.07117063
 -0.07115216 -0.07113829 -0.07113096 -0.07112804 -0.07112986 -0.07113078 -0.07112865 -0.07111949 -0.07110103 -0.07107519
 -0.07104155 -0.07100488 -0.07096567 -0.07092664 -0.07088802 -0.07085057 -0.07081436 -0.07078065 -0.07074947 -0.07072195
 -0.07069729 -0.07067307 -0.07064791 -0.07061629 -0.07057909 -0.07053381 -0.07048596 -0.07044096 -0.07040476 -0.07038634
 -0.07038267 -0.07039733 -0.07041623 -0.07043495 -0.07044093 -0.07042801 -0.0703984 -0.07035023 -0.07029614 -0.07023732
 -0.07018334 -0.07013508 -0.07009342 -0.07005826 -0.07002656 -0.06999844 -0.0699733 -0.0699515 -0.06993441 -0.06992148
 -0.06991225 -0.06990509 -0.06989688 -0.06988601 -0.06986909 -0.06984536 -0.06981242 -0.06977195 -0.06972335 -0.06967161
 -0.06961853 -0.0695682 -0.06952276 -0.06948113 -0.06944378 -0.06940681 -0.06936977 -0.06933024 -0.06928802 -0.06924181
 -0.06919163 -0.0691374 -0.0690797 -0.0690226 -0.06896705 -0.06891976 -0.06888013 -0.0688506 -0.06882872 -0.06881116
 -0.0687957 -0.0687783 -0.06875703 -0.0687289 -0.06869243 -0.06864478 -0.06858931 -0.06852523 -0.06846207 -0.06840253
 -0.06835259 -0.06831511 -0.06828413 -0.06825989 -0.06823023 -0.0681942 -0.06814671 -0.06808803 -0.06802668 -0.06796401
 -0.06791524 -0.06787996 -0.06786624 -0.06786909 -0.06788026 -0.06789201 -0.06788449 -0.06785691 -0.0677966 -0.06771584
 -0.06762046 -0.06752343 -0.06743643 -0.06736014 -0.06729913 -0.0672451 -0.06719638 -0.06714724 -0.06709565 -0.06704291
 -0.0669888 -0.06693633 -0.06688572 -0.06683823 -0.06679398 -0.06675567 -0.0667233 -0.06669913 -0.06668097 -0.06666128
 -0.06663616 -0.06658896 -0.06652167 -0.06642769 -0.06631704 -0.06620021 -0.06608541 -0.06598497 -0.06589962 -0.06583453
 -0.06578413 -0.0657483 -0.06571793 -0.06569085 -0.06565829 -0.06561813 -0.06556567 -0.06549985 -0.0654208 -0.06532834
 -0.06522613 -0.06511454 -0.06500143 -0.06488749 -0.06478225 -0.06468528 -0.06460019 -0.06452537 -0.06445806 -0.0643971
 -0.06433906 -0.06428304 -0.06422706 -0.06416883 -0.06410516 -0.06403569 -0.06395806 -0.06387701 -0.06379403 -0.06371297
 -0.06363647 -0.06356046 -0.06348527 -0.06340252 -0.06331081 -0.06320852 -0.06309514 -0.06297912 -0.06286084 -0.06274854
 -0.06264121 -0.06253459 -0.06242618 -0.0623011 -0.06216061 -0.06199885 -0.06182275 -0.06164388 -0.06146562 -0.06129934
 -0.06114025 -0.06098842 -0.06083737 -0.06068181 -0.06052163 -0.0603542 -0.060186 -0.06001812 -0.05985725 -0.05970578
 -0.05956239 -0.05942877 -0.05928722 -0.05913688 -0.05895519 -0.05874174 -0.05849884 -0.05822853 -0.0579507 -0.05766437
 -0.05737598 -0.05708206 -0.05677524 -0.05645442 -0.05611332 -0.0557538 -0.05537535 -0.05498119 -0.05457339 -0.05415702
 -0.05373629 -0.05331326 -0.05289162 -0.05246449 -0.05202992 -0.05158504 -0.05112629 -0.05067036 -0.05021845 -0.04978831
 -0.0493818 -0.04899931 -0.04864087 -0.04830435 -0.04799024 -0.04770336 -0.04744218 -0.04720433 -0.04698358 -0.04676121
 -0.0465302 -0.04626551 -0.04596919 -0.04563045 -0.04526257 -0.04487511 -0.04447639 -0.04407701 -0.04367291 -0.0432656
 -0.04284743 -0.04241603 -0.04196816 -0.04150394 -0.04101485 -0.04050197 -0.03993654 -0.03931612 -0.03862359 -0.03785977
 -0.03707317 -0.03626709 -0.0354954 -0.03475063 -0.03402515 -0.0333106 -0.03257675 -0.03182325 -0.03103644 -0.03021522
 -0.02935827 -0.02844787 -0.0274738 -0.02639905 -0.02519553 -0.02384039 -0.02230047 -0.02063089 -0.01882793 -0.01700733
 -0.01519385 -0.01345632 -0.01181091 -0.01025679 -0.008796562 -0.00739437 -0.00604743 -0.0046871 -0.003306726 -0.001808112
 -0.0002011875 0.001534079 0.003351144 0.005107295 0.006795289 0.0083153 0.009722323 0.01105622 0.0123539 0.01367422
 0.01501095 0.0163772 0.01776161 0.01915758 0.02057508 0.02202085 0.02347861 0.02495063 0.02639305 0.02779755
 0.02916191 0.03048487 0.0317813 0.03305056 0.03424809 0.0353695 0.03635089 0.0371983 0.03790692 0.03848785
 0.03897483 0.03936914 0.03968867 0.03993313 0.04010339 0.04021688 0.0402875 0.04034002 0.04039582 0.040469
 0.04057621 0.04070372 0.04085551 0.04099457 0.04111496 0.04118303 0.04119277 0.04112864 0.04098748 0.04078997
 0.04053761 0.04027775 0.04000941 0.0397434 0.03947164 0.03915934 0.03880068 0.03835593 0.03783242 0.03721928
 0.03654377 0.03583923 0.03513093 0.03446168 0.03382847 0.0332427 0.03269433 0.03217573 0.03170195 0.03127395
 0.0309154 0.03063479 0.03042686 0.03029364 0.03021281 0.03018233 0.03019349 0.03024612 0.03035037 0.03050722
 0.03073121 0.03102077 0.03137668 0.0317944 0.03225926 0.0327699 0.03331408 0.03389844 0.03452654 0.0352071
 0.03595163 0.03676147 0.03764159 0.03858946 0.03960247 0.04068873 0.04184595 0.04310182 0.04446114 0.04595001
 0.04757717 0.04932012 0.05118118 0.05307597 0.05499949 0.05684071 0.05859065 0.06012129 0.06142069 0.06235062
 0.06292333 0.06309064 0.06290413 0.0624455 0.06176911 0.06098465 0.06014095 0.05932566 0.05857214 0.05794064
 0.05740772 0.05698926 0.05661044 0.05625444 0.05584431 0.05534983 0.05478634 0.05414068 0.05354199 0.05300356
 0.05255212 0.05218823 0.05183877 0.05150412 0.05116255 0.0508226 0.05051964 0.05025638 0.05006969 0.049935
 0.04984348 0.04970364 0.04940207 0.04879022 0.04763007 0.04596025 0.04367779 0.04104535 0.03818316 0.0352109
 0.03219631 0.02917924 0.02616165 0.02327065 0.02052287 0.01802476 0.01579283 0.01378666 0.01200388 0.01033307
 0.008772529 0.007265576 0.005819442 0.004445652 0.003145808 0.001934515 0.0008011357 -0.0002700195 -0.001289929 -0.002282019
 -0.003252637 -0.004213464 -0.005178557 -0.006152962 -0.00717588 -0.008267116 -0.00945781 -0.01078939 -0.01215111 -0.01354211
 -0.01476681 -0.0157795 -0.01660149 -0.01722418 -0.01779541 -0.01832211 -0.01887943 -0.01946322 -0.02004985 -0.02063309
 -0.02116399 -0.02164894 -0.02208673 -0.0224794 -0.02283905 -0.02314421 -0.02336857 -0.02349028 -0.023468 -0.02331533
 -0.02302453 -0.02262747 -0.02213905 -0.02157827 -0.02095624 -0.02027612 -0.01954389 -0.01873976 -0.01786486 -0.01687338
 -0.01575927 -0.01451865 -0.01315215 -0.01179202 -0.01044851 -0.009287702 -0.00830335 -0.007546333 -0.007002725 -0.00665499
 -0.006489552 -0.00647427 -0.006584545 -0.006772586 -0.007009849 -0.007250199 -0.007469486 -0.007635362 -0.007736757 -0.007752334
 -0.007709435 -0.00760982 -0.007491386 -0.007366376 -0.007240724 -0.007118834 -0.006985135 -0.006838727 -0.006665335 -0.006464228
 -0.006235908 -0.005981208 -0.005710801 -0.005424705 -0.005129064 -0.004821831 -0.004499037 -0.004159382 -0.00379679 -0.003413935
 -0.003013707 -0.00259476 -0.002161563 -0.001697261 -0.00119362 -0.0006278714 1.607176E-05 0.0007433087 0.001562947 0.002456794
 0.003422232 0.004444316 0.005518838 0.006651227 0.007842429 0.009087301 0.01038541 0.01167877 0.01296254 0.01415891
 0.01526847 0.01625565 0.01712308 0.01786421 0.01847337 0.01893527 0.0192417 0.01937022 0.01932378 0.01909366
 0.01869529 0.01813634 0.0174331 0.01659629 0.01563447 0.0145515 0.01335713 0.0120483 0.01066521 0.009207556
 0.007754648 0.006313671 0.004944576 0.003650892 0.002425845 0.001266942 0.0001379779 -0.0009592428 -0.002033886 -0.003078453
 -0.004069053 -0.005005501 -0.005871399 -0.006680131 -0.007444296 -0.008179953 -0.008910817 -0.009643892 -0.01039478 -0.01115619
 -0.01193173 -0.01270088 -0.01345881 -0.01418276 -0.01486488 -0.01549938 -0.01608198 -0.01662997 -0.01714416 -0.01764577
 -0.01813602 -0.01861134 -0.01906956 -0.01948011 -0.01984191 -0.02013098 -0.0203524 -0.02051106 -0.0206133 -0.0206767
 -0.02070407 -0.0207072 -0.02068808 -0.02065209 -0.02060395 -0.02054743 -0.02049083 -0.02043828 -0.02039973 -0.02037969
 -0.02038415 -0.02041656 -0.02047329 -0.02055521 -0.02065118 -0.02076032 -0.02087267 -0.02098761 -0.02110559 -0.02122711
 -0.02135994 -0.02150356 -0.02166018 -0.02182595 -0.02198914 -0.02214428 -0.02227203 -0.02237048 -0.02242636 -0.0224444
 -0.02242285 -0.02237272 -0.02230002 -0.02221977 -0.02214081 -0.02207572 -0.0220326 -0.02201132 -0.02201527 -0.02203119
 -0.02205768 -0.02208267 -0.02210421 -0.02212304 -0.02213904 -0.02216232 -0.02219326 -0.02223972 -0.02230066 -0.02237405
 -0.02245795 -0.02254353 -0.02263124 -0.02271659 -0.02280401 -0.02289886 -0.02300479 -0.02312996 -0.02327054 -0.0234281
 -0.02359222 -0.02375852 -0.02391648 -0.02406132 -0.02418639 -0.02428876 -0.02436702 -0.02441963 -0.02445333 -0.02446804
 -0.02447732 -0.02448193 -0.02449284 -0.02450983 -0.02453212 -0.02455798 -0.024576 -0.0245852 -0.02457507 -0.02454776
 -0.02450293 -0.02444375 -0.0243763 -0.02430022 -0.02421848 -0.024127 -0.0240233 -0.02390471 -0.02376835 -0.02361555
 -0.02344523 -0.023263 -0.02306898 -0.02287338 -0.02267736 -0.02249225 -0.02231978 -0.02216138 -0.02201733 -0.02187653
 -0.02173828 -0.02159007 -0.02143231 -0.02126076 -0.02107756 -0.02088722 -0.020694 -0.02050898 -0.02033916 -0.02020093
 -0.02009993 -0.02005138 -0.02005113 -0.02010421 -0.02019442 -0.02031561 -0.02045031 -0.02058934 -0.02072734 -0.02085981
 -0.02099339 -0.02112862 -0.02127079 -0.02142115 -0.02157442 -0.02173046 -0.02187809 -0.02201685 -0.02213818 -0.02224223
 -0.02232546 -0.0223887 -0.02243243 -0.02245885 -0.02247271 -0.02247806 -0.02248291 -0.02249294 -0.02251817 -0.02256164
 -0.02263202 -0.02272069 -0.02282967 -0.0229345 -0.02302736 -0.02308584 -0.02309856 -0.02307446 -0.02300871 -0.02294635
 -0.02289079 -0.02288661 -0.02293716 -0.02304323 -0.02320215 -0.02336843 -0.02353873 -0.0236657 -0.02375473 -0.02379956
 -0.02381139 -0.02381768 -0.02382037 -0.02383931 -0.02386158 -0.02388007 -0.02388133 -0.02384883 -0.02378397 -0.02368042
 -0.02355162 -0.02340125 -0.0232401 -0.02307345 -0.02289819 -0.02271633 -0.02251092 -0.02228063 -0.02200923 -0.0216954
 -0.02134309 -0.02095363 -0.02055081 -0.02013613 -0.01973235 -0.01933759 -0.01895749 -0.01858715 -0.01821693 -0.01784317
 -0.01745338 -0.01705055 -0.01663162 -0.01620557 -0.01577985 -0.0153581 -0.01494704 -0.0145382 -0.01412947 -0.01371504
 -0.01329028 -0.01286669 -0.01244455 -0.01204103 -0.01165873 -0.01130051 -0.01096692 -0.0106471 -0.01034023 -0.01003174
 -0.00972063 -0.009392655 -0.009047633 -0.00867629 -0.008281038 -0.007862873 -0.007425449 -0.006975626 -0.006516105 -0.00605267
 -0.005587518 -0.005124638 -0.004664369 -0.004209047 -0.003754413 -0.003299951 -0.002839515 -0.002371579 -0.00189099 -0.001397003
 -0.0008833164 -0.0003487343 0.0002068393 0.0007838919 0.001362537 0.001941124 0.002487837 0.003002696 0.003469431 0.003892126
 0.00427839 0.004632351 0.004968938 0.005289459 0.005603089 0.005909625 0.006211654 0.006510867 0.006807622 0.007109507
 0.007419883 0.007748608 0.008102495 0.00847868 0.008880012 0.009290192 0.009706384 0.01011907 0.01052592 0.01093306
 0.01134075 0.01175505 0.01217575 0.01259787 0.01302047 0.01343447 0.01383934 0.01422831 0.01460122 0.01495434
 0.01528727 0.01559848 0.0158852 0.01614455 0.01637076 0.01655781 0.01670194 0.01679821 0.01684866 0.01685183
 0.0168148 0.0167374 0.01663444 0.01650687 0.01637726 0.01624827 0.01613527 0.01603975 0.0159595 0.01589415
 0.01583582 0.01578454 0.01573778 0.01569468 0.0156509 0.0156041 0.01554462 0.0154734 0.01538601 0.0152885
 0.01518566 0.01508588 0.01499668 0.01492845 0.01488914 0.01488653 0.01492849 0.01500691 0.01512569 0.01525338
 0.01538845 0.01548321 0.0155331 0.01549256 0.01535776 0.01511287 0.01475907 0.01432724 0.01382185 0.01329268
 0.012739 0.01218441 0.01162447 0.0110561 0.01048276 0.009907696 0.00933961 0.008793706 0.008268126 0.007769217
 0.007284591 0.006808238 0.006331639 0.005848956 0.005359283 0.004860999 0.004355896 0.003843834 0.003328087 0.002809184
 0.00228784 0.001764304 0.001232739 0.0006929613 0.0001413505 -0.0004209863 -0.000986869 -0.001555219 -0.00211667 -0.002672974
 -0.003224066 -0.003772269 -0.004323264 -0.004874886 -0.005428756 -0.00597613 -0.006510857 -0.007022551 -0.007501257 -0.007947214
 -0.008354952 -0.008740306 -0.009105875 -0.009468357 -0.009832594 -0.01020025 -0.01057258 -0.01094352 -0.01131258 -0.01168015
 -0.01204635 -0.01241498 -0.01278569 -0.01315752 -0.01352952 -0.01389728 -0.01425962 -0.0146115 -0.01495109 -0.01527239
 -0.01557482 -0.01585455 -0.0161136 -0.01635225 -0.0165732 -0.0167779 -0.01696934 -0.01714881 -0.01731956 -0.01748327
 -0.01763946 -0.01778853 -0.01792804 -0.01805724 -0.01817971 -0.01829556 -0.01841062 -0.01852475 -0.01863188 -0.01873098
 -0.01880944 -0.01886957 -0.01891357 -0.0189475 -0.01899015 -0.01904458 -0.01912768 -0.01923412 -0.01936679 -0.0195109
 -0.01965654 -0.01978369 -0.01987631 -0.01992375 -0.01991336 -0.0198586 -0.01975742 -0.01963983 -0.01951109 -0.01939407
 -0.0192933 -0.0192115 -0.01914969 -0.01909417 -0.01904417 -0.01898338 -0.01891258 -0.01883002 -0.0187396 -0.01865823
 -0.01858844 -0.01854786 -0.01853275 -0.01854503 -0.0185781 -0.01862384 -0.01867731 -0.01873189 -0.01878224 -0.01882384
 -0.01885084 -0.01885902 -0.01884755 -0.01881478 -0.01876407 -0.01869601 -0.01861192 -0.01851205 -0.01839667 -0.01826561
 -0.0181247 -0.01797432 -0.01782278 -0.01766984 -0.0175176 -0.01736435 -0.01720304 -0.01703294 -0.01684644 -0.01664825
 -0.01644246 -0.01623761 -0.01604885 -0.01587694 -0.01573188 -0.01559969 -0.0154757 -0.01534334 -0.01519173 -0.01502051
 -0.01482482 -0.0146198 -0.01440702 -0.01420247 -0.01400885 -0.01383175 -0.01367218 -0.01352293 -0.01338348 -0.01324066
 -0.01309493 -0.01294365 -0.01279015 -0.01264909 -0.01252239 -0.01242567 -0.01235345 -0.01230381 -0.01226701 -0.0122282
 -0.01218215 -0.01211756 -0.01203566 -0.01193366 -0.01181489 -0.01168002 -0.01153245 -0.01137266 -0.01120646 -0.01103498
 -0.01086308 -0.01069199 -0.01051986 -0.01034671 -0.01016855 -0.009985393 -0.009801707 -0.00961855 -0.009448093 -0.009289954
 -0.009149927 -0.009024348 -0.00890535 -0.008789686 -0.008665252 -0.008535321 -0.008397398 -0.008261053 -0.008135646 -0.008025146
 -0.007939579 -0.00786374 -0.007796576 -0.007711607 -0.007598415 -0.007449046 -0.007256375 -0.007042444 -0.006808331 -0.006580697
 -0.00636224 -0.006158506 -0.005969514 -0.005786145 -0.005608152 -0.005429479 -0.005251102 -0.005074294 -0.004900571 -0.004735602
 -0.004579268 -0.004435685 -0.00429981 -0.00416696 -0.004030804 -0.003881918 -0.003721253 -0.003545612 -0.003360649 -0.003168537
 -0.002972022 -0.00277133 -0.002573041 -0.002377115 -0.002197766 -0.00203755 -0.001900306 -0.001787362 -0.001681954 -0.001583205
 -0.001472859 -0.00135128 -0.001214869 -0.001064927 -0.0009058155 -0.0007382989 -0.000566842 -0.0003917871 -0.0002165462 -3.958878E-05
 0.0001401603 0.0003231544 0.0005119242 0.0007011166 0.0008874469 0.001068232 0.001239063 0.001408537 0.00157932 0.001754325
 0.001937454 0.00211138 0.002274305 0.002411927 0.002521925 0.002617065 0.002698125 0.002787249 0.002883867 0.002990991
 0.003106126 0.003217675 0.003325603 0.003423068 0.003512971 0.003598551 0.003681186 0.003765352 0.003848345 0.003928199
 0.004005284 0.004075469 0.004152888 0.004241778 0.004358514 0.004513275 0.00469658 0.004911645 0.005126578 0.005336888
 0.005524668 0.005687185 0.005832158 0.005960005 0.006083266 0.00620263 0.006328458 0.006462571 0.006620239 0.006801885
 0.007018589 0.007265732 0.007539805 0.007834124 0.00813764 0.008445151 0.008746755 0.009041719 0.009324852 0.009602962
 0.00987957 0.01015402 0.01043137 0.01068794 0.01091973 0.01110645 0.01124106 0.01134516 0.01141897 0.01150098
 0.0115927 0.01169953 0.01181949 0.0119325 0.01203903 0.01213027 0.01221064 0.01228932 0.01237061 0.01246921
 0.01258456 0.01272629 0.01288047 0.01303998 0.01318189 0.01328419 0.01334482 0.01335031 0.01333121 0.01329383
 0.01326637 0.01325922 0.01327019 0.01330158 0.01333698 0.01337498 0.01340751 0.01343428 0.01345998 0.01348556
 0.01352391 0.01357405 0.0136391 0.01371391 0.01378053 0.01384145 0.01388881 0.01393838 0.01401378 0.01411761
 0.01426698 0.0144427 0.01463237 0.01483435 0.01503869 0.01527165 0.01554799 0.01584893 0.01618149 0.01647319
 0.01670964 0.01688443 0.01699365 0.01707746 0.01713764 0.01719376 0.01724582 0.01729921 0.01735471 0.01742068
 0.01749601 0.01758232 0.01767614 0.01777065 0.01786321 0.01794994 0.01802061 0.01806572 0.01806936 0.0180121
 0.01790141 0.01772879 0.01753173 0.01731951 0.01712667 0.01696381 0.01684483 0.01677454 0.01674856 0.01676834
 0.01680503 0.01685705 0.01688608 0.01689261 0.01686924 0.01682056 0.01676977 0.01671629 0.01667158 0.0166296
 0.0165808 0.01652464 0.01645686 0.01637623 0.01628181 0.01616669 0.01601899 0.01585682 0.01567977 0.01552817
 0.01541844 0.01536486 0.01537615 0.01544242 0.01556432 0.01572704 0.01593148 0.01613009 0.0163203 0.01644585
 0.01651031 0.0165368 0.01653595 0.01658536 0.01667805 0.01683423 0.01703483 0.01724073 0.01745355 0.01765504
 0.01786185 0.01808922 0.01833765 0.01861716 0.01890904 0.0192083 0.01949307 0.01975458 0.01997957 0.02016099
 0.02030641 0.02041425 0.02050722 0.02058759 0.02066587 0.02074265 0.02081376 0.02087925 0.02094007 0.02099545
 0.02104231 0.0210782 0.02108925 0.02108223 0.02106386 0.02104566 0.02105561 0.02108138 0.02112491 0.02115861
 0.02115604 0.02112001 0.02103958 0.02094299 0.02083827 0.02074379 0.02066352 0.02061813 0.02061044 0.0206632
 0.02078152 0.02093726 0.02112901 0.02128815 0.02141426 0.0214827 0.02149973 0.02149207 0.02145874 0.02141032
 0.02134198 0.02124335 0.021122 0.02098513 0.02084057 0.02070325 0.02056663 0.02043089 0.02028831 0.02013436
 0.01996612 0.01978225 0.01957815 0.01935038 0.01910807 0.01884954 0.01860441 0.01837561 0.01818064 0.01802057
 0.0178807 0.01775939 0.01763155 0.01749667 0.01733841 0.01715884 0.0169544 0.01673224 0.01650732 0.016285
 0.01608347 0.01589673 0.01572387 0.01556233 0.01540697 0.01526638 0.01514822 0.01504158 0.01494887 0.01483874
 0.01469939 0.01453571 0.01434155 0.01416792 0.01401951 0.01392681 0.01389176</values></Ydata></AB><ScSm><Ydata ylabel="Single channel"><values byteorder="INTEL" format="FLOAT32" numvalues="1814"> 0.07217592 0.07218814 0.07225957 0.07241474 0.07262717 0.07283565 0.0729879 0.07307336 0.07310867 0.07310055
 0.07305443 0.07301885 0.07307509 0.07325704 0.07350065 0.07368775 0.07374092 0.07369243 0.07366519 0.07375164
 0.07388756 0.0738747 0.07356843 0.07304499 0.07255101 0.07227655 0.07223609 0.07241525 0.07289621 0.07362968
 0.07417256 0.07400515 0.07318874 0.07239634 0.07216378 0.07237528 0.07258044 0.07251048 0.07215954 0.07169257
 0.07149713 0.0720707 0.07352973 0.07521739 0.07594439 0.07473298 0.07150871 0.06733288 0.06402409 0.06318532
 0.06506784 0.06823421 0.07063764 0.07125872 0.07059846 0.06964822 0.06882812 0.06810755 0.06767736 0.06798048
 0.06909022 0.07030262 0.0704948 0.06907284 0.06668124 0.06476276 0.06425075 0.06497215 0.06640405 0.06824484
 0.0696392 0.06872809 0.06447617 0.05899566 0.0566074 0.05973018 0.06629838 0.0717949 0.07327324 0.0709797
 0.06702074 0.06362453 0.06233135 0.06356592 0.06652406 0.06985034 0.072479 0.07369181 0.07293117 0.07028148
 0.0669425 0.06464115 0.06456813 0.06692284 0.07087787 0.07463954 0.07625697 0.07506926 0.07214843 0.06915811
 0.06725554 0.0670984 0.06899947 0.0725888 0.07680486 0.08052544 0.08302914 0.08404288 0.08378418 0.08283193
 0.08169112 0.08071223 0.08040303 0.08111201 0.08220221 0.0822991 0.08079523 0.07866894 0.07747687 0.07774392
 0.07854521 0.07862438 0.07765943 0.07604234 0.07363138 0.06975372 0.06474748 0.06034499 0.05793836 0.05753215
 0.05879085 0.06157577 0.06471528 0.0659284 0.0643187 0.06196443 0.06184091 0.06465103 0.06847559 0.07113859
 0.0722205 0.0729077 0.07445475 0.07689389 0.07886243 0.07861988 0.07577194 0.07225117 0.07095309 0.07289372
 0.07623805 0.0785698 0.07944625 0.08012526 0.08136775 0.08225733 0.0811481 0.07760914 0.07348649 0.07177501
 0.07401261 0.07873939 0.0825506 0.0826146 0.07858121 0.07267728 0.06797135 0.06624538 0.06749906 0.07110485
 0.07650127 0.08260062 0.08751461 0.08960937 0.08869993 0.08594704 0.08253551 0.07857783 0.07375697 0.06916361
 0.06750503 0.07053088 0.07678548 0.08282901 0.08631171 0.08713661 0.08609703 0.08340725 0.07894259 0.07367433
 0.0701335 0.07043987 0.07375744 0.0767798 0.07720059 0.07580793 0.07476787 0.07490209 0.07539691 0.0754976
 0.07558097 0.07652755 0.07848175 0.08053336 0.08161137 0.08146286 0.08068576 0.08002499 0.07969594 0.07923874
 0.07816674 0.07694408 0.07691871 0.07884867 0.08185901 0.08433697 0.08554037 0.08586574 0.08578452 0.08502498
 0.0829795 0.07986683 0.07720914 0.07670075 0.07856379 0.08141461 0.08370465 0.08482745 0.0849594 0.08450405
 0.08382612 0.08313085 0.08251384 0.08221032 0.08253963 0.08344239 0.08437996 0.08487485 0.08489924 0.08463056
 0.08411301 0.08332714 0.08242853 0.08175246 0.0815753 0.08190688 0.08252804 0.08318558 0.08368158 0.08384032
 0.0835744 0.0830147 0.0824283 0.08197713 0.08166977 0.08152772 0.08163014 0.08196002 0.08233929 0.08257847
 0.08262333 0.08252627 0.08234105 0.08208875 0.08179215 0.08150902 0.0813303 0.08132336 0.08145252 0.08159496
 0.08167963 0.08175926 0.08188387 0.08196833 0.08188102 0.0816271 0.08135472 0.08119442 0.08115719 0.08117571
 0.08117666 0.08109164 0.08085057 0.08044225 0.07999802 0.07974444 0.0798202 0.08017348 0.0806509 0.08111361
 0.08145331 0.08160353 0.08159232 0.08151636 0.08142643 0.08128758 0.08106846 0.08082935 0.08070493 0.08080056
 0.08109441 0.08144708 0.08171842 0.08185688 0.08188652 0.08187073 0.08189315 0.08199368 0.08210371 0.08211205
 0.08200986 0.08191065 0.08191535 0.08200228 0.08206387 0.08202975 0.08194374 0.08191657 0.08200597 0.08216351
 0.08230487 0.08240335 0.08249706 0.08261951 0.08273718 0.08276606 0.08266445 0.08249712 0.08237252 0.08232842
 0.08232629 0.08234687 0.08242522 0.08257616 0.08273824 0.0828267 0.08282435 0.08279356 0.0827971 0.08282521
 0.08281456 0.08272733 0.0825913 0.0824666 0.08239449 0.08237755 0.08238835 0.08238943 0.08235498 0.08228212
 0.08218475 0.08207759 0.08196725 0.08186314 0.08179674 0.08181111 0.08190736 0.08200814 0.08200396 0.08185215
 0.08162116 0.0814267 0.08132611 0.08127967 0.08121008 0.08108366 0.08092697 0.08078265 0.0806713 0.08059042
 0.08052713 0.08046964 0.0804259 0.08043444 0.08053355 0.08070394 0.08085899 0.08091559 0.08087131 0.08079671
 0.08076094 0.0807832 0.08084399 0.08091772 0.08099767 0.08110189 0.08124398 0.08139314 0.08149191 0.08152531
 0.08154401 0.0816092 0.08174337 0.08193548 0.08215141 0.0823327 0.08243164 0.08246737 0.08251437 0.08262163
 0.08277003 0.08291861 0.08306053 0.08321467 0.08338778 0.08357308 0.08377685 0.0840214 0.08431786 0.08464523
 0.08495787 0.08521348 0.08540699 0.08558677 0.08582578 0.08616099 0.08655979 0.08694933 0.08727874 0.08755441
 0.08781929 0.08810224 0.08839702 0.08869494 0.08901799 0.08939527 0.08981772 0.090244 0.09064786 0.09103586
 0.09142099 0.09180331 0.09218037 0.09256267 0.09297159 0.09341964 0.09388681 0.09432212 0.09468333 0.0949773
 0.09525521 0.09557243 0.09595348 0.09637481 0.09676923 0.09707245 0.09729175 0.09751144 0.09780353 0.09814887
 0.09847797 0.09877518 0.09909862 0.09949318 0.09992354 0.1003138 0.1006311 0.1009105 0.1012046 0.1015223
 0.1018186 0.1020438 0.1022001 0.1023424 0.1025219 0.1027506 0.1030278 0.1033692 0.1037776 0.104205
 0.1045794 0.104866 0.1050798 0.1052525 0.1054123 0.1055817 0.1057678 0.105959 0.106145 0.1063251
 0.1064898 0.1066239 0.1067435 0.1068993 0.1071241 0.1074021 0.1077085 0.1080467 0.1084188 0.1087904
 0.1091283 0.10946 0.1098472 0.11029 0.1106993 0.11099 0.1111674 0.1112958 0.1114173 0.1115469
 0.1117226 0.1119968 0.112373 0.1127915 0.1131892 0.1135473 0.1138785 0.1141921 0.1144809 0.1147276
 0.1149165 0.1150476 0.1151455 0.1152568 0.1154317 0.1156907 0.1160016 0.1162997 0.1165352 0.116688
 0.1167426 0.1166826 0.1165313 0.116366 0.1162516 0.116163 0.1160014 0.1156823 0.1151862 0.1145289
 0.1137189 0.1127648 0.1117109 0.1106474 0.1096788 0.1088836 0.1083039 0.1079751 0.1079487 0.108259
 0.1088604 0.1096118 0.1103315 0.1108581 0.1110671 0.1108764 0.1102759 0.1093436 0.1082072 0.1069821
 0.1057412 0.104512 0.1032825 0.1020305 0.1007849 0.09966412 0.09884824 0.09852441 0.09887061 0.1000463
 0.1021119 0.1049061 0.108029 0.1110114 0.113542 0.1155593 0.1171707 0.1185269 0.1197504 0.1209054
 0.1219905 0.1229736 0.1238485 0.1246468 0.1253954 0.1260828 0.1266719 0.1271299 0.1274511 0.1276629
 0.1278059 0.1279004 0.1279436 0.1279401 0.1279068 0.1278369 0.1276754 0.1273423 0.1267707 0.1259265
 0.1248193 0.1235309 0.122279 0.1214737 0.1216371 0.1231252 0.1258381 0.1292216 0.1325864 0.135451
 0.1376486 0.1392374 0.1403767 0.1412389 0.1419538 0.1425934 0.1431903 0.1437593 0.1443062 0.1448324
 0.1453379 0.1458267 0.1463109 0.1468028 0.1472949 0.1477585 0.1481754 0.1485661 0.1489748 0.1494293
 0.1499156 0.1503941 0.1508416 0.1512734 0.1517116 0.1521426 0.1525313 0.1528741 0.1532092 0.1535755
 0.1539838 0.1544246 0.1548723 0.1552854 0.1556327 0.1559254 0.1562057 0.1565047 0.1568231 0.1571504
 0.1574829 0.1578183 0.1581478 0.1584712 0.1588088 0.1591782 0.1595575 0.1598952 0.1601642 0.1603932
 0.160634 0.1609109 0.16121 0.1615061 0.1617924 0.1620874 0.1624158 0.1627798 0.1631488 0.1634813
 0.1637588 0.1639988 0.1642367 0.1644986 0.1647868 0.1650875 0.1653865 0.1656787 0.1659663 0.1662538
 0.1665449 0.1668424 0.1671454 0.1674483 0.1677426 0.168027 0.1683091 0.1685967 0.1688915 0.1691975
 0.169524 0.1698695 0.1702085 0.1705077 0.1707566 0.1709747 0.1711901 0.1714197 0.1716673 0.1719308
 0.1722051 0.172484 0.1727639 0.1730457 0.1733303 0.1736141 0.1738921 0.1741657 0.1744407 0.1747196
 0.1750027 0.1752947 0.1756002 0.1759128 0.1762152 0.1764959 0.1767603 0.1770248 0.1773021 0.1775908
 0.1778766 0.1781454 0.1783974 0.1786442 0.1788969 0.1791589 0.1794279 0.1797003 0.179973 0.1802458
 0.1805217 0.1808033 0.1810878 0.181368 0.1816369 0.1818955 0.1821528 0.1824163 0.1826837 0.1829483
 0.1832083 0.1834665 0.183726 0.1839883 0.1842541 0.1845227 0.1847945 0.1850699 0.1853459 0.1856168
 0.1858802 0.186138 0.1863924 0.1866445 0.1868968 0.1871511 0.1874091 0.1876733 0.1879454 0.1882227
 0.1885008 0.1887771 0.1890495 0.1893163 0.1895803 0.1898458 0.190115 0.19039 0.1906735 0.1909641
 0.1912571 0.1915509 0.1918436 0.1921255 0.1923871 0.1926318 0.1928723 0.1931162 0.1933609 0.1936006
 0.193835 0.1940717 0.1943185 0.1945742 0.1948331 0.195094 0.1953583 0.1956256 0.1958975 0.1961759
 0.1964538 0.1967188 0.1969698 0.197218 0.197474 0.1977411 0.1980127 0.1982774 0.1985319 0.1987889
 0.1990608 0.1993454 0.1996353 0.1999273 0.2002161 0.2004931 0.2007564 0.2010128 0.2012707 0.2015373
 0.2018114 0.2020809 0.202338 0.2025905 0.2028465 0.2031045 0.203366 0.2036387 0.2039205 0.2041995
 0.2044701 0.2047316 0.2049839 0.2052345 0.2054927 0.2057548 0.2060133 0.206273 0.2065403 0.2068116
 0.2070842 0.207359 0.2076285 0.2078853 0.2081383 0.2083995 0.2086695 0.2089444 0.2092141 0.2094498
 0.2095988 0.2095388 0.2089545 0.2072089 0.203323 0.1961622 0.1848793 0.1694455 0.1508522 0.1307631
 0.1108954 0.09256327 0.07654285 0.0631735 0.05252808 0.04452013 0.03896976 0.03571834 0.03475165 0.03632431
 0.04109105 0.04971668 0.06141682 0.07267046 0.0785958 0.07680759 0.06969704 0.06224985 0.05790578 0.05690566
 0.0577841 0.05929575 0.06104917 0.06326889 0.06633535 0.07034907 0.07511913 0.08064045 0.08731925 0.09545381
 0.1046199 0.1138499 0.1224625 0.1305925 0.1388636 0.1476292 0.156595 0.165105 0.1726629 0.1791799
 0.1848699 0.190018 0.1948225 0.1993757 0.2037205 0.2078521 0.2116251 0.2147133 0.2167651 0.2176697
 0.2176875 0.2173034 0.2169407 0.216798 0.2168971 0.2172054 0.2176911 0.2183265 0.2190902 0.2199601
 0.2208994 0.2218648 0.2228275 0.2237701 0.2246736 0.2255203 0.2263015 0.2270143 0.2276611 0.2282503
 0.228789 0.2292805 0.2297321 0.2301581 0.2305672 0.2309583 0.2313287 0.231678 0.2320061 0.2323136
 0.2326026 0.2328741 0.2331298 0.2333749 0.2336143 0.2338506 0.2340879 0.2343297 0.234573 0.2348101
 0.2350407 0.2352702 0.2355 0.235724 0.2359359 0.2361353 0.2363313 0.2365375 0.2367619 0.2369987
 0.2372359 0.2374664 0.2376876 0.2379007 0.2381127 0.2383326 0.2385634 0.2388005 0.2390364 0.239263
 0.2394788 0.2396968 0.2399332 0.2401867 0.2404416 0.2406881 0.2409289 0.2411683 0.2414081 0.2416465
 0.2418737 0.2420756 0.2422504 0.2424177 0.2426078 0.2428403 0.2431065 0.2433742 0.2436186 0.2438437
 0.2440667 0.2442932 0.2445145 0.2447209 0.2449133 0.2451147 0.2453578 0.2456482 0.2459545 0.246249
 0.2465312 0.2468064 0.247074 0.2473413 0.2476114 0.2478562 0.2480416 0.2481868 0.2483731 0.2486776
 0.2490936 0.2495248 0.2498734 0.250131 0.250365 0.2506358 0.2509551 0.2512823 0.25152 0.2515764
 0.2515052 0.2515264 0.2518299 0.2523902 0.2530206 0.2535621 0.2539782 0.2543128 0.2546111 0.2548739
 0.2550572 0.2551223 0.2551115 0.2551766 0.2554774 0.2560164 0.2566189 0.2571134 0.2574705 0.257743
 0.25797 0.2581721 0.2583156 0.2582535 0.2578787 0.2574052 0.2573162 0.257897 0.2589113 0.2598544
 0.2604548 0.2608154 0.2611257 0.2614261 0.2616678 0.2617599 0.2614537 0.2604829 0.2590872 0.2581569
 0.2584944 0.2600034 0.261845 0.2632738 0.264105 0.2645296 0.2647912 0.2650224 0.2651433 0.2648732
 0.264044 0.2630088 0.2625503 0.2631582 0.2644779 0.2656901 0.2663497 0.2666208 0.2668334 0.2671116
 0.267292 0.2668893 0.2653734 0.262958 0.2609922 0.2610135 0.2632433 0.2663137 0.2686182 0.2696926
 0.2700862 0.2701753 0.2696182 0.2679749 0.2653546 0.2623639 0.2599478 0.2592872 0.2610103 0.2641905
 0.2668704 0.2679992 0.2683173 0.2690945 0.2706008 0.2721019 0.2728319 0.2725945 0.271626 0.2701644
 0.2683378 0.2665768 0.2658598 0.267018 0.2697338 0.2726504 0.2746269 0.2756038 0.2760217 0.2755017
 0.2725762 0.2664617 0.2592751 0.2554435 0.2577919 0.2645839 0.2713822 0.2754059 0.2770454 0.2777818
 0.278216 0.2778986 0.2755672 0.2698206 0.2613007 0.2540932 0.2529683 0.2586529 0.2670083 0.2729088
 0.2737629 0.2697918 0.2630749 0.2569083 0.2544609 0.256857 0.2626979 0.2694478 0.2749517 0.2780038
 0.2783264 0.2764584 0.2737095 0.271842 0.2718031 0.2723218 0.2708621 0.266833 0.2625785 0.2599159
 0.2572889 0.2526292 0.2479353 0.2479368 0.2539641 0.2617348 0.266176 0.2665573 0.2655289 0.2642639
 0.2603973 0.2514075 0.2394011 0.2311447 0.232143 0.2409377 0.2504295 0.2548303 0.2542444 0.2525389
 0.2521721 0.2517121 0.2478939 0.2399187 0.2315424 0.2279037 0.2300501 0.2340001 0.2354229 0.233072
 0.2271981 0.2181451 0.2088742 0.2058243 0.2134184 0.2285866 0.2432084 0.2508049 0.2488297 0.2371247
 0.218839 0.202356 0.1971884 0.2054305 0.2192111 0.2279644 0.2267915 0.2172197 0.2026697 0.1861865
 0.1719133 0.1653957 0.1701905 0.1843068 0.200432 0.2095751 0.2059661 0.1915245 0.1762404 0.1709507
 0.1774696 0.1874007 0.1915996 0.1884829 0.182573 0.178627 0.1789045 0.1829717 0.1881743 0.192068
 0.1943543 0.1941113 0.1871264 0.1710003 0.1519738 0.1408518 0.1417545 0.1499246 0.1604182 0.1725403
 0.1843198 0.1894517 0.1844315 0.1752883 0.1725156 0.1799435 0.1914471 0.1984547 0.1984447 0.1954159
 0.1936421 0.1930604 0.1914924 0.1896984 0.1915075 0.1985609 0.2074513 0.2135146 0.2156608 0.2159559
 0.2160854 0.2160819 0.2155241 0.2142851 0.2124291 0.2103211 0.2085329 0.2071806 0.2057967 0.2040043
 0.2015116 0.19715 0.1891972 0.177998 0.1675314 0.1623474 0.1628341 0.1655417 0.1681296 0.170667
 0.1711036 0.1640366 0.1478148 0.1302943 0.123132 0.1305648 0.1462807 0.1605743 0.1677393 0.1665523
 0.1574074 0.1425566 0.1285132 0.1240744 0.1332501 0.1514819 0.1705151 0.1854223 0.1952643 0.1993659
 0.196577 0.1881262 0.1787541 0.1740786 0.1771999 0.1872704 0.1997688 0.207696 0.2049767 0.1924776
 0.1808158 0.1825938 0.1991381 0.2182709 0.2279869 0.2286644 0.2283135 0.2301344 0.2308497 0.2293721
 0.2303754 0.2377855 0.2489217 0.2571166 0.2575757 0.2492702 0.2343082 0.2184235 0.209521 0.2113901
 0.219476 0.2259114 0.2271768 0.223601 0.2146724 0.2011034 0.1899185 0.1901936 0.2024946 0.21762
 0.2270736 0.2308093 0.2334241 0.2362358 0.2357187 0.2289076 0.2184107 0.2108177 0.2101792 0.2144292
 0.2187974 0.2208111 0.2203591 0.2168706 0.2096626 0.2010394 0.196296 0.1991188 0.207794 0.2168651
 0.222058 0.2229488 0.2215856 0.2198891 0.2184054 0.2165155 0.2137114 0.2112397 0.2118681 0.2168798
 0.223933 0.2294162 0.2325685 0.2357368 0.240686 0.2461524 0.2493709 0.2490963 0.2467965 0.2453786
 0.2468506 0.2507151 0.2543349 0.2551829 0.2532443 0.2512515 0.2521675 0.2563647 0.2615923 0.2655236
 0.2676521 0.2688082 0.2697818 0.2706523 0.2707495 0.2691776 0.2660965 0.2634673 0.2636586 0.2670919
 0.2718356 0.2755889 0.2775202 0.2781412 0.2780699 0.2773771 0.2759573 0.274123 0.2726002 0.2719639
 0.27223 0.2730178 0.2739437 0.2747894 0.2754636 0.2759643 0.2763456 0.2766557 0.2769232 0.27719
 0.2774783 0.2777216 0.2778212 0.2778045 0.2778453 0.2780713 0.2784075 0.2786613 0.2786977 0.2784555
 0.2778582 0.2768382 0.2754491 0.2738394 0.2720821 0.270139 0.2680955 0.2663967 0.2657073 0.2664243
 0.268314 0.2706546 0.2727262 0.274168 0.2749773 0.2753287 0.2754379 0.2754889 0.2755719 0.2756608
 0.2756772 0.2755864 0.2754227 0.2752329 0.2750267 0.2747973 0.2745596 0.2743371 0.2741187 0.2738575
 0.2735184 0.2731121 0.2726776 0.2722332 0.2717454 0.271152 0.2704223 0.2695965 0.2687538 0.2679421
 0.2671532 0.2663665 0.2655878 0.2648233 0.264039 0.2631695 0.262153 0.2609489 0.2595692 0.2581186
 0.2567569 0.2555733 0.2545166 0.2534674 0.2523426 0.251113 0.2497706 0.2483203 0.2467897 0.2452201
 0.2436412 0.2420501 0.2404124 0.2386933 0.2368878 0.2350164 0.2330972 0.2311346 0.2291341 0.2271073
 0.2250426 0.2228681 0.220452 0.2176531 0.2143665 0.2105289 0.2061206 0.2011994 0.1959207 0.1905007
 0.1851557 0.1800669 0.1753731 0.1711772 0.1675613 0.1645936 0.1623192 0.1607534 0.1598876 0.1597005
 0.1601663 0.1612584 0.1629274 0.16507 0.1675282 0.1701247 0.1726942 0.1750985 0.1772599 0.179199
 0.1810177 0.1828134 0.1845987 0.1863093 0.1878813 0.1892963 0.19055 0.1916204 0.1924937 0.1931976
 0.1937823 0.1942864 0.1947361 0.1951511 0.1955335 0.1958664 0.1961327 0.1963302 0.1964682 0.1965686
 0.196679 0.1968794 0.1972596 0.197866 0.1986685 0.19959 0.2005666 0.2015687 0.2025872 0.2036233
 0.2046878 0.2057941 0.2069634 0.2082358 0.2096574 0.2112488 0.2129962 0.2148608 0.2167789 0.2186618
 0.2204161 0.2219703 0.2232848 0.2243463 0.2251544 0.225717 0.226063 0.2262448 0.2263157 0.2263075
 0.2262365 0.2261114 0.225928 0.2256742 0.2253478 0.2249575 0.2245137 0.2240294 0.2235239 0.2230117
 0.2224961 0.2219776 0.2214595 0.2209472 0.2204493 0.2199711 0.2195022 0.2190209 0.2185137 0.2179839
 0.2174428 0.2168899 0.2162881 0.2155698 0.2146883 0.2136595 0.2125322 0.2113295 0.2100429 0.2086627
 0.2071902 0.2056315 0.2039989 0.2023137 0.2005957 0.1988442 0.1970216 0.1950708 0.1929741 0.1907955
 0.1886487 0.1866238 0.1847516 0.183014 0.1813683 0.1797761 0.1782271 0.1767337 0.175309 0.1739605
 0.1726927 0.1714984 0.1703576 0.1692565 0.1682053 0.1672341 0.1663726 0.1656273 0.1649786 0.1644071
 0.1639134 0.163503 0.1631729 0.1629297 0.1627912 0.162742 0.1627114 0.1626213 0.1624439 0.1622053
 0.16195 0.1617108 0.1614998 0.1613172 0.1611591 0.1609986 0.1607647 0.160358 0.15969 0.1587052
 0.1573869 0.155763 0.1539085 0.1519362 0.1499812 0.1481714 0.1465963 0.1453011 0.1442966 0.1435482
 0.1429721 0.142483 0.1420561 0.1417371 0.1415946 0.1416443 0.1417968 0.1419024 0.1418869 0.1418314
 0.1418973 0.1421934 0.142715 0.1433626 0.144002 0.1445355 0.1449297 0.1451843 0.1453095 0.1453354
 0.1452989 0.1452083 0.1450471 0.1448036 0.14448 0.1440921 0.1436627 0.1431921 0.1426502 0.1420225
 0.1413265 0.1405643 0.1397069 0.1387297 0.1376141 0.1363467 0.1350032 0.1338064 0.1330239 0.1328055
 0.1331155 0.1337713 0.1345627 0.1353816 0.136181 0.1367916 0.1369708 0.1367971 0.136868 0.1378587
 0.1398575 0.1422557 0.1442927 0.1455947 0.1461844 0.146176 0.1456326 0.1446096 0.1431388 0.1411973
 0.138802 0.1360669 0.1331199 0.1300829 0.1271432 0.1244944 0.1222238 0.1203453 0.1188644 0.1178358
 0.1173926 0.1171632 0.1153041 0.109471 0.100422 0.09362227 0.09465513 0.1029438 0.1121444 0.116853
 0.1169217 0.115234 0.1137768 0.1128448 0.1123337 0.1123853 0.1131312 0.1144314 0.1158899 0.1170926
 0.1178712 0.1182642 0.1182242 0.1174021 0.1151092 0.1105472 0.1034534 0.09467794 0.08589628 0.07863101
 0.07357477 0.07060894 0.06912352 0.06837077 0.06784685 0.06752157 0.06770989 0.06871407 0.0705778 0.07313175
 0.07616323 0.0794259 0.08254687 0.08514999 0.08713607 0.08868468 0.08994156 0.09084983 0.09129854 0.09128471
 0.0909007 0.09026772 0.08950661 0.08870101 0.08784206 0.08683738 0.08565178 0.08446297 0.08358259 0.08316317
 0.08307266 0.08309413 0.08312106 0.08312435 0.08308242 0.08300533 0.08293712 0.08292738 0.08304864 0.08337189
 0.08385955 0.08435139 0.0847031 0.08489577 0.08500254 0.08506101 0.08496441 0.08455162 0.08388466 0.0832868
 0.08292213 0.08249669 0.08163694 0.08046231 0.07952392 0.07921644 0.0794416 0.07981265 0.08001492 0.07996663
 0.07979743 0.0797618 0.08006522 0.08062887</values></Ydata></ScSm><ScRf><Ydata ylabel="Single channel"><values byteorder="INTEL" format="FLOAT32" numvalues="1820"> 0.06044985 0.06060046 0.0606951 0.06073207 0.06073208 0.06073907 0.06080206 0.06094224 0.061135 0.0613233
 0.06145598 0.06152137 0.06153901 0.06152356 0.06148313 0.06145421 0.06149859 0.06164227 0.06183475 0.06198232
 0.06202248 0.06198033 0.06195722 0.06203222 0.06215215 0.06214609 0.06188668 0.06143698 0.06100862 0.06076693
 0.06072859 0.06088396 0.06130029 0.06192878 0.06238711 0.06223314 0.06152326 0.06083526 0.06062757 0.06079958
 0.06096467 0.06089484 0.0605889 0.06018731 0.06001589 0.06049678 0.06173307 0.06316923 0.06379128 0.06276345
 0.06002203 0.05647231 0.05366231 0.05295322 0.05455539 0.05724532 0.05928493 0.0598117 0.05925488 0.05845737
 0.05777183 0.05716464 0.05679256 0.05703353 0.05795728 0.05897335 0.05913238 0.05793086 0.05591142 0.05428859
 0.05384634 0.05444111 0.05564214 0.05720349 0.05839901 0.05764395 0.05405045 0.04940147 0.04735959 0.04998552
 0.05554106 0.06019919 0.06145352 0.05950856 0.05615736 0.05329508 0.05221909 0.05327331 0.05576999 0.05856851
 0.06077698 0.06179263 0.06114423 0.05890188 0.05607875 0.05413515 0.05407962 0.05607949 0.05942775 0.06259973
 0.0639457 0.06291486 0.06042206 0.05787654 0.05625445 0.05610995 0.05770963 0.06074517 0.06432167 0.06748774
 0.06962547 0.07049424 0.07027379 0.06945968 0.06848894 0.06766038 0.06739697 0.06798962 0.06890521 0.06898823
 0.06772213 0.06592283 0.06489973 0.06510314 0.06576473 0.06582899 0.06501988 0.06366382 0.06164025 0.05837778
 0.05415503 0.05043277 0.04839257 0.04804642 0.04911867 0.05150032 0.05420159 0.05527594 0.05393665 0.05192806
 0.05178348 0.05412716 0.05735014 0.05960365 0.06051957 0.06109942 0.0624117 0.06448711 0.06616628 0.06596574
 0.06354666 0.06054978 0.05943732 0.06107843 0.06392102 0.06591503 0.06668063 0.06727992 0.06835635 0.06913471
 0.06822414 0.06526338 0.06181523 0.06040777 0.06233352 0.06635441 0.06959271 0.06965362 0.06624059 0.0612441
 0.05727103 0.05583357 0.05693103 0.06003703 0.06468528 0.06995811 0.07424776 0.07614768 0.07546929 0.07317693
 0.07028723 0.06692499 0.06283788 0.0589555 0.05759028 0.06025182 0.06570879 0.07101125 0.07412359 0.07494195
 0.07413985 0.0718992 0.06810819 0.06361029 0.06061903 0.06099679 0.06401709 0.06677917 0.06725142 0.06612098
 0.06529686 0.06551173 0.06605315 0.06625438 0.06644912 0.06741925 0.06929383 0.071265 0.07237653 0.07238869
 0.07181875 0.07133279 0.07113824 0.07083213 0.06997915 0.06900345 0.06912728 0.07102785 0.07389677 0.07626718
 0.07747722 0.07790149 0.0779706 0.07742365 0.07568917 0.07296134 0.07064572 0.07031693 0.07219021 0.07498381
 0.07725345 0.07843479 0.07870151 0.07843441 0.07796679 0.07748471 0.07708007 0.07697208 0.07745013 0.07845162
 0.07947421 0.08007633 0.08023585 0.08011833 0.07975882 0.07913478 0.07840066 0.07788654 0.07785589 0.07830688
 0.07902473 0.07977737 0.08038879 0.0806894 0.08057934 0.08017278 0.07973414 0.07943588 0.07929045 0.07930698
 0.07955018 0.08000213 0.08049434 0.08084583 0.08100721 0.08103506 0.08098309 0.0808617 0.08068071 0.08050153
 0.08043493 0.08055785 0.08081847 0.08107446 0.08126079 0.0814553 0.08171938 0.08194944 0.08198382 0.08181579
 0.08160876 0.08151673 0.08155982 0.08166429 0.0817496 0.08174713 0.08159006 0.08126937 0.08091652 0.08075763
 0.08093458 0.08140233 0.08200817 0.08260018 0.08305211 0.08329053 0.08335013 0.08333658 0.08330291 0.08321235
 0.08303577 0.08284204 0.08277506 0.08294433 0.08332624 0.08377486 0.08413929 0.08435662 0.08444709 0.08448474
 0.08457436 0.08476923 0.08498687 0.08508214 0.08502711 0.08495172 0.084984 0.08510457 0.08518641 0.08515018
 0.08505507 0.08503559 0.08516173 0.08537884 0.08558487 0.08574155 0.08589437 0.08609138 0.0862933 0.0863836
 0.08629225 0.08609332 0.0859342 0.08587943 0.08588491 0.08592007 0.08602975 0.08624113 0.08647431 0.08660739
 0.08661288 0.08658298 0.08661227 0.0866873 0.08671132 0.08661909 0.08644286 0.08627596 0.0861977 0.08622707
 0.08631971 0.08639885 0.0864055 0.08633341 0.08622062 0.08610977 0.08602189 0.08597121 0.08599446 0.08613566
 0.08637835 0.0866054 0.0866659 0.08650628 0.08622937 0.0860076 0.08593027 0.08593697 0.08589508 0.08573045
 0.0854778 0.08522446 0.08503121 0.08490553 0.08482337 0.08476134 0.08472252 0.08474095 0.08484189 0.08498011
 0.08504088 0.08493711 0.08469956 0.08444645 0.08427466 0.08420265 0.08419429 0.08420229 0.08420488 0.08422779
 0.08430722 0.08441459 0.08445998 0.08439637 0.08428158 0.08421676 0.08426286 0.08441997 0.08462953 0.08478498
 0.08480168 0.08470383 0.08460455 0.08458783 0.0846442 0.08472368 0.08480498 0.08489402 0.08499054 0.08508854
 0.08520118 0.08536009 0.08558282 0.0858463 0.08609506 0.08627777 0.08638705 0.08647315 0.08661284 0.08685093
 0.08716436 0.08748274 0.08774526 0.08794364 0.08811451 0.08829296 0.08848222 0.08867754 0.08890122 0.08918382
 0.08951561 0.08984814 0.09014831 0.09042548 0.09070225 0.09098285 0.09126049 0.09154585 0.09187613 0.09228164
 0.09273238 0.09313305 0.09339899 0.093539 0.09365146 0.09384537 0.09416619 0.09456498 0.09492076 0.09513113
 0.09521642 0.09530878 0.09550738 0.09577546 0.09601896 0.0962345 0.0965185 0.09693013 0.09739748 0.09778287
 0.09801856 0.09815855 0.09830543 0.09850207 0.09870233 0.09884389 0.09893 0.09901826 0.09914292 0.09929264
 0.099472 0.0997327 0.1001062 0.100537 0.1009234 0.1012095 0.1014087 0.101559 0.1016832 0.1017803
 0.1018329 0.1018394 0.1018453 0.1019114 0.1020363 0.1021478 0.1021955 0.1022143 0.1022764 0.1024135
 0.1026181 0.1028815 0.1031882 0.1034936 0.1037606 0.1040185 0.1043342 0.1047055 0.1050293 0.1052099
 0.1052647 0.1052826 0.1053111 0.1053421 0.1053921 0.1055233 0.1057711 0.1060969 0.1064359 0.106762
 0.1070899 0.107431 0.1077581 0.1080103 0.1081352 0.1081371 0.1080853 0.1080746 0.1081765 0.108409
 0.1087318 0.1090695 0.1093559 0.1095567 0.1096545 0.109645 0.1095724 0.1095392 0.1096304 0.109818
 0.1099715 0.1099671 0.109768 0.1094018 0.1089 0.1082861 0.1076076 0.1069482 0.1063948 0.1059977
 0.1057727 0.1057397 0.1059383 0.1063832 0.1070116 0.1077002 0.1083383 0.1088539 0.1091719 0.1091997
 0.108894 0.1083187 0.107608 0.1068834 0.1062132 0.1056118 0.1050451 0.1044736 0.103935 0.1035823
 0.1036108 0.1041425 0.1051689 0.1065589 0.1080973 0.1095536 0.1107771 0.1117503 0.112551 0.1132631
 0.1139302 0.1145778 0.1152374 0.1159178 0.1165729 0.1171394 0.1176081 0.1180279 0.1184395 0.1188352
 0.119181 0.1194548 0.119665 0.1198504 0.120046 0.1202318 0.1203388 0.120327 0.1202341 0.1201253
 0.1200173 0.1198681 0.1196221 0.1192574 0.1188161 0.1184198 0.1182469 0.1184625 0.1191297 0.1201693
 0.1214138 0.1227125 0.1239764 0.1251304 0.126079 0.126758 0.1271974 0.1274988 0.1277597 0.1280338
 0.1283379 0.1286631 0.1289863 0.1292882 0.1295674 0.1298408 0.1301334 0.1304573 0.1307923 0.1310955
 0.131346 0.1315759 0.1318465 0.1321884 0.1325691 0.1329266 0.133239 0.1335442 0.1338776 0.1342089
 0.1344743 0.1346604 0.1348241 0.1350326 0.1353139 0.135657 0.1360219 0.1363494 0.1365958 0.1367711
 0.1369275 0.1371104 0.1373313 0.1375816 0.1378503 0.1381246 0.1383907 0.138648 0.1389153 0.1392078
 0.1395044 0.1397542 0.1399286 0.140058 0.1402036 0.1403984 0.1406229 0.1408381 0.1410333 0.1412408
 0.141502 0.1418173 0.1421334 0.1423861 0.1425549 0.1426727 0.1427915 0.1429446 0.1431373 0.1433567
 0.1435846 0.1438058 0.1440137 0.1442133 0.1444156 0.1446265 0.144842 0.1450548 0.145263 0.14547
 0.1456786 0.1458868 0.1460947 0.1463161 0.1465734 0.1468698 0.1471691 0.1474185 0.1475941 0.1477178
 0.1478321 0.1479679 0.1481337 0.148322 0.1485208 0.1487214 0.1489214 0.149122 0.1493254 0.1495326
 0.1497412 0.1499465 0.1501458 0.1503416 0.1505418 0.1507556 0.1509861 0.1512222 0.1514436 0.1516385
 0.1518156 0.1519963 0.1521959 0.1524099 0.1526199 0.1528127 0.1529936 0.1531769 0.1533696 0.1535686
 0.1537687 0.1539672 0.1541626 0.1543557 0.1545473 0.1547361 0.1549198 0.1550998 0.1552823 0.1554763
 0.1556866 0.1559061 0.1561169 0.1563064 0.156482 0.1566625 0.1568599 0.1570713 0.1572849 0.1574891
 0.1576789 0.1578577 0.1580354 0.1582218 0.1584222 0.1586348 0.1588535 0.1590719 0.1592832 0.1594819
 0.1596689 0.1598545 0.1600478 0.1602492 0.1604561 0.1606695 0.1608891 0.161109 0.1613242 0.1615351
 0.1617435 0.1619512 0.1621614 0.1623774 0.1626009 0.162829 0.1630551 0.1632709 0.1634716 0.1636571
 0.1638305 0.1639988 0.1641698 0.164345 0.1645205 0.1646975 0.1648827 0.1650764 0.1652716 0.1654647
 0.1656575 0.165851 0.1660457 0.1662446 0.1664489 0.1666562 0.1668634 0.1670683 0.1672692 0.1674663
 0.16766 0.1678489 0.168035 0.1682282 0.1684349 0.1686497 0.1688658 0.1690823 0.1692983 0.169511
 0.1697207 0.1699298 0.1701394 0.170351 0.170567 0.1707846 0.1709994 0.1712101 0.1714147 0.1716107
 0.1718024 0.1719995 0.1722066 0.1724231 0.172647 0.1728692 0.1730783 0.1732785 0.1734843 0.1736975
 0.1739089 0.1741169 0.1743285 0.1745476 0.1747737 0.1750025 0.1752245 0.1754359 0.1756435 0.1758516
 0.1760588 0.1762695 0.1764849 0.1766828 0.1768115 0.1767599 0.1762589 0.1747686 0.1714578 0.1653646
 0.1557775 0.142682 0.1269245 0.1099149 0.09310392 0.07760084 0.06406227 0.05277522 0.0437957 0.03704143
 0.03235655 0.0296089 0.02878592 0.03009817 0.03409819 0.04135531 0.05121879 0.06072391 0.06574698 0.06426065
 0.05826952 0.05198121 0.04830882 0.04746262 0.048206 0.04948593 0.05096877 0.05283893 0.05541674 0.05879547
 0.06282426 0.06749934 0.07315455 0.08003557 0.08778848 0.0956023 0.1028987 0.1097831 0.1167815 0.1241993
 0.1317928 0.1390069 0.1454209 0.1509596 0.1558028 0.1601883 0.1642789 0.1681484 0.1718337 0.1753339
 0.1785279 0.181139 0.1828721 0.1836394 0.1836642 0.1833541 0.1830619 0.1829494 0.1830314 0.1832832
 0.183687 0.1842276 0.1848856 0.1856342 0.1864348 0.1872503 0.1880622 0.1888616 0.1896329 0.1903591
 0.1910337 0.1916573 0.1922315 0.1927575 0.1932367 0.1936733 0.1940767 0.194455 0.1948098 0.1951445
 0.1954707 0.1957959 0.1961117 0.1964025 0.1966581 0.1968774 0.1970701 0.1972551 0.1974483 0.1976531
 0.1978675 0.1980897 0.1983149 0.1985347 0.1987433 0.1989396 0.1991275 0.1993182 0.1995212 0.1997309
 0.1999305 0.2001129 0.2002875 0.2004671 0.2006571 0.2008538 0.2010486 0.2012345 0.2014144 0.2015984
 0.2017936 0.2019995 0.2022094 0.2024144 0.2026108 0.2028068 0.2030143 0.2032354 0.2034607 0.2036805
 0.2038897 0.2040905 0.2042929 0.204505 0.2047185 0.2049132 0.2050804 0.2052351 0.2054058 0.2056116
 0.2058468 0.2060849 0.2063035 0.206503 0.2066948 0.2068831 0.2070639 0.207235 0.2074034 0.2075873
 0.2078048 0.2080522 0.2083049 0.2085478 0.208786 0.2090231 0.2092563 0.2094904 0.2097291 0.20995
 0.2101225 0.2102557 0.2104099 0.2106476 0.2109721 0.2113188 0.2116175 0.2118577 0.2120797 0.2123218
 0.2125965 0.2128812 0.2130983 0.2131633 0.2131149 0.2131426 0.2134115 0.2138947 0.2144253 0.2148714
 0.2152135 0.215494 0.2157466 0.2159673 0.2161205 0.216177 0.2161745 0.21624 0.2165055 0.2169711
 0.2174891 0.2179131 0.2182163 0.2184452 0.2186388 0.2188179 0.2189531 0.2189173 0.2186171 0.2182308
 0.2181666 0.2186683 0.2195407 0.2203577 0.2208838 0.2211962 0.2214518 0.2216926 0.2218882 0.2219663
 0.2217124 0.2208947 0.2197143 0.218934 0.2192437 0.2205593 0.2221552 0.223391 0.2241154 0.2244976
 0.2247445 0.224964 0.2250828 0.2248588 0.2241534 0.2232789 0.2229095 0.2234591 0.2246184 0.2256865
 0.226283 0.2265449 0.2267511 0.2270129 0.2272019 0.2269068 0.2256587 0.2236166 0.221929 0.2219327
 0.2238452 0.2265044 0.2285225 0.2294854 0.2298569 0.229962 0.2295106 0.228126 0.2259033 0.2233669
 0.22133 0.2208032 0.2223197 0.2250805 0.2274087 0.2284088 0.2287181 0.2294239 0.2307593 0.232098
 0.2327778 0.2326183 0.2318169 0.2305862 0.2290469 0.227576 0.2270148 0.2280682 0.2304461 0.232976
 0.2346922 0.2355658 0.2359826 0.2356018 0.2331386 0.2279107 0.2217527 0.2184945 0.2205731 0.2264814
 0.2323863 0.2358936 0.2373497 0.2380352 0.2384641 0.2382452 0.2362927 0.231399 0.2241121 0.217954
 0.2170476 0.2220276 0.2293181 0.2344832 0.2352792 0.2319018 0.2261572 0.2208979 0.2188588 0.22101
 0.2261462 0.2320731 0.2369169 0.2396293 0.2399747 0.2384242 0.2361134 0.2345714 0.2346201 0.2351538
 0.2339729 0.2305715 0.2269888 0.2247992 0.2226428 0.2187158 0.2147561 0.2148879 0.2202793 0.2271994
 0.2312213 0.2317082 0.2309756 0.2300462 0.2268473 0.219162 0.2088221 0.2017587 0.2028209 0.2107529
 0.2193322 0.2234769 0.2232767 0.2221261 0.2221849 0.2221857 0.2192255 0.2125721 0.2055492 0.2027299
 0.2050465 0.208943 0.2105494 0.2087397 0.2037197 0.1957987 0.1876681 0.1851611 0.1922955 0.206322
 0.2199113 0.2271943 0.2258417 0.2156675 0.199498 0.1849844 0.1808655 0.1890945 0.2024522 0.2112094
 0.2108215 0.2026494 0.1898201 0.1751738 0.1626545 0.1575902 0.1634614 0.1784355 0.1954612 0.2057103
 0.2033923 0.1903015 0.1763549 0.1724274 0.180365 0.191689 0.1971302 0.1950704 0.1901101 0.1871637
 0.1886637 0.194211 0.2009783 0.2063458 0.209977 0.2107622 0.2039646 0.1868962 0.1664141 0.1544229
 0.1555086 0.1645163 0.17608 0.1894812 0.2025492 0.2082885 0.2027688 0.1925963 0.1893445 0.1972636
 0.2096197 0.2169555 0.2164643 0.2125445 0.2099545 0.2087182 0.206499 0.2041075 0.2056799 0.2130023
 0.2224115 0.2288817 0.2312368 0.2317109 0.2321368 0.232548 0.2324592 0.2317076 0.2303714 0.2288721
 0.2278426 0.2274106 0.2270827 0.2264944 0.2253602 0.2223014 0.215146 0.2039828 0.1931221 0.1876915
 0.1881914 0.1908171 0.1930968 0.1953269 0.1953126 0.186908 0.1681454 0.1478822 0.139364 0.1474293
 0.1648997 0.1807406 0.1885226 0.1869633 0.176579 0.1598332 0.1437885 0.1379596 0.1465738 0.1644986
 0.1827072 0.1960654 0.2040057 0.2062426 0.2017348 0.1917141 0.1809894 0.1752279 0.1774552 0.1866767
 0.1982707 0.2052592 0.2016795 0.1884379 0.1759748 0.1766464 0.1918066 0.209639 0.2184467 0.2185327
 0.2176362 0.2188902 0.2191746 0.2174571 0.2182454 0.2253507 0.2362556 0.24459 0.2457215 0.2385896
 0.2251608 0.2109433 0.2035566 0.2065843 0.2154473 0.2223495 0.2238148 0.2202298 0.2112329 0.1976783
 0.1865683 0.186842 0.1990175 0.2140016 0.2234218 0.2272487 0.230028 0.2330588 0.2328412 0.2264195
 0.2163581 0.2091849 0.2089321 0.2135814 0.2184452 0.2211153 0.2214868 0.2189273 0.2126706 0.205007
 0.2013183 0.2053727 0.215388 0.2256844 0.2317541 0.2330595 0.2316657 0.2295728 0.227397 0.22455
 0.2205489 0.2167231 0.2159737 0.2196845 0.2255283 0.2298548 0.2318747 0.23394 0.237844 0.2423513
 0.2447062 0.2436438 0.240586 0.2383839 0.2390191 0.2420378 0.2449012 0.2451552 0.2427644 0.240367
 0.2408506 0.2446025 0.2494581 0.2531613 0.2552016 0.2563519 0.2573451 0.25823 0.2583376 0.2567952
 0.2537625 0.2511347 0.2511887 0.2543217 0.2586752 0.2620571 0.2637098 0.2641722 0.2640643 0.2634485
 0.2621886 0.2605314 0.2591265 0.2585152 0.2587393 0.2594634 0.2603229 0.2610902 0.2616627 0.2620438
 0.2623045 0.2624979 0.2626337 0.2627317 0.2628175 0.2628573 0.2627894 0.2626603 0.2626399 0.2628347
 0.263145 0.2633656 0.2633716 0.2631305 0.2625923 0.2616912 0.2604618 0.2590392 0.2575028 0.2558253
 0.2540858 0.252693 0.2522556 0.2531288 0.2550893 0.2574747 0.2596262 0.2612079 0.2622023 0.2627416
 0.2629823 0.2630593 0.2630576 0.2629952 0.2628492 0.2626075 0.2622922 0.261937 0.2615616 0.2611831
 0.2608344 0.260545 0.2603011 0.2600434 0.2597125 0.2592871 0.2587846 0.2582397 0.257683 0.2571142
 0.2564918 0.2557608 0.2549036 0.253965 0.2530316 0.2521786 0.251417 0.2506886 0.2499227 0.2490886
 0.2481777 0.2471615 0.246022 0.2448306 0.2437414 0.2428717 0.2422045 0.2416177 0.2409847 0.2402327
 0.239345 0.2383494 0.2372987 0.2362326 0.235154 0.2340444 0.2328852 0.2316555 0.2303301 0.2288964
 0.2273653 0.2257613 0.224118 0.2224735 0.2208318 0.2191167 0.2171802 0.2148655 0.2120554 0.2086805
 0.2047256 0.2002563 0.1954337 0.1904802 0.1856082 0.1809679 0.1766559 0.1727604 0.1693842 0.1666253
 0.1645489 0.1631792 0.162516 0.1625546 0.16329 0.1646974 0.1667089 0.1692072 0.1720389 0.1750312
 0.1780078 0.1808118 0.1833505 0.1856361 0.1877675 0.1898344 0.1918314 0.1936771 0.1953037 0.1967026
 0.1978948 0.1988954 0.1997172 0.2003877 0.2009473 0.2014305 0.2018551 0.2022247 0.202537 0.2027903
 0.202994 0.2031753 0.2033657 0.2035771 0.2038037 0.204044 0.2043113 0.2046266 0.2050088 0.2054601
 0.205954 0.2064583 0.2069759 0.2075404 0.2081698 0.2088526 0.2095874 0.2104084 0.2113633 0.2124773
 0.2137363 0.2150911 0.216472 0.2178028 0.2190072 0.2200142 0.2207758 0.2212836 0.2215638 0.221658
 0.2216025 0.2214209 0.2211314 0.2207588 0.2203281 0.2198479 0.2193086 0.218701 0.2180324 0.217323
 0.2165958 0.2158707 0.2151633 0.21448 0.2138161 0.2131646 0.2125279 0.2119149 0.2113279 0.2107634
 0.2102219 0.2097015 0.2091812 0.2086268 0.2080192 0.2073621 0.2066604 0.2059052 0.205085 0.2041962
 0.2032313 0.2021697 0.2009956 0.1997214 0.1983735 0.1969579 0.1954566 0.193862 0.1921945 0.190474
 0.1886839 0.1867859 0.1847766 0.1827207 0.1807215 0.1788622 0.1771704 0.1756202 0.1741589 0.1727478
 0.1713873 0.1700979 0.1688806 0.1677155 0.1665959 0.1655373 0.1645515 0.1636312 0.1627667 0.1619644
 0.1612447 0.1606234 0.1600978 0.159651 0.1592631 0.1589209 0.1586295 0.158423 0.1583393 0.1583678
 0.1584357 0.1584612 0.1584088 0.1582965 0.1581694 0.1580637 0.157985 0.1579185 0.1578545 0.1577792
 0.1576395 0.1573366 0.1567637 0.1558536 0.1546094 0.1530975 0.1514057 0.1496186 0.1478357 0.1461756
 0.1447368 0.1435718 0.1426896 0.1420497 0.1415669 0.1411669 0.1408404 0.1406362 0.1406156 0.1407897
 0.1410613 0.1412651 0.1413218 0.1413303 0.141472 0.14186 0.1424849 0.1432419 0.1439934 0.1446435
 0.1451598 0.1455338 0.1457696 0.145907 0.1459871 0.1459989 0.1459088 0.1457186 0.1454552 0.1451374
 0.1447746 0.1443595 0.1438667 0.1432868 0.1426343 0.1419111 0.1411071 0.1402207 0.1392246 0.1380684
 0.1368067 0.1356724 0.1349516 0.1348103 0.1352309 0.1360406 0.1370198 0.138041 0.1390403 0.1398382
 0.140193 0.1401837 0.1403946 0.1414945 0.1435967 0.146119 0.1482881 0.1496972 0.1503592 0.1504046
 0.149918 0.1489634 0.1475476 0.1456017 0.1431303 0.1402889 0.1372482 0.1341351 0.1311251 0.1284091
 0.1260822 0.1241711 0.1226822 0.1216543 0.121223 0.121035 0.1192003 0.1132681 0.1040041 0.0970832
 0.0982938 0.1070094 0.1166318 0.1215634 0.1216636 0.1199373 0.1184591 0.1175364 0.1170525 0.117147
 0.1179378 0.1192514 0.1206747 0.1218158 0.1225425 0.1229155 0.1228829 0.1220533 0.1196736 0.1149088
 0.1075102 0.09837183 0.08922637 0.08165228 0.07636639 0.07323803 0.07164387 0.07083414 0.07029811 0.06999995
 0.07025674 0.07135637 0.07331535 0.07597168 0.07915047 0.08260949 0.08593569 0.08872608 0.09089138 0.09262379
 0.09405921 0.09511504 0.095659 0.09569044 0.09532252 0.09469085 0.09391996 0.09309773 0.09221167 0.09115642
 0.08990459 0.08866423 0.08775541 0.0873087 0.0871805 0.08716393 0.08716448 0.08716878 0.08716995 0.08715903
 0.08713596 0.08713609 0.08725309 0.08756837 0.08803637 0.08849712 0.0888121 0.08895936 0.08900838 0.08899465
 0.08880284 0.08827183 0.08748829 0.08680205 0.08637366 0.08587883 0.0849178 0.08361553 0.08255851 0.08216878
 0.08234117 0.08267096 0.08283839 0.08275218 0.08252433 0.08241916 0.08268106 0.08325005 0.08372222 0.08373071
</values></Ydata></ScRf><Data_Parameters_AB><parameter name="DPF">1</parameter><parameter name="NPT">3497</parameter><parameter name="FXV">3996</parameter><parameter name="LXV">500</parameter><parameter name="CSF">1</parameter><parameter name="MXY">0.0630906447768211</parameter><parameter name="MNY">-0.0817978084087372</parameter><parameter name="DAT">27/05/2022</parameter><parameter name="TIM">11:31:59.390 (GMT+2)</parameter><parameter name="DXU">WN</parameter></Data_Parameters_AB><AB__Qtest><MainReport name="Quality Test Report"><Header><Line><Legend>Test result ok/not ok [1/0]: </Legend><Value>0</Value></Line><Line><Legend>Method file: </Legend><Value>C:\Users\Public\Documents\Bruker\OPUS_8.2.28\QT\IRBT_v3_default.QT</Value></Line></Header><Matrix><Line><Legend></Legend><Legend>min</Legend><Legend>max</Legend><Legend>measured</Legend></Line><Line><Value>Absorption (X-Range 1):</Value><Value>0.400000</Value><Value>2.000000</Value><Value>0.113370</Value></Line><Line><Value>Noise (X-Range 4):</Value><Value></Value><Value>0.000300</Value><Value>0.000040</Value></Line><Line><Value>Signal/Noise (X-Range 2):</Value><Value>200.000000</Value><Value></Value><Value>59.299100</Value></Line><Line><Value>Signal/Noise (X-Range 3):</Value><Value>40.000000</Value><Value></Value><Value>27.888249</Value></Line><Line><Value>Water vapour (X-Range 5):</Value><Value></Value><Value>0.000300</Value><Value>0.000064</Value></Line><Line><Value>Signal/Water (X-Range 2):</Value><Value>100.000000</Value><Value></Value><Value>37.492104</Value></Line><Line><Value>Signal/Water (X-Range 3):</Value><Value>20.000000</Value><Value></Value><Value>17.632462</Value></Line><Line><Value>Fringes (X-Range 6):</Value><Value></Value><Value>0.000100</Value><Value>0.000052</Value></Line></Matrix></MainReport></AB__Qtest><Data_Parameters_ScSm><parameter name="DPF">1</parameter><parameter name="NPT">1814</parameter><parameter name="FXV">3996.33169228125</parameter><parameter name="LXV">499.541461535156</parameter><parameter name="CSF">1</parameter><parameter name="MXY">0.278697669506073</parameter><parameter name="MNY">0.0347516462206841</parameter><parameter name="DAT">27/05/2022</parameter><parameter name="TIM">11:31:59.390 (GMT+2)</parameter><parameter name="DXU">WN</parameter></Data_Parameters_ScSm><Data_Parameters_ScRf><parameter name="DPF">1</parameter><parameter name="NPT">1820</parameter><parameter name="FXV">4004.04661832813</parameter><parameter name="LXV">495.683998511719</parameter><parameter name="CSF">1</parameter><parameter name="MXY">0.264172196388245</parameter><parameter name="MNY">0.0287859234958887</parameter><parameter name="DAT">27/05/2022</parameter><parameter name="TIM">11:31:33.733 (GMT+2)</parameter><parameter name="DXU">WN</parameter></Data_Parameters_ScRf><Optic_Parameters_Rf><parameter name="APR">0</parameter><parameter name="APT">Open</parameter><parameter name="BMS">KBr</parameter><parameter name="DTC">RT-DLaTGS_IR-Biotyper [Microplate reader]</parameter><parameter name="HPF">0</parameter><parameter name="LPF">10.0</parameter><parameter name="LPV">4000</parameter><parameter name="PGR">0</parameter><parameter name="RCH">Module port</parameter><parameter name="RDX">0</parameter><parameter name="SRC">MIR</parameter><parameter name="VEL">10.0</parameter><parameter name="SON">Off</parameter></Optic_Parameters_Rf><Acquisition_Parameters_Rf><parameter name="ADT">1</parameter><parameter name="AQM">DD</parameter><parameter name="CFE">0</parameter><parameter name="COR">0</parameter><parameter name="DEL">0</parameter><parameter name="DLY">0</parameter><parameter name="HFW">8000</parameter><parameter name="LFW">0</parameter><parameter name="NSR">32</parameter><parameter name="PLF">AB</parameter><parameter name="RES">6</parameter><parameter name="RGN">-1</parameter><parameter name="STR">0</parameter><parameter name="TCL">MakeCompatibleScalar (0, {WSV=1.000000, ARV=0});</parameter><parameter name="TDL">37</parameter><parameter name="RPO">0</parameter></Acquisition_Parameters_Rf><FT_-_Parameters_Rf><parameter name="APF">B3</parameter><parameter name="HFQ">500</parameter><parameter name="LFQ">4000</parameter><parameter name="NLI">0</parameter><parameter name="PHR">24</parameter><parameter name="PHZ">ML</parameter><parameter name="SPZ">NO</parameter><parameter name="ZFF">1</parameter></FT_-_Parameters_Rf><Optic_Parameters_><parameter name="APR">0</parameter><parameter name="APT">Open</parameter><parameter name="BMS">KBr</parameter><parameter name="CHN">Module port</parameter><parameter name="DTC">RT-DLaTGS_IR-Biotyper [Microplate reader]</parameter><parameter name="HPF">0</parameter><parameter name="LPF">10.0</parameter><parameter name="LPV">4000</parameter><parameter name="PGN">0</parameter><parameter name="RDX">0</parameter><parameter name="SRC">MIR</parameter><parameter name="VEL">10.0</parameter><parameter name="SON">Off</parameter></Optic_Parameters_><FT_-_Parameters_><parameter name="APF">B3</parameter><parameter name="HFQ">500</parameter><parameter name="LFQ">4000</parameter><parameter name="NLI">0</parameter><parameter name="PHR">24</parameter><parameter name="PHZ">ML</parameter><parameter name="SPZ">NO</parameter><parameter name="ZFF">1</parameter></FT_-_Parameters_><Acquisition_Parameters_><parameter name="ADT">1</parameter><parameter name="AQM">DD</parameter><parameter name="CFE">0</parameter><parameter name="COR">0</parameter><parameter name="DEL">0</parameter><parameter name="DLY">0</parameter><parameter name="HFW">8000</parameter><parameter name="LFW">0</parameter><parameter name="NSS">32</parameter><parameter name="PLF">AB</parameter><parameter name="RES">6</parameter><parameter name="SOT">0</parameter><parameter name="TCL">MakeCompatibleScalar (0, {WSV=1.000000, ARV=0});</parameter><parameter name="TDL">37</parameter><parameter name="SPO">0</parameter><parameter name="SGN">-1</parameter></Acquisition_Parameters_><Instrument_Parameters_Rf><parameter name="HFL">15800.168544</parameter><parameter name="LFL">0</parameter><parameter name="LWN">15800.168544</parameter><parameter name="ABP">32197</parameter><parameter name="SSP">1</parameter><parameter name="ARG">2</parameter><parameter name="ASG">2</parameter><parameter name="ASS">32</parameter><parameter name="GFW">16</parameter><parameter name="GBW">16</parameter><parameter name="BFW">0</parameter><parameter name="BBW">0</parameter><parameter name="PKA">7268</parameter><parameter name="PKL">4996</parameter><parameter name="PRA">7444</parameter><parameter name="PRL">5001</parameter><parameter name="P2A">1</parameter><parameter name="P2L">1</parameter><parameter name="P2R">1</parameter><parameter name="P2K">1</parameter><parameter name="DAQ">0</parameter><parameter name="AG2">1</parameter><parameter name="SSM">1</parameter><parameter name="RSN">24856</parameter><parameter name="CRR">0</parameter><parameter name="SRT">1653651093.733</parameter><parameter name="DUR">19.635986328125</parameter><parameter name="TSC">27.2</parameter><parameter name="MVD">0.239029064774513</parameter><parameter name="AN1">0.225797901759501</parameter><parameter name="AN2">0</parameter><parameter name="VSN">2.485 Apr  4 2017</parameter><parameter name="SRN">0085</parameter><parameter name="CAM">0</parameter><parameter name="INS">IR-Biotyper</parameter><parameter name="FOC">69</parameter><parameter name="RDY">1</parameter><parameter name="ARS">32</parameter></Instrument_Parameters_Rf><Sample_Parameters_><parameter name="BLD"></parameter><parameter name="CNM">Admin</parameter><parameter name="CPY"></parameter><parameter name="DPM"></parameter><parameter name="EXP">IRBT_v3_32Scans.XPM</parameter><parameter name="LCT"></parameter><parameter name="SFM">Microplate, HTS-XT</parameter><parameter name="SNM">220527-1039(v.2)_ATH27F (D_2)_D4_462b60af-3a72-4c91-89ff-b7b8323742ca.0</parameter><parameter name="XPP">C:\Users\Public\Documents\Bruker\OPUS_8.2.28\XPM</parameter><parameter name="IST">OK</parameter><parameter name="CPG">1252</parameter><parameter name="UID">a7c4113c-3b25-4766-bd67-5de4e96272d4</parameter></Sample_Parameters_><Instrument_Parameters_><parameter name="HFL">15800.168544</parameter><parameter name="LFL">0</parameter><parameter name="LWN">15800.168544</parameter><parameter name="ABP">32197</parameter><parameter name="SSP">1</parameter><parameter name="ASG">2</parameter><parameter name="ARG">2</parameter><parameter name="ASS">32</parameter><parameter name="GFW">16</parameter><parameter name="GBW">16</parameter><parameter name="BFW">0</parameter><parameter name="BBW">0</parameter><parameter name="PKA">7889</parameter><parameter name="PKL">4988</parameter><parameter name="PRA">8153</parameter><parameter name="PRL">4993</parameter><parameter name="P2A">1</parameter><parameter name="P2L">1</parameter><parameter name="P2R">1</parameter><parameter name="P2K">1</parameter><parameter name="DAQ">0</parameter><parameter name="AG2">1</parameter><parameter name="SSM">1</parameter><parameter name="RSN">13054</parameter><parameter name="CRR">0</parameter><parameter name="SRT">1653651119.39</parameter><parameter name="DUR">19.6349945068359</parameter><parameter name="TSC">27.2</parameter><parameter name="MVD">0.257820188999176</parameter><parameter name="AN1">0.225802498249577</parameter><parameter name="AN2">0</parameter><parameter name="VSN">2.485 Apr  4 2017</parameter><parameter name="SRN">0085</parameter><parameter name="CAM">0</parameter><parameter name="INS">IR-Biotyper</parameter><parameter name="FOC">69</parameter><parameter name="RDY">1</parameter></Instrument_Parameters_><History/></OPUSDataFile>
