<?xml version="1.0" encoding="UTF-8" ?>
<OPUSDataFile><AB><Ydata ylabel="Absorbance Units"><values byteorder="INTEL" format="FLOAT32" numvalues="3497"> -0.05902127 -0.05897965 -0.05894082 -0.0589045 -0.05887584 -0.05885509 -0.05883284 -0.05880872 -0.05877423 -0.05873185
 -0.05869135 -0.05865594 -0.05864386 -0.05865211 -0.05868458 -0.05873296 -0.05878476 -0.05883654 -0.05887774 -0.05891368
 -0.05894506 -0.05897694 -0.05901361 -0.05905261 -0.05909467 -0.05913416 -0.05916966 -0.05919848 -0.05921985 -0.05923368
 -0.05923975 -0.05924 -0.05923453 -0.05922964 -0.05922587 -0.0592324 -0.05924886 -0.05927872 -0.05931944 -0.05936431
 -0.05941065 -0.05944837 -0.05947757 -0.05949352 -0.05949852 -0.0594934 -0.05947993 -0.05945918 -0.05943431 -0.05940602
 -0.05938116 -0.0593628 -0.05935352 -0.05935629 -0.05936146 -0.05936815 -0.05936653 -0.05935463 -0.05934016 -0.05932344
 -0.05932185 -0.05933519 -0.05936585 -0.05941091 -0.0594532 -0.05949203 -0.05951407 -0.05952431 -0.05952777 -0.05952954
 -0.05954151 -0.05956283 -0.05959895 -0.05964224 -0.05969016 -0.059731 -0.05975794 -0.05976293 -0.05973903 -0.05969334
 -0.05962335 -0.05955252 -0.059483 -0.05944132 -0.05943038 -0.05946672 -0.05955146 -0.05968614 -0.05986919 -0.06008183
 -0.06031768 -0.06053007 -0.06071073 -0.06079974 -0.06080475 -0.06070613 -0.06053467 -0.06033162 -0.06012327 -0.05996023
 -0.05984272 -0.05979295 -0.05978535 -0.05981496 -0.05984947 -0.05987285 -0.0598779 -0.05985575 -0.05982948 -0.05980114
 -0.05979256 -0.05980736 -0.05984176 -0.05989579 -0.05995092 -0.060007 -0.06005814 -0.06010649 -0.06016357 -0.06022942
 -0.06031266 -0.06040658 -0.06050019 -0.0605851 -0.06063915 -0.06066639 -0.06065999 -0.06063442 -0.06060171 -0.06056345
 -0.06052516 -0.06048008 -0.06042192 -0.06036751 -0.06031523 -0.06030536 -0.06034534 -0.06045699 -0.06064753 -0.06087473
 -0.06113726 -0.06130232 -0.06136648 -0.06124478 -0.06096019 -0.06062187 -0.06024625 -0.0599572 -0.05974378 -0.05964166
 -0.05963277 -0.05970764 -0.05983831 -0.05999324 -0.06013783 -0.06023008 -0.06026205 -0.06020767 -0.06010819 -0.0599712
 -0.05983984 -0.05973171 -0.05964413 -0.05958047 -0.05952311 -0.05946885 -0.05942838 -0.05940202 -0.05941595 -0.05946982
 -0.0595634 -0.05969092 -0.05981519 -0.05993052 -0.05999278 -0.06000629 -0.05995701 -0.05985781 -0.05972318 -0.05956623
 -0.05940671 -0.05925722 -0.05913395 -0.05904547 -0.05900268 -0.05900236 -0.05904834 -0.05912468 -0.05922955 -0.05934275
 -0.05946116 -0.05956833 -0.05966298 -0.05972522 -0.05975389 -0.05972589 -0.05964151 -0.05950114 -0.05930956 -0.05909776
 -0.05887102 -0.05866594 -0.05848457 -0.05835128 -0.05826335 -0.05823011 -0.05823969 -0.05828543 -0.05834581 -0.05840152
 -0.05843572 -0.05843001 -0.05838959 -0.05830888 -0.0582102 -0.05809714 -0.05799235 -0.05790015 -0.05783562 -0.05780127
 -0.05780118 -0.05783598 -0.0578935 -0.05797211 -0.05804352 -0.0581057 -0.05812922 -0.05811702 -0.05806221 -0.05797423
 -0.05787276 -0.05776713 -0.05768317 -0.05762414 -0.05760504 -0.0576232 -0.05768107 -0.05777616 -0.0579072 -0.05807429
 -0.05828122 -0.05851099 -0.05876649 -0.05899841 -0.05920001 -0.05932588 -0.05936825 -0.05932669 -0.05920066 -0.05899495
 -0.05871031 -0.05835376 -0.05793391 -0.05751318 -0.05710149 -0.05677529 -0.05652954 -0.05639378 -0.05634931 -0.05638167
 -0.05646145 -0.05654606 -0.05661801 -0.0566409 -0.05663225 -0.05659018 -0.05653996 -0.05649623 -0.05645419 -0.05642074
 -0.05635917 -0.05626339 -0.0561099 -0.0558914 -0.05564349 -0.05536732 -0.05512759 -0.0549261 -0.0547968 -0.05473464
 -0.05472455 -0.05475373 -0.05476381 -0.05474412 -0.05462745 -0.05443448 -0.05416535 -0.05385806 -0.05356871 -0.0532971
 -0.053069 -0.05285381 -0.05263858 -0.05240668 -0.05214261 -0.0518635 -0.05156885 -0.05128618 -0.0510222 -0.0507829
 -0.05057263 -0.05035937 -0.05014218 -0.0498525 -0.04948854 -0.04901142 -0.04843404 -0.04783161 -0.04721769 -0.0466962
 -0.04625185 -0.0458975 -0.04561235 -0.04536394 -0.04514037 -0.04491926 -0.044678 -0.04439434 -0.04403799 -0.04357782
 -0.04302242 -0.04236189 -0.04163546 -0.04085565 -0.04003071 -0.03916387 -0.03825726 -0.0373091 -0.03634944 -0.03538026
 -0.03441929 -0.03346656 -0.03251771 -0.03157426 -0.03064531 -0.0297346 -0.02886509 -0.02803377 -0.02724679 -0.02649352
 -0.02576099 -0.02503096 -0.02428432 -0.02348041 -0.02257778 -0.02154699 -0.02033286 -0.01901827 -0.01761167 -0.01623675
 -0.01494565 -0.01373306 -0.01261376 -0.01151355 -0.01042397 -0.009308237 -0.008162278 -0.00700454 -0.005837068 -0.004704896
 -0.003607149 -0.002565977 -0.001564006 -0.0005458106 0.000516612 0.001745204 0.003113515 0.004652475 0.006266265 0.007827204
 0.009314487 0.01064216 0.01189029 0.0130829 0.01428865 0.01555413 0.0168674 0.01824277 0.01961482 0.02097023
 0.02228369 0.02354513 0.0248045 0.02606352 0.02740142 0.02881982 0.03034115 0.0319551 0.0335914 0.0352414
 0.03682662 0.03835584 0.03981287 0.04120994 0.04256215 0.04387861 0.04517392 0.04646325 0.04776689 0.04908862
 0.05044203 0.051806 0.05316907 0.05453875 0.05590422 0.05733117 0.05883355 0.06043924 0.06216303 0.06390848
 0.06567084 0.06734005 0.06891473 0.07039759 0.07179673 0.07317833 0.07454459 0.07594244 0.07736257 0.07880566
 0.08025631 0.08168177 0.08308227 0.08443397 0.08577333 0.08711962 0.08852033 0.09002221 0.09161207 0.09331036
 0.09503479 0.09676498 0.09844399 0.1000525 0.1015939 0.1030644 0.1044936 0.1058827 0.1072764 0.1086771
 0.1101253 0.1116188 0.1131586 0.1147384 0.1163301 0.1179334 0.1195341 0.1211332 0.1227307 0.1243165
 0.1258777 0.1274057 0.1288826 0.1303214 0.1317212 0.1331089 0.1344974 0.135899 0.1373249 0.138755
 0.1401898 0.1415931 0.1429584 0.1442806 0.1455574 0.1468332 0.1481103 0.149436 0.150808 0.1522279
 0.1536893 0.1551632 0.1566467 0.158117 0.1595729 0.1610026 0.1624047 0.1637721 0.165106 0.1664049
 0.1676714 0.1689047 0.1701141 0.1712991 0.1724853 0.1736791 0.1749051 0.1761719 0.177475 0.1788165
 0.1801728 0.1815424 0.1829079 0.1842685 0.1856082 0.1869261 0.1882052 0.1894474 0.1906521 0.1918231
 0.1929725 0.194101 0.1952146 0.1963167 0.1974123 0.1985094 0.199619 0.2007399 0.2018762 0.2030188
 0.2041623 0.2053093 0.2064604 0.2076151 0.2087772 0.2099194 0.2110383 0.2121173 0.2131531 0.2141803
 0.2152008 0.216258 0.2173486 0.2184634 0.2195934 0.22069 0.2217508 0.22274 0.2236679 0.2245341
 0.2253587 0.2261694 0.226979 0.2278159 0.2286644 0.2295259 0.2303744 0.2311931 0.2319884 0.2327549
 0.2335216 0.2342958 0.2350832 0.2358875 0.2366902 0.23749 0.2382756 0.2390466 0.2398024 0.2405442
 0.24128 0.2420145 0.2427746 0.2435609 0.2443947 0.2452605 0.2461389 0.2470114 0.2478395 0.2486271
 0.2493608 0.2500581 0.250729 0.2513775 0.2520096 0.2526173 0.2531978 0.2537514 0.2542751 0.2547858
 0.2552839 0.2557957 0.2563232 0.2568858 0.2574839 0.2581104 0.2587627 0.259414 0.2600621 0.2606823
 0.2612725 0.2618139 0.2623067 0.2627376 0.2631212 0.2634674 0.2638044 0.2641659 0.2645622 0.2650198
 0.2655068 0.2660208 0.2665115 0.2669598 0.2673456 0.2676549 0.2679241 0.2681527 0.2684078 0.2686956
 0.2690391 0.2694376 0.2698261 0.2701985 0.2704658 0.2706357 0.2706935 0.2706628 0.2706082 0.2705471
 0.2705506 0.2706133 0.2707632 0.2709721 0.2712265 0.2714895 0.2717283 0.2719336 0.2720819 0.2722192
 0.2723514 0.2725353 0.2727925 0.273105 0.2734817 0.2738223 0.2741201 0.2742901 0.2743298 0.2742517
 0.2740639 0.2738504 0.2736141 0.2734157 0.2732443 0.2730947 0.2729645 0.2728379 0.2727363 0.2726863
 0.2726986 0.2728085 0.2729727 0.2731804 0.2733669 0.2734903 0.2735455 0.2735106 0.27345 0.2733723
 0.2733366 0.2733566 0.2734279 0.2735535 0.2736756 0.273791 0.2738327 0.2738009 0.2736663 0.2734399
 0.2731564 0.2728348 0.2725531 0.272321 0.272203 0.2721828 0.2722721 0.2724301 0.2726232 0.2728106
 0.272949 0.2730334 0.2730422 0.2730135 0.2729526 0.2729024 0.2728744 0.2728874 0.2729447 0.2730621
 0.2732398 0.2735119 0.2738796 0.2743568 0.2749363 0.2755563 0.2761991 0.2767397 0.2771703 0.2773889
 0.2774248 0.2772762 0.2770104 0.2767217 0.276469 0.276361 0.2763843 0.2765833 0.2768604 0.2771896
 0.2774572 0.277615 0.2776168 0.2774331 0.277115 0.2766589 0.276173 0.2756656 0.2752232 0.2748493
 0.274554 0.2743329 0.2741425 0.2739815 0.2738187 0.2736625 0.2735237 0.273408 0.2733395 0.2733018
 0.2732913 0.273264 0.2731775 0.2729854 0.2726336 0.272124 0.2714283 0.2706195 0.269707 0.268788
 0.267887 0.2670597 0.2663204 0.265672 0.2651173 0.2646279 0.2642019 0.2637855 0.2633756 0.2629141
 0.2624065 0.2618462 0.2612495 0.2606708 0.2601131 0.2596197 0.259162 0.2587183 0.258256 0.2577235
 0.2571286 0.2564479 0.2557389 0.2550161 0.2543539 0.2537829 0.2533387 0.2530465 0.2528504 0.2527561
 0.252626 0.2524496 0.25211 0.2516019 0.2509331 0.250114 0.2492629 0.2483895 0.2476115 0.2469205
 0.2463545 0.2458921 0.2455058 0.2451757 0.2448594 0.2445455 0.2442057 0.2438375 0.243429 0.2429873
 0.2425115 0.2420143 0.2415 0.2409772 0.2404504 0.2399128 0.2393655 0.2387878 0.2381782 0.2375188
 0.2368088 0.236046 0.2352313 0.2343741 0.2334768 0.2325545 0.2316132 0.2306794 0.2297622 0.2288959
 0.2280817 0.2273411 0.2266565 0.2260216 0.2254069 0.2247887 0.2241473 0.2234626 0.2227411 0.2219769
 0.2211952 0.2204003 0.2196125 0.2188365 0.2180737 0.2173249 0.2165816 0.2158432 0.2151047 0.214366
 0.2136272 0.2128886 0.2121506 0.2114135 0.2106777 0.2099438 0.209213 0.2084862 0.2077651 0.2070515
 0.206347 0.2056555 0.2049781 0.204324 0.2036952 0.2031084 0.202571 0.2020891 0.2016728 0.2012816
 0.2009176 0.2004914 0.1999953 0.1993607 0.1985838 0.1976911 0.1966913 0.1956968 0.1947164 0.1938633
 0.1931275 0.1925442 0.1920787 0.1916746 0.1912907 0.1908307 0.1902881 0.1896031 0.1888318 0.1879874
 0.1871513 0.1863764 0.1856855 0.1851112 0.184596 0.1841332 0.1836671 0.1831807 0.1827008 0.1822249
 0.181833 0.1815294 0.1813437 0.1812689 0.1812288 0.1812081 0.1810761 0.1808322 0.180395 0.1797953
 0.1790568 0.178227 0.1773957 0.1765837 0.1758589 0.1751924 0.1745874 0.174004 0.1734136 0.1728234
 0.172223 0.1716551 0.1711323 0.1706607 0.1702489 0.1698484 0.169455 0.169035 0.1685863 0.168138
 0.1676931 0.1673 0.1669557 0.1666674 0.1664266 0.1662052 0.1659994 0.1657858 0.1655662 0.1653345
 0.16509 0.164833 0.164552 0.1642429 0.1638806 0.1634518 0.1629351 0.1623122 0.1616053 0.1608058
 0.1599952 0.1591819 0.1584529 0.1578208 0.1572947 0.156876 0.1564794 0.1560988 0.1556302 0.1550785
 0.1544132 0.1536563 0.1528683 0.1520713 0.1513525 0.1507091 0.1501825 0.1497417 0.1493711 0.149033
 0.1486916 0.1483263 0.1479124 0.1474581 0.1469557 0.1464415 0.145921 0.1454328 0.1449879 0.1445813
 0.1442174 0.1438361 0.1434344 0.1429596 0.1424141 0.141822 0.1411937 0.1406088 0.1400662 0.1396106
 0.1392212 0.13887 0.1385403 0.1381847 0.1378165 0.1374265 0.1370502 0.1367116 0.1364394 0.1362567
 0.1361737 0.1361984 0.136336 0.1365884 0.1369616 0.1374592 0.1380696 0.138796 0.1395803 0.1404198
 0.1412073 0.1419365 0.1424966 0.142889 0.1430623 0.1430331 0.1428308 0.1424784 0.1420462 0.1415479
 0.1410392 0.1405208 0.1400145 0.1395181 0.1390342 0.1385682 0.1381208 0.1377067 0.1373299 0.1370064
 0.1367407 0.1365434 0.1364161 0.1363716 0.1364093 0.1365638 0.1368368 0.1372849 0.1379102 0.1387524
 0.1398045 0.1410451 0.1424574 0.1439669 0.1455619 0.1471725 0.1488047 0.150435 0.1520801 0.1537517
 0.1554609 0.1572219 0.1590372 0.160912 0.1628448 0.1648399 0.1668789 0.1689663 0.1710436 0.1731085
 0.1750686 0.1769153 0.1785703 0.1800281 0.1812653 0.1822831 0.183101 0.1837205 0.1841595 0.1844188
 0.1845031 0.1844287 0.184225 0.1839389 0.1836549 0.183432 0.1833761 0.1835138 0.1839107 0.1845415
 0.185415 0.1864834 0.1877313 0.1891201 0.1906396 0.1922532 0.193956 0.1957044 0.1974933 0.1992949
 0.201107 0.2029288 0.2047597 0.2065953 0.2084315 0.2102381 0.2120131 0.2137287 0.215396 0.2170274
 0.2186374 0.22027 0.2218962 0.2235366 0.2250458 0.2263642 0.2272029 0.22741 0.2266892 0.2248584
 0.2218881 0.2176685 0.2125913 0.2066608 0.2005202 0.1942305 0.1883316 0.1828626 0.1780318 0.1738341
 0.170186 0.1670655 0.1642891 0.1618445 0.1595911 0.1575237 0.1555622 0.1536974 0.1518769 0.1500964
 0.1483247 0.1465788 0.1448581 0.1431936 0.1416035 0.1401072 0.1387185 0.1374383 0.1362686 0.1352122
 0.134267 0.1334555 0.1327776 0.132275 0.13195 0.1318436 0.1319552 0.1322794 0.1328017 0.1334263
 0.1341266 0.1347428 0.1352651 0.1355728 0.1357051 0.1356604 0.13552 0.1353764 0.1353088 0.1354185
 0.135739 0.1363269 0.1371558 0.1382358 0.1395041 0.1409454 0.1425164 0.1442031 0.1460149 0.147956
 0.1499989 0.1521476 0.1541297 0.155913 0.156904 0.1570641 0.1557952 0.1531659 0.1490717 0.1437335
 0.1376451 0.1310477 0.1246148 0.1184384 0.1129312 0.1080077 0.1037478 0.09999872 0.09669109 0.09371717
 0.09101491 0.0885372 0.08626162 0.08415856 0.08222166 0.08041973 0.07874902 0.07718539 0.07572707 0.07435696
 0.07307399 0.07185987 0.07071307 0.06961345 0.06856058 0.0675406 0.06655689 0.06561024 0.0647065 0.06385832
 0.06306491 0.06233504 0.06165241 0.06100953 0.06038142 0.05974947 0.05910382 0.05843037 0.05775103 0.05706493
 0.05641295 0.05580327 0.05525831 0.05478467 0.05435884 0.05398038 0.0535985 0.0532117 0.05279406 0.05234989
 0.0519 0.05144766 0.05102196 0.05061302 0.05021112 0.04980119 0.04934615 0.04884997 0.04829532 0.04771193
 0.04711761 0.04654357 0.0460165 0.04554431 0.04514014 0.0447887 0.044491 0.04421974 0.04397205 0.04371521
 0.04344523 0.0431383 0.04279198 0.04241181 0.04199928 0.04158679 0.04117621 0.0407975 0.04044822 0.0401349
 0.03985231 0.03958965 0.03934312 0.03910032 0.03886044 0.0386164 0.03837176 0.03812541 0.03788674 0.03766026
 0.03745592 0.03728105 0.03713267 0.03701534 0.03690451 0.03679857 0.03666336 0.03649383 0.03627631 0.03600862
 0.03571547 0.03539887 0.0351011 0.03482208 0.03458247 0.0343762 0.03418874 0.03401369 0.03382406 0.0336217
 0.03339478 0.03315463 0.03291018 0.03267385 0.03246253 0.03227524 0.03212126 0.03197858 0.0318429 0.03168542
 0.03149518 0.03126333 0.03098348 0.03067367 0.03033432 0.02999071 0.02964475 0.0293103 0.0289877 0.02867997
 0.02838682 0.02810775 0.02784202 0.02758636 0.02733971 0.02709697 0.02685858 0.02662265 0.0263908 0.02616499
 0.02594475 0.0257312 0.02552086 0.02531157 0.02510195 0.02488996 0.02467903 0.02446971 0.02426507 0.02406655
 0.02387086 0.02367802 0.02348219 0.02328278 0.02308115 0.02287774 0.02268389 0.02250051 0.02234088 0.02220389
 0.02209333 0.02200416 0.0219254 0.02185001 0.02175875 0.02164893 0.02150718 0.02133908 0.02114388 0.02093107
 0.02070671 0.02047633 0.02024389 0.02001142 0.01977964 0.01955254 0.01933088 0.01911841 0.01891629 0.01872056
 0.01853129 0.01833734 0.01813824 0.01792563 0.01770023 0.01746382 0.01721831 0.01697319 0.01672963 0.0164963
 0.01627221 0.01605993 0.01585699 0.015661 0.01547036 0.01528247 0.01509724 0.01491382 0.01473267 0.0145538
 0.01437758 0.01420407 0.01403378 0.01386708 0.01370273 0.01354105 0.01337666 0.01320931 0.0130319 0.01284426
 0.01264493 0.01243491 0.01222184 0.01200706 0.01180157 0.01160419 0.01141831 0.0112396 0.01106111 0.01087976
 0.01068683 0.01048574 0.01027572 0.01006328 0.009853438 0.009647078 0.009447022 0.009247711 0.009047298 0.008845034
 0.00863912 0.008438812 0.008245124 0.008064735 0.007898678 0.007739166 0.007585641 0.007423987 0.007254679 0.007075181
 0.00688814 0.006704926 0.006526634 0.006363688 0.006212573 0.006071972 0.005936482 0.005797528 0.005653119 0.00549726
 0.005332949 0.005159716 0.004982892 0.00480488 0.004628832 0.004456573 0.004287788 0.00412302 0.003959496 0.003796902
 0.00363337 0.00346865 0.00330359 0.003138285 0.002975797 0.002816035 0.00265981 0.002506201 0.00235107 0.002194073
 0.002031001 0.001864476 0.001697068 0.001533015 0.001380056 0.001238793 0.001113968 0.001000574 0.0008971244 0.0007979698
 0.0006998137 0.0006006716 0.0004990654 0.0003954116 0.0002897689 0.000181386 7.032747E-05 -4.554582E-05 -0.0001664188 -0.0002935195
 -0.0004267882 -0.0005627979 -0.0007009274 -0.0008337869 -0.0009613966 -0.001079097 -0.001189113 -0.001295526 -0.001400781 -0.001512899
 -0.001630293 -0.001755345 -0.001882354 -0.002006226 -0.00212386 -0.002230031 -0.002329188 -0.002421037 -0.002513932 -0.002611165
 -0.002714821 -0.002827119 -0.002940472 -0.00305433 -0.00316082 -0.003258933 -0.003351115 -0.003437628 -0.003527944 -0.003622191
 -0.003725369 -0.003836797 -0.003955404 -0.004081359 -0.004214625 -0.004355732 -0.004506337 -0.004665276 -0.004832067 -0.005004216
 -0.005179241 -0.005354884 -0.005529422 -0.005699642 -0.005863823 -0.00601919 -0.006163616 -0.006300007 -0.006427846 -0.006554824
 -0.00668224 -0.006812427 -0.006945989 -0.007077006 -0.007205229 -0.007326408 -0.00744115 -0.00755383 -0.007665175 -0.007781761
 -0.007902331 -0.008026711 -0.008152725 -0.008275067 -0.008394112 -0.008507119 -0.008617984 -0.008729551 -0.008845133 -0.008969174
 -0.009098883 -0.009235531 -0.009370366 -0.009500876 -0.009620614 -0.009726595 -0.009822507 -0.009907542 -0.009994008 -0.01008286
 -0.010183 -0.01029468 -0.01041393 -0.01053973 -0.01066007 -0.01077511 -0.01087874 -0.01097331 -0.0110634 -0.01115022
 -0.01123955 -0.01132891 -0.01141701 -0.01150177 -0.01157902 -0.01165265 -0.01172297 -0.01179723 -0.01187971 -0.01197217
 -0.01207742 -0.01218911 -0.01230674 -0.01242269 -0.01253553 -0.01264327 -0.0127455 -0.01284398 -0.01293875 -0.01303
 -0.01311768 -0.01320083 -0.01328004 -0.01335768 -0.01343475 -0.01351619 -0.01360151 -0.01369264 -0.01378716 -0.01388232
 -0.01397616 -0.01406532 -0.0141498 -0.0142285 -0.01430218 -0.01437115 -0.01443526 -0.01449478 -0.01454825 -0.01459533
 -0.01463532 -0.01466762 -0.01469585 -0.01471996 -0.01474894 -0.01478326 -0.0148316 -0.0148936 -0.01496937 -0.01505715
 -0.01514793 -0.01524036 -0.01532488 -0.01540232 -0.01546951 -0.01552877 -0.01558244 -0.01563163 -0.01567859 -0.0157231
 -0.01576517 -0.01580628 -0.01584657 -0.01588944 -0.01593646 -0.01598791 -0.01604501 -0.01610207 -0.01615859 -0.01620878
 -0.01625182 -0.01628891 -0.01632013 -0.01635194 -0.01638476 -0.01642481 -0.01647259 -0.01653345 -0.01660879 -0.01670521
 -0.01682536 -0.01697754 -0.01716506 -0.01739608 -0.01767367 -0.01800389 -0.01838896 -0.0188323 -0.01933486 -0.01989774
 -0.02052201 -0.02120858 -0.0219566 -0.02276712 -0.02363319 -0.02455568 -0.02551548 -0.02651241 -0.02750925 -0.02850373
 -0.02943697 -0.03030484 -0.03104376 -0.03164881 -0.03206585 -0.0322821 -0.03222783 -0.03189152 -0.0311877 -0.03017959
 -0.02889516 -0.02748212 -0.02611109 -0.02487518 -0.0239083 -0.02320703 -0.02280718 -0.02267217 -0.022804 -0.02314099
 -0.02368648 -0.02429709 -0.02496261 -0.02548867 -0.02585194 -0.02600697 -0.02595174 -0.02581005 -0.0255871 -0.02538198
 -0.02518818 -0.02501998 -0.02487012 -0.02472173 -0.02457285 -0.02441213 -0.02423697 -0.02404037 -0.02381545 -0.02355067
 -0.02324656 -0.02289326 -0.02251573 -0.02211916 -0.02174173 -0.02140026 -0.02110754 -0.02087363 -0.02067777 -0.02051891
 -0.02037405 -0.02024046 -0.02011277 -0.01999059 -0.0198745 -0.01976402 -0.019653 -0.0195413 -0.01942362 -0.01930304
 -0.01918679 -0.01907877 -0.01899282 -0.0189276 -0.01888912 -0.01886931 -0.01886217 -0.0188598 -0.01885321 -0.01884189
 -0.01882214 -0.0187994 -0.0187749 -0.01875247 -0.01873347 -0.01871859 -0.01870805 -0.0187025 -0.01870197 -0.01870749
 -0.01871911 -0.01873551 -0.01875652 -0.0187796 -0.01880487 -0.01883178 -0.01886087 -0.01889393 -0.01893091 -0.01897294
 -0.0190188 -0.01906724 -0.01911668 -0.01916479 -0.01921093 -0.01925397 -0.01929357 -0.01932996 -0.01936031 -0.01938386
 -0.01939754 -0.01939952 -0.01939352 -0.01937898 -0.01936653 -0.01935721 -0.01935725 -0.01936704 -0.01938245 -0.01940326
 -0.01942481 -0.01944786 -0.01947473 -0.01950566 -0.01954365 -0.01958636 -0.01963013 -0.01967214 -0.01970549 -0.01973052
 -0.01974418 -0.01974991 -0.01974888 -0.01974561 -0.01974272 -0.01974338 -0.01974968 -0.01976157 -0.01977998 -0.01980116
 -0.01982495 -0.01984626 -0.0198646 -0.01987654 -0.01988188 -0.01988124 -0.01987505 -0.01986931 -0.01986473 -0.01986912
 -0.01988194 -0.0199062 -0.01993945 -0.01997772 -0.02001848 -0.02005557 -0.02008843 -0.02011354 -0.02013269 -0.02014577
 -0.02015568 -0.02016371 -0.02017249 -0.02018317 -0.0201975 -0.02021609 -0.02023991 -0.02026934 -0.02030381 -0.02034346
 -0.02038523 -0.02042896 -0.02047038 -0.02050945 -0.02054442 -0.02057552 -0.02060344 -0.02062793 -0.0206487 -0.02066507
 -0.02067499 -0.02067885 -0.02067568 -0.02066804 -0.02065777 -0.02064921 -0.02064618 -0.02065205 -0.02067037 -0.02070007
 -0.02074253 -0.02079165 -0.02084654 -0.02090065 -0.02095276 -0.02099913 -0.02103926 -0.02107099 -0.02109417 -0.02110809
 -0.02111305 -0.02111246 -0.02110736 -0.02110571 -0.02110836 -0.02112309 -0.02114895 -0.02118824 -0.02123776 -0.02129385
 -0.0213522 -0.02140616 -0.02145384 -0.02149046 -0.02151944 -0.02154068 -0.02155997 -0.02157993 -0.02160234 -0.02162884
 -0.02165593 -0.02168332 -0.02170763 -0.02172819 -0.0217467 -0.02176319 -0.02178414 -0.02180992 -0.02184739 -0.02189607
 -0.02195721 -0.02202857 -0.02210292 -0.0221777 -0.02224229 -0.02229734 -0.02233778 -0.02236889 -0.02239429 -0.02241993
 -0.02245279 -0.02249299 -0.02254395 -0.02259895 -0.02265649 -0.02271023 -0.02275727 -0.02279937 -0.02283566 -0.02287417
 -0.02291568 -0.02296509 -0.02302278 -0.02308512 -0.02315167 -0.02321471 -0.02327438 -0.02332743 -0.02337512 -0.02342065
 -0.02346459 -0.02351075 -0.02355717 -0.02360227 -0.02364397 -0.02367798 -0.02370686 -0.02373004 -0.02375401 -0.02378255
 -0.02381889 -0.02386623 -0.02392087 -0.02398278 -0.02404678 -0.02411174 -0.02417612 -0.02423961 -0.02430172 -0.02436243
 -0.02441894 -0.02447117 -0.02451746 -0.02455853 -0.02459814 -0.02463731 -0.02468251 -0.02473281 -0.0247897 -0.02485066
 -0.02491148 -0.02497185 -0.02502884 -0.0250856 -0.0251442 -0.02520579 -0.0252731 -0.0253407 -0.02540757 -0.02546747
 -0.02551756 -0.02555964 -0.02559269 -0.02562569 -0.02565944 -0.02570107 -0.02575114 -0.02580989 -0.025877 -0.02594728
 -0.02602019 -0.02608956 -0.02615529 -0.02621339 -0.02626474 -0.02630913 -0.02634866 -0.02638661 -0.02642537 -0.0264694
 -0.02651906 -0.02657692 -0.02664001 -0.02670777 -0.02677616 -0.02684315 -0.02690757 -0.02696843 -0.02702726 -0.02708427
 -0.02713994 -0.02719446 -0.02724664 -0.0272964 -0.02734422 -0.02739026 -0.02743721 -0.02748512 -0.02753574 -0.02758865
 -0.02764295 -0.02769842 -0.02775372 -0.02780975 -0.02786707 -0.02792756 -0.02799392 -0.02806693 -0.02814888 -0.0282376
 -0.0283331 -0.02843109 -0.02852996 -0.02862633 -0.02871899 -0.02880612 -0.02888717 -0.02896165 -0.02902926 -0.02909186
 -0.02914948 -0.02920742 -0.02926598 -0.02933074 -0.02940144 -0.02947936 -0.02956322 -0.02964891 -0.0297347 -0.02981402
 -0.02988604 -0.02994577 -0.02999462 -0.03003142 -0.03006035 -0.0300838 -0.0301074 -0.03013502 -0.03017044 -0.03021695
 -0.03027264 -0.03033857 -0.03040761 -0.03047892 -0.03054551 -0.03060639 -0.03065895 -0.03070292 -0.03073856 -0.03076595
 -0.03078623 -0.03079986 -0.03081064 -0.03081911 -0.0308299 -0.03084241 -0.03085751 -0.03087419 -0.03089029 -0.03090719
 -0.03092536 -0.03094726 -0.03097598 -0.03101053 -0.03105236 -0.03109596 -0.03113966 -0.03117835 -0.03120981 -0.03123367
 -0.0312491 -0.03125968 -0.03126568 -0.03127057 -0.03127468 -0.03127787 -0.03128006 -0.03127927 -0.03127572 -0.03126983
 -0.03126268 -0.03125872 -0.03125916 -0.0312698 -0.03129036 -0.03132405 -0.03136725 -0.03141801 -0.0314691 -0.03151378
 -0.03154637 -0.0315599 -0.03155789 -0.0315384 -0.0315128 -0.03148361 -0.03146037 -0.03144567 -0.03144186 -0.03144978
 -0.0314669 -0.0314932 -0.03152305 -0.03155614 -0.03158665 -0.03161477 -0.03163887 -0.03165974 -0.0316797 -0.03169962
 -0.03172286 -0.03175022 -0.03178534 -0.03182686 -0.03187637 -0.0319269 -0.03197383 -0.03200882 -0.03202362 -0.03202042
 -0.03199589 -0.03196317 -0.03192512 -0.03189236 -0.03186826 -0.03185246 -0.03184596 -0.03184007 -0.03183431 -0.03182009
 -0.03179733 -0.03176588 -0.03172695 -0.03168988 -0.03165524 -0.03163122 -0.03161543 -0.03160585 -0.03159943 -0.03158873
 -0.03157406 -0.03155212 -0.03152603 -0.03149731 -0.03146892 -0.03144338 -0.03142151 -0.03140502 -0.03139067 -0.03137849
 -0.03136254 -0.03134144 -0.03131303 -0.03127638 -0.03123632 -0.03119305 -0.031153 -0.03111639 -0.03108671 -0.03106394
 -0.03104991 -0.03104415 -0.03104675 -0.03105527 -0.03106397 -0.03106856 -0.03105776 -0.03103035 -0.03097804 -0.03090732
 -0.03081995 -0.0307255 -0.03063117 -0.03054048 -0.030458 -0.03037878 -0.03030253 -0.03022356 -0.03013973 -0.03005427
 -0.02996667 -0.02988715 -0.02981636 -0.02976258 -0.02972593 -0.02970799 -0.02970717 -0.02971356 -0.02972269 -0.02970925
 -0.02967105 -0.02958456 -0.02946057 -0.02930644 -0.02913803 -0.0289818 -0.0288409 -0.02872953 -0.02863993 -0.02857184
 -0.02851602 -0.02846962 -0.02842157 -0.02836925 -0.02829958 -0.02820926 -0.02809246 -0.02794717 -0.02778017 -0.02759155
 -0.02739417 -0.02718873 -0.02698865 -0.02679438 -0.02661633 -0.0264535 -0.0263074 -0.02617606 -0.02605483 -0.02594222
 -0.02583461 -0.0257274 -0.02561473 -0.02548812 -0.02533593 -0.02515862 -0.02494915 -0.0247241 -0.02448878 -0.02425648
 -0.02403463 -0.0238181 -0.02360784 -0.02339292 -0.02317138 -0.02294333 -0.02270845 -0.02247322 -0.02223756 -0.02199749
 -0.0217507 -0.02147567 -0.02117082 -0.02081401 -0.02041282 -0.01997594 -0.01951478 -0.01905964 -0.01860677 -0.01816738
 -0.01772426 -0.01726368 -0.01677741 -0.01625172 -0.01569947 -0.0151227 -0.01453421 -0.01394291 -0.01333361 -0.01271092
 -0.01202169 -0.01126327 -0.01036055 -0.009306668 -0.00807754 -0.006674387 -0.005159779 -0.003533818 -0.001831682 -3.468677E-05
 0.001924579 0.004063179 0.006477708 0.009145087 0.01208406 0.01521869 0.01846272 0.02172926 0.02490212 0.02794033
 0.03077352 0.03342548 0.03588563 0.03820084 0.04039418 0.04244396 0.04436067 0.04604695 0.04748857 0.04864686
 0.04951492 0.05014927 0.05055267 0.05077955 0.05082872 0.05071122 0.05042523 0.04996664 0.0493389 0.0485411
 0.04759826 0.04654385 0.04544035 0.04438955 0.04343094 0.04265166 0.0420254 0.04156034 0.04122721 0.04101017
 0.04090793 0.04091626 0.04104009 0.04127552 0.04165171 0.04216416 0.0429144 0.04391026 0.04522768 0.04686442
 0.04866615 0.05061788 0.0525074 0.05435489 0.05614534 0.05790725 0.05972325 0.06159523 0.06356543 0.06562842
 0.06777952 0.07005627 0.07247131 0.07512516 0.07808916 0.08142919 0.08523802 0.08935966 0.09380117 0.09825139
 0.1026394 0.1068067 0.110712 0.1143852 0.1178217 0.1211332 0.1243284 0.1276142 0.1310112 0.1348234
 0.1390173 0.143645 0.1485522 0.1532606 0.1577423 0.1616557 0.1651808 0.168439 0.1715611 0.1747444
 0.1779818 0.1813339 0.1847452 0.1881984 0.191675 0.1951757 0.1986418 0.2020663 0.205371 0.2085341
 0.211611 0.2146036 0.2175889 0.2205665 0.2234074 0.2260983 0.2284408 0.2304614 0.2321734 0.2336353
 0.2350481 0.2364162 0.2378766 0.2393263 0.2406555 0.2418357 0.2427621 0.2435478 0.2442483 0.2449193
 0.2456239 0.2462922 0.2469174 0.2474253 0.2477895 0.2480229 0.2481175 0.2481502 0.2481259 0.2481161
 0.2481226 0.2481222 0.2481077 0.2479994 0.2477985 0.2474694 0.2470214 0.2464616 0.2458048 0.2450806
 0.2443125 0.2435452 0.2427981 0.2421042 0.2414815 0.2409424 0.2405314 0.2402674 0.2401997 0.240358
 0.2407211 0.2412969 0.2420147 0.2428634 0.243816 0.2448683 0.2460324 0.2473087 0.2487007 0.2502085
 0.2518325 0.2535755 0.2554523 0.2574636 0.2596198 0.2619178 0.2643546 0.2669315 0.26965 0.27251
 0.2755166 0.2786549 0.2819188 0.2852886 0.28875 0.2923048 0.2959446 0.2997034 0.3035858 0.3076257
 0.3118345 0.3161784 0.3206591 0.3251805 0.3297382 0.3342789 0.3387997 0.3432757 0.3476675 0.351769
 0.3555221 0.3585962 0.3610487 0.3628174 0.3640398 0.3649085 0.3654807 0.3659018 0.3661395 0.366214
 0.3660903 0.3657653 0.3651776 0.3643292 0.363064 0.3613346 0.359108 0.3563336 0.3533815 0.3502825
 0.347249 0.3442879 0.3412107 0.3380095 0.3345309 0.3307954 0.3268326 0.3226658 0.3184063 0.3140171
 0.3095116 0.3047478 0.2995012 0.2937159 0.2871233 0.2801205 0.2728979 0.2658038 0.2591539 0.2527515
 0.2465934 0.2404986 0.2343853 0.2283901 0.2225137 0.2169495 0.211723 0.2068025 0.2021856 0.1977024
 0.1933505 0.1890412 0.1847923 0.1806532 0.1766383 0.1728294 0.169208 0.1657799 0.1625078 0.1593367
 0.1562442 0.1531907 0.1501517 0.1471172 0.1440042 0.1407748 0.1373475 0.1336293 0.1298486 0.1260009
 0.1225222 0.1195124 0.1169345 0.114809 0.1128025 0.1108993 0.1089202 0.1068755 0.1048225 0.1027793
 0.1008811 0.09911314 0.09749433 0.09600711 0.09460587 0.09332145 0.09217375 0.09121389 0.09051494 0.09007562
 0.08992662 0.09002618 0.09035857 0.09090147 0.09163787 0.09258318 0.09372465 0.09515259 0.09686121 0.09907027
 0.1017999 0.1052153 0.1093222 0.1137785 0.1185382 0.1229353 0.126976 0.1303477 0.1331051 0.1352701
 0.1368773 0.1380001 0.1386889 0.1390324 0.1391251 0.1390907 0.1390255 0.1390523 0.1391777 0.1394591
 0.1397908 0.1401393 0.1404638 0.1407336 0.1410236 0.1413394 0.1417554 0.1422821 0.142918 0.1436631
 0.1444478 0.1452696 0.1460731 0.1468679 0.1476738 0.1485141 0.149478 0.1505817 0.1519179 0.1534593
 0.1552073 0.1571231 0.1591464 0.1613085 0.1636021 0.1660986 0.1688427 0.1718445 0.1751282 0.1786364
 0.182353 0.1862723 0.1903801 0.1947768 0.1994739 0.2045005 0.2098573 0.2152587 0.2206778 0.2256867
 0.2302925 0.2343171 0.2377919 0.2407467 0.2431683 0.2450521 0.2463479 0.246968 0.246893 0.246053
 0.2444934 0.2422144 0.2392989 0.2357834 0.2317497 0.2272272 0.2222966 0.2169635 0.2113814 0.2055552
 0.1997497 0.1939891 0.1884788 0.183231 0.1782372 0.17349 0.168884 0.1644268 0.1601059 0.1559471
 0.1520441 0.1483928 0.1450458 0.1419499 0.1390487 0.1362799 0.1335493 0.1308288 0.1280568 0.1252604
 0.1224264 0.1196275 0.1168841 0.1142611 0.1117842 0.109456 0.107286 0.1052224 0.1032614 0.1013597
 0.09951464 0.09774525 0.09605627 0.09451725 0.09312993 0.09194319 0.09094709 0.09013326 0.08948954 0.08898371
 0.08860772 0.08833666 0.0881606 0.08806235 0.08802559 0.08803666 0.08807078 0.08811672 0.08813845 0.088125
 0.08803344 0.08785354 0.08754618 0.08710364 0.08650221 0.08573724 0.08481655 0.08374024 0.08255496 0.08126491
 0.07993543 0.07857213 0.07723915 0.07594392 0.07474657 0.07365257 0.07270765 0.07190578 0.07126163 0.07075569
 0.0703745 0.07009278 0.06988917 0.06973793 0.06962138 0.06951828 0.0694166 0.06930711 0.06918436 0.06905086
 0.06890632 0.0687535 0.06859304 0.06842081 0.06823663 0.06803423 0.06781366 0.06757381 0.06731571 0.06704563
 0.06676389 0.06647709 0.0661803 0.06586707 0.06552742 0.06514077 0.06470366 0.06420001 0.06364257 0.06303307
 0.06239314 0.0617339 0.06107377 0.06042071 0.05979092 0.05918854 0.05863051 0.05812061 0.05766625 0.05726973
 0.05691907 0.05661382 0.05632816 0.05606078 0.05578744 0.05550883 0.05521537 0.05491165 0.05460758 0.05431116
 0.05404593 0.05381941 0.05365596 0.05355591 0.05353259 0.05357303 0.05367481 0.05381484 0.05398034 0.05415384
 0.05432396 0.05449048 0.05465014 0.05481187 0.05497706 0.05514961 0.05533015 0.05551893 0.05571586 0.0559307
 0.0561655 0.05645153 0.05679343 0.05723984 0.05778761 0.05846282 0.05923341 0.06004724 0.06084256 0.06149117
 0.06195103 0.06210443 0.06198955 0.06157884 0.06098109 0.06024457 0.05946605 0.05869962 0.05797195 0.05730432
 0.05667706 0.05608935 0.05552693 0.05498715 0.05447513 0.05399093 0.05354714 0.0531456 0.05281319 0.05255724
 0.05243807 0.05246366 0.05270698 0.05314878 0.0537994 0.0545839 0.05539454 0.05612834 0.05660906 0.05680589
 0.05660043 0.05611045 0.05534557 0.05449836 0.0536535 0.05290253 0.05230663 0.05178705 0.05134705 0.0508557
 0.05029429 0.04963756 0.04888114 0.04813879 0.04741958 0.04688784 0.04654393 0.04648254 0.04667407 0.04706717
 0.0476072 0.04812767 0.0485988 0.048875 0.04899997 0.04895626 0.04882921 0.04869098 0.04857958 0.04854926
 0.04856544 0.04862636 0.04870041 0.04876927 0.04886582 0.04898884 0.0491985 0.04950305 0.04992022 0.05045234
 0.05106259 0.05174808 0.05245675 0.05318742 0.05390615 0.05461585 0.05530858 0.05598996 0.05667054 0.05735383
 0.05805358 0.05876343 0.05948422 0.06020013 0.06089793 0.06156707 0.06219483 0.06278741 0.06334294 0.06387446
 0.06438605 0.0648815 0.06536245 0.06582692 0.06627431 0.06670985 0.06713375 0.06755665 0.0679786 0.06840122
 0.06882249 0.06922913 0.06961878 0.06997346 0.07029542 0.07057882 0.07083298 0.07107031 0.07130226 0.07154746
 0.07181448 0.07211447 0.07245955 0.07285539 0.07332563 0.07387906 0.07453953 0.07531782 0.07621448 0.07723565
 0.07834738 0.07954957 0.08078203 0.08204132 0.08326352 0.08444639 0.08555043 0.08657787 0.08752505 0.08839583
 0.08920355 0.08995043 0.09064634 0.0912981 0.09191746 0.09252318 0.09313993 0.09379132 0.09450762 0.09529744
 0.09618033 0.09713507 0.09816323 0.0992219 0.1003001 0.1013658 0.1024093 0.1034305 0.1044275 0.1054136
 0.1063898 0.1073555 0.1083101 0.109244 0.1101578 0.1110514 0.1119257 0.112787 0.1136309 0.1144524
 0.1152385 0.1159666 0.1166169 0.1171558 0.1175691 0.1178286 0.1179418 0.1178997 0.1177331 0.1174487
 0.1170852 0.1166514 0.1161866 0.115697 0.1152242 0.1147733 0.1143757 0.1140341 0.1137552 0.1135386
 0.1133742 0.1132609 0.1131858 0.1131484 0.1131368 0.1131544 0.1131998 0.1132869 0.1134373 0.1136722
 0.1140271 0.1145156 0.1151674 0.1159708 0.1169425 0.118014 0.1191857 0.1203023 0.1213385 0.1220922
 0.1225204 0.1225008 0.1220023 0.1210864 0.1197506 0.1182103 0.116478 0.1147892 0.1131466 0.1116846
 0.1103862 0.1092549 0.1082663 0.1073541 0.1065074 0.1056717 0.1048553 0.1040467 0.1032573 0.102498
 0.1017616 0.1010548 0.1003418 0.09961559 0.09882197 0.09794544 0.09694393 0.09580424 0.09452179 0.09309204
 0.09154315 0.08987617 0.08813134 0.08631095 0.08445648 0.08257033 0.08069005 0.07881705 0.07697721 0.07517096
 0.07341214 0.07170185 0.07004831 0.06845272 0.06692015 0.0654506 0.06404611 0.06270532 0.06142955 0.06021195
 0.05905244 0.05793547 0.05685739 0.05580314 0.05476845 0.05375 0.05274653 0.05176146 0.05079511 0.04984521
 0.04891139 0.04798495 0.04706542 0.04614491 0.0452241 0.0443009 0.04337807 0.04246182 0.04155544 0.04066895
 0.03980173 0.03895812 0.03813362 0.03732525 0.03653062 0.0357466 0.03497482 0.03421499 0.03346983 0.03274003
 0.03202778 0.03133411 0.03065714 0.02999754 0.02934532 0.0286998 0.02805329 0.02740596 0.02676598 0.02613445
 0.02552481 0.02493592 0.02436917 0.02382387 0.02329642 0.02279218 0.02231942 0.0218839 0.02149945 0.02116118
 0.0208719 0.02061826 0.02039219 0.02018572 0.01999077 0.01981479 0.01965623 0.01953301 0.01944851 0.01941482
 0.0194351 0.01950325 0.01961952 0.01976623 0.01994233 0.02012902 0.02032396 0.02050124 0.02065586 0.02075079
 0.02078389 0.02072665 0.02058735 0.02036596 0.02007816 0.0197445 0.01937837 0.0189995 0.01861527 0.01823568
 0.01786482 0.01750548 0.01716457 0.0168422 0.0165552 0.0163053 0.01611513 0.01598801 0.01593633 0.01596179
 0.01605796 0.01622423 0.01644453 0.01671828 0.01703383 0.01739162 0.01778827 0.0182229 0.01869401 0.01919369
 0.01970935 0.02022471 0.02071235 0.02116087 0.02154398 0.02187537 0.0221489 0.02240425 0.0226552 0.02293986
 0.02327602 0.02366917 0.02412843 0.0246193 0.02514118 0.02564075 0.026114 0.02652226 0.02686438 0.02713517
 0.02733755 0.02749358 0.02760755 0.02771074 0.02780555 0.02791647 0.02804073 0.02818546 0.02834414 0.02850882
 0.02867985 0.02885046 0.02903599 0.02924245 0.0294889 0.02978823 0.03014047 0.03055275 0.0309996 0.03147909
 0.03195854 0.0324332 0.03288437 0.03330989 0.03370668 0.03407468 0.03441636 0.03473234 0.03502826 0.03530628
 0.03557935 0.03584975 0.03613178 0.03642452 0.03673324 0.03705547 0.03738954 0.03773464 0.03809007 0.03845336
 0.03882399 0.03919553 0.03956477 0.03992796 0.04028202 0.04063146 0.04097608 0.04132371 0.04167528 0.0420366
 0.04240823 0.0427933 0.04319182 0.04360136 0.04402082 0.04443968 0.04485609 0.04525533 0.04563692 0.0459901
 0.0463195 0.04662671 0.04692329 0.04722595 0.04754399 0.04789608 0.04827564 0.04868687 0.04911169 0.04954146
 0.04996876 0.05038727 0.0508052 0.05122325 0.05164843 0.05208246 0.05252259 0.0529687 0.05341861 0.05387247
 0.05433824 0.05481734 0.05532661 0.05586631 0.05644844 0.05706867 0.05772094 0.05839886 0.05908532 0.05977888
 0.06047069 0.06115993 0.06184586 0.06251805 0.06317017 0.06379122 0.06437102 0.06491732 0.06542768 0.06592362
 0.06641012 0.06689738 0.06738909 0.06787502 0.06835517 0.06881005 0.06923882 0.06963025 0.06998571 0.07031365
 0.07061719 0.07091677 0.0712131 0.0715192 0.07183371 0.07215921 0.07249624 0.07284732 0.07321114 0.07358839
 0.0739743 0.07436299 0.07476109 0.07516633 0.07560065 0.07607141 0.0765904 0.07716451 0.07778 0.07843723
 0.07911254 0.07980432 0.08048995 0.08116834 0.08182392 0.08245888 0.08308697 0.08371508 0.08438681 0.08510406
 0.08589838 0.08676128 0.08769058 0.08867642 0.08970533 0.09076519 0.09184497 0.09291717 0.09396564 0.09495001
 0.0958508 0.09662773 0.09726405 0.0977338 0.09802257 0.0981522 0.09811662 0.09800094 0.09781021 0.09763685
 0.09748512 0.09739306 0.09735898 0.09737869 0.09745059 0.09756581 0.09772297 0.09791431 0.09813666 0.09838106
 0.09864151 0.09890992 0.09916878 0.09940141 0.09958159 0.09968205 0.09969951 0.0996175 0.09947114 0.09926595
 0.09904176 0.09880947 0.09858657 0.09837674 0.09819029 0.09802811 0.09790246 0.09781391 0.09776478 0.0977543
 0.09777534 0.09782653 0.09789724 0.09798647 0.09808312 0.09819221 0.09831859 0.09846853 0.09865921 0.09887801
 0.09911785 0.09936852 0.09960272 0.09987743 0.1001983 0.1006729 0.1013649 0.1022203 0.1032689 0.1042585
 0.1051448 0.105856 0.1063748 0.1068058 0.1071538 0.1074923 0.1078201 0.1081478 0.1084697 0.1087643
 0.1090222 0.1092011 0.1092945 0.1092619 0.1091143 0.1088494 0.1084843 0.1080396 0.1075169 0.1069208
 0.1062603 0.1055312 0.1047776 0.1040083 0.1032782 0.1026021 0.1020105 0.1015122 0.1011038 0.1007872
 0.1005279 0.100324 0.1001336 0.09995686 0.09978073 0.09960671 0.09944154 0.09927487 0.09908058 0.09883717
 0.09847774 0.09800436 0.09737526 0.09664476 0.09584495 0.09505234 0.09433583 0.09373433 0.09329806 0.09299017
 0.09282012 0.09269803 0.09260207 0.09248459 0.09232505 0.09218918 0.09207792 0.09209972 0.09225983 0.09257954
 0.09305084 0.09358792 0.09417912 0.09471295 0.09519222 0.09556104 0.0958434 0.09606373 0.09624764 0.09645054
 0.0966735 0.09694061 0.09723974 0.09756517 0.09792065 0.09830519 0.09872819 0.09919459 0.09970139 0.1002469
 0.1008388 0.1014769 0.1021796 0.102951 0.1037695 0.1046341 0.1054855 0.1063218 0.1071059 0.1078364
 0.1084931 0.1090659 0.1095067 0.1098113 0.1099379 0.1099086 0.1097371 0.1094529 0.1090936 0.108678
 0.1082268 0.1077654 0.1073109 0.1068833 0.106501 0.1061387 0.1057966 0.1054345 0.1050418 0.1046306
 0.1041993 0.1037914 0.1034089 0.1030491 0.1027075 0.1023255 0.1019008 0.1013846 0.1007909 0.1001374
 0.0994496 0.09879837 0.0981928 0.09768543 0.09725644 0.0969027 0.09660847 0.09635645 0.09615177 0.09600117
 0.09587768 0.09578738 0.09564384 0.09542903 0.09507301 0.09455579 0.09389033 0.09307276 0.09216768 0.09117851
 0.09016946 0.08914264 0.08814219 0.08716564 0.08622205 0.08530679 0.08440424 0.08352111 0.08266146 0.08184278
 0.08109807 0.0804311 0.07986312 0.07937916 0.07897724 0.0786351 0.07834649 0.07807323 0.07780249 0.07749795
 0.07713961 0.07675749 0.07634668 0.07599237 0.07570519 0.07549723 0.07536966</values></Ydata></AB><ScSm><Ydata ylabel="Single channel"><values byteorder="INTEL" format="FLOAT32" numvalues="1814"> 0.06948725 0.06949668 0.06956391 0.06971243 0.06991403 0.07010748 0.07024498 0.07032207 0.07035702 0.07035328
 0.07031223 0.07027936 0.0703328 0.07050495 0.07073585 0.07091534 0.07097055 0.07092934 0.07090589 0.07099012
 0.07112584 0.07112542 0.07084581 0.07035191 0.06987429 0.06959589 0.06953866 0.06970002 0.0701644 0.0708798
 0.07141133 0.07125419 0.07046786 0.06970284 0.0694783 0.06968429 0.06988463 0.06981764 0.06947954 0.06903142
 0.06884162 0.06938118 0.07076301 0.07236658 0.07305916 0.07190353 0.06882501 0.06483805 0.06168123 0.06088346
 0.06268094 0.06570132 0.06799449 0.06858869 0.06795791 0.06704468 0.06625227 0.06555669 0.06514271 0.06543368
 0.06650098 0.06767233 0.06787007 0.06651853 0.064229 0.06238332 0.06188128 0.06256381 0.06393388 0.06570336
 0.06704976 0.06618342 0.06210192 0.05682695 0.05450828 0.05747558 0.06375268 0.06900681 0.07041232 0.06820811
 0.06441361 0.06115846 0.05991385 0.06108999 0.06392099 0.06710465 0.06961466 0.07076953 0.07004808 0.06753056
 0.06434911 0.06214329 0.06205557 0.06428786 0.06805418 0.07163647 0.07316571 0.07201198 0.06920635 0.06634302
 0.06452566 0.06437711 0.06619122 0.06961082 0.07362033 0.07715307 0.07953204 0.08050531 0.08027541 0.07937792
 0.07827973 0.07731325 0.07697423 0.07761307 0.07863716 0.07873671 0.07731697 0.07528985 0.0741296 0.0743441
 0.07506964 0.07512511 0.07420903 0.07268779 0.07041261 0.0667294 0.06195244 0.05773475 0.05541529 0.05500816
 0.05618992 0.05882226 0.06179529 0.06294484 0.0614107 0.05915838 0.0590204 0.0616781 0.06531272 0.06784834
 0.06887169 0.0694983 0.07092096 0.07318488 0.07501248 0.07475598 0.07203075 0.06865302 0.0673613 0.06913152
 0.07224369 0.07440931 0.07519103 0.07576758 0.07686655 0.07763813 0.07653578 0.07314244 0.06917514 0.06744177
 0.06940319 0.07371259 0.0771876 0.07717359 0.07333365 0.06773152 0.0632171 0.06145293 0.06244116 0.06558502
 0.07035098 0.07574224 0.0800364 0.0817416 0.08069272 0.07795788 0.07463245 0.07084105 0.06630019 0.06195637
 0.06019713 0.06258543 0.06784895 0.07293661 0.07574902 0.07619476 0.07499769 0.0723888 0.06828286 0.06349774
 0.06017036 0.06011036 0.06263328 0.06493696 0.06503917 0.06358685 0.06242281 0.06226407 0.06242943 0.06226107
 0.06204201 0.06249633 0.06376562 0.06512786 0.06571782 0.06532975 0.06444202 0.06364247 0.06309947 0.06245804
 0.06133557 0.06007863 0.05973033 0.06089316 0.06290078 0.06450341 0.06512358 0.06506839 0.06470947 0.06385784
 0.06206401 0.05947805 0.0572136 0.05652566 0.0575892 0.05938634 0.0607739 0.06130848 0.06112284 0.06051025
 0.05973568 0.05895249 0.05823108 0.05773406 0.05768406 0.05804183 0.05843247 0.05851918 0.05827691 0.05783176
 0.05722664 0.05645328 0.05560779 0.05490661 0.05453487 0.05450039 0.05465668 0.05484133 0.05493372 0.05482204
 0.05444471 0.05388059 0.05329706 0.0527953 0.0523813 0.05206985 0.05191249 0.05190459 0.05194068 0.05189945
 0.0517405 0.05149686 0.05120344 0.05086771 0.05049947 0.05013939 0.04984963 0.04967336 0.04958969 0.04952136
 0.04941635 0.04930118 0.04921262 0.04910945 0.04891538 0.0486289 0.04833185 0.04810034 0.04794861 0.0478439
 0.0477361 0.04757152 0.04730705 0.04694605 0.04657395 0.04632498 0.04627536 0.04638419 0.04655468 0.04671152
 0.04680242 0.04679082 0.04668842 0.0465498 0.04640658 0.04624094 0.04603559 0.04582164 0.04566891 0.0456349
 0.04571379 0.04583687 0.04593194 0.04596943 0.04595142 0.04589759 0.04585145 0.04584996 0.0458703 0.0458496
 0.04576734 0.04567226 0.04562202 0.04562286 0.04563227 0.04560981 0.04556346 0.04554076 0.04557121 0.04563516
 0.04569728 0.04574819 0.04580025 0.04585766 0.04590037 0.04589659 0.0458383 0.04576307 0.04572194 0.04572773
 0.04575672 0.04579493 0.04585351 0.04593787 0.04602577 0.04608463 0.04610327 0.04610187 0.04610669 0.04611672
 0.04610707 0.04606687 0.04601833 0.04599259 0.04599939 0.04602458 0.04604661 0.04605095 0.04603423 0.04599961
 0.04595167 0.04589564 0.04583547 0.04577226 0.04571322 0.04567856 0.04568363 0.04571141 0.04571714 0.04566777
 0.04557149 0.04546667 0.04538544 0.04533014 0.04528389 0.04523739 0.04519645 0.04516644 0.0451433 0.04512268
 0.0451057 0.04509307 0.04508681 0.04510194 0.04516163 0.04526953 0.0453942 0.04549367 0.04555427 0.0455975
 0.04565115 0.04572371 0.04580738 0.04589644 0.04599777 0.04612383 0.0462729 0.04641867 0.04653176 0.04661429
 0.04669918 0.04681249 0.04695126 0.0470999 0.04724772 0.04738532 0.04750479 0.04761325 0.04773017 0.04786281
 0.0479968 0.04811838 0.04823381 0.04835923 0.04850129 0.04865786 0.04883301 0.04904095 0.04929332 0.04958409
 0.04988723 0.05017222 0.05042913 0.05068015 0.05096057 0.05128581 0.05163781 0.05198181 0.05229492 0.05258184
 0.05286492 0.05315777 0.05345435 0.05374958 0.05405973 0.05440585 0.05478247 0.05516089 0.0555227 0.05587416
 0.05622753 0.05658313 0.05693433 0.05728111 0.05763292 0.057999 0.05837665 0.05875089 0.0591075 0.05944485
 0.05977166 0.0600996 0.06044015 0.06079657 0.06115087 0.06147211 0.06175209 0.06202217 0.06231748 0.06263316
 0.06293632 0.06321549 0.06349465 0.06379677 0.06411553 0.06443198 0.06474324 0.06506291 0.06539865 0.06573769
 0.06605324 0.06632391 0.06655069 0.06675651 0.0669684 0.06720273 0.06746905 0.06777631 0.06812068 0.06847212
 0.06878969 0.06905301 0.06927048 0.06946331 0.06965446 0.06986508 0.07010331 0.0703579 0.07061017 0.07084683
 0.07105953 0.07125111 0.07144952 0.07169197 0.07198352 0.07229196 0.07259524 0.07290906 0.07325189 0.07360844
 0.07395365 0.07429597 0.07466521 0.07505918 0.07543147 0.07574031 0.07598554 0.07618687 0.07635414 0.07650241
 0.07667376 0.07690763 0.0771918 0.07746704 0.07768013 0.07781513 0.07787932 0.07788267 0.07783884 0.07777414
 0.07772491 0.07772536 0.0777986 0.07795815 0.07821147 0.07855146 0.07894358 0.07933162 0.07966239 0.07989933
 0.08001428 0.07998718 0.07982743 0.07958032 0.0792895 0.07895204 0.07852274 0.07795956 0.07725284 0.07641388
 0.07545573 0.07439632 0.07327604 0.07216547 0.0711529 0.07031864 0.06971519 0.06936936 0.06929538 0.0694897
 0.06990385 0.07043037 0.07092594 0.07125182 0.07130192 0.07101932 0.07041306 0.06956141 0.06858212 0.06758207
 0.06662126 0.06570979 0.06483141 0.06398011 0.06319044 0.06253733 0.06210805 0.06198727 0.06228078 0.06313105
 0.06465305 0.06680979 0.069352 0.0719133 0.07419501 0.07608402 0.07763078 0.07895327 0.08015904 0.08131087
 0.08242132 0.08347173 0.08444382 0.08533522 0.08614871 0.08687565 0.08749104 0.0879582 0.08824369 0.08834102
 0.08828692 0.0881536 0.08802217 0.08794851 0.08793011 0.08789463 0.08773179 0.08735295 0.08673255 0.08590576
 0.08493958 0.08392294 0.08301716 0.08253653 0.08292484 0.08452987 0.08731526 0.09080297 0.09434035 0.09744678
 0.09995394 0.101919 0.1034815 0.1047776 0.1059077 0.106931 0.107876 0.1087557 0.1095791 0.1103553
 0.1110927 0.1117941 0.11246 0.113094 0.1137005 0.1142807 0.1148383 0.1153855 0.1159355 0.1164892
 0.117036 0.1175648 0.1180749 0.1185756 0.1190764 0.1195756 0.1200634 0.1205352 0.1209951 0.1214512
 0.1219124 0.122385 0.1228628 0.1233241 0.1237499 0.1241418 0.1245153 0.1248817 0.1252418 0.1255963
 0.1259512 0.1263117 0.1266741 0.12703 0.1273773 0.1277214 0.1280622 0.1283898 0.1286973 0.1289921
 0.1292895 0.1295991 0.1299187 0.1302406 0.1305614 0.1308877 0.1312302 0.1315917 0.1319625 0.1323268
 0.1326731 0.1330023 0.1333271 0.1336605 0.1340039 0.134349 0.1346898 0.1350271 0.1353623 0.1356955
 0.1360279 0.1363618 0.1366949 0.1370206 0.1373351 0.1376427 0.1379506 0.1382601 0.1385663 0.1388699
 0.1391815 0.1395113 0.1398528 0.1401842 0.1404877 0.1407657 0.1410354 0.1413123 0.1416003 0.1418971
 0.1422023 0.1425192 0.14285 0.143193 0.1435417 0.1438873 0.1442222 0.1445446 0.1448592 0.1451734
 0.1454927 0.1458196 0.1461524 0.1464841 0.146808 0.1471232 0.1474342 0.1477465 0.1480627 0.1483826
 0.1487037 0.149022 0.1493356 0.1496466 0.1499611 0.150284 0.150613 0.1509377 0.1512506 0.1515563
 0.1518642 0.1521756 0.1524825 0.1527782 0.1530641 0.153349 0.1536425 0.1539484 0.1542613 0.1545729
 0.1548802 0.1551875 0.1555007 0.1558204 0.156139 0.1564491 0.1567522 0.1570555 0.157358 0.1576502
 0.1579268 0.1581933 0.1584584 0.1587282 0.1590052 0.1592886 0.1595763 0.159868 0.1601624 0.1604536
 0.1607385 0.1610243 0.1613204 0.1616247 0.1619261 0.1622173 0.1625018 0.1627891 0.1630833 0.1633789
 0.1636694 0.1639576 0.16425 0.1645469 0.1648454 0.1651456 0.1654483 0.1657514 0.1660528 0.16635
 0.1666383 0.166915 0.1671861 0.1674597 0.1677377 0.1680177 0.1682995 0.1685861 0.1688805 0.1691811
 0.1694821 0.1697813 0.1700819 0.1703832 0.1706774 0.1709622 0.1712451 0.171534 0.1718319 0.1721383
 0.1724467 0.1727477 0.1730407 0.173333 0.1736248 0.1739083 0.1741825 0.174455 0.1747337 0.1750228
 0.1753201 0.175616 0.1759042 0.1761907 0.1764819 0.1767737 0.1770607 0.1773431 0.1776205 0.177893
 0.1781653 0.1784387 0.1787078 0.1789724 0.1792356 0.1794938 0.1797439 0.179995 0.1802582 0.1805343
 0.1808195 0.1811073 0.181386 0.1816513 0.1819137 0.1821793 0.1824438 0.1827072 0.1829697 0.1832085
 0.183373 0.1833547 0.1828825 0.1814019 0.1780554 0.1718525 0.1620597 0.1486538 0.1324898 0.1150054
 0.09769298 0.08170351 0.06772053 0.05604312 0.04673624 0.03972787 0.03486624 0.03201714 0.03116832 0.03253776
 0.0366924 0.04421466 0.05443019 0.06427579 0.06948788 0.06796677 0.06177893 0.0552673 0.05144204 0.05053233
 0.05127901 0.05260337 0.0541545 0.05611182 0.05879997 0.06231005 0.06647839 0.07130022 0.07713415 0.08424886
 0.09227636 0.1003656 0.1079168 0.1150497 0.1223105 0.1300031 0.1378636 0.1453209 0.1519513 0.1576825
 0.1626929 0.1672196 0.1714353 0.175433 0.1792615 0.1829148 0.1862549 0.1889888 0.1908094 0.1916254
 0.1916686 0.1913654 0.1910856 0.190999 0.1911218 0.191427 0.191891 0.1924867 0.1931876 0.1939721
 0.1948153 0.1956864 0.1965602 0.1974195 0.1982486 0.1990324 0.1997588 0.2004194 0.2010145 0.2015553
 0.2020542 0.2025158 0.202942 0.2033378 0.2037089 0.2040628 0.2044093 0.2047527 0.2050857 0.2053975
 0.2056855 0.2059533 0.2062049 0.2064435 0.2066729 0.2068982 0.2071266 0.2073644 0.2076094 0.2078535
 0.208093 0.2083299 0.2085656 0.208798 0.209024 0.2092411 0.2094519 0.2096658 0.2098912 0.2101256
 0.2103608 0.2105941 0.2108243 0.2110458 0.2112565 0.2114677 0.2116953 0.2119431 0.212198 0.2124417
 0.2126693 0.2128962 0.2131416 0.2134063 0.2136755 0.2139382 0.2141934 0.2144419 0.2146881 0.214942
 0.2152047 0.2154579 0.2156817 0.215882 0.2160909 0.2163387 0.2166222 0.2169076 0.2171669 0.2174056
 0.2176473 0.2179027 0.2181613 0.2184052 0.2186315 0.2188655 0.2191419 0.2194622 0.2197899 0.2200975
 0.2203923 0.2206873 0.2209817 0.2212767 0.2215741 0.2218528 0.2220828 0.2222748 0.2224948 0.2228104
 0.2232216 0.2236526 0.2240249 0.2243299 0.2246147 0.2249201 0.2252573 0.2256035 0.2258818 0.2260085
 0.2260233 0.2261173 0.2264594 0.2270254 0.2276459 0.2281801 0.2286018 0.2289565 0.2292871 0.2295913
 0.2298242 0.229947 0.2299976 0.230115 0.2304467 0.2309976 0.2316121 0.232133 0.2325276 0.2328393
 0.2331069 0.2333566 0.2335607 0.2335826 0.2333201 0.2329658 0.232961 0.2335706 0.2345852 0.2355447
 0.2361914 0.236606 0.2369566 0.2372847 0.237551 0.2376759 0.2374403 0.2366134 0.2354174 0.2346556
 0.2350467 0.2364931 0.2382242 0.2395632 0.2403547 0.2407856 0.2410782 0.2413442 0.2415069 0.2413154
 0.2406216 0.2397435 0.2393837 0.2399809 0.2412158 0.2423526 0.2429917 0.2432804 0.2435147 0.2438095
 0.2440245 0.2437218 0.2424061 0.2402499 0.2384728 0.238491 0.2405302 0.2433563 0.245504 0.2465429
 0.2469648 0.2471063 0.2466534 0.2452053 0.2428665 0.2401996 0.2380678 0.2375327 0.2391507 0.2420792
 0.2445496 0.2456136 0.2459415 0.2466802 0.2480714 0.2494521 0.2501359 0.2499466 0.2490904 0.2477762
 0.2461232 0.2445335 0.2439075 0.2450029 0.2475168 0.2501955 0.2519966 0.2528826 0.2532742 0.2528292
 0.2501937 0.2446338 0.2380779 0.2345788 0.2367223 0.2429154 0.2491025 0.2527533 0.2542316 0.2548839
 0.2552553 0.254943 0.2528039 0.2475578 0.239777 0.2331751 0.232104 0.237244 0.2448351 0.2502007
 0.2509678 0.2473309 0.2411754 0.2354954 0.2331838 0.2352813 0.2405268 0.2466145 0.2515772 0.2543031
 0.254528 0.2527462 0.2501556 0.2483526 0.2481928 0.2485306 0.247073 0.2432805 0.2392772 0.2367167
 0.2341885 0.2298034 0.2253496 0.2250967 0.2302589 0.236982 0.2406791 0.2406656 0.2393233 0.2377363
 0.2338122 0.2252855 0.2139819 0.2058444 0.2056898 0.212188 0.2190335 0.2210662 0.2183321 0.2142751
 0.2112503 0.2083494 0.2030728 0.1948279 0.1866232 0.1825657 0.1835053 0.186254 0.1873064 0.1856185
 0.1813621 0.1747827 0.168213 0.166776 0.1739669 0.1872265 0.1999064 0.20668 0.20541 0.1959285
 0.180806 0.1669093 0.1620448 0.1679856 0.1783727 0.1846275 0.1827896 0.1741592 0.1615721 0.14748
 0.1350926 0.1286539 0.1308384 0.1400603 0.1507476 0.1561966 0.152218 0.1402856 0.1276702 0.1222081
 0.1252792 0.1309712 0.1327801 0.1295248 0.1243543 0.1205658 0.1196641 0.1213289 0.1237934 0.1254048
 0.1259382 0.1249078 0.1197737 0.1090232 0.09650746 0.08900342 0.08914624 0.09395 0.1002338 0.1075048
 0.1145833 0.1176286 0.1144615 0.1087386 0.1069065 0.1113717 0.1184186 0.122772 0.1228348 0.1210281
 0.1199737 0.1196307 0.1186218 0.1173504 0.1181347 0.1220035 0.1269024 0.1299865 0.1305926 0.1299976
 0.1292384 0.1283255 0.1269942 0.1251734 0.1229158 0.1204555 0.1181537 0.1161062 0.1140631 0.1118118
 0.109192 0.1056028 0.1001771 0.09311333 0.0864688 0.08262493 0.08186885 0.08247339 0.08318901 0.08402139
 0.08402034 0.08056429 0.07280773 0.06457703 0.06161907 0.0660694 0.07486466 0.08321681 0.08822693 0.08910981
 0.08580751 0.07930805 0.07313904 0.07233483 0.07934103 0.09167801 0.1046444 0.1153675 0.123174 0.1274325
 0.1272472 0.1233098 0.1186457 0.1169558 0.1203947 0.1285344 0.1384139 0.1452277 0.1446454 0.1371552
 0.1302405 0.1329289 0.1462075 0.1612936 0.1694873 0.1710842 0.1719416 0.1743475 0.1758039 0.175497
 0.1769665 0.1831688 0.1920163 0.1983743 0.1985537 0.1917616 0.1795658 0.1661996 0.1575417 0.1565903
 0.1603463 0.1633425 0.1631255 0.1599234 0.1532749 0.1434945 0.1354053 0.1354254 0.1440174 0.1546515
 0.1612103 0.1635846 0.1650475 0.166614 0.1658599 0.160681 0.1528163 0.1467884 0.1454031 0.1472461
 0.1490068 0.1489472 0.1470142 0.1429293 0.1363266 0.1287088 0.1234576 0.122967 0.1263012 0.1302153
 0.132183 0.1320429 0.1311322 0.1306506 0.1308908 0.1313933 0.1317394 0.1325902 0.1355886 0.1414704
 0.1486556 0.1547441 0.1592202 0.1636281 0.1691065 0.1747519 0.178675 0.180068 0.1800178 0.1806088
 0.1832683 0.1876076 0.1916727 0.1935792 0.1932918 0.1928305 0.1944149 0.1983305 0.2028722 0.2062692
 0.2081466 0.2091643 0.2099603 0.2106402 0.2107555 0.2096995 0.2076754 0.206255 0.2072837 0.2110387
 0.2159104 0.219969 0.2224459 0.2236809 0.2241598 0.2239731 0.2230814 0.2217818 0.2206977 0.2203152
 0.2206573 0.2214278 0.2223309 0.2231939 0.2239309 0.2245256 0.2250247 0.2254974 0.2260101 0.2266216
 0.2273405 0.2280819 0.2287282 0.229259 0.2297718 0.2303446 0.2309241 0.2313934 0.2316939 0.2318027
 0.2316338 0.2310688 0.2300943 0.2288212 0.2273502 0.2257106 0.2240137 0.2226275 0.2220794 0.2226801
 0.2242289 0.2261086 0.2276633 0.2285047 0.2286014 0.2282399 0.2278875 0.2279269 0.2284177 0.2291225
 0.2297636 0.2302257 0.2305402 0.2307634 0.2309146 0.2309865 0.2309409 0.2306734 0.2300481 0.2290642
 0.2280024 0.2273091 0.2272364 0.2276041 0.2279783 0.228081 0.2279729 0.2278591 0.2278013 0.227641
 0.2271468 0.2262248 0.225035 0.2239025 0.223053 0.2224211 0.221748 0.2208544 0.2197725 0.2186424
 0.2175525 0.216492 0.215402 0.2142368 0.2129846 0.2116517 0.2102395 0.2087441 0.2071757 0.205572
 0.2039864 0.2024532 0.2009618 0.1994663 0.1979225 0.196311 0.1946323 0.1928989 0.191144 0.1894167
 0.187739 0.1860521 0.1842135 0.1820519 0.1794222 0.1762246 0.1724154 0.1680379 0.1632427 0.1582615
 0.1533457 0.1487075 0.1444882 0.1407656 0.1375839 0.13497 0.1329248 0.1314203 0.130421 0.1299104
 0.1298976 0.1303945 0.1313744 0.1327467 0.1343783 0.1361336 0.1378878 0.1395242 0.1409679 0.1422398
 0.1434545 0.1447335 0.1461145 0.1475483 0.1489676 0.150329 0.1515896 0.1526869 0.1535717 0.1542477
 0.1547607 0.1551595 0.1554723 0.1556946 0.1557887 0.1557001 0.1553868 0.1548538 0.1542066 0.1536868
 0.1536002 0.1541395 0.1552476 0.1566575 0.158075 0.1593425 0.1604646 0.1615187 0.162561 0.1635998
 0.1646264 0.1656597 0.166774 0.1680885 0.1697119 0.1716864 0.1739786 0.1765053 0.1791569 0.1818068
 0.1843241 0.1865986 0.1885681 0.1902256 0.1915975 0.1927198 0.1936382 0.1944085 0.1950735 0.1956442
 0.1961161 0.196494 0.1967973 0.1970481 0.1972591 0.1974252 0.1975361 0.1976013 0.1976513 0.1977079
 0.1977667 0.1978112 0.1978352 0.1978492 0.1978683 0.1978941 0.1979079 0.1978902 0.1978364 0.1977458
 0.1976044 0.1973873 0.1970654 0.1966091 0.1959992 0.1952325 0.194308 0.193218 0.1919656 0.1905807
 0.1891134 0.1876222 0.1861624 0.1847658 0.1834225 0.182085 0.1806871 0.1791725 0.1775314 0.1758124
 0.174084 0.1723858 0.1707216 0.1690803 0.1674517 0.1658334 0.1642348 0.1626699 0.1611532 0.1597113
 0.1583809 0.1571728 0.1560475 0.1549428 0.1538313 0.1527485 0.1517671 0.1509395 0.1502653 0.1497106
 0.1492419 0.1488378 0.1484922 0.1482221 0.1480452 0.1479307 0.147797 0.1475727 0.1472462 0.146856
 0.1464548 0.1460865 0.1457716 0.145506 0.1452684 0.1450209 0.1447009 0.1442248 0.1435089 0.1424924
 0.1411598 0.1395483 0.1377341 0.1358188 0.1339248 0.1321737 0.1306488 0.1293857 0.1283886 0.1276246
 0.1270148 0.1264741 0.1259746 0.1255606 0.1253012 0.1252135 0.1252135 0.1251579 0.1249721 0.1247256
 0.1245645 0.1245873 0.1247904 0.1250904 0.1253801 0.1255842 0.1256781 0.1256618 0.1255447 0.1253518
 0.1251062 0.1248066 0.1244492 0.1240532 0.1236393 0.1232041 0.1227324 0.122204 0.1215943 0.1208996
 0.120145 0.1193411 0.1184613 0.1174707 0.1163412 0.115063 0.1137083 0.1124696 0.1115692 0.1111245
 0.1110976 0.1113362 0.1116688 0.1120037 0.1123061 0.1124691 0.1123494 0.112053 0.112068 0.112913
 0.1146218 0.116666 0.1183993 0.1194977 0.1199745 0.119933 0.1194431 0.1185697 0.1173551 0.115789
 0.1138825 0.1117195 0.1093928 0.1069892 0.1046475 0.1025162 0.1006675 0.0991241 0.09790251 0.0970493
 0.09666841 0.09645788 0.09491835 0.09011929 0.08262999 0.07687414 0.07743734 0.08393065 0.09124035 0.09495628
 0.09491621 0.09344415 0.09217364 0.09138659 0.09103113 0.09122152 0.09203879 0.0933459 0.09480563 0.09605857
 0.0969365 0.0974492 0.09755427 0.096969 0.09512715 0.0913747 0.08551523 0.07828989 0.07112108 0.065271
 0.06126739 0.05895202 0.0577978 0.05721509 0.05682936 0.0566248 0.05682627 0.0576376 0.05909209 0.06110701
 0.06357268 0.0662955 0.06892219 0.07109738 0.07272501 0.0739518 0.07489456 0.07551007 0.07571907 0.07552721
 0.07501384 0.07428661 0.07345439 0.07259361 0.07172003 0.07080573 0.06986018 0.06901192 0.06844965 0.06823539
 0.06823976 0.06830253 0.0683756 0.06847599 0.06859761 0.06871645 0.06882779 0.06896853 0.06921996 0.06963986
 0.07017054 0.07066794 0.07102735 0.07124305 0.07137044 0.07144759 0.0714183 0.07118258 0.07080022 0.07052147
 0.07045388 0.07032919 0.06982502 0.06903783 0.06842532 0.0683143 0.06862004 0.06901662 0.06924288 0.06924278
 0.06914158 0.06915991 0.06946766 0.06999996</values></Ydata></ScSm><ScRf><Ydata ylabel="Single channel"><values byteorder="INTEL" format="FLOAT32" numvalues="1820"> 0.06035405 0.06050247 0.06059887 0.06064302 0.06065539 0.06067473 0.06074296 0.06087866 0.06106145 0.06124137
 0.06137117 0.06143786 0.06145678 0.06143935 0.06139299 0.0613557 0.06139213 0.06153116 0.06172337 0.06187441
 0.06192093 0.06188617 0.06186645 0.06193575 0.0620437 0.06203078 0.06177808 0.06134475 0.06093078 0.06069409
 0.06065146 0.06079645 0.06120079 0.06182351 0.06229018 0.06215699 0.06146766 0.06078916 0.06058289 0.0607588
 0.06093281 0.06086974 0.06056426 0.0601616 0.05999108 0.06046925 0.06169236 0.06310801 0.06371351 0.06268211
 0.05995136 0.05642135 0.05363052 0.05293018 0.05452798 0.057208 0.05924174 0.05976784 0.05920999 0.05840967
 0.05772488 0.0571248 0.05676007 0.05700065 0.05791619 0.05892331 0.05907859 0.05787885 0.05586489 0.05425024
 0.05381756 0.05441965 0.05562141 0.05717513 0.0583573 0.05758998 0.05399361 0.04935448 0.04732785 0.04996015
 0.05550502 0.06014162 0.06137799 0.05942823 0.05608458 0.05323456 0.05216748 0.05322323 0.05571529 0.05850687
 0.06070928 0.06172252 0.06107948 0.05885314 0.05605204 0.05412425 0.05406742 0.05604913 0.05937362 0.06252907
 0.0638717 0.06284937 0.06037248 0.05784512 0.05623822 0.0561026 0.05770415 0.06073422 0.06429552 0.06743675
 0.06954814 0.07040183 0.07018401 0.06938495 0.06843056 0.06761127 0.0673476 0.06793264 0.06883851 0.06891559
 0.0676509 0.06585951 0.06484613 0.06505632 0.06572151 0.06579041 0.06498821 0.06363501 0.06160373 0.05832615
 0.05409135 0.05036724 0.04833628 0.04800802 0.04909998 0.0514927 0.05419342 0.05526692 0.05393814 0.05194592
 0.05180661 0.05413732 0.05733904 0.05957661 0.06048644 0.06106563 0.06237563 0.06444272 0.06611042 0.0659056
 0.0634982 0.06052439 0.05942967 0.06107061 0.06389948 0.0658799 0.06663749 0.06722845 0.06829159 0.0690567
 0.06814116 0.06518623 0.06175032 0.06035212 0.06227432 0.06627756 0.06949739 0.06955691 0.06616372 0.06119495
 0.05724204 0.05581278 0.05690949 0.06000691 0.06463842 0.06989115 0.07416692 0.07606497 0.07539394 0.07311134
 0.07023081 0.06687972 0.06280861 0.05894405 0.05758949 0.06024617 0.06568314 0.07096111 0.07405709 0.07487217
 0.07407684 0.07185021 0.06808071 0.06360717 0.06062894 0.06099623 0.06398796 0.06672293 0.06718428 0.06605846
 0.06524535 0.06546979 0.0660141 0.0662092 0.06639282 0.0673546 0.0692254 0.0711904 0.07228884 0.07228796
 0.07171591 0.07123986 0.07105915 0.07076468 0.06992117 0.06895252 0.06907684 0.07096912 0.07382479 0.07618325
 0.0773861 0.07780777 0.07787767 0.07733569 0.07561336 0.07290506 0.07060917 0.07029022 0.07216019 0.07494168
 0.07719504 0.07835845 0.07861054 0.07833885 0.0778773 0.07740414 0.07700199 0.07688596 0.07734794 0.07833374
 0.07935107 0.0799619 0.0801367 0.08003003 0.07967263 0.07904515 0.07830644 0.0777899 0.07776293 0.07822618
 0.07896093 0.07972647 0.08034091 0.08063608 0.08051763 0.08010417 0.07966107 0.07935843 0.07920621 0.07921456
 0.07945299 0.07990743 0.08040772 0.08076607 0.08092579 0.08094154 0.08087309 0.08074157 0.08056349 0.08039667
 0.08034196 0.0804701 0.08073272 0.08099487 0.08119247 0.08139485 0.08165506 0.08187129 0.08189166 0.08171662
 0.08151001 0.08142363 0.08147612 0.08159168 0.0816859 0.08168566 0.08152147 0.08118644 0.08081938 0.08065353
 0.08083121 0.08130267 0.08191204 0.08250798 0.08296515 0.08320893 0.08327131 0.08325453 0.08321019 0.08310592
 0.08292173 0.08273146 0.08267419 0.08285013 0.08323197 0.08367746 0.08404042 0.0842593 0.08435374 0.0843962
 0.08448722 0.08467434 0.08487445 0.08495107 0.08488861 0.08482254 0.08487507 0.08501404 0.08510171 0.08505762
 0.08494957 0.0849223 0.08504793 0.08526544 0.08546714 0.08561771 0.08577138 0.0859803 0.08619875 0.08629906
 0.08620677 0.08600132 0.08583739 0.08578053 0.08578292 0.08581208 0.08591551 0.08612566 0.08636702 0.08651628
 0.08653639 0.08650859 0.08652744 0.08659133 0.08661371 0.08652748 0.0863566 0.08619025 0.08610894 0.08613411
 0.08622423 0.08630575 0.08631922 0.0862532 0.0861418 0.08602978 0.0859424 0.08589509 0.08592409 0.08607339
 0.08632341 0.08654919 0.08659555 0.08641705 0.08613117 0.08591548 0.08584999 0.08586228 0.08581841 0.08565205
 0.08540443 0.08516154 0.0849769 0.08485032 0.08475491 0.08467197 0.08461424 0.08462411 0.08472909 0.08488038
 0.08495717 0.0848669 0.08463727 0.08438631 0.08421312 0.08413911 0.08413002 0.08413748 0.08413598 0.08414751
 0.08420867 0.08429743 0.08433294 0.08427183 0.08416605 0.08410794 0.08415677 0.08431908 0.08454113 0.08471161
 0.08473536 0.08463082 0.08451557 0.08448415 0.08453487 0.08461687 0.08470148 0.0847886 0.0848784 0.08496997
 0.08508052 0.08524215 0.08547054 0.08574027 0.08599303 0.08617412 0.08627398 0.08634409 0.08646736 0.08669773
 0.0870183 0.08735543 0.08763705 0.08784549 0.08801771 0.08819455 0.08838229 0.08857511 0.08879419 0.08907001
 0.08939287 0.08971614 0.09001052 0.09028782 0.09056999 0.09086058 0.0911538 0.09145925 0.09180777 0.09222101
 0.09266444 0.0930461 0.09329098 0.09341729 0.09352624 0.09372251 0.09404364 0.09443375 0.09477095 0.09496123
 0.09503774 0.0951378 0.09535338 0.09563792 0.09589493 0.09612349 0.0964193 0.09683785 0.09730625 0.09768929
 0.09792116 0.09805737 0.09820457 0.09840909 0.09862031 0.09876525 0.09884362 0.09892412 0.0990555 0.099226
 0.09942293 0.09968103 0.1000315 0.1004347 0.100806 0.1010941 0.1013049 0.1014659 0.1015955 0.1016948
 0.1017496 0.1017587 0.1017644 0.1018229 0.1019324 0.1020282 0.1020661 0.1020795 0.102135 0.1022679
 0.1024794 0.102761 0.1030834 0.1033884 0.1036409 0.1038844 0.1041968 0.1045733 0.1049009 0.1050794
 0.1051317 0.1051537 0.1051932 0.1052395 0.1053054 0.1054466 0.1056903 0.1059979 0.1063164 0.106633
 0.1069638 0.107312 0.1076434 0.1078977 0.1080265 0.1080348 0.1079893 0.1079832 0.1080868 0.1083152
 0.1086259 0.108949 0.1092281 0.1094314 0.1095335 0.1095213 0.1094398 0.1094009 0.1094961 0.1096959
 0.1098619 0.1098635 0.1096626 0.109289 0.1087772 0.1081566 0.1074816 0.1068354 0.1062952 0.1059023
 0.105673 0.1056331 0.1058249 0.1062622 0.1068821 0.1075647 0.1082013 0.108718 0.1090355 0.1090595
 0.1087485 0.1081692 0.1074571 0.1067335 0.1060659 0.1054682 0.1049089 0.104353 0.1038374 0.1035052
 0.1035412 0.1040663 0.1050774 0.1064492 0.1079724 0.1094227 0.1106488 0.1116257 0.1124251 0.1131336
 0.1137998 0.1144485 0.115106 0.1157792 0.1164275 0.1169939 0.117468 0.1178907 0.1182997 0.1186935
 0.1190456 0.119332 0.1195513 0.1197346 0.1199196 0.1200972 0.1202077 0.1202098 0.1201303 0.1200245
 0.1199094 0.1197509 0.1195008 0.1191359 0.1186917 0.1182871 0.1181059 0.118318 0.1189839 0.1200208
 0.121264 0.122567 0.1238365 0.1249898 0.1259305 0.1266033 0.1270477 0.1273665 0.1276479 0.1279319
 0.1282282 0.1285351 0.1288441 0.1291456 0.1294361 0.1297233 0.130024 0.1303482 0.1306777 0.1309735
 0.1312189 0.131449 0.1317255 0.1320773 0.1324698 0.1328381 0.1331545 0.1334523 0.1337698 0.1340876
 0.1343484 0.1345351 0.1346975 0.1349015 0.1351802 0.1355277 0.1359045 0.1362475 0.1365079 0.1366933
 0.1368567 0.1370435 0.1372611 0.1374955 0.1377365 0.1379809 0.1382275 0.1384816 0.1387574 0.1390598
 0.1393604 0.139608 0.1397782 0.1399058 0.1400547 0.140257 0.1404909 0.1407149 0.1409144 0.1411158
 0.141359 0.1416541 0.1419631 0.1422282 0.142421 0.1425611 0.1426915 0.1428435 0.1430231 0.1432205
 0.143425 0.143631 0.1438383 0.1440497 0.1442667 0.1444864 0.1447033 0.1449141 0.1451188 0.1453188
 0.1455151 0.1457109 0.145915 0.1461431 0.146409 0.1467059 0.1469982 0.1472446 0.1474302 0.1475733
 0.1477036 0.1478422 0.147999 0.1481762 0.1483689 0.1485675 0.1487645 0.1489608 0.1491621 0.1493706
 0.1495808 0.1497867 0.1499884 0.1501919 0.1504032 0.1506256 0.1508578 0.1510911 0.1513118 0.1515104
 0.1516906 0.1518677 0.1520581 0.1522641 0.1524715 0.1526641 0.1528419 0.1530184 0.1532039 0.1533969
 0.1535933 0.1537935 0.1539982 0.1542027 0.1544002 0.1545899 0.1547786 0.154972 0.1551673 0.1553582
 0.1555452 0.155734 0.1559277 0.1561238 0.1563197 0.1565166 0.1567179 0.1569251 0.1571343 0.1573385
 0.1575337 0.1577225 0.1579103 0.1581005 0.1582939 0.1584894 0.1586856 0.1588836 0.1590858 0.1592903
 0.159492 0.1596896 0.1598863 0.1600859 0.1602902 0.1604998 0.1607126 0.1609256 0.161139 0.1613546
 0.1615714 0.161786 0.1619978 0.1622105 0.1624281 0.1626505 0.1628722 0.163087 0.1632927 0.1634894
 0.1636759 0.1638522 0.1640222 0.1641898 0.1643565 0.1645253 0.1646987 0.1648745 0.1650509 0.1652327
 0.1654247 0.1656239 0.165825 0.1660277 0.1662342 0.1664451 0.1666559 0.1668575 0.1670448 0.1672288
 0.1674278 0.1676459 0.1678695 0.1680861 0.1682947 0.168502 0.1687152 0.1689342 0.1691514 0.1693627
 0.1695729 0.169784 0.1699905 0.170191 0.1703918 0.1705945 0.1707969 0.171003 0.1712188 0.1714408
 0.1716601 0.1718696 0.1720672 0.1722589 0.172456 0.1726618 0.1728705 0.1730819 0.1733013 0.1735261
 0.173748 0.1739633 0.1741708 0.1743717 0.1745762 0.1747923 0.1750129 0.1752291 0.1754465 0.1756702
 0.175893 0.1761093 0.1763179 0.1765048 0.1766296 0.1765867 0.1761056 0.1746433 0.1713664 0.1653134
 0.1557727 0.1427241 0.1270037 0.1100146 0.09321149 0.07771254 0.06417823 0.05289395 0.0439163 0.03716789
 0.03249443 0.02975699 0.02893488 0.03024012 0.03423714 0.04150585 0.05139349 0.06092148 0.0659524 0.0644561
 0.05844574 0.05213982 0.04845671 0.04760695 0.04835409 0.04964554 0.0511446 0.05302825 0.0556106 0.05898585
 0.06301118 0.0676907 0.07335608 0.080239 0.0879733 0.09575307 0.1030187 0.1098874 0.1168805 0.1242933
 0.1318785 0.13908 0.1454728 0.1509783 0.1557789 0.1601192 0.164171 0.168017 0.1716975 0.1752042
 0.1784036 0.1810132 0.1827404 0.1835016 0.1835197 0.1832002 0.1828962 0.1827735 0.1828526 0.1831109
 0.1835267 0.1840796 0.1847493 0.1855105 0.1863234 0.1871489 0.187968 0.1887705 0.1895379 0.1902524
 0.1909107 0.1915176 0.192078 0.1925965 0.1930746 0.1935089 0.1939001 0.1942584 0.1945979 0.1949312
 0.1952665 0.1955981 0.1959064 0.1961777 0.196418 0.1966435 0.1968643 0.1970818 0.1972936 0.1974983
 0.197699 0.1978995 0.1980987 0.1982937 0.1984878 0.1986858 0.1988883 0.1990944 0.1993045 0.1995167
 0.1997261 0.1999295 0.2001246 0.2003088 0.2004848 0.2006617 0.2008461 0.2010365 0.2012317 0.2014361
 0.2016509 0.2018666 0.2020683 0.2022487 0.2024196 0.2026055 0.2028205 0.2030537 0.203286 0.2035118
 0.2037359 0.2039563 0.2041667 0.2043653 0.2045527 0.2047257 0.2048853 0.2050437 0.2052191 0.2054216
 0.2056429 0.2058624 0.2060663 0.2062587 0.2064488 0.2066386 0.2068238 0.2070001 0.2071695 0.2073502
 0.2075694 0.2078329 0.2081142 0.2083838 0.2086339 0.2088674 0.2090883 0.2093073 0.2095297 0.2097372
 0.2099058 0.2100479 0.2102188 0.2104713 0.210804 0.2111542 0.2114523 0.2116839 0.2118892 0.2121164
 0.2123888 0.2126831 0.2129122 0.2129841 0.2129357 0.2129563 0.2132158 0.2136981 0.214243 0.2147092
 0.2150612 0.2153374 0.2155832 0.2158057 0.2159667 0.2160276 0.216023 0.2160855 0.2163523 0.2168233
 0.2173496 0.2177851 0.2181012 0.2183363 0.2185195 0.2186711 0.2187687 0.2186939 0.2183596 0.2179506
 0.2178809 0.2183942 0.2192852 0.2201136 0.2206372 0.2209406 0.2211948 0.2214487 0.2216651 0.2217585
 0.2215087 0.220689 0.219509 0.2187307 0.2190371 0.2203421 0.2219273 0.2231599 0.223888 0.2242774
 0.2245338 0.224765 0.2248966 0.224687 0.2239988 0.2231396 0.2227754 0.2233164 0.2244592 0.2255129
 0.2261056 0.2263774 0.2266019 0.2268768 0.2270595 0.2267382 0.225463 0.2234184 0.2217581 0.2217958
 0.2237193 0.2263606 0.2283497 0.2292901 0.2296497 0.2297525 0.2293094 0.2279427 0.2257425 0.2232251
 0.2211946 0.2206565 0.2221516 0.2248985 0.2272302 0.2282419 0.2285542 0.229248 0.2305637 0.2318852
 0.2325564 0.2323991 0.2316108 0.2304022 0.2288896 0.2274401 0.2268823 0.2279173 0.2302696 0.2327849
 0.2344986 0.2353671 0.2357696 0.2353798 0.2329338 0.2277507 0.2216416 0.2184041 0.2204605 0.2263194
 0.2321797 0.2356679 0.2371274 0.2378244 0.2382615 0.238043 0.2360848 0.2311898 0.2239169 0.2177833
 0.2168903 0.2218538 0.2291034 0.2342297 0.235014 0.231657 0.2259489 0.220721 0.2186967 0.2208471
 0.2259745 0.2318933 0.2367337 0.2394427 0.2397775 0.2382124 0.2358962 0.2343662 0.2344396 0.2350029
 0.2338538 0.230481 0.2269121 0.2247175 0.2225509 0.2186248 0.2146743 0.2148046 0.220173 0.2270587
 0.231053 0.2315249 0.2307823 0.2298436 0.2266497 0.2190047 0.2087398 0.2017517 0.2028468 0.2107571
 0.2192877 0.2233939 0.2231792 0.2220269 0.2220836 0.2220826 0.2191304 0.2125001 0.2055098 0.2027171
 0.2050382 0.2089131 0.2104858 0.2086542 0.2036382 0.1957416 0.1876368 0.1851399 0.1922642 0.2062684
 0.2198342 0.227101 0.2257432 0.2155756 0.1994224 0.1849279 0.1808212 0.1890494 0.2023972 0.2111501
 0.2107777 0.2026416 0.1898566 0.1752512 0.1627646 0.1577193 0.1635834 0.1785167 0.1954796 0.2056723
 0.2033313 0.1902585 0.1763532 0.1724581 0.1803972 0.1916962 0.1971086 0.1950346 0.1900774 0.1871402
 0.1886408 0.194173 0.2009159 0.2062618 0.2098791 0.2106591 0.2038726 0.1868409 0.1664126 0.1544678
 0.1555768 0.1645865 0.1761322 0.1894899 0.2024984 0.2081952 0.2026758 0.1925306 0.189289 0.197176
 0.2094767 0.216774 0.2162833 0.2123922 0.2098352 0.2086222 0.206415 0.2040227 0.2055781 0.2128746
 0.2222672 0.2287416 0.2311121 0.2315935 0.2320105 0.2324058 0.2323085 0.2315582 0.2302226 0.228711
 0.2276593 0.2272112 0.2268834 0.2263053 0.2251846 0.2221486 0.2150339 0.2039205 0.1930944 0.1876667
 0.1881442 0.1907408 0.1929981 0.1952181 0.1952105 0.1868365 0.1681268 0.1479171 0.1394226 0.1474698
 0.1648987 0.1807029 0.1884668 0.1869067 0.176537 0.1598191 0.143805 0.1379951 0.1466142 0.1645411
 0.1827549 0.1961132 0.2040412 0.2062634 0.2017555 0.1917508 0.181044 0.1752922 0.1775227 0.1867419
 0.1983222 0.2052895 0.2017011 0.1884771 0.1760392 0.1767078 0.1918231 0.2095935 0.2183575 0.2184331
 0.2175539 0.2188454 0.2191813 0.2175118 0.2183178 0.2253942 0.2362328 0.2444931 0.2455786 0.238452
 0.2250737 0.2109137 0.2035465 0.2065417 0.2153489 0.2222131 0.2236763 0.2201155 0.2111532 0.1976335
 0.1865476 0.1868221 0.1989757 0.2139324 0.2233384 0.2271648 0.2299437 0.2329648 0.232734 0.2263074
 0.2162508 0.2090775 0.2088062 0.2134254 0.2182698 0.2209451 0.2213401 0.2188115 0.21259 0.2049602
 0.2012862 0.20532 0.2152862 0.2255326 0.2315778 0.2328902 0.2315209 0.2294511 0.2272879 0.2244475
 0.2204578 0.2166512 0.2159206 0.2196395 0.2254764 0.2297829 0.2317712 0.2337965 0.2376612 0.2421432
 0.2444924 0.2434355 0.2403791 0.2381659 0.2387845 0.2417976 0.2446781 0.2449674 0.2426107 0.2402256
 0.2406926 0.2444105 0.2492377 0.2529352 0.2549914 0.2561616 0.2571605 0.2580356 0.2581342 0.2566018
 0.2535986 0.2509995 0.251058 0.2541649 0.258476 0.2618198 0.2634518 0.2639125 0.2638146 0.2632076
 0.2619492 0.2602937 0.2589012 0.2583092 0.2585431 0.2592595 0.2601029 0.2608582 0.2614235 0.2617933
 0.2620327 0.2621982 0.2623101 0.2624006 0.2625059 0.262592 0.2625821 0.2625006 0.2625028 0.2626962
 0.2629952 0.2632117 0.2632273 0.2629993 0.2624604 0.2615413 0.2602912 0.2588613 0.2573326 0.2556678
 0.2539361 0.2525449 0.2521096 0.2529953 0.2549801 0.2573894 0.2595493 0.2611196 0.2620917 0.2626093
 0.2628348 0.2629014 0.2628914 0.2628244 0.2626788 0.2624373 0.2621137 0.2617425 0.2613543 0.2609715
 0.2606187 0.2603167 0.2600566 0.2597927 0.2594724 0.2590734 0.2586113 0.2581183 0.2576091 0.2570584
 0.2564133 0.2556354 0.2547343 0.2537664 0.2528111 0.2519366 0.2511607 0.250437 0.2496953 0.2488904
 0.2479967 0.2469825 0.2458426 0.2446621 0.2435955 0.2427484 0.2420922 0.2415041 0.2408658 0.2401152
 0.2392396 0.238259 0.2372111 0.2361275 0.2350206 0.2338919 0.2327354 0.2315255 0.2302221 0.2288015
 0.227274 0.2256726 0.2240371 0.2223993 0.2207534 0.2190268 0.2170878 0.2147846 0.2119828 0.2085969
 0.2046199 0.2001391 0.1953211 0.1903702 0.1854825 0.1808168 0.1764971 0.1726285 0.1693001 0.1665764
 0.164498 0.1630946 0.1623934 0.1624123 0.1631452 0.1645519 0.1665557 0.1690426 0.1718636 0.1748478
 0.177823 0.1806367 0.1831945 0.1855036 0.1876558 0.1897283 0.191704 0.193509 0.1951042 0.1965042
 0.1977276 0.1987682 0.1996192 0.2003011 0.2008591 0.201336 0.2017506 0.202105 0.2024068 0.2026728
 0.2029124 0.2031242 0.2033109 0.2034895 0.203686 0.2039213 0.2041995 0.2045146 0.2048742 0.2053017
 0.2058047 0.2063581 0.2069307 0.2075156 0.2081244 0.208772 0.2094788 0.2102797 0.2112159 0.2123136
 0.2135658 0.2149323 0.2163493 0.2177314 0.2189748 0.2199839 0.220713 0.2211752 0.2214134 0.2214739
 0.2213989 0.2212227 0.220964 0.2206271 0.220212 0.2197213 0.219162 0.2185458 0.2178852 0.2171896
 0.2164688 0.2157402 0.2150275 0.214346 0.2136918 0.2130523 0.2124253 0.2118185 0.2112316 0.2106537
 0.2100787 0.2095079 0.2089392 0.2083693 0.2078042 0.2072444 0.2066559 0.2059775 0.2051665 0.2042287
 0.2031941 0.2020761 0.2008683 0.1995714 0.1982028 0.196776 0.1952862 0.1937242 0.1920925 0.1903945
 0.1886129 0.1867196 0.1847193 0.1826769 0.1806903 0.1788341 0.1771286 0.1755514 0.1740663 0.172652
 0.1713106 0.1700479 0.1688486 0.1676855 0.1665541 0.1654793 0.1644862 0.1635762 0.1627363 0.1619596
 0.1612518 0.1606174 0.1600508 0.1595479 0.1591179 0.1587718 0.1585109 0.1583408 0.1582763 0.15831
 0.1583892 0.1584438 0.1584284 0.1583385 0.1582035 0.1580646 0.1579479 0.1578579 0.1577905 0.1577244
 0.157598 0.1573169 0.1567858 0.155932 0.1547258 0.1531995 0.1514403 0.1495689 0.1477274 0.1460536
 0.1446362 0.1435025 0.1426405 0.1420041 0.1415144 0.1411065 0.1407771 0.1405745 0.1405514 0.1407145
 0.1409771 0.1411867 0.1412566 0.1412632 0.1413816 0.1417441 0.1423607 0.1431278 0.1439001 0.1445771
 0.1451225 0.1455165 0.1457488 0.1458533 0.145883 0.1458507 0.1457409 0.1455536 0.1453 0.1449877
 0.1446238 0.1442008 0.1436934 0.1430998 0.1424478 0.1417415 0.1409563 0.1400782 0.1390897 0.1379633
 0.1367562 0.1356733 0.1349696 0.1348093 0.1352011 0.1359989 0.1369905 0.1380412 0.1390775 0.1399135
 0.1402987 0.1402967 0.1404779 0.1415147 0.1435437 0.1460093 0.1481524 0.1495683 0.150263 0.1503528
 0.1499079 0.148986 0.1475963 0.14567 0.1432061 0.1403561 0.1372934 0.1341543 0.1311256 0.1284043
 0.1260803 0.1241723 0.122688 0.1216757 0.1212741 0.1211209 0.1193177 0.1134112 0.1041589 0.09721902
 0.09837612 0.1070315 0.1166257 0.1215704 0.1216976 0.119981 0.1184885 0.1175385 0.1170269 0.1171048
 0.117901 0.1192453 0.1207145 0.1218997 0.1226554 0.1230376 0.1229962 0.1221436 0.1197279 0.1149159
 0.1074666 0.09828594 0.08911535 0.08153618 0.076264 0.07316393 0.07160632 0.07083386 0.07032406 0.07002427
 0.07024547 0.07129945 0.07324423 0.07593454 0.07916997 0.0826741 0.08602518 0.08882445 0.0909721 0.09264562
 0.09399261 0.09496623 0.09546429 0.09549678 0.09517297 0.09460873 0.09389532 0.09309888 0.09221937 0.09118292
 0.08997646 0.0887911 0.08791624 0.08746384 0.08729672 0.08723053 0.08718879 0.08716412 0.08715441 0.08715688
 0.08716245 0.087177 0.08727159 0.08753797 0.08796178 0.0884033 0.0887251 0.08890281 0.08900569 0.089059
 0.08892427 0.08841997 0.08762749 0.08690435 0.08642885 0.08590159 0.08493724 0.08364891 0.08260044 0.08221008
 0.08238521 0.0827229 0.08288959 0.08278599 0.08253253 0.08240959 0.08267364 0.08325978 0.0837369 0.08371342
</values></Ydata></ScRf><Data_Parameters_AB><parameter name="DPF">1</parameter><parameter name="NPT">3497</parameter><parameter name="FXV">3996</parameter><parameter name="LXV">500</parameter><parameter name="CSF">1</parameter><parameter name="MXY">0.366214036941528</parameter><parameter name="MNY">-0.0613664835691452</parameter><parameter name="DAT">27/05/2022</parameter><parameter name="TIM">11:17:48.052 (GMT+2)</parameter><parameter name="DXU">WN</parameter></Data_Parameters_AB><AB__Qtest><MainReport name="Quality Test Report"><Header><Line><Legend>Test result ok/not ok [1/0]: </Legend><Value>0</Value></Line><Line><Legend>Method file: </Legend><Value>C:\Users\Public\Documents\Bruker\OPUS_8.2.28\QT\IRBT_v3_default.QT</Value></Line></Header><Matrix><Line><Legend></Legend><Legend>min</Legend><Legend>max</Legend><Legend>measured</Legend></Line><Line><Value>Absorption (X-Range 1):</Value><Value>0.400000</Value><Value>2.000000</Value><Value>0.296378</Value></Line><Line><Value>Noise (X-Range 4):</Value><Value></Value><Value>0.000300</Value><Value>0.000063</Value></Line><Line><Value>Signal/Noise (X-Range 2):</Value><Value>200.000000</Value><Value></Value><Value>81.330696</Value></Line><Line><Value>Signal/Noise (X-Range 3):</Value><Value>40.000000</Value><Value></Value><Value>48.301675</Value></Line><Line><Value>Water vapour (X-Range 5):</Value><Value></Value><Value>0.000300</Value><Value>0.000093</Value></Line><Line><Value>Signal/Water (X-Range 2):</Value><Value>100.000000</Value><Value></Value><Value>54.845294</Value></Line><Line><Value>Signal/Water (X-Range 3):</Value><Value>20.000000</Value><Value></Value><Value>32.572198</Value></Line><Line><Value>Fringes (X-Range 6):</Value><Value></Value><Value>0.000100</Value><Value>0.000064</Value></Line></Matrix></MainReport></AB__Qtest><Data_Parameters_ScSm><parameter name="DPF">1</parameter><parameter name="NPT">1814</parameter><parameter name="FXV">3996.33169228125</parameter><parameter name="LXV">499.541461535156</parameter><parameter name="CSF">1</parameter><parameter name="MXY">0.255255281925201</parameter><parameter name="MNY">0.0311683192849159</parameter><parameter name="DAT">27/05/2022</parameter><parameter name="TIM">11:17:48.052 (GMT+2)</parameter><parameter name="DXU">WN</parameter></Data_Parameters_ScSm><Data_Parameters_ScRf><parameter name="DPF">1</parameter><parameter name="NPT">1820</parameter><parameter name="FXV">4004.04661832813</parameter><parameter name="LXV">495.683998511719</parameter><parameter name="CSF">1</parameter><parameter name="MXY">0.263912528753281</parameter><parameter name="MNY">0.0289348773658276</parameter><parameter name="DAT">27/05/2022</parameter><parameter name="TIM">11:17:22.289 (GMT+2)</parameter><parameter name="DXU">WN</parameter></Data_Parameters_ScRf><Optic_Parameters_Rf><parameter name="APR">0</parameter><parameter name="APT">Open</parameter><parameter name="BMS">KBr</parameter><parameter name="DTC">RT-DLaTGS_IR-Biotyper [Microplate reader]</parameter><parameter name="HPF">0</parameter><parameter name="LPF">10.0</parameter><parameter name="LPV">4000</parameter><parameter name="PGR">0</parameter><parameter name="RCH">Module port</parameter><parameter name="RDX">0</parameter><parameter name="SRC">MIR</parameter><parameter name="VEL">10.0</parameter><parameter name="SON">Off</parameter></Optic_Parameters_Rf><Acquisition_Parameters_Rf><parameter name="ADT">1</parameter><parameter name="AQM">DD</parameter><parameter name="CFE">0</parameter><parameter name="COR">0</parameter><parameter name="DEL">0</parameter><parameter name="DLY">0</parameter><parameter name="HFW">8000</parameter><parameter name="LFW">0</parameter><parameter name="NSR">32</parameter><parameter name="PLF">AB</parameter><parameter name="RES">6</parameter><parameter name="RGN">-1</parameter><parameter name="STR">0</parameter><parameter name="TCL">MakeCompatibleScalar (0, {WSV=1.000000, ARV=0});</parameter><parameter name="TDL">37</parameter><parameter name="RPO">0</parameter></Acquisition_Parameters_Rf><FT_-_Parameters_Rf><parameter name="APF">B3</parameter><parameter name="HFQ">500</parameter><parameter name="LFQ">4000</parameter><parameter name="NLI">0</parameter><parameter name="PHR">24</parameter><parameter name="PHZ">ML</parameter><parameter name="SPZ">NO</parameter><parameter name="ZFF">1</parameter></FT_-_Parameters_Rf><Optic_Parameters_><parameter name="APR">0</parameter><parameter name="APT">Open</parameter><parameter name="BMS">KBr</parameter><parameter name="CHN">Module port</parameter><parameter name="DTC">RT-DLaTGS_IR-Biotyper [Microplate reader]</parameter><parameter name="HPF">0</parameter><parameter name="LPF">10.0</parameter><parameter name="LPV">4000</parameter><parameter name="PGN">0</parameter><parameter name="RDX">0</parameter><parameter name="SRC">MIR</parameter><parameter name="VEL">10.0</parameter><parameter name="SON">Off</parameter></Optic_Parameters_><FT_-_Parameters_><parameter name="APF">B3</parameter><parameter name="HFQ">500</parameter><parameter name="LFQ">4000</parameter><parameter name="NLI">0</parameter><parameter name="PHR">24</parameter><parameter name="PHZ">ML</parameter><parameter name="SPZ">NO</parameter><parameter name="ZFF">1</parameter></FT_-_Parameters_><Acquisition_Parameters_><parameter name="ADT">1</parameter><parameter name="AQM">DD</parameter><parameter name="CFE">0</parameter><parameter name="COR">0</parameter><parameter name="DEL">0</parameter><parameter name="DLY">0</parameter><parameter name="HFW">8000</parameter><parameter name="LFW">0</parameter><parameter name="NSS">32</parameter><parameter name="PLF">AB</parameter><parameter name="RES">6</parameter><parameter name="SOT">0</parameter><parameter name="TCL">MakeCompatibleScalar (0, {WSV=1.000000, ARV=0});</parameter><parameter name="TDL">37</parameter><parameter name="SPO">0</parameter><parameter name="SGN">-1</parameter></Acquisition_Parameters_><Instrument_Parameters_Rf><parameter name="HFL">15800.168544</parameter><parameter name="LFL">0</parameter><parameter name="LWN">15800.168544</parameter><parameter name="ABP">32197</parameter><parameter name="SSP">1</parameter><parameter name="ARG">2</parameter><parameter name="ASG">2</parameter><parameter name="ASS">32</parameter><parameter name="GFW">16</parameter><parameter name="GBW">16</parameter><parameter name="BFW">0</parameter><parameter name="BBW">0</parameter><parameter name="PKA">7268</parameter><parameter name="PKL">4996</parameter><parameter name="PRA">7442</parameter><parameter name="PRL">5001</parameter><parameter name="P2A">1</parameter><parameter name="P2L">1</parameter><parameter name="P2R">1</parameter><parameter name="P2K">1</parameter><parameter name="DAQ">0</parameter><parameter name="AG2">1</parameter><parameter name="SSM">1</parameter><parameter name="RSN">24824</parameter><parameter name="CRR">0</parameter><parameter name="SRT">1653650242.29</parameter><parameter name="DUR">19.635986328125</parameter><parameter name="TSC">27.2</parameter><parameter name="MVD">0.218144416809082</parameter><parameter name="AN1">0.225783160316544</parameter><parameter name="AN2">0</parameter><parameter name="VSN">2.485 Apr  4 2017</parameter><parameter name="SRN">0085</parameter><parameter name="CAM">0</parameter><parameter name="INS">IR-Biotyper</parameter><parameter name="FOC">69</parameter><parameter name="RDY">1</parameter><parameter name="ARS">32</parameter></Instrument_Parameters_Rf><Sample_Parameters_><parameter name="BLD"></parameter><parameter name="CNM">Admin</parameter><parameter name="CPY"></parameter><parameter name="DPM"></parameter><parameter name="EXP">IRBT_v3_32Scans.XPM</parameter><parameter name="LCT"></parameter><parameter name="SFM">Microplate, HTS-XT</parameter><parameter name="SNM">220527-1039(v.2)_ATH27F (D_2)_D2_4d5db319-5892-4f7b-af64-016c9cedf55d.0</parameter><parameter name="XPP">C:\Users\Public\Documents\Bruker\OPUS_8.2.28\XPM</parameter><parameter name="IST">OK</parameter><parameter name="CPG">1252</parameter><parameter name="UID">4754c44b-d512-40aa-9679-00576d0aab99</parameter></Sample_Parameters_><Instrument_Parameters_><parameter name="HFL">15800.168544</parameter><parameter name="LFL">0</parameter><parameter name="LWN">15800.168544</parameter><parameter name="ABP">32197</parameter><parameter name="SSP">1</parameter><parameter name="ASG">2</parameter><parameter name="ARG">2</parameter><parameter name="ASS">32</parameter><parameter name="GFW">16</parameter><parameter name="GBW">16</parameter><parameter name="BFW">0</parameter><parameter name="BBW">0</parameter><parameter name="PKA">6438</parameter><parameter name="PKL">4988</parameter><parameter name="PRA">6755</parameter><parameter name="PRL">4993</parameter><parameter name="P2A">1</parameter><parameter name="P2L">1</parameter><parameter name="P2R">1</parameter><parameter name="P2K">1</parameter><parameter name="DAQ">0</parameter><parameter name="AG2">1</parameter><parameter name="SSM">1</parameter><parameter name="RSN">13038</parameter><parameter name="CRR">0</parameter><parameter name="SRT">1653650268.053</parameter><parameter name="DUR">19.635986328125</parameter><parameter name="TSC">27.2</parameter><parameter name="MVD">0.211124256253242</parameter><parameter name="AN1">0.22580431571489</parameter><parameter name="AN2">0</parameter><parameter name="VSN">2.485 Apr  4 2017</parameter><parameter name="SRN">0085</parameter><parameter name="CAM">0</parameter><parameter name="INS">IR-Biotyper</parameter><parameter name="FOC">69</parameter><parameter name="RDY">1</parameter></Instrument_Parameters_><History/></OPUSDataFile>
