<?xml version="1.0" encoding="UTF-8" ?>
<OPUSDataFile><AB><Ydata ylabel="Absorbance Units"><values byteorder="INTEL" format="FLOAT32" numvalues="3497"> -0.05829512 -0.05831607 -0.05834867 -0.05839382 -0.0584384 -0.0584817 -0.05850838 -0.05851834 -0.05850532 -0.05847134
 -0.05842427 -0.0583668 -0.0583126 -0.05826252 -0.05822574 -0.0582008 -0.05819009 -0.05819008 -0.05819834 -0.05821035
 -0.05822145 -0.05823032 -0.05823373 -0.05823681 -0.05824037 -0.05825006 -0.05826829 -0.05829343 -0.05832609 -0.05836012
 -0.058395 -0.05842645 -0.05845422 -0.05847476 -0.0584879 -0.05849021 -0.05848238 -0.05846667 -0.0584442 -0.05842122
 -0.05839597 -0.05836774 -0.05833371 -0.05828653 -0.05823153 -0.05816906 -0.05811282 -0.05807538 -0.05805964 -0.0580753
 -0.05810308 -0.05813951 -0.05816309 -0.05816496 -0.0581491 -0.05811262 -0.05807979 -0.05805296 -0.05804565 -0.05805875
 -0.05808007 -0.05810849 -0.05812463 -0.05813042 -0.05812683 -0.05811866 -0.05812557 -0.05814648 -0.05819071 -0.05824973
 -0.05831303 -0.05837559 -0.05842588 -0.05846706 -0.05849906 -0.05852148 -0.05853635 -0.05853432 -0.0585109 -0.05846623
 -0.05839588 -0.05832226 -0.05824726 -0.05819608 -0.05817196 -0.05818295 -0.05822971 -0.05830483 -0.05840717 -0.05852082
 -0.05864313 -0.05875044 -0.05883996 -0.05888648 -0.05889435 -0.05885867 -0.05879144 -0.05871078 -0.05862413 -0.05854893
 -0.05848256 -0.05843019 -0.0583824 -0.05833571 -0.05828179 -0.05821444 -0.05813925 -0.05805346 -0.05797966 -0.05792069
 -0.05789676 -0.05791169 -0.0579576 -0.05803437 -0.05810742 -0.0581757 -0.05821621 -0.05823252 -0.05823547 -0.05822891
 -0.05823491 -0.05824993 -0.05827799 -0.0583104 -0.05833203 -0.05834331 -0.05833537 -0.05832113 -0.05830944 -0.05830553
 -0.05831774 -0.05833607 -0.05835776 -0.05837833 -0.05839344 -0.05841642 -0.05844846 -0.05850368 -0.05858539 -0.05868051
 -0.05878883 -0.05885095 -0.05886523 -0.0587912 -0.05864011 -0.05846599 -0.05827731 -0.05813667 -0.05803884 -0.05800311
 -0.05801908 -0.05808121 -0.05817199 -0.05827133 -0.05835899 -0.05840925 -0.05841995 -0.05837663 -0.05830631 -0.05821479
 -0.05812883 -0.05805962 -0.05800484 -0.05796719 -0.05793018 -0.0578918 -0.05784803 -0.0577984 -0.05775473 -0.05771777
 -0.05770135 -0.05770494 -0.0577332 -0.05778287 -0.05784598 -0.05791594 -0.05797222 -0.05801085 -0.05801237 -0.05798535
 -0.05792932 -0.05786187 -0.05779779 -0.05774751 -0.05772302 -0.05772088 -0.05774416 -0.0577806 -0.05782827 -0.05787454
 -0.05791688 -0.05794838 -0.05796792 -0.05797371 -0.05796557 -0.05794301 -0.05790592 -0.05785237 -0.0577824 -0.057694
 -0.05758948 -0.05747477 -0.05735609 -0.05725155 -0.05716671 -0.05712218 -0.05711273 -0.05714481 -0.05719836 -0.05726103
 -0.05731095 -0.05732907 -0.05731493 -0.05725892 -0.05718721 -0.05710296 -0.05703671 -0.05699566 -0.05698843 -0.05701799
 -0.05707145 -0.05714833 -0.0572299 -0.05731506 -0.05738457 -0.05743791 -0.05746022 -0.05745519 -0.05742747 -0.05738463
 -0.05734964 -0.05732423 -0.0573247 -0.0573423 -0.05737303 -0.05740836 -0.05743569 -0.05746363 -0.05749023 -0.05753668
 -0.05761408 -0.05772332 -0.05787385 -0.05802444 -0.05817174 -0.05826613 -0.05829918 -0.05827287 -0.0581864 -0.05807206
 -0.05793089 -0.05778004 -0.05762071 -0.05746829 -0.05732611 -0.057217 -0.05714047 -0.05710977 -0.05711551 -0.05715018
 -0.0571973 -0.05723143 -0.05724806 -0.05723066 -0.05719328 -0.05713995 -0.0570811 -0.05702349 -0.05696569 -0.05690904
 -0.05684839 -0.05678229 -0.05671216 -0.05663709 -0.05656987 -0.05651117 -0.0564763 -0.05646546 -0.05648311 -0.05652691
 -0.05658435 -0.0566498 -0.05669401 -0.05671307 -0.05667683 -0.05659696 -0.05647751 -0.05633801 -0.05620836 -0.05608986
 -0.05599716 -0.05591585 -0.05584142 -0.05576234 -0.05567013 -0.05557019 -0.05546044 -0.05535707 -0.05526322 -0.05518651
 -0.05512918 -0.05508299 -0.05504777 -0.05500595 -0.05495698 -0.05488995 -0.05480706 -0.05471899 -0.05462833 -0.05455229
 -0.05448933 -0.05444425 -0.05441407 -0.05439595 -0.0543867 -0.05438251 -0.05437726 -0.05436468 -0.05433968 -0.05429662
 -0.05423646 -0.05416062 -0.05406092 -0.05393846 -0.05377006 -0.05354938 -0.05327615 -0.05294638 -0.05260069 -0.05224125
 -0.05190974 -0.05160713 -0.05134798 -0.05113084 -0.05095294 -0.05081184 -0.0506975 -0.05060584 -0.05052094 -0.05044009
 -0.05035022 -0.05025261 -0.05014511 -0.05002506 -0.04989178 -0.04973546 -0.04954655 -0.04933142 -0.04908604 -0.04883605
 -0.04858988 -0.04835469 -0.04813526 -0.04791817 -0.04770214 -0.0474792 -0.04724831 -0.04702054 -0.04679694 -0.0465998
 -0.04642875 -0.04629442 -0.04618955 -0.04609308 -0.04599068 -0.04582906 -0.04560801 -0.04529118 -0.04491427 -0.0445082
 -0.04410353 -0.04374497 -0.04342709 -0.04316305 -0.04292852 -0.04271807 -0.04250591 -0.04228202 -0.04203903 -0.04177173
 -0.04149451 -0.04120868 -0.04092342 -0.04063987 -0.04034742 -0.04004556 -0.03972335 -0.03938281 -0.03903431 -0.03868068
 -0.03834045 -0.03801253 -0.03770331 -0.03741097 -0.03713497 -0.03687437 -0.03662918 -0.03639442 -0.03616676 -0.03593881
 -0.03570435 -0.03546141 -0.03520824 -0.03494248 -0.03466544 -0.03436349 -0.03403401 -0.03366806 -0.03326141 -0.03284011
 -0.03240499 -0.03200118 -0.03163013 -0.03131368 -0.03104904 -0.0308258 -0.03063801 -0.03045501 -0.03027224 -0.03005894
 -0.02981965 -0.02954654 -0.02925103 -0.02894636 -0.02863708 -0.0283347 -0.0280316 -0.02772615 -0.02741197 -0.02708313
 -0.02674762 -0.02640571 -0.02606879 -0.02573994 -0.02542074 -0.02511223 -0.02480937 -0.02451201 -0.02421139 -0.02390704
 -0.02358984 -0.02326013 -0.022916 -0.02255915 -0.02219608 -0.02182778 -0.02146042 -0.02109397 -0.02073015 -0.02037171
 -0.02002208 -0.01968604 -0.01937073 -0.01907399 -0.0187992 -0.018534 -0.01827438 -0.018009 -0.01773163 -0.01744639
 -0.0171515 -0.01686263 -0.01658207 -0.01631519 -0.01606311 -0.01581099 -0.01555802 -0.01528666 -0.01499797 -0.01469232
 -0.01437281 -0.0140541 -0.01373683 -0.01343126 -0.0131344 -0.01284534 -0.0125611 -0.01227644 -0.01199203 -0.0117062
 -0.01142153 -0.01113979 -0.01086076 -0.01058526 -0.0103106 -0.01003528 -0.009761611 -0.009489329 -0.00922399 -0.008967118
 -0.00871378 -0.008464114 -0.008202164 -0.00792753 -0.007636141 -0.007330248 -0.007027579 -0.006729847 -0.006456016 -0.006202151
 -0.005967896 -0.005746007 -0.005521331 -0.005290996 -0.005042442 -0.004782266 -0.004510564 -0.004238981 -0.003976188 -0.003726076
 -0.003495081 -0.003273113 -0.00305861 -0.002842207 -0.002619948 -0.002398448 -0.002177598 -0.001968649 -0.001772947 -0.0015849
 -0.001403837 -0.001210379 -0.001004494 -0.0007762428 -0.00052935 -0.0002750869 -1.826111E-05 0.0002197661 0.0004400303 0.0006313783
 0.0008047719 0.0009693626 0.001138057 0.001329496 0.001541643 0.001783222 0.002033528 0.002286343 0.002522144 0.002731219
 0.002914417 0.003067786 0.003211255 0.003346288 0.003494033 0.003656589 0.003839249 0.004041745 0.004248581 0.004458461
 0.004651963 0.004831408 0.004996324 0.005152195 0.005315952 0.005489137 0.005684928 0.005897291 0.00612467 0.00635749
 0.006586852 0.006803263 0.006997873 0.007165134 0.007298589 0.007403325 0.007476834 0.007537768 0.007588252 0.007650043
 0.007726674 0.007828198 0.007956204 0.008103637 0.008269996 0.008441532 0.00861815 0.008793559 0.008968404 0.009143794
 0.009317512 0.009484562 0.009640054 0.009769843 0.009875509 0.009949168 0.01000585 0.0100556 0.01011595 0.0102048
 0.01032136 0.01047439 0.01064059 0.01081558 0.01097608 0.0111143 0.01123019 0.01132117 0.01140567 0.01148514
 0.01156925 0.01165803 0.01173846 0.01180953 0.01185521 0.01187791 0.01188013 0.01186677 0.01185437 0.01184536
 0.01185287 0.01187666 0.01192226 0.01198761 0.01207432 0.01217494 0.01228606 0.0123981 0.01250375 0.01260539
 0.01270016 0.01280225 0.0129161 0.01304018 0.01317786 0.01329723 0.01339623 0.01344492 0.01344263 0.01340222
 0.01332766 0.01326402 0.01321129 0.0131956 0.0132085 0.0132363 0.01327419 0.01330185 0.01332784 0.0133557
 0.0133943 0.01345848 0.01353869 0.01363609 0.0137303 0.01380968 0.01386988 0.01390304 0.01392882 0.01394921
 0.01398535 0.01404197 0.01411806 0.01421494 0.01430913 0.01439934 0.01445702 0.01448194 0.01445918 0.01439264
 0.01429146 0.01416439 0.01404246 0.01393397 0.01387405 0.0138593 0.01390513 0.01399017 0.01410148 0.0142123
 0.014297 0.0143499 0.01435605 0.01433986 0.01430385 0.0142788 0.01427313 0.01429816 0.01435755 0.01444671
 0.01456555 0.014711 0.01488289 0.01507869 0.01529654 0.01551787 0.015738 0.01592251 0.0160696 0.01615223
 0.01617902 0.01615161 0.01608796 0.01601478 0.01594627 0.01591058 0.01590263 0.01593219 0.01597514 0.01602398
 0.01605411 0.01605418 0.01601742 0.01593798 0.01582921 0.015691 0.01554504 0.01539318 0.01525041 0.0151174
 0.01499518 0.01488341 0.01477799 0.0146803 0.01459506 0.01452483 0.01448208 0.01446436 0.0144759 0.0145045
 0.0145367 0.01455445 0.01453424 0.0144642 0.01432548 0.01412417 0.01385364 0.0135405 0.01318911 0.01283366
 0.01248237 0.01215782 0.01186531 0.0116088 0.0113896 0.01119998 0.01103948 0.01089293 0.01075925 0.01062049
 0.01047781 0.01032626 0.01017109 0.01002812 0.009898121 0.009794969 0.009705575 0.00961757 0.009515824 0.009374806
 0.009201459 0.008986549 0.008760708 0.008535723 0.008337747 0.008181546 0.008065648 0.007995712 0.007946381 0.007916543
 0.007871694 0.007808866 0.007701291 0.007547711 0.007347145 0.007102272 0.006841742 0.006569611 0.006323425 0.006102888
 0.005928563 0.005793911 0.00569643 0.005625406 0.005564726 0.005503166 0.005422628 0.00531732 0.005175028 0.005002377
 0.00479652 0.004576046 0.004345158 0.004124197 0.003919055 0.003739419 0.003588949 0.003460118 0.003353296 0.003249718
 0.003148418 0.003034146 0.002907349 0.002767949 0.002617955 0.002468681 0.0023206 0.002182387 0.002050721 0.001922881
 0.001794609 0.001657308 0.001510689 0.001350094 0.001179863 0.001001375 0.0008194947 0.0006372898 0.0004567491 0.0002792397
 0.0001053389 -6.465463E-05 -0.0002301234 -0.000390667 -0.000548096 -0.0007022859 -0.0008588292 -0.001018027 -0.001186104 -0.001362877
 -0.001548537 -0.001741726 -0.001934969 -0.002127175 -0.002309934 -0.002484771 -0.002650406 -0.002810164 -0.002969093 -0.003128415
 -0.00329248 -0.003458002 -0.003625305 -0.003786667 -0.003939684 -0.004073245 -0.004182135 -0.004262823 -0.00430984 -0.004343836
 -0.004364332 -0.0044117 -0.00448997 -0.004622457 -0.004810412 -0.005033923 -0.005289969 -0.005535329 -0.005769041 -0.00596238
 -0.00611935 -0.006237032 -0.006322813 -0.00638978 -0.006448992 -0.006522959 -0.006620712 -0.006764919 -0.00694639 -0.007171158
 -0.007409762 -0.007648694 -0.007866373 -0.008047858 -0.008202277 -0.008327951 -0.00844247 -0.008550973 -0.008643411 -0.008720523
 -0.008753074 -0.008739554 -0.008676032 -0.00856593 -0.008450819 -0.008336393 -0.008278852 -0.008276387 -0.008356093 -0.008504845
 -0.00870745 -0.008948336 -0.00919396 -0.00944045 -0.009668084 -0.009886011 -0.01009657 -0.0103029 -0.01051192 -0.01070675
 -0.0108837 -0.01102547 -0.01112302 -0.01119004 -0.01122465 -0.01126222 -0.01130683 -0.01137056 -0.01145424 -0.01153083
 -0.01159885 -0.01163011 -0.01162841 -0.01160107 -0.01155501 -0.01152044 -0.01149729 -0.01150246 -0.01152763 -0.01156624
 -0.01161273 -0.01165527 -0.01170057 -0.0117474 -0.01181098 -0.01189957 -0.01202175 -0.01218561 -0.01238087 -0.01260982
 -0.01284424 -0.01308107 -0.01329144 -0.01347136 -0.01361473 -0.01372096 -0.01381564 -0.01390086 -0.01401226 -0.01414833
 -0.01432038 -0.01452065 -0.01472741 -0.01493455 -0.0151143 -0.01527084 -0.01539666 -0.01550296 -0.01560003 -0.01569504
 -0.01579872 -0.01590862 -0.01602816 -0.01614656 -0.01626178 -0.01636043 -0.01643771 -0.01649107 -0.01651659 -0.01653635
 -0.01655079 -0.01659657 -0.01667585 -0.01680445 -0.01698018 -0.01717579 -0.01738654 -0.01756705 -0.01772033 -0.01782944
 -0.01790839 -0.01798258 -0.01806257 -0.01818236 -0.01833202 -0.01851813 -0.01871474 -0.0189025 -0.01906593 -0.0191869
 -0.01927583 -0.01933049 -0.01937115 -0.01940433 -0.01943325 -0.01946072 -0.01947531 -0.01947527 -0.01946332 -0.01943935
 -0.01943316 -0.01944641 -0.01951073 -0.01962299 -0.01978201 -0.01997836 -0.020177 -0.02037046 -0.02052126 -0.02063159
 -0.02068666 -0.02069596 -0.02066418 -0.02060137 -0.02051682 -0.02041776 -0.02031044 -0.02019897 -0.02008637 -0.01997382
 -0.019862 -0.01975209 -0.01964428 -0.01954056 -0.01944174 -0.01934214 -0.01924163 -0.01911846 -0.01897123 -0.01877372
 -0.01852763 -0.01822842 -0.01788356 -0.01751808 -0.01713871 -0.0167766 -0.01642928 -0.01610859 -0.01580447 -0.01550922
 -0.01521609 -0.01491559 -0.01460911 -0.01429467 -0.01397539 -0.01365241 -0.01332607 -0.0129955 -0.01266684 -0.01233892
 -0.01203207 -0.0117476 -0.01150939 -0.01131907 -0.0111825 -0.01109851 -0.01104892 -0.01103194 -0.01102604 -0.01103278
 -0.01104708 -0.01107046 -0.01110697 -0.01115018 -0.01119289 -0.01122393 -0.01122503 -0.01119553 -0.0111254 -0.01102831
 -0.01090945 -0.01077885 -0.01064446 -0.01049878 -0.01034221 -0.01016282 -0.009957346 -0.009727481 -0.009472101 -0.009205683
 -0.008928924 -0.008660938 -0.008403158 -0.008180093 -0.007993368 -0.007867478 -0.00780018 -0.007798444 -0.007853744 -0.00794881
 -0.008075316 -0.008208455 -0.008351028 -0.008491889 -0.008650318 -0.008834014 -0.009073368 -0.009386864 -0.0097975 -0.01032337
 -0.01095475 -0.01169959 -0.01250832 -0.01337759 -0.01424193 -0.0150942 -0.01588814 -0.01662017 -0.017279 -0.01786535
 -0.01839169 -0.01885942 -0.01928367 -0.01966442 -0.02000865 -0.02031771 -0.02059667 -0.02085142 -0.02109393 -0.0213302
 -0.02157467 -0.02182306 -0.02207948 -0.02232941 -0.02256517 -0.02277796 -0.02295984 -0.02311859 -0.02325371 -0.02337834
 -0.02349599 -0.02360623 -0.02371075 -0.02379128 -0.02384691 -0.02385469 -0.02381448 -0.02372084 -0.02357851 -0.02341535
 -0.02323991 -0.02310178 -0.02300408 -0.02298336 -0.02303021 -0.02314755 -0.02331784 -0.02352172 -0.02374307 -0.02396247
 -0.02416837 -0.02434915 -0.0244981 -0.02460905 -0.02468311 -0.02471819 -0.02472301 -0.02469838 -0.02465339 -0.02458849
 -0.02451555 -0.02443484 -0.02437848 -0.02434968 -0.0244077 -0.02455547 -0.02484721 -0.02527396 -0.02583556 -0.02650708
 -0.02722584 -0.02796728 -0.02865443 -0.02928659 -0.02982619 -0.03029804 -0.03070919 -0.0310865 -0.03145022 -0.03180808
 -0.03217016 -0.03252784 -0.03288165 -0.03321855 -0.03353663 -0.03382441 -0.03408008 -0.03429944 -0.0344818 -0.03463865
 -0.03477111 -0.03490103 -0.03502867 -0.03516761 -0.03531488 -0.03546619 -0.03561757 -0.03575583 -0.03588007 -0.03598136
 -0.03606376 -0.03612717 -0.0361805 -0.03623036 -0.03628675 -0.03635863 -0.03644767 -0.0365597 -0.03668069 -0.03680987
 -0.03692548 -0.03702252 -0.03709283 -0.03713328 -0.03715901 -0.03717057 -0.03719114 -0.03722118 -0.03726784 -0.03732903
 -0.03739193 -0.03745574 -0.03750823 -0.03755451 -0.03760145 -0.03765531 -0.03773351 -0.03783204 -0.03795672 -0.0380908
 -0.03822199 -0.03833623 -0.03841855 -0.0384727 -0.03849423 -0.0384993 -0.03849131 -0.03848338 -0.03847866 -0.03848341
 -0.03849859 -0.03852918 -0.03857567 -0.03863909 -0.03871906 -0.03880696 -0.03890152 -0.03898889 -0.039069 -0.03913353
 -0.03918465 -0.03922358 -0.03925344 -0.03928058 -0.03930704 -0.03933871 -0.03937441 -0.03941628 -0.03945889 -0.03950018
 -0.03953365 -0.03955527 -0.03956459 -0.03955911 -0.03954779 -0.03953117 -0.03952137 -0.03952025 -0.03953182 -0.03955672
 -0.0395887 -0.03962741 -0.03966573 -0.03970412 -0.03974281 -0.03978271 -0.03982814 -0.03987886 -0.03993672 -0.04000037
 -0.04006856 -0.04013913 -0.04020941 -0.04027607 -0.0403349 -0.04038484 -0.0404225 -0.04045347 -0.04047843 -0.04050571
 -0.04053859 -0.04057857 -0.04062742 -0.0406784 -0.04073104 -0.04077869 -0.0408207 -0.0408574 -0.04088904 -0.04092223
 -0.0409575 -0.0410027 -0.04105685 -0.04112075 -0.04119113 -0.04125923 -0.0413228 -0.04137211 -0.04141026 -0.04143654
 -0.04145673 -0.04147684 -0.04149767 -0.04152274 -0.04154686 -0.0415681 -0.04158453 -0.04159369 -0.04160254 -0.0416114
 -0.0416299 -0.04165973 -0.04170223 -0.04175796 -0.04181671 -0.04187783 -0.04192754 -0.04196588 -0.04198634 -0.0419907
 -0.04198284 -0.04196513 -0.04194614 -0.04192768 -0.04191709 -0.04191548 -0.04192749 -0.04195291 -0.04199393 -0.04204756
 -0.04211348 -0.04218582 -0.04226239 -0.04233748 -0.04240866 -0.04247418 -0.04253285 -0.04258727 -0.04263758 -0.04268642
 -0.04273411 -0.04277958 -0.0428227 -0.04285957 -0.04289022 -0.04291279 -0.0429282 -0.04293929 -0.04294768 -0.0429596
 -0.0429759 -0.04300195 -0.04303591 -0.04307871 -0.04312498 -0.04317017 -0.04320988 -0.04323873 -0.04325895 -0.04326902
 -0.04327647 -0.04328351 -0.04329407 -0.04330984 -0.04332878 -0.04335066 -0.04337515 -0.043402 -0.04343728 -0.04348122
 -0.04353755 -0.04360515 -0.04367645 -0.04374946 -0.04381042 -0.04385969 -0.04389016 -0.04390549 -0.04390935 -0.04390529
 -0.04390011 -0.04389451 -0.04389169 -0.04389106 -0.0438924 -0.04389768 -0.04390683 -0.04392499 -0.04395386 -0.04399637
 -0.04405463 -0.04412214 -0.04419925 -0.04427153 -0.04433795 -0.04438737 -0.04441956 -0.04443626 -0.04443873 -0.04443863
 -0.04443705 -0.04444564 -0.04446355 -0.04449524 -0.04453709 -0.04458489 -0.04463346 -0.04467336 -0.04470294 -0.04471543
 -0.04471657 -0.04470715 -0.04469572 -0.04468711 -0.04468375 -0.0446882 -0.04469664 -0.04470852 -0.04472172 -0.04473561
 -0.04475209 -0.04477127 -0.04479448 -0.0448217 -0.0448509 -0.0448818 -0.04491114 -0.04493871 -0.04496155 -0.04498003
 -0.04499319 -0.04500281 -0.0450117 -0.04502211 -0.04503915 -0.04506183 -0.04509216 -0.04512502 -0.04515767 -0.04518601
 -0.04520634 -0.04522118 -0.0452297 -0.0452388 -0.04525011 -0.04526639 -0.04528885 -0.04531265 -0.04533767 -0.04535669
 -0.04536943 -0.04537276 -0.04536699 -0.04535336 -0.0453325 -0.04530754 -0.04527964 -0.04525344 -0.04523086 -0.04521808
 -0.04521613 -0.04522983 -0.04525711 -0.04529877 -0.0453491 -0.0454053 -0.04546048 -0.04551089 -0.04555191 -0.0455809
 -0.04559754 -0.04560076 -0.04559444 -0.04557867 -0.04555896 -0.04553568 -0.04551357 -0.04549286 -0.04547731 -0.0454671
 -0.04546569 -0.04547279 -0.04548951 -0.04551421 -0.04554275 -0.04557311 -0.04559845 -0.04561974 -0.04563445 -0.04564699
 -0.0456612 -0.04567928 -0.04570532 -0.04573501 -0.04576782 -0.04579808 -0.04582306 -0.04584318 -0.04585753 -0.04587068
 -0.04588332 -0.04589706 -0.04591222 -0.04592688 -0.04594096 -0.04595324 -0.04596378 -0.04597262 -0.04597969 -0.04598451
 -0.04598722 -0.04598768 -0.04598688 -0.04598665 -0.04598821 -0.04599433 -0.04600503 -0.04602166 -0.04604287 -0.04606823
 -0.04609625 -0.04612616 -0.04615696 -0.0461885 -0.04621853 -0.04624707 -0.04626912 -0.04628408 -0.04628757 -0.04627889
 -0.04626118 -0.04623475 -0.04621045 -0.04618884 -0.04618026 -0.04618379 -0.04620096 -0.04622914 -0.04626113 -0.04629436
 -0.0463195 -0.04633643 -0.04634013 -0.04633397 -0.04631871 -0.04629994 -0.04628161 -0.04626811 -0.0462633 -0.04626634
 -0.04627902 -0.04629383 -0.04630997 -0.04631843 -0.0463172 -0.04630616 -0.04628456 -0.04626416 -0.04624558 -0.04624091
 -0.0462497 -0.0462722 -0.0463065 -0.04634298 -0.04638053 -0.04641037 -0.04643314 -0.04644588 -0.04644999 -0.04644606
 -0.04643596 -0.04642137 -0.04640489 -0.04638859 -0.04637514 -0.04636623 -0.04636375 -0.04636906 -0.04638121 -0.04640091
 -0.04642304 -0.04644733 -0.04646669 -0.04648039 -0.04648559 -0.04648218 -0.04647331 -0.0464594 -0.04644606 -0.04643344
 -0.04642529 -0.04642148 -0.04642363 -0.0464314 -0.04644522 -0.04646381 -0.0464861 -0.04650917 -0.04652975 -0.04654523
 -0.04655204 -0.04655121 -0.04654138 -0.04652789 -0.04651199 -0.04649882 -0.04649009 -0.04648672 -0.04648929 -0.04649597
 -0.04650673 -0.04651912 -0.04653301 -0.04654497 -0.04655492 -0.04656013 -0.04656142 -0.04656097 -0.04656068 -0.04656762
 -0.0465837 -0.04661638 -0.04666701 -0.04674116 -0.04683837 -0.04696169 -0.04710558 -0.04726911 -0.04744056 -0.04761442
 -0.04778077 -0.04793345 -0.04807466 -0.04820134 -0.0483314 -0.04846536 -0.048631 -0.04883074 -0.04908735 -0.04940167
 -0.04975509 -0.05014099 -0.05047946 -0.05076373 -0.05090947 -0.05092837 -0.05081066 -0.05057987 -0.05028301 -0.04993708
 -0.04958674 -0.0492448 -0.04894026 -0.04868215 -0.04848631 -0.04835456 -0.0482924 -0.04829638 -0.04836933 -0.04849507
 -0.04867619 -0.04886618 -0.04906137 -0.04920287 -0.04928325 -0.04929501 -0.04923778 -0.04914749 -0.04902538 -0.04889586
 -0.04875902 -0.04862703 -0.04850116 -0.0483935 -0.04830199 -0.04822985 -0.0481698 -0.04811219 -0.04805065 -0.04797406
 -0.04788096 -0.04776573 -0.04763229 -0.04747931 -0.04731767 -0.04714903 -0.0469895 -0.04684246 -0.04672215 -0.0466317
 -0.04657536 -0.04655463 -0.0465578 -0.04658423 -0.04661001 -0.04663417 -0.04663727 -0.04662079 -0.04658237 -0.04652535
 -0.04645978 -0.04638812 -0.04632118 -0.04625903 -0.04620726 -0.04616284 -0.04612499 -0.0460898 -0.04605324 -0.04601578
 -0.0459756 -0.04593787 -0.04590466 -0.04587692 -0.04585633 -0.04583656 -0.04581681 -0.04579304 -0.04576442 -0.04573526
 -0.04570574 -0.04568008 -0.04565796 -0.04563639 -0.04561525 -0.04559149 -0.04556698 -0.04554661 -0.04553199 -0.04553048
 -0.0455393 -0.04555848 -0.04558169 -0.04560167 -0.04561481 -0.04561483 -0.04560462 -0.04558329 -0.04555674 -0.04552703
 -0.04549738 -0.04546888 -0.04544317 -0.04542034 -0.0454041 -0.04539492 -0.04539431 -0.04540234 -0.04541233 -0.04542365
 -0.04542605 -0.04542002 -0.04540275 -0.04537621 -0.04534584 -0.04531289 -0.04528303 -0.04525638 -0.04523537 -0.0452203
 -0.04521252 -0.04521181 -0.04521953 -0.04523148 -0.0452468 -0.04525844 -0.04526336 -0.04525843 -0.04524124 -0.04521671
 -0.04518475 -0.04515382 -0.04512479 -0.04510221 -0.04508635 -0.04507665 -0.04507296 -0.04507328 -0.04507729 -0.04508223
 -0.04508755 -0.04508948 -0.04508851 -0.04508324 -0.04507605 -0.04507053 -0.04506741 -0.04507037 -0.04507491 -0.04507914
 -0.04507799 -0.04506689 -0.04504807 -0.04502013 -0.04499115 -0.04496306 -0.04494043 -0.0449249 -0.04491365 -0.04490675
 -0.04489906 -0.04489029 -0.0448789 -0.0448652 -0.04485277 -0.04484221 -0.04483918 -0.04484332 -0.04485703 -0.04487812
 -0.04490287 -0.04492866 -0.04494921 -0.04496386 -0.04496892 -0.04496627 -0.04495616 -0.0449404 -0.04492028 -0.04489605
 -0.04486775 -0.04483675 -0.04480266 -0.04477065 -0.04474122 -0.04472027 -0.04470869 -0.04470685 -0.04471486 -0.04472636
 -0.04474093 -0.04475114 -0.04475706 -0.04475517 -0.04474621 -0.04473094 -0.04471024 -0.04468631 -0.04466022 -0.04463467
 -0.04461048 -0.04458979 -0.04457248 -0.04455941 -0.04454929 -0.04454164 -0.04453547 -0.04452993 -0.04452624 -0.04452429
 -0.04452673 -0.04453408 -0.04454729 -0.04456673 -0.04458996 -0.04461689 -0.04464292 -0.04466775 -0.04468636 -0.04469851
 -0.0446998 -0.04469087 -0.04467117 -0.044643 -0.04461136 -0.04457895 -0.04455291 -0.04453364 -0.04452492 -0.0445246
 -0.0445324 -0.0445457 -0.04456321 -0.04458239 -0.04460236 -0.0446201 -0.04463485 -0.04464366 -0.04464578 -0.04464053
 -0.04462752 -0.0446098 -0.0445875 -0.04456665 -0.04454753 -0.04453542 -0.04452981 -0.04453048 -0.0445361 -0.04454147
 -0.04454585 -0.04454442 -0.04453808 -0.0445259 -0.04450985 -0.04449178 -0.04447374 -0.04445809 -0.04444581 -0.04443829
 -0.04443489 -0.04443568 -0.0444399 -0.04444713 -0.04445827 -0.04447352 -0.04449296 -0.04451695 -0.04454064 -0.04456378
 -0.04457927 -0.04458706 -0.04458525 -0.04457481 -0.04456107 -0.04454496 -0.04453328 -0.04452528 -0.04452309 -0.04452416
 -0.04452506 -0.04452391 -0.04451619 -0.04450379 -0.04448548 -0.04446739 -0.04445263 -0.04444568 -0.04445039 -0.04446287
 -0.0444839 -0.04450373 -0.04452063 -0.0445289 -0.04452718 -0.04451982 -0.04450694 -0.04449703 -0.04449021 -0.0444895
 -0.044494 -0.0444992 -0.04450448 -0.0445045 -0.04450051 -0.04449251 -0.04448286 -0.04447606 -0.04447284 -0.04447671
 -0.04448499 -0.04449727 -0.04450889 -0.04451673 -0.04451887 -0.04451295 -0.0445021 -0.04448633 -0.0444703 -0.04445501
 -0.04444227 -0.0444325 -0.04442528 -0.04442057 -0.04441901 -0.0444206 -0.04442631 -0.04443568 -0.04444624 -0.04445691
 -0.04446179 -0.04446086 -0.04445008 -0.04443259 -0.04441137 -0.04439099 -0.04437909 -0.04437586 -0.04438588 -0.04440198
 -0.04442194 -0.04443777 -0.04444462 -0.04444291 -0.04443075 -0.04441556 -0.04439832 -0.04438478 -0.04437596 -0.04437175
 -0.04437224 -0.04437453 -0.04437843 -0.04438053 -0.04438052 -0.04437423 -0.04436179 -0.0443408 -0.04431289 -0.04428049
 -0.04424644 -0.04421711 -0.0441938 -0.04418144 -0.04417788 -0.04418346 -0.0441944 -0.04420855 -0.04422355 -0.04423809
 -0.04425055 -0.04426065 -0.04426539 -0.04426409 -0.04425528 -0.04423832 -0.04421734 -0.04419254 -0.04416962 -0.04414865
 -0.04413038 -0.0441144 -0.044098 -0.04408119 -0.04406277 -0.04404292 -0.0440216 -0.04399869 -0.04397357 -0.0439473
 -0.0439204 -0.04389562 -0.04387575 -0.04386183 -0.04385617 -0.04385554 -0.04385976 -0.04386353 -0.04386519 -0.04386217
 -0.04385323 -0.04384098 -0.04382536 -0.04381113 -0.04379863 -0.04378878 -0.04378136 -0.04377179 -0.04375985 -0.04374126
 -0.04371687 -0.04368758 -0.04365496 -0.04362369 -0.04359464 -0.04357194 -0.04355479 -0.04354466 -0.04353804 -0.04353291
 -0.04352482 -0.0435098 -0.04348785 -0.0434567 -0.0434229 -0.04338749 -0.04335714 -0.04333366 -0.04331796 -0.04331057
 -0.04330898 -0.0433131 -0.04331961 -0.04332833 -0.04333599 -0.04334265 -0.04334729 -0.04335018 -0.04335215 -0.04335271
 -0.04335123 -0.04334636 -0.04333493 -0.04331701 -0.04329079 -0.04325854 -0.04322128 -0.043182 -0.04314271 -0.04310566
 -0.04307259 -0.04304336 -0.0430189 -0.04299553 -0.04297286 -0.04294696 -0.04291699 -0.04288432 -0.04284887 -0.04281616
 -0.04278634 -0.04276184 -0.04274219 -0.04272485 -0.04270943 -0.0426928 -0.04267549 -0.04265709 -0.04263898 -0.04262371
 -0.0426118 -0.04260598 -0.04260323 -0.04260264 -0.04259896 -0.0425881 -0.04256897 -0.04253888 -0.04250346 -0.0424637
 -0.04242447 -0.04238749 -0.04235118 -0.04231577 -0.0422771 -0.04223481 -0.04218845 -0.04213824 -0.04208906 -0.04204144
 -0.04200211 -0.04197075 -0.04195015 -0.04193839 -0.04193203 -0.04192854 -0.04192152 -0.0419096 -0.04188811 -0.04185763
 -0.04181672 -0.04176746 -0.04170983 -0.04164879 -0.04158567 -0.04152709 -0.04147537 -0.04143384 -0.0414042 -0.04138297
 -0.04137016 -0.04136022 -0.0413527 -0.04134525 -0.04133784 -0.04133151 -0.04132603 -0.04132047 -0.04131325 -0.04129687
 -0.04127041 -0.04122558 -0.04116672 -0.04109728 -0.04102375 -0.04095742 -0.0408987 -0.04085295 -0.04081555 -0.04078503
 -0.04075814 -0.04073283 -0.04070861 -0.04068517 -0.04066129 -0.04063697 -0.04060945 -0.04057841 -0.04054172 -0.04049916
 -0.04045035 -0.04039538 -0.04033666 -0.04027474 -0.04021541 -0.04015887 -0.04010954 -0.0400664 -0.04002907 -0.03999598
 -0.03996425 -0.039932 -0.03989596 -0.03985377 -0.03980134 -0.03973986 -0.03966713 -0.03959118 -0.03951471 -0.03944476
 -0.03938521 -0.03933347 -0.0392902 -0.03924874 -0.03920795 -0.03916732 -0.03912666 -0.03908874 -0.03905335 -0.03901425
 -0.03897002 -0.03890495 -0.03881977 -0.038707 -0.03857357 -0.03843514 -0.03829833 -0.03818597 -0.03809438 -0.03803026
 -0.03798214 -0.03794201 -0.03789978 -0.03784504 -0.03777794 -0.03769453 -0.03760328 -0.03750607 -0.03740876 -0.03731376
 -0.03721815 -0.03712248 -0.03701731 -0.03690184 -0.03677249 -0.03662957 -0.03648537 -0.03634062 -0.0362079 -0.03608529
 -0.03597095 -0.03586187 -0.035748 -0.03562837 -0.03549563 -0.03535184 -0.03519625 -0.03503253 -0.0348639 -0.03469301
 -0.03452424 -0.03435271 -0.03418006 -0.03399043 -0.03377898 -0.03353615 -0.03325563 -0.03295645 -0.03263906 -0.03233107
 -0.03203511 -0.03175673 -0.03149591 -0.03124489 -0.0310034 -0.03076695 -0.0305346 -0.03030085 -0.03006227 -0.02980495
 -0.02952862 -0.02922231 -0.02889733 -0.02856384 -0.02823382 -0.02792577 -0.02763575 -0.02736832 -0.02711205 -0.02686235
 -0.02661311 -0.02636113 -0.02610573 -0.02584801 -0.02557748 -0.02529551 -0.02496775 -0.02459154 -0.02414277 -0.02362202
 -0.02307415 -0.02250301 -0.02196544 -0.02145495 -0.02096981 -0.02050256 -0.02002858 -0.01954821 -0.01905137 -0.01853838
 -0.01801067 -0.01745346 -0.01685947 -0.01619619 -0.0154388 -0.01456928 -0.01355908 -0.01245959 -0.0112705 -0.01008565
 -0.008927422 -0.007838161 -0.006829571 -0.005890171 -0.005020809 -0.004192832 -0.003404102 -0.002605228 -0.001790551 -0.0008814801
 0.0001162848 0.001230555 0.002424079 0.003590408 0.004718684 0.005722203 0.006641106 0.007498248 0.008323205 0.009158781
 0.01000449 0.01087249 0.01175758 0.01265802 0.01357855 0.01452468 0.01547824 0.01643902 0.01737467 0.01827828
 0.01915423 0.02000212 0.02083514 0.02165277 0.0224178 0.02312687 0.02372931 0.02423086 0.02463123 0.02494229
 0.02520081 0.02541295 0.02561088 0.02579064 0.02595891 0.02611393 0.02625415 0.02638509 0.02651177 0.026632
 0.02674808 0.02684898 0.0269313 0.02698887 0.027019 0.02702372 0.02700276 0.02696007 0.02689587 0.02681494
 0.02671756 0.02660997 0.02649214 0.02636649 0.02623211 0.02608513 0.02592577 0.02575077 0.02556525 0.02537656
 0.02519359 0.02503311 0.02489875 0.02480036 0.02473819 0.02471214 0.02473263 0.02480377 0.02493613 0.02513824
 0.02539514 0.02570678 0.02604931 0.02641773 0.02681258 0.02723299 0.02769196 0.0281899 0.02872721 0.02930274
 0.02990494 0.03053301 0.03117688 0.03183677 0.03250743 0.03319099 0.03388822 0.03460427 0.03534703 0.03611998
 0.03693117 0.03777684 0.03865855 0.03956648 0.04049786 0.04143962 0.04238796 0.04332962 0.04426128 0.04517387
 0.04606586 0.04693052 0.04776714 0.0485712 0.04934271 0.05009331 0.0508245 0.0515604 0.05229525 0.05301605
 0.05370782 0.05431017 0.05482601 0.05522726 0.05553523 0.05577267 0.05594765 0.05607997 0.05616248 0.05619611
 0.05617385 0.0560975 0.05594261 0.05571095 0.05533822 0.05480603 0.05409424 0.05318163 0.05221103 0.05119366
 0.05022166 0.04929817 0.04835772 0.04739719 0.04636015 0.04525272 0.04407931 0.04284481 0.04157433 0.04025235
 0.03886688 0.03737837 0.03570656 0.03386953 0.03180987 0.02970023 0.02765651 0.02576988 0.02415272 0.02268956
 0.02136415 0.02008249 0.01880963 0.01755716 0.01631957 0.0151396 0.0140226 0.0129609 0.01195378 0.01095263
 0.009956029 0.008929708 0.007879594 0.0068169 0.005752997 0.004732567 0.00375886 0.002865047 0.002038314 0.001275406
 0.0005588553 -0.0001299779 -0.0008060896 -0.001481983 -0.00218011 -0.002914053 -0.00370094 -0.004564821 -0.005440962 -0.006328814
 -0.00711406 -0.007769749 -0.008310641 -0.008732113 -0.009118461 -0.009473607 -0.009836849 -0.0102059 -0.01056652 -0.01091629
 -0.01123315 -0.01152142 -0.01178595 -0.01202726 -0.01225273 -0.01245127 -0.01260841 -0.0127169 -0.01275907 -0.01274603
 -0.01267949 -0.01257272 -0.01243493 -0.01226619 -0.01207016 -0.01183742 -0.01156927 -0.01124259 -0.01085764 -0.01036714
 -0.009766334 -0.009025925 -0.008145034 -0.007206602 -0.006219597 -0.005320342 -0.004503848 -0.00381366 -0.003234962 -0.002739692
 -0.002320709 -0.001950546 -0.001622407 -0.001320057 -0.001022222 -0.0007042264 -0.0003379861 0.0001150378 0.0006362583 0.0012403
 0.001851139 0.00243905 0.002981025 0.003458481 0.0039125 0.004346695 0.004794313 0.005260029 0.005743398 0.006244478
 0.006741913 0.007235139 0.007709676 0.008168761 0.00862098 0.009073897 0.009557964 0.01007787 0.01066424 0.01130513
 0.01199739 0.01272327 0.01345751 0.01420286 0.01495192 0.0157151 0.01650034 0.01729784 0.01810908 0.01891034
 0.01969514 0.02045398 0.02118295 0.02189155 0.02258069 0.02325315 0.02390903 0.0245195 0.02508163 0.02555043
 0.02592489 0.02617702 0.0263068 0.02630062 0.0261558 0.02585894 0.02540929 0.02479604 0.02403033 0.02311469
 0.0220763 0.02093288 0.01971589 0.01844778 0.01714102 0.01580713 0.01443885 0.01303269 0.01160229 0.01014341
 0.00871595 0.007324727 0.006020423 0.00480596 0.003672477 0.002617659 0.001607515 0.000643404 -0.0002847097 -0.001171265
 -0.002000174 -0.002771557 -0.003474973 -0.004119726 -0.004714914 -0.005271866 -0.005806716 -0.006326568 -0.006842908 -0.007355612
 -0.007869257 -0.008375548 -0.008873407 -0.009352027 -0.009807549 -0.01023888 -0.01064364 -0.01103596 -0.01141671 -0.01180094
 -0.01218954 -0.01257599 -0.0129583 -0.01330724 -0.01362209 -0.01388188 -0.01409131 -0.01425642 -0.014381 -0.01447871
 -0.01454668 -0.01458671 -0.01459416 -0.01456232 -0.01449469 -0.01438793 -0.01425879 -0.01411238 -0.013972 -0.01384712
 -0.013753 -0.01369623 -0.01367825 -0.01370084 -0.01375839 -0.01385084 -0.01396952 -0.01411397 -0.01427172 -0.01444209
 -0.01461329 -0.01478517 -0.01495154 -0.01511156 -0.01525971 -0.01539358 -0.01550417 -0.01559114 -0.01564837 -0.01568086
 -0.01569099 -0.01568622 -0.01567342 -0.01565659 -0.01564039 -0.0156237 -0.01560766 -0.01558818 -0.01556425 -0.0155338
 -0.01549554 -0.01545446 -0.01541042 -0.01537441 -0.01534706 -0.01533635 -0.01534203 -0.01536215 -0.01539519 -0.01543082
 -0.01546794 -0.01549611 -0.01551725 -0.01552943 -0.01553819 -0.01555133 -0.01557444 -0.01561802 -0.01568209 -0.0157715
 -0.0158802 -0.01600665 -0.01614427 -0.01629044 -0.0164404 -0.01659325 -0.01674218 -0.0168868 -0.01701594 -0.01712841
 -0.01721658 -0.01727985 -0.0173226 -0.01734547 -0.01735971 -0.01736493 -0.01736487 -0.01735726 -0.01733495 -0.01729741
 -0.01723857 -0.01716186 -0.01707015 -0.01696721 -0.01685891 -0.01674661 -0.01663318 -0.01651931 -0.01640608 -0.0162939
 -0.01618402 -0.01607267 -0.01595962 -0.01583894 -0.01570884 -0.015571 -0.01542455 -0.01528288 -0.01514671 -0.01503143
 -0.01493715 -0.01486803 -0.01482221 -0.01478992 -0.01476946 -0.01474821 -0.01472807 -0.01470673 -0.0146884 -0.01468007
 -0.0146824 -0.01470029 -0.01472905 -0.01476643 -0.01480876 -0.01485208 -0.01489939 -0.01495019 -0.01501067 -0.01508284
 -0.01516822 -0.01526816 -0.01537693 -0.01549433 -0.01561282 -0.01573193 -0.0158485 -0.01596268 -0.01607673 -0.01619084
 -0.01630722 -0.01642577 -0.01654705 -0.01667139 -0.01680009 -0.016933 -0.01707134 -0.0172122 -0.01735345 -0.01749015
 -0.01761709 -0.01773258 -0.01783296 -0.01792278 -0.01800218 -0.0180785 -0.01815405 -0.01823163 -0.01831265 -0.01839388
 -0.01847525 -0.01855253 -0.01862546 -0.01869135 -0.01874988 -0.01879573 -0.0188283 -0.01884005 -0.01883228 -0.01880527
 -0.01876242 -0.01871372 -0.01865866 -0.01860312 -0.01853945 -0.01846131 -0.01836061 -0.01822709 -0.0180605 -0.01785612
 -0.01762207 -0.017359 -0.01707966 -0.01678699 -0.01649245 -0.01619911 -0.01590927 -0.01562424 -0.01533528 -0.01504194
 -0.01473481 -0.01441387 -0.01407807 -0.01372856 -0.01337238 -0.01301085 -0.01265339 -0.01229956 -0.01195406 -0.01161343
 -0.01127363 -0.01093194 -0.01058169 -0.01022689 -0.009867403 -0.009511244 -0.009163437 -0.008827741 -0.008507011 -0.008201781
 -0.007912335 -0.007640728 -0.007387718 -0.007152238 -0.006934812 -0.006727561 -0.006530068 -0.006333857 -0.00613854 -0.005937752
 -0.005730771 -0.005509318 -0.005272956 -0.005014643 -0.004736244 -0.004438683 -0.004124683 -0.003799859 -0.003465027 -0.003123594
 -0.002775086 -0.002419962 -0.002058456 -0.00169004 -0.001317746 -0.0009410518 -0.0005691804 -0.0002037377 0.0001444566 0.0004724101
 0.0007792112 0.001063724 0.001334959 0.001593389 0.001847132 0.002096684 0.002350289 0.002609036 0.002885817 0.003179591
 0.003495371 0.003826454 0.004158549 0.004484271 0.004782674 0.005052714 0.005283232 0.005479959 0.00564184 0.005781589
 0.005904687 0.006026565 0.006156223 0.006296613 0.006452708 0.006610967 0.00676942 0.006919238 0.007057853 0.007196072
 0.00733424 0.00749061 0.007665574 0.007866064 0.008090059 0.008327206 0.008573618 0.008807815 0.00902759 0.009215057
 0.009372698 0.009497009 0.009590448 0.009655838 0.0096916 0.009696637 0.009671719 0.009615173 0.009534566 0.009432473
 0.009314823 0.009183608 0.009042612 0.008891339 0.008742472 0.008596799 0.008470804 0.008365885 0.008283566 0.008223349
 0.008173343 0.008133356 0.00809611 0.008063173 0.008037311 0.008019869 0.008016257 0.00802604 0.008052689 0.008090517
 0.00813628 0.008177373 0.008201822 0.008200139 0.008160225 0.008088459 0.007982086 0.007858853 0.007723433 0.00758735
 0.007455004 0.007322065 0.007189407 0.007042467 0.006880254 0.006693577 0.006482758 0.006256757 0.006017678 0.005786059
 0.00556244 0.005360765 0.005178493 0.005016531 0.004870651 0.004734611 0.00460219 0.004463742 0.00431241 0.004138272
 0.003939113 0.003710241 0.003453508 0.003168515 0.002857521 0.002520115 0.002162876 0.001785945 0.001401374 0.001010933
 0.0006192676 0.0002270721 -0.000172532 -0.0005797132 -0.0009975038 -0.001424823 -0.001854339 -0.002285242 -0.002710174 -0.003129221
 -0.003539084 -0.003939653 -0.004328439 -0.004707487 -0.005078165 -0.005443119 -0.005807022 -0.006165565 -0.006518014 -0.006858402
 -0.007181477 -0.007494294 -0.007796439 -0.008101638 -0.008414 -0.008732086 -0.009057209 -0.009375593 -0.009686238 -0.009982924
 -0.01026567 -0.01053841 -0.01080109 -0.01105542 -0.01130016 -0.01153124 -0.01174678 -0.01193943 -0.01210816 -0.01224575
 -0.01235687 -0.01244233 -0.01251348 -0.01258136 -0.01265274 -0.01273789 -0.01282937 -0.01292806 -0.01301996 -0.01310026
 -0.01316388 -0.01320735 -0.01324019 -0.01326227 -0.01329058 -0.01332645 -0.01337884 -0.01344761 -0.01352419 -0.01360726
 -0.01368169 -0.01374797 -0.01380013 -0.0138397 -0.01386827 -0.01388622 -0.01389436 -0.01389442 -0.01388862 -0.01387953
 -0.01387194 -0.01386206 -0.01385021 -0.01382808 -0.0137904 -0.01373865 -0.01367001 -0.01359818 -0.01352553 -0.01346139
 -0.01340831 -0.01336009 -0.01331669 -0.0132654 -0.01320587 -0.01313438 -0.01305264 -0.01297282 -0.01289742 -0.01284529
 -0.01281516 -0.01281482 -0.01283792 -0.012876 -0.01292324 -0.01296763 -0.01300769 -0.01303776 -0.01305816 -0.01306761
 -0.0130666 -0.01305485 -0.01303383 -0.01300419 -0.01296555 -0.01291838 -0.01285907 -0.01278709 -0.01270111 -0.01260082
 -0.01249023 -0.01236953 -0.01224291 -0.01211055 -0.01197558 -0.01183854 -0.0117038 -0.01157115 -0.01144285 -0.01131675
 -0.01118912 -0.01105966 -0.01092484 -0.01078966 -0.01065749 -0.01053269 -0.01042114 -0.01031791 -0.0102238 -0.01012772
 -0.01002559 -0.009914079 -0.009790364 -0.009663358 -0.009533594 -0.00941082 -0.009296032 -0.009189955 -0.009092531 -0.009000205
 -0.008912894 -0.0088288 -0.008747579 -0.008666626 -0.008585645 -0.008501923 -0.00841651 -0.008331255 -0.008244388 -0.008156513
 -0.008059166 -0.007943309 -0.007806467 -0.007638898 -0.007459978 -0.007273329 -0.007105489 -0.00696864 -0.006863346 -0.006795579
 -0.006736816 -0.006684526 -0.006612836 -0.00651884 -0.006403023 -0.006265823 -0.00612613 -0.005984503 -0.005854747 -0.005734284
 -0.005618493 -0.005503984 -0.005376677 -0.005238535 -0.005085112 -0.004923854 -0.004763929 -0.004609358 -0.004469436 -0.00433904
 -0.004218167 -0.004099611 -0.003978612 -0.003856437 -0.003731221 -0.00361149 -0.003499252 -0.003397386 -0.003307684 -0.003219871
 -0.003133414 -0.003036814 -0.002929838 -0.002816329 -0.002697499 -0.002587097 -0.00248434 -0.002393414 -0.002310982 -0.00222885
 -0.002145078 -0.002051245 -0.001948276 -0.001833471 -0.001709604 -0.001577539 -0.00144241 -0.001308081 -0.001177461 -0.00105396
 -0.0009341768 -0.0008176354 -0.0007017715 -0.000585251 -0.0004714119 -0.0003608746 -0.0002532086 -0.0001487511 -3.929642E-05 7.545963E-05
 0.0001989006 0.0003302375 0.000462902 0.0005964682 0.0007251187 0.0008498184 0.0009703885 0.001088163 0.001205474 0.001324082
 0.00144829 0.001576841 0.001712584 0.001845852 0.001971847 0.002080063 0.002162108 0.002221115 0.002254012 0.002276242
 0.002289767 0.002310748 0.002341589 0.002393209 0.00246707 0.002562567 0.002679372 0.002800589 0.002924892 0.003031987
 0.003122924 0.003191259 0.003240998 0.003279894 0.003314023 0.003359371 0.003420928 0.003515911 0.0036372 0.00378837
 0.003947906 0.004100966 0.004236007 0.004339323 0.004424565 0.004493343 0.004557687 0.004622871 0.004680559 0.004729835
 0.004767143 0.004791318 0.004817436 0.004846135 0.00488629 0.004937012 0.00499142 0.005049903 0.005110237 0.005175177
 0.005252802 0.005344089 0.005455651 0.005585625 0.005735645 0.005899234 0.00607198 0.00624392 0.006404352 0.006555488
 0.006691741 0.006832824 0.006985062 0.007158163 0.007359547 0.007567472 0.00778131 0.007970196 0.008130772 0.008255463
 0.008344218 0.008417558 0.008478048 0.008560257 0.008664553 0.00881415 0.009001084 0.009214221 0.009441327 0.009649023
 0.009834285 0.009975554 0.01008186 0.01015339 0.0102026 0.01023789 0.01026949 0.01030561 0.01034725 0.0103988
 0.01044762 0.01049098 0.0105229 0.01053957 0.01056196 0.01059125 0.0106495 0.01073757 0.01084928 0.0109834
 0.01112426 0.01127181 0.01141942 0.01156464 0.01169571 0.0118111 0.01189819 0.01196601 0.01202198 0.0120761
 0.01214228 0.01222452 0.01232405 0.01246271 0.01264702 0.012911 0.01328212 0.01371165 0.0142059 0.01464468
 0.01500415 0.01526852 0.01543134 0.01554626 0.01561569 0.01567125 0.01571333 0.01575663 0.01580075 0.01585388
 0.015911 0.01595999 0.01599639 0.01600138 0.015981 0.01593754 0.01587363 0.01579709 0.01569592 0.01556118
 0.01539293 0.0151824 0.01495748 0.01472388 0.01451121 0.01432826 0.01418682 0.01409108 0.01403613 0.01402326
 0.0140249 0.01403955 0.01403002 0.01399671 0.01393137 0.01383863 0.01374067 0.01363854 0.0135469 0.01346523
 0.01339622 0.01334747 0.01333573 0.0133556 0.01341904 0.01348338 0.01352023 0.01350103 0.01338998 0.01322919
 0.01301706 0.01282939 0.01268433 0.01262793 0.01267467 0.01280732 0.01302946 0.01325875 0.01349094 0.01364908
 0.01373603 0.01376123 0.01373385 0.01371279 0.0136961 0.01370837 0.01374213 0.01379099 0.01385306 0.01392532
 0.01399979 0.01406763 0.01412048 0.01414279 0.01415291 0.01415326 0.01417066 0.01422009 0.01429438 0.01439666
 0.01450486 0.01461435 0.01472542 0.01483782 0.01495235 0.01506894 0.01516584 0.0152422 0.01528099 0.01528355
 0.01524939 0.01517917 0.0150714 0.01493373 0.01477744 0.01462276 0.01450845 0.01444296 0.01445807 0.01453062
 0.01465778 0.0148037 0.01495071 0.0150691 0.01514359 0.01516191 0.01511228 0.01502629 0.0149029 0.01480411
 0.01473684 0.01472422 0.01476766 0.01483643 0.01492889 0.01501687 0.01510047 0.01516855 0.01521721 0.01522565
 0.01519311 0.01510371 0.01496852 0.01479776 0.01460225 0.01439698 0.01419114 0.0139926 0.01381942 0.01368508
 0.01359279 0.01355347 0.01353415 0.01352953 0.01351069 0.0134697 0.01341268 0.01333968 0.01325491 0.01315858
 0.01303 0.01286911 0.01266745 0.01243018 0.01218126 0.01192969 0.01171761 0.01155493 0.01149052 0.01151646
 0.01165487 0.01185781 0.01208556 0.01228385 0.01238815 0.0124008 0.01229427 0.01212698 0.01191073 0.01170475
 0.0115265 0.01140724 0.01135687 0.01137251 0.01145779 0.01155855 0.01167186</values></Ydata></AB><ScSm><Ydata ylabel="Single channel"><values byteorder="INTEL" format="FLOAT32" numvalues="1814"> 0.06980941 0.06982337 0.06990774 0.07007881 0.07030077 0.07050592 0.07064021 0.07069719 0.07070135 0.07066543
 0.07059519 0.07053757 0.070576 0.07074881 0.07099158 0.07117896 0.07122575 0.07116187 0.07111456 0.07118424
 0.07131046 0.07128602 0.0709496 0.07037215 0.06981651 0.06949603 0.06943635 0.06962417 0.07014145 0.07092769
 0.0715049 0.07131593 0.0704239 0.06954879 0.06927242 0.06948201 0.06969729 0.06962535 0.06925815 0.06877016
 0.06856285 0.06915109 0.07065812 0.07240382 0.07315047 0.07188152 0.06852566 0.06419123 0.06076181 0.05988658
 0.06181604 0.0650662 0.06753457 0.06817882 0.06751488 0.06655321 0.06570935 0.06493796 0.06443857 0.06469086
 0.06579567 0.06703202 0.0672309 0.06577501 0.06333166 0.06137903 0.06085875 0.0615853 0.06303249 0.06490531
 0.06634329 0.06546944 0.06123621 0.05575618 0.05335677 0.05646744 0.06302899 0.06850912 0.06993299 0.06754734
 0.0635049 0.06008089 0.05881381 0.06008903 0.06307222 0.06640477 0.06902766 0.07022458 0.06943696 0.06675243
 0.06338393 0.06108013 0.06104688 0.06347433 0.06750373 0.07130922 0.07292398 0.07168953 0.06869366 0.06562182
 0.06364945 0.06344497 0.06533042 0.06894596 0.0732288 0.07703195 0.07959588 0.08062389 0.08033942 0.0793433
 0.07815686 0.07713924 0.07681043 0.07752958 0.07864717 0.07875217 0.07721055 0.07501218 0.07374973 0.07397214
 0.07474977 0.07480507 0.07380265 0.07214488 0.06971508 0.06585073 0.06087179 0.05648906 0.05409698 0.05371278
 0.05499325 0.05777537 0.06087755 0.06203533 0.06038154 0.0580226 0.0579493 0.0608483 0.0647499 0.06743062
 0.06847033 0.06909904 0.07061383 0.07305205 0.075023 0.07475546 0.07185207 0.06827945 0.06697931 0.06898126
 0.07241322 0.0748071 0.07570395 0.07638513 0.07763122 0.0785119 0.07735731 0.07374559 0.06956725 0.06785261
 0.07012884 0.07488954 0.07868901 0.07868944 0.07456883 0.0685926 0.06384933 0.06211381 0.06337328 0.06700601
 0.07246573 0.07866201 0.08367854 0.08584581 0.08495475 0.08216351 0.07867418 0.07461945 0.06969237 0.06499897
 0.06328797 0.0663561 0.07275137 0.07898051 0.08262456 0.08354986 0.08255453 0.07987449 0.07540162 0.0701231
 0.0665969 0.06696334 0.07036439 0.07343178 0.07381509 0.07232339 0.07118909 0.07128619 0.07180765 0.07197838
 0.0721624 0.07324138 0.07535041 0.07754493 0.07871553 0.0785996 0.07782257 0.07717043 0.07687534 0.07644881
 0.07536396 0.07409935 0.07407907 0.07611572 0.07929979 0.08193855 0.08325262 0.08365582 0.0836292 0.08286479
 0.08071142 0.07741085 0.074598 0.07409297 0.07614344 0.0792688 0.08179501 0.08305642 0.08324294 0.08279729
 0.08211347 0.08140697 0.08078011 0.08049621 0.08091369 0.08197366 0.08308224 0.08370311 0.0837963 0.08355759
 0.08303963 0.08222106 0.08127224 0.08056552 0.08041134 0.08082418 0.08155984 0.08233395 0.08292864 0.08315563
 0.08291896 0.08235741 0.081765 0.0813258 0.0810481 0.08094558 0.08110008 0.08149984 0.08195975 0.08227508
 0.08238164 0.08233021 0.08217638 0.08194356 0.08165838 0.08138766 0.08123624 0.08127973 0.08147345 0.08167601
 0.08181075 0.08194262 0.08212943 0.0822721 0.08221776 0.0819694 0.08169368 0.08153796 0.08151457 0.08155078
 0.08157165 0.08150505 0.08126798 0.08084084 0.08037037 0.08011654 0.08024058 0.08068413 0.08126692 0.08182104
 0.08221939 0.0823943 0.08239034 0.08232322 0.08224665 0.08211291 0.08188146 0.0816208 0.08148611 0.08160044
 0.08194409 0.08236279 0.08269611 0.0828808 0.08294083 0.08294564 0.08298765 0.08311522 0.0832585 0.08329195
 0.08319358 0.083083 0.08308131 0.08317675 0.08324943 0.08321254 0.08311344 0.08308393 0.08319341 0.08338106
 0.08354311 0.08365129 0.08375971 0.08391288 0.08406869 0.08412278 0.08402068 0.08383276 0.08368503 0.08362839
 0.08362645 0.0836599 0.08376789 0.08396383 0.08417027 0.0842839 0.08428682 0.08425854 0.084275 0.08431949
 0.08430983 0.08420029 0.08403336 0.08389431 0.08383726 0.08385655 0.08390744 0.08394039 0.08392523 0.08385898
 0.08376035 0.08365422 0.08355605 0.08347705 0.08344783 0.08351313 0.08367311 0.08383713 0.08387437 0.08373185
 0.0834915 0.08329675 0.0832215 0.08321442 0.08316717 0.08302483 0.08282357 0.08263589 0.08250307 0.08242035
 0.08236113 0.08230421 0.08225658 0.08226272 0.08236783 0.08254807 0.08269595 0.08270992 0.08259483 0.08244945
 0.08236478 0.08235995 0.08240171 0.08245258 0.08250399 0.08258133 0.08270431 0.08283682 0.08290886 0.0829
 0.08286798 0.0828876 0.08299623 0.08319212 0.08343151 0.08362602 0.08370197 0.08368111 0.08366303 0.08371794
 0.08383045 0.08395207 0.08406813 0.0841946 0.08434013 0.08450051 0.08468195 0.08490632 0.08518642 0.08550198
 0.08580242 0.08603767 0.08619957 0.08634101 0.08654346 0.08685163 0.08723555 0.0876174 0.08793588 0.08818986
 0.08842465 0.08867709 0.08894351 0.08921094 0.08950032 0.0898473 0.09024617 0.09064712 0.0910133 0.09135394
 0.0916975 0.09205581 0.09242353 0.09280041 0.09320317 0.09364849 0.0941174 0.09454699 0.09487821 0.09511593
 0.095332 0.09561042 0.09598714 0.09642017 0.09680875 0.09707261 0.09723689 0.09741599 0.09768848 0.09801415
 0.098306 0.09855765 0.09885077 0.09924094 0.09968162 0.1000762 0.100379 0.100628 0.1008901 0.1011857
 0.1014691 0.1016815 0.1018213 0.1019453 0.1021034 0.1023024 0.1025455 0.1028637 0.1032708 0.1037122
 0.1041007 0.1043932 0.104606 0.1047737 0.104924 0.1050741 0.1052226 0.1053582 0.105488 0.1056332
 0.105787 0.1059142 0.1060101 0.1061221 0.1062934 0.1065223 0.1067954 0.1071212 0.1074956 0.1078701
 0.1081995 0.1085113 0.108876 0.1092988 0.1096851 0.1099422 0.1100763 0.1101587 0.1102328 0.1103099
 0.1104296 0.1106552 0.1109998 0.1114056 0.111808 0.1121891 0.1125595 0.1129175 0.1132387 0.1134917
 0.1136577 0.1137439 0.1137874 0.1138456 0.1139739 0.1141952 0.1144808 0.1147676 0.1150017 0.1151578
 0.1152196 0.1151763 0.1150599 0.1149558 0.1149328 0.1149606 0.114925 0.1147271 0.1143464 0.1138105
 0.1131413 0.1123527 0.1114886 0.1106379 0.1099031 0.1093559 0.1090285 0.1089426 0.1091275 0.1095874
 0.1102532 0.1109925 0.1116745 0.1122036 0.1124934 0.1124565 0.1120591 0.1113699 0.1105259 0.1096553
 0.1088357 0.1080929 0.1074124 0.1067792 0.1062448 0.1059505 0.1060659 0.1067009 0.1078642 0.1094647
 0.1113237 0.1132113 0.1149276 0.1163813 0.1175967 0.1186482 0.1195967 0.1204831 0.1213437 0.1221941
 0.1230063 0.1237333 0.124362 0.1249206 0.1254388 0.1259194 0.1263432 0.1266857 0.1269387 0.127126
 0.1272816 0.1274067 0.1274717 0.1274717 0.1274508 0.127449 0.1274454 0.127368 0.1271494 0.1267722
 0.1262906 0.125838 0.1256143 0.125831 0.1266193 0.1279506 0.1296442 0.1314639 0.1332146 0.1347649
 0.1360317 0.1369904 0.1376919 0.138235 0.1387071 0.1391557 0.1395977 0.1400353 0.1404625 0.1408712
 0.1412582 0.1416315 0.1420101 0.1424097 0.1428211 0.143211 0.1435568 0.1438768 0.1442198 0.1446194
 0.1450601 0.1454921 0.1458868 0.146264 0.1466523 0.1470356 0.1473698 0.1476443 0.147898 0.1481784
 0.1485101 0.1488931 0.1492993 0.1496742 0.1499758 0.1502158 0.1504447 0.1506995 0.1509816 0.1512779
 0.1515816 0.1518888 0.1521927 0.1524946 0.1528111 0.1531529 0.1534945 0.1537843 0.153996 0.1541624
 0.1543464 0.1545823 0.1548528 0.1551183 0.1553646 0.1556204 0.1559275 0.1562895 0.1566557 0.1569611
 0.157183 0.1573547 0.157529 0.1577377 0.1579828 0.1582524 0.1585316 0.1588046 0.1590626 0.1593111
 0.1595626 0.1598201 0.1600737 0.1603164 0.1605532 0.1607958 0.1610504 0.1613135 0.1615802 0.1618571
 0.1621587 0.1624838 0.1628032 0.1630808 0.1633055 0.1634945 0.1636739 0.1638641 0.1640772 0.1643153
 0.1645694 0.1648264 0.165077 0.1653186 0.1655551 0.1657953 0.1660469 0.1663092 0.1665736 0.1668309
 0.1670808 0.167332 0.167591 0.1678541 0.1681117 0.1683616 0.16861 0.1688622 0.1691157 0.1693622
 0.1695917 0.1697996 0.1699946 0.1701952 0.1704151 0.1706569 0.1709156 0.1711814 0.171441 0.1716849
 0.1719145 0.1721393 0.1723673 0.1726013 0.1728393 0.1730762 0.1733073 0.1735325 0.1737558 0.1739817
 0.1742131 0.1744499 0.1746888 0.1749284 0.1751699 0.1754126 0.1756508 0.1758788 0.176098 0.1763169
 0.1765437 0.1767798 0.1770212 0.1772634 0.1775038 0.1777402 0.1779716 0.1781994 0.1784237 0.1786435
 0.1788634 0.1790925 0.1793344 0.1795836 0.1798356 0.1800915 0.1803512 0.1806092 0.1808597 0.1811011
 0.1813364 0.1815714 0.1818089 0.1820464 0.1822803 0.1825078 0.1827275 0.1829422 0.1831594 0.1833799
 0.1835949 0.1838014 0.1840093 0.1842263 0.1844485 0.1846696 0.1848895 0.1851112 0.1853377 0.1855706
 0.1858077 0.186047 0.1862906 0.1865385 0.1867839 0.1870222 0.187256 0.1874872 0.1877142 0.1879394
 0.1881674 0.1883994 0.1886353 0.1888749 0.1891124 0.1893428 0.1895708 0.1898046 0.1900466 0.1902972
 0.1905529 0.1908008 0.1910309 0.1912534 0.1914857 0.1917297 0.1919755 0.1922163 0.1924505 0.19268
 0.19291 0.193142 0.1933748 0.1936151 0.19387 0.1941304 0.1943801 0.1946161 0.1948443 0.1950689
 0.1952965 0.1955331 0.1957745 0.1960145 0.1962541 0.1964915 0.19672 0.1969435 0.1971693 0.1973821
 0.1975283 0.197475 0.1969016 0.1951871 0.1914051 0.1845075 0.1737405 0.1591243 0.1416175 0.1227738
 0.1041712 0.08701046 0.07200753 0.05948416 0.04951286 0.04201247 0.03681342 0.03376708 0.03285939 0.03432586
 0.03877493 0.04682749 0.05775766 0.06828681 0.07385716 0.07223003 0.06562679 0.05870318 0.0546788 0.05377942
 0.05462492 0.056036 0.05763941 0.05965285 0.06244937 0.06613653 0.0705388 0.07564994 0.08185081 0.08942186
 0.09796374 0.106567 0.1145948 0.122181 0.1299215 0.1381561 0.1466069 0.1546465 0.1617983 0.1679774
 0.1733876 0.1782959 0.1828853 0.1872406 0.1913989 0.1953476 0.1989434 0.2018826 0.2038406 0.2047144
 0.2047488 0.2044071 0.2040963 0.2039981 0.2041171 0.2044145 0.204867 0.2054565 0.2061636 0.2069713
 0.2078574 0.2087871 0.209719 0.2106159 0.2114538 0.2122283 0.2129453 0.2136099 0.2142268 0.2148045
 0.2153438 0.2158341 0.2162703 0.2166663 0.2170409 0.2174035 0.2177558 0.2180972 0.218424 0.2187299
 0.2190121 0.2192727 0.2195163 0.2197464 0.2199633 0.2201697 0.2203763 0.2205959 0.2208277 0.221057
 0.2212733 0.2214824 0.221698 0.221926 0.2221588 0.2223816 0.2225848 0.2227731 0.2229589 0.2231511
 0.2233524 0.2235642 0.2237862 0.2240119 0.2242328 0.224446 0.2246556 0.2248663 0.2250781 0.225287
 0.2254943 0.2257098 0.2259409 0.2261806 0.2264182 0.2266558 0.2269012 0.2271533 0.2274056 0.2276528
 0.2278826 0.2280757 0.2282272 0.2283638 0.228528 0.2287462 0.2290069 0.2292714 0.2295085 0.2297194
 0.2299229 0.2301297 0.2303363 0.2305349 0.2307246 0.2309258 0.2311683 0.2314529 0.2317436 0.2320125
 0.2322662 0.2325191 0.2327734 0.2330332 0.2332952 0.2335267 0.2336926 0.233817 0.2339869 0.2342799
 0.2346878 0.2351151 0.2354635 0.2357165 0.2359325 0.2361759 0.2364724 0.236788 0.2370132 0.2370413
 0.2369307 0.236926 0.237234 0.2378185 0.2384672 0.2390068 0.2394071 0.2397253 0.2400111 0.2402577
 0.2404103 0.2404293 0.2403712 0.2404063 0.2407031 0.2412571 0.2418783 0.2423801 0.2427239 0.2429646
 0.2431556 0.2433324 0.243458 0.2433643 0.2429313 0.2423929 0.2422721 0.2428721 0.2439326 0.2449061
 0.2454995 0.2458281 0.2461093 0.2464006 0.2466497 0.2467468 0.2464177 0.2453799 0.2438843 0.2428665
 0.2431781 0.2447327 0.2466543 0.2481503 0.2490154 0.2494465 0.2496994 0.2499126 0.250006 0.2496934
 0.2488048 0.2477086 0.2472196 0.2478499 0.2492321 0.2505093 0.2512057 0.2514793 0.251674 0.2519366
 0.2521162 0.2517089 0.2501444 0.2476244 0.2455484 0.2455272 0.2478071 0.2509783 0.2533748 0.2545084
 0.2549361 0.255035 0.2544403 0.252698 0.2499496 0.2468683 0.2444465 0.2438572 0.245677 0.2489223
 0.2516088 0.2527044 0.2529974 0.2537939 0.2553621 0.2569342 0.2577071 0.2574658 0.2564523 0.254929
 0.2530494 0.2512611 0.2505531 0.2517597 0.2545472 0.2575255 0.2595321 0.2605188 0.2609497 0.2604364
 0.257461 0.2512018 0.2438185 0.2398565 0.2422344 0.2491905 0.256171 0.2603084 0.2620008 0.262776
 0.2632455 0.2629292 0.2605413 0.2546975 0.24609 0.2388506 0.237754 0.2434962 0.2519092 0.2578541
 0.258722 0.2547102 0.2478978 0.2416238 0.2391233 0.2415679 0.2475561 0.254499 0.2601746 0.2633339
 0.2636828 0.2617663 0.2589369 0.2570247 0.2570082 0.2575692 0.2560959 0.2519841 0.2476472 0.2449783
 0.2424245 0.2378582 0.2332401 0.2333287 0.2394967 0.2474405 0.2520157 0.2524498 0.2514247 0.2501818
 0.2463945 0.2375212 0.2256261 0.2174702 0.2186007 0.2275945 0.2373287 0.2419527 0.2415369 0.239985
 0.2398244 0.2396317 0.2360448 0.2281492 0.2197031 0.2159868 0.2181964 0.2223776 0.224114 0.2220642
 0.2164309 0.2075285 0.1982922 0.1951995 0.2028105 0.2181844 0.2331798 0.2411588 0.2394257 0.2277758
 0.2094073 0.1928306 0.1877316 0.1963102 0.210611 0.2198398 0.218935 0.209475 0.1950512 0.1787982
 0.1648376 0.1587416 0.1641894 0.1792261 0.1963389 0.2062179 0.2029008 0.1883917 0.1730282 0.1680491
 0.1753902 0.1863624 0.1913843 0.1886704 0.1828743 0.1790679 0.1797992 0.1846868 0.1908461 0.1955835
 0.1985509 0.1987628 0.191695 0.1747428 0.1545328 0.1425749 0.1432936 0.15175 0.1628664 0.1759744
 0.1888126 0.1944093 0.1889443 0.1789951 0.175943 0.1838941 0.1961612 0.2034395 0.2030123 0.1992468
 0.1968317 0.1957698 0.1937177 0.1914086 0.1928595 0.1998208 0.2087191 0.2146481 0.2164848 0.2164502
 0.2163501 0.2162089 0.215542 0.2141778 0.2121821 0.2099805 0.2082264 0.2070689 0.2060291 0.2047463
 0.2029499 0.1993589 0.1919737 0.1809112 0.1701854 0.1645452 0.1644678 0.1664609 0.1682536 0.1701378
 0.1701376 0.1626298 0.1457724 0.1276123 0.120234 0.1280925 0.1447045 0.1600299 0.1681178 0.1675994
 0.1587388 0.1437708 0.1294667 0.1249968 0.1344177 0.152766 0.1713824 0.185375 0.1941303 0.1971704
 0.1933477 0.1839266 0.1737789 0.1686056 0.1714902 0.1815316 0.1940943 0.2019457 0.1987968 0.1855992
 0.1733798 0.1750948 0.1919778 0.2114165 0.2211192 0.221574 0.2210167 0.2226402 0.2230273 0.2211777
 0.2221129 0.2299898 0.2419706 0.2510101 0.2520397 0.2439663 0.228994 0.2131004 0.2044932 0.207046
 0.2159069 0.2227784 0.2239471 0.2198191 0.2100278 0.19546 0.1834267 0.1832738 0.1955543 0.2107774
 0.2201993 0.2237876 0.2262886 0.2290621 0.2284683 0.2214259 0.210555 0.2025566 0.2015821 0.2056048
 0.2098582 0.2118698 0.2115239 0.2082272 0.2012683 0.1929611 0.1886812 0.1922191 0.201873 0.2120469
 0.2182604 0.2199613 0.2192025 0.217971 0.2168234 0.2150602 0.2121212 0.2093908 0.2099174 0.2151238
 0.2224959 0.2281428 0.2312471 0.2343396 0.2393242 0.2448383 0.2478977 0.2471607 0.2442294 0.2422751
 0.2435005 0.2473856 0.2510698 0.2517893 0.2494999 0.2471561 0.2479901 0.2524296 0.2580381 0.2622719
 0.2645484 0.2657356 0.2666719 0.2674482 0.2673556 0.2654375 0.2618865 0.2588708 0.2590048 0.2627465
 0.2679487 0.2720578 0.2741533 0.2748095 0.2747256 0.2739946 0.2724933 0.2705318 0.2688714 0.2681352
 0.2683666 0.269185 0.2701889 0.2711246 0.2718589 0.2723677 0.2727097 0.2729452 0.2731114 0.2732698
 0.2734731 0.2736719 0.2737621 0.2737639 0.2738565 0.2741666 0.2745957 0.2749245 0.275012 0.2748016
 0.2742072 0.2731481 0.2716953 0.2700477 0.2683191 0.2664672 0.2645371 0.262933 0.2623068 0.2630761
 0.2650422 0.2675043 0.2697332 0.2713415 0.2723064 0.2727916 0.2729927 0.2730634 0.2730877 0.273082
 0.2730272 0.2729059 0.272721 0.2724896 0.272232 0.2719736 0.2717487 0.2715813 0.2714606 0.2713413
 0.2711688 0.2709063 0.2705497 0.2701263 0.2696667 0.2691678 0.2685848 0.2678691 0.2670131 0.2660642
 0.2650976 0.2641761 0.263316 0.2624797 0.2616023 0.2606305 0.2595268 0.258252 0.2567993 0.2552634
 0.253821 0.2525913 0.2515386 0.2505314 0.2494618 0.2482871 0.2470044 0.2456306 0.2441938 0.2427199
 0.2412241 0.2397128 0.2381829 0.2366204 0.2350071 0.2333272 0.2315713 0.2297451 0.2278723 0.2259771
 0.2240459 0.2220012 0.2197135 0.2170449 0.213887 0.2101743 0.2058981 0.201133 0.1960415 0.190835
 0.1857173 0.1808491 0.1763407 0.1722724 0.1687227 0.1657742 0.1634941 0.161921 0.1610693 0.1609353
 0.1614985 0.1627234 0.1645478 0.1668597 0.1694978 0.17228 0.1750362 0.1776344 0.1800126 0.1821957
 0.1842607 0.1862672 0.1882093 0.1900333 0.191697 0.1931957 0.1945297 0.1956754 0.1966132 0.1973653
 0.1979791 0.1984895 0.1989144 0.1992684 0.199564 0.1998139 0.2000408 0.2002739 0.2005321 0.200819
 0.2011345 0.2014871 0.2018948 0.2023759 0.2029351 0.2035593 0.2042246 0.2049085 0.205606 0.2063373
 0.2071296 0.2079991 0.2089663 0.2100756 0.2113719 0.2128611 0.2145085 0.2162606 0.2180516 0.2197996
 0.2214155 0.222821 0.22397 0.224862 0.2255251 0.2259856 0.2262654 0.2263984 0.2264215 0.2263493
 0.2261774 0.2259052 0.2255445 0.2251144 0.2246326 0.2241008 0.2235077 0.2228629 0.2222118 0.2215961
 0.2210146 0.2204376 0.2198485 0.2192576 0.2186819 0.2181241 0.2175717 0.2170143 0.2164531 0.2158925
 0.2153297 0.2147487 0.2141118 0.2133654 0.2124753 0.2114536 0.2103341 0.2091327 0.2078457 0.2064719
 0.2050198 0.2035009 0.201926 0.2003004 0.1986193 0.1968676 0.1950193 0.1930484 0.1909628 0.1888267
 0.1867324 0.1847489 0.1829006 0.1811727 0.1795295 0.1779482 0.1764402 0.1750245 0.1736897 0.1724078
 0.1711749 0.1700078 0.1689098 0.1678654 0.1668702 0.165946 0.1651232 0.1644138 0.1638015 0.1632564
 0.1627577 0.1623079 0.1619361 0.1616804 0.1615508 0.1615051 0.1614755 0.1614117 0.1612936 0.161121
 0.1609114 0.1606947 0.1604938 0.1603159 0.160159 0.1600028 0.1597895 0.1594272 0.1588133 0.1578652
 0.1565542 0.1549242 0.1530732 0.1511222 0.1492018 0.1474344 0.1459044 0.1446535 0.1436935 0.1429932
 0.1424661 0.1420209 0.1416346 0.1413632 0.1412786 0.1413858 0.1415789 0.1416996 0.1416781 0.1416097
 0.1416703 0.1419749 0.1425162 0.1431931 0.1438759 0.1444704 0.1449362 0.1452599 0.1454445 0.1455213
 0.1455263 0.1454592 0.1452993 0.1450479 0.1447261 0.1443555 0.1439543 0.1435199 0.1430142 0.1423987
 0.1416727 0.1408581 0.1399722 0.1390172 0.1379632 0.1367729 0.1355044 0.1343664 0.1336191 0.1334261
 0.1337829 0.134529 0.1354464 0.136399 0.1373182 0.1380332 0.1383027 0.1381854 0.1382523 0.1391851
 0.14112 0.1434946 0.1455503 0.1468786 0.1474725 0.1474517 0.1469089 0.1459115 0.1444615 0.1424931
 0.1400155 0.1371763 0.1341392 0.1310391 0.1280628 0.1254013 0.1231351 0.1212679 0.1197999 0.1187887
 0.1183682 0.1181506 0.1162575 0.110319 0.1011178 0.09419377 0.09519324 0.1035319 0.1128025 0.1175466
 0.1176083 0.1159006 0.1144463 0.1135589 0.1131215 0.1132417 0.1140242 0.1153317 0.1167915 0.1180071
 0.1188046 0.1192046 0.1191543 0.1183223 0.116036 0.1114848 0.1043728 0.09553 0.08663671 0.07923213
 0.07403134 0.07095075 0.06941451 0.06867702 0.06820148 0.06792347 0.06814368 0.06915923 0.07101579 0.07357249
 0.07666186 0.0800473 0.08330909 0.08602193 0.08809164 0.08973496 0.09110449 0.09210692 0.09259511 0.0925655
 0.09213996 0.09147501 0.09071302 0.08993673 0.08911976 0.08815177 0.08698978 0.08581056 0.0849268 0.08449676
 0.08439842 0.08441964 0.08444949 0.08445554 0.08441852 0.08434331 0.08425788 0.08420973 0.08430009 0.08463211
 0.08516718 0.08571611 0.08610868 0.08631496 0.08640395 0.08641113 0.08623024 0.08570711 0.08492657 0.08424303
 0.08382502 0.08334389 0.08239982 0.08113866 0.08015695 0.07985003 0.08007678 0.08041851 0.0805609 0.08043207
 0.08017398 0.08007304 0.08037537 0.08100745</values></Ydata></ScSm><ScRf><Ydata ylabel="Single channel"><values byteorder="INTEL" format="FLOAT32" numvalues="1820"> 0.06076195 0.06091424 0.06100844 0.06104315 0.06104125 0.06104738 0.06110938 0.06124781 0.06143893 0.06162645
 0.06175871 0.06182252 0.06183418 0.06180403 0.0617398 0.06168661 0.06171929 0.06186892 0.06207583 0.06223077
 0.06226227 0.06219891 0.06215388 0.06221648 0.06233251 0.06231795 0.06203265 0.0615419 0.06107219 0.06079951
 0.060742 0.06089761 0.06135048 0.06204748 0.06255904 0.06239062 0.06160323 0.06083573 0.06059562 0.06077432
 0.0609481 0.06086815 0.06053483 0.06010085 0.05991732 0.06043924 0.06177548 0.06332119 0.06398001 0.06285745
 0.05989679 0.05607862 0.05306098 0.05229231 0.05399048 0.05685046 0.05902572 0.05960212 0.05903462 0.05821165
 0.05749443 0.05683266 0.05639158 0.05659446 0.05754421 0.05862014 0.05879489 0.05751847 0.05537425 0.05366321
 0.05321101 0.0538483 0.05511017 0.05674222 0.05799482 0.05722166 0.05350258 0.04869327 0.04659513 0.04934127
 0.05511915 0.05994056 0.06118698 0.05907897 0.05552012 0.05251883 0.05142329 0.05255906 0.0551846 0.05811043
 0.06041625 0.06147689 0.06079698 0.05844617 0.05548584 0.05345314 0.05341345 0.05554108 0.0590832 0.06243017
 0.06384853 0.06276026 0.06012512 0.05742625 0.05569571 0.05551885 0.057178 0.06036054 0.06413872 0.06750479
 0.06977998 0.07068881 0.07042581 0.06953483 0.06849309 0.06761924 0.06735446 0.06799565 0.06896665 0.06903611
 0.06765997 0.06571776 0.06461146 0.06481719 0.06550688 0.06555227 0.06466427 0.06320404 0.06106616 0.05765904
 0.05326444 0.04939983 0.04730204 0.04698317 0.04813245 0.0506026 0.05335344 0.05438865 0.05294033 0.05086257
 0.05079257 0.05333977 0.05677388 0.05913952 0.0600668 0.06063626 0.06198557 0.06414181 0.06587578 0.06562951
 0.06306328 0.05992106 0.05879703 0.06058979 0.06363934 0.06576873 0.06657973 0.06720696 0.06833592 0.06913893
 0.06813954 0.06496917 0.06130169 0.05981197 0.0618429 0.06606053 0.06942295 0.06942729 0.06579302 0.06052496
 0.05635195 0.05484053 0.05598589 0.05925534 0.06417647 0.06977305 0.07432226 0.07632263 0.07558046 0.07312919
 0.07004918 0.06646684 0.06210948 0.05796365 0.05648766 0.0592909 0.06507548 0.07071646 0.07405071 0.07495621
 0.07413593 0.07178442 0.06779841 0.06308101 0.05996259 0.0603871 0.06356876 0.0664403 0.06686219 0.0655726
 0.06460981 0.06477496 0.06533137 0.0655697 0.06582578 0.06691016 0.06894435 0.0710566 0.07222477 0.07220392
 0.07156622 0.07103829 0.07084139 0.07052886 0.06961567 0.06854974 0.0686543 0.07067587 0.07375328 0.07629955
 0.07759101 0.07803061 0.07808581 0.07747062 0.07556047 0.072568 0.07002708 0.06965522 0.0716911 0.07474218
 0.07722989 0.07852504 0.07880823 0.07850075 0.07797492 0.07742999 0.07695897 0.07681142 0.07732736 0.07844719
 0.07960387 0.08029199 0.08048106 0.08035617 0.07995694 0.0792582 0.07843247 0.07784951 0.0778096 0.07831931
 0.07913742 0.07999013 0.08066975 0.08099313 0.08086336 0.08041397 0.07993303 0.07959932 0.07941816 0.07940662
 0.07965525 0.08015548 0.08071427 0.08111802 0.08130471 0.0813363 0.08127625 0.0811439 0.08095419 0.08076766
 0.08069453 0.08081725 0.08108851 0.08136103 0.08156188 0.08176796 0.08204275 0.08227845 0.08230658 0.08212371
 0.08190797 0.08182482 0.0818904 0.08201669 0.08211157 0.08210035 0.08191202 0.08154088 0.08113822 0.08095653
 0.08114739 0.08165355 0.08230563 0.08294265 0.08343185 0.0836924 0.08375676 0.08373477 0.08368339 0.08356746
 0.08336172 0.08314351 0.08306668 0.083248 0.08366354 0.08415596 0.08455619 0.08478834 0.08487394 0.08489932
 0.08497994 0.08516987 0.08538122 0.08546639 0.08540039 0.08531754 0.08534871 0.08547345 0.08555835 0.08551714
 0.08541161 0.08538792 0.08552182 0.08575027 0.08595951 0.08611074 0.08625956 0.0864616 0.08667301 0.08676454
 0.08665968 0.08644047 0.08626807 0.08621177 0.0862229 0.08626756 0.08639175 0.08662145 0.08687156 0.08701707
 0.0870325 0.0870129 0.0870526 0.08713469 0.08715796 0.08705493 0.08685987 0.08667029 0.08656837 0.08657601
 0.08665457 0.08673164 0.08674376 0.08667497 0.08656082 0.08645158 0.08637413 0.08633831 0.08637348 0.08652298
 0.08677244 0.08700223 0.08705793 0.08689074 0.08661398 0.08640327 0.08633867 0.08634751 0.08629467 0.08611482
 0.0858539 0.0856026 0.0854146 0.08528611 0.08518755 0.08510102 0.08504219 0.08505692 0.08517496 0.08534482
 0.08543542 0.08534203 0.08509058 0.08481103 0.08461582 0.08452868 0.08451013 0.08451087 0.08451009 0.08453164
 0.08460729 0.08470729 0.08474513 0.08467719 0.08456199 0.0845011 0.08455719 0.08473124 0.08496167 0.08513366
 0.08515316 0.08504224 0.08492316 0.08489394 0.08495267 0.08504534 0.08513991 0.08523307 0.08532173 0.0854041
 0.08550112 0.08565179 0.08587769 0.08615401 0.08641692 0.08660546 0.08671166 0.08679692 0.08694881 0.08720878
 0.08753888 0.08785753 0.08810645 0.08828968 0.08845539 0.08864134 0.08884434 0.08905011 0.08927547 0.08955154
 0.08987269 0.09019506 0.0904882 0.09076158 0.09103855 0.09132743 0.09162511 0.09193903 0.09229658 0.09271863
 0.09317127 0.09356139 0.09381239 0.09394391 0.09406005 0.0942657 0.09459692 0.09499744 0.09534343 0.09553433
 0.09559797 0.09567568 0.09586908 0.09613559 0.09637675 0.0965931 0.09688615 0.09731223 0.0977918 0.09818454
 0.09842563 0.09857053 0.09871919 0.09891059 0.09909567 0.09921324 0.09927617 0.09935637 0.09949347 0.09966645
 0.09986803 0.1001489 0.1005436 0.1009913 0.1013812 0.101658 0.1018457 0.1019891 0.102111 0.1022115
 0.1022777 0.1023058 0.1023271 0.1023876 0.1024864 0.1025684 0.1026004 0.1026209 0.1026925 0.1028383
 0.1030496 0.10332 0.1036322 0.1039383 0.1042047 0.1044715 0.1048101 0.1052071 0.1055407 0.1057088
 0.1057417 0.1057466 0.1057763 0.1058134 0.1058639 0.1059898 0.106236 0.1065724 0.106933 0.107282
 0.1076244 0.1079668 0.1082831 0.1085174 0.1086253 0.1086179 0.108566 0.1085615 0.10867 0.1089041
 0.1092205 0.109547 0.1098253 0.1100288 0.1101402 0.1101477 0.1100873 0.1100604 0.1101556 0.1103455
 0.1104949 0.1104774 0.1102629 0.1098896 0.1093905 0.1087807 0.1080994 0.1074318 0.1068713 0.1064706
 0.1062411 0.1061997 0.1063911 0.1068378 0.1074769 0.108178 0.1088252 0.1093477 0.1096701 0.109694
 0.1093734 0.1087791 0.1080549 0.1073249 0.1066521 0.1060442 0.1054651 0.1048803 0.1043374 0.1039952
 0.1040444 0.1045979 0.1056408 0.1070424 0.1085915 0.1100627 0.1113044 0.1122918 0.1130977 0.1138091
 0.114476 0.1151248 0.1157829 0.1164581 0.1171079 0.1176711 0.1181358 0.1185467 0.1189459 0.1193308
 0.1196706 0.1199416 0.1201537 0.1203511 0.1205696 0.1207789 0.1208981 0.1208854 0.1207858 0.1206697
 0.1205519 0.1203883 0.1201283 0.1197566 0.1193159 0.1189219 0.1187499 0.1189664 0.1196365 0.12068
 0.1219309 0.1232408 0.1245192 0.1256865 0.1266452 0.1273331 0.1277804 0.1280856 0.128345 0.128616
 0.1289193 0.1292448 0.1295646 0.1298577 0.1301273 0.1303965 0.1306928 0.1310268 0.1313746 0.1316876
 0.1319386 0.1321594 0.1324202 0.132763 0.1331585 0.133537 0.1338647 0.1341734 0.1345007 0.1348213
 0.1350736 0.1352472 0.135405 0.1356184 0.1359118 0.1362667 0.1366399 0.1369725 0.1372199 0.137392
 0.137545 0.1377285 0.1379528 0.1382033 0.1384643 0.1387241 0.1389756 0.1392275 0.1395054 0.1398214
 0.1401423 0.1404065 0.1405847 0.1407132 0.1408572 0.1410475 0.1412633 0.1414667 0.1416475 0.1418376
 0.1420828 0.1423905 0.1427077 0.1429639 0.143135 0.1432587 0.1433907 0.1435598 0.14376 0.1439717
 0.1441819 0.1443886 0.1445958 0.144807 0.1450225 0.1452405 0.1454583 0.1456727 0.1458805 0.1460807
 0.1462768 0.1464774 0.1466942 0.1469406 0.147224 0.1475313 0.1478247 0.1480643 0.1482374 0.1483639
 0.1484766 0.1486032 0.148758 0.1489405 0.1491394 0.149344 0.1495503 0.1497579 0.1499659 0.1501735
 0.1503808 0.1505884 0.1507992 0.151015 0.1512349 0.1514567 0.1516803 0.1519034 0.1521177 0.152314
 0.1524944 0.1526738 0.1528678 0.1530769 0.1532849 0.1534765 0.1536541 0.1538334 0.1540239 0.1542203
 0.1544134 0.1546021 0.1547924 0.1549898 0.1551934 0.1553966 0.1555915 0.1557761 0.1559575 0.1561473
 0.1563508 0.1565611 0.1567673 0.1569674 0.1571679 0.1573715 0.1575734 0.1577707 0.1579672 0.1581667
 0.1583678 0.1585657 0.1587564 0.1589396 0.1591217 0.1593126 0.1595169 0.1597288 0.1599366 0.1601339
 0.1603255 0.1605218 0.1607272 0.160939 0.1611563 0.1613797 0.1616021 0.1618116 0.1620056 0.162196
 0.1623957 0.1626094 0.1628337 0.1630622 0.1632904 0.1635166 0.163738 0.1639478 0.164142 0.1643253
 0.1645063 0.1646898 0.1648737 0.165052 0.1652221 0.1653906 0.165567 0.1657527 0.1659417 0.1661303
 0.1663202 0.1665142 0.1667156 0.1669254 0.167138 0.1673468 0.1675519 0.1677552 0.1679534 0.1681445
 0.1683346 0.1685326 0.168743 0.1689639 0.1691844 0.1693918 0.169585 0.1697758 0.1699741 0.1701825
 0.1704003 0.1706229 0.1708422 0.1710577 0.1712769 0.1715015 0.1717235 0.1719363 0.1721394 0.1723346
 0.1725274 0.1727247 0.1729295 0.1731414 0.17336 0.1735802 0.1737947 0.1740052 0.1742189 0.1744352
 0.1746496 0.1748637 0.1750786 0.1752902 0.1754983 0.1757062 0.1759101 0.1761079 0.1763089 0.1765192
 0.1767331 0.1769456 0.1771545 0.1773434 0.1774665 0.1774082 0.1768852 0.1753434 0.1719458 0.1657395
 0.1560373 0.1428553 0.1270631 0.1100745 0.09332508 0.07789925 0.06443048 0.05319159 0.0442347 0.03748225
 0.03278944 0.03003796 0.02922435 0.03055509 0.03456563 0.04180825 0.05163161 0.06108996 0.06608491 0.06460427
 0.05865145 0.05242126 0.0488112 0.04801919 0.04879928 0.05008974 0.05155197 0.05337558 0.05589385 0.05920962
 0.06317451 0.06778899 0.07339627 0.08024423 0.08796434 0.09572583 0.1029465 0.1097508 0.1166925 0.1240962
 0.1317175 0.1389835 0.1454522 0.151039 0.1559289 0.1603692 0.1645259 0.1684677 0.172225 0.1757942
 0.1790525 0.1817211 0.1835021 0.1843063 0.184357 0.1840624 0.1837784 0.1836724 0.1837659 0.1840371
 0.1844634 0.1850185 0.1856781 0.1864234 0.1872286 0.1880603 0.1888914 0.1897034 0.1904786 0.1912034
 0.1918731 0.192487 0.1930466 0.193559 0.1940329 0.1944729 0.1948819 0.1952655 0.1956274 0.1959682
 0.1962896 0.1965946 0.1968847 0.1971606 0.1974207 0.1976592 0.1978755 0.1980811 0.1982888 0.1984995
 0.1987092 0.1989206 0.1991364 0.1993512 0.1995578 0.1997555 0.1999475 0.2001365 0.2003238 0.2005093
 0.2006916 0.2008725 0.2010593 0.2012585 0.2014698 0.2016857 0.2018957 0.202093 0.2022803 0.2024671
 0.2026628 0.2028701 0.2030839 0.2032949 0.2034991 0.2037043 0.2039193 0.2041401 0.2043553 0.2045623
 0.2047661 0.2049699 0.2051754 0.2053869 0.2056005 0.205798 0.2059641 0.2061076 0.20626 0.2064475
 0.2066663 0.2068872 0.207089 0.2072784 0.207474 0.2076802 0.2078838 0.208069 0.2082364 0.2084138
 0.2086369 0.2089072 0.2091865 0.2094424 0.2096771 0.2099037 0.2101257 0.2103454 0.2105601 0.2107485
 0.2108906 0.2110111 0.2111786 0.2114515 0.2118197 0.2122056 0.2125296 0.2127752 0.2129815 0.2131947
 0.2134432 0.2137138 0.2139186 0.2139549 0.2138614 0.213854 0.2141272 0.2146576 0.2152517 0.2157434
 0.2160988 0.2163744 0.2166268 0.2168564 0.2170091 0.2170404 0.2169972 0.2170333 0.2172998 0.2177916
 0.2183425 0.2187949 0.21912 0.2193576 0.2195374 0.2196845 0.21978 0.2196912 0.2193124 0.218842
 0.2187411 0.2192828 0.2202371 0.2211162 0.2216631 0.2219854 0.2222722 0.2225608 0.2227936 0.2228734
 0.2225619 0.2216109 0.2202517 0.219335 0.2196328 0.2210603 0.2228168 0.2241846 0.224983 0.225392
 0.2256429 0.2258615 0.2259718 0.2257066 0.2249072 0.2239124 0.2234699 0.2240489 0.2253133 0.2264803
 0.2271181 0.2273777 0.2275771 0.2278465 0.2280391 0.2276903 0.2262833 0.2240101 0.2221494 0.2221615
 0.2242582 0.2271503 0.2293266 0.2303489 0.2307277 0.2308104 0.2302688 0.2286911 0.2262076 0.2234341
 0.2212711 0.2207752 0.2224607 0.2254313 0.227889 0.2289052 0.2292011 0.229958 0.2314094 0.2328552
 0.2335723 0.2333713 0.2324715 0.2311043 0.2294046 0.2277853 0.2271575 0.2282835 0.2308514 0.2335908
 0.2354487 0.2363884 0.2368312 0.2364148 0.2337478 0.2280795 0.2213803 0.2177925 0.2199773 0.2263391
 0.2327404 0.2365641 0.2381539 0.2388889 0.2393296 0.2390505 0.2368872 0.2315798 0.2237611 0.2172018
 0.2162566 0.2215504 0.2292687 0.234723 0.2355435 0.2319169 0.2257378 0.2200492 0.2178028 0.2200712
 0.2255809 0.2319702 0.2372032 0.2401312 0.2404862 0.2387723 0.2362326 0.2345469 0.2346089 0.2351986
 0.2339133 0.2302021 0.2262811 0.2238826 0.2215846 0.2174546 0.2133102 0.2135121 0.2192895 0.2266635
 0.2309113 0.231351 0.2304725 0.2294204 0.2260447 0.2179966 0.2071691 0.1997836 0.2009476 0.2093484
 0.218423 0.2227883 0.222522 0.2212292 0.2212383 0.2212272 0.2180803 0.2109527 0.2033414 0.2001526
 0.2024819 0.2066318 0.2084881 0.2068045 0.2017675 0.1936729 0.1852756 0.1826435 0.1900449 0.2047236
 0.2190495 0.2267964 0.2254196 0.2147001 0.197641 0.1823046 0.1778879 0.1864819 0.2005249 0.2097517
 0.2093329 0.200739 0.1873682 0.1722332 0.1593513 0.154167 0.1602982 0.1758682 0.1935195 0.2040457
 0.2014763 0.187753 0.1731967 0.1690884 0.1773693 0.1892633 0.1950889 0.1930413 0.1878393 0.1846718
 0.1862075 0.1920813 0.1992828 0.2050005 0.2088633 0.2097458 0.2027541 0.1850989 0.1638567 0.1513029
 0.1521744 0.1612521 0.1731599 0.1871885 0.2009124 0.2068912 0.2010548 0.1904137 0.1870871 0.1954406
 0.2083547 0.2159354 0.2153079 0.2111405 0.2084457 0.2072463 0.2050671 0.202705 0.2044371 0.2121136
 0.221925 0.2286591 0.2311252 0.2316745 0.2322088 0.232734 0.2327174 0.2319736 0.2305881 0.2290358
 0.2280244 0.2276999 0.2275102 0.2270266 0.2259239 0.2227504 0.2152374 0.2034979 0.1920578 0.1862673
 0.1866281 0.1891779 0.1913876 0.1936243 0.1936334 0.185004 0.1656276 0.1446293 0.1357203 0.1439485
 0.1619444 0.1783295 0.1864327 0.1848541 0.1740684 0.1566433 0.1399585 0.1338795 0.1427088 0.1610641
 0.1796376 0.1932123 0.2012385 0.2033801 0.1985396 0.1880277 0.1768309 0.1707601 0.172922 0.1823561
 0.1943388 0.2015884 0.1978424 0.1840926 0.1713137 0.1723484 0.1884284 0.2071114 0.2162684 0.21636
 0.2154808 0.2167796 0.216917 0.2149189 0.2157027 0.223337 0.2350582 0.2440002 0.2452257 0.2376678
 0.2234819 0.2085366 0.2008843 0.204267 0.2137908 0.2211888 0.2227869 0.2190144 0.2095374 0.1952987
 0.1836674 0.1840084 0.1968398 0.2126111 0.2225488 0.2266448 0.2296848 0.2330084 0.2328821 0.2261598
 0.2155442 0.2079288 0.2075834 0.2124226 0.217545 0.2204016 0.2208323 0.2181438 0.2115353 0.2034251
 0.1994893 0.2037362 0.2143357 0.2252938 0.2317881 0.2331864 0.2316616 0.2293632 0.2269685 0.2238454
 0.219473 0.2152958 0.2144531 0.2184302 0.2246986 0.2293142 0.2314331 0.2335978 0.2377332 0.2424923
 0.2448979 0.2435989 0.2401601 0.2376984 0.2383791 0.2416985 0.2448578 0.2451424 0.2424958 0.2398139
 0.2402835 0.2443454 0.2496226 0.2536295 0.2558064 0.2570109 0.2580498 0.2589666 0.2590099 0.2572071
 0.2537358 0.2507105 0.2506818 0.2541139 0.2589483 0.2627316 0.2645934 0.2651143 0.2649827 0.2642747
 0.2628437 0.2609707 0.2593886 0.2587077 0.2589747 0.259813 0.2608122 0.2617104 0.2623841 0.2628329
 0.263136 0.2633515 0.26349 0.2635799 0.2636616 0.2637005 0.2636153 0.2634397 0.2633635 0.2635332
 0.2638708 0.2641566 0.2642326 0.2640379 0.263506 0.2625701 0.2612876 0.2598304 0.2582976 0.2566435
 0.2549095 0.2534932 0.2530367 0.2539415 0.2559913 0.2584785 0.26069 0.2622721 0.2632287 0.2637205
 0.2639175 0.2639584 0.2639354 0.2638775 0.2637615 0.2635563 0.26326 0.2629005 0.2625138 0.2621312
 0.2617814 0.2614829 0.2612233 0.2609562 0.2606284 0.2602153 0.2597319 0.2592143 0.2586828 0.2581168
 0.2574655 0.2566875 0.2557851 0.2548102 0.2538466 0.2529683 0.2521874 0.2514454 0.2506717 0.2498397
 0.2489451 0.2479591 0.2468573 0.2456997 0.2446289 0.2437536 0.2430559 0.2424272 0.2417645 0.2410108
 0.2401437 0.2391713 0.2381325 0.2370662 0.2359802 0.2348596 0.2336885 0.2324499 0.2311219 0.2296916
 0.2281646 0.2265627 0.2249227 0.2232837 0.221644 0.219922 0.2179757 0.2156585 0.2128588 0.2095077
 0.2055872 0.2011514 0.1963422 0.1913693 0.1864523 0.1817674 0.1774404 0.1735706 0.1702407 0.1675092
 0.1654121 0.1639756 0.1632232 0.1631763 0.163844 0.1652011 0.1671693 0.1696234 0.1724133 0.1753795
 0.1783594 0.1812023 0.1838102 0.1861778 0.1883767 0.1904704 0.1924492 0.1942579 0.1958657 0.1972803
 0.1985106 0.1995539 0.2004175 0.2011279 0.2017158 0.2022056 0.202621 0.2029863 0.2033175 0.2036116
 0.2038546 0.2040452 0.2042075 0.2043771 0.2045776 0.2048127 0.2050777 0.2053763 0.2057287 0.2061562
 0.2066581 0.2072107 0.2077926 0.2083975 0.2090256 0.2096799 0.2103812 0.2111773 0.2121248 0.2132496
 0.214525 0.2158865 0.2172635 0.2185873 0.2197836 0.2207826 0.221544 0.2220635 0.2223611 0.2224711
 0.2224301 0.2222611 0.2219748 0.2215859 0.2211137 0.2205695 0.2199592 0.2192998 0.2186175 0.217929
 0.2172348 0.2165335 0.2158344 0.2151528 0.2144965 0.2138642 0.2132525 0.212656 0.2120622 0.2114585
 0.2108474 0.2102444 0.2096608 0.2090978 0.2085497 0.207994 0.2073851 0.2066766 0.2058529 0.2049256
 0.2039044 0.2027877 0.2015804 0.2003011 0.1989624 0.1975539 0.1960558 0.1944643 0.1927948 0.1910586
 0.1892434 0.1873264 0.1853146 0.1832676 0.1812748 0.179408 0.177692 0.1761068 0.1746114 0.1731783
 0.1718122 0.1705297 0.1693259 0.1681771 0.1670701 0.1660108 0.1650082 0.1640641 0.163181 0.1623695
 0.1616465 0.1610222 0.1604853 0.1600095 0.1595782 0.1591972 0.1588933 0.1587078 0.1586689 0.1587453
 0.1588432 0.1588714 0.1588033 0.1586737 0.1585341 0.1584147 0.1583149 0.1582255 0.1581517 0.158092
 0.1579923 0.1577442 0.1572313 0.1563759 0.1551608 0.1536296 0.1518683 0.149993 0.1481452 0.1464593
 0.1450146 0.1438376 0.1429369 0.142293 0.1418311 0.1414631 0.1411621 0.1409747 0.140967 0.1411469
 0.1414123 0.1416023 0.1416474 0.1416513 0.1417937 0.1421825 0.1428042 0.1435581 0.1443184 0.1449962
 0.1455508 0.145953 0.1461868 0.1462841 0.1462997 0.1462546 0.1461423 0.1459631 0.1457179 0.1454049
 0.145036 0.1446214 0.1441473 0.1435967 0.1429633 0.1422334 0.1414001 0.1404779 0.139452 0.1382782
 0.1370117 0.135879 0.1351528 0.1349922 0.1353918 0.1361996 0.1372033 0.138265 0.1393035 0.1401264
 0.1404862 0.1404655 0.140659 0.1417387 0.1438099 0.14629 0.1484291 0.149852 0.1505765 0.1507037
 0.1502782 0.1493388 0.1478945 0.1459012 0.1433885 0.1405123 0.1374262 0.1342618 0.1312319 0.1285541
 0.126304 0.1244691 0.1230417 0.1220681 0.1216765 0.1214823 0.119575 0.1135252 0.1041542 0.09718797
 0.09842683 0.1072131 0.1169 0.1218574 0.121946 0.120199 0.1187202 0.1178204 0.1173609 0.117457
 0.1182223 0.1194991 0.1208963 0.1220316 0.1227615 0.1231249 0.1230642 0.1222097 0.1198311 0.1150867
 0.107697 0.09853563 0.0893402 0.08170669 0.07636545 0.07319236 0.07156712 0.07074314 0.07021459 0.0699457
 0.07023836 0.0713549 0.07330093 0.07593509 0.07911806 0.08262199 0.08601052 0.08884039 0.09100249 0.09270719
 0.09412478 0.0951841 0.09573202 0.09574793 0.0953553 0.09471476 0.09395745 0.0931567 0.09228507 0.09123071
 0.08996613 0.08871216 0.08781548 0.08742334 0.08737462 0.08741938 0.08742905 0.08739102 0.08732915 0.08726624
 0.08721147 0.08719368 0.0873073 0.08764303 0.08815076 0.08864608 0.08897068 0.08910933 0.08915375 0.08914731
 0.08895697 0.08840042 0.08756676 0.08682369 0.08633184 0.08574886 0.08468418 0.08332305 0.08231246 0.08206132
 0.08237293 0.08274873 0.08284845 0.08263848 0.08231348 0.0821946 0.08253425 0.08322515 0.08378094 0.08377977
</values></Ydata></ScRf><Data_Parameters_AB><parameter name="DPF">1</parameter><parameter name="NPT">3497</parameter><parameter name="FXV">3996</parameter><parameter name="LXV">500</parameter><parameter name="CSF">1</parameter><parameter name="MXY">0.0561961121857166</parameter><parameter name="MNY">-0.0588943473994732</parameter><parameter name="DAT">31/05/2022</parameter><parameter name="TIM">13:56:28.477 (GMT+2)</parameter><parameter name="DXU">WN</parameter></Data_Parameters_AB><AB__Qtest><MainReport name="Quality Test Report"><Header><Line><Legend>Test result ok/not ok [1/0]: </Legend><Value>0</Value></Line><Line><Legend>Method file: </Legend><Value>C:\Users\Public\Documents\Bruker\OPUS_8.2.28\QT\IRBT_v3_default.QT</Value></Line></Header><Matrix><Line><Legend></Legend><Legend>min</Legend><Legend>max</Legend><Legend>measured</Legend></Line><Line><Value>Absorption (X-Range 1):</Value><Value>0.400000</Value><Value>2.000000</Value><Value>0.078475</Value></Line><Line><Value>Noise (X-Range 4):</Value><Value></Value><Value>0.000300</Value><Value>0.000046</Value></Line><Line><Value>Signal/Noise (X-Range 2):</Value><Value>200.000000</Value><Value></Value><Value>28.036953</Value></Line><Line><Value>Signal/Noise (X-Range 3):</Value><Value>40.000000</Value><Value></Value><Value>17.319796</Value></Line><Line><Value>Water vapour (X-Range 5):</Value><Value></Value><Value>0.000300</Value><Value>0.000033</Value></Line><Line><Value>Signal/Water (X-Range 2):</Value><Value>100.000000</Value><Value></Value><Value>39.079115</Value></Line><Line><Value>Signal/Water (X-Range 3):</Value><Value>20.000000</Value><Value></Value><Value>24.141079</Value></Line><Line><Value>Fringes (X-Range 6):</Value><Value></Value><Value>0.000100</Value><Value>0.000049</Value></Line></Matrix></MainReport></AB__Qtest><Data_Parameters_ScSm><parameter name="DPF">1</parameter><parameter name="NPT">1814</parameter><parameter name="FXV">3996.33169228125</parameter><parameter name="LXV">499.541461535156</parameter><parameter name="CSF">1</parameter><parameter name="MXY">0.275011956691742</parameter><parameter name="MNY">0.0328593850135803</parameter><parameter name="DAT">31/05/2022</parameter><parameter name="TIM">13:56:28.477 (GMT+2)</parameter><parameter name="DXU">WN</parameter></Data_Parameters_ScSm><Data_Parameters_ScRf><parameter name="DPF">1</parameter><parameter name="NPT">1820</parameter><parameter name="FXV">4004.04661832813</parameter><parameter name="LXV">495.683998511719</parameter><parameter name="CSF">1</parameter><parameter name="MXY">0.265114337205887</parameter><parameter name="MNY">0.0292243454605341</parameter><parameter name="DAT">31/05/2022</parameter><parameter name="TIM">13:56:02.625 (GMT+2)</parameter><parameter name="DXU">WN</parameter></Data_Parameters_ScRf><Optic_Parameters_Rf><parameter name="APR">0</parameter><parameter name="APT">Open</parameter><parameter name="BMS">KBr</parameter><parameter name="DTC">RT-DLaTGS_IR-Biotyper [Microplate reader]</parameter><parameter name="HPF">0</parameter><parameter name="LPF">10.0</parameter><parameter name="LPV">4000</parameter><parameter name="PGR">0</parameter><parameter name="RCH">Module port</parameter><parameter name="RDX">0</parameter><parameter name="SRC">MIR</parameter><parameter name="VEL">10.0</parameter><parameter name="SON">Off</parameter></Optic_Parameters_Rf><Acquisition_Parameters_Rf><parameter name="ADT">1</parameter><parameter name="AQM">DD</parameter><parameter name="CFE">0</parameter><parameter name="COR">0</parameter><parameter name="DEL">0</parameter><parameter name="DLY">0</parameter><parameter name="HFW">8000</parameter><parameter name="LFW">0</parameter><parameter name="NSR">32</parameter><parameter name="PLF">AB</parameter><parameter name="RES">6</parameter><parameter name="RGN">-1</parameter><parameter name="STR">0</parameter><parameter name="TCL">MakeCompatibleScalar (0, {WSV=1.000000, ARV=0});</parameter><parameter name="TDL">37</parameter><parameter name="RPO">0</parameter></Acquisition_Parameters_Rf><FT_-_Parameters_Rf><parameter name="APF">B3</parameter><parameter name="HFQ">500</parameter><parameter name="LFQ">4000</parameter><parameter name="NLI">0</parameter><parameter name="PHR">24</parameter><parameter name="PHZ">ML</parameter><parameter name="SPZ">NO</parameter><parameter name="ZFF">1</parameter></FT_-_Parameters_Rf><Optic_Parameters_><parameter name="APR">0</parameter><parameter name="APT">Open</parameter><parameter name="BMS">KBr</parameter><parameter name="CHN">Module port</parameter><parameter name="DTC">RT-DLaTGS_IR-Biotyper [Microplate reader]</parameter><parameter name="HPF">0</parameter><parameter name="LPF">10.0</parameter><parameter name="LPV">4000</parameter><parameter name="PGN">0</parameter><parameter name="RDX">0</parameter><parameter name="SRC">MIR</parameter><parameter name="VEL">10.0</parameter><parameter name="SON">Off</parameter></Optic_Parameters_><FT_-_Parameters_><parameter name="APF">B3</parameter><parameter name="HFQ">500</parameter><parameter name="LFQ">4000</parameter><parameter name="NLI">0</parameter><parameter name="PHR">24</parameter><parameter name="PHZ">ML</parameter><parameter name="SPZ">NO</parameter><parameter name="ZFF">1</parameter></FT_-_Parameters_><Acquisition_Parameters_><parameter name="ADT">1</parameter><parameter name="AQM">DD</parameter><parameter name="CFE">0</parameter><parameter name="COR">0</parameter><parameter name="DEL">0</parameter><parameter name="DLY">0</parameter><parameter name="HFW">8000</parameter><parameter name="LFW">0</parameter><parameter name="NSS">32</parameter><parameter name="PLF">AB</parameter><parameter name="RES">6</parameter><parameter name="SOT">0</parameter><parameter name="TCL">MakeCompatibleScalar (0, {WSV=1.000000, ARV=0});</parameter><parameter name="TDL">37</parameter><parameter name="SPO">0</parameter><parameter name="SGN">-1</parameter></Acquisition_Parameters_><Instrument_Parameters_Rf><parameter name="HFL">15800.168544</parameter><parameter name="LFL">0</parameter><parameter name="LWN">15800.168544</parameter><parameter name="ABP">32197</parameter><parameter name="SSP">1</parameter><parameter name="ARG">2</parameter><parameter name="ASG">2</parameter><parameter name="ASS">32</parameter><parameter name="GFW">16</parameter><parameter name="GBW">16</parameter><parameter name="BFW">0</parameter><parameter name="BBW">0</parameter><parameter name="PKA">7263</parameter><parameter name="PKL">4996</parameter><parameter name="PRA">7446</parameter><parameter name="PRL">5001</parameter><parameter name="P2A">1</parameter><parameter name="P2L">1</parameter><parameter name="P2R">1</parameter><parameter name="P2K">1</parameter><parameter name="DAQ">0</parameter><parameter name="AG2">1</parameter><parameter name="SSM">1</parameter><parameter name="RSN">25729</parameter><parameter name="CRR">0</parameter><parameter name="SRT">1654005362.625</parameter><parameter name="DUR">19.6379852294922</parameter><parameter name="TSC">29</parameter><parameter name="MVD">0.47685706615448</parameter><parameter name="AN1">0.225799971985386</parameter><parameter name="AN2">0</parameter><parameter name="VSN">2.485 Apr  4 2017</parameter><parameter name="SRN">0085</parameter><parameter name="CAM">0</parameter><parameter name="INS">IR-Biotyper</parameter><parameter name="FOC">69</parameter><parameter name="RDY">1</parameter><parameter name="ARS">32</parameter></Instrument_Parameters_Rf><Sample_Parameters_><parameter name="BLD"></parameter><parameter name="CNM">Admin</parameter><parameter name="CPY"></parameter><parameter name="DPM"></parameter><parameter name="EXP">IRBT_v3_32Scans.XPM</parameter><parameter name="LCT"></parameter><parameter name="SFM">Microplate, HTS-XT</parameter><parameter name="SNM">220531-1301_CGR32F (D_4)_D6_4789985f-111e-46cc-96c8-611d292cbf95.0</parameter><parameter name="XPP">C:\Users\Public\Documents\Bruker\OPUS_8.2.28\XPM</parameter><parameter name="IST">OK</parameter><parameter name="CPG">1252</parameter><parameter name="UID">969c9e3b-b781-4660-89ec-7c61c3781c2e</parameter></Sample_Parameters_><Instrument_Parameters_><parameter name="HFL">15800.168544</parameter><parameter name="LFL">0</parameter><parameter name="LWN">15800.168544</parameter><parameter name="ABP">32197</parameter><parameter name="SSP">1</parameter><parameter name="ASG">2</parameter><parameter name="ARG">2</parameter><parameter name="ASS">32</parameter><parameter name="GFW">16</parameter><parameter name="GBW">16</parameter><parameter name="BFW">0</parameter><parameter name="BBW">0</parameter><parameter name="PKA">7642</parameter><parameter name="PKL">4988</parameter><parameter name="PRA">7920</parameter><parameter name="PRL">4993</parameter><parameter name="P2A">1</parameter><parameter name="P2L">1</parameter><parameter name="P2R">1</parameter><parameter name="P2K">1</parameter><parameter name="DAQ">0</parameter><parameter name="AG2">1</parameter><parameter name="SSM">1</parameter><parameter name="RSN">13490</parameter><parameter name="CRR">0</parameter><parameter name="SRT">1654005388.478</parameter><parameter name="DUR">19.6379852294922</parameter><parameter name="TSC">29</parameter><parameter name="MVD">0.204961329698563</parameter><parameter name="AN1">0.225796306767459</parameter><parameter name="AN2">0</parameter><parameter name="VSN">2.485 Apr  4 2017</parameter><parameter name="SRN">0085</parameter><parameter name="CAM">0</parameter><parameter name="INS">IR-Biotyper</parameter><parameter name="FOC">69</parameter><parameter name="RDY">1</parameter></Instrument_Parameters_><History/></OPUSDataFile>
