<?xml version="1.0" encoding="UTF-8" ?>
<OPUSDataFile><AB><Ydata ylabel="Absorbance Units"><values byteorder="INTEL" format="FLOAT32" numvalues="3497"> -0.05827736 -0.0582733 -0.05826886 -0.05826505 -0.058247 -0.05821399 -0.05815618 -0.058075 -0.0579849 -0.0578898
 -0.05782076 -0.05777805 -0.05778159 -0.05782332 -0.05789611 -0.05798839 -0.05807767 -0.05815884 -0.0582156 -0.05825313
 -0.05826942 -0.05827288 -0.05826755 -0.05825857 -0.05824829 -0.05824089 -0.0582375 -0.05824212 -0.05825601 -0.05827771
 -0.05830755 -0.05833847 -0.05837008 -0.05839844 -0.05842385 -0.05844931 -0.05847502 -0.05850407 -0.05853542 -0.05856679
 -0.0585977 -0.05862561 -0.05865103 -0.05867422 -0.05869414 -0.05871049 -0.0587199 -0.05871919 -0.05870764 -0.05868267
 -0.05864966 -0.05860927 -0.05856878 -0.0585301 -0.05849758 -0.05847207 -0.05845673 -0.05845176 -0.05846208 -0.05848798
 -0.05853203 -0.05859356 -0.05866489 -0.05874376 -0.05881234 -0.0588698 -0.05890211 -0.05891362 -0.05890581 -0.05888746
 -0.05887354 -0.05887017 -0.05889316 -0.05893558 -0.05900143 -0.05906905 -0.05912864 -0.05916188 -0.0591559 -0.05911882
 -0.05904659 -0.05896957 -0.05889174 -0.05883717 -0.05880921 -0.05881387 -0.05885168 -0.05892047 -0.0590198 -0.05914541
 -0.0592944 -0.05944983 -0.0596038 -0.05971709 -0.05978755 -0.05978446 -0.05972483 -0.05962116 -0.05949384 -0.05937415
 -0.05926565 -0.05918462 -0.05911815 -0.05906399 -0.05900922 -0.0589452 -0.05887908 -0.05880869 -0.05875501 -0.05872218
 -0.05871705 -0.05874226 -0.05877903 -0.05882645 -0.05886365 -0.05889133 -0.05891539 -0.05893888 -0.05898543 -0.05905351
 -0.05915291 -0.05927392 -0.0593992 -0.05951775 -0.05960044 -0.05964964 -0.05965379 -0.05962695 -0.05957763 -0.05951332
 -0.05943997 -0.05936273 -0.05928024 -0.0592158 -0.05917233 -0.05918171 -0.05925113 -0.05939156 -0.05960894 -0.05985627
 -0.0601319 -0.06029766 -0.06035022 -0.06020346 -0.05988273 -0.05951248 -0.0591098 -0.05880997 -0.0585993 -0.05851292
 -0.05852882 -0.05863041 -0.05878773 -0.05896239 -0.0591243 -0.05923207 -0.05928467 -0.0592625 -0.05920189 -0.05911176
 -0.0590223 -0.05894664 -0.05888095 -0.05882661 -0.05877587 -0.05872677 -0.05869163 -0.05867103 -0.05867979 -0.05871714
 -0.05877405 -0.05884649 -0.05890344 -0.05894276 -0.05893755 -0.0588934 -0.05880909 -0.05869446 -0.05856549 -0.05842979
 -0.05830193 -0.05818807 -0.05809687 -0.0580349 -0.05800759 -0.05802033 -0.05807804 -0.05817639 -0.05831919 -0.05848036
 -0.05865925 -0.05881262 -0.05893621 -0.05899579 -0.05898876 -0.05891311 -0.05877051 -0.05858834 -0.05836969 -0.05814757
 -0.05792396 -0.05772334 -0.0575473 -0.05741309 -0.0573189 -0.05727283 -0.05726288 -0.05728146 -0.05730788 -0.05732205
 -0.05731186 -0.0572605 -0.05717986 -0.05706713 -0.05694968 -0.05683343 -0.05674144 -0.05667929 -0.05665535 -0.05667209
 -0.05672169 -0.05680407 -0.05689583 -0.0569951 -0.0570685 -0.05711541 -0.05711295 -0.05706631 -0.05698175 -0.05686808
 -0.05675057 -0.05663539 -0.05654456 -0.05648098 -0.05645726 -0.05647247 -0.05653108 -0.05662763 -0.05676148 -0.05692372
 -0.05711433 -0.05731188 -0.05751586 -0.05768318 -0.05780665 -0.05785358 -0.05781721 -0.05770914 -0.05752952 -0.05729806
 -0.05701609 -0.05670342 -0.05636604 -0.05605567 -0.05577686 -0.05557889 -0.05545409 -0.05541162 -0.05543275 -0.0554921
 -0.05556596 -0.05561158 -0.05562512 -0.05558231 -0.05550806 -0.05540987 -0.05530921 -0.05521979 -0.05513924 -0.05507254
 -0.05499809 -0.05491256 -0.05480123 -0.05466008 -0.05450527 -0.05433724 -0.05418777 -0.05405776 -0.05396485 -0.0539059
 -0.05387047 -0.05384949 -0.05380065 -0.05371812 -0.05355601 -0.05333609 -0.0530731 -0.05279623 -0.05255825 -0.05234559
 -0.0521721 -0.05199589 -0.05179344 -0.05154448 -0.0512267 -0.05086947 -0.05047216 -0.05008375 -0.04971482 -0.04938524
 -0.04910143 -0.04883841 -0.04859576 -0.04831386 -0.04799075 -0.04758567 -0.04710798 -0.04660566 -0.04609005 -0.04563917
 -0.04524319 -0.04491705 -0.04464388 -0.04440139 -0.04417375 -0.04393746 -0.04366688 -0.04333206 -0.04291657 -0.04239168
 -0.04179063 -0.04111744 -0.04041292 -0.03969645 -0.03895335 -0.03818311 -0.03737518 -0.03652465 -0.03566943 -0.03481165
 -0.0339824 -0.03318199 -0.03241104 -0.03166931 -0.03095602 -0.0302716 -0.02961894 -0.02899545 -0.02839585 -0.02781724
 -0.02725479 -0.02669873 -0.02614567 -0.02555488 -0.02489343 -0.0241191 -0.02317231 -0.02212256 -0.02096796 -0.01984048
 -0.01879021 -0.01783236 -0.01698565 -0.01618734 -0.01543214 -0.01467406 -0.01390899 -0.01313186 -0.01234382 -0.01157372
 -0.01082222 -0.01011459 -0.009437027 -0.008750353 -0.008029514 -0.007170653 -0.006196796 -0.005081412 -0.003909836 -0.00279678
 -0.001758938 -0.0008709144 -6.218591E-05 0.0006893462 0.001441626 0.002234473 0.003057167 0.003920983 0.004773955 0.005604949
 0.006397807 0.007144993 0.007888684 0.008630631 0.009428666 0.01028377 0.01120753 0.01219247 0.0131852 0.0141809
 0.01512721 0.01603262 0.01689319 0.01771986 0.01853091 0.01933459 0.02014786 0.02097864 0.02184455 0.02273397
 0.02365121 0.02456131 0.02544479 0.02630144 0.02711586 0.02795422 0.02882752 0.02978148 0.0308316 0.03190702
 0.03300527 0.03401852 0.03494478 0.0357689 0.03649939 0.03719609 0.03786574 0.03857157 0.03930851 0.04009904
 0.04092536 0.04176272 0.04260129 0.04340917 0.04420909 0.04500458 0.0458358 0.04673715 0.04770473 0.04875799
 0.04983205 0.0509118 0.0519499 0.05293025 0.05385751 0.054729 0.0555668 0.05637205 0.05716762 0.05795462
 0.05875244 0.05956084 0.06038599 0.06122775 0.06208769 0.06296857 0.06388143 0.06482289 0.06579707 0.06678558
 0.06776635 0.06872328 0.06962816 0.07049103 0.07130621 0.07209902 0.07288076 0.0736621 0.07445171 0.07523691
 0.07601717 0.07677715 0.07751286 0.07823541 0.0789444 0.07967735 0.08043574 0.08124546 0.08210298 0.08299161
 0.08390484 0.08480313 0.08568686 0.08653461 0.08735482 0.08815384 0.08893888 0.08972494 0.09050845 0.09129436
 0.09206846 0.09282173 0.09354856 0.09423842 0.09491403 0.09557655 0.09626213 0.09697997 0.09774143 0.09855133
 0.09939028 0.1002577 0.1011248 0.10199 0.1028276 0.1036372 0.1044019 0.105124 0.1058045 0.1064481
 0.1070687 0.1076686 0.1082594 0.1088414 0.1094194 0.1099929 0.1105626 0.1111285 0.1116884 0.11225
 0.1128138 0.1133968 0.114007 0.1146433 0.1153115 0.1159772 0.1166368 0.1172632 0.1178529 0.1184247
 0.11898 0.1195543 0.1201462 0.1207582 0.1213847 0.1219991 0.1226004 0.1231696 0.1237131 0.1242343
 0.1247413 0.1252485 0.1257565 0.1262739 0.1267892 0.1272978 0.1277884 0.1282524 0.1286931 0.1291086
 0.1295086 0.1298947 0.1302722 0.130641 0.1310115 0.1313841 0.1317737 0.1321805 0.1326018 0.1330363
 0.1334688 0.1339027 0.1343451 0.1348009 0.1352929 0.1358126 0.1363576 0.136908 0.1374334 0.1379232
 0.1383531 0.1387297 0.1390483 0.139324 0.139561 0.1397767 0.1399763 0.1401756 0.140379 0.1405939
 0.1408223 0.1410635 0.1413176 0.141581 0.1418534 0.1421293 0.1424087 0.1426889 0.1429705 0.1432573
 0.1435469 0.1438368 0.1441196 0.1443779 0.1446105 0.1448027 0.144971 0.1451235 0.1452819 0.1454673
 0.1456788 0.1459279 0.1461836 0.1464407 0.1466653 0.1468465 0.1469809 0.1470635 0.147126 0.1471704
 0.1472239 0.1472872 0.1473439 0.1473906 0.1473863 0.1473335 0.1472194 0.1470572 0.1468794 0.146698
 0.1465568 0.146453 0.1464048 0.1463948 0.1464124 0.1464417 0.1464638 0.1464865 0.1465037 0.1465461
 0.146624 0.1467507 0.146938 0.1471452 0.1473726 0.1475483 0.1476663 0.1476849 0.1476031 0.1474407
 0.1472023 0.1469404 0.1466565 0.1463864 0.1461261 0.1458801 0.1456497 0.1454365 0.1452513 0.1451132
 0.1450211 0.1449902 0.1449884 0.1450019 0.1449936 0.1449359 0.1448342 0.1446767 0.1445119 0.1443478
 0.1442223 0.1441457 0.1441046 0.1441007 0.1440815 0.1440443 0.1439422 0.1437772 0.1435468 0.1432607
 0.1429644 0.1426674 0.1424264 0.1422388 0.142131 0.1420844 0.1420871 0.1421115 0.1421262 0.1421096
 0.1420328 0.1419 0.1416994 0.1414659 0.1412052 0.1409592 0.1407382 0.1405654 0.1404454 0.1403913
 0.1404042 0.1405001 0.1406794 0.1409365 0.1412654 0.1416058 0.1419458 0.1421906 0.1423379 0.1423234
 0.1421706 0.1418893 0.1415256 0.1411487 0.1407985 0.1405491 0.1403952 0.1403699 0.1404102 0.1405025
 0.1405648 0.1405647 0.1404613 0.1402324 0.1399066 0.1394802 0.1390251 0.1385465 0.138101 0.1376908
 0.1373257 0.137004 0.1367109 0.1364472 0.1362096 0.1360014 0.135833 0.1357019 0.1356118 0.1355485
 0.1354973 0.1354325 0.1353256 0.1351481 0.1348678 0.1344803 0.1339652 0.1333654 0.1326828 0.1319891
 0.1312997 0.1306673 0.1301041 0.1296202 0.1292192 0.1288762 0.1285897 0.1283088 0.1280308 0.1277034
 0.1273318 0.1269118 0.1264593 0.1260273 0.1256203 0.1252834 0.12499 0.1247232 0.1244478 0.124114
 0.1237202 0.1232392 0.1227134 0.1221504 0.1216084 0.1211096 0.1206884 0.1203638 0.1201104 0.1199343
 0.1197475 0.1195438 0.1192365 0.1188216 0.1182917 0.1176536 0.1169809 0.1162807 0.1156321 0.1150305
 0.1145038 0.1140395 0.1136241 0.1132474 0.1128882 0.1125399 0.1121888 0.1118294 0.1114537 0.1110588
 0.1106399 0.1102019 0.1097428 0.1092795 0.1088142 0.1083669 0.1079421 0.1075421 0.107169 0.1067974
 0.1064261 0.1060203 0.10558 0.1050912 0.1045587 0.1040015 0.1034271 0.1028716 0.1023374 0.1018506
 0.1014017 0.1009904 0.1005985 0.1002066 0.09980149 0.09936428 0.09889904 0.09839985 0.09788511 0.09735959
 0.09683852 0.09632806 0.09582637 0.095335 0.094842 0.09434613 0.09384352 0.093334 0.09282725 0.09232383
 0.0918343 0.09135769 0.09089437 0.09044243 0.08999553 0.08955274 0.08910889 0.08866372 0.08821487 0.08776157
 0.08730146 0.08683616 0.08636255 0.08589438 0.08543262 0.08500803 0.08463194 0.08432397 0.0840994 0.08391794
 0.0837836 0.08359568 0.08334579 0.08295189 0.08240962 0.08173653 0.08094093 0.08012869 0.07930911 0.07859289
 0.07797427 0.07749946 0.07714146 0.07686804 0.07664027 0.0763808 0.07606946 0.07564273 0.07513265 0.07453199
 0.07391051 0.07330549 0.07275314 0.07228526 0.07186669 0.07149705 0.07112975 0.07075155 0.07038165 0.0700177
 0.06972632 0.06951094 0.06939462 0.06937122 0.06937174 0.06938381 0.06929728 0.06911296 0.06876729 0.06828667
 0.06769556 0.06703056 0.06636512 0.06571089 0.06511657 0.06455793 0.06403061 0.06351647 0.06299514 0.06249385
 0.06201613 0.06159367 0.061244 0.0609331 0.06066347 0.06036024 0.06001389 0.05961111 0.05915074 0.05870619
 0.058281 0.05794353 0.05768619 0.0575002 0.05737266 0.0572511 0.05713385 0.05698949 0.05682587 0.05664371
 0.05644533 0.05623816 0.05600896 0.05575414 0.05544874 0.05507782 0.05462782 0.05408221 0.05347284 0.05279536
 0.05212825 0.05148167 0.0509247 0.05046847 0.05010708 0.04984084 0.04958984 0.04934945 0.04903622 0.04865458
 0.04818463 0.04764235 0.04707298 0.04649106 0.0459563 0.04546778 0.04505465 0.04469949 0.04439666 0.04412161
 0.04385398 0.04357512 0.04326633 0.042931 0.04256064 0.04218698 0.04181464 0.04147754 0.04118576 0.04092992
 0.04071331 0.04047827 0.04022166 0.03989922 0.03951333 0.03908815 0.03863135 0.03820619 0.03780879 0.03746333
 0.03715107 0.03683654 0.03651142 0.03613811 0.03573746 0.03531551 0.03490213 0.03452665 0.03419616 0.03392547
 0.03370234 0.03352344 0.03338733 0.03329055 0.03324797 0.03326282 0.0333373 0.03347462 0.03363893 0.03382856
 0.03397771 0.03408326 0.03408656 0.03399086 0.03378307 0.03347607 0.03310788 0.03269348 0.03228888 0.03190011
 0.03156384 0.03127573 0.03104562 0.03086514 0.03073149 0.03063545 0.03057291 0.0305317 0.03050816 0.0304868
 0.03046362 0.03042538 0.03036757 0.03029475 0.03020428 0.03013559 0.03009056 0.0301354 0.03027231 0.03054802
 0.03095598 0.03148183 0.03211017 0.03277681 0.03346973 0.03412573 0.0347449 0.03529733 0.03579244 0.03622806
 0.0366184 0.0369717 0.03730674 0.03763436 0.03797305 0.03833399 0.03872014 0.039139 0.03956415 0.03999601
 0.04038596 0.04072957 0.04098525 0.04115002 0.0412178 0.04119045 0.04109713 0.04094066 0.0407545 0.04053731
 0.04030024 0.04004355 0.03976821 0.03948791 0.03922258 0.03899426 0.03884016 0.03876466 0.0387908 0.03889267
 0.03906447 0.03927536 0.03950875 0.03976052 0.04002362 0.0403156 0.04063886 0.04100405 0.04141407 0.04185665
 0.04233159 0.04280192 0.04326423 0.04366026 0.0439857 0.04418104 0.04424875 0.04416248 0.04393604 0.04358843
 0.04313704 0.04262178 0.04204986 0.04144964 0.04081014 0.04013634 0.03940148 0.03859395 0.03768621 0.03666146
 0.03551819 0.03424527 0.03288657 0.03144179 0.02998975 0.02853727 0.02715842 0.02585849 0.0246673 0.02358373
 0.02258878 0.02167897 0.02082095 0.02001539 0.01924779 0.01851964 0.01783056 0.01717379 0.01653899 0.01591579
 0.01528418 0.01464782 0.01399827 0.01335692 0.01273223 0.01214572 0.01160881 0.01112971 0.01071366 0.01035859
 0.01006522 0.009828473 0.009647505 0.009522879 0.009454392 0.009455137 0.009524949 0.00966648 0.009871647 0.01009025
 0.01030579 0.01042238 0.01043775 0.01028614 0.01000101 0.009602506 0.00914554 0.008705892 0.008320664 0.008052952
 0.007899083 0.007881504 0.007961411 0.008134171 0.00834482 0.008580454 0.008790324 0.008963523 0.00906977 0.009104378
 0.009053713 0.008916942 0.008671457 0.00831469 0.007798763 0.007121472 0.006237902 0.005159536 0.003899166 0.002489225
 0.001016957 -0.0004841572 -0.001907958 -0.003254257 -0.004471183 -0.005596897 -0.006645507 -0.00765351 -0.00865322 -0.00964114
 -0.01062831 -0.01158411 -0.01250131 -0.01336212 -0.01415979 -0.01490252 -0.01558973 -0.01623826 -0.0168492 -0.0174327
 -0.01798902 -0.01852226 -0.01903265 -0.01952404 -0.01999681 -0.02045558 -0.02089868 -0.0213252 -0.02173054 -0.02210485
 -0.02244777 -0.02275026 -0.02302731 -0.0232848 -0.02354817 -0.02383622 -0.02415797 -0.0245284 -0.02491994 -0.02533249
 -0.02571879 -0.02606903 -0.02635908 -0.02658193 -0.02676097 -0.02689666 -0.02703624 -0.02718111 -0.02735587 -0.02755709
 -0.02777029 -0.02799291 -0.02820372 -0.02840938 -0.02861609 -0.02883301 -0.02908345 -0.02936299 -0.02967965 -0.03001466
 -0.03035488 -0.030684 -0.03098715 -0.03126017 -0.03149705 -0.0317011 -0.03187047 -0.03201672 -0.03213905 -0.03226455
 -0.0323954 -0.03256114 -0.03276438 -0.03300805 -0.03329089 -0.0335839 -0.0338846 -0.03415971 -0.03441111 -0.0346281
 -0.03481605 -0.03498407 -0.03513597 -0.03528352 -0.03542697 -0.03557166 -0.03571604 -0.03586112 -0.03600334 -0.03614185
 -0.03627008 -0.03638479 -0.03648261 -0.03655937 -0.03662681 -0.03668414 -0.03675734 -0.03684958 -0.03697744 -0.03714293
 -0.03733347 -0.03754766 -0.03775446 -0.0379535 -0.03812651 -0.03827764 -0.0384146 -0.03854217 -0.03867897 -0.03882349
 -0.03898405 -0.03915081 -0.03931531 -0.03946679 -0.03958973 -0.03968706 -0.03975083 -0.03980501 -0.03985507 -0.03993072
 -0.04004362 -0.0402021 -0.04041307 -0.04065467 -0.04092642 -0.04119628 -0.04146183 -0.04170513 -0.04192598 -0.04212598
 -0.04230634 -0.04247733 -0.04263945 -0.04280038 -0.04295964 -0.04311998 -0.04328055 -0.04344124 -0.04360079 -0.04375754
 -0.04391044 -0.04405765 -0.04419964 -0.04433593 -0.04446806 -0.04459692 -0.04472203 -0.04484346 -0.04496029 -0.04507161
 -0.04518169 -0.04529031 -0.04540784 -0.04553507 -0.0456781 -0.04583666 -0.04600204 -0.04617222 -0.04632663 -0.04646432
 -0.04656842 -0.04664328 -0.04669026 -0.0467192 -0.04674884 -0.04678831 -0.04685921 -0.04696121 -0.04710425 -0.04727681
 -0.04747592 -0.04768699 -0.04790295 -0.04811476 -0.04831799 -0.04851017 -0.04868998 -0.04885775 -0.04901314 -0.04915912
 -0.04929569 -0.04943022 -0.0495631 -0.04970222 -0.04984712 -0.04999796 -0.05015311 -0.05030489 -0.05045329 -0.05059323
 -0.05072803 -0.05086184 -0.05099721 -0.05114079 -0.0512896 -0.05144427 -0.05159843 -0.05174793 -0.05188924 -0.0520191
 -0.05213897 -0.05224807 -0.05235076 -0.05244737 -0.05254344 -0.05263956 -0.05274084 -0.05284777 -0.05296244 -0.05308487
 -0.05321408 -0.05334986 -0.0534903 -0.05363473 -0.05377955 -0.05392343 -0.05406054 -0.0541903 -0.054308 -0.05441597
 -0.05451461 -0.05460867 -0.05470258 -0.05480033 -0.05490634 -0.05502075 -0.05514534 -0.05527659 -0.05541408 -0.05555372
 -0.0556946 -0.05583428 -0.05597254 -0.05610601 -0.05623448 -0.05635355 -0.05646312 -0.05656279 -0.0566534 -0.05674238
 -0.05683034 -0.05692488 -0.05702438 -0.05712823 -0.05723403 -0.05733599 -0.05743453 -0.05752723 -0.05761679 -0.05770507
 -0.05779376 -0.05788472 -0.05797797 -0.05807392 -0.05817253 -0.0582739 -0.05837791 -0.05848469 -0.05859299 -0.05870259
 -0.05881334 -0.05892516 -0.05903923 -0.05915556 -0.05927354 -0.05939284 -0.05951002 -0.05962477 -0.05973361 -0.05983668
 -0.05993273 -0.06002163 -0.06010241 -0.06017511 -0.06023855 -0.06029531 -0.0603464 -0.06039719 -0.0604515 -0.06051305
 -0.06058541 -0.06066652 -0.0607573 -0.06085145 -0.06094781 -0.06104201 -0.06113311 -0.06122068 -0.06130459 -0.06138569
 -0.06146399 -0.06153924 -0.06161141 -0.06167977 -0.06174459 -0.06180662 -0.06186623 -0.06192495 -0.06198314 -0.06204221
 -0.06210259 -0.06216563 -0.06223114 -0.06230009 -0.06237005 -0.06243998 -0.06250698 -0.06256886 -0.06262632 -0.06267837
 -0.06272984 -0.06278163 -0.06283692 -0.06289662 -0.06295865 -0.06302299 -0.06308543 -0.06314576 -0.06320168 -0.06325337
 -0.06330174 -0.06334739 -0.06339359 -0.06344101 -0.06349338 -0.06355077 -0.06361539 -0.06368627 -0.06376307 -0.06384467
 -0.06392995 -0.06401794 -0.06410787 -0.06419841 -0.06428882 -0.0643782 -0.06446602 -0.06455229 -0.06463714 -0.06471942
 -0.06479912 -0.06487396 -0.06494368 -0.06500828 -0.06506784 -0.06512649 -0.06518444 -0.0652457 -0.0653095 -0.06537426
 -0.06543867 -0.06549748 -0.06555083 -0.06559563 -0.06563475 -0.06567046 -0.06570692 -0.06574926 -0.06579974 -0.06586219
 -0.06593496 -0.0660192 -0.06610937 -0.06620455 -0.06629786 -0.06638759 -0.06646983 -0.06654332 -0.06661069 -0.06667186
 -0.06673367 -0.06679638 -0.0668633 -0.06693392 -0.06700475 -0.06707521 -0.06714018 -0.0672005 -0.06725569 -0.0673076
 -0.06735978 -0.06741367 -0.06747318 -0.06753799 -0.06760998 -0.06768587 -0.06776485 -0.06784118 -0.06791186 -0.06797341
 -0.06802307 -0.06806397 -0.06809544 -0.06812584 -0.06815621 -0.06819317 -0.06823768 -0.06828839 -0.06834512 -0.06839883
 -0.06844909 -0.06848773 -0.06851602 -0.06853582 -0.06854969 -0.06856713 -0.06858863 -0.06862056 -0.06866036 -0.06870692
 -0.0687578 -0.06880966 -0.06886224 -0.06891437 -0.06896628 -0.0690181 -0.06906886 -0.06911824 -0.06916569 -0.06921082
 -0.06925486 -0.06929794 -0.06934118 -0.06938479 -0.0694278 -0.06947016 -0.06950992 -0.0695473 -0.06958336 -0.06961896
 -0.0696594 -0.0697047 -0.06975861 -0.06981856 -0.06988133 -0.06994341 -0.06999749 -0.07004336 -0.07007684 -0.07010268
 -0.07012242 -0.07014181 -0.07016461 -0.07019219 -0.07022664 -0.07026386 -0.07030341 -0.07034126 -0.07037631 -0.07041018
 -0.07044277 -0.0704788 -0.07051851 -0.07056257 -0.07061087 -0.07066149 -0.07071532 -0.07077553 -0.07084416 -0.07092971
 -0.07103299 -0.07116 -0.07131038 -0.07148513 -0.07168657 -0.07191572 -0.07217993 -0.0724839 -0.07283572 -0.07324129
 -0.07370239 -0.07422221 -0.07479414 -0.07541759 -0.07608501 -0.07679506 -0.07754492 -0.07833473 -0.07915717 -0.08001141
 -0.08085354 -0.08167538 -0.08237458 -0.08293836 -0.08324044 -0.08328238 -0.08299105 -0.08240151 -0.08153696 -0.08047616
 -0.07933997 -0.07821231 -0.07723632 -0.07643148 -0.07586418 -0.07550249 -0.07534923 -0.07536532 -0.07554261 -0.07583393
 -0.07623633 -0.07666482 -0.07711121 -0.07747507 -0.07774401 -0.07789785 -0.07793556 -0.07791061 -0.07782497 -0.07771718
 -0.07758582 -0.07744205 -0.07728525 -0.07711964 -0.0769446 -0.07676145 -0.07656814 -0.07636168 -0.07614188 -0.07590577
 -0.07565888 -0.07540268 -0.07514731 -0.07489859 -0.0746619 -0.0744417 -0.07423402 -0.07403834 -0.07385321 -0.07367758
 -0.07351749 -0.07337363 -0.07324732 -0.0731386 -0.07303741 -0.07294351 -0.07285056 -0.07276016 -0.0726787 -0.07260634
 -0.07254821 -0.07250065 -0.0724576 -0.07241649 -0.07236939 -0.07231867 -0.07226395 -0.07220765 -0.07215217 -0.0720967
 -0.07204083 -0.07198606 -0.07193145 -0.0718846 -0.07184705 -0.07182469 -0.07181948 -0.0718278 -0.07184993 -0.07187571
 -0.07190461 -0.07192811 -0.07194618 -0.0719559 -0.07195789 -0.0719538 -0.07194462 -0.07193442 -0.07192416 -0.07191823
 -0.07191649 -0.07192121 -0.07193022 -0.07194261 -0.07195462 -0.07196304 -0.07196569 -0.0719597 -0.07194763 -0.07192897
 -0.07190991 -0.07189193 -0.07187889 -0.0718722 -0.07186886 -0.07186895 -0.07186589 -0.07185932 -0.07184978 -0.07183791
 -0.07183298 -0.07183486 -0.07184879 -0.07187141 -0.071894 -0.07191318 -0.07191499 -0.07190259 -0.07187305 -0.07183525
 -0.07179801 -0.07176784 -0.07175395 -0.07175478 -0.07177346 -0.07180132 -0.07183687 -0.07186925 -0.07189531 -0.07190941
 -0.07190926 -0.07189976 -0.07188064 -0.07186395 -0.07185033 -0.07184757 -0.07185534 -0.07187141 -0.07189476 -0.0719181
 -0.07194129 -0.07195987 -0.0719748 -0.07198621 -0.07199498 -0.0720028 -0.07200938 -0.07201488 -0.07201932 -0.07202213
 -0.07202549 -0.07203013 -0.0720388 -0.07205319 -0.0720727 -0.0720979 -0.07212564 -0.07215541 -0.07218575 -0.07221643
 -0.07224738 -0.07227857 -0.07230842 -0.07233682 -0.07236181 -0.07238388 -0.07240485 -0.07242548 -0.07244993 -0.07247766
 -0.07251006 -0.07254502 -0.07257975 -0.07261255 -0.07263977 -0.07266263 -0.07268006 -0.07269633 -0.07271308 -0.07273486
 -0.07276413 -0.07280175 -0.07284922 -0.07290182 -0.07295948 -0.07301462 -0.07306653 -0.07310937 -0.07314277 -0.07316706
 -0.07318262 -0.07319468 -0.0732037 -0.07321503 -0.07322876 -0.07324781 -0.07327243 -0.07330483 -0.07334481 -0.07339386
 -0.07344923 -0.07350912 -0.07356884 -0.07362352 -0.07367219 -0.07371142 -0.07374755 -0.07378154 -0.0738213 -0.07386973
 -0.07392757 -0.0739964 -0.07406773 -0.07414116 -0.07420599 -0.07426156 -0.07430466 -0.07433586 -0.07436279 -0.0743866
 -0.07441869 -0.07445838 -0.07450999 -0.07457037 -0.07463403 -0.07469846 -0.07475591 -0.07480825 -0.07485385 -0.07489721
 -0.07494185 -0.07498942 -0.07504279 -0.07509856 -0.0751562 -0.07521231 -0.07526548 -0.0753163 -0.07536444 -0.07541253
 -0.07546086 -0.07551019 -0.0755606 -0.07561106 -0.07566153 -0.0757112 -0.07576003 -0.0758074 -0.07585339 -0.07589779
 -0.07594116 -0.07598455 -0.0760289 -0.07607639 -0.07612731 -0.07618327 -0.07624301 -0.07630659 -0.07637094 -0.07643473
 -0.07649442 -0.07654808 -0.07659476 -0.07663306 -0.07666706 -0.07669682 -0.07672887 -0.07676402 -0.07680525 -0.07685284
 -0.07690357 -0.07695712 -0.07700763 -0.07705507 -0.07709599 -0.07713132 -0.07716242 -0.07719105 -0.07722205 -0.07725695
 -0.07730096 -0.07735362 -0.07741743 -0.07748834 -0.07756459 -0.07764041 -0.07771178 -0.07777631 -0.07783122 -0.07788005
 -0.07792279 -0.07796507 -0.0780079 -0.07805465 -0.0781059 -0.07816239 -0.07822426 -0.07828928 -0.07835705 -0.0784205
 -0.07847919 -0.07852567 -0.07856151 -0.07858782 -0.07860827 -0.07863289 -0.07866351 -0.07870886 -0.07876637 -0.07883721
 -0.0789163 -0.07900018 -0.07908389 -0.0791639 -0.07923637 -0.07929862 -0.07935045 -0.07939026 -0.07942431 -0.0794529
 -0.07948504 -0.07952189 -0.07956752 -0.07962237 -0.07968169 -0.07974505 -0.07980441 -0.07985975 -0.07990684 -0.07994647
 -0.0799794 -0.08000641 -0.08002969 -0.08004992 -0.08006893 -0.08008812 -0.08010983 -0.08013519 -0.08016634 -0.08020239
 -0.08024372 -0.08028808 -0.08033448 -0.08038218 -0.08043052 -0.08048087 -0.08053324 -0.08058963 -0.08065033 -0.08071575
 -0.08078601 -0.08085765 -0.08093026 -0.08099616 -0.0810551 -0.08110084 -0.08113454 -0.08115716 -0.08117065 -0.08118081
 -0.08118831 -0.08119711 -0.08120677 -0.08121772 -0.08123118 -0.08124761 -0.08127033 -0.08130165 -0.08134296 -0.08139667
 -0.08145753 -0.0815261 -0.08158989 -0.08164699 -0.08168668 -0.08170677 -0.08170988 -0.08169583 -0.08167858 -0.08165866
 -0.08164652 -0.08164132 -0.0816421 -0.08164791 -0.08165373 -0.08166091 -0.08167011 -0.08168374 -0.08170747 -0.08174017
 -0.08178417 -0.08183347 -0.08188428 -0.08193021 -0.0819659 -0.08198956 -0.08199864 -0.08199545 -0.0819799 -0.08195533
 -0.08192202 -0.08188427 -0.08184233 -0.08180217 -0.08176418 -0.08173353 -0.08171033 -0.08169667 -0.0816922 -0.08169585
 -0.08170665 -0.08172019 -0.08173555 -0.08174724 -0.08175685 -0.08176411 -0.08177239 -0.08178706 -0.08180677 -0.08183443
 -0.08186072 -0.08188103 -0.08188811 -0.08187556 -0.08184963 -0.08180913 -0.08176869 -0.08173092 -0.08170525 -0.0816936
 -0.08169547 -0.08171116 -0.08173221 -0.08175807 -0.08177821 -0.08179297 -0.08179931 -0.08179945 -0.081801 -0.08180559
 -0.08182269 -0.08184964 -0.08188738 -0.08192907 -0.08196665 -0.08199419 -0.08200213 -0.0819924 -0.0819613 -0.08191983
 -0.08187098 -0.08182593 -0.08178938 -0.08176287 -0.0817483 -0.0817389 -0.08173426 -0.08172706 -0.08171671 -0.08170063
 -0.08167884 -0.08165243 -0.0816216 -0.08158851 -0.08155335 -0.0815181 -0.08148297 -0.08144954 -0.08141784 -0.08138911
 -0.08136196 -0.08133573 -0.08130717 -0.08127292 -0.08123134 -0.08117915 -0.08112048 -0.08105554 -0.08099105 -0.0809294
 -0.08087289 -0.08082288 -0.08077625 -0.08073296 -0.08068847 -0.08064239 -0.0805928 -0.08053993 -0.08049003 -0.08044424
 -0.08041523 -0.08040237 -0.0804119 -0.08043799 -0.08046936 -0.08049739 -0.08049894 -0.08047324 -0.08040623 -0.08031049
 -0.08019157 -0.08006312 -0.07993639 -0.07981534 -0.07970527 -0.07960273 -0.07950777 -0.07941689 -0.0793289 -0.07924522
 -0.07916547 -0.07909565 -0.07903612 -0.07899301 -0.07896638 -0.07895651 -0.07896182 -0.07897108 -0.07898065 -0.07896798
 -0.07893205 -0.07885532 -0.07874607 -0.07861082 -0.07845995 -0.07831134 -0.07816716 -0.07803571 -0.07791614 -0.07780975
 -0.07771678 -0.07763892 -0.07757075 -0.07751311 -0.07745107 -0.0773823 -0.07729363 -0.07718236 -0.07704931 -0.07689396
 -0.0767292 -0.0765558 -0.0763896 -0.07623079 -0.07608874 -0.07596134 -0.07584459 -0.07573579 -0.07562434 -0.07551073
 -0.07539067 -0.07526604 -0.07513878 -0.07500693 -0.0748693 -0.0747244 -0.07456931 -0.07440907 -0.07424516 -0.07408152
 -0.07392102 -0.07375843 -0.07359322 -0.07342069 -0.07323928 -0.07305589 -0.07287083 -0.07269301 -0.0725223 -0.07235164
 -0.07217856 -0.07197867 -0.07175121 -0.07147649 -0.07116242 -0.07082027 -0.07046052 -0.07011182 -0.06977244 -0.06945439
 -0.06914611 -0.06884003 -0.06852999 -0.06820682 -0.0678785 -0.06754541 -0.06721871 -0.06690467 -0.06659681 -0.06629978
 -0.0659753 -0.06562244 -0.06517792 -0.06463621 -0.06397139 -0.06318454 -0.06233172 -0.06141587 -0.06049103 -0.059547
 -0.05856593 -0.05753518 -0.05640391 -0.05517784 -0.05383562 -0.05240982 -0.05093065 -0.04944037 -0.04799112 -0.0466046
 -0.04531726 -0.04411083 -0.04299179 -0.04191655 -0.04086887 -0.03983928 -0.03881498 -0.03785 -0.03694962 -0.03615578
 -0.03547366 -0.03488674 -0.03439411 -0.03397198 -0.03362125 -0.03334214 -0.0331335 -0.03299313 -0.03291227 -0.03286564
 -0.03284211 -0.03280602 -0.03275507 -0.03266869 -0.03255595 -0.0324195 -0.03226376 -0.03209488 -0.03190649 -0.03169677
 -0.03146221 -0.03120073 -0.03091466 -0.03060852 -0.03025774 -0.02986627 -0.02934814 -0.02869689 -0.02784653 -0.02679823
 -0.02565919 -0.02443995 -0.02328972 -0.02219329 -0.02115649 -0.02015799 -0.01913394 -0.01808118 -0.01696233 -0.01578352
 -0.01454461 -0.01323203 -0.01184535 -0.0103326 -0.008660168 -0.00678757 -0.004660985 -0.00237146 8.733847E-05 0.00252213
 0.004889145 0.00708959 0.009097315 0.01093509 0.01260038 0.01416471 0.01563336 0.01712895 0.01866404 0.02041975
 0.02237997 0.02459381 0.02697442 0.02926375 0.03144211 0.03331488 0.03497863 0.03649411 0.03793122 0.03939359
 0.04087928 0.04242003 0.04399258 0.04559039 0.04720853 0.04885107 0.05048152 0.05209706 0.05364319 0.05510736
 0.05650379 0.05783214 0.05912255 0.06037453 0.06152895 0.06258085 0.0634509 0.06415259 0.06470602 0.06513729
 0.06554294 0.06592474 0.06634547 0.06676292 0.06713219 0.06744975 0.06767917 0.06787831 0.06808457 0.06831069
 0.06858812 0.06885119 0.06908591 0.06923851 0.06928668 0.06925215 0.06912907 0.06899545 0.06885661 0.06878363
 0.06877835 0.06881275 0.06887998 0.06889777 0.06886965 0.06876817 0.06860684 0.06841013 0.06819529 0.06800923
 0.06786435 0.06780096 0.06781694 0.06791905 0.06812036 0.06841892 0.06886991 0.06950099 0.07034231 0.07142825
 0.07267898 0.07408771 0.07556064 0.07707587 0.07865035 0.0802815 0.08203524 0.08391416 0.08593941 0.08810893
 0.09040853 0.09283847 0.09539489 0.09807677 0.1008812 0.1038019 0.1068231 0.1099434 0.1131547 0.1164557
 0.1198471 0.1233107 0.1268371 0.1304018 0.1339893 0.1375906 0.1411995 0.1448147 0.1484391 0.1520476
 0.1556424 0.1591568 0.1625858 0.1658713 0.1690121 0.1720521 0.175 0.1779775 0.180965 0.1839419
 0.1868477 0.1894587 0.1917795 0.1936953 0.1952756 0.1965934 0.197652 0.198494 0.199071 0.1993516
 0.1993329 0.1990166 0.1983639 0.1973959 0.1959172 0.1938755 0.1911955 0.1878045 0.1841852 0.180374
 0.1767062 0.1731937 0.1696323 0.1660113 0.1621429 0.1580487 0.1537493 0.1492671 0.1447047 0.1400255
 0.1352245 0.1301995 0.1247465 0.1189349 0.1126382 0.1063285 0.1003449 0.0948871 0.09024359 0.08606368
 0.0822867 0.07863982 0.07502346 0.07144822 0.06789536 0.06446876 0.06118005 0.0580264 0.05500714 0.05203843
 0.04912004 0.04621695 0.04334258 0.04055064 0.03785285 0.03532132 0.03294628 0.0307459 0.0286953 0.02676634
 0.02493504 0.02317025 0.02144323 0.01973314 0.01799018 0.0161822 0.01428546 0.01225104 0.01023355 0.008245019
 0.006498199 0.005049522 0.00382435 0.00282732 0.00187383 0.0009552419 1.52747E-06 -0.0009811905 -0.001944888 -0.002882978
 -0.003730652 -0.004498375 -0.00518959 -0.005811225 -0.006387753 -0.006902358 -0.007340632 -0.00768502 -0.007903706 -0.008010659
 -0.008003082 -0.007905804 -0.00773381 -0.007491211 -0.007186274 -0.006802108 -0.006342829 -0.005758183 -0.005050555 -0.004102997
 -0.002905528 -0.001357357 0.0005452937 0.002645444 0.004920327 0.007042107 0.009016831 0.0107075 0.01214491 0.01336545
 0.01438041 0.01522713 0.01591991 0.01647776 0.01696511 0.01744173 0.01800707 0.01877309 0.01973303 0.02095221
 0.02224657 0.02355578 0.02479271 0.02590395 0.02698436 0.0280386 0.02916667 0.03038174 0.031691 0.03309496
 0.03452235 0.03597116 0.03739001 0.03879169 0.04021577 0.04168725 0.04331763 0.04511001 0.04714539 0.04936692
 0.05172238 0.05415855 0.05657655 0.05901185 0.06145459 0.06396067 0.0665706 0.06926626 0.07205833 0.07488586
 0.07772877 0.08058815 0.08345348 0.08640289 0.0894459 0.09259816 0.09586012 0.09902563 0.102076 0.1047146
 0.1069454 0.1086405 0.1098173 0.110477 0.1106096 0.1101944 0.109213 0.1076136 0.1054229 0.1026309
 0.09932542 0.09555759 0.09143253 0.08701643 0.0823782 0.07755365 0.07258736 0.06747964 0.06234698 0.05719174
 0.05222616 0.04747173 0.04305778 0.03899213 0.03521456 0.03171783 0.0283873 0.02522966 0.02222384 0.01938826
 0.01678417 0.01440639 0.0122834 0.0103774 0.008643226 0.007042102 0.005510933 0.004034953 0.002579679 0.00115322
 -0.0002496243 -0.001616218 -0.002941474 -0.004223776 -0.005460463 -0.006659722 -0.007822313 -0.0089563 -0.01006335 -0.01113767
 -0.01217905 -0.01315589 -0.01406555 -0.01486459 -0.01555338 -0.01611118 -0.01654217 -0.0168515 -0.01703973 -0.01711087
 -0.01706333 -0.0168937 -0.01660772 -0.01620576 -0.01570779 -0.01512107 -0.0144883 -0.01382367 -0.01319548 -0.01262592
 -0.01218459 -0.01189288 -0.01179026 -0.01188849 -0.01218916 -0.01269597 -0.01337339 -0.01421974 -0.01516496 -0.01620415
 -0.01725671 -0.01831855 -0.01932525 -0.02027412 -0.02112103 -0.02186607 -0.02248501 -0.02298586 -0.02336837 -0.0236473
 -0.02383871 -0.02395527 -0.02401194 -0.02401616 -0.0239745 -0.0238949 -0.02377962 -0.02364213 -0.02348422 -0.02332558
 -0.0231685 -0.02303489 -0.02292725 -0.02285892 -0.02283087 -0.0228358 -0.0228721 -0.0229149 -0.02296281 -0.02299319
 -0.02300932 -0.02300899 -0.02300102 -0.02300471 -0.02302879 -0.0230983 -0.02321246 -0.02338304 -0.02359753 -0.02385112
 -0.02412924 -0.02442249 -0.02472252 -0.02502495 -0.02532252 -0.02561392 -0.02588777 -0.02614225 -0.02636818 -0.02656403
 -0.02672997 -0.02686587 -0.02697851 -0.02706834 -0.02714365 -0.02720441 -0.02725554 -0.02729491 -0.02731846 -0.02732157
 -0.02729093 -0.02722342 -0.02710631 -0.02694269 -0.02672934 -0.02647557 -0.02618636 -0.02587349 -0.02554379 -0.02520826
 -0.02487157 -0.02454419 -0.02422866 -0.02393636 -0.02366942 -0.02343615 -0.02323814 -0.0230737 -0.02294292 -0.02283479
 -0.02274864 -0.02267301 -0.02260757 -0.02254497 -0.02248486 -0.02242184 -0.02235619 -0.02228456 -0.02221076 -0.02213832
 -0.02207461 -0.02202941 -0.02200874 -0.02202188 -0.02206781 -0.0221498 -0.02226069 -0.02239907 -0.02255694 -0.02273216
 -0.02291866 -0.02311526 -0.02331717 -0.02352362 -0.0237331 -0.02394542 -0.02416559 -0.02439399 -0.02463753 -0.02489529
 -0.0251653 -0.02544478 -0.02572189 -0.02599512 -0.02625387 -0.02650013 -0.02673228 -0.0269532 -0.02716635 -0.02737181
 -0.0275718 -0.0277624 -0.02794246 -0.0281071 -0.02825344 -0.02838171 -0.02849038 -0.02858624 -0.02867039 -0.02874691
 -0.02881715 -0.02887324 -0.02891486 -0.02892825 -0.0289132 -0.0288649 -0.02878491 -0.02868136 -0.02855581 -0.02841928
 -0.02827068 -0.02811351 -0.02794433 -0.02775864 -0.02755409 -0.02732567 -0.02707354 -0.02679666 -0.02649409 -0.02616609
 -0.02580791 -0.02541739 -0.02499278 -0.02453192 -0.0240413 -0.02352146 -0.02297954 -0.02241668 -0.02183304 -0.02122867
 -0.02060382 -0.01995903 -0.01930372 -0.01863908 -0.01797827 -0.01732108 -0.01667381 -0.01603517 -0.01540429 -0.01478195
 -0.0141678 -0.01356647 -0.01298323 -0.01242232 -0.01189068 -0.01138525 -0.01090746 -0.01044932 -0.01000691 -0.009579334
 -0.009164334 -0.008769496 -0.008396501 -0.008046253 -0.007719964 -0.007405991 -0.007103731 -0.006801126 -0.006497737 -0.006186454
 -0.005866646 -0.005530152 -0.005176825 -0.004800452 -0.004403943 -0.003991596 -0.003566315 -0.003136767 -0.002700275 -0.002258174
 -0.001803913 -0.001332259 -0.0008387835 -0.0003187437 0.0002274342 0.0008016229 0.001398524 0.002017994 0.002651058 0.00329657
 0.003945297 0.00459641 0.005240558 0.005877218 0.006493725 0.007089449 0.007652593 0.008183614 0.008679561 0.009142349
 0.009577432 0.009987707 0.01038283 0.01076627 0.01114945 0.01153231 0.01192083 0.01230938 0.01269394 0.01307381
 0.01344395 0.01381783 0.01419859 0.0146015 0.01503316 0.01549328 0.01598463 0.01649228 0.01701564 0.01753464
 0.01804796 0.01853952 0.01900919 0.01945564 0.01988082 0.02029869 0.02071006 0.02112702 0.02154596 0.02196489
 0.02237669 0.02276933 0.02313282 0.02345104 0.02371355 0.0239043 0.02402256 0.02405984 0.02403121 0.02393857
 0.02380344 0.02363118 0.02344055 0.02323494 0.02303142 0.02283188 0.02265175 0.0224921 0.02236565 0.02227314
 0.02222834 0.02223159 0.02229364 0.02241132 0.02257874 0.02278926 0.02302231 0.02327272 0.02352284 0.02376676
 0.02399353 0.0241889 0.02433928 0.0244264 0.02443428 0.02435628 0.02418201 0.02392657 0.02358761 0.02320148
 0.02277192 0.02234264 0.02191938 0.02152844 0.02117245 0.02084963 0.02055954 0.02029077 0.0200434 0.01981354
 0.01960124 0.01940468 0.0192237 0.0190554 0.01890345 0.01877295 0.01866807 0.01860021 0.01855972 0.01854922
 0.01853608 0.01850836 0.01841639 0.01824036 0.01793243 0.01747398 0.01684277 0.01602786 0.01504535 0.01389304
 0.01261548 0.01121486 0.009747324 0.008216022 0.006677801 0.00513505 0.003633013 0.002171111 0.0007713818 -0.0005686062
 -0.001844488 -0.003057662 -0.004208401 -0.005298344 -0.006329262 -0.007303743 -0.008225097 -0.009093766 -0.009910418 -0.01067683
 -0.01139176 -0.01206554 -0.01270002 -0.01330718 -0.01389037 -0.01445179 -0.01499223 -0.01551013 -0.01600522 -0.01648291
 -0.01694338 -0.01739051 -0.01782305 -0.01823288 -0.01861792 -0.01896442 -0.01927193 -0.01953124 -0.01974512 -0.01991294
 -0.02004162 -0.02013901 -0.02021342 -0.02027592 -0.02032909 -0.02037854 -0.02042146 -0.02045733 -0.0204859 -0.0205065
 -0.02052174 -0.02053211 -0.02053878 -0.02054175 -0.02054393 -0.0205455 -0.02055027 -0.02055799 -0.02056167 -0.02055941
 -0.02053212 -0.02047933 -0.02038754 -0.02026034 -0.02010037 -0.01991247 -0.01970768 -0.0194879 -0.01926134 -0.01902496
 -0.01877974 -0.01851949 -0.01824022 -0.01793874 -0.01761187 -0.01726194 -0.01688971 -0.01649381 -0.01607508 -0.01562508
 -0.01514227 -0.01462597 -0.01407525 -0.01351109 -0.01293529 -0.01238679 -0.01186915 -0.01142808 -0.01106686 -0.01082609
 -0.01070375 -0.01071884 -0.01085883 -0.01111275 -0.01145793 -0.01186368 -0.01230068 -0.01273427 -0.01313484 -0.01347313
 -0.01373418 -0.01390081 -0.01398312 -0.01397803 -0.01390983 -0.01378265 -0.0136147 -0.01340932 -0.01317146 -0.01290198
 -0.01259621 -0.01225393 -0.01186885 -0.01144242 -0.01098208 -0.01049346 -0.01000609 -0.009524961 -0.009082642 -0.008674411
 -0.00830914 -0.007973275 -0.007651952 -0.007334614 -0.00700427 -0.006660797 -0.006298281 -0.005922136 -0.005533832 -0.005135924
 -0.004729528 -0.004315455 -0.003892521 -0.003470757 -0.003049893 -0.002651509 -0.00227715 -0.001944276 -0.001653274 -0.001402572
 -0.00119058 -0.001002888 -0.0008380595 -0.0006827857 -0.0005349947 -0.0003831067 -0.0002225918 -3.909432E-05 0.0001707841 0.0004197368
 0.0007031189 0.00102318 0.001368051 0.001730765 0.00210221 0.002475204 0.002850663 0.003227 0.003608665 0.003997369
 0.004389461 0.004785203 0.005175932 0.005560768 0.005939065 0.006311038 0.006686344 0.007065135 0.007453755 0.007849906
 0.00824644 0.008640201 0.009016827 0.009377569 0.009715965 0.01004001 0.01035765 0.01067691 0.0110108 0.01135643
 0.01171808 0.01208347 0.01244709 0.01280391 0.01314892 0.01349169 0.01383325 0.01418268 0.01454264 0.01490596
 0.0152727 0.01562641 0.01596653 0.01628777 0.01659178 0.01689191 0.01718984 0.0175024 0.01782632 0.01816168
 0.01850184 0.01883168 0.01915064 0.0194488 0.01973564 0.02001617 0.0203006 0.02059928 0.02091149 0.02124199
 0.02157805 0.02191761 0.02224616 0.02255893 0.02285513 0.02313217 0.02340909 0.02368682 0.02398895 0.02431634
 0.02467484 0.02506251 0.02546404 0.02587598 0.02627376 0.0266552 0.0269988 0.02730901 0.02758133 0.02782954
 0.02807096 0.02831761 0.02859079 0.0288872 0.02921326 0.02955571 0.02991009 0.03026595 0.0306199 0.03096185
 0.03128956 0.0315937 0.03187178 0.03212678 0.03235826 0.03257918 0.03279017 0.03300098 0.03321262 0.03343757
 0.03367849 0.0339575 0.03427231 0.03463158 0.03502188 0.03542059 0.03581343 0.03616669 0.03648192 0.03674329
 0.03697227 0.03717553 0.03738222 0.03760999 0.03786862 0.03817093 0.03849012 0.03882502 0.03913807 0.03942186
 0.03967058 0.03988186 0.04007997 0.04026608 0.04046283 0.04067076 0.04090345 0.04116092 0.04145228 0.04177429
 0.04212235 0.04249155 0.04286801 0.04325188 0.04363827 0.04402602 0.04441518 0.04479543 0.04515865 0.04550089
 0.04581415 0.04611383 0.04640224 0.04669668 0.04700271 0.04732252 0.04765841 0.04799897 0.04834419 0.04867057
 0.04897693 0.04924332 0.04947198 0.04967763 0.04986654 0.05008167 0.05032121 0.05060569 0.05092119 0.05124793
 0.05157405 0.0518725 0.05213974 0.05236189 0.05254013 0.05266775 0.05275901 0.05281448 0.05286386 0.05291707
 0.05299416 0.05310371 0.05324132 0.05340855 0.05359055 0.05378644 0.05398064 0.0541724 0.05435169 0.05451994
 0.05468873 0.05486068 0.05505744 0.05527663 0.05552078 0.05578867 0.05607601 0.05638983 0.05674136 0.05712909
 0.05755676 0.0580182 0.05849996 0.05903338 0.05962508 0.06032184 0.06116396 0.06206952 0.06304166 0.06391955
 0.0646662 0.06530232 0.06582229 0.06633319 0.06683964 0.06737061 0.06792138 0.06844845 0.0689479 0.06937672
 0.06973606 0.0700103 0.07019503 0.07027552 0.07024136 0.07006885 0.06975565 0.06928153 0.06867591 0.06793986
 0.06714567 0.06632386 0.06554587 0.06484769 0.06424529 0.06375264 0.06334618 0.06302409 0.06277008 0.06258292
 0.06244752 0.06236281 0.06229356 0.06223796 0.06216335 0.06207104 0.06195154 0.06180684 0.06163777 0.06144697
 0.06124028 0.06102032 0.06079967 0.06056204 0.06029969 0.05998339 0.05957931 0.05910332 0.05854294 0.05796199
 0.05738053 0.05683968 0.05635493 0.05593256 0.0555742 0.05529179 0.05508579 0.05497649 0.054965 0.05507468
 0.05530597 0.05567876 0.05618205 0.05677342 0.05742542 0.05801814 0.05854407 0.05891505 0.05916799 0.05931907
 0.05941048 0.05949952 0.05959598 0.05972871 0.05988448 0.06006653 0.0602513 0.06043266 0.06058704 0.06070293
 0.06079498 0.06085902 0.06095127 0.0610777 0.0612605 0.06150072 0.06174567 0.06199121 0.06217015 0.06228463
 0.06231062 0.06225688 0.06213742 0.06196574 0.06177824 0.06158635 0.06142772 0.06129678 0.06120124 0.06113461
 0.06108695 0.06107932 0.06112225 0.0612233 0.06140128 0.06159374 0.06179469 0.06192377 0.06196223 0.06190453
 0.06174456 0.06154638 0.06131323 0.06111323 0.06094696 0.06084368 0.06079467 0.06076789 0.06074976 0.06067055
 0.06053594 0.06031599 0.06004326 0.05975667 0.05948151 0.0592675 0.05910637 0.05901605 0.05895535 0.05891655
 0.05883323 0.05867998 0.05841267 0.05800306 0.05750404 0.05691031 0.05634724 0.05582742 0.05542071 0.05513141
 0.05492136 0.05478641 0.05466298 0.05455115 0.05442112 0.05427374 0.05409398 0.05388715 0.05365328 0.05340951
 0.05318496 0.05298793 0.05284455 0.05273948 0.05267077 0.0526194 0.05257378 0.05252565 0.05246834 0.05240368
 0.0523281 0.05226077 0.05220312 0.05217918 0.05219292 0.05223515 0.05230551</values></Ydata></AB><ScSm><Ydata ylabel="Single channel"><values byteorder="INTEL" format="FLOAT32" numvalues="1814"> 0.06974377 0.06974229 0.06980342 0.06995264 0.07016033 0.07036106 0.07050209 0.07057714 0.07060605 0.07059285
 0.07053778 0.07048853 0.07053037 0.07070161 0.07094018 0.0711256 0.07117398 0.07111281 0.0710696 0.07114735
 0.07128448 0.07127021 0.07094388 0.07037883 0.0698341 0.06951462 0.06944382 0.06961577 0.07012156 0.07090375
 0.07148209 0.07129822 0.07041794 0.06956188 0.06930332 0.06951699 0.06972139 0.06963751 0.06927072 0.06879386
 0.06859766 0.06919184 0.07070299 0.07245392 0.07320493 0.07193796 0.06858584 0.06426365 0.06085554 0.0600015
 0.06194036 0.06518478 0.06763799 0.06826369 0.06757958 0.06659912 0.0657454 0.06497771 0.06449001 0.06475197
 0.0658621 0.06710644 0.06732145 0.06588571 0.06345788 0.06151226 0.06099146 0.06170971 0.06314045 0.06499586
 0.06643073 0.06557788 0.0613799 0.05592236 0.05351064 0.05657832 0.06309387 0.06855136 0.06998117 0.06761643
 0.06359152 0.06016989 0.05889089 0.0601517 0.06312859 0.06646177 0.06908561 0.07028429 0.06950454 0.06683166
 0.06346789 0.06115482 0.06110203 0.06350884 0.06752251 0.07131764 0.0729267 0.07169384 0.06871 0.06565716
 0.06369957 0.06349441 0.06536092 0.06894663 0.07320124 0.07698749 0.07954758 0.08057909 0.08029641 0.07929319
 0.07808947 0.07704885 0.07669785 0.07740268 0.07852088 0.07864226 0.07712124 0.07493121 0.0736583 0.07385841
 0.07461309 0.07465345 0.07364972 0.07200665 0.06960504 0.06577343 0.0608181 0.05643968 0.05403356 0.05362349
 0.05486788 0.05760639 0.06067273 0.06181959 0.06017672 0.05782807 0.05774524 0.06061386 0.06447791 0.06712942
 0.06815189 0.06876236 0.07024155 0.07262591 0.07454421 0.07424985 0.07134986 0.06778276 0.06645368 0.06838766
 0.07174278 0.07407368 0.07490945 0.07550675 0.07664504 0.07742482 0.07621302 0.07258878 0.06839129 0.06658687
 0.06868729 0.07323553 0.07686332 0.07678959 0.07269049 0.0667651 0.06201964 0.06018926 0.06126076 0.06460991
 0.06969129 0.07545969 0.08008592 0.08197679 0.08094275 0.07810412 0.07461907 0.07062449 0.06582643 0.06124084
 0.05942465 0.06206244 0.06781127 0.07341423 0.07661234 0.07728176 0.07617351 0.07352345 0.06924322 0.06422673
 0.06079239 0.06089871 0.06379515 0.06642909 0.06663856 0.06513021 0.06393141 0.0638539 0.06417502 0.06417894
 0.06416934 0.0649308 0.06660229 0.06836469 0.06923902 0.06898418 0.06813869 0.06738555 0.06693748 0.0663903
 0.06529021 0.06402787 0.06381579 0.0653668 0.06791873 0.07001819 0.07098372 0.07116329 0.070977 0.07017879
 0.06822003 0.06528842 0.0627442 0.06211996 0.06363744 0.06606199 0.06799221 0.06887491 0.06887312 0.06835558
 0.06764665 0.06691882 0.06624444 0.06583013 0.06597483 0.06664687 0.06737319 0.06771629 0.06763777 0.06729499
 0.06673329 0.06593373 0.06502515 0.06430131 0.06401569 0.0641885 0.06462833 0.0651053 0.0654404 0.06548242
 0.06516139 0.0645939 0.06400882 0.06353915 0.06318347 0.06295435 0.06292418 0.0630935 0.06332354 0.06345281
 0.06342642 0.06328267 0.06306534 0.06279057 0.06247578 0.06216898 0.06194617 0.06186532 0.06190076 0.06195151
 0.06195489 0.06195261 0.06198922 0.06199576 0.06185944 0.06158078 0.0612836 0.06108148 0.06099002 0.06095596
 0.06091441 0.0608024 0.06055902 0.06017391 0.05975489 0.0594932 0.05951041 0.05976299 0.06011491 0.06044687
 0.06067634 0.06075794 0.06071812 0.06063393 0.06054202 0.06040855 0.06020503 0.05998039 0.05984598 0.05989224
 0.06010766 0.06038141 0.06059752 0.06071114 0.060737 0.06071793 0.06071716 0.060776 0.06085474 0.06086931
 0.06080372 0.06073838 0.06075411 0.06084239 0.06092208 0.06093011 0.06089025 0.06088834 0.06097884 0.06113221
 0.06128138 0.06139607 0.061496 0.0616051 0.06170505 0.06174081 0.0616858 0.06159239 0.06154718 0.06157987
 0.06165371 0.06174076 0.06185717 0.0620135 0.06217211 0.06227908 0.06232428 0.06234985 0.06239701 0.06245663
 0.06248479 0.06246022 0.06240859 0.0623722 0.06237456 0.0624145 0.06247557 0.06253481 0.06257237 0.06257989
 0.06256165 0.06252783 0.06248593 0.06244152 0.06241265 0.06243312 0.06251974 0.06263372 0.06269734 0.06266406
 0.06256448 0.06247335 0.06243507 0.0624296 0.06240892 0.06235355 0.06228517 0.06223403 0.06221057 0.062206
 0.06220452 0.06219422 0.062183 0.06220722 0.06230482 0.06246584 0.06262346 0.06271143 0.06272548 0.06271619
 0.06273104 0.06278013 0.06285036 0.06293208 0.06303115 0.06316192 0.06332193 0.06347408 0.06357528 0.06362888
 0.0636878 0.06380028 0.0639738 0.06418869 0.06441513 0.06461382 0.06475562 0.06485495 0.06496094 0.06510529
 0.06527594 0.06544736 0.06561622 0.06579597 0.06599246 0.06620152 0.06642595 0.06667972 0.06697242 0.06729349
 0.06761246 0.0678969 0.06814006 0.06837454 0.06865071 0.06899319 0.06937991 0.06976324 0.07010905 0.07041813
 0.07071501 0.0710176 0.07132436 0.07163651 0.0719779 0.07237041 0.07279701 0.07321383 0.0735983 0.07396513
 0.07433797 0.07472514 0.07512346 0.07552993 0.07594514 0.07637035 0.0767992 0.07721397 0.07759899 0.07795791
 0.07831271 0.07868758 0.07909466 0.0795217 0.07992671 0.08026581 0.08054426 0.08082338 0.08115496 0.08152186
 0.0818681 0.0821784 0.08249731 0.08286686 0.08327454 0.08367553 0.0840479 0.08440802 0.08478099 0.08516793
 0.08553863 0.08585241 0.08609525 0.08630016 0.08652282 0.08679855 0.08713357 0.08752534 0.08796254 0.08840667
 0.08880436 0.08912663 0.08938258 0.08960034 0.08981296 0.09005027 0.0903201 0.09060184 0.09087129 0.09111857
 0.09133711 0.09152465 0.09170893 0.09194013 0.09223792 0.09257257 0.09291584 0.09327963 0.09368056 0.09409504
 0.09448621 0.09486201 0.09526569 0.09570336 0.09611743 0.09644802 0.0966924 0.09688446 0.09704892 0.09720965
 0.09741686 0.09771925 0.09811071 0.09853351 0.09893209 0.09928369 0.09958573 0.09983903 0.1000472 0.1002185
 0.1003648 0.1005003 0.1006449 0.100825 0.1010684 0.1013827 0.1017371 0.1020759 0.102355 0.1025566
 0.1026708 0.1026874 0.1026214 0.1025251 0.1024453 0.1023669 0.1022185 0.1019375 0.1015159 0.1009793
 0.1003445 0.09961602 0.09882095 0.09803104 0.09734179 0.09683275 0.09654994 0.09651902 0.09675738 0.09725507
 0.0979441 0.09870274 0.09939934 0.09992516 0.1001926 0.1001375 0.09975146 0.0991014 0.09829751 0.09744278
 0.09661298 0.09585635 0.09519187 0.09462851 0.09421584 0.09407082 0.09433445 0.09509575 0.09635065 0.0980048
 0.09989455 0.1018233 0.1036223 0.1052057 0.1065774 0.1077866 0.1088832 0.1099065 0.1108902 0.1118523
 0.1127805 0.1136474 0.1144412 0.1151694 0.1158365 0.1164281 0.1169203 0.1172952 0.1175516 0.1177091
 0.117802 0.1178663 0.1179335 0.1180274 0.1181479 0.1182509 0.1182585 0.1181025 0.1177626 0.117278
 0.1167462 0.1163243 0.116217 0.1166232 0.1176509 0.1192522 0.1212373 0.1233594 0.1254063 0.1272388
 0.1287877 0.1300451 0.1310576 0.1319026 0.1326525 0.1333547 0.1340318 0.1346874 0.135314 0.1359053
 0.1364664 0.1370104 0.1375493 0.1380878 0.1386207 0.1391353 0.1396224 0.1400893 0.1405578 0.1410457
 0.1415498 0.1420494 0.1425307 0.1430033 0.1434828 0.1439628 0.1444178 0.1448362 0.1452361 0.1456478
 0.1460907 0.1465639 0.1470441 0.1474959 0.1478986 0.1482636 0.1486194 0.1489827 0.1493534 0.1497277
 0.1501046 0.1504794 0.1508454 0.1512058 0.1515765 0.1519663 0.1523578 0.1527172 0.1530281 0.1533095
 0.1535959 0.1539057 0.1542309 0.154555 0.1548747 0.1552056 0.1555664 0.1559572 0.1563548 0.1567308
 0.1570728 0.1573898 0.1577013 0.158024 0.1583643 0.1587184 0.1590761 0.1594266 0.1597664 0.1601015
 0.1604405 0.1607835 0.1611209 0.1614439 0.1617551 0.1620678 0.1623939 0.1627319 0.1630721 0.1634122
 0.1637618 0.1641264 0.1644925 0.1648382 0.1651528 0.1654437 0.165726 0.1660134 0.1663129 0.1666238
 0.1669421 0.1672672 0.1676018 0.1679449 0.1682909 0.1686359 0.168981 0.169327 0.16967 0.1700055
 0.1703345 0.1706638 0.1709989 0.1713382 0.1716746 0.1720022 0.1723199 0.1726329 0.1729495 0.1732736
 0.1735978 0.1739104 0.1742102 0.1745096 0.17482 0.175139 0.1754558 0.1757639 0.1760647 0.1763638
 0.1766667 0.1769771 0.1772961 0.1776193 0.1779373 0.1782423 0.1785359 0.1788259 0.179119 0.1794168
 0.1797185 0.180022 0.1803266 0.1806339 0.1809459 0.18126 0.1815709 0.1818755 0.1821723 0.1824609
 0.1827433 0.1830243 0.1833084 0.1835983 0.1838929 0.1841879 0.18448 0.1847716 0.1850668 0.1853641
 0.1856617 0.1859621 0.1862675 0.1865748 0.1868798 0.1871801 0.1874743 0.1877638 0.1880541 0.1883516
 0.1886564 0.1889628 0.1892613 0.1895452 0.1898184 0.1900926 0.190374 0.1906576 0.1909355 0.1912044
 0.1914674 0.1917332 0.1920085 0.1922888 0.1925646 0.1928331 0.1930989 0.1933669 0.1936415 0.1939257
 0.1942157 0.1945058 0.1947977 0.1950954 0.1953989 0.1957076 0.196021 0.1963312 0.1966288 0.1969169
 0.1972078 0.1975081 0.1978153 0.1981235 0.198426 0.1987219 0.1990182 0.1993171 0.199612 0.1999008
 0.2001892 0.200478 0.2007626 0.2010442 0.2013263 0.2016092 0.2018945 0.2021833 0.2024682 0.2027431
 0.2030159 0.2032949 0.2035771 0.2038594 0.2041458 0.2044359 0.2047261 0.2050176 0.2053102 0.2055999
 0.2058927 0.2061975 0.2065074 0.2068096 0.2071047 0.2073972 0.2076834 0.2079621 0.208232 0.2084731
 0.2086342 0.2085874 0.2080069 0.2062457 0.2023246 0.1951272 0.1838435 0.1684824 0.1500529 0.1302048
 0.1106156 0.09255359 0.07676262 0.06357159 0.05305754 0.04514144 0.0396479 0.03642004 0.03544413 0.03697167
 0.04164743 0.05013123 0.06166656 0.07280111 0.07871813 0.07703302 0.07007156 0.06274995 0.05848427 0.05752654
 0.05842035 0.05991505 0.06161379 0.06374714 0.0667095 0.07061121 0.07526109 0.08065178 0.08719556 0.09520163
 0.1042495 0.1133665 0.1218672 0.1298881 0.1380602 0.1467498 0.1556751 0.1641797 0.1717531 0.1782972
 0.1840318 0.1892479 0.1941318 0.1987543 0.2031503 0.2073241 0.2111407 0.2142749 0.2163706 0.2173147
 0.2173666 0.2170108 0.2166725 0.216552 0.2166708 0.2169937 0.2174906 0.2181389 0.2189191 0.2198041
 0.2207503 0.2217137 0.2226742 0.2236255 0.2245495 0.2254165 0.2262055 0.2269149 0.2275587 0.2281558
 0.2287172 0.2292434 0.2297342 0.2301949 0.2306313 0.2310489 0.2314528 0.2318408 0.2322023 0.2325297
 0.232827 0.2331034 0.2333666 0.2336244 0.233885 0.2341527 0.2344256 0.2346993 0.2349705 0.2352403
 0.2355111 0.2357807 0.2360439 0.2363033 0.2365675 0.2368369 0.2371012 0.2373567 0.2376132 0.2378812
 0.238161 0.238445 0.2387232 0.2389871 0.2392351 0.2394745 0.2397172 0.2399755 0.2402561 0.2405512
 0.2408444 0.2411295 0.2414165 0.2417147 0.2420231 0.2423373 0.2426533 0.2429628 0.2432609 0.2435531
 0.2438425 0.2441183 0.2443681 0.2446006 0.2448464 0.2451341 0.2454636 0.2458056 0.2461304 0.2464315
 0.2467178 0.2469968 0.2472698 0.2475354 0.2477964 0.2480731 0.2483931 0.2487542 0.2491212 0.2494699
 0.2498089 0.2501478 0.2504836 0.2508194 0.2511557 0.2514603 0.2516935 0.2518739 0.2520896 0.2524287
 0.2528957 0.2534012 0.2538444 0.2542028 0.2545261 0.2548667 0.2552443 0.2556317 0.255931 0.2560384
 0.2560057 0.2560706 0.2564417 0.2570931 0.257823 0.2584601 0.2589648 0.2593826 0.2597586 0.2600857
 0.2603096 0.2603942 0.2604057 0.2605245 0.2609178 0.2615668 0.2622682 0.2628373 0.2632496 0.263567
 0.2638343 0.2640769 0.2642575 0.2642089 0.2638091 0.2633019 0.2632401 0.26395 0.265159 0.2662813
 0.2669989 0.2674292 0.2677948 0.2681477 0.2684341 0.2685535 0.2682286 0.2671566 0.2655981 0.2645519
 0.2649302 0.2666375 0.2687329 0.2703741 0.2713487 0.2718642 0.2721852 0.27246 0.2726078 0.2723159
 0.2713859 0.270209 0.2696766 0.2703578 0.2718595 0.2732498 0.2740126 0.2743275 0.2745712 0.2748904
 0.2751037 0.2746641 0.2729704 0.2702511 0.2680132 0.2679921 0.2704608 0.2739038 0.2765194 0.2777737
 0.2782683 0.2784121 0.2778068 0.275957 0.2730153 0.2697079 0.2671023 0.2664666 0.268436 0.271957
 0.2748817 0.2760883 0.2764304 0.2773218 0.2790438 0.2807557 0.2815862 0.281307 0.2801855 0.2785071
 0.2764362 0.274458 0.2736538 0.2749423 0.2779669 0.2812102 0.2833921 0.2844432 0.2848661 0.2842636
 0.2810171 0.2742357 0.2662331 0.2619133 0.2644406 0.2719216 0.2794365 0.2838839 0.2856904 0.2864999
 0.2869663 0.2865719 0.2839357 0.2775663 0.2682064 0.2603145 0.2590565 0.2651971 0.2742352 0.2806098
 0.2814963 0.2771034 0.2696669 0.2627877 0.2599704 0.2624977 0.268864 0.2762721 0.2823161 0.2856364
 0.2859095 0.2837313 0.2805699 0.2783981 0.2782685 0.2787602 0.2770529 0.2724857 0.2676607 0.2646318
 0.2617348 0.2566668 0.2515107 0.2513663 0.2577183 0.265969 0.2706062 0.2707905 0.2693922 0.2677594
 0.2634254 0.2536653 0.2406267 0.2314381 0.2319586 0.2406913 0.2501072 0.2539902 0.2523664 0.2493518
 0.2477045 0.2461191 0.2412675 0.2322484 0.2228442 0.2183711 0.2200456 0.2238859 0.2254228 0.2232843
 0.2176659 0.2088608 0.1997714 0.1968678 0.2047223 0.2203753 0.2356186 0.243738 0.241995 0.2301814
 0.2115101 0.1945142 0.1889176 0.196968 0.2107364 0.2194227 0.2179602 0.2079567 0.1930493 0.1763715
 0.1619438 0.1551579 0.1595575 0.1732359 0.1889472 0.1977628 0.193999 0.1795618 0.1642424 0.1586907
 0.1648048 0.1744581 0.17863 0.1756025 0.1697189 0.165702 0.165884 0.1698974 0.175106 0.179039
 0.181374 0.1812609 0.1746379 0.1591138 0.1406393 0.1296538 0.1302187 0.137855 0.1478876 0.1596701
 0.1712112 0.1762715 0.1713743 0.162386 0.159566 0.1666767 0.177732 0.1843229 0.1839465 0.1805013
 0.1782073 0.1770667 0.1749285 0.1723737 0.1729708 0.1783324 0.1853179 0.1895451 0.1899803 0.1885892
 0.1869849 0.1852041 0.1828531 0.1798315 0.1762296 0.1724202 0.16897 0.1660317 0.1632293 0.1602727
 0.1569791 0.1524518 0.1452771 0.135575 0.126293 0.1209315 0.1198871 0.120604 0.1213647 0.1223807
 0.1222998 0.1170855 0.1053544 0.09288944 0.0884718 0.09540342 0.1090305 0.1220199 0.1298805 0.1313342
 0.126247 0.1161451 0.1064412 0.1047405 0.1145557 0.1318857 0.1495499 0.1634253 0.1728651 0.1772241
 0.1753094 0.1681729 0.160197 0.1566208 0.1603855 0.1707775 0.1835437 0.1918838 0.1897828 0.1780593
 0.1671903 0.1696018 0.1865417 0.2059244 0.2159047 0.2169333 0.2169557 0.2190364 0.2198239 0.2183414
 0.2195094 0.2274033 0.2392365 0.2480864 0.2489651 0.2407868 0.2256885 0.2094712 0.2001195 0.2014837
 0.2090194 0.2148208 0.215346 0.2110023 0.2014149 0.1873035 0.1754919 0.1748475 0.1859657 0.1998685
 0.208213 0.2109017 0.2124149 0.2141052 0.2126421 0.2051609 0.1940372 0.1854243 0.1831575 0.1853917
 0.1877479 0.1879631 0.1859971 0.1814407 0.1737311 0.1648529 0.1593937 0.1606331 0.167274 0.1747788
 0.1795403 0.181216 0.1815836 0.1822591 0.1835616 0.1847111 0.1850604 0.1856927 0.189207 0.1967947
 0.2061307 0.2136668 0.2186925 0.2235697 0.230033 0.2367486 0.2408932 0.2412374 0.2393618 0.2383556
 0.2403959 0.2450248 0.249461 0.2509553 0.2494011 0.2476717 0.2489575 0.2536841 0.2594083 0.2635611
 0.2655499 0.2662706 0.2666239 0.2667991 0.2662306 0.2641113 0.2607198 0.2582161 0.2591403 0.263847
 0.2700676 0.2751246 0.2780032 0.2792379 0.2795351 0.2790119 0.2775711 0.2755559 0.2737717 0.2728866
 0.2729825 0.2737107 0.2746834 0.2756314 0.276386 0.2768987 0.2772378 0.2774986 0.2777494 0.2780526
 0.2784387 0.2788393 0.2791439 0.2793629 0.2796536 0.2801234 0.2806661 0.2810621 0.2811796 0.2809823
 0.2803947 0.279313 0.2777668 0.2759348 0.2739486 0.2718035 0.2695843 0.2677348 0.2669418 0.2676317
 0.2695752 0.2720258 0.2742333 0.2758186 0.2767633 0.2772169 0.2773702 0.2774044 0.2774384 0.2774954
 0.2775382 0.2775359 0.2774897 0.2774097 0.2773016 0.2771847 0.2771016 0.2770818 0.2771023 0.2770984
 0.2770117 0.2768204 0.2765387 0.2761952 0.2758053 0.2753503 0.2747853 0.274067 0.2731826 0.2721661
 0.2710932 0.2700434 0.269045 0.2680548 0.2669993 0.2658314 0.2645286 0.2630559 0.261388 0.259593
 0.2578391 0.2562661 0.254869 0.2535305 0.2521343 0.2506224 0.2489901 0.2472764 0.2455455 0.2438456
 0.2421811 0.2405243 0.2388448 0.2371233 0.2353522 0.2335296 0.2316525 0.2297202 0.2277417 0.2257316
 0.2236835 0.2215365 0.2191673 0.2164223 0.2131653 0.2093105 0.2048452 0.1998509 0.194506 0.1890439
 0.1836914 0.1786277 0.1739789 0.169832 0.1662514 0.1632822 0.1609516 0.1592807 0.1582911 0.1579885
 0.1583465 0.1593167 0.1608407 0.162837 0.1651818 0.1677103 0.1702389 0.1726055 0.1747254 0.1766254
 0.178412 0.1801842 0.1819631 0.1836978 0.1853265 0.1868151 0.1881424 0.1892807 0.1902132 0.1909494
 0.1915076 0.1919004 0.1921487 0.1922925 0.1923767 0.1924427 0.1925384 0.1927199 0.1930316 0.1934827
 0.1940373 0.1946328 0.1952225 0.1958039 0.1964038 0.1970402 0.1977007 0.1983507 0.1989612 0.199537
 0.200125 0.200807 0.2016969 0.2029254 0.2045912 0.2067111 0.2092133 0.2119659 0.2148069 0.2175707
 0.2201179 0.2223521 0.224227 0.2257449 0.2269366 0.2278375 0.2284837 0.2289214 0.2291977 0.2293453
 0.2293842 0.2293256 0.2291656 0.228892 0.2285015 0.228002 0.2274085 0.2267499 0.2260664 0.2253877
 0.224722 0.2240693 0.2234283 0.2227943 0.2221658 0.2215451 0.2209212 0.2202649 0.219552 0.2187826
 0.2179721 0.2171257 0.2162197 0.2152092 0.2140584 0.2127583 0.2113076 0.209697 0.2079352 0.2060775
 0.2042111 0.2024175 0.2007498 0.1992218 0.1978005 0.1964046 0.1949157 0.1932195 0.1912776 0.1891646
 0.187014 0.1849266 0.1829319 0.1810128 0.1791423 0.1773148 0.1755612 0.1739199 0.1723907 0.1709343
 0.1695189 0.1681464 0.1668344 0.1655902 0.1644141 0.1633239 0.1623575 0.1615394 0.1608493 0.1602437
 0.1596987 0.1592141 0.1587913 0.1584319 0.1581429 0.1579148 0.1577035 0.1574537 0.1571361 0.1567593
 0.1563558 0.155962 0.1556022 0.1552849 0.1550026 0.1547185 0.1543587 0.1538299 0.1530473 0.151952
 0.1505291 0.1488184 0.1468988 0.14487 0.1428574 0.1410013 0.1394069 0.1381091 0.137087 0.1362859
 0.1356265 0.1350376 0.1345075 0.1340973 0.1338906 0.1339011 0.1340124 0.1340425 0.1339081 0.1337063
 0.1336171 0.1337571 0.1341277 0.1346432 0.13518 0.1356376 0.1359721 0.1361721 0.1362324 0.1361674
 0.1360129 0.1357941 0.1355158 0.1351803 0.1347937 0.1343591 0.1338748 0.1333288 0.1327055 0.1320124
 0.1312698 0.1304674 0.1295732 0.1285803 0.127492 0.1262939 0.1250268 0.1238669 0.1230581 0.1227627
 0.1229777 0.1235479 0.1242653 0.1249997 0.1256924 0.1262026 0.1263267 0.1261239 0.1261021 0.126858
 0.128502 0.1305397 0.1323158 0.1334707 0.1339733 0.1338987 0.1333219 0.1323236 0.1309383 0.1291302
 0.126904 0.124362 0.1216175 0.1187774 0.1160189 0.1135374 0.1114276 0.1096979 0.1083296 0.1073421
 0.1068387 0.1064881 0.1046432 0.09919697 0.09082655 0.08445682 0.08513512 0.09236136 0.100426 0.1044563
 0.1043193 0.1026271 0.1011936 0.1003073 0.09988475 0.1000483 0.100901 0.1022961 0.10385 0.1051575
 0.1060405 0.1065241 0.1065741 0.1058932 0.1038751 0.09980701 0.09345022 0.08556363 0.07765242 0.07109616
 0.06653936 0.06389751 0.06263188 0.06206192 0.06171425 0.06154189 0.06181236 0.06277522 0.06444177 0.06665894
 0.0692867 0.07217067 0.07499623 0.07739468 0.07924557 0.08070299 0.08189212 0.08274505 0.08315327 0.08312425
 0.082757 0.08217113 0.0814807 0.08076119 0.08000061 0.07911307 0.07806695 0.0770198 0.07624432 0.07586655
 0.07575872 0.0757325 0.07572548 0.07575166 0.07579415 0.07581243 0.07579158 0.075774 0.07587229 0.07619234
 0.07670139 0.077227 0.07760595 0.07779783 0.07787357 0.07790528 0.07782872 0.07748123 0.07687573 0.07629552
 0.07591721 0.07549134 0.07467683 0.07359638 0.07277552 0.07255885 0.07280351 0.07312617 0.07325792 0.07314971
 0.07292581 0.07283184 0.07308765 0.07363059</values></Ydata></ScSm><ScRf><Ydata ylabel="Single channel"><values byteorder="INTEL" format="FLOAT32" numvalues="1820"> 0.06069296 0.06085292 0.06095179 0.06098875 0.06098555 0.06098541 0.06104064 0.06118043 0.06138317 0.06158382
 0.06172024 0.06177762 0.0617796 0.06174476 0.06168362 0.0616376 0.06167597 0.06182826 0.0620373 0.06219537
 0.06222965 0.06216762 0.06212268 0.06218348 0.06229483 0.0622738 0.06198141 0.06148192 0.06100252 0.06072486
 0.06067049 0.06083154 0.0612836 0.06197373 0.06248015 0.0623122 0.06152672 0.06075822 0.06051651 0.06069835
 0.06088073 0.06080967 0.06048061 0.06004644 0.05986184 0.06038422 0.06172254 0.06327133 0.06393418 0.06281722
 0.05986451 0.05605615 0.05304754 0.05228408 0.053983 0.05684029 0.05900945 0.0595751 0.05899232 0.05815305
 0.05742432 0.05676093 0.05632897 0.05654669 0.05750873 0.05858857 0.05875958 0.05747726 0.05532961 0.05361806
 0.05316684 0.0538063 0.05507204 0.05670958 0.05796927 0.05720465 0.05349218 0.04868118 0.04657131 0.04930358
 0.05507591 0.0599021 0.06115704 0.05905527 0.05549823 0.05249242 0.05138476 0.05250562 0.05512208 0.0580465
 0.06035059 0.06140272 0.0607123 0.0583601 0.05541258 0.05340098 0.05337949 0.0555149 0.0590551 0.06239612
 0.06380751 0.06270953 0.06006091 0.05734882 0.05561074 0.05543356 0.05709722 0.06028583 0.06406895 0.06743737
 0.06971335 0.07062517 0.07037018 0.06948978 0.06845368 0.06757544 0.06730027 0.0679355 0.06891133 0.06899381
 0.06763109 0.06569649 0.06459112 0.0647967 0.06549242 0.0655497 0.06466951 0.06320565 0.06105848 0.05764823
 0.05325937 0.04940123 0.04730382 0.04698171 0.04813082 0.0506069 0.05336741 0.05441106 0.05296534 0.05088272
 0.05080316 0.05334039 0.05676574 0.05912291 0.06004199 0.06060423 0.06194651 0.06409563 0.06582625 0.06558514
 0.06303109 0.05989984 0.05877753 0.06056111 0.06359577 0.06571276 0.06651904 0.06714739 0.06827858 0.0690839
 0.06808883 0.06492369 0.06125802 0.05976475 0.06178913 0.06600062 0.06935975 0.06936511 0.06573619 0.06047703
 0.05631667 0.05482033 0.0559757 0.05923989 0.06413963 0.06971192 0.07424958 0.07625467 0.07552388 0.07307997
 0.07000099 0.06641817 0.06206321 0.05792233 0.05645092 0.0592568 0.06504184 0.07068032 0.07400907 0.07491025
 0.07409346 0.07175492 0.06778403 0.0630734 0.05994932 0.06036162 0.06353515 0.06640905 0.06684122 0.06556131
 0.06460048 0.06475856 0.0653019 0.06552429 0.06576336 0.06683165 0.06885453 0.07096454 0.07214019 0.07213259
 0.07150911 0.07099456 0.07080951 0.07050428 0.06959005 0.06851481 0.06860534 0.07061074 0.07367034 0.07620022
 0.0774845 0.07793276 0.07801031 0.07742067 0.07552876 0.07254384 0.0700043 0.0696343 0.07167424 0.07472667
 0.07720806 0.07849179 0.07876571 0.07845487 0.07793102 0.07739299 0.07693083 0.07678415 0.07728472 0.07837968
 0.07951819 0.08020112 0.08038896 0.08025757 0.07984819 0.07914248 0.07831606 0.07773727 0.07770389 0.07822095
 0.07904752 0.07991097 0.08060268 0.08093458 0.08080405 0.08034472 0.07985421 0.07952439 0.07936446 0.0793803
 0.07964633 0.08014873 0.08070214 0.08110198 0.08128704 0.08131398 0.08124212 0.08109245 0.08088705 0.08069392
 0.08062512 0.08075808 0.08103911 0.08131896 0.08152616 0.08173718 0.08201168 0.08224052 0.08226103 0.08207707
 0.08186529 0.08178271 0.08184238 0.08196273 0.08205689 0.08204623 0.08185232 0.08146745 0.08104611 0.08084601
 0.0810255 0.08153337 0.08219972 0.08285521 0.08335713 0.08361956 0.0836768 0.08364639 0.08359394 0.08348607
 0.08328974 0.0830726 0.08298635 0.08315338 0.08355688 0.0840451 0.08445261 0.08470218 0.08480565 0.0848373
 0.08490994 0.08508684 0.08529072 0.08537649 0.0853162 0.08524285 0.08528787 0.08542825 0.08552292 0.08547771
 0.08535384 0.08530635 0.08542283 0.08564663 0.08586417 0.08603477 0.08620954 0.0864345 0.0866569 0.08674863
 0.08664209 0.08642458 0.08625501 0.08620043 0.08621371 0.0862603 0.08637951 0.08659143 0.08681487 0.08693644
 0.08693881 0.08691497 0.08695213 0.08703057 0.0870529 0.08695722 0.08678016 0.08661649 0.0865415 0.08657003
 0.08666062 0.08674303 0.08675691 0.08668613 0.08656284 0.08643547 0.08633518 0.08628105 0.08630846 0.08645739
 0.08670504 0.08692757 0.08697344 0.08679906 0.0865213 0.08631688 0.08626452 0.08628796 0.08624826 0.08607788
 0.08582243 0.08557364 0.08538616 0.08525591 0.08515216 0.0850569 0.08498773 0.08499311 0.08510455 0.08527154
 0.08536392 0.08527806 0.08503911 0.0847723 0.08458468 0.08450001 0.08448348 0.08448654 0.0844826 0.08449182
 0.08455045 0.08463717 0.08467028 0.08460546 0.08449618 0.08443704 0.08448762 0.08465374 0.08488193 0.0850602
 0.08509021 0.08498654 0.08486547 0.08482374 0.08486368 0.08493882 0.08502461 0.08512326 0.08523217 0.08534084
 0.08545561 0.08560687 0.08582185 0.08608921 0.08635265 0.08654706 0.08665519 0.08673419 0.08687599 0.08713009
 0.08746293 0.08779091 0.08805045 0.08824079 0.08840695 0.08858486 0.08877306 0.08896509 0.08918763 0.08947412
 0.08981046 0.09014241 0.09043719 0.09070863 0.09098333 0.09126946 0.09156408 0.09187631 0.09223504 0.09266125
 0.09311883 0.09350979 0.09375194 0.09386314 0.09395255 0.09413534 0.09445711 0.09486386 0.09522521 0.09543073
 0.0955027 0.09558436 0.09578257 0.09605684 0.09630422 0.09651862 0.09680159 0.09721809 0.09769643 0.0980943
 0.09833835 0.09848043 0.09862623 0.09882301 0.09902355 0.09916019 0.09923705 0.09932137 0.09945338 0.09961469
 0.09980015 0.1000628 0.1004422 0.100885 0.101285 0.1015818 0.101787 0.1019363 0.1020531 0.1021417
 0.1021924 0.1022066 0.1022253 0.1022985 0.1024166 0.1025122 0.1025483 0.102568 0.1026372 0.1027789
 0.1029861 0.103257 0.1035756 0.103887 0.1041476 0.1043934 0.1047037 0.1050796 0.1054108 0.1055959
 0.1056537 0.1056748 0.1057025 0.1057265 0.1057689 0.1059002 0.1061562 0.1064936 0.1068452 0.1071847
 0.1075219 0.1078596 0.1081702 0.108404 0.1085223 0.1085323 0.1084959 0.1085001 0.108613 0.1088515
 0.1091752 0.109512 0.1097999 0.1100028 0.1100963 0.1100733 0.109986 0.1099495 0.1100534 0.1102637
 0.1104383 0.1104442 0.1102413 0.1098597 0.1093366 0.1087028 0.1080117 0.1073476 0.1067923 0.1063904
 0.1061566 0.1061145 0.1063084 0.1067557 0.1073924 0.1080905 0.1087352 0.1092547 0.109576 0.1096061
 0.1092993 0.1087175 0.1079939 0.1072504 0.1065585 0.1059377 0.1053571 0.1047765 0.1042331 0.1038812
 0.103919 0.1044696 0.1055196 0.1069295 0.1084798 0.1099431 0.1111732 0.112154 0.1129653 0.113694
 0.1143801 0.1150366 0.1156859 0.1163438 0.1169826 0.1175504 0.1180321 0.1184616 0.1188732 0.119267
 0.1196197 0.1199093 0.1201362 0.1203321 0.1205294 0.1207074 0.1207979 0.1207659 0.1206567 0.1205404
 0.1204316 0.1202823 0.1200332 0.1196596 0.1192014 0.1187839 0.1185993 0.1188253 0.1195212 0.1205909
 0.121857 0.1231724 0.1244519 0.1256164 0.1265653 0.1272374 0.1276729 0.1279817 0.1282587 0.1285455
 0.1288473 0.1291569 0.129462 0.1297527 0.1300298 0.1303093 0.1306152 0.1309584 0.1313123 0.1316239
 0.1318644 0.1320683 0.1323109 0.1326395 0.1330291 0.1334108 0.133746 0.1340587 0.1343846 0.1347062
 0.1349714 0.1351662 0.1353376 0.1355453 0.1358206 0.1361608 0.1365309 0.1368668 0.1371159 0.1372854
 0.1374339 0.1376139 0.1378363 0.1380852 0.1383435 0.1385999 0.1388483 0.1390969 0.1393701 0.1396818
 0.140003 0.1402725 0.1404557 0.1405835 0.1407224 0.1409087 0.1411244 0.1413317 0.1415207 0.1417236
 0.1419828 0.1423014 0.142627 0.1428912 0.1430668 0.1431851 0.1433017 0.1434534 0.143645 0.1438611
 0.144083 0.1442976 0.1445024 0.144706 0.1449192 0.1451421 0.1453643 0.1455778 0.1457862 0.1459963
 0.1462066 0.1464091 0.1466061 0.1468208 0.1470811 0.1473855 0.147691 0.1479441 0.1481234 0.14825
 0.1483617 0.1484868 0.1486373 0.1488128 0.149006 0.1492073 0.1494099 0.1496136 0.1498226 0.1500387
 0.1502559 0.1504657 0.150667 0.1508669 0.1510738 0.1512934 0.1515252 0.1517603 0.1519857 0.1521932
 0.1523831 0.1525627 0.1527449 0.1529414 0.1531515 0.1533618 0.153561 0.1537503 0.1539372 0.1541237
 0.1543062 0.154483 0.1546597 0.1548468 0.1550491 0.1552604 0.1554724 0.1556832 0.1558927 0.1560968
 0.1562925 0.1564826 0.1566717 0.1568611 0.1570503 0.1572389 0.1574265 0.1576135 0.1578025 0.1579958
 0.1581934 0.1583946 0.1585997 0.1588088 0.1590187 0.1592228 0.1594167 0.1596041 0.1597923 0.1599843
 0.1601783 0.1603757 0.1605802 0.1607914 0.1610064 0.1612251 0.1614469 0.1616671 0.1618814 0.162092
 0.1623032 0.1625162 0.1627294 0.1629436 0.1631612 0.1633826 0.1636027 0.1638143 0.164016 0.1642122
 0.1644053 0.1645921 0.1647687 0.1649346 0.1650954 0.1652605 0.1654359 0.1656193 0.1658056 0.1659924
 0.166178 0.1663619 0.1665507 0.1667544 0.1669731 0.1671958 0.1674124 0.1676187 0.1678153 0.16801
 0.1682133 0.1684248 0.1686336 0.1688333 0.1690302 0.1692349 0.1694519 0.169676 0.1698949 0.1701011
 0.1702988 0.1704955 0.1706966 0.1709074 0.1711297 0.1713524 0.1715617 0.1717601 0.1719633 0.1721818
 0.1724134 0.1726444 0.1728594 0.1730564 0.1732491 0.1734471 0.1736481 0.1738512 0.1740607 0.1742746
 0.1744883 0.1747041 0.174924 0.1751428 0.1753577 0.175572 0.1757872 0.1760057 0.1762336 0.1764672
 0.1766915 0.1769011 0.1771001 0.1772775 0.1773882 0.1773171 0.1767861 0.1752475 0.1718644 0.1656785
 0.1559996 0.1428448 0.1270809 0.110113 0.0933705 0.0779395 0.06446086 0.05321466 0.04425801 0.03751361
 0.03282998 0.03008041 0.02926164 0.03059038 0.03461051 0.04187118 0.05171094 0.06117889 0.06617958 0.06470383
 0.05875189 0.05251371 0.04888754 0.04807688 0.0488402 0.05011789 0.051574 0.05340053 0.05592914 0.05925658
 0.06322649 0.06783225 0.07341559 0.08023366 0.08793454 0.09569829 0.1029394 0.1097684 0.116724 0.1241205
 0.1317129 0.1389397 0.1453759 0.1509479 0.1558413 0.1602978 0.1644751 0.1684305 0.1721819 0.1757224
 0.1789406 0.1815747 0.1833358 0.1841331 0.1841834 0.1838901 0.1836061 0.1834982 0.1835888 0.1838575
 0.1842851 0.1848496 0.1855245 0.1862799 0.1870826 0.1879044 0.1887273 0.1895326 0.1902986 0.1910166
 0.1916914 0.1923219 0.1928966 0.1934094 0.1938666 0.1942831 0.194679 0.1950702 0.1954551 0.1958198
 0.1961562 0.1964662 0.1967525 0.1970159 0.1972593 0.1974873 0.1977059 0.1979216 0.1981371 0.1983499
 0.1985586 0.1987641 0.1989668 0.1991679 0.1993721 0.1995802 0.1997844 0.1999801 0.2001735 0.2003714
 0.2005728 0.2007739 0.2009743 0.2011726 0.2013661 0.2015556 0.2017456 0.2019385 0.2021329 0.2023262
 0.2025192 0.2027166 0.20292 0.2031217 0.2033152 0.2035087 0.2037163 0.2039355 0.2041499 0.2043529
 0.2045544 0.2047653 0.2049865 0.2052096 0.2054185 0.2055981 0.2057499 0.2058958 0.2060621 0.2062622
 0.2064897 0.206725 0.2069497 0.2071584 0.2073544 0.2075426 0.2077255 0.2079035 0.2080799 0.2082719
 0.2084997 0.208757 0.2090112 0.2092444 0.2094708 0.2097069 0.2099532 0.2102061 0.2104543 0.2106654
 0.2108115 0.2109182 0.2110645 0.2113206 0.2116801 0.2120571 0.2123642 0.2125921 0.2127975 0.2130318
 0.2133067 0.2135889 0.2137899 0.2138212 0.2137306 0.2137291 0.2140026 0.2145248 0.2151065 0.2155879
 0.2159368 0.2162046 0.2164437 0.2166593 0.2168083 0.21685 0.2168229 0.2168697 0.2171372 0.2176238
 0.2181675 0.2186129 0.2189352 0.2191805 0.2193799 0.2195491 0.2196579 0.2195718 0.219192 0.218719
 0.2186083 0.2191301 0.2200639 0.2209372 0.2214969 0.2218379 0.2221329 0.2224164 0.2226419 0.222722
 0.222418 0.2214743 0.2201171 0.219198 0.219493 0.2209192 0.2226734 0.2240393 0.2248424 0.2252628
 0.2255165 0.2257151 0.2257906 0.2254999 0.2246987 0.2237189 0.2232953 0.2238927 0.2251773 0.2263661
 0.2270215 0.2272882 0.227481 0.2277307 0.227897 0.2275249 0.2261045 0.223825 0.2219565 0.2219552
 0.2240392 0.2269265 0.2291041 0.2301286 0.2305136 0.2306172 0.2301139 0.2285775 0.2261171 0.2233379
 0.2211483 0.2206219 0.2222871 0.2252501 0.227707 0.228721 0.2290103 0.2297599 0.2312085 0.232658
 0.233382 0.233187 0.2322906 0.2309276 0.2292383 0.2276358 0.2270239 0.2281583 0.23073 0.2334737
 0.2353311 0.2362526 0.2366582 0.2362049 0.2335234 0.2278666 0.2211889 0.2176141 0.2197943 0.2261363
 0.2325145 0.2363282 0.2379315 0.2386981 0.2391695 0.2389026 0.2367338 0.231421 0.2236094 0.2170593
 0.2161048 0.2213695 0.2290629 0.2345188 0.2353655 0.2317696 0.2256094 0.2199256 0.2176774 0.2199436
 0.2254486 0.2318237 0.2370326 0.2399389 0.2402889 0.2385884 0.2360658 0.2343851 0.2344395 0.2350247
 0.2337525 0.2300694 0.2261771 0.2238002 0.2215195 0.2173995 0.213244 0.213409 0.2191456 0.2265062
 0.2307757 0.2312486 0.2303869 0.2293273 0.2259293 0.2178536 0.2069951 0.1995768 0.2007148 0.2091084
 0.2181993 0.2225934 0.2223479 0.2210552 0.2210492 0.221025 0.2178799 0.2107677 0.2031726 0.1999893
 0.202316 0.2064703 0.2083493 0.2067019 0.2016995 0.1936238 0.1852235 0.182568 0.1899368 0.2045915
 0.2189146 0.2266775 0.2253243 0.2146262 0.1975802 0.1822424 0.1778073 0.1863704 0.2003786 0.2095767
 0.2091478 0.2005754 0.1872569 0.1721804 0.1593296 0.1541361 0.1602362 0.1757812 0.193426 0.2039601
 0.2014081 0.1877079 0.173169 0.1690543 0.1772985 0.189143 0.1949355 0.192889 0.1877168 0.1845842
 0.1861356 0.1919975 0.1991688 0.2048486 0.2086704 0.2095188 0.2025211 0.1849005 0.1637159 0.151209
 0.1520985 0.161171 0.1730647 0.1870785 0.2007892 0.2067554 0.2009079 0.190264 0.1869506 0.1953293
 0.208264 0.2158475 0.2152079 0.2110266 0.2083258 0.2071291 0.2049547 0.2025907 0.2043107 0.2119709
 0.2217694 0.2284916 0.2309355 0.2314482 0.231946 0.2324581 0.2324658 0.2317755 0.2304459 0.2289213
 0.2278974 0.2275352 0.2273101 0.226809 0.2257061 0.2225461 0.2150612 0.2033627 0.1919662 0.1862091
 0.1865849 0.1891292 0.1913182 0.1935347 0.1935435 0.1849377 0.16559 0.1446009 0.1356776 0.1438857
 0.1618716 0.1782537 0.1863492 0.18476 0.1739783 0.1565838 0.1399447 0.1339013 0.142742 0.1610901
 0.1796459 0.1931916 0.2011736 0.2032621 0.1983751 0.187842 0.1766634 0.1706489 0.1728812 0.1823685
 0.1943765 0.2016394 0.1979114 0.1841766 0.1713873 0.1723775 0.1883968 0.2070333 0.2161718 0.2162629
 0.2153873 0.2166952 0.2168542 0.2148778 0.2156566 0.2232488 0.2349125 0.2438146 0.2450341 0.2374997
 0.2233507 0.2084356 0.2007924 0.2041647 0.2136751 0.2210697 0.2226737 0.2189103 0.209444 0.1952176
 0.183595 0.1839333 0.1967501 0.2125047 0.2224348 0.2265331 0.2295734 0.2328862 0.2327457 0.226025
 0.2154346 0.2078499 0.2075107 0.2123176 0.2173861 0.2202011 0.2206243 0.2179576 0.2113859 0.2033183
 0.199423 0.2036898 0.214269 0.22517 0.2316001 0.2329598 0.2314382 0.229178 0.2268335 0.2237453
 0.2193811 0.2151979 0.2143521 0.2183278 0.224582 0.2291689 0.2312636 0.2334265 0.2375827 0.2423723
 0.244806 0.2435246 0.2400877 0.2376071 0.2382474 0.2415127 0.2446225 0.2448844 0.2422503 0.2396009
 0.240094 0.2441542 0.2494155 0.2534134 0.2555929 0.2567993 0.2578337 0.25875 0.2588078 0.2570318
 0.2535887 0.2505816 0.2505493 0.2539457 0.2587194 0.2624446 0.2642811 0.2648152 0.2647166 0.2640408
 0.2626374 0.2607943 0.2592449 0.2585865 0.2588516 0.259661 0.2606178 0.2614815 0.2621449 0.2626089
 0.2629365 0.263164 0.2632908 0.2633527 0.2634091 0.263442 0.2633778 0.2632489 0.263231 0.2634465
 0.2637964 0.26406 0.2640961 0.2638622 0.2633005 0.2623483 0.2610626 0.2596102 0.2580847 0.2564412
 0.2547245 0.2533251 0.2528681 0.253742 0.2557352 0.2581622 0.2603355 0.2619115 0.2628844 0.2634006
 0.2636254 0.2636966 0.263697 0.263643 0.2635154 0.2633059 0.2630319 0.2627151 0.2623642 0.2619874
 0.2616118 0.2612718 0.2609735 0.2606795 0.2603369 0.2599156 0.2594252 0.2589023 0.2583749 0.257827
 0.2572028 0.2564529 0.2555807 0.2546454 0.253726 0.2528784 0.2521059 0.2513622 0.2505911 0.2497615
 0.2488557 0.2478431 0.2467102 0.2455248 0.2444325 0.243551 0.2428742 0.2422889 0.2416641 0.2409173
 0.2400306 0.2390414 0.2380086 0.2369622 0.2358888 0.2347652 0.2335799 0.232319 0.2309625 0.2295066
 0.2279697 0.226374 0.2247431 0.2231063 0.2214661 0.2197506 0.2178196 0.21552 0.2127306 0.2093757
 0.2054381 0.2009838 0.1961698 0.1912115 0.1863217 0.1816652 0.177358 0.1734922 0.1701496 0.1673987
 0.1652902 0.1638568 0.1631157 0.1630727 0.163724 0.1650481 0.1669919 0.1694557 0.1722859 0.1752891
 0.1782715 0.181082 0.1836469 0.1859856 0.1881805 0.1902945 0.1923085 0.1941528 0.195783 0.1972021
 0.1984237 0.1994507 0.2002939 0.2009867 0.2015727 0.2020815 0.2025211 0.2028926 0.2032038 0.203464
 0.203676 0.2038458 0.2039955 0.2041567 0.2043553 0.2046033 0.2048997 0.2052425 0.2056424 0.206111
 0.2066319 0.2071665 0.2076976 0.2082494 0.2088527 0.2095158 0.2102406 0.2110513 0.2119904 0.2130878
 0.2143371 0.2156966 0.2171006 0.2184654 0.2196968 0.2207137 0.2214759 0.2219858 0.22227 0.2223634
 0.2222995 0.2221044 0.2218006 0.2214136 0.2209645 0.2204555 0.2198781 0.2192369 0.2185547 0.2178554
 0.2171491 0.2164384 0.2157303 0.2150378 0.2143706 0.2137296 0.2131089 0.212501 0.2118996 0.2113015
 0.2107099 0.2101297 0.2095594 0.2089907 0.2084142 0.2078186 0.2071832 0.2064787 0.2056795 0.2047739
 0.2037616 0.2026455 0.2014323 0.2001382 0.1987802 0.1973606 0.1958665 0.1942902 0.1926395 0.1909207
 0.1891209 0.1872185 0.1852216 0.1831913 0.1812154 0.1793583 0.1776375 0.1760408 0.1745475 0.1731364
 0.1717908 0.1705018 0.1692635 0.1680714 0.1669288 0.165848 0.1648401 0.1639076 0.1630486 0.1622669
 0.1615724 0.1609673 0.1604348 0.1599515 0.159514 0.1591417 0.1588598 0.1586885 0.1586327 0.1586617
 0.1587127 0.1587273 0.158681 0.158578 0.1584402 0.1583036 0.1582044 0.1581585 0.1581473 0.158114
 0.1579773 0.1576588 0.1570933 0.1562208 0.1550064 0.1534797 0.1517314 0.149875 0.1480319 0.1463293
 0.1448722 0.1437146 0.1428547 0.1422334 0.1417485 0.1413161 0.1409378 0.1406977 0.1406882 0.1409095
 0.1412206 0.1414276 0.1414629 0.1414553 0.1416015 0.142007 0.1426437 0.1433959 0.1441323 0.1447769
 0.1453171 0.145746 0.1460404 0.146198 0.1462415 0.1461852 0.1460365 0.1458128 0.1455336 0.145219
 0.1448926 0.1445455 0.1441225 0.1435817 0.1429299 0.1421853 0.1413601 0.1404673 0.1394815 0.138342
 0.1370843 0.1359271 0.1351648 0.1349925 0.1354179 0.1362649 0.1372882 0.1383372 0.1393421 0.1401283
 0.1404587 0.1404144 0.1405828 0.1416361 0.1436891 0.1461649 0.1483076 0.1497319 0.1504525 0.1505729
 0.1501417 0.1492039 0.1477739 0.1458064 0.143327 0.1404937 0.1374633 0.134353 0.1313457 0.1286451
 0.1263502 0.1244846 0.1230488 0.1220684 0.1216599 0.1214608 0.1195921 0.1136213 0.1043239 0.0973767
 0.0985709 0.1072868 0.1169312 0.1219005 0.1220352 0.1203225 0.1188391 0.117909 0.1174169 0.1174786
 0.1181971 0.1194273 0.1208083 0.121965 0.1227289 0.1231159 0.1230715 0.1222356 0.1198737 0.1151327
 0.1077333 0.09856073 0.08936246 0.08173406 0.07639778 0.07322336 0.07159265 0.07076222 0.0702187 0.06991471
 0.0701604 0.07125041 0.07321428 0.0758943 0.07910757 0.08259934 0.08594625 0.08874091 0.09090026 0.09263054
 0.09407169 0.09512462 0.0956416 0.09563924 0.0952727 0.09469549 0.09399879 0.09321924 0.09232703 0.09123991
 0.08995749 0.08869445 0.08776973 0.08732277 0.08722298 0.08726229 0.08732438 0.08736429 0.08735357 0.08728863
 0.08720056 0.087157 0.08726074 0.08758244 0.08806842 0.08856139 0.08892159 0.08911072 0.08917564 0.08913821
 0.08888301 0.08825956 0.08737436 0.08660115 0.08611481 0.08558729 0.08460951 0.08331175 0.08229475 0.08197351
 0.08220452 0.08254641 0.08267803 0.08253419 0.08225507 0.08213052 0.08242443 0.08306262 0.08358736 0.08359335
</values></Ydata></ScRf><Data_Parameters_AB><parameter name="DPF">1</parameter><parameter name="NPT">3497</parameter><parameter name="FXV">3996</parameter><parameter name="LXV">500</parameter><parameter name="CSF">1</parameter><parameter name="MXY">0.199351564049721</parameter><parameter name="MNY">-0.0832823812961578</parameter><parameter name="DAT">31/05/2022</parameter><parameter name="TIM">13:40:10.299 (GMT+2)</parameter><parameter name="DXU">WN</parameter></Data_Parameters_AB><AB__Qtest><MainReport name="Quality Test Report"><Header><Line><Legend>Test result ok/not ok [1/0]: </Legend><Value>0</Value></Line><Line><Legend>Method file: </Legend><Value>C:\Users\Public\Documents\Bruker\OPUS_8.2.28\QT\IRBT_v3_default.QT</Value></Line></Header><Matrix><Line><Legend></Legend><Legend>min</Legend><Legend>max</Legend><Legend>measured</Legend></Line><Line><Value>Absorption (X-Range 1):</Value><Value>0.400000</Value><Value>2.000000</Value><Value>0.188825</Value></Line><Line><Value>Noise (X-Range 4):</Value><Value></Value><Value>0.000300</Value><Value>0.000066</Value></Line><Line><Value>Signal/Noise (X-Range 2):</Value><Value>200.000000</Value><Value></Value><Value>48.798777</Value></Line><Line><Value>Signal/Noise (X-Range 3):</Value><Value>40.000000</Value><Value></Value><Value>32.618025</Value></Line><Line><Value>Water vapour (X-Range 5):</Value><Value></Value><Value>0.000300</Value><Value>0.000097</Value></Line><Line><Value>Signal/Water (X-Range 2):</Value><Value>100.000000</Value><Value></Value><Value>33.241980</Value></Line><Line><Value>Signal/Water (X-Range 3):</Value><Value>20.000000</Value><Value></Value><Value>22.219568</Value></Line><Line><Value>Fringes (X-Range 6):</Value><Value></Value><Value>0.000100</Value><Value>0.000067</Value></Line></Matrix></MainReport></AB__Qtest><Data_Parameters_ScSm><parameter name="DPF">1</parameter><parameter name="NPT">1814</parameter><parameter name="FXV">3996.33169228125</parameter><parameter name="LXV">499.541461535156</parameter><parameter name="CSF">1</parameter><parameter name="MXY">0.286966264247894</parameter><parameter name="MNY">0.0354441255331039</parameter><parameter name="DAT">31/05/2022</parameter><parameter name="TIM">13:40:10.299 (GMT+2)</parameter><parameter name="DXU">WN</parameter></Data_Parameters_ScSm><Data_Parameters_ScRf><parameter name="DPF">1</parameter><parameter name="NPT">1820</parameter><parameter name="FXV">4004.04661832813</parameter><parameter name="LXV">495.683998511719</parameter><parameter name="CSF">1</parameter><parameter name="MXY">0.264815151691437</parameter><parameter name="MNY">0.0292616356164217</parameter><parameter name="DAT">31/05/2022</parameter><parameter name="TIM">13:39:44.447 (GMT+2)</parameter><parameter name="DXU">WN</parameter></Data_Parameters_ScRf><Optic_Parameters_Rf><parameter name="APR">0</parameter><parameter name="APT">Open</parameter><parameter name="BMS">KBr</parameter><parameter name="DTC">RT-DLaTGS_IR-Biotyper [Microplate reader]</parameter><parameter name="HPF">0</parameter><parameter name="LPF">10.0</parameter><parameter name="LPV">4000</parameter><parameter name="PGR">0</parameter><parameter name="RCH">Module port</parameter><parameter name="RDX">0</parameter><parameter name="SRC">MIR</parameter><parameter name="VEL">10.0</parameter><parameter name="SON">Off</parameter></Optic_Parameters_Rf><Acquisition_Parameters_Rf><parameter name="ADT">1</parameter><parameter name="AQM">DD</parameter><parameter name="CFE">0</parameter><parameter name="COR">0</parameter><parameter name="DEL">0</parameter><parameter name="DLY">0</parameter><parameter name="HFW">8000</parameter><parameter name="LFW">0</parameter><parameter name="NSR">32</parameter><parameter name="PLF">AB</parameter><parameter name="RES">6</parameter><parameter name="RGN">-1</parameter><parameter name="STR">0</parameter><parameter name="TCL">MakeCompatibleScalar (0, {WSV=1.000000, ARV=0});</parameter><parameter name="TDL">37</parameter><parameter name="RPO">0</parameter></Acquisition_Parameters_Rf><FT_-_Parameters_Rf><parameter name="APF">B3</parameter><parameter name="HFQ">500</parameter><parameter name="LFQ">4000</parameter><parameter name="NLI">0</parameter><parameter name="PHR">24</parameter><parameter name="PHZ">ML</parameter><parameter name="SPZ">NO</parameter><parameter name="ZFF">1</parameter></FT_-_Parameters_Rf><Optic_Parameters_><parameter name="APR">0</parameter><parameter name="APT">Open</parameter><parameter name="BMS">KBr</parameter><parameter name="CHN">Module port</parameter><parameter name="DTC">RT-DLaTGS_IR-Biotyper [Microplate reader]</parameter><parameter name="HPF">0</parameter><parameter name="LPF">10.0</parameter><parameter name="LPV">4000</parameter><parameter name="PGN">0</parameter><parameter name="RDX">0</parameter><parameter name="SRC">MIR</parameter><parameter name="VEL">10.0</parameter><parameter name="SON">Off</parameter></Optic_Parameters_><FT_-_Parameters_><parameter name="APF">B3</parameter><parameter name="HFQ">500</parameter><parameter name="LFQ">4000</parameter><parameter name="NLI">0</parameter><parameter name="PHR">24</parameter><parameter name="PHZ">ML</parameter><parameter name="SPZ">NO</parameter><parameter name="ZFF">1</parameter></FT_-_Parameters_><Acquisition_Parameters_><parameter name="ADT">1</parameter><parameter name="AQM">DD</parameter><parameter name="CFE">0</parameter><parameter name="COR">0</parameter><parameter name="DEL">0</parameter><parameter name="DLY">0</parameter><parameter name="HFW">8000</parameter><parameter name="LFW">0</parameter><parameter name="NSS">32</parameter><parameter name="PLF">AB</parameter><parameter name="RES">6</parameter><parameter name="SOT">0</parameter><parameter name="TCL">MakeCompatibleScalar (0, {WSV=1.000000, ARV=0});</parameter><parameter name="TDL">37</parameter><parameter name="SPO">0</parameter><parameter name="SGN">-1</parameter></Acquisition_Parameters_><Instrument_Parameters_Rf><parameter name="HFL">15800.168544</parameter><parameter name="LFL">0</parameter><parameter name="LWN">15800.168544</parameter><parameter name="ABP">32197</parameter><parameter name="SSP">1</parameter><parameter name="ARG">2</parameter><parameter name="ASG">2</parameter><parameter name="ASS">32</parameter><parameter name="GFW">16</parameter><parameter name="GBW">16</parameter><parameter name="BFW">0</parameter><parameter name="BBW">0</parameter><parameter name="PKA">7255</parameter><parameter name="PKL">4996</parameter><parameter name="PRA">7442</parameter><parameter name="PRL">5001</parameter><parameter name="P2A">1</parameter><parameter name="P2L">1</parameter><parameter name="P2R">1</parameter><parameter name="P2K">1</parameter><parameter name="DAQ">0</parameter><parameter name="AG2">1</parameter><parameter name="SSM">1</parameter><parameter name="RSN">25693</parameter><parameter name="CRR">0</parameter><parameter name="SRT">1654004384.447</parameter><parameter name="DUR">19.6379852294922</parameter><parameter name="TSC">28.9</parameter><parameter name="MVD">0.224618315696716</parameter><parameter name="AN1">0.225798984347395</parameter><parameter name="AN2">0</parameter><parameter name="VSN">2.485 Apr  4 2017</parameter><parameter name="SRN">0085</parameter><parameter name="CAM">0</parameter><parameter name="INS">IR-Biotyper</parameter><parameter name="FOC">69</parameter><parameter name="RDY">1</parameter><parameter name="ARS">32</parameter></Instrument_Parameters_Rf><Sample_Parameters_><parameter name="BLD"></parameter><parameter name="CNM">Admin</parameter><parameter name="CPY"></parameter><parameter name="DPM"></parameter><parameter name="EXP">IRBT_v3_32Scans.XPM</parameter><parameter name="LCT"></parameter><parameter name="SFM">Microplate, HTS-XT</parameter><parameter name="SNM">220531-1301_CGR32F (D_2)_B4_7b625f3a-c6db-4846-9fca-7a7bc4dd5dd4.0</parameter><parameter name="XPP">C:\Users\Public\Documents\Bruker\OPUS_8.2.28\XPM</parameter><parameter name="IST">OK</parameter><parameter name="CPG">1252</parameter><parameter name="UID">3c4029a2-6cb3-4f66-b161-4da2a1701796</parameter></Sample_Parameters_><Instrument_Parameters_><parameter name="HFL">15800.168544</parameter><parameter name="LFL">0</parameter><parameter name="LWN">15800.168544</parameter><parameter name="ABP">32197</parameter><parameter name="SSP">1</parameter><parameter name="ASG">2</parameter><parameter name="ARG">2</parameter><parameter name="ASS">32</parameter><parameter name="GFW">16</parameter><parameter name="GBW">16</parameter><parameter name="BFW">0</parameter><parameter name="BBW">0</parameter><parameter name="PKA">7521</parameter><parameter name="PKL">4988</parameter><parameter name="PRA">7784</parameter><parameter name="PRL">4993</parameter><parameter name="P2A">1</parameter><parameter name="P2L">1</parameter><parameter name="P2R">1</parameter><parameter name="P2K">1</parameter><parameter name="DAQ">0</parameter><parameter name="AG2">1</parameter><parameter name="SSM">1</parameter><parameter name="RSN">13472</parameter><parameter name="CRR">0</parameter><parameter name="SRT">1654004410.3</parameter><parameter name="DUR">19.6389923095703</parameter><parameter name="TSC">28.9</parameter><parameter name="MVD">0.233941033482552</parameter><parameter name="AN1">0.225813253362792</parameter><parameter name="AN2">0</parameter><parameter name="VSN">2.485 Apr  4 2017</parameter><parameter name="SRN">0085</parameter><parameter name="CAM">0</parameter><parameter name="INS">IR-Biotyper</parameter><parameter name="FOC">69</parameter><parameter name="RDY">1</parameter></Instrument_Parameters_><History/></OPUSDataFile>
