<?xml version="1.0" encoding="UTF-8" ?>
<OPUSDataFile><AB><Ydata ylabel="Absorbance Units"><values byteorder="INTEL" format="FLOAT32" numvalues="3497"> -0.04185451 -0.04188924 -0.04191754 -0.04193976 -0.04195049 -0.04194947 -0.04193752 -0.04191492 -0.04188598 -0.04185034
 -0.04180769 -0.04175815 -0.04170021 -0.04163814 -0.04158005 -0.04153205 -0.04150914 -0.04151046 -0.04154349 -0.04159738
 -0.04166732 -0.04174095 -0.04180975 -0.04186945 -0.04191583 -0.04195189 -0.04197767 -0.04199598 -0.04200766 -0.04201105
 -0.04200624 -0.04198897 -0.04195899 -0.0419163 -0.04186172 -0.04180522 -0.04174865 -0.04170826 -0.04168465 -0.04168975
 -0.04172024 -0.04177604 -0.04184945 -0.04192903 -0.04200622 -0.04206636 -0.04210651 -0.0421176 -0.04210668 -0.04207362
 -0.04203045 -0.04198142 -0.041935 -0.04189458 -0.04186146 -0.04183662 -0.04181747 -0.04180376 -0.04179428 -0.04178894
 -0.04179079 -0.04180006 -0.04182135 -0.04185403 -0.04189747 -0.04194944 -0.04200175 -0.04205231 -0.04209164 -0.04211995
 -0.04213247 -0.04213254 -0.04212087 -0.0421041 -0.04208747 -0.04207605 -0.04207588 -0.04208204 -0.04209601 -0.04210411
 -0.04210234 -0.04208594 -0.04205156 -0.04201338 -0.04197181 -0.04194764 -0.04194209 -0.04196609 -0.04201909 -0.04209684
 -0.04219654 -0.04230022 -0.04240362 -0.04248096 -0.04253196 -0.04254047 -0.04251475 -0.04246033 -0.04238698 -0.0423086
 -0.04222962 -0.04215866 -0.04209491 -0.04204056 -0.04199227 -0.04194862 -0.04190991 -0.04187462 -0.04185077 -0.04183906
 -0.04184886 -0.04188194 -0.04193434 -0.04200602 -0.04207867 -0.04215157 -0.04221053 -0.04225665 -0.04229021 -0.04231197
 -0.04232523 -0.04232889 -0.04232057 -0.04230222 -0.04227396 -0.04224352 -0.04222123 -0.04220879 -0.04221445 -0.04222606
 -0.042239 -0.04224433 -0.04223362 -0.04222019 -0.04220339 -0.04220851 -0.04224019 -0.04231212 -0.04242818 -0.04257089
 -0.04273988 -0.04286651 -0.04294798 -0.04292376 -0.0428054 -0.04263749 -0.04243211 -0.04226028 -0.04211997 -0.04204205
 -0.04201892 -0.04205517 -0.04213402 -0.0422417 -0.04235285 -0.04244131 -0.04249511 -0.0424946 -0.04245893 -0.0423887
 -0.04231093 -0.04223461 -0.04216629 -0.04210941 -0.0420577 -0.04201066 -0.04196563 -0.04192239 -0.04188436 -0.0418519
 -0.04183083 -0.04182164 -0.04183117 -0.04185804 -0.04190265 -0.04195912 -0.04201353 -0.04206022 -0.04208049 -0.04207937
 -0.04205304 -0.04201467 -0.04197369 -0.04193981 -0.04192181 -0.04192176 -0.04194345 -0.04198227 -0.04203909 -0.0421027
 -0.04217239 -0.04223256 -0.04228171 -0.04230652 -0.04230603 -0.04227699 -0.04222007 -0.04214588 -0.04205599 -0.04196614
 -0.04187674 -0.04179764 -0.04172824 -0.04167166 -0.04162788 -0.04159832 -0.04158289 -0.04158294 -0.04159556 -0.04161986
 -0.0416501 -0.04168275 -0.04171412 -0.0417417 -0.04176491 -0.04178361 -0.04179525 -0.04179967 -0.04179242 -0.04177253
 -0.04174266 -0.0417028 -0.04166417 -0.04162755 -0.041607 -0.04160229 -0.04161983 -0.04165667 -0.04170524 -0.04176189
 -0.04181311 -0.041858 -0.04188804 -0.04190607 -0.04191097 -0.04190915 -0.04190465 -0.04190519 -0.04191721 -0.04194181
 -0.04198302 -0.04203087 -0.04208446 -0.04213044 -0.04216548 -0.04218775 -0.04219647 -0.04219573 -0.04218604 -0.04215156
 -0.0420916 -0.04198962 -0.04185029 -0.04169702 -0.04153709 -0.04141403 -0.04132651 -0.04129622 -0.04131108 -0.04136265
 -0.04143232 -0.04149054 -0.04153505 -0.04154834 -0.04155173 -0.04155425 -0.04156744 -0.04160257 -0.04164514 -0.041696
 -0.04172816 -0.04173568 -0.04170922 -0.04164507 -0.04156392 -0.04146666 -0.04138003 -0.04130479 -0.04125391 -0.04122713
 -0.04122971 -0.04125999 -0.0413173 -0.04139379 -0.04146961 -0.04153619 -0.04156518 -0.041563 -0.04152508 -0.04146266
 -0.04138579 -0.04129615 -0.04119721 -0.04108967 -0.0409716 -0.04085601 -0.04074483 -0.04065416 -0.04058851 -0.04054879
 -0.04053674 -0.04053822 -0.04055257 -0.04056212 -0.04056636 -0.04055653 -0.04053388 -0.04050366 -0.04046667 -0.04042958
 -0.04039074 -0.0403485 -0.04030264 -0.04025091 -0.04019656 -0.04014215 -0.0400923 -0.04005284 -0.04002364 -0.04000942
 -0.03999734 -0.0399867 -0.03995275 -0.03988849 -0.03977711 -0.0396114 -0.03940413 -0.03915397 -0.03889572 -0.0386316
 -0.0383863 -0.03816032 -0.03795972 -0.03778449 -0.03763764 -0.03751952 -0.03743514 -0.03738086 -0.03735143 -0.03733881
 -0.03732528 -0.03730701 -0.03727087 -0.03721922 -0.03715102 -0.03706489 -0.0369608 -0.0368338 -0.03667947 -0.03650478
 -0.03630895 -0.03610766 -0.03590367 -0.03570775 -0.03552169 -0.03534915 -0.03519052 -0.03504716 -0.03491928 -0.03481112
 -0.03472251 -0.03465664 -0.03460874 -0.03456352 -0.03451016 -0.03440776 -0.03425817 -0.03403671 -0.03377372 -0.03349936
 -0.0332348 -0.03301567 -0.03283155 -0.03268912 -0.03256514 -0.03245221 -0.03233037 -0.03219082 -0.0320308 -0.03184649
 -0.03165232 -0.03144945 -0.0312505 -0.03105675 -0.03086384 -0.03067114 -0.03046373 -0.03024198 -0.03000093 -0.02974366
 -0.02948048 -0.02921445 -0.02895894 -0.02871589 -0.02849571 -0.02829733 -0.02812623 -0.02797276 -0.02783229 -0.02769017
 -0.02753465 -0.02736174 -0.02716516 -0.02695242 -0.0267248 -0.02648658 -0.02623902 -0.02598222 -0.02571534 -0.0254492
 -0.02518428 -0.02493743 -0.024709 -0.02450245 -0.02431623 -0.02413997 -0.023972 -0.02379911 -0.02362194 -0.02343427
 -0.02324045 -0.02304535 -0.02285386 -0.02267645 -0.02250985 -0.02235886 -0.02220626 -0.02204425 -0.02185452 -0.02162257
 -0.02135796 -0.02105605 -0.02075053 -0.02044739 -0.02016903 -0.01992046 -0.01969786 -0.01950187 -0.01931027 -0.01912189
 -0.01891428 -0.01868784 -0.01843467 -0.0181577 -0.01786516 -0.01756031 -0.01725646 -0.01695544 -0.01666688 -0.01639146
 -0.01613425 -0.01589437 -0.01567355 -0.01546813 -0.01527696 -0.01509483 -0.01491918 -0.01474682 -0.01457566 -0.01440749
 -0.01424209 -0.01408307 -0.01393149 -0.01378338 -0.01363891 -0.01348353 -0.0133166 -0.01312631 -0.0129142 -0.01268713
 -0.01244855 -0.01221885 -0.01199726 -0.01179414 -0.01160218 -0.01141165 -0.01121759 -0.01100596 -0.01078442 -0.01055277
 -0.01032599 -0.01011537 -0.009924607 -0.00976135 -0.0096118 -0.009474128 -0.009333503 -0.009185923 -0.009027564 -0.00885751
 -0.008674057 -0.00847711 -0.008262112 -0.008029193 -0.007783893 -0.007528035 -0.007279926 -0.007040302 -0.00682306 -0.006625719
 -0.006448437 -0.006288287 -0.00613973 -0.006000633 -0.00586643 -0.005734204 -0.005599828 -0.005460919 -0.005314624 -0.005160316
 -0.004997493 -0.004824267 -0.004640112 -0.004442856 -0.004230701 -0.004010635 -0.00378229 -0.003561927 -0.003350819 -0.003158763
 -0.002985757 -0.00282404 -0.002672316 -0.002515103 -0.002353434 -0.002182789 -0.00200748 -0.001838145 -0.001677265 -0.001536609
 -0.001411975 -0.001303685 -0.001203915 -0.001104637 -0.001002539 -0.0008922574 -0.0007757253 -0.0006524661 -0.0005248373 -0.0003931791
 -0.0002604829 -0.0001268323 1.95605E-06 0.0001251129 0.0002387284 0.0003422947 0.0004372099 0.0005235989 0.0006044696 0.0006805721
 0.0007585076 0.0008410562 0.0009450409 0.001072192 0.001239668 0.001439832 0.001668397 0.001910423 0.002141847 0.00235656
 0.002536529 0.002691772 0.002823072 0.002941667 0.003054976 0.003161384 0.003262456 0.003352418 0.003428876 0.003497175
 0.003556938 0.003620367 0.00368843 0.003768251 0.003860112 0.003966277 0.004086664 0.004222536 0.004372256 0.004529999
 0.004691565 0.004841083 0.004976138 0.005082195 0.005164277 0.005221542 0.00526438 0.005302487 0.005343765 0.005398041
 0.005463465 0.005543745 0.005626995 0.005710624 0.005783741 0.005841651 0.005890539 0.005929224 0.005977917 0.006038546
 0.006116783 0.006212267 0.006300935 0.006381219 0.00642649 0.006440728 0.00642773 0.006395549 0.0063717 0.006358869
 0.006377643 0.006422358 0.006494567 0.006585641 0.00668791 0.006794218 0.006897266 0.006993694 0.00707876 0.007157096
 0.007227908 0.007301853 0.007381634 0.007471101 0.007572408 0.007674912 0.007778229 0.007867421 0.007941912 0.007997149
 0.008033833 0.008057134 0.008067482 0.008069277 0.008062984 0.008050753 0.008036458 0.008028653 0.008031776 0.008058574
 0.00810348 0.008168875 0.008238529 0.008300881 0.008348477 0.008370465 0.00838229 0.00838489 0.00840001 0.008434737
 0.008489065 0.008565982 0.008643441 0.008720047 0.008776037 0.008810637 0.008820381 0.008806221 0.008775316 0.008729801
 0.008682891 0.008638184 0.008614028 0.008612119 0.008647949 0.008713325 0.008806689 0.008909407 0.009002593 0.009071361
 0.009095465 0.009082094 0.009024534 0.00895183 0.008870358 0.008809135 0.008776898 0.008782844 0.008830726 0.008911585
 0.009025228 0.009159809 0.009314725 0.009481511 0.009659085 0.0098346 0.01000502 0.01014787 0.01026118 0.01032439
 0.01034324 0.0103165 0.01025922 0.01019168 0.01012911 0.01009696 0.01009606 0.01013952 0.01020762 0.01029799
 0.01037963 0.01044233 0.01046332 0.01043338 0.0103547 0.01022374 0.01006872 0.009891026 0.009725278 0.0095731
 0.009450906 0.009357547 0.009286862 0.009237086 0.009195296 0.009162437 0.009134724 0.009114107 0.009104658 0.009103332
 0.009110577 0.009114026 0.009103321 0.00906205 0.008973676 0.008834141 0.008632324 0.008388273 0.008102316 0.007809556
 0.007517439 0.007251995 0.007019035 0.006823869 0.006668004 0.00654344 0.006449709 0.006372637 0.006311 0.006246455
 0.006178781 0.006095672 0.006000835 0.005899519 0.005795992 0.005704755 0.00562126 0.005547646 0.005471015 0.005377343
 0.005261357 0.005109688 0.004939062 0.004749753 0.004573766 0.004422175 0.004315595 0.004264826 0.00425554 0.004290827
 0.00432488 0.004354569 0.004335652 0.004266021 0.00413673 0.003950672 0.003736346 0.003498105 0.003274462 0.00306593
 0.002895601 0.002758978 0.002658512 0.002586944 0.002534962 0.002495334 0.002457115 0.002415488 0.002363427 0.002299418
 0.002220479 0.002128422 0.002022286 0.001908331 0.001787055 0.001667563 0.001551306 0.001444014 0.00134664 0.001257356
 0.001176052 0.001095301 0.001014484 0.0009241732 0.0008240613 0.000706657 0.0005738213 0.0004263731 0.0002694546 0.0001149447
 -3.342571E-05 -0.0001622886 -0.0002771186 -0.000376339 -0.0004731249 -0.0005773869 -0.000696029 -0.000838679 -0.0009939945 -0.001162251
 -0.001323595 -0.001472343 -0.001601779 -0.001708332 -0.001804789 -0.001891651 -0.001984617 -0.002084484 -0.00219525 -0.002316486
 -0.002444198 -0.002578051 -0.002714526 -0.002853223 -0.002991196 -0.003127655 -0.003259016 -0.003385718 -0.003506729 -0.003623113
 -0.003736784 -0.003844925 -0.003947527 -0.004037165 -0.004110153 -0.004160956 -0.004185037 -0.004187697 -0.00416658 -0.004142675
 -0.004116985 -0.004120222 -0.0041554 -0.004242749 -0.004383366 -0.004567702 -0.004792921 -0.005022148 -0.005252 -0.005442963
 -0.00559699 -0.005696801 -0.005753016 -0.005778649 -0.005789409 -0.005816439 -0.005868119 -0.005970247 -0.006110361 -0.006291836
 -0.006486699 -0.006681082 -0.006856672 -0.007000807 -0.007119188 -0.007210152 -0.00728553 -0.007348396 -0.007394603 -0.007424624
 -0.007424474 -0.007393443 -0.007332656 -0.007244293 -0.007155473 -0.007070036 -0.007025309 -0.007020583 -0.007076368 -0.007182615
 -0.007328523 -0.007499553 -0.007665746 -0.007823371 -0.007952421 -0.008067527 -0.008172825 -0.008283348 -0.008412789 -0.0085519
 -0.00870386 -0.00884303 -0.00896206 -0.009053074 -0.009111337 -0.009154776 -0.009184678 -0.009214789 -0.009245924 -0.009269775
 -0.009285897 -0.009284928 -0.009269292 -0.009248585 -0.009225789 -0.009217862 -0.009223016 -0.009246391 -0.009282831 -0.009325932
 -0.009372666 -0.009415745 -0.009458279 -0.009497821 -0.009546139 -0.00960719 -0.009695844 -0.009820661 -0.009980584 -0.01018171
 -0.01039346 -0.01061406 -0.01080236 -0.01095319 -0.01105269 -0.01109976 -0.01112238 -0.01112332 -0.01114726 -0.01119427
 -0.01128961 -0.01142683 -0.0115982 -0.01179366 -0.01198599 -0.01216783 -0.0123137 -0.0124244 -0.01248832 -0.01251703
 -0.01251298 -0.01249544 -0.01247487 -0.01246609 -0.01247936 -0.01251102 -0.01256422 -0.01262107 -0.01267842 -0.01272875
 -0.01276959 -0.01281765 -0.01287374 -0.01295701 -0.0130667 -0.01319624 -0.01334228 -0.01347938 -0.01360851 -0.01371794
 -0.01381469 -0.01391078 -0.01400947 -0.0141244 -0.01424834 -0.01437937 -0.01450742 -0.01462232 -0.01472269 -0.01480362
 -0.01487141 -0.01492765 -0.01497611 -0.01501901 -0.01505285 -0.01507765 -0.01508783 -0.01508232 -0.01506358 -0.0150316
 -0.01500329 -0.01498001 -0.01498521 -0.01501859 -0.01509196 -0.01520008 -0.01533152 -0.01547801 -0.01561388 -0.01573375
 -0.0158161 -0.01586212 -0.01586334 -0.01582728 -0.01575577 -0.01565984 -0.01554513 -0.01542234 -0.01529647 -0.01517481
 -0.01506001 -0.01495655 -0.01486581 -0.01478861 -0.0147261 -0.01466667 -0.01460989 -0.01452515 -0.01441073 -0.01423394
 -0.0139973 -0.01369772 -0.01334455 -0.01297067 -0.01258407 -0.01222346 -0.01188547 -0.01158392 -0.01130704 -0.01104604
 -0.01079244 -0.01053517 -0.010274 -0.01000591 -0.009732117 -0.009453197 -0.009166936 -0.008872574 -0.008569831 -0.008257143
 -0.007945068 -0.007633608 -0.007342878 -0.007074053 -0.006844581 -0.006654533 -0.006507332 -0.006401339 -0.006327748 -0.006285139
 -0.006263875 -0.006262855 -0.006275899 -0.006299198 -0.006324989 -0.006346305 -0.006352143 -0.006337029 -0.006292362 -0.00621727
 -0.006108627 -0.005968299 -0.005795808 -0.005595066 -0.005365969 -0.005116895 -0.004848601 -0.004571721 -0.004287431 -0.004002541
 -0.003717486 -0.003439296 -0.00316902 -0.00292387 -0.002705774 -0.002537222 -0.002417031 -0.002354596 -0.002343319 -0.002371291
 -0.002433194 -0.002511575 -0.002611878 -0.002729963 -0.002883484 -0.003083315 -0.003350429 -0.003700412 -0.004143276 -0.004690628
 -0.005328033 -0.006059734 -0.006841561 -0.007670511 -0.008485979 -0.009281657 -0.01001064 -0.01066933 -0.01124822 -0.01174853
 -0.01219173 -0.01257964 -0.01293524 -0.01325752 -0.01355381 -0.0138242 -0.01407066 -0.01429863 -0.01451833 -0.01473447
 -0.01495929 -0.01518752 -0.01542085 -0.01564731 -0.01585988 -0.01605252 -0.01622004 -0.01636505 -0.01648716 -0.01659001
 -0.01667435 -0.01674134 -0.01679139 -0.0168227 -0.0168353 -0.0168205 -0.01677801 -0.01670013 -0.01658975 -0.01646084
 -0.01632092 -0.01620789 -0.01612541 -0.01610557 -0.01613966 -0.01622961 -0.01635882 -0.01650795 -0.01666391 -0.01680879
 -0.01693675 -0.01703949 -0.0171156 -0.0171628 -0.01718082 -0.01716924 -0.01712774 -0.01705553 -0.01695649 -0.01682948
 -0.01669381 -0.01655005 -0.01644211 -0.01637326 -0.01640394 -0.01653595 -0.01681547 -0.01723387 -0.01778772 -0.01845375
 -0.01917255 -0.01991939 -0.02061925 -0.02126855 -0.0218272 -0.02231693 -0.02274169 -0.02312511 -0.02348507 -0.02382603
 -0.0241555 -0.02446609 -0.02475624 -0.02502473 -0.02527021 -0.02549916 -0.02571217 -0.02591378 -0.02610441 -0.02628341
 -0.0264507 -0.02660413 -0.02674388 -0.02687017 -0.02698361 -0.02708708 -0.02718067 -0.02726627 -0.02734311 -0.02740989
 -0.02746809 -0.02751746 -0.02756429 -0.02761313 -0.02767127 -0.0277454 -0.02783584 -0.02794658 -0.02806656 -0.0281954
 -0.02831451 -0.02842062 -0.02849965 -0.02854844 -0.0285721 -0.02857033 -0.0285657 -0.0285592 -0.02856952 -0.02859511
 -0.02863319 -0.02868134 -0.02872667 -0.02877107 -0.02881216 -0.02885475 -0.02890797 -0.02897149 -0.02905091 -0.02913774
 -0.02922721 -0.02930989 -0.02937791 -0.02942869 -0.02945774 -0.02947151 -0.02946933 -0.02946481 -0.02945967 -0.02946823
 -0.02949275 -0.02953818 -0.02960535 -0.0296845 -0.02977485 -0.02986022 -0.02994055 -0.03000757 -0.03006279 -0.03010816
 -0.03014505 -0.03017849 -0.03020836 -0.03023674 -0.0302631 -0.03028759 -0.03030969 -0.03032937 -0.03034496 -0.0303556
 -0.03035947 -0.03035496 -0.03034385 -0.03032528 -0.03030638 -0.03028779 -0.03027858 -0.03028005 -0.03029617 -0.03032744
 -0.03037035 -0.03042458 -0.03048391 -0.03054807 -0.03061226 -0.03067628 -0.03073676 -0.03079355 -0.03084402 -0.03088932
 -0.03093032 -0.03096814 -0.03100599 -0.03104028 -0.03106998 -0.03108845 -0.03108935 -0.03107554 -0.031043 -0.03101086
 -0.03098262 -0.03097847 -0.03100466 -0.03106115 -0.03115051 -0.03125059 -0.03136028 -0.03145406 -0.03153114 -0.03157995
 -0.03160202 -0.03160353 -0.03158732 -0.03156893 -0.03155006 -0.03154409 -0.03154956 -0.03157087 -0.03160365 -0.03164436
 -0.03168819 -0.03172921 -0.03176549 -0.03179309 -0.0318154 -0.0318321 -0.03184986 -0.03187088 -0.0318983 -0.03193406
 -0.03197306 -0.03201527 -0.03205238 -0.03208363 -0.03210808 -0.03212598 -0.03214546 -0.03216682 -0.03219676 -0.03223383
 -0.03227541 -0.03231964 -0.0323595 -0.0323951 -0.03242319 -0.032445 -0.03246107 -0.03247183 -0.03247734 -0.03247946
 -0.03247829 -0.03247911 -0.03248394 -0.0324976 -0.0325228 -0.03255783 -0.03260349 -0.0326532 -0.03270626 -0.03275771
 -0.03280709 -0.03285261 -0.03289418 -0.03293054 -0.03296183 -0.03298842 -0.03301122 -0.03303438 -0.03305893 -0.03309057
 -0.03312825 -0.03317351 -0.0332228 -0.03327229 -0.03331834 -0.03335578 -0.03338383 -0.03339973 -0.0334065 -0.03340421
 -0.03339782 -0.03338846 -0.03338139 -0.03337777 -0.03338125 -0.03339262 -0.0334121 -0.0334399 -0.03347267 -0.03351025
 -0.03354911 -0.03358936 -0.03363038 -0.03367253 -0.03371747 -0.0337645 -0.03381312 -0.03386099 -0.03390324 -0.03393811
 -0.03396014 -0.03397171 -0.03397178 -0.03396707 -0.03396147 -0.03396032 -0.0339678 -0.03398309 -0.03400728 -0.03403645
 -0.03406981 -0.03410572 -0.03414384 -0.03418382 -0.03422572 -0.03426715 -0.03430794 -0.03434424 -0.03437608 -0.03440186
 -0.03442208 -0.03443819 -0.03445066 -0.03446145 -0.03447103 -0.03448108 -0.03449222 -0.03450613 -0.03452285 -0.03454371
 -0.03456622 -0.03458977 -0.03461016 -0.03462478 -0.03463326 -0.03463374 -0.03463277 -0.03463101 -0.03463585 -0.03464889
 -0.03466938 -0.0346976 -0.03472711 -0.03475768 -0.03478687 -0.03481503 -0.03484493 -0.03487605 -0.03490777 -0.03493832
 -0.03496144 -0.03497733 -0.03498229 -0.03498009 -0.03497433 -0.03496857 -0.03496839 -0.03497313 -0.03498454 -0.03499947
 -0.03501691 -0.03503445 -0.03505133 -0.03506531 -0.03507587 -0.03508113 -0.03508037 -0.03507628 -0.03506881 -0.0350651
 -0.03506542 -0.03507349 -0.03508871 -0.03510711 -0.03512808 -0.03514618 -0.03516234 -0.03517669 -0.03519006 -0.03520478
 -0.03521965 -0.03523401 -0.03524655 -0.03525514 -0.03526094 -0.03526394 -0.03526583 -0.03526783 -0.03526921 -0.03527017
 -0.03526895 -0.03526491 -0.03525889 -0.03525065 -0.0352437 -0.03523831 -0.03523639 -0.03523792 -0.03523984 -0.03524187
 -0.03523964 -0.03523417 -0.03522763 -0.03522234 -0.03522727 -0.03524214 -0.03527226 -0.03531245 -0.03535799 -0.03540353
 -0.03544083 -0.03547074 -0.03549031 -0.03550508 -0.03551735 -0.03552942 -0.03554304 -0.03555629 -0.03556875 -0.03558053
 -0.0355911 -0.03560588 -0.03562533 -0.03565278 -0.03568821 -0.0357259 -0.03576513 -0.03579633 -0.03582023 -0.03583504
 -0.03584302 -0.03585067 -0.03585858 -0.03587168 -0.03588808 -0.03590701 -0.03592705 -0.03594641 -0.03596449 -0.03598088
 -0.03599351 -0.03600098 -0.0360031 -0.03599845 -0.0359925 -0.03598612 -0.03598408 -0.03598774 -0.03599435 -0.0360039
 -0.03601196 -0.03601844 -0.03602713 -0.03603848 -0.03605928 -0.03608827 -0.03612323 -0.03616133 -0.03619193 -0.03621456
 -0.03622193 -0.03621765 -0.03620346 -0.03618386 -0.03616452 -0.03614685 -0.03613386 -0.0361246 -0.03611909 -0.03611737
 -0.03611943 -0.03612552 -0.03613618 -0.03614858 -0.03616259 -0.03617414 -0.03618279 -0.03618736 -0.0361878 -0.03618544
 -0.03618033 -0.03617312 -0.03616409 -0.03615473 -0.03614578 -0.03614066 -0.03613921 -0.03614312 -0.03615094 -0.03616108
 -0.03617292 -0.03618521 -0.0361978 -0.03621062 -0.03622212 -0.03623126 -0.03623817 -0.03624183 -0.03624684 -0.03625418
 -0.0362666 -0.03628537 -0.03630516 -0.03632579 -0.03633996 -0.03634739 -0.03634771 -0.03634134 -0.03633267 -0.03632177
 -0.03631123 -0.03630061 -0.03628976 -0.03627834 -0.03626556 -0.03625134 -0.03623461 -0.03621716 -0.03619972 -0.03618599
 -0.0361791 -0.03618068 -0.03619356 -0.03621333 -0.03623988 -0.03626602 -0.03628999 -0.03630791 -0.03631863 -0.03632341
 -0.03632214 -0.03631849 -0.03631265 -0.03630746 -0.03630292 -0.03629997 -0.03629868 -0.03629965 -0.03630378 -0.03631401
 -0.03633191 -0.03636248 -0.03640627 -0.03646665 -0.03654245 -0.03663375 -0.03673915 -0.03685714 -0.0369886 -0.03713297
 -0.03729361 -0.03747145 -0.03766922 -0.03788777 -0.03812853 -0.03839231 -0.03867599 -0.0389801 -0.03929082 -0.03960723
 -0.03989824 -0.04016152 -0.04036049 -0.04049452 -0.04054016 -0.04050032 -0.04037067 -0.04015796 -0.03987063 -0.03952498
 -0.03914475 -0.03875549 -0.03839247 -0.03807396 -0.03782468 -0.0376514 -0.0375644 -0.0375623 -0.03765115 -0.03780828
 -0.03803742 -0.03827419 -0.03851166 -0.03868436 -0.03878234 -0.03882399 -0.03881022 -0.03879975 -0.03879215 -0.03879901
 -0.03881715 -0.03883374 -0.03885024 -0.03886666 -0.03888196 -0.03889665 -0.03890196 -0.03888429 -0.03883747 -0.0387472
 -0.03861871 -0.03844836 -0.03825225 -0.03803509 -0.03781825 -0.03761008 -0.03742435 -0.03726723 -0.037137 -0.0370352
 -0.03695074 -0.03688281 -0.03682243 -0.0367691 -0.03671858 -0.03667074 -0.03662301 -0.03657523 -0.03652469 -0.03647186
 -0.03641633 -0.03635986 -0.03630594 -0.0362566 -0.03621712 -0.03618706 -0.03616893 -0.03615864 -0.0361542 -0.03615151
 -0.03614734 -0.03614178 -0.03613374 -0.03612591 -0.03611902 -0.0361134 -0.03610954 -0.03610465 -0.03609857 -0.03608845
 -0.03607413 -0.03605551 -0.03603288 -0.03600949 -0.03598582 -0.03596662 -0.0359515 -0.03594228 -0.03593697 -0.03593197
 -0.03592543 -0.0359121 -0.03589297 -0.03586617 -0.0358361 -0.03580519 -0.03577795 -0.03575779 -0.03574564 -0.03574325
 -0.03574729 -0.03575765 -0.03576935 -0.03578161 -0.03579109 -0.03579734 -0.03579905 -0.03579612 -0.03578867 -0.0357768
 -0.03576199 -0.03574448 -0.03572654 -0.03570813 -0.03569043 -0.03567327 -0.03565667 -0.03564082 -0.0356261 -0.03561258
 -0.03560083 -0.03558974 -0.03557897 -0.03556653 -0.03555106 -0.03553212 -0.0355086 -0.03548347 -0.03545671 -0.03543396
 -0.03541623 -0.03540651 -0.03540561 -0.03540884 -0.035416 -0.03541806 -0.03541499 -0.03540356 -0.0353848 -0.03536326
 -0.03533942 -0.03531758 -0.03529716 -0.03527831 -0.03526181 -0.0352484 -0.03524041 -0.03524148 -0.03525087 -0.0352705
 -0.0352948 -0.03532181 -0.03534558 -0.03536314 -0.03537269 -0.03537266 -0.03536606 -0.0353528 -0.0353383 -0.0353231
 -0.03531089 -0.0353019 -0.03529433 -0.03528784 -0.03527717 -0.03526255 -0.03524224 -0.03521784 -0.03519406 -0.03517237
 -0.03515909 -0.03515378 -0.03515925 -0.03517261 -0.03519235 -0.03521391 -0.03523334 -0.03524719 -0.03525176 -0.0352485
 -0.03523594 -0.03522125 -0.03520562 -0.03519607 -0.03519464 -0.0351997 -0.03521189 -0.03522083 -0.03522597 -0.03521892
 -0.03520013 -0.03517367 -0.03514132 -0.03511659 -0.03509953 -0.03509887 -0.0351107 -0.03513046 -0.03515339 -0.03516824
 -0.03517582 -0.03517079 -0.03516093 -0.0351504 -0.03514608 -0.03515473 -0.03517292 -0.03520273 -0.035232 -0.03525819
 -0.03527199 -0.03527059 -0.03525579 -0.03522695 -0.03519373 -0.03515664 -0.03512397 -0.03509584 -0.03507547 -0.03506251
 -0.03505653 -0.03505691 -0.03506149 -0.03506924 -0.03507651 -0.03508277 -0.0350849 -0.03508447 -0.03508196 -0.03507923
 -0.03507872 -0.03507899 -0.0350805 -0.03507956 -0.03507412 -0.03506512 -0.03505155 -0.03503972 -0.03503073 -0.03502784
 -0.03503195 -0.03503836 -0.03504685 -0.03505138 -0.03505201 -0.03504858 -0.03504163 -0.03503465 -0.03502762 -0.03502249
 -0.03501874 -0.03501594 -0.03501396 -0.03501208 -0.03501117 -0.03501186 -0.03501502 -0.03502224 -0.03503182 -0.03504423
 -0.03505435 -0.0350605 -0.03505841 -0.0350458 -0.03502509 -0.03499557 -0.03496571 -0.03493625 -0.03491416 -0.03489996
 -0.03489333 -0.03489393 -0.03489583 -0.03489891 -0.0348993 -0.03489808 -0.03489744 -0.03489836 -0.03490505 -0.03491615
 -0.03493151 -0.03494889 -0.03496511 -0.03498006 -0.03499237 -0.03500323 -0.03501366 -0.03502182 -0.03502767 -0.03502776
 -0.03502051 -0.0350073 -0.03498727 -0.03496844 -0.03495136 -0.03494478 -0.03494933 -0.03496541 -0.03499239 -0.03501955
 -0.03504579 -0.03505759 -0.03505609 -0.03503751 -0.03500574 -0.03496875 -0.03492936 -0.03489693 -0.03487028 -0.03485211
 -0.03483925 -0.03482968 -0.03482174 -0.03481345 -0.03480584 -0.03479857 -0.03479397 -0.03479262 -0.03479597 -0.03480474
 -0.03481686 -0.03483245 -0.0348468 -0.03485964 -0.03486696 -0.03486872 -0.03486413 -0.03485371 -0.03484052 -0.03482554
 -0.03481445 -0.03480741 -0.03480856 -0.03481547 -0.03482632 -0.03483753 -0.03484331 -0.03484334 -0.03483434 -0.03482049
 -0.03480288 -0.03478655 -0.03477403 -0.03476726 -0.03476775 -0.03477345 -0.03478461 -0.03479642 -0.03480851 -0.03481571
 -0.03481764 -0.03481207 -0.0347991 -0.03478056 -0.03475708 -0.03473395 -0.03471177 -0.03469624 -0.0346864 -0.03468339
 -0.0346844 -0.03468488 -0.03468294 -0.03467369 -0.03465861 -0.0346368 -0.03461155 -0.03458439 -0.03455824 -0.03453434
 -0.03451553 -0.03450291 -0.03449754 -0.03450044 -0.03450714 -0.03451756 -0.03452448 -0.03452737 -0.03452314 -0.03451188
 -0.03449576 -0.03447494 -0.03445161 -0.03442563 -0.0343973 -0.03436715 -0.03433631 -0.03430636 -0.03428051 -0.03426035
 -0.03424978 -0.03424785 -0.03425616 -0.0342698 -0.03428715 -0.0343014 -0.0343092 -0.03430713 -0.03429276 -0.03426908
 -0.03423556 -0.03419999 -0.03416307 -0.03413203 -0.03410747 -0.03409112 -0.0340828 -0.03407832 -0.03407733 -0.03407499
 -0.03407201 -0.03406866 -0.03406605 -0.03406788 -0.03407349 -0.03408406 -0.0340968 -0.03410905 -0.03411751 -0.03411817
 -0.03410976 -0.03408947 -0.03406046 -0.03402244 -0.03398222 -0.03394168 -0.03390531 -0.03387449 -0.03384964 -0.03383098
 -0.03381832 -0.03381167 -0.03381155 -0.03381784 -0.03382805 -0.03384158 -0.03385261 -0.03386069 -0.03386051 -0.03385286
 -0.03383664 -0.03381402 -0.03378829 -0.03376174 -0.03373932 -0.03372037 -0.03370697 -0.03369484 -0.03368178 -0.0336653
 -0.03364285 -0.03361752 -0.03358946 -0.03356262 -0.03353816 -0.03351565 -0.03349531 -0.03347478 -0.03345389 -0.03343308
 -0.03341246 -0.03339442 -0.03337885 -0.0333663 -0.03335594 -0.03334467 -0.0333317 -0.03331291 -0.03328873 -0.0332576
 -0.03322144 -0.0331822 -0.03314114 -0.03310029 -0.03305941 -0.03301845 -0.03297866 -0.03293983 -0.03290584 -0.03287808
 -0.0328576 -0.03284546 -0.03283736 -0.032833 -0.0328281 -0.03282224 -0.03281591 -0.03280922 -0.03280517 -0.03280357
 -0.0328047 -0.03280756 -0.03280811 -0.03280521 -0.03279325 -0.03277254 -0.03274005 -0.03269932 -0.03265336 -0.03260615
 -0.03256292 -0.03252419 -0.03249239 -0.032465 -0.03244176 -0.03241959 -0.03239768 -0.03237324 -0.03234544 -0.03231368
 -0.03227748 -0.03224004 -0.03220143 -0.03216828 -0.03214092 -0.03212562 -0.03212206 -0.03213147 -0.03215145 -0.03217291
 -0.03219235 -0.03219385 -0.03217882 -0.03214047 -0.03208686 -0.03202596 -0.03196387 -0.0319101 -0.03186413 -0.03182929
 -0.03180052 -0.03177689 -0.03175241 -0.03172503 -0.03169145 -0.03165004 -0.03160354 -0.03155177 -0.03150107 -0.03145197
 -0.03140627 -0.03136389 -0.03132204 -0.03128084 -0.03124017 -0.0312006 -0.03116506 -0.03113291 -0.03110432 -0.03107728
 -0.03104779 -0.03101491 -0.03097485 -0.03093008 -0.03088079 -0.03083162 -0.03078591 -0.03074553 -0.03071336 -0.03068472
 -0.03065959 -0.03062999 -0.03059392 -0.03054876 -0.03049317 -0.03043426 -0.03037231 -0.03031677 -0.03026784 -0.03022669
 -0.03019215 -0.0301549 -0.03011369 -0.03005668 -0.02998613 -0.02990123 -0.0298074 -0.02971549 -0.02962762 -0.02955251
 -0.02948656 -0.02943004 -0.02937762 -0.02932549 -0.02927173 -0.02921376 -0.02915461 -0.02909417 -0.02903778 -0.02898678
 -0.02894314 -0.02890833 -0.02887264 -0.02883583 -0.02877948 -0.02870308 -0.02860207 -0.02847823 -0.02834545 -0.02820473
 -0.02806839 -0.02793521 -0.02780816 -0.02768536 -0.0275649 -0.02744443 -0.0273197 -0.02718993 -0.02705177 -0.02690879
 -0.02676257 -0.02661529 -0.02647061 -0.02631985 -0.02616204 -0.02598541 -0.02578523 -0.02556855 -0.02533445 -0.02510241
 -0.02487413 -0.02465582 -0.02444755 -0.02424498 -0.02404834 -0.02385834 -0.02367515 -0.02350143 -0.02333402 -0.02316551
 -0.0229919 -0.02279908 -0.02259191 -0.0223691 -0.02214217 -0.02192374 -0.02171533 -0.02152375 -0.02134057 -0.02116363
 -0.02098628 -0.02080537 -0.02062061 -0.02043206 -0.02023668 -0.02003559 -0.01981114 -0.01956213 -0.01927255 -0.01894262
 -0.01859466 -0.01823104 -0.01788459 -0.01755184 -0.01723362 -0.01692486 -0.01661053 -0.01628887 -0.01594954 -0.01559181
 -0.01521207 -0.01480523 -0.01436802 -0.01388745 -0.01335535 -0.01275792 -0.01208154 -0.01134019 -0.01052824 -0.009694512
 -0.008847368 -0.008026235 -0.007238816 -0.006494459 -0.005795157 -0.005130752 -0.004500175 -0.003872865 -0.00324495 -0.002564248
 -0.001834403 -0.001036608 -0.000194979 0.0006214712 0.001406908 0.002107223 0.002750384 0.003354868 0.003941049 0.004539442
 0.005149312 0.005779197 0.006424654 0.007084464 0.007759904 0.008454795 0.009151987 0.009850543 0.01052386 0.01116592
 0.01178264 0.01237355 0.01295801 0.01353615 0.01409004 0.01461678 0.01507914 0.01547981 0.01581129 0.0160811
 0.01630892 0.01649881 0.01666921 0.01681927 0.01695358 0.01707589 0.01718995 0.01730344 0.01742503 0.01755126
 0.01768586 0.01781165 0.01792388 0.01801052 0.01806682 0.01809504 0.01809425 0.0180735 0.01803336 0.01798237
 0.01792088 0.01785109 0.01777252 0.01768114 0.01757633 0.01745252 0.01731032 0.01714664 0.01696705 0.01677941
 0.01659437 0.01643156 0.01629548 0.01619973 0.0161391 0.01611316 0.0161198 0.016157 0.01622727 0.01633203
 0.01646816 0.01663545 0.01682962 0.01704934 0.01729877 0.01757825 0.01788959 0.0182327 0.01859798 0.01898484
 0.01938338 0.01979448 0.02021793 0.0206543 0.02110559 0.0215713 0.0220508 0.0225449 0.0230546 0.0235803
 0.02412367 0.02468187 0.02525373 0.0258359 0.02642662 0.02702329 0.02762554 0.0282281 0.02883058 0.02942449
 0.03000909 0.03057409 0.03111854 0.03163549 0.03212479 0.03259451 0.03304625 0.03350195 0.03395897 0.03441877
 0.03487052 0.03527841 0.035639 0.03592504 0.03614409 0.03629663 0.03638745 0.03642062 0.0364026 0.03633776
 0.0362353 0.03610589 0.03593474 0.0357281 0.03542961 0.03502556 0.03448723 0.03379561 0.03305927 0.0322858
 0.03156057 0.0308866 0.03021839 0.02955271 0.02883922 0.02808164 0.02727446 0.02642184 0.02553871 0.02461655
 0.02364969 0.02261497 0.02146422 0.02021299 0.01883085 0.01742749 0.01608065 0.01483943 0.01377172 0.01279849
 0.01190546 0.01103638 0.01016872 0.009315833 0.008475601 0.007674282 0.006915491 0.006189058 0.005494399 0.0048056
 0.00412319 0.003444172 0.002771408 0.002120388 0.001489434 0.0008813977 0.0002925705 -0.0002855441 -0.0008509969 -0.00140419
 -0.001943589 -0.00246472 -0.002976191 -0.003478739 -0.003993465 -0.004531503 -0.005105819 -0.005735711 -0.006367351 -0.006998268
 -0.007545476 -0.007988186 -0.008346418 -0.008617635 -0.008867827 -0.009100074 -0.009341969 -0.00959157 -0.009835017 -0.01007047
 -0.01027927 -0.01046549 -0.01063438 -0.01078718 -0.01093274 -0.01106169 -0.01116389 -0.0112304 -0.01124424 -0.01121195
 -0.01113154 -0.01101486 -0.0108688 -0.0106958 -0.01049958 -0.01027393 -0.01002012 -0.009721375 -0.009377752 -0.008955998
 -0.008452597 -0.007849489 -0.007146204 -0.006405873 -0.005634919 -0.00493203 -0.004293549 -0.003750401 -0.003292691 -0.00290256
 -0.002575698 -0.002295512 -0.002057081 -0.001850079 -0.001658838 -0.001466359 -0.001250047 -0.0009830552 -0.0006685205 -0.0002912527
 0.0001024309 0.0004977649 0.0008698845 0.001205629 0.001521431 0.001817645 0.00211184 0.002406174 0.002703348 0.003003566
 0.003302907 0.003601542 0.003900057 0.004199586 0.004506674 0.004822514 0.005155197 0.005503875 0.005871463 0.006254484
 0.006647765 0.007051448 0.007462118 0.007885677 0.008326511 0.008785545 0.009266817 0.009760546 0.0102646 0.01076951
 0.0112716 0.01177171 0.0122696 0.0127667 0.01326435 0.01374462 0.0142065 0.01461136 0.01495782 0.01521759
 0.01539253 0.01547938 0.01547918 0.01539447 0.01522314 0.014961 0.01460737 0.01415691 0.01361662 0.01298925
 0.01229 0.01153012 0.01072377 0.009882596 0.009008813 0.008105813 0.007171758 0.006202601 0.005220435 0.00422409
 0.003263931 0.002344856 0.001498473 0.00072668 1.729329E-05 -0.0006312984 -0.001243745 -0.001819334 -0.002366274 -0.002882371
 -0.003362919 -0.003809534 -0.00422208 -0.004606749 -0.004972775 -0.005326652 -0.005679321 -0.006033967 -0.006397583 -0.006767364
 -0.007145369 -0.007521924 -0.007894815 -0.008253216 -0.008592944 -0.008913902 -0.009213997 -0.009506764 -0.009793131 -0.01008643
 -0.01038745 -0.01068975 -0.01099153 -0.01126663 -0.01151417 -0.0117141 -0.01187031 -0.01198571 -0.01206497 -0.01212103
 -0.0121553 -0.01217623 -0.01218231 -0.01217495 -0.01215254 -0.01211311 -0.01205949 -0.01199073 -0.01191665 -0.0118394
 -0.01177136 -0.01171559 -0.01168195 -0.0116726 -0.01169233 -0.01174229 -0.01181831 -0.01192025 -0.01203391 -0.01215861
 -0.01228167 -0.01240334 -0.01251931 -0.01262902 -0.01272888 -0.01281651 -0.01288368 -0.01293042 -0.01295149 -0.0129521
 -0.01293537 -0.01290815 -0.01287684 -0.01284576 -0.01281927 -0.0127979 -0.01278361 -0.01277226 -0.01276346 -0.01275229
 -0.01273737 -0.01271984 -0.01269928 -0.01268255 -0.01267003 -0.01266504 -0.01266733 -0.01267357 -0.01268345 -0.01269341
 -0.01270383 -0.01271419 -0.01272517 -0.01273771 -0.01275338 -0.01277494 -0.01280424 -0.01284545 -0.01289663 -0.01295886
 -0.01302587 -0.01309417 -0.01316075 -0.01322227 -0.01328407 -0.01334665 -0.01341604 -0.01349444 -0.01357674 -0.01366333
 -0.01374005 -0.01380608 -0.01385195 -0.01387799 -0.01388734 -0.01388116 -0.0138688 -0.01384996 -0.01382919 -0.01380388
 -0.01377029 -0.01372548 -0.01366226 -0.01358054 -0.01347593 -0.01335378 -0.0132155 -0.01307043 -0.01292378 -0.01278282
 -0.01265197 -0.01253266 -0.0124265 -0.01233123 -0.01224704 -0.01216972 -0.01209907 -0.01202917 -0.01195965 -0.0118871
 -0.0118118 -0.01173762 -0.0116655 -0.01160371 -0.01155217 -0.01151541 -0.01149163 -0.01147901 -0.01147499 -0.01147446
 -0.01147549 -0.01147338 -0.01146851 -0.01145885 -0.01144803 -0.01143677 -0.01143062 -0.01143152 -0.01144465 -0.01147191
 -0.01151525 -0.01157585 -0.01164999 -0.01173773 -0.01183154 -0.01193094 -0.01203089 -0.01213133 -0.01223154 -0.01233134
 -0.01242941 -0.01252499 -0.01261411 -0.01269709 -0.01277223 -0.01284141 -0.0129073 -0.01297075 -0.0130345 -0.01309669
 -0.01315709 -0.01321275 -0.0132618 -0.01330282 -0.01333417 -0.01335817 -0.01337466 -0.01338825 -0.01339998 -0.01341102
 -0.013422 -0.01342794 -0.01342859 -0.01341776 -0.01339538 -0.01335998 -0.01331202 -0.01325374 -0.01318569 -0.01311122
 -0.01303043 -0.01294606 -0.0128561 -0.01275949 -0.01265104 -0.0125243 -0.01237485 -0.01219558 -0.01198854 -0.01175096
 -0.01149287 -0.01121649 -0.01093374 -0.01064867 -0.01036625 -0.01008893 -0.00981125 -0.009533023 -0.009247366 -0.008953704
 -0.008655569 -0.008353517 -0.008058268 -0.007769501 -0.007491015 -0.007220286 -0.006949633 -0.006676489 -0.006389402 -0.006089664
 -0.005772095 -0.005444888 -0.005114451 -0.004792068 -0.004491215 -0.004212908 -0.003965226 -0.003732401 -0.003510829 -0.003284676
 -0.003046333 -0.002800706 -0.002545577 -0.002301013 -0.002069096 -0.001862989 -0.001683925 -0.001525917 -0.001387856 -0.001249364
 -0.001109009 -0.0009461793 -0.0007622546 -0.0005507037 -0.0003159384 -6.605629E-05 0.0001955085 0.0004587579 0.0007226058 0.0009823416
 0.00123618 0.001481397 0.00171593 0.001937249 0.002146509 0.002343158 0.002530331 0.002708617 0.002881007 0.003047874
 0.003213068 0.003377289 0.003540495 0.003702865 0.003856869 0.00400234 0.004135471 0.004257741 0.004378377 0.004498235
 0.004626544 0.004761162 0.004900401 0.005043815 0.005188854 0.005338345 0.005495999 0.005660477 0.005833794 0.006008093
 0.006179846 0.006341313 0.006488204 0.006617365 0.006725723 0.006819331 0.00689717 0.006976245 0.007058375 0.007155917
 0.007270164 0.007392809 0.007522963 0.007642366 0.007751164 0.007841474 0.007915355 0.007976526 0.008027775 0.008077799
 0.008129618 0.008194325 0.008269082 0.008358403 0.008447914 0.008528408 0.008583134 0.008597836 0.008568647 0.008488157
 0.008367184 0.008204889 0.008022743 0.007822654 0.007632861 0.007456741 0.007314426 0.007207941 0.007131867 0.007085113
 0.007044046 0.007007959 0.006959724 0.006901878 0.006835432 0.006764079 0.00669916 0.006640684 0.006596098 0.006558239
 0.006521937 0.0064782 0.006414967 0.006334366 0.006231452 0.006120078 0.006004824 0.005896007 0.00579886 0.005711681
 0.005636166 0.005561627 0.005487878 0.005397118 0.005288093 0.005147967 0.004977263 0.004789864 0.004589065 0.004408169
 0.004246155 0.004118526 0.004017431 0.003928793 0.003847488 0.003756265 0.003656358 0.003543339 0.003416718 0.003275858
 0.003116358 0.002934799 0.002730225 0.002500039 0.002250137 0.001980206 0.001702494 0.001418366 0.001142515 0.0008771055
 0.0006288193 0.0003985093 0.0001813313 -2.299607E-05 -0.0002202021 -0.0004103204 -0.0005952024 -0.0007762259 -0.0009599761 -0.001148621
 -0.001352697 -0.001570655 -0.001805271 -0.002052302 -0.002306793 -0.00256707 -0.002829517 -0.003094833 -0.003362545 -0.003633182
 -0.003907127 -0.004183738 -0.004463757 -0.004742271 -0.00501912 -0.005285931 -0.005541198 -0.00578434 -0.006014921 -0.006243123
 -0.006469275 -0.006699046 -0.006931262 -0.007158671 -0.007380498 -0.007588962 -0.00778548 -0.007970513 -0.008144512 -0.008309383
 -0.008462882 -0.008602635 -0.008727313 -0.008833205 -0.008925176 -0.009002802 -0.009078862 -0.009158322 -0.009251916 -0.009366454
 -0.009494202 -0.009637004 -0.009771956 -0.009896071 -0.009997411 -0.01007439 -0.01013617 -0.01018328 -0.010227 -0.01026694
 -0.01030421 -0.01033878 -0.01037087 -0.01040154 -0.01043444 -0.01046945 -0.01050777 -0.01054969 -0.01059564 -0.01064722
 -0.0107077 -0.01077292 -0.01084353 -0.01090757 -0.01096027 -0.01099216 -0.0109983 -0.01097955 -0.01093427 -0.01087086
 -0.01078951 -0.01070287 -0.01061167 -0.01053012 -0.01045873 -0.01040516 -0.01036863 -0.01034632 -0.01033699 -0.01033348
 -0.0103356 -0.01033898 -0.0103444 -0.01035158 -0.0103605 -0.01037187 -0.01038308 -0.01039202 -0.01039647 -0.01039256
 -0.01038578 -0.01037649 -0.01037422 -0.01038414 -0.01040153 -0.01042924 -0.01044269 -0.01043956 -0.01039738 -0.01031372
 -0.01018996 -0.01002678 -0.009845483 -0.009647913 -0.00945902 -0.009279135 -0.009123987 -0.008990722 -0.008879955 -0.008787123
 -0.008703095 -0.008625925 -0.008548617 -0.008472285 -0.008395892 -0.0083197 -0.00824377 -0.008167688 -0.008090927 -0.00801473
 -0.007939555 -0.007865436 -0.007792821 -0.007719023 -0.007643518 -0.007566539 -0.007487837 -0.00741357 -0.007344126 -0.007287917
 -0.007245029 -0.007220795 -0.007213235 -0.007217721 -0.007228742 -0.007228007 -0.007210709 -0.007155992 -0.007068711 -0.006943561
 -0.006796012 -0.00663859 -0.006484298 -0.006347654 -0.006227585 -0.006128982 -0.006040822 -0.005960578 -0.005880505 -0.005797938
 -0.005712962 -0.005625271 -0.005535772 -0.005444671 -0.005348337 -0.005246673 -0.005138538 -0.005025022 -0.004915683 -0.004811598
 -0.004724919 -0.004651773 -0.004588733 -0.004527422 -0.004447757 -0.00434798 -0.004212307 -0.004056098 -0.003885597 -0.003723444
 -0.003589511 -0.003487926 -0.003430929 -0.003394902 -0.00337662 -0.003349212 -0.003304564 -0.003238623 -0.003148237 -0.003048904
 -0.002941319 -0.002843362 -0.002755839 -0.002690406 -0.002646499 -0.00262491 -0.002622669 -0.002626415 -0.0026328 -0.002623745
 -0.002600113 -0.002553608 -0.002490062 -0.002413401 -0.002331034 -0.002251892 -0.002180036 -0.002123678 -0.002074328 -0.002033123
 -0.001980166 -0.001908184 -0.00180935 -0.001676966 -0.00153258 -0.001376913 -0.00123999 -0.001124919 -0.00103784 -0.0009786261
 -0.0009292545 -0.0008886483 -0.0008388745 -0.0007814175 -0.0007138974 -0.0006389486 -0.0005643764 -0.0004894707 -0.000417379 -0.0003442872
 -0.0002642958 -0.0001795854 -8.739436E-05 8.553982E-07 7.679994E-05 0.0001371556 0.0001744222 0.0002040906 0.0002299668 0.0002624139
 0.0003077933 0.0003491533 0.0003856366 0.0003965935 0.0003790665 0.0003445345 0.0002940174 0.000264205 0.00025571 0.0002908394
 0.0003640778 0.0004604896 0.0005728918 0.0006681003 0.0007497353 0.0008055525 0.0008515413 0.000907169 0.0009807351 0.001093062
 0.001230292 0.001391248 0.001556063 0.001713846 0.001856555 0.00197967 0.002078444 0.002151109 0.002194706 0.002206655
 0.002203452 0.002185562 0.002180512 0.002189351 0.002216571 0.002260321 0.002302022 0.002342251 0.002372718 0.00239901
 0.002434324 0.002483537 0.002565266 0.002676622 0.002825081 0.002995677 0.003177401 0.003353859 0.003505918 0.003639169
 0.003747399 0.003854618 0.003969668 0.004098871 0.004248518 0.004398617 0.00454698 0.004680058 0.004795854 0.004899713
 0.004991875 0.005078929 0.005161087 0.00524244 0.00532348 0.005409694 0.005500054 0.005594209 0.005690827 0.00578596
 0.005881226 0.005979309 0.00607604 0.006171681 0.006251283 0.00630259 0.006321374 0.006296348 0.006251731 0.006190318
 0.00614465 0.006123573 0.006141128 0.006202483 0.006297022 0.006425522 0.006555506 0.006685297 0.006782972 0.006850435
 0.006895735 0.006924873 0.006977002 0.007048973 0.007153841 0.007279119 0.007401053 0.007517748 0.007612674 0.007697348
 0.007777444 0.007863644 0.007964298 0.008089685 0.008247588 0.008441526 0.008681402 0.008933474 0.009193258 0.009426077
 0.009622344 0.009798015 0.009954143 0.01009672 0.01022569 0.01031003 0.01034953 0.01032832 0.01025363 0.01015738
 0.01004382 0.009946149 0.009858448 0.009782405 0.009715023 0.009651548 0.009593107 0.009540161 0.009490739 0.009442324
 0.009397825 0.009357522 0.009326106 0.009307781 0.009293168 0.009281077 0.00926237 0.009233772 0.009206063 0.009180157
 0.00916117 0.009149178 0.009123737 0.009084308 0.009016328 0.008923751 0.008820156 0.00871064 0.008618641 0.008547967
 0.008520434 0.008532288 0.008597303 0.008681618 0.008760441 0.008787783 0.008708013 0.008542281 0.008271933 0.007981037
 0.007697248 0.007467031 0.007310541 0.007222787 0.007204913 0.007257029 0.007380394 0.007558072 0.007788864 0.008009752
 0.008219037 0.008374958 0.008484024 0.008562688 0.008614404 0.008660238 0.008697464 0.008727308 0.008753697 0.008782996
 0.008819434 0.008872927 0.008936412 0.009008613 0.009080327 0.009145387 0.009202393 0.009248095 0.009289291 0.009324485
 0.009374254 0.009441335 0.009543004 0.009683156 0.009838835 0.01000884 0.01014712 0.01025395 0.01031927 0.01034748
 0.01036074 0.01035715 0.01034153 0.01031008 0.01025272 0.0101766 0.01008707 0.009995114 0.009914514 0.009853319
 0.009820962 0.009824779 0.009875398 0.009959042 0.01007969 0.0101947 0.01029325 0.01035366 0.01036669 0.0103594
 0.01033316 0.01031477 0.01030566 0.01029932 0.01029481 0.01027845 0.01025044 0.01020428 0.01014263 0.01006761
 0.009989795 0.009936683 0.009911066 0.009941444 0.009992643 0.01004125 0.01004381 0.009946042 0.009768918 0.009495765
 0.009203 0.00891715 0.008679137 0.008511148 0.008388367 0.008311986 0.008242522 0.008175621 0.008095034 0.007999704
 0.007904049 0.007810193 0.007751411 0.00772612 0.007745524 0.007799099 0.007855074 0.007906344 0.007916616 0.007894165
 0.007835547 0.007752096 0.007656173 0.007552763 0.007447362 0.007349765 0.007265036 0.007205081 0.007176774 0.007180435
 0.007219952 0.007279667 0.007360978 0.00742575 0.007471829 0.0074493 0.007355236</values></Ydata></AB><ScSm><Ydata ylabel="Single channel"><values byteorder="INTEL" format="FLOAT32" numvalues="1814"> 0.06715535 0.06716381 0.06723592 0.06739411 0.06760873 0.06781414 0.06795357 0.06801654 0.06802614 0.06799674
 0.06793536 0.06788585 0.06792507 0.06808783 0.06831427 0.06848814 0.06852938 0.0684661 0.06842095 0.06849157
 0.06861915 0.06860383 0.06829189 0.06775017 0.06722362 0.06690978 0.06683554 0.06699809 0.06748413 0.06823684
 0.06879488 0.0686217 0.06777878 0.06695738 0.06671003 0.06691759 0.06711371 0.06702371 0.06665192 0.06617392
 0.06597716 0.06655401 0.06801723 0.06970538 0.07042302 0.06919383 0.06595765 0.06179058 0.05850661 0.05768351
 0.0595515 0.0626802 0.0650505 0.06566247 0.06501469 0.06408463 0.06327734 0.06254721 0.06207811 0.06232617
 0.06339008 0.06458011 0.06477192 0.06336941 0.06101462 0.05913193 0.0586267 0.0593169 0.06069709 0.06249169
 0.0638803 0.06305453 0.05899693 0.05373411 0.05143163 0.05443039 0.06074759 0.06601834 0.06738086 0.06507862
 0.06118741 0.05789427 0.05667496 0.05789939 0.0607678 0.06397533 0.06650229 0.06765748 0.06690246 0.06432131
 0.0610804 0.05886149 0.0588269 0.06116429 0.06504899 0.06871849 0.07027219 0.0690756 0.06618385 0.0632279
 0.0613394 0.0611535 0.06297244 0.06645197 0.07057999 0.07425997 0.07675445 0.07776283 0.07749202 0.07652648
 0.07538006 0.07440379 0.07409383 0.07478841 0.07585853 0.07594731 0.07444879 0.07232196 0.07110596 0.07133003
 0.07209064 0.07214659 0.07117377 0.06956901 0.06722522 0.06349814 0.05869107 0.05445936 0.05215619 0.05179671
 0.05304158 0.05573062 0.058728 0.0598518 0.05826296 0.05599062 0.05592044 0.05871824 0.06248794 0.06508569
 0.06610222 0.06671754 0.06817993 0.07052787 0.0724237 0.07216066 0.06935741 0.06591541 0.06467584 0.0666296
 0.0699635 0.07229012 0.07316456 0.07382452 0.07502753 0.07588124 0.07477602 0.07130109 0.06727695 0.06562902
 0.06783415 0.07243851 0.07611293 0.07611543 0.07213607 0.06636702 0.06179549 0.06013599 0.0613728 0.06490289
 0.07019868 0.07620721 0.0810766 0.08319335 0.08235484 0.0796794 0.07632709 0.07242328 0.0676696 0.06313995
 0.06150104 0.06449359 0.0707078 0.07676063 0.0803159 0.08124761 0.08032186 0.07775544 0.07343694 0.06832509
 0.06490938 0.06527892 0.06860951 0.07162806 0.07204086 0.07062642 0.06955525 0.06967969 0.07021351 0.07040054
 0.07059777 0.07167047 0.07375629 0.07593603 0.07712272 0.07705075 0.07632375 0.0757096 0.07543945 0.07504049
 0.07400326 0.07280194 0.07282966 0.0748717 0.07802463 0.08062549 0.08191873 0.08232615 0.08233108 0.08162788
 0.07956306 0.07636279 0.07363182 0.07316193 0.07520005 0.07829615 0.08081103 0.08209158 0.08231813 0.08191852
 0.08127853 0.08061318 0.08002524 0.07977356 0.08021092 0.08128061 0.08239892 0.08303857 0.08316142 0.08295971
 0.08248171 0.08170396 0.08079676 0.08013073 0.0800121 0.08045422 0.08121741 0.08202071 0.08264347 0.08289436
 0.08268101 0.08214916 0.08159532 0.08119947 0.08096345 0.08089666 0.08108131 0.08150902 0.08199652 0.08233776
 0.08246787 0.08244094 0.08231614 0.08211471 0.08185722 0.08160805 0.08147539 0.08153741 0.08174714 0.08196089
 0.08210526 0.08225222 0.08246349 0.08263649 0.08260942 0.08237874 0.08211544 0.08198017 0.08199327 0.08207422
 0.08213228 0.08208811 0.08186507 0.08145308 0.08100258 0.080772 0.08091885 0.08137954 0.08196993 0.08252577
 0.08292933 0.08311701 0.08312693 0.08306732 0.08299315 0.08286387 0.08264278 0.08239688 0.08227741 0.0824024
 0.08274849 0.08316404 0.08349684 0.08368955 0.08376479 0.08378792 0.0838497 0.08399829 0.08416213 0.08421311
 0.08412793 0.08402643 0.08403125 0.08413355 0.0842153 0.08418635 0.08408669 0.08404576 0.08414266 0.08433133
 0.08451295 0.0846499 0.0847835 0.08495224 0.08511205 0.0851555 0.08502929 0.08481689 0.08466155 0.08461739
 0.08463231 0.08466946 0.08476733 0.08495364 0.08516179 0.08528374 0.08528927 0.08525449 0.08526565 0.08531795
 0.08532874 0.08523978 0.08508094 0.08493423 0.08486041 0.08486501 0.08491201 0.0849532 0.08495267 0.08490008
 0.08480904 0.08470143 0.08459299 0.08450162 0.08446815 0.08454209 0.08471839 0.08489691 0.08494101 0.08479764
 0.08455218 0.08435133 0.08426872 0.08424949 0.08418465 0.0840259 0.08381869 0.08363768 0.08351534 0.08343332
 0.08335936 0.08328125 0.08322136 0.08322905 0.08333813 0.08350997 0.08363461 0.08362004 0.08348021 0.08331493
 0.08321178 0.08318852 0.08321334 0.08324863 0.08328365 0.0833446 0.08345553 0.0835799 0.0836388 0.08360553
 0.08354448 0.08354217 0.08363756 0.08382051 0.08404237 0.08421851 0.08428057 0.08425088 0.08422624 0.08427373
 0.08437616 0.08448556 0.08458801 0.08469714 0.08481766 0.08494622 0.08509639 0.08529709 0.08556169 0.08586569
 0.08615467 0.08637728 0.08652642 0.08665784 0.08685469 0.08715734 0.08752698 0.08788276 0.08817226 0.08840645
 0.08863099 0.08887099 0.0891142 0.08935231 0.08961677 0.08994719 0.09033427 0.0907246 0.09108041 0.09140939
 0.09173747 0.0920759 0.0924198 0.09276839 0.09314017 0.09355823 0.09400801 0.09442282 0.09473727 0.0949557
 0.09515263 0.09541163 0.09576786 0.09618352 0.0965615 0.0968171 0.09696734 0.09712523 0.09737598 0.09768645
 0.09797135 0.09822141 0.09851404 0.09890074 0.09933132 0.09970705 0.09998427 0.1002071 0.1004466 0.1007217
 0.1009834 0.1011742 0.1012964 0.1014091 0.1015613 0.1017575 0.1019958 0.1023026 0.1026937 0.1031222
 0.1035063 0.1038003 0.1040132 0.1041742 0.1043099 0.1044412 0.1045718 0.1046912 0.1048034 0.1049283
 0.1050604 0.1051637 0.1052298 0.1053083 0.1054519 0.1056636 0.1059222 0.1062239 0.1065623 0.1068976
 0.1071962 0.1074914 0.1078504 0.1082691 0.108645 0.1088843 0.1089995 0.1090696 0.10914 0.1092153
 0.1093257 0.1095305 0.1098478 0.1102274 0.1106087 0.1109726 0.1113303 0.1116815 0.1119992 0.1122434
 0.1123894 0.1124507 0.1124784 0.1125388 0.1126837 0.1129248 0.1132227 0.1135092 0.1137316 0.113871
 0.1139192 0.1138701 0.1137559 0.1136601 0.1136494 0.1136931 0.113678 0.1135041 0.1131452 0.1126245
 0.1119675 0.111198 0.1103646 0.1095484 0.1088364 0.108288 0.1079331 0.1078018 0.1079362 0.1083509
 0.1089822 0.1096992 0.1103705 0.1108962 0.1111815 0.1111325 0.1107163 0.1100067 0.1091436 0.108256
 0.1074251 0.1066814 0.1060089 0.1053809 0.1048363 0.1045165 0.1046047 0.1052253 0.1063879 0.1079876
 0.1098291 0.1116765 0.1133375 0.1147332 0.1158954 0.1168985 0.1178017 0.1186456 0.1194674 0.1202839
 0.1210682 0.1217732 0.122384 0.1229271 0.1234294 0.1238903 0.1242911 0.1246165 0.1248676 0.1250654
 0.1252318 0.1253594 0.1254184 0.1254042 0.1253574 0.1253178 0.1252723 0.1251601 0.1249178 0.1245199
 0.124008 0.1235144 0.1232529 0.1234471 0.1242223 0.1255357 0.1272031 0.1289982 0.1307327 0.1322703
 0.1335173 0.1344434 0.1351012 0.1355948 0.1360174 0.1364223 0.1368313 0.137247 0.1376568 0.138046
 0.1384136 0.1387765 0.1391576 0.1395652 0.1399767 0.1403523 0.1406758 0.1409781 0.1413109 0.1416969
 0.1421104 0.1425078 0.1428754 0.1432393 0.143622 0.1439972 0.1443141 0.1445618 0.1447871 0.1450476
 0.1453716 0.1457546 0.1461637 0.1465427 0.1468456 0.1470783 0.1472906 0.1475261 0.1477914 0.1480713
 0.1483549 0.1486396 0.1489267 0.1492219 0.1495374 0.1498754 0.1502073 0.1504847 0.1506855 0.1508437
 0.1510229 0.1512581 0.1515292 0.1517918 0.1520291 0.1522705 0.1525576 0.1528925 0.1532269 0.1535063
 0.1537184 0.1538965 0.1540827 0.1542962 0.1545326 0.1547789 0.1550247 0.1552629 0.1554917 0.1557185
 0.1559555 0.1562074 0.1564668 0.1567225 0.1569688 0.1572075 0.1574435 0.1576835 0.1579366 0.1582154
 0.1585272 0.15886 0.1591785 0.1594463 0.1596525 0.1598157 0.1599666 0.1601307 0.1603221 0.1605431
 0.1607864 0.1610395 0.16129 0.1615313 0.1617661 0.1620019 0.1622418 0.1624828 0.1627218 0.1629599
 0.1632011 0.163452 0.1637174 0.1639916 0.1642572 0.1644983 0.1647141 0.1649195 0.1651333 0.1653639
 0.1656027 0.1658336 0.1660518 0.1662684 0.1664938 0.1667244 0.1669498 0.1671668 0.1673811 0.1676
 0.1678267 0.1680601 0.1682975 0.1685362 0.1687729 0.1690043 0.1692293 0.1694478 0.1696601 0.1698706
 0.1700902 0.1703267 0.1705747 0.1708205 0.1710552 0.1712803 0.1715016 0.1717219 0.1719412 0.1721592
 0.172377 0.1725958 0.1728177 0.1730447 0.1732741 0.1734978 0.1737122 0.1739253 0.1741473 0.17438
 0.174621 0.1748688 0.1751174 0.175355 0.1755788 0.1758007 0.1760329 0.1762758 0.1765218 0.1767644
 0.1770027 0.1772404 0.1774798 0.1777185 0.1779536 0.1781845 0.1784105 0.1786297 0.1788428 0.1790519
 0.1792566 0.1794564 0.1796536 0.179852 0.1800573 0.1802756 0.1805056 0.1807374 0.1809654 0.1811951
 0.1814307 0.1816675 0.1818987 0.1821213 0.1823372 0.1825544 0.1827814 0.1830158 0.1832483 0.1834778
 0.1837105 0.183948 0.1841862 0.1844213 0.1846516 0.1848788 0.1851085 0.1853419 0.185576 0.1858123
 0.1860517 0.1862847 0.186504 0.1867208 0.1869488 0.1871846 0.1874177 0.1876462 0.1878732 0.1881016
 0.1883363 0.1885762 0.1888129 0.1890449 0.1892791 0.1895155 0.18975 0.1899857 0.1902245 0.1904594
 0.1906865 0.19091 0.1911311 0.1913511 0.1915787 0.1918155 0.1920505 0.1922783 0.1925018 0.192708
 0.1928476 0.1927918 0.1922323 0.1905706 0.1869046 0.1802052 0.1697266 0.1554799 0.1383951 0.1199933
 0.1018292 0.08508618 0.07045873 0.05824693 0.04851451 0.0411868 0.03610426 0.03312185 0.03222478 0.03364757
 0.03799153 0.04586361 0.05654717 0.06683375 0.0722748 0.07069008 0.06424724 0.05748448 0.0535429 0.0526508
 0.05347141 0.05485884 0.05644831 0.05844756 0.06121248 0.06484006 0.06915541 0.07415295 0.08020728 0.08759815
 0.09594189 0.1043491 0.1121874 0.1195791 0.1271088 0.1351205 0.143354 0.1512001 0.1581885 0.1642287
 0.1695178 0.17432 0.178814 0.1830764 0.1871392 0.1909926 0.1944991 0.1973589 0.1992547 0.2000968
 0.2001349 0.1998149 0.1995138 0.1993991 0.1994873 0.1997605 0.2002054 0.2008009 0.2015173 0.2023236
 0.2031859 0.2040727 0.2049614 0.205833 0.2066662 0.2074471 0.2081707 0.2088321 0.2094275 0.209964
 0.2104557 0.2109117 0.2113368 0.2117366 0.2121164 0.2124795 0.2128283 0.2131607 0.2134684 0.213746
 0.2139984 0.2142369 0.2144731 0.2147143 0.2149609 0.2152058 0.2154409 0.2156645 0.2158824 0.2161026
 0.2163278 0.2165509 0.2167628 0.2169661 0.2171723 0.217385 0.217595 0.2177937 0.2179838 0.2181758
 0.2183808 0.2186046 0.21884 0.2190687 0.2192767 0.2194675 0.2196582 0.2198634 0.2200799 0.2202903
 0.2204861 0.2206839 0.2209081 0.2211601 0.2214194 0.2216677 0.2218991 0.2221159 0.2223285 0.222549
 0.222773 0.2229777 0.2231483 0.2233011 0.2234729 0.2236887 0.223938 0.2241859 0.2244091 0.2246152
 0.2248207 0.2250274 0.2252262 0.2254126 0.2255934 0.2257915 0.2260335 0.226317 0.2266076 0.2268806
 0.2271409 0.2273937 0.2276338 0.227868 0.2281074 0.2283311 0.2284998 0.22862 0.2287682 0.2290308
 0.2294165 0.2298386 0.2301961 0.2304662 0.2306987 0.230946 0.2312282 0.231521 0.2317336 0.2317701
 0.2316817 0.2316929 0.2319934 0.2325473 0.2331586 0.2336715 0.2340599 0.2343715 0.234645 0.2348713
 0.2350047 0.2350176 0.2349689 0.2350157 0.2353083 0.2358375 0.2364289 0.2369167 0.2372701 0.2375322
 0.2377353 0.2379043 0.2380139 0.2379204 0.2375155 0.2370143 0.2369061 0.2374793 0.2384926 0.2394304
 0.2400135 0.240345 0.2406219 0.2408934 0.2411139 0.2411862 0.2408486 0.2398281 0.2383742 0.2374016
 0.2377315 0.2392637 0.2411384 0.242592 0.2434341 0.2438572 0.2441076 0.2443217 0.2444234 0.2441302
 0.2432681 0.2421915 0.2416971 0.24229 0.2436182 0.2448517 0.2455319 0.2458154 0.2460322 0.2463144
 0.2465063 0.2461158 0.2445906 0.2421314 0.2401048 0.2400839 0.24231 0.2454054 0.2477423 0.2488468
 0.2492678 0.249373 0.248799 0.2470984 0.2444137 0.2414095 0.2390562 0.2384933 0.2402792 0.2434533
 0.2460812 0.2471588 0.2474571 0.2482492 0.2497913 0.2513285 0.2520764 0.2518289 0.2508258 0.2493223
 0.2474676 0.2457028 0.245001 0.2461824 0.2489228 0.2518619 0.2538563 0.2548493 0.25529 0.2548019
 0.2519059 0.2457999 0.2385928 0.2347239 0.2370432 0.2438308 0.2506458 0.2546958 0.2563681 0.2571408
 0.2575968 0.2572692 0.2549209 0.2492196 0.2408465 0.2338238 0.2327936 0.2384214 0.2466394 0.2524425
 0.2532915 0.2493756 0.2427177 0.2365768 0.2341197 0.2365035 0.2423661 0.2491715 0.2547336 0.2578257
 0.2581671 0.2562984 0.2535427 0.2516899 0.2516994 0.2522798 0.2508683 0.2468649 0.2426293 0.2400213
 0.2375346 0.2330968 0.2286222 0.2287496 0.2348054 0.2425765 0.2470436 0.2474682 0.2464818 0.2452954
 0.2416279 0.2329904 0.2213967 0.2134527 0.2145801 0.2233918 0.2329306 0.2374776 0.2370949 0.2355925
 0.2354448 0.2352705 0.2317895 0.2241082 0.2159036 0.2123395 0.2145776 0.2187349 0.2204834 0.218512
 0.2130232 0.2043299 0.1953208 0.1923648 0.199945 0.2151666 0.2300167 0.237959 0.2363337 0.2249317
 0.206907 0.1906695 0.1857927 0.1944435 0.2087465 0.2180241 0.2172676 0.2080286 0.1938557 0.1778677
 0.1641786 0.1583358 0.1639962 0.1792115 0.1964975 0.2065597 0.2034247 0.1890856 0.1739006 0.1691456
 0.1767585 0.1880003 0.1932406 0.1906959 0.1850604 0.1814454 0.1824191 0.1875905 0.1940387 0.19904
 0.202239 0.2026055 0.1955082 0.1782982 0.1577486 0.1456016 0.1463636 0.1549915 0.1663077 0.1796406
 0.1926993 0.1983839 0.1927979 0.1826419 0.1795151 0.1876027 0.2000912 0.2075011 0.2070644 0.2032241
 0.2007492 0.1996453 0.197546 0.1952252 0.1967875 0.2040045 0.213211 0.2193917 0.2214035 0.2215243
 0.2216077 0.221678 0.2212311 0.2200829 0.2182978 0.216312 0.2147977 0.2139099 0.2131508 0.2121351
 0.2105689 0.2071163 0.1996978 0.1884334 0.1774983 0.1718288 0.1719075 0.1740909 0.1760294 0.1780479
 0.1780836 0.1702481 0.1526024 0.1335513 0.1257296 0.1337948 0.1509609 0.1667263 0.1748884 0.1740645
 0.1645894 0.1488098 0.133708 0.128709 0.1379772 0.1564131 0.1751177 0.1890595 0.1976266 0.2003836
 0.1962047 0.1863811 0.1758412 0.1703458 0.1730045 0.1828949 0.1953291 0.2030287 0.1996937 0.1862907
 0.1738598 0.1753613 0.1920391 0.2113025 0.2208745 0.2212307 0.2205788 0.2221016 0.2223985 0.2204804
 0.2213514 0.2291484 0.2410458 0.250033 0.2510656 0.2430546 0.2281979 0.21246 0.2040279 0.2067556
 0.2157784 0.2227917 0.2240807 0.2200557 0.2103613 0.1959006 0.184003 0.1840186 0.1964831 0.2118823
 0.2214705 0.2252378 0.2279469 0.230934 0.2305035 0.2235474 0.2127408 0.2048848 0.2041759 0.2085376
 0.2131296 0.2154528 0.2153853 0.212293 0.2054245 0.1971446 0.1929662 0.1967749 0.2068137 0.2173243
 0.2236939 0.2253445 0.2243772 0.2228329 0.2213003 0.2190988 0.2156916 0.2124979 0.2125994 0.2174249
 0.2244332 0.2297045 0.2324227 0.2351451 0.2398012 0.2450412 0.2478849 0.2469844 0.2439189 0.2418276
 0.2428907 0.2465896 0.2500893 0.2506588 0.2482696 0.2458628 0.24664 0.2510096 0.2565427 0.260722
 0.2629886 0.2642149 0.2652217 0.2660694 0.2660233 0.2641203 0.2605607 0.2575166 0.257595 0.2612492
 0.2663425 0.2703415 0.2723439 0.2729366 0.2728271 0.2721055 0.2706343 0.2687075 0.2670761 0.266356
 0.2665858 0.2673893 0.2683761 0.2692985 0.2700195 0.2705081 0.2708223 0.2710248 0.2711549 0.2712741
 0.271432 0.2715778 0.2716147 0.2715777 0.2716549 0.2719627 0.2723788 0.2726666 0.272693 0.2724329
 0.2718293 0.2707991 0.2693797 0.2677384 0.2659911 0.2641238 0.2622058 0.2606434 0.2600742 0.2608935
 0.2628794 0.2653216 0.2675115 0.2690991 0.2700785 0.2705935 0.270808 0.2708632 0.2708492 0.2707903
 0.2706741 0.2704974 0.2702759 0.2700224 0.2697393 0.2694424 0.2691734 0.2689657 0.2688028 0.2686248
 0.2683706 0.268012 0.2675622 0.2670618 0.266544 0.2659987 0.2653746 0.2646189 0.2637175 0.2627062
 0.2616597 0.260659 0.2597396 0.2588619 0.2579455 0.2569316 0.2557924 0.2545002 0.2530502 0.2515318
 0.2501133 0.2489087 0.2478876 0.2469326 0.245946 0.2448778 0.2437012 0.2424098 0.24103 0.2396104
 0.2381924 0.2367845 0.2353564 0.2338612 0.2322736 0.2306058 0.228887 0.2271318 0.2253371 0.2234988
 0.2216087 0.2196196 0.2174249 0.2148889 0.2118968 0.2083766 0.2043082 0.1997476 0.1948407 0.1897941
 0.1848186 0.180084 0.1757037 0.1717535 0.1683064 0.1654412 0.1632228 0.1616903 0.1608635 0.1607468
 0.1613255 0.162565 0.1644 0.1667201 0.1693779 0.1722142 0.1750697 0.1777951 0.1802921 0.1825562
 0.1846581 0.1866683 0.1885978 0.1904112 0.1920812 0.193606 0.1949712 0.1961336 0.1970704 0.1978216
 0.1984564 0.1990156 0.1995049 0.1999232 0.2002771 0.2005777 0.2008393 0.2010778 0.2013112 0.2015581
 0.2018318 0.2021397 0.2024945 0.202917 0.203419 0.2039908 0.2046126 0.2052671 0.2059453 0.2066525
 0.207407 0.2082307 0.2091481 0.2101944 0.2114008 0.2127678 0.2142606 0.2158262 0.2174036 0.2189267
 0.22033 0.2215563 0.222564 0.2233375 0.2238903 0.2242537 0.2244639 0.2245503 0.2245254 0.2243921
 0.2241641 0.2238634 0.2234994 0.2230693 0.2225784 0.2220394 0.2214605 0.2208514 0.2202342 0.219633
 0.2190573 0.2185003 0.2179478 0.2173923 0.2168408 0.2163023 0.2157692 0.2152301 0.2146911 0.2141632
 0.213637 0.2130845 0.212473 0.2117679 0.2109428 0.2099962 0.2089434 0.2077908 0.2065345 0.20518
 0.203745 0.2022429 0.200675 0.1990376 0.1973338 0.1955698 0.1937329 0.1917913 0.1897397 0.1876371
 0.1855769 0.1836236 0.1817924 0.1800706 0.1784392 0.1768874 0.1754181 0.1740321 0.1727135 0.1714448
 0.1702291 0.1690799 0.1679998 0.1669815 0.1660233 0.1651381 0.1643489 0.1636702 0.1630936 0.1625965
 0.1621588 0.1617638 0.1614063 0.1611161 0.1609429 0.1608931 0.1609012 0.1608822 0.160793 0.1606399
 0.1604526 0.1602625 0.1600907 0.1599476 0.1598327 0.1597155 0.1595176 0.1591363 0.1584931 0.1575512
 0.1563016 0.1547561 0.1529621 0.1510239 0.1490984 0.1473438 0.145856 0.1446594 0.1437418 0.143062
 0.142541 0.142098 0.1417153 0.1414526 0.1413875 0.1415231 0.1417422 0.1418791 0.1418704 0.1418223
 0.1419133 0.1422556 0.1428447 0.1435803 0.14432 0.1449529 0.1454417 0.1457898 0.1460021 0.1460902
 0.1460801 0.1459928 0.145838 0.1456207 0.1453415 0.1450051 0.1446261 0.1442017 0.1436954 0.1430772
 0.1423563 0.1415527 0.1406777 0.1397378 0.1387119 0.1375558 0.1363081 0.1351679 0.1344074 0.1342102
 0.1345802 0.1353466 0.1362769 0.1372347 0.1381664 0.1389103 0.1392177 0.1391363 0.1392334 0.1401868
 0.1421258 0.1444907 0.1465421 0.1478921 0.1485369 0.1485791 0.1480877 0.1471227 0.1457036 0.1437865
 0.1413749 0.1385809 0.1355396 0.1323923 0.12936 0.126667 0.1244052 0.122563 0.1211122 0.1200954
 0.1196631 0.1194521 0.1175725 0.1116129 0.1023511 0.09539302 0.09645396 0.1049343 0.1143445 0.1191721
 0.1192735 0.1175885 0.1161368 0.1152194 0.1147309 0.1148076 0.11557 0.1168715 0.1183164 0.1194953
 0.1202458 0.1206116 0.1205492 0.1197105 0.1173953 0.1127748 0.1055533 0.09657869 0.08756247 0.08007553
 0.07484241 0.07175566 0.07020403 0.06943221 0.06892526 0.06863908 0.06887081 0.06990613 0.07178781 0.07437041
 0.07747503 0.08086628 0.08414423 0.08689281 0.0889979 0.09065238 0.09201275 0.09301183 0.09352379 0.09354754
 0.09319022 0.09258344 0.09184673 0.09105508 0.09019217 0.08916877 0.08796608 0.08677594 0.08590114 0.08546741
 0.08532991 0.08529171 0.08527987 0.08528087 0.08526125 0.08520366 0.08512935 0.08508925 0.08518283 0.08550479
 0.08601195 0.08652442 0.086896 0.08712028 0.08726563 0.08733577 0.08718529 0.086647 0.08582748 0.08511336
 0.08468266 0.08418567 0.08319981 0.08188026 0.08086169 0.08056735 0.08084612 0.08124298 0.08141047 0.08126505
 0.08096223 0.08082055 0.08111631 0.08177924</values></Ydata></ScSm><ScRf><Ydata ylabel="Single channel"><values byteorder="INTEL" format="FLOAT32" numvalues="1820"> 0.06073248 0.06088497 0.06097284 0.0609985 0.06098726 0.06098577 0.06104559 0.06118943 0.06139009 0.06158607
 0.06172584 0.06179966 0.06182255 0.06179839 0.06173068 0.06166606 0.06168373 0.06181957 0.06201844 0.06217341
 0.06221255 0.06216332 0.06213676 0.06221609 0.06233933 0.06231903 0.06201722 0.06150385 0.06101217 0.06072684
 0.06066929 0.0608298 0.06128164 0.06197185 0.06248241 0.06232647 0.06155835 0.060804 0.06056604 0.0607408
 0.06091009 0.06082695 0.06049339 0.06006344 0.05988432 0.06040472 0.06173414 0.06327577 0.0639379 0.06282296
 0.05987138 0.05606525 0.05306158 0.0523016 0.05399853 0.05685201 0.05902259 0.05959582 0.05902158 0.05818815
 0.05746339 0.05680232 0.05636784 0.05657581 0.05752341 0.05859087 0.0587585 0.05748457 0.05535209 0.05365119
 0.05319692 0.05382121 0.05507102 0.05670204 0.05796471 0.05720559 0.05349698 0.04869066 0.04658827 0.04932681
 0.05509885 0.05991881 0.06116696 0.05906103 0.05550247 0.05249807 0.05139536 0.05252243 0.05514258 0.05806777
 0.06037404 0.06143442 0.06075749 0.05841607 0.05546699 0.05343951 0.05339644 0.05551611 0.05905066 0.06239235
 0.06380627 0.0627124 0.06007169 0.05737172 0.05564689 0.05547853 0.05714229 0.06032275 0.06409527 0.06745869
 0.06973965 0.07066259 0.07041447 0.06952878 0.06847741 0.06758267 0.06729606 0.06792621 0.06890436 0.06899664
 0.06764573 0.06571506 0.06460086 0.06478892 0.06546614 0.06551024 0.06462653 0.06317008 0.06103736 0.05764238
 0.05326652 0.04941873 0.04732702 0.04700341 0.04814596 0.05061647 0.05337567 0.05442032 0.05297585 0.0508956
 0.05082019 0.05336075 0.05678489 0.05913586 0.06004743 0.060606 0.06195179 0.06411168 0.06585664 0.065626
 0.06306975 0.05992104 0.05877608 0.06054875 0.06359272 0.06573159 0.06655686 0.06719209 0.06831905 0.0691153
 0.06811244 0.06494386 0.06127763 0.05978211 0.06180045 0.0660065 0.06936842 0.06938712 0.06577477 0.06052385
 0.0563582 0.05484921 0.05599619 0.05926206 0.06416784 0.06974056 0.07427122 0.07627057 0.07554327 0.07310944
 0.07003932 0.0664619 0.06211169 0.05797368 0.05649714 0.05928839 0.06505772 0.07069017 0.07402483 0.07493612
 0.07412446 0.07178503 0.06781401 0.06310838 0.05998918 0.06039678 0.06355444 0.06641057 0.06683351 0.06555514
 0.06460235 0.06477106 0.06532557 0.06555614 0.06579666 0.06686185 0.06888521 0.07100441 0.07219318 0.07219221
 0.07156241 0.07103102 0.07082853 0.070517 0.06961333 0.06855902 0.06866603 0.0706735 0.07372451 0.07624625
 0.07752795 0.07797457 0.07804566 0.07744542 0.07554398 0.07255416 0.07001302 0.06964096 0.07167675 0.0747263
 0.07721097 0.07850391 0.07878762 0.0784836 0.07796454 0.07742976 0.0769681 0.07682174 0.07732807 0.07843373
 0.07957917 0.08025918 0.08043876 0.08030215 0.07989331 0.07919163 0.07837078 0.07779688 0.0777628 0.07827003
 0.07908121 0.07993172 0.08061627 0.08094355 0.08080804 0.08034505 0.0798527 0.07951823 0.07934758 0.07935189
 0.07961474 0.08012457 0.08068977 0.08109841 0.0812864 0.08131143 0.08123632 0.08108664 0.08088602 0.08069934
 0.08063525 0.08077297 0.08106194 0.08134939 0.08155598 0.08175801 0.08202672 0.08226223 0.08229496 0.08211289
 0.08188809 0.08178967 0.0818437 0.08196986 0.08207583 0.08207992 0.08190115 0.08152642 0.08110692 0.0809039
 0.08108091 0.08158676 0.08224788 0.08289276 0.08338056 0.08363178 0.08368867 0.08366992 0.08363163 0.08352934
 0.08332924 0.08310699 0.08302036 0.08319041 0.08359425 0.08407369 0.08446238 0.08469168 0.08478636 0.08482459
 0.08490925 0.08509032 0.08528678 0.08535996 0.08528948 0.08521003 0.08524954 0.085383 0.08547352 0.08543423
 0.0853271 0.08529873 0.08542842 0.08565967 0.08588246 0.08605333 0.08621674 0.08641972 0.08662087 0.08670382
 0.08660384 0.08640249 0.08624922 0.08620267 0.08621272 0.08625016 0.08636392 0.08657978 0.08681373 0.08694537
 0.0869536 0.08693296 0.08697318 0.08705468 0.08707905 0.08698404 0.08680584 0.08663915 0.08656059 0.08658609
 0.08667211 0.08674578 0.08674875 0.08667117 0.08654946 0.08643036 0.08633922 0.08628921 0.08631361 0.08645624
 0.08670168 0.08693041 0.08698815 0.0868237 0.08654728 0.08633499 0.08627091 0.08628452 0.08623753 0.08605999
 0.08579791 0.08554719 0.08536524 0.0852448 0.08514871 0.08505561 0.08498585 0.08499205 0.0851055 0.08527157
 0.0853575 0.08526096 0.08501028 0.08473468 0.08454428 0.08446234 0.08445127 0.08446258 0.08447251 0.08449985
 0.08457381 0.08466736 0.08469883 0.08462597 0.08450432 0.08443285 0.08447717 0.08464549 0.08488095 0.08506675
 0.08510291 0.08500588 0.08489391 0.08486238 0.0849102 0.08498919 0.08507528 0.08517003 0.08526966 0.08536729
 0.08547723 0.08563308 0.08585505 0.08612292 0.08638106 0.08657271 0.08668399 0.08676584 0.08690359 0.0871481
 0.0874707 0.08778813 0.08803427 0.08821058 0.08836959 0.08855207 0.08875244 0.08895428 0.08917774 0.0894589
 0.08979101 0.09012375 0.09042224 0.09069711 0.09097478 0.09126539 0.0915667 0.0918854 0.09224606 0.09266837
 0.0931216 0.09351547 0.09376925 0.09389485 0.09399518 0.09418355 0.09450601 0.0949093 0.09526511 0.09546603
 0.09553467 0.0956105 0.09579896 0.09606667 0.09632107 0.09655556 0.09685627 0.09727214 0.09773143 0.0981065
 0.09833947 0.09848784 0.09865242 0.09886914 0.09907877 0.09920746 0.09926231 0.09932297 0.09944651 0.09962457
 0.09984457 0.100138 0.1005264 0.1009554 0.1013307 0.1016042 0.1017922 0.1019304 0.1020436 0.1021399
 0.1022066 0.1022319 0.1022451 0.1023007 0.102406 0.1025029 0.1025463 0.1025646 0.102619 0.1027404
 0.1029342 0.1032062 0.1035396 0.1038729 0.1041546 0.1044168 0.1047397 0.105126 0.1054634 0.1056455
 0.1056909 0.1056978 0.1057187 0.1057457 0.1057961 0.1059332 0.1061887 0.1065197 0.1068624 0.1071946
 0.1075294 0.1078716 0.1081924 0.1084382 0.1085646 0.1085756 0.1085342 0.1085321 0.1086421 0.108883
 0.1092102 0.1095437 0.1098189 0.1100082 0.1100981 0.110082 0.1100019 0.1099662 0.1100674 0.110276
 0.1104483 0.1104488 0.1102401 0.1098581 0.1093429 0.1087217 0.1080417 0.1073838 0.1068336 0.1064404
 0.1062169 0.1061782 0.1063637 0.106796 0.1074216 0.1081189 0.1087693 0.1092896 0.1095988 0.109609
 0.1092861 0.108698 0.1079739 0.1072307 0.1065417 0.1059303 0.1053652 0.1048013 0.1042718 0.1039306
 0.1039763 0.1045302 0.1055778 0.1069828 0.1085305 0.1099941 0.1112238 0.112202 0.1130088 0.11373
 0.1144066 0.1150575 0.1157116 0.1163811 0.1170268 0.1175899 0.1180589 0.1184747 0.1188738 0.1192552
 0.1195976 0.119885 0.1201207 0.1203332 0.1205492 0.1207445 0.1208493 0.1208273 0.1207215 0.1206013
 0.1204839 0.1203264 0.1200729 0.1197002 0.1192483 0.1188396 0.1186595 0.1188795 0.1195604 0.1206153
 0.1218743 0.1231908 0.1244761 0.125648 0.1266041 0.1272825 0.1277216 0.128026 0.1282862 0.1285467
 0.1288232 0.1291183 0.1294224 0.1297214 0.1300112 0.1303059 0.1306279 0.1309826 0.1313381 0.1316436
 0.1318807 0.1320904 0.1323432 0.1326769 0.133063 0.1334374 0.1337676 0.1340814 0.134413 0.1347389
 0.1349998 0.1351815 0.1353401 0.1355466 0.1358345 0.1361935 0.1365768 0.1369144 0.1371574 0.1373213
 0.1374706 0.1376552 0.1378787 0.1381208 0.1383685 0.1386198 0.1388765 0.1391468 0.139445 0.1397715
 0.1400911 0.1403478 0.1405156 0.1406302 0.1407579 0.1409372 0.1411536 0.1413688 0.1415651 0.1417672
 0.1420189 0.1423336 0.1426651 0.1429388 0.1431165 0.1432265 0.1433327 0.1434828 0.1436861 0.1439226
 0.1441627 0.1443831 0.1445777 0.1447613 0.1449565 0.1451741 0.1454041 0.1456271 0.1458327 0.146028
 0.1462272 0.1464375 0.1466583 0.146894 0.1471553 0.1474399 0.1477196 0.1479594 0.1481482 0.1482999
 0.1484348 0.148569 0.1487163 0.1488867 0.1490799 0.1492871 0.149498 0.1497059 0.1499072 0.1501019
 0.1502923 0.1504836 0.1506828 0.1508949 0.1511206 0.1513587 0.1516058 0.1518514 0.1520789 0.1522771
 0.1524498 0.1526115 0.1527778 0.1529585 0.1531536 0.153356 0.1535594 0.1537623 0.1539639 0.1541599
 0.1543452 0.1545196 0.1546892 0.1548638 0.1550511 0.1552521 0.1554621 0.1556757 0.1558869 0.15609
 0.1562827 0.156469 0.1566562 0.1568503 0.157053 0.1572618 0.1574717 0.1576774 0.157874 0.1580602
 0.1582429 0.1584335 0.1586354 0.1588407 0.1590401 0.1592329 0.1594253 0.1596234 0.1598283 0.1600352
 0.1602374 0.1604335 0.1606282 0.1608285 0.1610389 0.1612576 0.1614762 0.1616857 0.1618868 0.1620895
 0.1623023 0.1625261 0.162756 0.1629853 0.1632086 0.1634271 0.1636467 0.1638702 0.1640907 0.164295
 0.1644768 0.1646455 0.1648172 0.1649969 0.1651766 0.1653508 0.1655234 0.1656976 0.1658719 0.1660476
 0.1662315 0.1664264 0.166629 0.1668347 0.1670403 0.1672438 0.1674426 0.1676365 0.167831 0.1680344
 0.1682473 0.1684602 0.1686676 0.1688735 0.1690788 0.1692767 0.1694683 0.1696659 0.1698776 0.1700997
 0.1703251 0.1705485 0.1707672 0.1709823 0.1711944 0.1713986 0.1715941 0.171793 0.1720064 0.1722299
 0.1724512 0.1726635 0.1728674 0.1730691 0.1732755 0.1734867 0.1736979 0.1739081 0.174117 0.1743203
 0.174521 0.1747319 0.1749557 0.1751797 0.1753969 0.1756112 0.1758252 0.1760411 0.1762628 0.1764834
 0.1766877 0.1768768 0.1770647 0.1772465 0.1773755 0.1773285 0.1768172 0.17529 0.1719152 0.1657415
 0.1560771 0.1429323 0.1271709 0.1102011 0.09345703 0.07802702 0.06454918 0.05329867 0.0443335 0.03758531
 0.03290902 0.03017149 0.02935698 0.03067865 0.03468916 0.0419488 0.05179911 0.0612813 0.06628744 0.06480351
 0.05883813 0.05259268 0.04896544 0.04815052 0.04890229 0.05016769 0.0516175 0.05344196 0.0559679 0.05929354
 0.06327033 0.06789717 0.07351147 0.08035721 0.08807059 0.09583086 0.1030608 0.1098776 0.1168216 0.1242114
 0.1318107 0.1390597 0.1455199 0.1510994 0.1559755 0.1603966 0.1645351 0.168463 0.1722066 0.1757558
 0.178988 0.1816312 0.1833937 0.1841877 0.1842359 0.1839466 0.1836744 0.1835822 0.1836867 0.1839624
 0.1843863 0.1849353 0.1855867 0.1863197 0.1871091 0.187928 0.188756 0.1895728 0.1903556 0.1910895
 0.1917699 0.1923912 0.1929494 0.1934536 0.193921 0.1943617 0.1947755 0.1951582 0.1955093 0.195839
 0.1961632 0.1964847 0.1967885 0.1970626 0.1973104 0.1975395 0.1977527 0.1979561 0.1981607 0.1983731
 0.1985908 0.1988084 0.199022 0.1992333 0.1994473 0.1996655 0.1998815 0.2000886 0.200286 0.2004733
 0.2006484 0.2008164 0.20099 0.2011786 0.20138 0.2015871 0.2017946 0.202002 0.2022094 0.2024125
 0.2026048 0.2027867 0.2029668 0.2031512 0.2033387 0.2035283 0.2037242 0.2039301 0.2041485 0.2043803
 0.204619 0.2048514 0.2050729 0.2052891 0.2054968 0.2056795 0.2058308 0.2059712 0.2061321 0.2063313
 0.2065607 0.2067952 0.2070129 0.2072102 0.2073964 0.2075801 0.2077628 0.2079404 0.2081135 0.2083001
 0.2085254 0.2087882 0.2090545 0.2092988 0.2095281 0.209758 0.2099927 0.2102355 0.2104826 0.2107023
 0.2108586 0.2109671 0.2111046 0.2113463 0.2116933 0.2120672 0.2123823 0.2126205 0.212826 0.2130502
 0.2133185 0.2136068 0.2138173 0.2138466 0.2137415 0.213728 0.2140043 0.2145418 0.2151424 0.2156435
 0.2160168 0.2163128 0.2165729 0.216788 0.2169113 0.2169145 0.2168552 0.2168868 0.2171548 0.2176522
 0.2182118 0.2186698 0.2189912 0.2192222 0.2194069 0.2195738 0.2196916 0.2196158 0.2192405 0.2187674
 0.2186569 0.2191844 0.2201316 0.2210191 0.221579 0.2218963 0.2221523 0.2224038 0.2226195 0.2227093
 0.2224241 0.2215036 0.2201714 0.2192702 0.2195658 0.2209787 0.2227206 0.2240831 0.2248863 0.2253068
 0.2255684 0.2257888 0.225889 0.2256072 0.2247944 0.2237948 0.2233542 0.223935 0.2251981 0.2263626
 0.2270008 0.2272649 0.2274682 0.2277318 0.2279049 0.2275318 0.2261113 0.2238412 0.2219909 0.2220095
 0.2241072 0.227 0.2291801 0.2302085 0.2305923 0.2306768 0.2301374 0.2285701 0.2261072 0.2233541
 0.221197 0.2206887 0.2223555 0.2253161 0.2277761 0.2287981 0.2290951 0.2298497 0.2312984 0.2327381
 0.2334422 0.2332262 0.2323202 0.2309626 0.2292855 0.2276917 0.2270822 0.2282149 0.2307819 0.2335192
 0.2353734 0.2363003 0.2367154 0.2362649 0.2335772 0.2279178 0.2212526 0.217701 0.2198978 0.2262358
 0.2325902 0.2363726 0.2379485 0.2386959 0.2391573 0.2388929 0.2367405 0.2314508 0.2236575 0.2171175
 0.2161702 0.2214428 0.2291385 0.2345822 0.2354051 0.2317905 0.2256311 0.2199636 0.2177284 0.2199928
 0.2254891 0.2318631 0.2370806 0.2399936 0.2403408 0.2386345 0.2361134 0.2344393 0.2344937 0.235067
 0.2337794 0.2300874 0.226195 0.2238236 0.221553 0.2174489 0.2133138 0.2134964 0.2192367 0.2265825
 0.230827 0.2312798 0.2304119 0.2293621 0.2259923 0.2179617 0.2071491 0.1997518 0.2008749 0.2092352
 0.2183034 0.2226972 0.222461 0.2211696 0.221156 0.2211302 0.2180003 0.2109135 0.203339 0.2001623
 0.2024803 0.2066115 0.2084565 0.2067736 0.2017448 0.1936574 0.1852605 0.1826202 0.1900064 0.2046657
 0.2189741 0.2267135 0.225347 0.2146563 0.1976353 0.1823298 0.1779232 0.1865043 0.2005213 0.2097235
 0.2092927 0.2007049 0.1873588 0.1722559 0.159393 0.154197 0.1602886 0.1758139 0.1934423 0.2039808
 0.2014537 0.1877812 0.1732558 0.1691391 0.1773761 0.1892152 0.1950032 0.1929517 0.1877793 0.1846556
 0.18622 0.1920887 0.1992567 0.2049314 0.2087582 0.209625 0.2026511 0.1850471 0.1638669 0.1513549
 0.1522333 0.1612885 0.1731593 0.1871507 0.2008491 0.2068211 0.2009957 0.1903746 0.1870649 0.1954248
 0.2083387 0.2159218 0.2153006 0.2111331 0.2084243 0.2072054 0.2050149 0.2026496 0.2043737 0.2120308
 0.2218197 0.2285349 0.2309799 0.2315001 0.2320081 0.2325288 0.2325358 0.2318314 0.230481 0.2289433
 0.227923 0.2275791 0.2273787 0.2268991 0.2258058 0.2226389 0.2151333 0.2034096 0.1919944 0.1862353
 0.1866306 0.1892063 0.1914138 0.1936162 0.193586 0.1849502 0.1656092 0.1446571 0.1357705 0.1439932
 0.1619773 0.1783603 0.1864689 0.1848981 0.1741278 0.1567299 0.1400719 0.1340024 0.1428218 0.1611613
 0.1797227 0.1932878 0.2013003 0.2034223 0.1985625 0.1880492 0.1768858 0.1708749 0.173084 0.1825162
 0.1944529 0.201655 0.1978962 0.1841632 0.1713956 0.1724088 0.1884425 0.2070887 0.2162418 0.2163525
 0.2154898 0.2167929 0.2169306 0.2149306 0.2157005 0.2233069 0.2350006 0.2439305 0.2451604 0.2376164
 0.2234461 0.2085083 0.2008491 0.2042192 0.2137429 0.2211591 0.2227811 0.2190264 0.2095614 0.1953321
 0.1837026 0.1840304 0.1968346 0.2125751 0.2224886 0.2265698 0.2296004 0.232918 0.2327937 0.2260839
 0.2154837 0.2078744 0.2075227 0.2123486 0.2174571 0.220302 0.2207264 0.2180426 0.2114548 0.2033775
 0.1994705 0.2037218 0.2142932 0.2252033 0.2316538 0.2330317 0.2315156 0.2292462 0.2268826 0.2237768
 0.2194069 0.215229 0.2143905 0.2183721 0.2246374 0.2292443 0.2313582 0.2335253 0.2376668 0.2424347
 0.2448575 0.2435853 0.240171 0.2377132 0.2383678 0.2416371 0.2447398 0.2449831 0.2423251 0.239658
 0.2401491 0.2442236 0.2495072 0.2535243 0.2557141 0.2569233 0.2579544 0.2588598 0.2589003 0.2571058
 0.2536461 0.2506259 0.2505915 0.2540085 0.2588212 0.2625781 0.2644162 0.2649281 0.2648107 0.2641363
 0.2627447 0.2609027 0.2593344 0.2586461 0.2588867 0.2596895 0.2606617 0.261556 0.2622457 0.2627083
 0.2630008 0.2631804 0.2632765 0.2633381 0.2634161 0.2634784 0.2634419 0.2633308 0.2633139 0.2635138
 0.2638415 0.2640876 0.2641168 0.263885 0.2633286 0.2623783 0.2610885 0.2596286 0.2580962 0.2564489
 0.2547308 0.2533298 0.2528705 0.2537475 0.2557585 0.2582201 0.2604342 0.262042 0.2630278 0.2635376
 0.2637461 0.263804 0.2638023 0.2637558 0.2636372 0.263429 0.2631405 0.2627919 0.2624015 0.2619961
 0.2616187 0.2613055 0.2610491 0.2607937 0.2604723 0.2600515 0.2595477 0.2590093 0.2584735 0.2579262
 0.2573076 0.2565636 0.2556901 0.2547343 0.2537715 0.2528749 0.2520713 0.2513177 0.250543 0.2497112
 0.2488155 0.247828 0.2467203 0.2455496 0.2444662 0.2435911 0.2429079 0.2422951 0.2416373 0.2408795
 0.2400128 0.2390544 0.2380352 0.2369768 0.2358791 0.2347373 0.2335531 0.2323166 0.2309976 0.2295715
 0.2280423 0.2264364 0.2247892 0.2231339 0.2214711 0.2197343 0.2177933 0.2154987 0.2127252 0.2093927
 0.2054814 0.2010527 0.1962593 0.1913152 0.1864332 0.1817747 0.1774514 0.1735549 0.1701721 0.1673806
 0.1652445 0.1638102 0.1630985 0.1631017 0.1637918 0.1651275 0.1670505 0.1694718 0.17226 0.1752436
 0.1782358 0.1810727 0.18366 0.1860089 0.1882096 0.1903343 0.1923609 0.194209 0.1958319 0.1972415
 0.1984596 0.1994916 0.2003495 0.2010671 0.2016778 0.2021959 0.2026303 0.2030006 0.2033234 0.2035925
 0.2037937 0.2039397 0.204074 0.2042381 0.2044461 0.2046876 0.2049454 0.2052206 0.2055495 0.2059768
 0.206505 0.2070882 0.2076836 0.2082856 0.2089076 0.2095601 0.2102629 0.2110605 0.2120068 0.2131287
 0.2144043 0.2157736 0.2171661 0.2185105 0.2197278 0.2207414 0.2215071 0.2220228 0.2223118 0.222407
 0.222344 0.2221538 0.2218586 0.2214768 0.2210239 0.220505 0.2199205 0.2192807 0.2186043 0.217903
 0.2171823 0.2164581 0.2157579 0.2150953 0.2144513 0.2137947 0.2131219 0.212465 0.2118529 0.2112804
 0.2107216 0.2101624 0.209607 0.2090597 0.2085086 0.2079242 0.2072698 0.2065196 0.2056729 0.2047498
 0.2037665 0.2027147 0.2015685 0.2003095 0.1989427 0.1974868 0.1959554 0.1943524 0.1926817 0.1909496
 0.1891502 0.1872588 0.1852613 0.1831991 0.1811689 0.1792697 0.1775488 0.175991 0.174546 0.1731666
 0.171834 0.1705512 0.169319 0.1681326 0.1669969 0.1659255 0.1649217 0.1639766 0.1630885 0.1622734
 0.1615536 0.1609353 0.1603994 0.1599184 0.159482 0.1591022 0.1588032 0.1586145 0.158554 0.1585966
 0.1586719 0.1587099 0.1586805 0.1585913 0.1584709 0.1583545 0.1582634 0.1581951 0.1581353 0.1580631
 0.1579317 0.1576571 0.1571364 0.1562868 0.1550822 0.1535636 0.1518164 0.1499524 0.1481093 0.1464223
 0.1449735 0.1437885 0.1428733 0.1422098 0.1417277 0.1413375 0.1410043 0.1407765 0.14074 0.1409245
 0.141226 0.1414568 0.1415191 0.1415105 0.1416287 0.1420059 0.1426401 0.1434222 0.1442076 0.1448932
 0.1454402 0.1458336 0.1460686 0.1461749 0.146193 0.1461261 0.1459604 0.145714 0.1454295 0.1451351
 0.1448244 0.1444544 0.1439789 0.143401 0.1427572 0.1420539 0.1412714 0.1404002 0.139411 0.1382565
 0.1369942 0.1358538 0.1351136 0.1349393 0.135328 0.1361261 0.1371227 0.1381851 0.1392344 0.140074
 0.1404514 0.1404435 0.1406341 0.1416884 0.1437221 0.1461743 0.1483043 0.1497247 0.1504372 0.150544
 0.1501096 0.1491959 0.1478148 0.1458947 0.1434279 0.1405585 0.1374661 0.1343123 0.1313083 0.1286463
 0.126389 0.1245368 0.1230998 0.1221306 0.1217551 0.1215885 0.1197193 0.1137067 0.1043499 0.09736036
 0.09855352 0.1073112 0.1170156 0.1220235 0.1221502 0.1203905 0.1188474 0.1178612 0.1173248 0.1173715
 0.1181241 0.1194295 0.1208861 0.122081 0.12284 0.1231987 0.1231212 0.1222564 0.1198708 0.1151081
 0.1076862 0.09849679 0.08930042 0.08169261 0.07637253 0.07318528 0.07151494 0.07064481 0.07008463 0.06979081
 0.07006484 0.07118771 0.07317053 0.07584241 0.0790292 0.08250315 0.08585802 0.08867563 0.09084749 0.09256598
 0.09398107 0.09502044 0.09556026 0.09561554 0.09530868 0.0947566 0.09404772 0.09325182 0.09236834 0.09130935
 0.0900501 0.08879581 0.08787277 0.08742232 0.0873056 0.08731207 0.08733462 0.08734056 0.08731181 0.08724899
 0.08717045 0.08711901 0.08719242 0.08749235 0.08799741 0.08853853 0.08892953 0.08910725 0.08914532 0.08910964
 0.08889291 0.08831298 0.08745051 0.0866871 0.08621395 0.08569676 0.08470983 0.08338539 0.08234419 0.08201791
 0.08226521 0.08263152 0.08277395 0.08261897 0.08232662 0.08220993 0.08252369 0.08316351 0.08366221 0.08363338
</values></Ydata></ScRf><Data_Parameters_AB><parameter name="DPF">1</parameter><parameter name="NPT">3497</parameter><parameter name="FXV">3996</parameter><parameter name="LXV">500</parameter><parameter name="CSF">1</parameter><parameter name="MXY">0.0364206209778786</parameter><parameter name="MNY">-0.0429479777812958</parameter><parameter name="DAT">31/05/2022</parameter><parameter name="TIM">13:29:28.621 (GMT+2)</parameter><parameter name="DXU">WN</parameter></Data_Parameters_AB><AB__Qtest><MainReport name="Quality Test Report"><Header><Line><Legend>Test result ok/not ok [1/0]: </Legend><Value>0</Value></Line><Line><Legend>Method file: </Legend><Value>C:\Users\Public\Documents\Bruker\OPUS_8.2.28\QT\IRBT_v3_default.QT</Value></Line></Header><Matrix><Line><Legend></Legend><Legend>min</Legend><Legend>max</Legend><Legend>measured</Legend></Line><Line><Value>Absorption (X-Range 1):</Value><Value>0.400000</Value><Value>2.000000</Value><Value>0.057108</Value></Line><Line><Value>Noise (X-Range 4):</Value><Value></Value><Value>0.000300</Value><Value>0.000046</Value></Line><Line><Value>Signal/Noise (X-Range 2):</Value><Value>200.000000</Value><Value></Value><Value>20.902462</Value></Line><Line><Value>Signal/Noise (X-Range 3):</Value><Value>40.000000</Value><Value></Value><Value>12.744118</Value></Line><Line><Value>Water vapour (X-Range 5):</Value><Value></Value><Value>0.000300</Value><Value>0.000057</Value></Line><Line><Value>Signal/Water (X-Range 2):</Value><Value>100.000000</Value><Value></Value><Value>17.016639</Value></Line><Line><Value>Signal/Water (X-Range 3):</Value><Value>20.000000</Value><Value></Value><Value>10.374952</Value></Line><Line><Value>Fringes (X-Range 6):</Value><Value></Value><Value>0.000100</Value><Value>0.000047</Value></Line></Matrix></MainReport></AB__Qtest><Data_Parameters_ScSm><parameter name="DPF">1</parameter><parameter name="NPT">1814</parameter><parameter name="FXV">3996.33169228125</parameter><parameter name="LXV">499.541461535156</parameter><parameter name="CSF">1</parameter><parameter name="MXY">0.272936642169952</parameter><parameter name="MNY">0.0322247818112373</parameter><parameter name="DAT">31/05/2022</parameter><parameter name="TIM">13:29:28.621 (GMT+2)</parameter><parameter name="DXU">WN</parameter></Data_Parameters_ScSm><Data_Parameters_ScRf><parameter name="DPF">1</parameter><parameter name="NPT">1820</parameter><parameter name="FXV">4004.04661832813</parameter><parameter name="LXV">495.683998511719</parameter><parameter name="CSF">1</parameter><parameter name="MXY">0.264928072690964</parameter><parameter name="MNY">0.0293569825589657</parameter><parameter name="DAT">31/05/2022</parameter><parameter name="TIM">13:29:01.538 (GMT+2)</parameter><parameter name="DXU">WN</parameter></Data_Parameters_ScRf><Optic_Parameters_Rf><parameter name="APR">0</parameter><parameter name="APT">Open</parameter><parameter name="BMS">KBr</parameter><parameter name="DTC">RT-DLaTGS_IR-Biotyper [Microplate reader]</parameter><parameter name="HPF">0</parameter><parameter name="LPF">10.0</parameter><parameter name="LPV">4000</parameter><parameter name="PGR">0</parameter><parameter name="RCH">Module port</parameter><parameter name="RDX">0</parameter><parameter name="SRC">MIR</parameter><parameter name="VEL">10.0</parameter><parameter name="SON">Off</parameter></Optic_Parameters_Rf><Acquisition_Parameters_Rf><parameter name="ADT">1</parameter><parameter name="AQM">DD</parameter><parameter name="CFE">0</parameter><parameter name="COR">0</parameter><parameter name="DEL">0</parameter><parameter name="DLY">0</parameter><parameter name="HFW">8000</parameter><parameter name="LFW">0</parameter><parameter name="NSR">32</parameter><parameter name="PLF">AB</parameter><parameter name="RES">6</parameter><parameter name="RGN">-1</parameter><parameter name="STR">0</parameter><parameter name="TCL">MakeCompatibleScalar (0, {WSV=1.000000, ARV=0});</parameter><parameter name="TDL">37</parameter><parameter name="RPO">0</parameter></Acquisition_Parameters_Rf><FT_-_Parameters_Rf><parameter name="APF">B3</parameter><parameter name="HFQ">500</parameter><parameter name="LFQ">4000</parameter><parameter name="NLI">0</parameter><parameter name="PHR">24</parameter><parameter name="PHZ">ML</parameter><parameter name="SPZ">NO</parameter><parameter name="ZFF">1</parameter></FT_-_Parameters_Rf><Optic_Parameters_><parameter name="APR">0</parameter><parameter name="APT">Open</parameter><parameter name="BMS">KBr</parameter><parameter name="CHN">Module port</parameter><parameter name="DTC">RT-DLaTGS_IR-Biotyper [Microplate reader]</parameter><parameter name="HPF">0</parameter><parameter name="LPF">10.0</parameter><parameter name="LPV">4000</parameter><parameter name="PGN">0</parameter><parameter name="RDX">0</parameter><parameter name="SRC">MIR</parameter><parameter name="VEL">10.0</parameter><parameter name="SON">Off</parameter></Optic_Parameters_><FT_-_Parameters_><parameter name="APF">B3</parameter><parameter name="HFQ">500</parameter><parameter name="LFQ">4000</parameter><parameter name="NLI">0</parameter><parameter name="PHR">24</parameter><parameter name="PHZ">ML</parameter><parameter name="SPZ">NO</parameter><parameter name="ZFF">1</parameter></FT_-_Parameters_><Acquisition_Parameters_><parameter name="ADT">1</parameter><parameter name="AQM">DD</parameter><parameter name="CFE">0</parameter><parameter name="COR">0</parameter><parameter name="DEL">0</parameter><parameter name="DLY">0</parameter><parameter name="HFW">8000</parameter><parameter name="LFW">0</parameter><parameter name="NSS">32</parameter><parameter name="PLF">AB</parameter><parameter name="RES">6</parameter><parameter name="SOT">0</parameter><parameter name="TCL">MakeCompatibleScalar (0, {WSV=1.000000, ARV=0});</parameter><parameter name="TDL">37</parameter><parameter name="SPO">0</parameter><parameter name="SGN">-1</parameter></Acquisition_Parameters_><Instrument_Parameters_Rf><parameter name="HFL">15800.168544</parameter><parameter name="LFL">0</parameter><parameter name="LWN">15800.168544</parameter><parameter name="ABP">32197</parameter><parameter name="SSP">1</parameter><parameter name="ARG">2</parameter><parameter name="ASG">2</parameter><parameter name="ASS">32</parameter><parameter name="GFW">16</parameter><parameter name="GBW">16</parameter><parameter name="BFW">0</parameter><parameter name="BBW">0</parameter><parameter name="PKA">7263</parameter><parameter name="PKL">4996</parameter><parameter name="PRA">7446</parameter><parameter name="PRL">5001</parameter><parameter name="P2A">1</parameter><parameter name="P2L">1</parameter><parameter name="P2R">1</parameter><parameter name="P2K">1</parameter><parameter name="DAQ">0</parameter><parameter name="AG2">1</parameter><parameter name="SSM">1</parameter><parameter name="RSN">25669</parameter><parameter name="CRR">0</parameter><parameter name="SRT">1654003741.538</parameter><parameter name="DUR">19.6379852294922</parameter><parameter name="TSC">28.9</parameter><parameter name="MVD">0.377427875995636</parameter><parameter name="AN1">0.225808403759726</parameter><parameter name="AN2">0</parameter><parameter name="VSN">2.485 Apr  4 2017</parameter><parameter name="SRN">0085</parameter><parameter name="CAM">0</parameter><parameter name="INS">IR-Biotyper</parameter><parameter name="FOC">69</parameter><parameter name="RDY">1</parameter><parameter name="ARS">32</parameter></Instrument_Parameters_Rf><Sample_Parameters_><parameter name="BLD"></parameter><parameter name="CNM">Admin</parameter><parameter name="CPY"></parameter><parameter name="DPM"></parameter><parameter name="EXP">IRBT_v3_32Scans.XPM</parameter><parameter name="LCT"></parameter><parameter name="SFM">Microplate, HTS-XT</parameter><parameter name="SNM">220531-1301_CGR32F (D_4)_D2_ff8179ab-e3c2-485a-904b-a5bf29dfe6b2.0</parameter><parameter name="XPP">C:\Users\Public\Documents\Bruker\OPUS_8.2.28\XPM</parameter><parameter name="IST">OK</parameter><parameter name="CPG">1252</parameter><parameter name="UID">45164a1a-85e9-4637-9bce-ec7903c68f65</parameter></Sample_Parameters_><Instrument_Parameters_><parameter name="HFL">15800.168544</parameter><parameter name="LFL">0</parameter><parameter name="LWN">15800.168544</parameter><parameter name="ABP">32197</parameter><parameter name="SSP">1</parameter><parameter name="ASG">2</parameter><parameter name="ARG">2</parameter><parameter name="ASS">32</parameter><parameter name="GFW">16</parameter><parameter name="GBW">16</parameter><parameter name="BFW">0</parameter><parameter name="BBW">0</parameter><parameter name="PKA">7559</parameter><parameter name="PKL">4988</parameter><parameter name="PRA">7806</parameter><parameter name="PRL">4993</parameter><parameter name="P2A">1</parameter><parameter name="P2L">1</parameter><parameter name="P2R">1</parameter><parameter name="P2K">1</parameter><parameter name="DAQ">0</parameter><parameter name="AG2">1</parameter><parameter name="SSM">1</parameter><parameter name="RSN">13460</parameter><parameter name="CRR">0</parameter><parameter name="SRT">1654003768.621</parameter><parameter name="DUR">19.6389923095703</parameter><parameter name="TSC">28.9</parameter><parameter name="MVD">0.218886256217957</parameter><parameter name="AN1">0.225824226246005</parameter><parameter name="AN2">0</parameter><parameter name="VSN">2.485 Apr  4 2017</parameter><parameter name="SRN">0085</parameter><parameter name="CAM">0</parameter><parameter name="INS">IR-Biotyper</parameter><parameter name="FOC">69</parameter><parameter name="RDY">1</parameter></Instrument_Parameters_><History/></OPUSDataFile>
