<?xml version="1.0" encoding="UTF-8" ?>
<OPUSDataFile><AB><Ydata ylabel="Absorbance Units"><values byteorder="INTEL" format="FLOAT32" numvalues="3497"> -0.04890066 -0.04893656 -0.04896192 -0.04897729 -0.04897422 -0.04895229 -0.04890974 -0.04884745 -0.04877504 -0.04869542
 -0.04863099 -0.04858249 -0.04856695 -0.04857737 -0.04860689 -0.04864684 -0.04867728 -0.0487016 -0.04871354 -0.04872536
 -0.04874667 -0.048779 -0.04882944 -0.04888241 -0.04893412 -0.04897149 -0.04898881 -0.04898914 -0.04897114 -0.04894689
 -0.04891738 -0.04889212 -0.04887167 -0.04885904 -0.04885388 -0.04885264 -0.04885479 -0.04885475 -0.04885367 -0.04885221
 -0.04885266 -0.04886154 -0.04887827 -0.04890625 -0.04894023 -0.04897594 -0.04900835 -0.04903112 -0.0490451 -0.04904841
 -0.04904526 -0.04903712 -0.04902549 -0.04901086 -0.04899454 -0.04897612 -0.0489619 -0.0489523 -0.04895481 -0.0489699
 -0.04899789 -0.04903831 -0.04908471 -0.04913666 -0.04918874 -0.04924057 -0.04928881 -0.04933121 -0.04936086 -0.04937594
 -0.0493685 -0.04934335 -0.04930107 -0.04925165 -0.049204 -0.0491618 -0.04913165 -0.04910566 -0.04908276 -0.0490545
 -0.04901673 -0.0489746 -0.04892666 -0.04889109 -0.0488691 -0.04888021 -0.04892561 -0.04901353 -0.04914269 -0.04929968
 -0.04947876 -0.04963895 -0.04977454 -0.04983785 -0.04983846 -0.04977 -0.04965745 -0.04954104 -0.04943405 -0.04937285
 -0.04934513 -0.04935798 -0.04938108 -0.04940001 -0.04939248 -0.04934109 -0.04926097 -0.04914799 -0.049044 -0.04895575
 -0.04890873 -0.04890823 -0.04894021 -0.04900427 -0.04906642 -0.04912613 -0.04916897 -0.04919789 -0.04922486 -0.0492509
 -0.04928775 -0.04933058 -0.04937372 -0.04941206 -0.04943256 -0.04943776 -0.04942554 -0.04939914 -0.04936251 -0.04931091
 -0.04923976 -0.04915686 -0.04905731 -0.04897825 -0.04892636 -0.04893865 -0.04902542 -0.04918645 -0.04942724 -0.04968648
 -0.04996154 -0.05011911 -0.05015721 -0.05001341 -0.04971133 -0.04937658 -0.04902167 -0.04876376 -0.04858977 -0.04852645
 -0.04855596 -0.0486659 -0.04882701 -0.04900556 -0.04916456 -0.04925792 -0.04928127 -0.04920672 -0.04908912 -0.0489406
 -0.04881488 -0.04873506 -0.04869354 -0.04869528 -0.04870562 -0.04872043 -0.0487293 -0.04873122 -0.04873878 -0.04875216
 -0.04877674 -0.04881026 -0.04884095 -0.04886607 -0.0488686 -0.04884841 -0.04879503 -0.04871377 -0.04860568 -0.04848465
 -0.048366 -0.04826472 -0.04820028 -0.04817395 -0.04819494 -0.04824879 -0.04833411 -0.0484301 -0.04853179 -0.04862196
 -0.04869732 -0.04874539 -0.04876506 -0.04874158 -0.04867396 -0.04855333 -0.04838093 -0.04817496 -0.04793974 -0.04771306
 -0.04749732 -0.04732289 -0.04718689 -0.04709901 -0.04705152 -0.04703674 -0.04704498 -0.04706137 -0.04708038 -0.04709136
 -0.04709602 -0.04709274 -0.04708301 -0.04706876 -0.04704348 -0.0470053 -0.04695192 -0.04688036 -0.04680746 -0.04673417
 -0.0466806 -0.04664826 -0.04663695 -0.04664576 -0.04665849 -0.04667464 -0.04668192 -0.04668295 -0.04668128 -0.04667991
 -0.04668939 -0.04670841 -0.04674104 -0.04678084 -0.04682162 -0.04685825 -0.04688057 -0.0468988 -0.04691253 -0.04694382
 -0.04700376 -0.04709637 -0.04723055 -0.04737487 -0.04752757 -0.04764727 -0.04772891 -0.0477512 -0.04771262 -0.04759021
 -0.04738406 -0.04708978 -0.04671708 -0.04633104 -0.04594171 -0.0456276 -0.04538284 -0.0452347 -0.04516687 -0.04516616
 -0.04521071 -0.04526851 -0.04532478 -0.04535209 -0.04535802 -0.04533837 -0.04530636 -0.04526933 -0.04522355 -0.04517229
 -0.045095 -0.0449876 -0.0448413 -0.0446521 -0.04444698 -0.04422705 -0.04403343 -0.04386739 -0.0437527 -0.04368652
 -0.04366441 -0.04367606 -0.04367996 -0.04366367 -0.04356471 -0.04339872 -0.04315731 -0.04287903 -0.04261648 -0.0423733
 -0.04217988 -0.04200013 -0.04182203 -0.04161346 -0.04135116 -0.04104914 -0.04070055 -0.04035451 -0.04002018 -0.03972324
 -0.03947156 -0.03923284 -0.03900639 -0.03871928 -0.03837008 -0.03792816 -0.03740647 -0.03688663 -0.03637781 -0.03596877
 -0.03564124 -0.03539191 -0.03520099 -0.0350316 -0.03487051 -0.0346914 -0.03447249 -0.03418635 -0.0338189 -0.03334434
 -0.03279417 -0.03217381 -0.03151592 -0.03083788 -0.03011914 -0.02935655 -0.02854505 -0.02767937 -0.02680996 -0.02593977
 -0.02510931 -0.02431919 -0.02357471 -0.02287505 -0.02221837 -0.02160274 -0.02102159 -0.02046883 -0.01992445 -0.01938489
 -0.01883684 -0.01827264 -0.01768759 -0.01704498 -0.01631036 -0.0154598 -0.01443985 -0.01334962 -0.01220671 -0.01113652
 -0.01019711 -0.009362271 -0.008644138 -0.007951089 -0.007272077 -0.006562705 -0.00581805 -0.005058294 -0.004285867 -0.003555021
 -0.002864464 -0.002239378 -0.001657986 -0.001048489 -0.0003778564 0.0005035572 0.001557813 0.002813174 0.0041467 0.00538962
 0.006517331 0.007420994 0.008200995 0.008885391 0.009566862 0.01030289 0.01109739 0.01197309 0.0128631 0.01375576
 0.0146181 0.01543928 0.01626573 0.01709927 0.01800463 0.01898202 0.02002363 0.02111919 0.02218171 0.0232102
 0.02414825 0.02501563 0.02583871 0.02663313 0.0274447 0.02826918 0.02912153 0.0299887 0.03086584 0.03173663
 0.03258956 0.03341416 0.03419317 0.03496459 0.03572492 0.03656346 0.03750229 0.03856668 0.03977485 0.04099439
 0.04221846 0.04330235 0.04424461 0.04505592 0.04574904 0.04643085 0.04710555 0.04785305 0.04865695 0.04951645
 0.05040597 0.05127057 0.05211009 0.05288851 0.05365224 0.05442569 0.05526348 0.05622327 0.0572776 0.05844702
 0.05962179 0.06076911 0.06183678 0.06279977 0.06370108 0.06454156 0.06537335 0.06620073 0.06704263 0.06789936
 0.06876872 0.06964989 0.0705345 0.07142393 0.07231805 0.07322259 0.07415556 0.07511657 0.07612045 0.07714555
 0.07817277 0.07917369 0.08010966 0.08098218 0.08177354 0.08251811 0.08322573 0.08392612 0.08463358 0.08534668
 0.08606859 0.08678548 0.08749384 0.08820627 0.08892258 0.08968042 0.09048078 0.0913367 0.09224281 0.09316047
 0.09408376 0.09496216 0.0958015 0.09658971 0.09734103 0.09807835 0.09880956 0.09955855 0.1003169 0.1010883
 0.1018537 0.1026001 0.1033201 0.1040015 0.1046663 0.1053156 0.1059825 0.1066754 0.1074055 0.108177
 0.1089761 0.1098027 0.1106348 0.1114714 0.1122875 0.1130821 0.1138346 0.114547 0.1152163 0.1158472
 0.1164514 0.1170332 0.1176055 0.118172 0.1187429 0.1193206 0.1199115 0.120514 0.1211275 0.1217548
 0.1223957 0.1230571 0.1237453 0.1244439 0.1251548 0.1258362 0.1264807 0.1270812 0.1276344 0.128197
 0.1287717 0.1294105 0.130108 0.1308424 0.1316024 0.1323223 0.1330018 0.1336031 0.1341403 0.1346219
 0.135066 0.1355023 0.1359399 0.1364017 0.1368774 0.1373706 0.1378581 0.1383294 0.1387725 0.1391786
 0.1395567 0.1399053 0.1402454 0.1405787 0.1409291 0.1412988 0.1417002 0.142133 0.1425832 0.1430494
 0.1435112 0.1439729 0.1444441 0.14493 0.1454566 0.1460146 0.1466014 0.1471973 0.1477717 0.1483162
 0.1488093 0.1492579 0.1496611 0.1500251 0.1503533 0.1506467 0.1509052 0.1511349 0.1513354 0.151522
 0.151696 0.1518729 0.1520541 0.1522472 0.1524524 0.1526723 0.1529073 0.1531642 0.1534433 0.153751
 0.1540815 0.1544228 0.1547643 0.1550761 0.1553575 0.1555894 0.1557901 0.1559683 0.1561461 0.1563448
 0.1565643 0.1568157 0.1570706 0.1573243 0.1575446 0.1577204 0.157854 0.1579405 0.1580214 0.1580997
 0.158202 0.1583283 0.1584426 0.1585403 0.1585609 0.158511 0.158385 0.1582037 0.1580274 0.1578698
 0.1577939 0.1577876 0.157866 0.1579968 0.1581544 0.1583122 0.1584381 0.1585404 0.1586075 0.1586813
 0.1587738 0.158912 0.1591119 0.1593349 0.1595831 0.1597724 0.1598956 0.1599043 0.1597973 0.1596091
 0.1593462 0.1590853 0.1588262 0.1586093 0.1584238 0.1582545 0.1580995 0.1579425 0.1577992 0.1576886
 0.1576145 0.1575981 0.1576046 0.1576195 0.1576056 0.1575318 0.1574156 0.1572474 0.1570895 0.1569545
 0.1568812 0.1568814 0.1569321 0.1570347 0.1571259 0.1572026 0.1572037 0.1571298 0.1569583 0.1566993
 0.1563867 0.1560369 0.15572 0.1554432 0.1552622 0.1551596 0.1551408 0.1551669 0.155202 0.1552133
 0.1551602 0.1550501 0.1548675 0.15466 0.154438 0.1542449 0.1540947 0.1539943 0.1539471 0.1539461
 0.1539901 0.1540947 0.1542607 0.1545082 0.1548327 0.1552025 0.1556018 0.1559332 0.1561852 0.1562606
 0.1561804 0.1559286 0.1555642 0.1551638 0.1547828 0.1545179 0.1543624 0.1543586 0.1544274 0.1545494
 0.1546324 0.1546386 0.1545273 0.1542757 0.1539106 0.1534279 0.1528961 0.1523193 0.151768 0.1512455
 0.1507924 0.1504076 0.1500959 0.1498531 0.1496624 0.1495201 0.1494061 0.1493178 0.1492418 0.1491715
 0.1490968 0.1489962 0.1488494 0.1486229 0.1482841 0.1478214 0.1472087 0.1464925 0.145672 0.144835
 0.1439991 0.1432355 0.1425596 0.1419873 0.1415235 0.141134 0.1408167 0.1405104 0.1402124 0.1398697
 0.1394877 0.1390639 0.1386122 0.1381797 0.1377686 0.1374149 0.137093 0.1367828 0.1364536 0.1360578
 0.135602 0.1350639 0.1344972 0.1339164 0.1333863 0.1329351 0.1325871 0.1323626 0.1322109 0.1321356
 0.1320236 0.1318665 0.1315656 0.1311164 0.1305216 0.1297903 0.1290253 0.1282358 0.1275294 0.1268973
 0.1263707 0.1259286 0.1255391 0.1251877 0.1248372 0.1244854 0.124116 0.1237308 0.1233258 0.1229049
 0.1224671 0.1220239 0.1215778 0.1211434 0.1207263 0.1203267 0.1199479 0.1195681 0.1191863 0.1187771
 0.1183393 0.1178712 0.1173751 0.1168772 0.1163798 0.1159115 0.1154691 0.1150588 0.1146726 0.1142965
 0.1139244 0.1135404 0.1131435 0.1127267 0.1122922 0.1118387 0.1113713 0.110891 0.1104056 0.1099185
 0.1094335 0.1089534 0.1084727 0.1079913 0.1075004 0.1069987 0.1064866 0.1059641 0.1054417 0.1049201
 0.1044101 0.1039116 0.1034315 0.1029685 0.102523 0.1020914 0.1016657 0.1012425 0.1008109 0.100375
 0.09993213 0.09949452 0.09906869 0.09866957 0.09830492 0.09799007 0.09773329 0.09753831 0.09741458 0.09732181
 0.09726255 0.09714424 0.09695938 0.09662748 0.09614424 0.09552179 0.09476862 0.09399077 0.09319916 0.09251406
 0.09193046 0.09150368 0.09120287 0.09099299 0.09082742 0.0906146 0.09033132 0.08990208 0.0893685 0.08872509
 0.08805559 0.08740652 0.08681697 0.08632296 0.08588357 0.08549607 0.08511899 0.08473822 0.08438878 0.08407016
 0.08385373 0.08374323 0.08374634 0.08385572 0.08398282 0.08411489 0.08412962 0.08402868 0.08374389 0.08330481
 0.08273924 0.08209036 0.08144407 0.08081514 0.08026371 0.07975625 0.07928805 0.07882213 0.07832763 0.07782105
 0.07729522 0.0767977 0.07634353 0.07593783 0.07558838 0.07525229 0.07492535 0.07458816 0.07423947 0.07391481
 0.07361604 0.07337968 0.0732002 0.07306438 0.07296316 0.07285541 0.07274114 0.0725979 0.07243472 0.07225746
 0.07207072 0.0718871 0.07169249 0.07148709 0.07123502 0.0709193 0.07050749 0.06997558 0.06934366 0.06859946
 0.06783667 0.06706351 0.06638838 0.06582604 0.06539921 0.0651101 0.0648663 0.06466076 0.06437254 0.06400659
 0.0635248 0.06295071 0.06234771 0.06173559 0.06119897 0.06072969 0.06035828 0.06005355 0.05979263 0.05954772
 0.05928705 0.05900335 0.0586807 0.05833314 0.05795825 0.05758702 0.05722513 0.05690369 0.0566322 0.05640171
 0.05621595 0.05601129 0.05578431 0.05547811 0.05509539 0.05466093 0.05418545 0.05375216 0.05335797 0.05304281
 0.05278125 0.05253034 0.0522735 0.05195447 0.05159368 0.05118725 0.05077346 0.0503833 0.05003697 0.04975537
 0.04954046 0.04939585 0.04932695 0.04933545 0.04942696 0.04960565 0.04985224 0.05016813 0.05049932 0.05084296
 0.05112588 0.05134502 0.05144043 0.05141581 0.05125909 0.05098484 0.05063733 0.05023432 0.0498423 0.04946738
 0.04915278 0.04888835 0.04868083 0.04851335 0.04837448 0.04825217 0.04813547 0.04802305 0.04791077 0.04780543
 0.0477078 0.04762436 0.04755584 0.04750865 0.04748197 0.04749947 0.04756223 0.04771947 0.04797319 0.04836488
 0.04888859 0.04953153 0.05027832 0.05106482 0.05188011 0.05266216 0.05341581 0.05411958 0.05478663 0.05542522
 0.0560427 0.05664879 0.05724384 0.05782975 0.05840891 0.0589818 0.05955385 0.06012813 0.06069991 0.06127196
 0.06181679 0.06233348 0.06278006 0.06315392 0.06342902 0.06360635 0.06369774 0.06370726 0.0636676 0.06357976
 0.06346361 0.06332014 0.06315639 0.06298608 0.06283173 0.0627156 0.06267696 0.06271772 0.06286065 0.06307419
 0.06334836 0.063652 0.06396469 0.06429524 0.06463771 0.06502817 0.06547331 0.06598883 0.06657985 0.06721999
 0.06790847 0.06858847 0.06925601 0.06984175 0.07034208 0.07069627 0.07090829 0.07095628 0.07085618 0.07063514
 0.07031059 0.06992815 0.06948895 0.06901782 0.0684939 0.06791303 0.06724104 0.06646002 0.06553731 0.06445375
 0.06320079 0.06176429 0.06018741 0.05846692 0.05669922 0.05489124 0.05314843 0.05147797 0.0499366 0.048524
 0.04723597 0.04606879 0.04499555 0.04401515 0.04311165 0.04228101 0.04150934 0.04078283 0.04007201 0.03936431
 0.03862805 0.03787149 0.03708573 0.03629808 0.03552034 0.03477771 0.03408288 0.03344994 0.03288431 0.03239652
 0.03198903 0.03166885 0.03143717 0.03129536 0.03124354 0.03128491 0.03141887 0.03164001 0.03194074 0.03227108
 0.03261423 0.03287484 0.03304663 0.03305478 0.03292694 0.03266757 0.03233176 0.03198579 0.03167908 0.03147928
 0.03140166 0.03148172 0.03168986 0.03203137 0.03244067 0.03290648 0.03335474 0.03377178 0.03410367 0.03434337
 0.03445606 0.03443959 0.03424882 0.03388012 0.03326576 0.03240434 0.03124497 0.02980441 0.02811081 0.02620663
 0.02421108 0.02216912 0.02022209 0.01837631 0.016707 0.01517226 0.01376425 0.01243588 0.01115087 0.009902678
 0.008675207 0.007493624 0.00636263 0.0052979 0.004305193 0.003377174 0.002514171 0.001703323 0.0009437831 0.0002283764
 -0.0004433309 -0.001078435 -0.001677973 -0.002253006 -0.002804182 -0.003341482 -0.003861824 -0.004363613 -0.004840151 -0.005277275
 -0.005673847 -0.006017356 -0.006325054 -0.006602862 -0.006880673 -0.007179904 -0.007512878 -0.007897089 -0.008304205 -0.008734751
 -0.009138418 -0.009504565 -0.009809482 -0.01004565 -0.01024272 -0.01040152 -0.01057549 -0.01076592 -0.01099401 -0.01125516
 -0.01152393 -0.01179799 -0.01205018 -0.01229047 -0.01253076 -0.01278347 -0.01308167 -0.01341948 -0.01380866 -0.01422326
 -0.0146464 -0.01505208 -0.01541869 -0.01573537 -0.0159902 -0.01618991 -0.01632997 -0.01643874 -0.01651728 -0.01661091
 -0.01672513 -0.01689011 -0.01710913 -0.01736749 -0.01766324 -0.0179539 -0.01823892 -0.01849355 -0.01872247 -0.0189329
 -0.01912801 -0.01932169 -0.01951065 -0.01969517 -0.01987149 -0.02003361 -0.02018289 -0.02031868 -0.02044198 -0.02055452
 -0.02065204 -0.020732 -0.02079594 -0.02083994 -0.02088578 -0.02093474 -0.02101867 -0.02114259 -0.0213157 -0.02153987
 -0.02178654 -0.02205369 -0.02229947 -0.02252419 -0.02270947 -0.02286093 -0.02299215 -0.0231093 -0.0232377 -0.02337659
 -0.02353923 -0.02371477 -0.02389625 -0.02406912 -0.02421551 -0.02433386 -0.02441235 -0.02447395 -0.02452207 -0.02458973
 -0.02468876 -0.02483205 -0.0250273 -0.02525651 -0.02551982 -0.02578717 -0.02605639 -0.02630911 -0.02654494 -0.02676155
 -0.02695972 -0.02714421 -0.02731591 -0.02748066 -0.02763989 -0.02780056 -0.02796363 -0.02813519 -0.02831275 -0.02849672
 -0.02868103 -0.02885983 -0.02903024 -0.02918683 -0.02933569 -0.02947729 -0.02962043 -0.02976891 -0.02992262 -0.03008327
 -0.03024188 -0.03039743 -0.03054472 -0.03068309 -0.03081612 -0.0309439 -0.03106886 -0.03119 -0.03129989 -0.0313977
 -0.0314743 -0.03153305 -0.03157704 -0.03161379 -0.03165895 -0.0317183 -0.03180707 -0.03192472 -0.03207751 -0.03225867
 -0.03246752 -0.03269209 -0.03292863 -0.03316249 -0.03338868 -0.03359775 -0.0337858 -0.0339563 -0.03410835 -0.03425463
 -0.03439591 -0.03454302 -0.03469628 -0.03485903 -0.03503082 -0.03520966 -0.03539466 -0.03558089 -0.03576759 -0.03594968
 -0.03612771 -0.03630036 -0.03646822 -0.03663232 -0.03679053 -0.03694153 -0.03708255 -0.03721045 -0.03732718 -0.03743191
 -0.03753062 -0.03762501 -0.03771869 -0.0378127 -0.03790825 -0.0380053 -0.0381076 -0.03821537 -0.03833266 -0.03845944
 -0.03859283 -0.03873214 -0.03886959 -0.0390056 -0.03913732 -0.03926708 -0.03940037 -0.03953855 -0.03968796 -0.03984591
 -0.04001228 -0.04018179 -0.04034936 -0.04051141 -0.04066323 -0.04080629 -0.04093928 -0.04106753 -0.04119234 -0.04131789
 -0.04144569 -0.04157513 -0.04170654 -0.04183644 -0.04196457 -0.04208948 -0.04221116 -0.04233041 -0.04244697 -0.04255891
 -0.04266565 -0.0427628 -0.04285125 -0.04293049 -0.04300344 -0.04307569 -0.04314939 -0.0432304 -0.04331799 -0.04341354
 -0.04351588 -0.04362433 -0.04373911 -0.04386056 -0.04398747 -0.04412033 -0.04425415 -0.04438806 -0.04451788 -0.04464272
 -0.04476267 -0.04487768 -0.04498806 -0.04509369 -0.04519062 -0.04527885 -0.0453559 -0.04542349 -0.04548796 -0.04555178
 -0.04562642 -0.04571128 -0.04581162 -0.04592337 -0.04604299 -0.04616724 -0.04629144 -0.04641463 -0.04653527 -0.04665152
 -0.0467625 -0.0468657 -0.04695925 -0.04704625 -0.0471261 -0.04720741 -0.04729136 -0.04738306 -0.0474833 -0.04758791
 -0.04769659 -0.04780113 -0.04790142 -0.04799314 -0.04807723 -0.04815577 -0.04822996 -0.04830482 -0.04838024 -0.04845911
 -0.04853904 -0.04861813 -0.04869362 -0.04876128 -0.04882208 -0.04887415 -0.04892329 -0.04897147 -0.04902381 -0.04908323
 -0.04914817 -0.04921945 -0.04929094 -0.04936155 -0.04943034 -0.0494968 -0.04956883 -0.04964676 -0.04973677 -0.04983782
 -0.04994298 -0.05005023 -0.05014515 -0.05022861 -0.05029447 -0.0503475 -0.05039443 -0.05043968 -0.05049302 -0.05055514
 -0.05063084 -0.05071775 -0.05081639 -0.0509221 -0.05103356 -0.05114462 -0.0512532 -0.0513546 -0.05144696 -0.05153093
 -0.05160594 -0.05167719 -0.05174498 -0.05181515 -0.051888 -0.05196783 -0.05205454 -0.05214909 -0.05225044 -0.05235435
 -0.05245911 -0.0525571 -0.05264777 -0.05272557 -0.05279263 -0.05284919 -0.05289866 -0.05294449 -0.05298936 -0.05303606
 -0.05308624 -0.05314117 -0.05320223 -0.05327015 -0.05334558 -0.05342906 -0.05351913 -0.05361585 -0.05371643 -0.05382067
 -0.05392615 -0.05403273 -0.05413733 -0.05423971 -0.05433602 -0.05442639 -0.05450914 -0.05458516 -0.05465628 -0.05472325
 -0.05478876 -0.05485258 -0.0549153 -0.05497714 -0.05503805 -0.05509975 -0.05516339 -0.05523037 -0.0553023 -0.05537727
 -0.05545574 -0.0555324 -0.05560635 -0.05567281 -0.05573061 -0.05578032 -0.05582158 -0.05586115 -0.05589938 -0.05594372
 -0.05599401 -0.05605178 -0.05611589 -0.05618123 -0.05624697 -0.05630727 -0.05636302 -0.05641277 -0.0564589 -0.05650445
 -0.05655079 -0.05660103 -0.05665387 -0.05670967 -0.05676603 -0.05682173 -0.05687559 -0.05692697 -0.05697517 -0.05701995
 -0.05706085 -0.05709754 -0.05713186 -0.05716381 -0.05719759 -0.0572334 -0.05727325 -0.05731714 -0.05736554 -0.05741904
 -0.05748134 -0.0575525 -0.05763622 -0.05772856 -0.05782375 -0.05791591 -0.05799212 -0.05805338 -0.05809335 -0.05812269
 -0.05814654 -0.05817488 -0.05821569 -0.05826764 -0.0583336 -0.05840321 -0.058475 -0.05853922 -0.05859389 -0.05863609
 -0.05866499 -0.05868632 -0.05870047 -0.05872034 -0.05874678 -0.05879384 -0.05886143 -0.05895684 -0.05907875 -0.05922645
 -0.05939936 -0.05959491 -0.05981538 -0.06006273 -0.06034002 -0.0606519 -0.06099807 -0.06138024 -0.06179577 -0.06224235
 -0.06272358 -0.0632381 -0.06379899 -0.06440926 -0.06507717 -0.06580718 -0.06658021 -0.0673971 -0.06820711 -0.06900733
 -0.06973261 -0.07037958 -0.07089101 -0.07126426 -0.07145616 -0.07146391 -0.07125165 -0.07082694 -0.07017087 -0.06933858
 -0.06838951 -0.06741545 -0.06654185 -0.06581028 -0.06530026 -0.06498855 -0.06488843 -0.06495353 -0.06517746 -0.06549639
 -0.06590364 -0.06630331 -0.06668241 -0.06695767 -0.06711661 -0.06717397 -0.06713049 -0.06705825 -0.06695893 -0.0668743
 -0.06680027 -0.06673822 -0.0666797 -0.06659748 -0.06648567 -0.06631327 -0.06609005 -0.06581462 -0.06550581 -0.06518546
 -0.06486027 -0.06454285 -0.0642319 -0.06392652 -0.06363774 -0.0633673 -0.06313206 -0.06293826 -0.06278501 -0.0626752
 -0.06258781 -0.06252164 -0.06245399 -0.06238367 -0.06230057 -0.06220527 -0.06210136 -0.06199008 -0.06187988 -0.06177137
 -0.06167091 -0.06157885 -0.06149914 -0.06143172 -0.06137881 -0.0613384 -0.06130971 -0.06128924 -0.06127372 -0.06126215
 -0.06125284 -0.061247 -0.06124517 -0.06124641 -0.06125108 -0.06125555 -0.06125908 -0.06126129 -0.06126191 -0.06126375
 -0.06126693 -0.06127299 -0.06128196 -0.06129415 -0.06130979 -0.06133085 -0.06135696 -0.06138842 -0.06142342 -0.06145767
 -0.06149053 -0.06151803 -0.0615432 -0.06156783 -0.06159471 -0.061628 -0.06166416 -0.06170372 -0.06173859 -0.06176563
 -0.06178105 -0.06178223 -0.0617745 -0.06175789 -0.06174067 -0.06172379 -0.06171034 -0.06170053 -0.06169247 -0.0616862
 -0.06168166 -0.0616793 -0.06168213 -0.06168989 -0.0617035 -0.06172168 -0.06174187 -0.06176316 -0.06178288 -0.06180084
 -0.06181566 -0.0618279 -0.06183696 -0.06184546 -0.06185446 -0.06186648 -0.06188382 -0.06190245 -0.06192268 -0.06193587
 -0.06194005 -0.06193453 -0.06191832 -0.06190282 -0.06188862 -0.06188698 -0.06189775 -0.06192154 -0.06195727 -0.06199892
 -0.06204597 -0.06209362 -0.06214157 -0.06218716 -0.06222939 -0.06226551 -0.06229493 -0.06231525 -0.0623286 -0.06233501
 -0.06233919 -0.06234342 -0.06235186 -0.06236705 -0.06238892 -0.0624184 -0.06245197 -0.06248935 -0.06252662 -0.06256334
 -0.06259701 -0.06262745 -0.062654 -0.06267683 -0.06269841 -0.06271898 -0.06274158 -0.06276558 -0.06279033 -0.06281503
 -0.06283664 -0.06285702 -0.06287721 -0.06290074 -0.06293288 -0.06297337 -0.06302503 -0.0630825 -0.06314362 -0.06320441
 -0.06326219 -0.06331825 -0.0633724 -0.06342623 -0.06348039 -0.06353249 -0.06358232 -0.06362795 -0.0636692 -0.06370981
 -0.06375007 -0.06379575 -0.06384632 -0.06390196 -0.06396099 -0.06401712 -0.06406977 -0.06411338 -0.06415058 -0.06418267
 -0.06421374 -0.06424947 -0.06429108 -0.06434242 -0.06440005 -0.06446348 -0.06452841 -0.06459264 -0.06465553 -0.06471609
 -0.06477684 -0.06483818 -0.06490123 -0.06496638 -0.06503088 -0.06509459 -0.06515274 -0.06520528 -0.06525061 -0.0652894
 -0.06532498 -0.06535832 -0.06539497 -0.06543498 -0.0654814 -0.06553344 -0.06559104 -0.06565367 -0.0657207 -0.06579179
 -0.0658669 -0.06594437 -0.06602386 -0.06610198 -0.06617738 -0.06624781 -0.06631213 -0.0663711 -0.0664244 -0.06647509
 -0.06652342 -0.06657228 -0.06662187 -0.06667397 -0.06672855 -0.06678547 -0.06684444 -0.06690367 -0.06696289 -0.06701998
 -0.06707528 -0.06712819 -0.06717999 -0.06723236 -0.06728697 -0.06734674 -0.06741185 -0.06748412 -0.06756084 -0.06764148
 -0.06772212 -0.06780104 -0.06787629 -0.06794696 -0.06801277 -0.06807362 -0.06812895 -0.06817852 -0.06822371 -0.06826453
 -0.06830698 -0.06835139 -0.0684041 -0.06846456 -0.06853262 -0.06860682 -0.06868143 -0.06875589 -0.06882562 -0.06889127
 -0.06895212 -0.06900816 -0.06905933 -0.06910489 -0.06914375 -0.06917706 -0.06920422 -0.06922998 -0.06925571 -0.06928629
 -0.06932363 -0.06936857 -0.06942187 -0.06948087 -0.06954542 -0.06961297 -0.06968337 -0.06975559 -0.06982953 -0.06990337
 -0.06997685 -0.07004726 -0.0701146 -0.07017725 -0.07023595 -0.07029156 -0.07034528 -0.07039952 -0.07045533 -0.07051533
 -0.07057881 -0.07064679 -0.07071593 -0.07078478 -0.07085029 -0.07091034 -0.07096587 -0.07101629 -0.07106508 -0.07111277
 -0.07116184 -0.07121257 -0.07126676 -0.07132456 -0.07138756 -0.07145563 -0.07152647 -0.07159925 -0.07166697 -0.0717294
 -0.07178107 -0.07182401 -0.07186012 -0.07189272 -0.07192892 -0.07196981 -0.07202054 -0.07207806 -0.07214198 -0.07220802
 -0.07227304 -0.07233627 -0.07239617 -0.07245535 -0.07251465 -0.07257385 -0.07263353 -0.07268919 -0.0727402 -0.07278559
 -0.07282513 -0.07286518 -0.07290594 -0.07295194 -0.07300229 -0.07305283 -0.07310262 -0.07314505 -0.07318153 -0.07321181
 -0.07323881 -0.07326794 -0.0733004 -0.07334048 -0.0733866 -0.07343912 -0.07349557 -0.07355479 -0.07361434 -0.07367345
 -0.07372867 -0.07377928 -0.07382113 -0.07385306 -0.07387472 -0.07388549 -0.0738911 -0.07389184 -0.07389429 -0.07389856
 -0.07390659 -0.07391813 -0.07393226 -0.07394899 -0.07396815 -0.07398944 -0.07401216 -0.07403574 -0.07405842 -0.07408096
 -0.07410311 -0.07412715 -0.07415535 -0.07418804 -0.07422722 -0.07426834 -0.07431088 -0.07434762 -0.0743762 -0.07439309
 -0.07439639 -0.07439098 -0.07437674 -0.07436337 -0.07435153 -0.07434615 -0.074347 -0.07434922 -0.07435222 -0.07434854
 -0.07433945 -0.07432542 -0.0743097 -0.07430145 -0.07430229 -0.07432076 -0.07435328 -0.07440037 -0.07445368 -0.07450661
 -0.07455159 -0.07458089 -0.07459545 -0.07459202 -0.07458064 -0.07456309 -0.074549 -0.0745412 -0.07454012 -0.07454664
 -0.07455415 -0.07456227 -0.07456541 -0.07456362 -0.0745585 -0.0745509 -0.07454769 -0.0745493 -0.07456148 -0.07458363
 -0.07461765 -0.07466146 -0.07471355 -0.07476833 -0.07481911 -0.07485858 -0.07487615 -0.07487357 -0.07484534 -0.07480751
 -0.07476501 -0.07473179 -0.07471523 -0.0747101 -0.07471807 -0.07472266 -0.07472172 -0.07470809 -0.07468085 -0.07464761
 -0.07460891 -0.07457586 -0.07454836 -0.07453109 -0.07452272 -0.0745203 -0.07452218 -0.07452211 -0.07451991 -0.07451184
 -0.07449973 -0.07448451 -0.0744675 -0.07445055 -0.07443313 -0.07441545 -0.07439705 -0.07437769 -0.07435746 -0.07433665
 -0.07431392 -0.07428925 -0.07426044 -0.07422718 -0.07418834 -0.07414376 -0.07409593 -0.07404526 -0.07400071 -0.07396303
 -0.07394347 -0.07394023 -0.07395363 -0.07397709 -0.07399283 -0.07399548 -0.07396322 -0.07390302 -0.07381209 -0.07370681
 -0.07360253 -0.07350601 -0.07342852 -0.0733623 -0.07330754 -0.07325333 -0.07319583 -0.07313149 -0.07305804 -0.07298104
 -0.07290027 -0.07282695 -0.07276177 -0.07271629 -0.07269078 -0.07268987 -0.07271147 -0.07274293 -0.07277897 -0.07278893
 -0.07277108 -0.07270052 -0.07258873 -0.07244425 -0.07228217 -0.07212808 -0.07198539 -0.07186709 -0.07176936 -0.07169359
 -0.07163543 -0.07159446 -0.07156283 -0.07153957 -0.07151231 -0.07147867 -0.07142958 -0.07136338 -0.07127763 -0.07117192
 -0.07104764 -0.07090515 -0.07075261 -0.07059111 -0.07043355 -0.07027978 -0.07013647 -0.07000183 -0.06987399 -0.0697522
 -0.06963464 -0.06951969 -0.06940588 -0.06928787 -0.06915937 -0.06901936 -0.06886266 -0.06869941 -0.06853294 -0.06837045
 -0.06821709 -0.06806468 -0.06791282 -0.06775143 -0.06757787 -0.06739977 -0.06721722 -0.06704623 -0.06688692 -0.06673617
 -0.06659072 -0.06642154 -0.06622672 -0.06597845 -0.06568547 -0.06535701 -0.06500532 -0.06466226 -0.06432543 -0.06400752
 -0.06369523 -0.06337892 -0.06305329 -0.06270847 -0.06235562 -0.06199679 -0.0616434 -0.06130288 -0.06096458 -0.06063291
 -0.06026381 -0.05985534 -0.05934276 -0.05872009 -0.05796869 -0.05709 -0.05614744 -0.05514236 -0.05411931 -0.05306384
 -0.05193397 -0.05071385 -0.04932903 -0.04778871 -0.04606408 -0.04420032 -0.04223987 -0.04024068 -0.03827428 -0.0363717
 -0.0345813 -0.0328877 -0.03129958 -0.02978117 -0.02831521 -0.0269168 -0.02557711 -0.02437341 -0.02331683 -0.02243938
 -0.0217467 -0.0211919 -0.02077282 -0.0204475 -0.02021791 -0.0200859 -0.02005253 -0.0201267 -0.0203005 -0.02055927
 -0.02088583 -0.02124209 -0.02160786 -0.0219363 -0.02222485 -0.02245118 -0.02262917 -0.02276334 -0.02285906 -0.0229218
 -0.02294626 -0.02293325 -0.02287238 -0.02276679 -0.02257764 -0.02230645 -0.02186133 -0.02123421 -0.02037799 -0.01929519
 -0.01812855 -0.01688777 -0.01573 -0.01463553 -0.01359187 -0.01257716 -0.01151539 -0.01040778 -0.00922027 -0.007962417
 -0.006642792 -0.00524215 -0.00376086 -0.002131354 -0.000309527 0.001754737 0.004128065 0.006699764 0.009476892 0.01222871
 0.01490261 0.01738264 0.01963792 0.0216959 0.02355357 0.02529659 0.02693126 0.02860472 0.03033157 0.03232561
 0.03456592 0.03710103 0.03982716 0.04242896 0.04488767 0.04697663 0.04881654 0.05048972 0.05208368 0.0537294
 0.05542705 0.05721962 0.05907556 0.06098856 0.06294096 0.06493542 0.06691423 0.06887019 0.07073235 0.0724835
 0.07414722 0.07572337 0.07725548 0.07874311 0.08011092 0.08135233 0.08236319 0.08316172 0.08377581 0.08424198
 0.08469597 0.0851388 0.08565845 0.08618696 0.08664851 0.08703211 0.08727352 0.08745918 0.08764026 0.08784343
 0.08811556 0.08837502 0.08860506 0.08874226 0.08875869 0.08869113 0.08853509 0.08838208 0.08824024 0.08815496
 0.08812644 0.08808136 0.08801504 0.08784862 0.08759239 0.08725543 0.08685291 0.08643377 0.08601239 0.08564172
 0.08533 0.0851131 0.08498869 0.08495945 0.08504617 0.08525026 0.08563526 0.08623706 0.08707679 0.08819184
 0.08947351 0.09090854 0.09238755 0.09388312 0.09542759 0.09701867 0.0987458 0.1006126 0.1026478 0.1048482
 0.1071893 0.1096699 0.112273 0.1149981 0.1178367 0.1207848 0.1238276 0.1269676 0.1302023 0.1335337
 0.1369698 0.1404906 0.1440897 0.1477343 0.1514059 0.1550883 0.1587716 0.1624541 0.166138 0.1697982
 0.1734374 0.1769829 0.1804292 0.1837168 0.1868444 0.1898749 0.1928188 0.1958291 0.1988822 0.2019569
 0.2049789 0.2076755 0.2100497 0.2119534 0.2134763 0.2147081 0.2156651 0.2164154 0.2169 0.2170861
 0.2169677 0.2165328 0.2157878 0.2147558 0.2133272 0.21148 0.2091363 0.2062476 0.2030928 0.1996903
 0.1962747 0.1928546 0.1893243 0.1856777 0.1818087 0.1777318 0.1734717 0.169041 0.1645097 0.1598429
 0.1550183 0.1499506 0.1444551 0.1386107 0.1323197 0.126021 0.1200402 0.1145451 0.1097956 0.1054598
 0.1014738 0.09759896 0.09374324 0.08993873 0.08617184 0.08254888 0.07908247 0.07576354 0.07259115 0.06947807
 0.06642368 0.06338823 0.06038359 0.05745195 0.05460506 0.05190814 0.04935443 0.04696635 0.04471914 0.04258726
 0.04054437 0.03855632 0.0365973 0.034646 0.03266092 0.0306134 0.02848734 0.02623851 0.02401941 0.02184381
 0.01991301 0.01828133 0.01687192 0.01568852 0.01455553 0.01346476 0.01235529 0.01123261 0.01014164 0.00908623
 0.00811351 0.007213236 0.006371073 0.005587125 0.004845772 0.004173527 0.003604845 0.003159564 0.002882031 0.002749402
 0.002762058 0.00288686 0.003103644 0.003404754 0.003779777 0.004243119 0.004787763 0.005473601 0.006295554 0.007410461
 0.008830949 0.01070238 0.01303043 0.01562427 0.01845415 0.02109575 0.0235563 0.02565524 0.02743263 0.02893563
 0.0301772 0.03120342 0.03202761 0.03266734 0.03319637 0.03368148 0.03423726 0.03499272 0.03593791 0.03714523
 0.03840795 0.03965537 0.04080256 0.04179052 0.04274403 0.04367101 0.04469779 0.04584124 0.04710918 0.04850217
 0.04992488 0.05137403 0.0527759 0.05414423 0.05551232 0.05690773 0.05844612 0.06013525 0.06206767 0.06419244
 0.06647296 0.06885553 0.07124893 0.07367966 0.07613525 0.07865875 0.08128429 0.08398203 0.08675605 0.08954399
 0.09232207 0.09510518 0.09788337 0.1007543 0.1037297 0.1068325 0.1100634 0.1132049 0.1162378 0.1188563
 0.121067 0.1227522 0.1239318 0.1246223 0.1248116 0.1244829 0.1236112 0.1221366 0.1200802 0.1174228
 0.1142496 0.1106072 0.1065982 0.1022866 0.09773865 0.09298761 0.08808168 0.08302063 0.07792977 0.07281323
 0.06788553 0.06316911 0.0587853 0.05474152 0.05097046 0.04746526 0.04411379 0.04092395 0.03788298 0.03500954
 0.03237059 0.02995947 0.0278041 0.02586523 0.02409514 0.02245416 0.02087794 0.01934893 0.01783081 0.01632748
 0.01483034 0.01335227 0.01189611 0.01047182 0.009083195 0.007731063 0.006416664 0.005133977 0.003881851 0.00266454
 0.001482198 0.0003696239 -0.0006700118 -0.001584643 -0.002374949 -0.003016625 -0.003516754 -0.003888614 -0.004135838 -0.004274718
 -0.00430275 -0.004222017 -0.004032318 -0.003730235 -0.003328232 -0.002826034 -0.002263224 -0.001649428 -0.001055634 -0.0005034725
 -6.770789E-05 0.0002290571 0.0003441786 0.0002652718 -1.122598E-05 -0.0004888808 -0.001138627 -0.001959112 -0.002892042 -0.003932944
 -0.005010278 -0.00611866 -0.00719119 -0.00822195 -0.009154087 -0.009984847 -0.01067634 -0.01123684 -0.01165979 -0.01196314
 -0.01216402 -0.01227852 -0.01232425 -0.01231219 -0.01225093 -0.01215272 -0.01202159 -0.01187491 -0.01171649 -0.01156393
 -0.01142015 -0.01129967 -0.01120431 -0.01114204 -0.01111345 -0.01111565 -0.01114777 -0.01119702 -0.01126199 -0.01132749
 -0.01139329 -0.01144906 -0.01149839 -0.01154251 -0.01159043 -0.01165673 -0.01175071 -0.01189045 -0.01207587 -0.01231571
 -0.01259769 -0.01291987 -0.01326335 -0.01362262 -0.01397654 -0.01432013 -0.01463294 -0.01491081 -0.01514169 -0.0153231
 -0.01545951 -0.01555097 -0.01561708 -0.01565908 -0.01569917 -0.01573657 -0.01577921 -0.01582199 -0.01585123 -0.01586046
 -0.01582612 -0.01574695 -0.0156083 -0.01541677 -0.01517272 -0.01488744 -0.01456865 -0.01422926 -0.01387731 -0.01352467
 -0.01317722 -0.01284307 -0.01252544 -0.01222797 -0.01195179 -0.01169814 -0.01146745 -0.0112578 -0.01106916 -0.01089621
 -0.01073869 -0.01059171 -0.0104554 -0.0103284 -0.01021076 -0.01010193 -0.01000195 -0.009909974 -0.009827656 -0.009756443
 -0.009700399 -0.00966438 -0.009652843 -0.009670916 -0.009721462 -0.009807609 -0.009929948 -0.01008959 -0.01028558 -0.01051843
 -0.01078429 -0.01108347 -0.01140675 -0.01175377 -0.01211032 -0.01247555 -0.01283627 -0.01319219 -0.0135372 -0.01387215
 -0.01419909 -0.01451953 -0.01484032 -0.01516225 -0.01549182 -0.01582631 -0.01616585 -0.01650264 -0.01682821 -0.01713425
 -0.01740972 -0.01765461 -0.01786369 -0.01804728 -0.01820738 -0.01835557 -0.01849624 -0.01863104 -0.01876205 -0.01888026
 -0.01898514 -0.01906721 -0.0191258 -0.01915848 -0.0191653 -0.01914753 -0.01910506 -0.01903743 -0.01894481 -0.01882742
 -0.0186858 -0.01852221 -0.01833498 -0.01812316 -0.01788259 -0.01760752 -0.01729602 -0.01694412 -0.01655266 -0.0161217
 -0.01564983 -0.01513655 -0.01458054 -0.01397983 -0.01334191 -0.0126666 -0.01196853 -0.01124929 -0.01051815 -0.009775876
 -0.009023173 -0.008260076 -0.007486423 -0.006703092 -0.005915468 -0.005125566 -0.004343746 -0.003572261 -0.002822455 -0.002094579
 -0.001394676 -0.0007208897 -7.28196E-05 0.0005497299 0.001148408 0.00171869 0.002259186 0.002763613 0.003228606 0.003652567
 0.00403272 0.004377916 0.004687742 0.004980375 0.005257468 0.005535192 0.005814787 0.006100472 0.006392241 0.006689149
 0.0069917 0.007303464 0.007624557 0.007958279 0.00830238 0.008652144 0.009006905 0.009361283 0.009721044 0.01008919
 0.01047668 0.01089242 0.01134876 0.01185501 0.0124198 0.01305105 0.0137428 0.01449884 0.01529271 0.01612279
 0.016952 0.01777658 0.01856538 0.01931603 0.02001406 0.02065988 0.02126169 0.02182228 0.02236591 0.02289351
 0.02342311 0.02395075 0.02447507 0.02499254 0.02549512 0.02598379 0.02645634 0.02691503 0.02736064 0.02779645
 0.02822323 0.02864831 0.02907455 0.02950798 0.02995141 0.03040489 0.03086906 0.03134199 0.03182377 0.03231072
 0.03280278 0.0332898 0.03377138 0.0342398 0.03469609 0.03514448 0.03558577 0.03602706 0.03646507 0.03689628
 0.03731349 0.0377035 0.03805712 0.03835832 0.03859874 0.03876417 0.03885538 0.03886582 0.03880942 0.03868813
 0.03852212 0.03831547 0.03809093 0.03785127 0.03762478 0.03741437 0.0372462 0.03712241 0.03705205 0.03703488
 0.03706346 0.03713654 0.03724202 0.03737853 0.03753424 0.0377081 0.03789128 0.03808332 0.03828144 0.03847995
 0.03867492 0.03884847 0.03898657 0.03906636 0.03906919 0.03898456 0.03880008 0.03852775 0.0381644 0.03774238
 0.0372645 0.03677245 0.0362711 0.0357915 0.03533635 0.03491521 0.03452813 0.03417346 0.03385082 0.03355768
 0.03329283 0.03305015 0.03282808 0.03261844 0.03242237 0.03223854 0.03206756 0.03191298 0.03176508 0.03162182
 0.03145789 0.03126323 0.03099862 0.03064962 0.03017262 0.02955237 0.02876248 0.02779197 0.02665159 0.02533811
 0.0238969 0.02233007 0.0206986 0.01900572 0.01730935 0.01561092 0.01394864 0.01232117 0.0107423 0.009212058
 0.007736033 0.006318653 0.004971388 0.003696227 0.002502407 0.001384386 0.0003407657 -0.0006347949 -0.001546186 -0.002399004
 -0.003193579 -0.003945628 -0.004657642 -0.005351485 -0.006033007 -0.006707595 -0.007378167 -0.008028862 -0.008658876 -0.009252146
 -0.009808328 -0.0103249 -0.01080263 -0.01124654 -0.01165684 -0.01203737 -0.01238712 -0.01270566 -0.01299093 -0.01323851
 -0.01344755 -0.01361371 -0.01374111 -0.01382996 -0.01389053 -0.01392752 -0.01395461 -0.01397849 -0.01400885 -0.01405097
 -0.01410399 -0.01416928 -0.01423994 -0.01431511 -0.01439199 -0.01447039 -0.01454681 -0.01462059 -0.01467602 -0.01471167
 -0.01470765 -0.01466537 -0.01457957 -0.01445451 -0.01429901 -0.01411744 -0.01392135 -0.0137158 -0.01351231 -0.01331359
 -0.01312938 -0.01294967 -0.01277484 -0.01258218 -0.01236262 -0.01209785 -0.0117793 -0.01140373 -0.01096787 -0.01048
 -0.009939611 -0.009364148 -0.008754191 -0.008139268 -0.007521455 -0.006942079 -0.006404734 -0.005957008 -0.005601855 -0.005380279
 -0.005288176 -0.005339681 -0.005518348 -0.005803139 -0.006169267 -0.006577539 -0.0070024 -0.007408064 -0.007774091 -0.008076348
 -0.008307852 -0.00845656 -0.008535386 -0.008544352 -0.008502307 -0.008414232 -0.008284387 -0.008114754 -0.007897118 -0.007630697
 -0.007317057 -0.006956827 -0.006568788 -0.006154318 -0.005733802 -0.00530649 -0.004879843 -0.004452039 -0.004020736 -0.003586845
 -0.003150083 -0.002714357 -0.002285371 -0.001864668 -0.001457131 -0.001058595 -0.000667971 -0.0002810043 0.0001056098 0.0004897039
 0.0008718966 0.001246827 0.001613197 0.001969499 0.002315337 0.002650876 0.002976291 0.003286817 0.003582158 0.003855186
 0.004106527 0.004337773 0.0045516 0.004761182 0.004968878 0.005189109 0.005421133 0.005670757 0.005935204 0.006213131
 0.006501904 0.006798558 0.007101264 0.007406862 0.007718381 0.008034252 0.00836617 0.008716992 0.009097341 0.009511895
 0.009953953 0.01042499 0.01090149 0.01138203 0.01184315 0.0122839 0.01269229 0.01306953 0.01341969 0.01374719
 0.01407417 0.01440553 0.01476987 0.01516363 0.0155971 0.01605501 0.0165217 0.01698096 0.0174094 0.01780393
 0.01815177 0.01846763 0.01875195 0.01902997 0.01930922 0.01960882 0.019936 0.02028878 0.02066941 0.02105868
 0.02145545 0.02184098 0.02221453 0.02256918 0.0229056 0.0232264 0.02353362 0.02383757 0.02414138 0.02446047
 0.02479525 0.0251565 0.02553645 0.0259311 0.02632629 0.02670572 0.02706288 0.0273845 0.02768296 0.02795875
 0.02823087 0.02850772 0.02879045 0.02908271 0.02936955 0.02964868 0.02991567 0.03016925 0.03042346 0.03067904
 0.0309509 0.03123893 0.03154819 0.03187744 0.03222388 0.03258547 0.03295375 0.03332924 0.03370735 0.03409334
 0.03449515 0.03491002 0.03534417 0.03577473 0.0361887 0.0365667 0.03688909 0.03717531 0.03742211 0.03767401
 0.03794187 0.03824458 0.03858951 0.03895328 0.03933531 0.03970086 0.04004853 0.04036646 0.04065656 0.04093337
 0.04119848 0.04146855 0.04174064 0.04201349 0.04228558 0.04255027 0.04281481 0.04308714 0.04337283 0.04368398
 0.04401182 0.0443546 0.04470214 0.04504715 0.04539163 0.04573582 0.04607748 0.04641831 0.04674254 0.04704745
 0.04732811 0.04758273 0.0478322 0.04807776 0.04834997 0.04864987 0.0490006 0.04939937 0.04984777 0.05033552
 0.05083146 0.05132684 0.05178227 0.05220946 0.05260445 0.05299253 0.05340191 0.05383825 0.05432118 0.05482554
 0.05534668 0.05585407 0.05633456 0.05677924 0.05718072 0.05755648 0.05790744 0.05825362 0.05859802 0.05892996
 0.05924872 0.05952496 0.05975996 0.05995473 0.06011592 0.06028049 0.06044935 0.06064748 0.06086588 0.06109695
 0.06133371 0.06156236 0.06177968 0.06197907 0.06215381 0.06229635 0.06240539 0.06247466 0.06251963 0.06254137
 0.06256448 0.0625929 0.06265328 0.06274984 0.06290189 0.06311321 0.06336401 0.06365279 0.06391804 0.06415865
 0.06433672 0.06446244 0.06456732 0.06466584 0.06482327 0.06504247 0.06536856 0.06577953 0.06627035 0.06679581
 0.06730158 0.06777281 0.06815656 0.06854006 0.06893229 0.0694861 0.07028652 0.07128302 0.07251871 0.07368352
 0.07472363 0.07555054 0.07614142 0.07665041 0.07708462 0.07757188 0.0781091 0.07870877 0.0793537 0.07996138
 0.08051533 0.08091443 0.08116172 0.08120891 0.08108024 0.08079094 0.08036384 0.0798287 0.07919971 0.07848725
 0.07772919 0.07693747 0.07617426 0.07546398 0.07484205 0.07432504 0.07390431 0.0735827 0.07333431 0.07315831
 0.07301644 0.07290646 0.07277547 0.07262208 0.07241196 0.07214933 0.07183868 0.0714857 0.07110965 0.07071746
 0.07032999 0.06996101 0.06964315 0.06937813 0.06919106 0.06904417 0.06892312 0.06877897 0.06857831 0.06831092
 0.06795763 0.06755812 0.06710999 0.06669369 0.06631882 0.06606019 0.06592882 0.06591485 0.06601772 0.06615999
 0.06634101 0.06652842 0.06672995 0.06697639 0.06726591 0.06761189 0.06800011 0.06840535 0.06881539 0.06920126
 0.06955343 0.06984905 0.07008935 0.07026077 0.07039259 0.07049347 0.07059647 0.07072014 0.07086016 0.0710226
 0.07117733 0.07132132 0.07142736 0.0714929 0.07149487 0.07143208 0.07130793 0.07112736 0.07095133 0.07078537
 0.07069872 0.07067941 0.07072668 0.07081821 0.07090034 0.07096452 0.07096974 0.07092661 0.07082391 0.07069661
 0.07055857 0.07046666 0.07045975 0.07055092 0.07077209 0.07103531 0.07133348 0.0715505 0.07166129 0.07164283
 0.07148568 0.07126221 0.07097599 0.07070777 0.07045831 0.07026062 0.0701081 0.06998141 0.06987186 0.069737
 0.06957764 0.0693727 0.06913152 0.06885987 0.06856558 0.068255 0.0679474 0.06765345 0.06740693 0.06723498
 0.0671325 0.06711585 0.06711823 0.0671269 0.0670907 0.06699518 0.06685121 0.06665891 0.06642398 0.06614669
 0.06579134 0.0653587 0.06484452 0.06426017 0.06367004 0.06308457 0.06257737 0.06214461 0.06181685 0.06157843
 0.06141945 0.06132182 0.06126184 0.06122676 0.06120077 0.06117256 0.06113547 0.06107061 0.06096827 0.060823
 0.06062448 0.06041387 0.06019331 0.06001868 0.05989772 0.0598326 0.05982377</values></Ydata></AB><ScSm><Ydata ylabel="Single channel"><values byteorder="INTEL" format="FLOAT32" numvalues="1814"> 0.06825688 0.06827012 0.0683488 0.06850995 0.06872164 0.06892101 0.06905742 0.06912339 0.06913678 0.06910381
 0.06903185 0.0689753 0.06902026 0.06919862 0.0694389 0.06961593 0.06965065 0.06957868 0.06952795 0.0695947
 0.06971541 0.06968847 0.06936317 0.06881204 0.06828408 0.06797634 0.06791192 0.06808582 0.0685856 0.069353
 0.06991895 0.06973931 0.06887849 0.06804122 0.06779188 0.06801083 0.06822096 0.0681373 0.06776129 0.06727197
 0.06706408 0.06763884 0.06911347 0.07082017 0.07154934 0.07031341 0.06704961 0.06283984 0.05951282 0.05866693
 0.06054463 0.0637062 0.06610896 0.06673561 0.06608205 0.06513043 0.06429222 0.06353287 0.06305081 0.06330967
 0.06440097 0.0656177 0.06581907 0.06440264 0.06201897 0.06011152 0.0595995 0.0602976 0.0616886 0.0634928
 0.06488897 0.06405436 0.05995228 0.05461807 0.0522619 0.05526521 0.06163972 0.06697619 0.06837116 0.06605522
 0.0621153 0.05876283 0.05750498 0.05873629 0.06165603 0.06493296 0.06751768 0.06870231 0.06794287 0.06532621
 0.06203394 0.05977228 0.0597228 0.06207771 0.06600292 0.06971599 0.07129303 0.07008674 0.06715794 0.06415483
 0.06222684 0.06202215 0.06384671 0.0673469 0.07149498 0.0751863 0.07768621 0.0786981 0.07842669 0.07745138
 0.07628434 0.07528144 0.0749497 0.07563831 0.07671806 0.07681607 0.07530833 0.07315341 0.07190838 0.07211889
 0.0728813 0.07294308 0.07197049 0.07035679 0.06799388 0.0642367 0.05938965 0.0551148 0.05277555 0.05239226
 0.0536226 0.05630143 0.05928842 0.06039371 0.05877449 0.05647358 0.05639856 0.05921771 0.06301226 0.06561559
 0.0666147 0.06719933 0.06862852 0.07094793 0.07282282 0.07254419 0.06972141 0.06624243 0.06494422 0.06683335
 0.07011774 0.0724106 0.07324678 0.07384798 0.0749754 0.07575274 0.07458156 0.0710427 0.06693192 0.06516039
 0.06722088 0.07169075 0.07526486 0.07521243 0.07121431 0.06542328 0.06078062 0.058985 0.06002814 0.06330578
 0.06828686 0.07394506 0.07848582 0.08035095 0.07935812 0.0766008 0.07320345 0.06929304 0.06458116 0.06006771
 0.05826909 0.0608522 0.06650904 0.0720371 0.07520175 0.0758711 0.07478864 0.07219928 0.06801847 0.06310749
 0.05972372 0.05979367 0.06260743 0.06518911 0.06540897 0.06393775 0.06275324 0.06265725 0.06294876 0.06292686
 0.06289005 0.06361644 0.06525364 0.06699692 0.06786927 0.06761897 0.06677601 0.06602416 0.06558277 0.065055
 0.06398469 0.06274072 0.06250896 0.06400364 0.06649557 0.0685591 0.06950805 0.06967163 0.06947039 0.06868251
 0.06677762 0.06392416 0.0614306 0.06079115 0.06223991 0.06458838 0.0664685 0.0673295 0.06732251 0.06680603
 0.06609849 0.06537108 0.064697 0.06428008 0.06441574 0.06507677 0.06579964 0.06614965 0.06608389 0.06575723
 0.06521612 0.06443992 0.06355199 0.06284248 0.06256622 0.06274685 0.06319356 0.06367348 0.06400633 0.06404561
 0.06372707 0.06316727 0.0625913 0.06213117 0.06178612 0.06156637 0.06154031 0.06170863 0.06193781 0.0620724
 0.0620589 0.06192985 0.06172055 0.06144407 0.0611218 0.06080573 0.060573 0.06048454 0.06051932 0.06057284
 0.06056882 0.06054114 0.06054508 0.06053199 0.06039906 0.06014032 0.05986605 0.05967982 0.05959457 0.05956206
 0.05952601 0.05942798 0.05920344 0.05883499 0.05842637 0.05816758 0.05817903 0.05841637 0.05874508 0.05904972
 0.05925222 0.05931028 0.05925104 0.05915228 0.0590537 0.05892448 0.0587345 0.05852704 0.05840784 0.05846285
 0.05867677 0.05893861 0.05913703 0.05923349 0.05924784 0.05922592 0.05922893 0.05929035 0.05936442 0.05936892
 0.05929063 0.05920667 0.05919652 0.0592621 0.05933589 0.05935384 0.05932233 0.05931001 0.05936912 0.05948354
 0.05960345 0.05970474 0.05979789 0.05989457 0.0599778 0.06000639 0.05996075 0.05988143 0.05983609 0.05984863
 0.05989281 0.0599529 0.06004951 0.06019486 0.0603539 0.06047049 0.06052402 0.06054656 0.06057844 0.06061585
 0.06061972 0.06057459 0.06051563 0.06049162 0.06051856 0.06057553 0.0606315 0.06066803 0.06068299 0.060681
 0.06066455 0.06063354 0.06058813 0.06053389 0.06049155 0.06049503 0.06056028 0.06065361 0.06070771 0.06068018
 0.06059227 0.06050587 0.06046307 0.06045115 0.06042762 0.0603734 0.06031124 0.06027448 0.06027192 0.06028606
 0.0602936 0.06028393 0.06027108 0.06029346 0.06038696 0.06054452 0.06070912 0.06082143 0.06087289 0.06090268
 0.06094914 0.06101924 0.06110086 0.06118751 0.06128875 0.06142147 0.06158405 0.06173991 0.0618478 0.06191385
 0.06199026 0.06211723 0.06228963 0.06248157 0.06267196 0.06284136 0.06297712 0.06309403 0.06322607 0.06338707
 0.06355685 0.06371364 0.06386304 0.06402536 0.06420833 0.06440688 0.0646234 0.06487318 0.06516603 0.06548838
 0.06580491 0.06607826 0.06629729 0.06649541 0.06673345 0.0670501 0.06742683 0.0678051 0.06813799 0.06842421
 0.0686952 0.0689759 0.06926654 0.06956574 0.06989421 0.07027431 0.07069211 0.07110374 0.07148245 0.07184061
 0.07220265 0.07257454 0.07294595 0.07331115 0.07367805 0.07405757 0.0744471 0.07482904 0.07518837 0.07552838
 0.07586621 0.07621891 0.07659486 0.07698566 0.07736003 0.07768328 0.07795864 0.07823689 0.0785642 0.07892656
 0.07926837 0.07956436 0.07984771 0.08016127 0.08050673 0.08085762 0.08120328 0.08155689 0.08192717 0.08229892
 0.08264038 0.08292563 0.08315636 0.0833658 0.08359342 0.08385745 0.08416055 0.08450972 0.08490523 0.08531561
 0.08569033 0.08600011 0.08624825 0.08645203 0.08663675 0.08683908 0.08708659 0.08737259 0.08766388 0.08792727
 0.08814433 0.08832247 0.08850388 0.08873963 0.08903825 0.08936131 0.08968158 0.09001839 0.0903957 0.09079424
 0.09117785 0.09155022 0.09194624 0.09236727 0.09276021 0.09307212 0.09329832 0.09346567 0.09360088 0.09373972
 0.09393881 0.09423909 0.09462051 0.09501585 0.09536658 0.09565258 0.09587877 0.09605596 0.09619629 0.0963145
 0.09642596 0.09654315 0.09667636 0.09684134 0.09706238 0.09735376 0.09769357 0.09802889 0.09831241 0.0985214
 0.0986401 0.09865133 0.09856457 0.09843079 0.09829897 0.09815973 0.09795102 0.09761697 0.09714501 0.09655013
 0.09584749 0.09505394 0.09420839 0.09337977 0.09265037 0.09208965 0.09174237 0.09163761 0.09179583 0.09220946
 0.09281403 0.09349217 0.09411468 0.09457348 0.09478422 0.09468921 0.09428188 0.09361995 0.09279938 0.09191616
 0.09104903 0.0902538 0.08955722 0.08897298 0.08854517 0.08837311 0.08858044 0.08925487 0.09040689 0.09196148
 0.09377374 0.09566566 0.09747849 0.09911667 0.1005576 0.1018258 0.1029612 0.1040062 0.1050025 0.1059744
 0.1069126 0.1077885 0.1085895 0.1093275 0.1100119 0.1106286 0.1111463 0.1115361 0.1117868 0.1119133
 0.1119531 0.1119511 0.1119479 0.1119723 0.1120261 0.1120679 0.1120207 0.1118115 0.1114141 0.1108685
 0.1102791 0.1098061 0.1096513 0.1100186 0.11104 0.1126974 0.1148076 0.1170972 0.1193133 0.1212905
 0.1229566 0.1243123 0.1254118 0.1263359 0.1271596 0.1279306 0.1286668 0.1293667 0.1300221 0.1306325
 0.1312095 0.1317693 0.1323221 0.1328683 0.133402 0.1339148 0.1344029 0.1348726 0.1353411 0.1358267
 0.1363319 0.1368393 0.1373304 0.1378071 0.1382834 0.1387594 0.139219 0.1396556 0.1400819 0.1405125
 0.1409496 0.141389 0.1418257 0.1422493 0.1426455 0.1430112 0.1433595 0.1437097 0.1440731 0.1444482
 0.1448258 0.1451963 0.1455542 0.1459018 0.1462491 0.1466043 0.1469617 0.1473039 0.1476212 0.1479237
 0.1482297 0.148546 0.1488665 0.1491841 0.1495019 0.1498332 0.1501907 0.1505725 0.1509581 0.151321
 0.1516481 0.151949 0.1522475 0.1525641 0.1529035 0.1532557 0.1536059 0.1539444 0.1542706 0.154591
 0.1549133 0.1552411 0.1555733 0.155906 0.1562342 0.1565557 0.1568738 0.1571947 0.1575203 0.1578501
 0.1581869 0.158532 0.1588763 0.1592057 0.1595181 0.1598245 0.1601332 0.1604411 0.1607437 0.1610449
 0.1613554 0.1616833 0.162028 0.1623801 0.1627278 0.1630663 0.1634007 0.1637367 0.1640721 0.1643988
 0.1647153 0.1650313 0.1653581 0.1656963 0.1660355 0.1663644 0.1666782 0.1669818 0.1672863 0.1676001
 0.1679179 0.1682267 0.1685242 0.1688242 0.1691391 0.1694659 0.1697917 0.1701077 0.1704142 0.1707157
 0.1710158 0.1713152 0.1716127 0.1719075 0.1721983 0.172485 0.1727709 0.1730621 0.1733621 0.1736693
 0.1739792 0.174288 0.1745948 0.1749006 0.1752045 0.1755037 0.1757982 0.1760922 0.1763878 0.1766836
 0.1769811 0.1772842 0.1775914 0.1778943 0.1781866 0.1784705 0.1787539 0.1790444 0.1793434 0.1796458
 0.1799477 0.1802504 0.180554 0.1808537 0.181146 0.1814337 0.1817214 0.1820121 0.1823058 0.1826002
 0.1828955 0.1831976 0.1835096 0.1838224 0.1841223 0.1844043 0.1846738 0.1849391 0.185208 0.1854842
 0.1857637 0.1860399 0.1863098 0.1865753 0.1868421 0.1871176 0.1874045 0.1876984 0.1879951 0.1882926
 0.1885856 0.1888686 0.1891441 0.1894198 0.1897015 0.1899946 0.1903025 0.1906186 0.1909312 0.1912366
 0.1915391 0.1918418 0.1921455 0.1924492 0.1927485 0.1930419 0.1933357 0.1936336 0.1939311 0.1942266
 0.1945236 0.1948197 0.1951084 0.1953914 0.195675 0.1959583 0.1962381 0.1965153 0.1967907 0.1970683
 0.1973554 0.1976511 0.1979438 0.198228 0.1985078 0.1987854 0.1990644 0.1993543 0.1996547 0.1999531
 0.2002486 0.2005525 0.2008628 0.2011642 0.2014526 0.2017352 0.202018 0.2023053 0.2025919 0.2028491
 0.2030195 0.2029775 0.2024151 0.2007155 0.1969315 0.1899722 0.1790398 0.1641365 0.1462375 0.1269393
 0.1078705 0.09027252 0.07488276 0.06202751 0.05177759 0.04405234 0.03868621 0.0355362 0.03459313 0.03609734
 0.04066808 0.0489424 0.0601862 0.07104547 0.07683104 0.07520983 0.06843413 0.06129145 0.05711953 0.05617381
 0.05704053 0.05850384 0.06017431 0.06226511 0.06514911 0.06893545 0.07345042 0.07869595 0.08507366 0.09288335
 0.1017164 0.1106218 0.1189204 0.1267383 0.1346963 0.1431617 0.1518631 0.160161 0.1675611 0.1739654
 0.1795738 0.1846591 0.1894124 0.1939212 0.198223 0.20231 0.2060432 0.2091102 0.2111695 0.2121111
 0.2121885 0.2118753 0.2115819 0.2114943 0.2116287 0.211957 0.2124581 0.2131082 0.2138787 0.2147405
 0.2156611 0.2166093 0.2175626 0.2185013 0.2194026 0.2202496 0.2210362 0.2217579 0.222411 0.2230027
 0.2235495 0.2240633 0.2245456 0.2249948 0.2254158 0.2258215 0.2262221 0.2266135 0.2269808 0.2273159
 0.2276233 0.2279116 0.2281871 0.2284572 0.2287282 0.2290005 0.2292711 0.2295394 0.2298061 0.2300711
 0.230335 0.2306001 0.2308674 0.2311359 0.2314041 0.2316719 0.2319414 0.2322165 0.2324983 0.232783
 0.2330663 0.2333454 0.2336168 0.2338771 0.2341319 0.2343929 0.2346652 0.2349444 0.2352239 0.2355018
 0.2357808 0.2360677 0.2363664 0.2366712 0.2369745 0.2372772 0.2375835 0.2378912 0.2381966 0.2385008
 0.2387988 0.239076 0.2393249 0.2395624 0.2398221 0.240128 0.2404714 0.2408154 0.2411288 0.2414123
 0.2416883 0.2419716 0.2422607 0.2425438 0.2428161 0.2430958 0.2434133 0.243771 0.2441363 0.2444859
 0.2448275 0.2451701 0.2455091 0.2458456 0.2461815 0.2464912 0.246741 0.2469478 0.2471916 0.2475517
 0.2480282 0.2485316 0.2489628 0.2493006 0.2495962 0.2499094 0.2502721 0.250663 0.2509773 0.2510978
 0.2510716 0.2511449 0.2515329 0.2522015 0.2529354 0.2535626 0.2540557 0.2544688 0.2548443 0.2551721
 0.2554006 0.255493 0.2555073 0.2556189 0.2560022 0.2566507 0.2573628 0.2579452 0.2583669 0.2586946
 0.2589822 0.2592549 0.2594651 0.2594375 0.2590504 0.2585463 0.2584685 0.2591387 0.260299 0.2613887
 0.2621005 0.262541 0.2629207 0.263293 0.2636092 0.2637643 0.2634748 0.2624409 0.2609241 0.2599074
 0.260283 0.2619554 0.2640071 0.2656198 0.2665875 0.2671094 0.2674386 0.2677165 0.2678639 0.2675798
 0.2666773 0.265542 0.2650406 0.265722 0.267201 0.2685726 0.2693357 0.2696593 0.2699037 0.2702181
 0.2704411 0.2700422 0.2684174 0.2657755 0.2635969 0.2635951 0.2660396 0.2694345 0.2720042 0.2732247
 0.2736912 0.2738143 0.273213 0.2714046 0.2685369 0.2653196 0.2627955 0.2622013 0.2641558 0.2676271
 0.2705082 0.2716934 0.2720197 0.2728852 0.2745801 0.2762829 0.2771312 0.27689 0.275815 0.2741868
 0.272173 0.2702559 0.2694985 0.2707959 0.2737884 0.276984 0.2791384 0.2801985 0.2806566 0.2801006
 0.2769173 0.2702267 0.2623183 0.2580376 0.2605162 0.2678965 0.2753276 0.2797424 0.2815515 0.2823712
 0.2828456 0.2824666 0.2798769 0.2736118 0.264403 0.2566413 0.2554155 0.2614808 0.2704016 0.276695
 0.2775775 0.2732605 0.2659547 0.2592117 0.2564822 0.2590225 0.2653384 0.2726666 0.2786356 0.281909
 0.2821741 0.2800231 0.2769051 0.274762 0.2746302 0.2751136 0.273436 0.2689431 0.2641947 0.2612176
 0.2583783 0.2534072 0.2483497 0.2482269 0.2545033 0.2626462 0.2672158 0.2673819 0.2659818 0.2643529
 0.2600619 0.2504156 0.237527 0.228419 0.2288574 0.2373506 0.2464568 0.2500298 0.2480824 0.2446728
 0.2425432 0.240464 0.235234 0.22601 0.2164908 0.2118566 0.2133028 0.2169661 0.218491 0.2165243
 0.2112437 0.202929 0.1943968 0.1919317 0.1999675 0.2155986 0.2308028 0.2390134 0.2375323 0.2261196
 0.2078939 0.1912279 0.1857084 0.193595 0.2071212 0.2156586 0.2142028 0.2043269 0.1896125 0.1731428
 0.1588593 0.1520375 0.1561366 0.1692857 0.1844137 0.1928284 0.1890036 0.1747844 0.1596775 0.1540471
 0.1597777 0.1689995 0.1729276 0.1698518 0.1639696 0.1598649 0.1597991 0.1634275 0.1682245 0.1718094
 0.1738661 0.1736107 0.1671927 0.1523082 0.1345955 0.1240214 0.1245038 0.1317835 0.1413719 0.1526344
 0.1636849 0.1685714 0.1639414 0.1553709 0.1526898 0.1595567 0.1702759 0.1767667 0.1765723 0.1733943
 0.171286 0.1702674 0.168272 0.1658427 0.1664115 0.1715571 0.1782837 0.1823686 0.1827936 0.1814405
 0.1798702 0.1781287 0.175841 0.1729111 0.1694231 0.1657293 0.1623722 0.1595049 0.1567737 0.1539013
 0.1507119 0.1463491 0.1394538 0.1301205 0.1211582 0.1159459 0.1149157 0.115637 0.1164263 0.1174479
 0.1174104 0.112452 0.101205 0.08916122 0.08475699 0.09123967 0.1042075 0.1166203 0.1241359 0.1255244
 0.1206777 0.1110517 0.1017878 0.1001429 0.1095145 0.1261339 0.1431523 0.1565969 0.1658102 0.1701502
 0.1684574 0.1617253 0.1541582 0.1508059 0.1545205 0.164634 0.1770659 0.1852688 0.1834235 0.172281
 0.1619391 0.1644342 0.1810201 0.2000073 0.2098768 0.2110169 0.2111374 0.2132545 0.2141369 0.21282
 0.2140629 0.2218199 0.2333752 0.2419809 0.2427758 0.2347098 0.2198598 0.2038323 0.1943549 0.1952027
 0.2020642 0.2073524 0.2076509 0.2033446 0.194062 0.1804636 0.1690865 0.1684755 0.1792379 0.1927293
 0.2008673 0.203514 0.2049903 0.206637 0.2052678 0.198114 0.1874445 0.1791818 0.1770326 0.1792276
 0.1815388 0.181772 0.1798899 0.1755099 0.1680907 0.1595344 0.1542647 0.1554652 0.1619013 0.1691807
 0.1737865 0.1753624 0.1756255 0.1761549 0.1772838 0.1782854 0.1785511 0.1791183 0.1824716 0.1897522
 0.1987325 0.2060072 0.2108876 0.215637 0.2219199 0.2284507 0.2325074 0.2329038 0.2311716 0.2303055
 0.2324156 0.2370529 0.2415123 0.2431193 0.241762 0.2402189 0.2415807 0.2462649 0.2519129 0.2560419
 0.2580746 0.2588664 0.2592743 0.2594755 0.2589276 0.2568586 0.2535443 0.2510846 0.2519612 0.2565445
 0.262646 0.2676482 0.2705285 0.2717815 0.2720925 0.2715832 0.2701641 0.2681769 0.2664201 0.2655587
 0.2656734 0.2664133 0.2673912 0.268347 0.269125 0.2696767 0.2700509 0.2703202 0.2705523 0.2708329
 0.2712159 0.2716365 0.2719706 0.2722107 0.2724999 0.2729369 0.2734203 0.2737539 0.2738358 0.2736432
 0.2730899 0.2720514 0.270541 0.268729 0.2667482 0.2646056 0.2623974 0.2605619 0.2597646 0.2604157
 0.2622881 0.2646446 0.2667434 0.2682196 0.2690806 0.2694947 0.2696446 0.2696841 0.2697167 0.2697787
 0.2698572 0.2699329 0.2700014 0.2700599 0.2700965 0.2701102 0.2701326 0.2702047 0.2703283 0.2704507
 0.2704984 0.2704191 0.2702048 0.2698899 0.2695197 0.2691054 0.2686056 0.2679564 0.2671252 0.2661425
 0.26509 0.2640512 0.2630557 0.2620598 0.2609875 0.259788 0.2584384 0.256904 0.2551576 0.2532658
 0.2513993 0.2497048 0.2481822 0.2467187 0.2452056 0.243594 0.2418826 0.2401053 0.238319 0.2365715
 0.2348789 0.2332356 0.2316266 0.2300245 0.2283893 0.2266849 0.2248976 0.2230394 0.2211364 0.2192089
 0.2172481 0.2151935 0.2129275 0.2103023 0.2071775 0.2034497 0.1990829 0.1941493 0.1888411 0.1834183
 0.1781262 0.1731427 0.1685743 0.1644857 0.1609337 0.1579787 0.1556683 0.1540244 0.1530471 0.1527261
 0.1530442 0.1539726 0.1554543 0.1573885 0.1596373 0.1620492 0.164471 0.1667582 0.1688181 0.170661
 0.1723874 0.1741014 0.1758298 0.1775238 0.1791241 0.1806012 0.1819311 0.1830683 0.1839718 0.184645
 0.1851315 0.1854802 0.1857257 0.1858884 0.1859865 0.1860528 0.1861435 0.186323 0.1866392 0.1871056
 0.187692 0.1883351 0.1889785 0.1896082 0.1902441 0.190904 0.1915833 0.1922589 0.1929095 0.1935422
 0.1942064 0.1949895 0.1960036 0.1973637 0.1991493 0.2013682 0.2039528 0.2067817 0.2097021 0.2125559
 0.215206 0.2175528 0.2195406 0.2211636 0.2224542 0.2234541 0.224202 0.2247427 0.2251231 0.2253737
 0.2255047 0.2255203 0.2254243 0.225218 0.2249014 0.2244758 0.2239482 0.2233393 0.2226852 0.2220243
 0.2213837 0.2207744 0.2201925 0.2196289 0.2190783 0.2185323 0.2179668 0.2173522 0.2166758 0.2159435
 0.2151669 0.2143517 0.2134825 0.2125151 0.2113997 0.2101154 0.2086697 0.2070757 0.2053514 0.203538
 0.2017034 0.1999279 0.1982778 0.1967737 0.195374 0.193988 0.1925021 0.1908165 0.1888997 0.1868226
 0.1847116 0.1826591 0.1806868 0.1787798 0.1769282 0.1751397 0.1734311 0.1718113 0.1702702 0.16879
 0.1673646 0.1660002 0.1647042 0.1634813 0.1623368 0.161282 0.1603373 0.1595209 0.1588272 0.158224
 0.1576756 0.1571646 0.1567005 0.1563163 0.1560424 0.1558643 0.1557103 0.1554958 0.1551791 0.1547773
 0.1543429 0.1539275 0.1535565 0.1532262 0.1529115 0.1525685 0.1521394 0.1515636 0.1507824 0.1497383
 0.1483929 0.1467537 0.1448801 0.142877 0.1408851 0.1390473 0.1374577 0.1361485 0.1351099 0.1342944
 0.1336209 0.1330231 0.1325031 0.1321226 0.1319411 0.1319488 0.132034 0.1320419 0.1319115 0.1317416
 0.1316966 0.1318693 0.1322411 0.1327231 0.1332058 0.1336042 0.1338828 0.1340392 0.1340829 0.1340329
 0.1339027 0.1336845 0.1333737 0.1329949 0.1325775 0.132129 0.1316452 0.1311174 0.1305235 0.1298419
 0.1290695 0.1282122 0.1272769 0.1262737 0.125191 0.1239975 0.1227328 0.1215727 0.120747 0.1203994
 0.1205258 0.1209985 0.121647 0.1223483 0.1230081 0.1234489 0.1234775 0.1231969 0.1231365 0.1238742
 0.125495 0.1275001 0.1292445 0.1303791 0.130884 0.1308446 0.1303314 0.1294052 0.1280823 0.1263233
 0.1241406 0.1216477 0.1189632 0.1161862 0.1134779 0.1110285 0.1089469 0.1072581 0.1059421 0.104998
 0.1045055 0.1041393 0.1023116 0.09698378 0.08880261 0.08254232 0.08312997 0.09012718 0.09800265 0.1019766
 0.1018557 0.1001604 0.09869398 0.097786 0.09736651 0.09753154 0.09836104 0.09971641 0.1012383 0.1025347
 0.1034227 0.103919 0.1039928 0.103365 0.101453 0.09755361 0.09140857 0.08373474 0.07599688 0.06955054
 0.0650361 0.06239128 0.06112083 0.06057419 0.06026111 0.06008704 0.06029583 0.06116951 0.06278146 0.06500746
 0.06766882 0.07054268 0.07328634 0.07556403 0.07730651 0.07869691 0.0798652 0.08073287 0.08117047 0.08117108
 0.08084071 0.0803107 0.07968438 0.07900971 0.07826067 0.07736237 0.07630405 0.07525809 0.07450259 0.07415922
 0.07408561 0.07407695 0.07406782 0.07408728 0.07413568 0.07417362 0.07417384 0.07417177 0.07428493 0.07462201
 0.07513852 0.07564785 0.07599261 0.07615803 0.07622997 0.07626356 0.07616752 0.0757816 0.0751549 0.07460573
 0.07431322 0.07399655 0.07326794 0.07221619 0.07137312 0.07112795 0.07137813 0.07173662 0.07189994 0.07180102
 0.07157958 0.07150054 0.07178205 0.07234904</values></Ydata></ScSm><ScRf><Ydata ylabel="Single channel"><values byteorder="INTEL" format="FLOAT32" numvalues="1820"> 0.06070941 0.06087533 0.06097247 0.06100082 0.06099021 0.0609927 0.06105942 0.06120935 0.06141466 0.06161375
 0.0617497 0.06180797 0.06181005 0.06177316 0.06170566 0.06164803 0.06167421 0.06182061 0.06203142 0.06219444
 0.06223317 0.06217438 0.06213075 0.06219007 0.06229816 0.06227407 0.06197955 0.0614785 0.06099752 0.06071748
 0.06065965 0.06081742 0.06126788 0.06195813 0.06246591 0.06230124 0.06152167 0.06076019 0.06052366 0.06070731
 0.06088939 0.06081946 0.06049621 0.06007148 0.05989349 0.06041341 0.06174101 0.06327812 0.0639345 0.06281713
 0.05986828 0.05606661 0.05306566 0.05230713 0.05400442 0.0568526 0.05900852 0.05956322 0.05897743 0.05814335
 0.0574227 0.05676464 0.05633391 0.05655047 0.05751046 0.05858872 0.0587615 0.05748648 0.05534897 0.05364387
 0.05319152 0.05382483 0.05508489 0.05671921 0.05797563 0.05720527 0.05348635 0.0486726 0.0465648 0.04929951
 0.05506966 0.0598895 0.0611378 0.05903019 0.0554674 0.05245893 0.05135643 0.05248879 0.05511551 0.0580448
 0.06035187 0.06140977 0.06072728 0.05838044 0.05543202 0.05341443 0.05338715 0.05552079 0.05906035 0.06239618
 0.06379835 0.06269446 0.06004845 0.05734546 0.05561855 0.05545262 0.05712613 0.06031877 0.06409538 0.06744844
 0.06971017 0.07061857 0.07036941 0.06949174 0.06844637 0.06755181 0.06726654 0.06790573 0.06889629 0.06899416
 0.0676383 0.06569862 0.06457977 0.06476913 0.06544926 0.065494 0.06460959 0.06315519 0.06102866 0.05763856
 0.05325755 0.04939253 0.04728071 0.0469463 0.04809165 0.050574 0.05334783 0.05440575 0.05296957 0.05089002
 0.05080941 0.05334493 0.05676926 0.05912512 0.06004094 0.06059854 0.06193881 0.06409274 0.06583451 0.06560393
 0.0630507 0.05990807 0.05877138 0.06055179 0.06359893 0.06573318 0.0665482 0.06717603 0.06830627 0.06911455
 0.06812299 0.06495934 0.06129555 0.05980681 0.06183652 0.06605071 0.06940874 0.06941102 0.06577936 0.06051672
 0.05634789 0.05483668 0.05597726 0.05923602 0.06414143 0.06972287 0.07426481 0.07626821 0.07553498 0.07309245
 0.07001888 0.06644287 0.06209385 0.0579561 0.05648243 0.0592799 0.06505467 0.07068799 0.07401897 0.07492431
 0.07410658 0.07176156 0.06778512 0.06307563 0.05995838 0.06037708 0.06355178 0.06642179 0.06684835 0.06556395
 0.06460011 0.06475535 0.06529596 0.06551848 0.06576358 0.06684308 0.06887794 0.07099709 0.07217903 0.07217497
 0.07154806 0.07101779 0.0708074 0.07048069 0.06956272 0.06850203 0.06861186 0.07062766 0.07368766 0.07621706
 0.07750648 0.07796174 0.07804053 0.07744713 0.075557 0.07258627 0.07006389 0.06969533 0.07171383 0.07473627
 0.07720119 0.07849036 0.07878114 0.07848254 0.07795838 0.07741012 0.07693647 0.07678665 0.07729609 0.07840458
 0.07954825 0.08022255 0.08039552 0.08025442 0.07984553 0.07914889 0.07833615 0.07777052 0.07774509 0.07826397
 0.07908894 0.07994962 0.08063713 0.08096264 0.08082383 0.08035499 0.07985434 0.07951423 0.0793445 0.07935188
 0.07961211 0.0801121 0.08066696 0.08107279 0.0812676 0.08130372 0.0812359 0.08108644 0.08088314 0.08069659
 0.08063434 0.08076821 0.08104448 0.08131871 0.08152354 0.08173592 0.08201409 0.08224718 0.08227018 0.0820848
 0.08186904 0.08178428 0.08184573 0.0819691 0.08206499 0.08205688 0.0818696 0.08149484 0.08108345 0.08089027
 0.0810725 0.08157815 0.08223704 0.0828813 0.08337216 0.08362913 0.08368959 0.08366783 0.08362179 0.0835127
 0.08330858 0.08308178 0.08298823 0.08315282 0.08355926 0.08405305 0.08446378 0.08471178 0.08481313 0.08484861
 0.08493087 0.08511414 0.0853128 0.08538307 0.08530464 0.08521514 0.08524608 0.08537576 0.08546764 0.08543096
 0.0853242 0.08529393 0.08541971 0.08564459 0.08586171 0.08603438 0.08620885 0.08642536 0.08663484 0.08671911
 0.08661522 0.08640591 0.08624243 0.08618643 0.08618887 0.08621836 0.08632243 0.08652945 0.08675951 0.08689342
 0.08690748 0.08689329 0.08694042 0.08702999 0.08706172 0.0869702 0.08679254 0.08662836 0.08655623 0.08658676
 0.08666933 0.08673111 0.08672327 0.0866473 0.0865421 0.08644414 0.08636326 0.08630469 0.08630827 0.08643318
 0.08667479 0.08691089 0.08697584 0.0868123 0.08653592 0.08633068 0.08627951 0.08630366 0.08625988 0.08607866
 0.08580653 0.08553927 0.08533966 0.08521184 0.08512582 0.08505361 0.08499895 0.08500313 0.08510155 0.08525392
 0.08533817 0.08525096 0.0850126 0.08474639 0.08456233 0.08448501 0.08447471 0.08447994 0.08447859 0.08449522
 0.08456224 0.0846507 0.08467824 0.08460906 0.08450679 0.08446853 0.08454409 0.08472395 0.08494739 0.08510955
 0.08512466 0.08501543 0.08490027 0.08487217 0.08492267 0.08499397 0.08506057 0.08513412 0.08522154 0.08531839
 0.08543719 0.08560997 0.08585097 0.08612759 0.08637588 0.08654594 0.08664216 0.08672839 0.08688677 0.0871543
 0.0874919 0.08781667 0.08806799 0.08824886 0.08840717 0.08857918 0.08876163 0.08894643 0.08916 0.08943798
 0.08977031 0.09010598 0.09041068 0.09069265 0.09097418 0.09126401 0.09156221 0.09187879 0.09224024 0.09266566
 0.09312137 0.09351422 0.09376346 0.09388304 0.09397758 0.09416199 0.09448402 0.09488925 0.09524426 0.09543826
 0.09549826 0.09557214 0.09576753 0.09604374 0.09629995 0.09652938 0.09682551 0.09724438 0.09771547 0.09810676
 0.09835435 0.0985119 0.09867954 0.09889451 0.0990992 0.09922139 0.09926953 0.09932357 0.09943945 0.09960747
 0.09981522 0.1000974 0.1004815 0.1009173 0.1013096 0.1016054 0.1018159 0.1019709 0.1020868 0.1021665
 0.1022037 0.1022022 0.1022024 0.1022592 0.102373 0.1024781 0.1025253 0.1025475 0.1026158 0.1027628
 0.1029787 0.1032498 0.1035582 0.1038619 0.1041283 0.1043905 0.1047178 0.1051062 0.1054428 0.1056218
 0.1056615 0.1056631 0.1056853 0.1057222 0.1057854 0.10593 0.1061833 0.1065049 0.1068398 0.1071727
 0.107515 0.1078618 0.1081783 0.1084151 0.1085364 0.1085496 0.1085138 0.1085155 0.1086252 0.1088608
 0.109177 0.1094957 0.1097587 0.1099461 0.110047 0.1100498 0.1099878 0.1099616 0.1100603 0.1102566
 0.1104161 0.1104132 0.1102129 0.1098438 0.109336 0.1087121 0.1080195 0.1073423 0.1067715 0.1063641
 0.1061369 0.106103 0.1062975 0.1067404 0.1073757 0.1080797 0.1087352 0.1092658 0.1095939 0.1096226
 0.1093054 0.1087093 0.1079753 0.1072289 0.1065379 0.1059168 0.1053356 0.10476 0.1042295 0.103894
 0.1039459 0.1045061 0.1055638 0.1069826 0.1085432 0.1100151 0.1112478 0.1122222 0.1130175 0.1137231
 0.1143871 0.1150357 0.1156991 0.1163857 0.117047 0.1176153 0.118076 0.1184754 0.1188597 0.1192358
 0.1195847 0.1198848 0.1201273 0.120331 0.120526 0.1207026 0.1208028 0.1207856 0.1206802 0.1205497
 0.1204204 0.1202634 0.1200274 0.1196823 0.1192567 0.1188633 0.1186816 0.1188848 0.1195448 0.120587
 0.1218442 0.1231622 0.1244452 0.125612 0.126564 0.1272391 0.1276747 0.1279802 0.1282535 0.1285392
 0.1288433 0.1291561 0.129462 0.1297487 0.1300184 0.1302922 0.1305988 0.130949 0.1313131 0.1316356
 0.1318866 0.1321 0.1323505 0.1326861 0.1330807 0.1334618 0.1337894 0.1340922 0.1344099 0.1347236
 0.1349769 0.1351581 0.1353205 0.135527 0.1358047 0.1361467 0.1365157 0.1368489 0.1370976 0.1372733
 0.1374348 0.1376273 0.137853 0.1380949 0.1383455 0.1386037 0.1388651 0.1391307 0.1394152 0.1397254
 0.1400304 0.1402757 0.1404404 0.1405657 0.1407155 0.1409164 0.141144 0.1413599 0.1415538 0.1417558
 0.1420096 0.1423249 0.1426546 0.1429276 0.1431097 0.143228 0.1433401 0.1434876 0.1436786 0.1438979
 0.1441236 0.1443372 0.1445305 0.1447121 0.1449011 0.1451087 0.1453274 0.1455413 0.1457444 0.1459443
 0.1461509 0.1463664 0.1465909 0.1468329 0.1471047 0.1473999 0.1476848 0.1479228 0.1481039 0.1482468
 0.148378 0.1485172 0.1486748 0.1488523 0.1490445 0.1492456 0.1494505 0.1496533 0.1498497 0.1500419
 0.1502362 0.1504376 0.1506477 0.1508649 0.1510862 0.1513126 0.1515487 0.1517925 0.1520298 0.1522458
 0.1524397 0.152625 0.1528148 0.1530085 0.1531934 0.1533606 0.1535192 0.1536911 0.1538878 0.1540995
 0.1543079 0.1545053 0.1546958 0.1548856 0.1550776 0.155275 0.1554821 0.1556972 0.15591 0.156111
 0.1563013 0.1564876 0.1566731 0.1568582 0.1570454 0.1572374 0.1574339 0.1576359 0.1578474 0.1580679
 0.1582878 0.1584949 0.1586854 0.1588653 0.1590453 0.1592336 0.1594327 0.1596393 0.1598442 0.1600383
 0.1602214 0.1604053 0.1606016 0.1608112 0.1610275 0.1612445 0.161459 0.1616715 0.1618865 0.162107
 0.1623282 0.1625441 0.1627551 0.162967 0.1631814 0.163394 0.1636002 0.1638021 0.1640067 0.1642162
 0.1644226 0.1646164 0.1647965 0.1649679 0.1651349 0.1653022 0.1654753 0.1656558 0.165842 0.1660324
 0.1662233 0.1664103 0.1665963 0.1667912 0.1669979 0.1672094 0.1674197 0.1676279 0.1678347 0.1680419
 0.1682509 0.168458 0.1686563 0.1688466 0.169037 0.1692356 0.1694449 0.1696613 0.1698765 0.1700881
 0.1703006 0.1705138 0.1707206 0.1709216 0.1711281 0.1713453 0.1715671 0.1717859 0.1719971 0.1721982
 0.1723941 0.1725938 0.1727992 0.1730077 0.1732201 0.1734365 0.1736509 0.1738612 0.1740725 0.1742876
 0.174507 0.1747331 0.1749625 0.1751828 0.1753877 0.1755841 0.1757829 0.1759935 0.1762187 0.1764458
 0.1766582 0.1768572 0.1770531 0.1772363 0.177362 0.1773124 0.1767995 0.1752644 0.1718718 0.1656765
 0.155996 0.1428435 0.1270809 0.110117 0.09338492 0.07796728 0.06449693 0.05325098 0.04429194 0.03755163
 0.03288285 0.03015296 0.02934646 0.0306716 0.03467313 0.04190699 0.05171952 0.06116746 0.06616174 0.06469488
 0.05876242 0.05254574 0.04893546 0.04813187 0.04889439 0.05016552 0.05161185 0.05342976 0.05595531 0.05928479
 0.06325836 0.06787083 0.07346889 0.08030605 0.08801565 0.09576785 0.1029839 0.1097892 0.1167316 0.1241282
 0.1317362 0.1389927 0.1454612 0.1510516 0.1559383 0.1603641 0.164498 0.1684145 0.1721471 0.1756939
 0.1789352 0.1815959 0.183377 0.1841822 0.184229 0.1839294 0.1836475 0.1835502 0.1836459 0.1839027
 0.1843064 0.1848509 0.1855195 0.1862801 0.1870922 0.1879232 0.1887556 0.1895721 0.1903484 0.191069
 0.1917336 0.1923437 0.1928985 0.1934041 0.1938697 0.1943001 0.1947026 0.1950896 0.1954675 0.19583
 0.1961688 0.196479 0.1967577 0.1970064 0.1972348 0.1974562 0.1976801 0.1979093 0.198139 0.1983599
 0.1985677 0.1987675 0.1989664 0.199169 0.1993767 0.1995876 0.199798 0.2000085 0.200222 0.2004341
 0.200635 0.2008246 0.2010139 0.2012088 0.2014052 0.2015984 0.2017886 0.2019759 0.2021592 0.2023397
 0.2025227 0.2027155 0.2029211 0.2031324 0.2033383 0.2035368 0.2037365 0.2039414 0.2041477 0.2043525
 0.2045574 0.2047651 0.20498 0.2052052 0.2054305 0.2056332 0.2058015 0.2059504 0.2061104 0.2063035
 0.2065261 0.2067537 0.2069646 0.2071591 0.2073509 0.2075481 0.2077458 0.2079345 0.2081133 0.2083015
 0.2085252 0.2087819 0.2090368 0.2092671 0.2094845 0.2097052 0.2099303 0.210162 0.210403 0.2106285
 0.2107997 0.2109208 0.211061 0.2112987 0.2116424 0.2120172 0.2123395 0.2125932 0.21282 0.2130613
 0.2133335 0.2136155 0.2138222 0.2138581 0.213766 0.2137589 0.2140245 0.2145364 0.2151088 0.2155893
 0.2159494 0.2162347 0.2164888 0.2167107 0.2168563 0.2168884 0.2168511 0.2168899 0.2171502 0.2176308
 0.2181734 0.218623 0.2189475 0.2191873 0.2193782 0.2195459 0.219661 0.2195794 0.2191941 0.2187105
 0.2185957 0.2191231 0.2200639 0.2209367 0.2214896 0.2218244 0.2221174 0.2224012 0.2226256 0.2227029
 0.2223998 0.2214703 0.220143 0.2192556 0.2195617 0.2209707 0.222697 0.2240464 0.2248464 0.2252659
 0.2255202 0.2257319 0.2258331 0.2255633 0.2247627 0.2237656 0.2233176 0.2238894 0.2251485 0.2263153
 0.2269585 0.2272289 0.2274428 0.2277229 0.227913 0.2275497 0.2261298 0.2238549 0.2219964 0.2220004
 0.2240753 0.2269414 0.2290999 0.2301205 0.2305147 0.2306252 0.2301175 0.2285746 0.2261187 0.2233563
 0.2211871 0.2206786 0.2223549 0.2253162 0.2277562 0.2287479 0.2290256 0.2297811 0.2312462 0.2327089
 0.233434 0.2332304 0.2323264 0.2309657 0.2292859 0.2276882 0.2270682 0.2281813 0.2307247 0.2334442
 0.2352953 0.2362353 0.2366732 0.2362435 0.2335653 0.2279019 0.2212256 0.2176628 0.2198501 0.2261798
 0.2325294 0.2363155 0.2379064 0.238677 0.2391615 0.2389078 0.2367447 0.2314272 0.2236056 0.2170527
 0.2161102 0.2213946 0.2290987 0.2345443 0.2353645 0.2317434 0.2255726 0.2198896 0.2176404 0.2198994
 0.2254019 0.2317908 0.2370269 0.2399574 0.2403151 0.2386061 0.2360707 0.2343828 0.2344361 0.235021
 0.2337472 0.2300639 0.2261758 0.223806 0.2215311 0.2174129 0.2132556 0.2134165 0.2191468 0.2264995
 0.2307625 0.2312348 0.2303796 0.229332 0.2259511 0.2179009 0.2070775 0.1996944 0.200848 0.2092229
 0.218268 0.2226161 0.2223491 0.2210622 0.2210763 0.2210759 0.2179576 0.2108729 0.2032945 0.2001035
 0.202397 0.2065088 0.208358 0.206703 0.2017074 0.1936409 0.185249 0.182606 0.1899918 0.2046578
 0.2189747 0.2267138 0.2253347 0.2146265 0.1975902 0.1822682 0.1778382 0.1863942 0.2003989 0.2096115
 0.2092105 0.2006583 0.1873384 0.172247 0.1593883 0.1542021 0.1603124 0.1758543 0.1934808 0.2039936
 0.2014285 0.1877235 0.1731815 0.1690638 0.1773099 0.1891626 0.1949638 0.1929207 0.1877492 0.1846209
 0.186181 0.1920507 0.1992242 0.2049016 0.2087201 0.2095677 0.2025726 0.1849559 0.1637723 0.1512588
 0.1521306 0.1611785 0.1730511 0.1870587 0.200783 0.2067803 0.2009704 0.1903513 0.187033 0.1953811
 0.2082844 0.2158557 0.2152172 0.2110302 0.2083099 0.2070943 0.2049185 0.202571 0.2043097 0.2119743
 0.2217618 0.2284698 0.23091 0.2314324 0.231945 0.2324651 0.2324683 0.2317666 0.2304311 0.2289146
 0.22791 0.2275693 0.2273608 0.2268696 0.2257689 0.2225997 0.2150916 0.203359 0.1919287 0.1861527
 0.1865333 0.1890988 0.1913053 0.1935198 0.1935119 0.1848964 0.1655628 0.1446055 0.1357077 0.1439162
 0.1618842 0.1782561 0.1863685 0.1848166 0.1740674 0.156682 0.1400289 0.1339624 0.1427822 0.1611142
 0.1796596 0.193205 0.2012025 0.2033208 0.1984681 0.1879612 0.1767903 0.1707608 0.1729608 0.1824084
 0.1943769 0.2016073 0.1978653 0.1841419 0.1713792 0.1723931 0.1884291 0.2070835 0.2162414 0.2163401
 0.2154498 0.2167253 0.2168486 0.2148479 0.2156225 0.2232305 0.234921 0.2438494 0.2450852 0.2375517
 0.223389 0.2084539 0.2007935 0.2041555 0.2136635 0.2210658 0.2226873 0.2189421 0.2094829 0.195251
 0.1836197 0.1839536 0.1967655 0.2125071 0.2224191 0.2265057 0.2295484 0.2328751 0.2327507 0.226036
 0.2154327 0.2078236 0.2074747 0.212309 0.2174316 0.2202882 0.2207114 0.2180129 0.2114089 0.2033242
 0.1994171 0.2036678 0.2142391 0.2251604 0.2316366 0.2330399 0.2315297 0.2292434 0.2268544 0.2237286
 0.2193453 0.2151554 0.2143038 0.2182714 0.2245204 0.229109 0.2312109 0.233385 0.2375572 0.2423664
 0.244819 0.2435518 0.2401229 0.2376451 0.2382863 0.2415548 0.2446707 0.2449365 0.2422996 0.239645
 0.240142 0.2442208 0.249507 0.2535196 0.2556939 0.2568794 0.2578885 0.2587839 0.2588304 0.2570536
 0.2536164 0.2506155 0.2505877 0.2539896 0.2587669 0.262485 0.2643 0.2648088 0.2646945 0.2640145
 0.2626106 0.2607647 0.2592116 0.2585524 0.2588238 0.2596506 0.2606375 0.2615363 0.2622233 0.262685
 0.2629896 0.2631973 0.2633275 0.2634106 0.263481 0.2635038 0.26341 0.26325 0.2632139 0.2634268
 0.2637824 0.2640495 0.2640834 0.2638486 0.2632986 0.2623712 0.2611105 0.2596671 0.2581287 0.256456
 0.2547038 0.2532739 0.2528049 0.253697 0.2557362 0.2582164 0.2604237 0.2620042 0.2629648 0.2634698
 0.2636896 0.2637562 0.2637505 0.2636949 0.2635724 0.2633657 0.2630798 0.262733 0.2623454 0.2619449
 0.2615754 0.2612711 0.2610172 0.2607497 0.2604045 0.2599631 0.2594547 0.2589224 0.258387 0.2578301
 0.2572046 0.2564669 0.2556056 0.2546555 0.2536925 0.2527965 0.2519944 0.25124 0.2504658 0.2496399
 0.2487505 0.2477638 0.246655 0.2454886 0.2444137 0.2435426 0.2428567 0.2422433 0.2415947 0.2408489
 0.2399801 0.2389961 0.2379405 0.2368628 0.2357812 0.2346804 0.2335306 0.2322997 0.2309649 0.2295257
 0.2279999 0.226409 0.2247786 0.2231356 0.221475 0.2197245 0.2177562 0.2154326 0.2126405 0.2093046
 0.2054033 0.2009929 0.1962165 0.191275 0.1863739 0.1816833 0.1773366 0.1734448 0.170098 0.1673605
 0.1652755 0.1638684 0.163148 0.1631142 0.1637654 0.1650853 0.1670189 0.1694591 0.172255 0.1752314
 0.1782125 0.1810466 0.1836405 0.1859933 0.1881826 0.1902818 0.192284 0.1941239 0.1957572 0.1971881
 0.1984331 0.1994933 0.2003699 0.2010844 0.2016735 0.2021696 0.2025887 0.2029365 0.2032225 0.2034615
 0.2036624 0.2038316 0.2039863 0.2041557 0.2043627 0.2046123 0.204899 0.205227 0.2056165 0.2060818
 0.2066059 0.2071498 0.2076882 0.2082298 0.2088032 0.2094393 0.2101645 0.2110017 0.2119695 0.2130786
 0.214325 0.2156813 0.2170885 0.218453 0.2196666 0.2206496 0.2213796 0.2218762 0.2221694 0.2222886
 0.2222596 0.2220953 0.2217996 0.2213898 0.2209029 0.2203719 0.2198063 0.219199 0.2185433 0.217843
 0.2171144 0.216384 0.2156777 0.2150058 0.2143606 0.2137281 0.2131026 0.2124864 0.2118808 0.2112855
 0.2107053 0.2101444 0.2095971 0.209049 0.2084839 0.2078796 0.2072042 0.2064318 0.205562 0.2046152
 0.2036085 0.2025398 0.2013939 0.200158 0.198827 0.1973999 0.1958789 0.194275 0.1926072 0.1908862
 0.1890979 0.1872133 0.1852283 0.1831937 0.1812001 0.1793262 0.1776008 0.1760041 0.1744982 0.1730608
 0.1716982 0.170422 0.1692208 0.1680664 0.1669459 0.1658713 0.1648585 0.163911 0.1630271 0.1622159
 0.1614981 0.1608864 0.1603675 0.1599133 0.1595069 0.1591514 0.1588638 0.158674 0.1586069 0.1586427
 0.1587122 0.1587463 0.1587179 0.158637 0.1585267 0.158409 0.1582949 0.1581885 0.1580962 0.1580113
 0.157881 0.1576074 0.1570828 0.1562275 0.1550184 0.1535004 0.1517641 0.1499183 0.1480868 0.1463972
 0.1449414 0.1437591 0.1428555 0.1422015 0.1417228 0.1413366 0.1410153 0.1408055 0.1407839 0.1409663
 0.1412393 0.1414219 0.1414426 0.1414222 0.1415543 0.141945 0.1425713 0.1433283 0.1440944 0.1447881
 0.1453692 0.1457977 0.1460468 0.1461546 0.1461915 0.1461769 0.1460811 0.1458903 0.1456228 0.1453033
 0.144946 0.1445395 0.144054 0.1434796 0.1428284 0.1420971 0.1412767 0.140377 0.1393816 0.1382379
 0.1369845 0.1358406 0.135098 0.134943 0.1353708 0.1362007 0.137197 0.1382276 0.1392337 0.140038
 0.1403919 0.1403659 0.1405452 0.1416086 0.1436797 0.1461797 0.1483371 0.1497521 0.1504451 0.1505415
 0.1501074 0.1491881 0.1477861 0.14584 0.1433593 0.140495 0.1374169 0.1342719 0.1312646 0.1285903
 0.1263131 0.1244308 0.1229607 0.1219741 0.1216066 0.1214557 0.1195841 0.11355 0.1041786 0.09720026
 0.09841606 0.1071767 0.116856 0.1218407 0.1219855 0.1202915 0.1188258 0.1178853 0.1173468 0.1173548
 0.1180479 0.1192865 0.1206876 0.1218619 0.1226455 0.1230615 0.1230505 0.1222431 0.1198989 0.1151606
 0.1077426 0.09852827 0.08927424 0.08159699 0.07624409 0.07310124 0.07154168 0.07078734 0.0702853 0.06997266
 0.07017656 0.07122178 0.07315499 0.07581657 0.07901876 0.0825119 0.0858766 0.08869018 0.09084375 0.09254123
 0.09395757 0.09503235 0.09561487 0.09567337 0.09530883 0.09465834 0.09384996 0.09298864 0.09209299 0.09106702
 0.08984932 0.08860907 0.08767456 0.08722419 0.08714797 0.08722652 0.08732192 0.08738022 0.08737832 0.08731729
 0.08722199 0.0871572 0.08724527 0.08758166 0.08809865 0.0885838 0.08886524 0.08895016 0.08897565 0.08900939
 0.08889572 0.08840534 0.08759846 0.0868495 0.0863453 0.08576082 0.08469722 0.08331351 0.08224189 0.08191429
 0.08218518 0.08258812 0.08275886 0.08260307 0.08227585 0.08210877 0.08238949 0.08303689 0.08357822 0.08359774
</values></Ydata></ScRf><Data_Parameters_AB><parameter name="DPF">1</parameter><parameter name="NPT">3497</parameter><parameter name="FXV">3996</parameter><parameter name="LXV">500</parameter><parameter name="CSF">1</parameter><parameter name="MXY">0.217086136341095</parameter><parameter name="MNY">-0.0748761519789696</parameter><parameter name="DAT">31/05/2022</parameter><parameter name="TIM">13:34:47.378 (GMT+2)</parameter><parameter name="DXU">WN</parameter></Data_Parameters_AB><AB__Qtest><MainReport name="Quality Test Report"><Header><Line><Legend>Test result ok/not ok [1/0]: </Legend><Value>0</Value></Line><Line><Legend>Method file: </Legend><Value>C:\Users\Public\Documents\Bruker\OPUS_8.2.28\QT\IRBT_v3_default.QT</Value></Line></Header><Matrix><Line><Legend></Legend><Legend>min</Legend><Legend>max</Legend><Legend>measured</Legend></Line><Line><Value>Absorption (X-Range 1):</Value><Value>0.400000</Value><Value>2.000000</Value><Value>0.198704</Value></Line><Line><Value>Noise (X-Range 4):</Value><Value></Value><Value>0.000300</Value><Value>0.000041</Value></Line><Line><Value>Signal/Noise (X-Range 2):</Value><Value>200.000000</Value><Value></Value><Value>84.531870</Value></Line><Line><Value>Signal/Noise (X-Range 3):</Value><Value>40.000000</Value><Value></Value><Value>60.114547</Value></Line><Line><Value>Water vapour (X-Range 5):</Value><Value></Value><Value>0.000300</Value><Value>0.000110</Value></Line><Line><Value>Signal/Water (X-Range 2):</Value><Value>100.000000</Value><Value></Value><Value>31.443522</Value></Line><Line><Value>Signal/Water (X-Range 3):</Value><Value>20.000000</Value><Value></Value><Value>22.360952</Value></Line><Line><Value>Fringes (X-Range 6):</Value><Value></Value><Value>0.000100</Value><Value>0.000055</Value></Line></Matrix></MainReport></AB__Qtest><Data_Parameters_ScSm><parameter name="DPF">1</parameter><parameter name="NPT">1814</parameter><parameter name="FXV">3996.33169228125</parameter><parameter name="LXV">499.541461535156</parameter><parameter name="CSF">1</parameter><parameter name="MXY">0.282845556735992</parameter><parameter name="MNY">0.0345931276679039</parameter><parameter name="DAT">31/05/2022</parameter><parameter name="TIM">13:34:47.378 (GMT+2)</parameter><parameter name="DXU">WN</parameter></Data_Parameters_ScSm><Data_Parameters_ScRf><parameter name="DPF">1</parameter><parameter name="NPT">1820</parameter><parameter name="FXV">4004.04661832813</parameter><parameter name="LXV">495.683998511719</parameter><parameter name="CSF">1</parameter><parameter name="MXY">0.264808773994446</parameter><parameter name="MNY">0.0293464586138725</parameter><parameter name="DAT">31/05/2022</parameter><parameter name="TIM">13:34:21.525 (GMT+2)</parameter><parameter name="DXU">WN</parameter></Data_Parameters_ScRf><Optic_Parameters_Rf><parameter name="APR">0</parameter><parameter name="APT">Open</parameter><parameter name="BMS">KBr</parameter><parameter name="DTC">RT-DLaTGS_IR-Biotyper [Microplate reader]</parameter><parameter name="HPF">0</parameter><parameter name="LPF">10.0</parameter><parameter name="LPV">4000</parameter><parameter name="PGR">0</parameter><parameter name="RCH">Module port</parameter><parameter name="RDX">0</parameter><parameter name="SRC">MIR</parameter><parameter name="VEL">10.0</parameter><parameter name="SON">Off</parameter></Optic_Parameters_Rf><Acquisition_Parameters_Rf><parameter name="ADT">1</parameter><parameter name="AQM">DD</parameter><parameter name="CFE">0</parameter><parameter name="COR">0</parameter><parameter name="DEL">0</parameter><parameter name="DLY">0</parameter><parameter name="HFW">8000</parameter><parameter name="LFW">0</parameter><parameter name="NSR">32</parameter><parameter name="PLF">AB</parameter><parameter name="RES">6</parameter><parameter name="RGN">-1</parameter><parameter name="STR">0</parameter><parameter name="TCL">MakeCompatibleScalar (0, {WSV=1.000000, ARV=0});</parameter><parameter name="TDL">37</parameter><parameter name="RPO">0</parameter></Acquisition_Parameters_Rf><FT_-_Parameters_Rf><parameter name="APF">B3</parameter><parameter name="HFQ">500</parameter><parameter name="LFQ">4000</parameter><parameter name="NLI">0</parameter><parameter name="PHR">24</parameter><parameter name="PHZ">ML</parameter><parameter name="SPZ">NO</parameter><parameter name="ZFF">1</parameter></FT_-_Parameters_Rf><Optic_Parameters_><parameter name="APR">0</parameter><parameter name="APT">Open</parameter><parameter name="BMS">KBr</parameter><parameter name="CHN">Module port</parameter><parameter name="DTC">RT-DLaTGS_IR-Biotyper [Microplate reader]</parameter><parameter name="HPF">0</parameter><parameter name="LPF">10.0</parameter><parameter name="LPV">4000</parameter><parameter name="PGN">0</parameter><parameter name="RDX">0</parameter><parameter name="SRC">MIR</parameter><parameter name="VEL">10.0</parameter><parameter name="SON">Off</parameter></Optic_Parameters_><FT_-_Parameters_><parameter name="APF">B3</parameter><parameter name="HFQ">500</parameter><parameter name="LFQ">4000</parameter><parameter name="NLI">0</parameter><parameter name="PHR">24</parameter><parameter name="PHZ">ML</parameter><parameter name="SPZ">NO</parameter><parameter name="ZFF">1</parameter></FT_-_Parameters_><Acquisition_Parameters_><parameter name="ADT">1</parameter><parameter name="AQM">DD</parameter><parameter name="CFE">0</parameter><parameter name="COR">0</parameter><parameter name="DEL">0</parameter><parameter name="DLY">0</parameter><parameter name="HFW">8000</parameter><parameter name="LFW">0</parameter><parameter name="NSS">32</parameter><parameter name="PLF">AB</parameter><parameter name="RES">6</parameter><parameter name="SOT">0</parameter><parameter name="TCL">MakeCompatibleScalar (0, {WSV=1.000000, ARV=0});</parameter><parameter name="TDL">37</parameter><parameter name="SPO">0</parameter><parameter name="SGN">-1</parameter></Acquisition_Parameters_><Instrument_Parameters_Rf><parameter name="HFL">15800.168544</parameter><parameter name="LFL">0</parameter><parameter name="LWN">15800.168544</parameter><parameter name="ABP">32197</parameter><parameter name="SSP">1</parameter><parameter name="ARG">2</parameter><parameter name="ASG">2</parameter><parameter name="ASS">32</parameter><parameter name="GFW">16</parameter><parameter name="GBW">16</parameter><parameter name="BFW">0</parameter><parameter name="BBW">0</parameter><parameter name="PKA">7257</parameter><parameter name="PKL">4996</parameter><parameter name="PRA">7444</parameter><parameter name="PRL">5001</parameter><parameter name="P2A">1</parameter><parameter name="P2L">1</parameter><parameter name="P2R">1</parameter><parameter name="P2K">1</parameter><parameter name="DAQ">0</parameter><parameter name="AG2">1</parameter><parameter name="SSM">1</parameter><parameter name="RSN">25681</parameter><parameter name="CRR">0</parameter><parameter name="SRT">1654004061.525</parameter><parameter name="DUR">19.6379852294922</parameter><parameter name="TSC">28.9</parameter><parameter name="MVD">0.188464134931564</parameter><parameter name="AN1">0.225800698598518</parameter><parameter name="AN2">0</parameter><parameter name="VSN">2.485 Apr  4 2017</parameter><parameter name="SRN">0085</parameter><parameter name="CAM">0</parameter><parameter name="INS">IR-Biotyper</parameter><parameter name="FOC">69</parameter><parameter name="RDY">1</parameter><parameter name="ARS">32</parameter></Instrument_Parameters_Rf><Sample_Parameters_><parameter name="BLD"></parameter><parameter name="CNM">Admin</parameter><parameter name="CPY"></parameter><parameter name="DPM"></parameter><parameter name="EXP">IRBT_v3_32Scans.XPM</parameter><parameter name="LCT"></parameter><parameter name="SFM">Microplate, HTS-XT</parameter><parameter name="SNM">220531-1301_CGR32F (D_2)_B3_48ba7090-c5cd-48e4-bf2f-aaf5e1421f3c.0</parameter><parameter name="XPP">C:\Users\Public\Documents\Bruker\OPUS_8.2.28\XPM</parameter><parameter name="IST">OK</parameter><parameter name="CPG">1252</parameter><parameter name="UID">25d778b6-d114-4770-97d0-77f850aa0eaa</parameter></Sample_Parameters_><Instrument_Parameters_><parameter name="HFL">15800.168544</parameter><parameter name="LFL">0</parameter><parameter name="LWN">15800.168544</parameter><parameter name="ABP">32197</parameter><parameter name="SSP">1</parameter><parameter name="ASG">2</parameter><parameter name="ARG">2</parameter><parameter name="ASS">32</parameter><parameter name="GFW">16</parameter><parameter name="GBW">16</parameter><parameter name="BFW">0</parameter><parameter name="BBW">0</parameter><parameter name="PKA">7316</parameter><parameter name="PKL">4988</parameter><parameter name="PRA">7599</parameter><parameter name="PRL">4993</parameter><parameter name="P2A">1</parameter><parameter name="P2L">1</parameter><parameter name="P2R">1</parameter><parameter name="P2K">1</parameter><parameter name="DAQ">0</parameter><parameter name="AG2">1</parameter><parameter name="SSM">1</parameter><parameter name="RSN">13466</parameter><parameter name="CRR">0</parameter><parameter name="SRT">1654004087.378</parameter><parameter name="DUR">19.6369934082031</parameter><parameter name="TSC">28.9</parameter><parameter name="MVD">0.230286598205566</parameter><parameter name="AN1">0.225808237907731</parameter><parameter name="AN2">0</parameter><parameter name="VSN">2.485 Apr  4 2017</parameter><parameter name="SRN">0085</parameter><parameter name="CAM">0</parameter><parameter name="INS">IR-Biotyper</parameter><parameter name="FOC">69</parameter><parameter name="RDY">1</parameter></Instrument_Parameters_><History/></OPUSDataFile>
