<?xml version="1.0" encoding="UTF-8" ?>
<OPUSDataFile><AB><Ydata ylabel="Absorbance Units"><values byteorder="INTEL" format="FLOAT32" numvalues="3497"> -0.05598808 -0.0560126 -0.05603588 -0.05605881 -0.05606786 -0.05606236 -0.05603662 -0.05599197 -0.05594271 -0.0558919
 -0.05586587 -0.05586345 -0.05589744 -0.05595837 -0.05603154 -0.05610688 -0.056159 -0.05619044 -0.05619098 -0.05617592
 -0.05615346 -0.05613625 -0.05613544 -0.05614875 -0.05617967 -0.05621567 -0.05625467 -0.05628569 -0.05630606 -0.05631449
 -0.05631007 -0.0563007 -0.05628679 -0.05627827 -0.05627506 -0.05627913 -0.05628911 -0.0562976 -0.05630423 -0.05630258
 -0.05629594 -0.05628828 -0.05628402 -0.05629371 -0.05631533 -0.05635374 -0.05639639 -0.05643586 -0.05646044 -0.05645884
 -0.05643677 -0.05639126 -0.05634047 -0.05628909 -0.05624532 -0.05621242 -0.05618337 -0.05615771 -0.05613079 -0.0561023
 -0.05607696 -0.05605502 -0.05604113 -0.05603506 -0.05603714 -0.05604818 -0.05607165 -0.05610737 -0.05615839 -0.05621975
 -0.05628517 -0.0563493 -0.05640193 -0.05644526 -0.05647705 -0.05650252 -0.05652567 -0.05654339 -0.0565562 -0.05655739
 -0.05654354 -0.05652072 -0.05648801 -0.05646186 -0.05644371 -0.05644583 -0.05646899 -0.05651582 -0.05658589 -0.05667495
 -0.05678083 -0.05689023 -0.05699752 -0.05707501 -0.05711899 -0.05710257 -0.05703573 -0.05691956 -0.05677338 -0.05661977
 -0.05647234 -0.05635156 -0.05625578 -0.05619237 -0.056146 -0.05611172 -0.05608178 -0.05605028 -0.0560311 -0.05602513
 -0.05604841 -0.05610403 -0.05618336 -0.05628619 -0.05638379 -0.05647538 -0.05654325 -0.0565899 -0.05662201 -0.05664247
 -0.05666651 -0.05669259 -0.05672624 -0.05676061 -0.05678613 -0.05679922 -0.05678893 -0.05676345 -0.0567249 -0.05668322
 -0.05664601 -0.0566133 -0.05658603 -0.0565658 -0.05655023 -0.05655709 -0.05658783 -0.0566656 -0.05679499 -0.05696654
 -0.05718059 -0.05734649 -0.05745985 -0.05742881 -0.05726949 -0.05704093 -0.05676031 -0.05652738 -0.0563372 -0.05622777
 -0.05618674 -0.05621351 -0.0562886 -0.05639291 -0.0565003 -0.05658152 -0.05662691 -0.05661546 -0.05657524 -0.05650967
 -0.05645343 -0.05642035 -0.05640822 -0.05642102 -0.05643428 -0.05644506 -0.0564464 -0.05643751 -0.05643744 -0.056447
 -0.05648286 -0.05654218 -0.05661587 -0.05669854 -0.05676382 -0.05681132 -0.05682539 -0.05681184 -0.05677343 -0.05671569
 -0.05664507 -0.05656882 -0.05649286 -0.05642875 -0.0563843 -0.05636765 -0.05638582 -0.05643328 -0.05651259 -0.05660333
 -0.05670337 -0.05679096 -0.05686343 -0.05690949 -0.05692829 -0.05691401 -0.05686645 -0.05678138 -0.05665987 -0.05650505
 -0.05632146 -0.05612592 -0.05592704 -0.05575472 -0.05561511 -0.05553633 -0.0555093 -0.05554037 -0.05560087 -0.05567155
 -0.05572348 -0.05573026 -0.05569341 -0.05560101 -0.05548848 -0.05536077 -0.05525632 -0.05518446 -0.0551547 -0.05517063
 -0.05521513 -0.05528744 -0.05536829 -0.05545703 -0.05554302 -0.05562566 -0.05569625 -0.05575331 -0.05578532 -0.05579376
 -0.0557747 -0.05573477 -0.05568352 -0.05562693 -0.05557673 -0.05553425 -0.0555032 -0.05548747 -0.05548772 -0.0555159
 -0.05557813 -0.05567706 -0.05582042 -0.05597638 -0.05614344 -0.05627531 -0.05636503 -0.05640481 -0.05639355 -0.05634296
 -0.05625288 -0.05611708 -0.05593819 -0.0557281 -0.05549668 -0.05528946 -0.05511364 -0.05501381 -0.05498428 -0.05504357
 -0.05516099 -0.05530981 -0.05545462 -0.0555479 -0.05559696 -0.05558817 -0.05555183 -0.05549937 -0.05544237 -0.05538908
 -0.0553281 -0.05525875 -0.05517008 -0.05505946 -0.05493656 -0.05480156 -0.05467616 -0.05456135 -0.05447522 -0.05441772
 -0.05439973 -0.05441627 -0.0544577 -0.05450994 -0.05452899 -0.0545106 -0.05441828 -0.05427737 -0.05410451 -0.05392258
 -0.05376238 -0.05361896 -0.05350128 -0.05338863 -0.05327327 -0.05314595 -0.05299908 -0.05284781 -0.05269274 -0.05255384
 -0.05243472 -0.05233391 -0.05225208 -0.05215979 -0.05205561 -0.05190996 -0.05172724 -0.0515247 -0.05130936 -0.05112273
 -0.05096034 -0.05083185 -0.05072919 -0.05064103 -0.05056464 -0.05049299 -0.05042252 -0.05034968 -0.05026604 -0.05016517
 -0.05004356 -0.04989786 -0.04972917 -0.04953943 -0.04931764 -0.0490625 -0.04876237 -0.04841452 -0.04802637 -0.04759797
 -0.0471467 -0.04667381 -0.04620074 -0.04573068 -0.04529736 -0.04490308 -0.04457963 -0.04431828 -0.04411573 -0.04395369
 -0.04379672 -0.04363346 -0.04343536 -0.04319714 -0.0429061 -0.0425559 -0.04213265 -0.04165813 -0.04113168 -0.04059894
 -0.04007616 -0.03957446 -0.03910122 -0.03863859 -0.03818493 -0.03773023 -0.03727335 -0.03682294 -0.0363797 -0.03595905
 -0.03556036 -0.0351888 -0.03483832 -0.03448932 -0.03413017 -0.03371541 -0.03324719 -0.03269861 -0.03210242 -0.03149117
 -0.03088738 -0.03032919 -0.02980512 -0.02932172 -0.02885537 -0.02839771 -0.02793176 -0.02744873 -0.0269515 -0.02643773
 -0.02592307 -0.02541009 -0.02489971 -0.02439279 -0.02386494 -0.02331514 -0.02272275 -0.02209131 -0.02143794 -0.02076864
 -0.02011967 -0.01949057 -0.01889973 -0.01834104 -0.01781295 -0.01730642 -0.01681104 -0.01631456 -0.01580117 -0.0152672
 -0.01470227 -0.01411964 -0.01352248 -0.01292169 -0.01232421 -0.01171937 -0.01110648 -0.01047379 -0.009817562 -0.009155211
 -0.008487169 -0.00784569 -0.007231843 -0.006662011 -0.006134488 -0.005645494 -0.005189479 -0.00474202 -0.00429589 -0.003815428
 -0.0033042 -0.002747855 -0.002164223 -0.001571712 -0.0009820532 -0.0004186058 0.0001335085 0.0006723941 0.001228351 0.001817869
 0.002444708 0.00311914 0.003808641 0.004509263 0.005191636 0.005850315 0.006482394 0.007086845 0.007677913 0.008256175
 0.008831654 0.009404021 0.009973824 0.01054244 0.01111576 0.01169659 0.01229818 0.01291656 0.01355287 0.01419578
 0.01482951 0.01544918 0.01604203 0.01661561 0.0171707 0.01771536 0.01825442 0.01878824 0.01931833 0.0198415
 0.02035722 0.02086376 0.02136033 0.02185087 0.02233529 0.02282599 0.02332363 0.02384141 0.02437867 0.02493676
 0.02551272 0.02609412 0.02667874 0.02725261 0.02781808 0.02837229 0.02892034 0.02946934 0.03001877 0.03057334
 0.03112286 0.03166161 0.03218398 0.03268195 0.0331706 0.03365076 0.03414526 0.03466065 0.03519928 0.03576393
 0.03633627 0.03691533 0.03748339 0.03803979 0.03857632 0.03909359 0.03959258 0.04007525 0.04055094 0.04102106
 0.04149558 0.04197221 0.04245154 0.04293006 0.04340205 0.04386864 0.04432726 0.04478461 0.04524285 0.04571222
 0.0461984 0.04670545 0.04723974 0.04778257 0.04833442 0.04885885 0.04935003 0.04979473 0.05019 0.05056957
 0.05093551 0.05133488 0.05176661 0.05224326 0.05275776 0.05328445 0.05381721 0.0543231 0.05480443 0.05524787
 0.05566389 0.05606156 0.05644872 0.05683901 0.05722706 0.05761403 0.05799183 0.05835422 0.05870788 0.05905258
 0.05939956 0.05975261 0.06010875 0.06046834 0.06082472 0.06117688 0.06153408 0.06189696 0.06228023 0.06268367
 0.06311101 0.06356131 0.0640327 0.0645234 0.06502999 0.06554471 0.06605167 0.06654146 0.0669914 0.06740469
 0.06777262 0.06811214 0.06843179 0.06874482 0.06906192 0.06937962 0.0697009 0.07001157 0.07030907 0.07058378
 0.07083277 0.07106286 0.07127355 0.07148935 0.07171162 0.07196807 0.07225851 0.07259442 0.07297109 0.07337422
 0.07379546 0.07420217 0.07458972 0.07492979 0.07523079 0.07548829 0.07572417 0.07595748 0.07620659 0.07649392
 0.07681348 0.07717394 0.07754295 0.07791376 0.07825449 0.07855422 0.07881352 0.07902838 0.07922997 0.07942066
 0.07961927 0.07982588 0.08001879 0.08019583 0.08032548 0.08041172 0.08045553 0.08046653 0.08047438 0.08048617
 0.08053081 0.08061046 0.08074183 0.08091974 0.0811486 0.08141159 0.08169927 0.08199701 0.08229121 0.08259217
 0.08289823 0.08323081 0.08359905 0.08398733 0.08439962 0.08477475 0.0851083 0.08535113 0.08550192 0.08557501
 0.08557558 0.08556005 0.08552965 0.08552086 0.08552839 0.08555131 0.08559261 0.0856542 0.08575024 0.08590738
 0.08612005 0.08640452 0.08671421 0.08702543 0.08729181 0.0874756 0.08759088 0.08762453 0.08764306 0.08765821
 0.08772029 0.08784161 0.08801574 0.08824491 0.08848435 0.08873166 0.08893839 0.08910407 0.0892026 0.08924061
 0.08923351 0.08919555 0.08917903 0.08919393 0.08929203 0.08946162 0.08971532 0.09001733 0.09033909 0.09064369
 0.09089178 0.09107974 0.09118751 0.09125414 0.09128419 0.09132747 0.09139621 0.09151778 0.09169799 0.09194671
 0.0922651 0.09266239 0.09313875 0.09368788 0.09430432 0.09493428 0.09556542 0.09610515 0.09654821 0.09682082
 0.09694459 0.0969189 0.09679379 0.09663949 0.09650207 0.09646429 0.09651962 0.09670458 0.09694722 0.09723024
 0.09746579 0.09761789 0.09764807 0.09753377 0.09730758 0.09696642 0.09658184 0.09615929 0.09575537 0.09537265
 0.0950245 0.09470954 0.09441681 0.09414735 0.09390069 0.09368008 0.09349843 0.09335183 0.09324356 0.09315486
 0.09306519 0.09294236 0.09274877 0.0924528 0.09201521 0.09143747 0.09069744 0.08985472 0.08891458 0.08796946
 0.08704041 0.08619077 0.08543585 0.08478103 0.08422995 0.083748 0.08333318 0.0829301 0.08253567 0.0820941
 0.08160969 0.08107109 0.08049423 0.07992727 0.07937692 0.07889046 0.07844358 0.07802364 0.07759771 0.07711822
 0.07659011 0.07599022 0.07537077 0.07474642 0.07417718 0.07369041 0.07330449 0.07303749 0.07283972 0.07271285
 0.07256027 0.07237364 0.07208408 0.07168856 0.07120777 0.07064816 0.07009031 0.06953618 0.06904093 0.06859447
 0.06819223 0.06782469 0.06746616 0.06711827 0.06677205 0.06643234 0.06610367 0.06578146 0.06546595 0.06514572
 0.06481392 0.06446759 0.0641013 0.06372874 0.06335153 0.06298412 0.06263063 0.06228481 0.06194739 0.061596
 0.06122954 0.06083537 0.06041469 0.05997681 0.05952468 0.05907888 0.05864162 0.05823149 0.05784811 0.05750149
 0.05718569 0.05689872 0.05662709 0.05635749 0.0560743 0.05576077 0.05541161 0.05501585 0.05458853 0.05412918
 0.05366596 0.05320548 0.05276589 0.05235261 0.05196018 0.05158928 0.05122283 0.05085998 0.05048827 0.05010743
 0.04971037 0.04929731 0.0488645 0.0484143 0.04795185 0.04748122 0.0470147 0.04655348 0.04610535 0.04566848
 0.0452425 0.04482949 0.04442797 0.04404969 0.04369779 0.0433904 0.04313586 0.04294007 0.04281233 0.0427173
 0.04265695 0.0425533 0.04239981 0.04213206 0.04174661 0.04125777 0.04067266 0.04008131 0.03949207 0.03900209
 0.03860578 0.03834299 0.03818677 0.03810205 0.03804942 0.03794904 0.03778197 0.03748392 0.03709184 0.03660173
 0.03608753 0.03559033 0.03514539 0.03478521 0.03447223 0.03420473 0.03393947 0.03366299 0.03340182 0.03315423
 0.0329925 0.03292041 0.03296417 0.03311772 0.03331375 0.03353874 0.03367757 0.0337283 0.03361518 0.03336257
 0.03298287 0.03251525 0.03203022 0.03154728 0.03112257 0.03073847 0.03040059 0.03008546 0.02977553 0.02948075
 0.02919763 0.02895219 0.02875471 0.02859642 0.02848111 0.02836796 0.02825251 0.0281193 0.02796728 0.02782651
 0.02769836 0.02761055 0.02755865 0.0275306 0.0275207 0.02749997 0.02747127 0.02742549 0.02737119 0.02732022
 0.02727345 0.02724188 0.0272074 0.02716601 0.02708133 0.02693397 0.02669597 0.02634453 0.02590286 0.02536152
 0.02480526 0.02424266 0.02376366 0.02338082 0.02311018 0.02295342 0.02283471 0.02274825 0.02259497 0.02237813
 0.0220614 0.02166395 0.02123345 0.02078895 0.02040417 0.02007556 0.01983649 0.01965933 0.01952794 0.01941171
 0.01927985 0.01911896 0.01890979 0.01866332 0.01837463 0.0180765 0.01777419 0.01750266 0.01727148 0.01707803
 0.01692617 0.01676386 0.01658834 0.01635275 0.01605917 0.01572673 0.01536325 0.01503063 0.01472484 0.01446907
 0.01424344 0.01400909 0.01375696 0.01344634 0.01309885 0.01272005 0.01234106 0.01199167 0.01168103 0.01142471
 0.01121367 0.01104655 0.01092108 0.0108356 0.01079446 0.01079999 0.01084156 0.01092026 0.01100152 0.01108355
 0.01112038 0.01111032 0.01101891 0.01084956 0.01060223 0.01028854 0.009948657 0.009596867 0.009288737 0.009029743
 0.008856498 0.008761359 0.008751137 0.008812384 0.008936778 0.009113515 0.009334552 0.009593537 0.009886931 0.01020922
 0.01055922 0.01092903 0.01131689 0.01171917 0.01213386 0.01257795 0.0130521 0.01359664 0.01421341 0.01493899
 0.01576984 0.01670465 0.017733 0.0188161 0.01994473 0.02107555 0.02220791 0.02331982 0.02441812 0.02550099
 0.02657926 0.02765806 0.02875549 0.02987864 0.03105565 0.03229756 0.03362787 0.03505923 0.03658015 0.03819703
 0.03984961 0.04153545 0.04317011 0.04474853 0.04619937 0.04751992 0.04866154 0.04962231 0.05036322 0.05088657
 0.05117091 0.0512393 0.05112432 0.05088028 0.050606 0.0503643 0.05027223 0.05035506 0.05068241 0.05122305
 0.05198357 0.05291193 0.05398694 0.05518452 0.05649065 0.05791582 0.05945848 0.06113931 0.06296058 0.06493407
 0.06706084 0.06933318 0.07174969 0.07428444 0.07693837 0.07969953 0.08258026 0.08561936 0.08883289 0.09229262
 0.09597774 0.09992103 0.103998 0.1081372 0.1120393 0.1155084 0.1180843 0.1194755 0.1193074 0.1172989
 0.1135563 0.1079482 0.1011939 0.09333628 0.08535407 0.07735112 0.07004504 0.06349029 0.05789501 0.05324852
 0.04937048 0.04623077 0.04354362 0.04129583 0.03928719 0.03751732 0.03588945 0.03439703 0.03298788 0.03165118
 0.03035066 0.02908966 0.02785503 0.02666632 0.02553102 0.02446488 0.02347804 0.02256967 0.02174222 0.02098823
 0.02030563 0.0196967 0.01915993 0.0187161 0.01836615 0.01814375 0.01804939 0.01809703 0.01827837 0.01854783
 0.01888779 0.01920297 0.01948468 0.01965461 0.01973192 0.01970644 0.01962134 0.01952008 0.01945195 0.01946842
 0.01961556 0.01992916 0.02045218 0.02120374 0.0222324 0.02354538 0.02522165 0.02726989 0.02979441 0.03281695
 0.03631629 0.04030098 0.04434293 0.04839246 0.05153392 0.05370712 0.05398829 0.05247176 0.04895958 0.04375873
 0.0375331 0.03060735 0.02388924 0.01749463 0.0119684 0.00719464 0.003275826 9.471039E-06 -0.002695709 -0.004988998
 -0.006954221 -0.0086621 -0.01014609 -0.0114441 -0.01256552 -0.01354472 -0.01438526 -0.01512278 -0.01575951 -0.01633303
 -0.01684518 -0.01732926 -0.01778565 -0.0182336 -0.01867149 -0.01910376 -0.01952737 -0.01993741 -0.02032976 -0.02069458
 -0.02102962 -0.02132556 -0.02158943 -0.02182028 -0.02203725 -0.02224988 -0.02247758 -0.02273365 -0.0230159 -0.02333127
 -0.02364848 -0.02396446 -0.02424425 -0.0244817 -0.02467468 -0.02482197 -0.02495387 -0.02507164 -0.02519915 -0.02533428
 -0.02547132 -0.0256091 -0.02573662 -0.02586102 -0.02599525 -0.02614749 -0.02634304 -0.02657465 -0.02684807 -0.02714075
 -0.02743553 -0.02771359 -0.0279567 -0.02816242 -0.02832409 -0.02844936 -0.02853757 -0.02860281 -0.0286453 -0.02869073
 -0.0287413 -0.02882459 -0.02894299 -0.02910069 -0.02929661 -0.02950564 -0.02972555 -0.02992722 -0.03011186 -0.03026852
 -0.03040082 -0.03051259 -0.03060748 -0.03069328 -0.03077405 -0.03085825 -0.0309479 -0.03104979 -0.03115737 -0.03127083
 -0.03137619 -0.0314669 -0.03153652 -0.03157859 -0.03160783 -0.03162377 -0.03165393 -0.03170199 -0.03178214 -0.03189629
 -0.03202851 -0.03217733 -0.03231125 -0.03243017 -0.03251707 -0.03257689 -0.03262081 -0.03265505 -0.03270374 -0.03276693
 -0.03285874 -0.03296928 -0.03309308 -0.03321664 -0.03332392 -0.03341272 -0.0334728 -0.03352112 -0.03356067 -0.0336125
 -0.03368528 -0.03378186 -0.03390623 -0.03404335 -0.03419207 -0.03433906 -0.03448309 -0.03462245 -0.03475717 -0.03488889
 -0.03501746 -0.03514188 -0.03526225 -0.03537817 -0.03549039 -0.03560099 -0.03570994 -0.03581848 -0.03592557 -0.03603039
 -0.03613197 -0.03622905 -0.03632129 -0.03640766 -0.03648974 -0.03656716 -0.03664445 -0.03672254 -0.03680621 -0.03689701
 -0.03699461 -0.03709955 -0.03720667 -0.03731565 -0.03742263 -0.03752744 -0.03762829 -0.03772451 -0.03781009 -0.03788381
 -0.03793557 -0.03796756 -0.03797847 -0.0379762 -0.03797472 -0.03798147 -0.03801379 -0.03807073 -0.03815896 -0.03827083
 -0.03840365 -0.03855056 -0.03870835 -0.03887131 -0.03903813 -0.03920031 -0.03935608 -0.03949904 -0.03962756 -0.03974467
 -0.0398503 -0.03995244 -0.04005129 -0.04014864 -0.04024393 -0.04033263 -0.04041513 -0.04049018 -0.04055984 -0.04062954
 -0.04070055 -0.04077871 -0.04086225 -0.04095159 -0.04104362 -0.04113527 -0.04122536 -0.04131171 -0.04139579 -0.04147787
 -0.04155856 -0.04163858 -0.04171583 -0.04179009 -0.04185909 -0.041922 -0.0419827 -0.04204118 -0.04210767 -0.04218258
 -0.04227297 -0.04237765 -0.04248987 -0.04260714 -0.04271336 -0.04280947 -0.04288801 -0.04295541 -0.0430208 -0.04308937
 -0.04317421 -0.04327142 -0.04338378 -0.04350102 -0.04361669 -0.04372561 -0.04382231 -0.0439114 -0.04399259 -0.04407312
 -0.04415495 -0.04423945 -0.04432748 -0.0444146 -0.04450051 -0.04458198 -0.04465898 -0.04473366 -0.04480637 -0.04488163
 -0.04495892 -0.04503857 -0.04511921 -0.04519681 -0.04527101 -0.04533851 -0.04540124 -0.04545998 -0.04551784 -0.0455779
 -0.04564277 -0.04571544 -0.04579588 -0.04588576 -0.04598051 -0.04607987 -0.04617641 -0.04626853 -0.04635158 -0.04642421
 -0.04648922 -0.04654652 -0.04660359 -0.04666072 -0.04672221 -0.04678762 -0.04685468 -0.04692306 -0.0469894 -0.04705506
 -0.04712235 -0.04719273 -0.04727142 -0.04735605 -0.0474466 -0.04753752 -0.04762297 -0.0477005 -0.04776551 -0.04782161
 -0.04786869 -0.04791261 -0.04795512 -0.0480003 -0.04804934 -0.04810403 -0.04816489 -0.04823134 -0.04830347 -0.04837874
 -0.04845704 -0.04853656 -0.04861736 -0.0486995 -0.04878266 -0.04886546 -0.04894718 -0.04902454 -0.04909805 -0.04916682
 -0.04923258 -0.04929785 -0.04936262 -0.04942879 -0.04949271 -0.04955276 -0.04960514 -0.04964682 -0.04967917 -0.04970105
 -0.04971871 -0.04973293 -0.04975021 -0.04977155 -0.04980082 -0.04983849 -0.04988484 -0.04993983 -0.05000087 -0.05006764
 -0.05013594 -0.05020568 -0.05027388 -0.05034109 -0.05040719 -0.05047337 -0.05054177 -0.05061397 -0.05069316 -0.05078012
 -0.05087767 -0.05098313 -0.05109691 -0.05121184 -0.051325 -0.05143023 -0.05152418 -0.05160739 -0.05167867 -0.05174404
 -0.05180409 -0.05186407 -0.05192453 -0.05198733 -0.05205251 -0.0521188 -0.05218587 -0.05224987 -0.05231048 -0.05236359
 -0.05241029 -0.05245125 -0.05248894 -0.05252907 -0.05257293 -0.05262553 -0.05268501 -0.05275194 -0.05282255 -0.05289454
 -0.05296485 -0.05303124 -0.05309306 -0.05314899 -0.05320236 -0.0532531 -0.05330733 -0.05336595 -0.05343282 -0.05350863
 -0.05358987 -0.05367628 -0.05375912 -0.05383813 -0.05390726 -0.0539673 -0.05401883 -0.05406304 -0.05410378 -0.05414188
 -0.05418057 -0.0542211 -0.05426626 -0.0543179 -0.05437963 -0.05445018 -0.05453167 -0.05461586 -0.05470048 -0.05477488
 -0.05483402 -0.05487653 -0.05489917 -0.05491519 -0.05492518 -0.05494707 -0.05498279 -0.055038 -0.05511276 -0.05519489
 -0.0552832 -0.05536051 -0.05542773 -0.05547972 -0.0555198 -0.05555626 -0.05559064 -0.0556313 -0.05567557 -0.05572297
 -0.05577109 -0.05581603 -0.05586025 -0.05590395 -0.05595063 -0.05600348 -0.05605886 -0.0561175 -0.0561699 -0.05621359
 -0.05624489 -0.05626183 -0.05627302 -0.05627877 -0.05629126 -0.056311 -0.05634173 -0.05638276 -0.05642808 -0.05647693
 -0.05652185 -0.05656357 -0.05660002 -0.05663348 -0.05666804 -0.05670512 -0.05674976 -0.0567992 -0.05685364 -0.0569068
 -0.05695369 -0.0569919 -0.05701691 -0.05703622 -0.0570503 -0.05707052 -0.05710032 -0.0571424 -0.05719876 -0.05726
 -0.05732578 -0.0573835 -0.05743257 -0.05746867 -0.05749273 -0.05751282 -0.05753083 -0.05756114 -0.05760448 -0.05767109
 -0.05775994 -0.05787362 -0.05801128 -0.05817236 -0.05835724 -0.05856599 -0.05879942 -0.0590575 -0.05934286 -0.05965517
 -0.06000275 -0.06038788 -0.06081865 -0.06129877 -0.06182411 -0.06239599 -0.06299758 -0.06362748 -0.06427493 -0.06493931
 -0.06561501 -0.0662989 -0.06695946 -0.06758533 -0.06810147 -0.06849337 -0.0686701 -0.06863239 -0.06832203 -0.06778598
 -0.06705438 -0.06621475 -0.06537201 -0.06458383 -0.06393009 -0.06341872 -0.0630746 -0.06288835 -0.06286506 -0.06298079
 -0.06324079 -0.06356985 -0.06396517 -0.06430601 -0.0645794 -0.06473452 -0.06476898 -0.06473812 -0.06464601 -0.06455739
 -0.06447044 -0.06440992 -0.06436814 -0.06433361 -0.06429784 -0.06423391 -0.0641432 -0.06401338 -0.06385595 -0.06367925
 -0.06349079 -0.06329944 -0.06310663 -0.06291402 -0.06272664 -0.06254641 -0.06237741 -0.06222234 -0.06207482 -0.0619347
 -0.06179291 -0.06164816 -0.06150147 -0.0613529 -0.06121197 -0.06107905 -0.06096157 -0.06085883 -0.06077098 -0.06069691
 -0.0606328 -0.06057831 -0.0605307 -0.06049033 -0.06045697 -0.06043013 -0.0604098 -0.06039378 -0.06038038 -0.06036819
 -0.06035541 -0.06034398 -0.06033408 -0.06032803 -0.06032703 -0.06032888 -0.06033378 -0.0603367 -0.06033707 -0.0603331
 -0.06032469 -0.06031577 -0.06030667 -0.06030259 -0.06030321 -0.06030963 -0.06032063 -0.0603324 -0.06034455 -0.06035353
 -0.06036155 -0.06037033 -0.0603823 -0.06040158 -0.0604271 -0.06046009 -0.06049658 -0.06053488 -0.060572 -0.0606064
 -0.06063702 -0.06066338 -0.06068483 -0.06070113 -0.06071261 -0.06071912 -0.06072331 -0.06072534 -0.06072949 -0.06073596
 -0.06074857 -0.06076696 -0.06079156 -0.06082085 -0.06084978 -0.06087692 -0.06089544 -0.06090732 -0.06091167 -0.06091359
 -0.06091899 -0.06092992 -0.06095182 -0.06097843 -0.06100917 -0.0610338 -0.06104777 -0.06104774 -0.06103026 -0.06100484
 -0.06097154 -0.06094561 -0.06092871 -0.0609284 -0.06094518 -0.06097322 -0.06101175 -0.06104912 -0.06108519 -0.06111288
 -0.06113343 -0.06114718 -0.06115585 -0.06116373 -0.06117152 -0.06118244 -0.06119607 -0.06121308 -0.06123332 -0.06125649
 -0.06128372 -0.06131589 -0.06135224 -0.06139374 -0.06143473 -0.06147441 -0.06150628 -0.06152867 -0.06154137 -0.06154379
 -0.06154261 -0.06153817 -0.06153809 -0.0615425 -0.06155505 -0.06157514 -0.06160134 -0.06163243 -0.06166311 -0.06169299
 -0.06171793 -0.06173969 -0.06175904 -0.06177852 -0.06180182 -0.06182904 -0.06186217 -0.06189825 -0.06193666 -0.06197339
 -0.06200672 -0.06203446 -0.06205533 -0.06207067 -0.06208002 -0.06208846 -0.06209635 -0.06210879 -0.0621261 -0.06215014
 -0.06218083 -0.06221739 -0.06225963 -0.06230633 -0.06235679 -0.06240825 -0.06245917 -0.06250467 -0.06254341 -0.06257042
 -0.06258676 -0.06259059 -0.06258693 -0.06257828 -0.06257135 -0.06257092 -0.06257938 -0.06259993 -0.06262743 -0.06266161
 -0.06269566 -0.06272793 -0.06275783 -0.06278486 -0.06281348 -0.06284394 -0.06287887 -0.06291816 -0.06296054 -0.06300567
 -0.06305092 -0.06309609 -0.06313913 -0.06318004 -0.06321768 -0.06325258 -0.06328506 -0.06331588 -0.06334621 -0.06337602
 -0.06340569 -0.06343486 -0.06346316 -0.06349155 -0.06352018 -0.06355043 -0.06358305 -0.06361683 -0.06365194 -0.06368529
 -0.06371644 -0.06374501 -0.06377093 -0.06379779 -0.06382565 -0.06385668 -0.06389017 -0.06392284 -0.0639539 -0.06397794
 -0.06399588 -0.06400655 -0.06401286 -0.06401898 -0.06402778 -0.06404456 -0.06406989 -0.06410661 -0.06415233 -0.06420728
 -0.0642664 -0.06432831 -0.06438734 -0.06444148 -0.06448862 -0.06452751 -0.06456201 -0.06459219 -0.06462398 -0.06465778
 -0.06469426 -0.06473316 -0.06476977 -0.06480426 -0.06483483 -0.06486298 -0.0648938 -0.06492791 -0.06497041 -0.06501875
 -0.06507136 -0.06512437 -0.06517194 -0.06521346 -0.06524555 -0.06527161 -0.06529228 -0.06531163 -0.06533168 -0.06535347
 -0.06537794 -0.06540353 -0.06542986 -0.06545723 -0.06548536 -0.06551856 -0.06555708 -0.06560396 -0.0656589 -0.0657175
 -0.06577891 -0.06583519 -0.06588675 -0.06593061 -0.06596837 -0.06600276 -0.06603445 -0.06606593 -0.06609728 -0.06612926
 -0.06616279 -0.06619901 -0.06623802 -0.06628057 -0.066325 -0.06637073 -0.06641708 -0.0664636 -0.06651103 -0.06655966
 -0.06660818 -0.06665662 -0.06670175 -0.06674334 -0.06678093 -0.06681471 -0.06684746 -0.06687928 -0.06691229 -0.066946
 -0.06697948 -0.06701241 -0.06704328 -0.06707267 -0.0671007 -0.06712867 -0.0671583 -0.06719026 -0.06722603 -0.0672647
 -0.06730598 -0.06734969 -0.0673952 -0.06744456 -0.06749838 -0.0675571 -0.06762171 -0.06768619 -0.06775027 -0.06780564
 -0.06785168 -0.06788649 -0.06791036 -0.06792863 -0.06794172 -0.06795531 -0.0679689 -0.0679836 -0.0679986 -0.06801227
 -0.06802467 -0.06803486 -0.06804411 -0.06805345 -0.06806441 -0.06807856 -0.06809699 -0.06812044 -0.06815063 -0.06818849
 -0.06823473 -0.06829054 -0.06835189 -0.06841897 -0.06848323 -0.06854377 -0.06859436 -0.06863447 -0.06866352 -0.06868158
 -0.06869017 -0.06868961 -0.06868231 -0.06866951 -0.06865716 -0.06864702 -0.06864703 -0.0686574 -0.06868292 -0.06872083
 -0.06877033 -0.06882671 -0.06888585 -0.06894381 -0.06899687 -0.06904402 -0.06908369 -0.0691172 -0.06914467 -0.06916702
 -0.06918441 -0.06919757 -0.06920639 -0.06921367 -0.06921957 -0.06922715 -0.06923647 -0.0692482 -0.06926217 -0.06927751
 -0.06929429 -0.06931243 -0.06933182 -0.06935196 -0.06937313 -0.06939507 -0.0694195 -0.06944869 -0.0694834 -0.0695265
 -0.06957347 -0.0696237 -0.0696688 -0.06970476 -0.06972782 -0.06973477 -0.06973138 -0.06971737 -0.06970351 -0.06969102
 -0.06968744 -0.06969351 -0.06970821 -0.06973114 -0.0697538 -0.06977592 -0.06979098 -0.06980047 -0.06980701 -0.06981245
 -0.06982386 -0.06984054 -0.0698655 -0.06989473 -0.0699244 -0.06995086 -0.06996854 -0.0699789 -0.06997985 -0.06997858
 -0.06997749 -0.06998233 -0.0699959 -0.07001759 -0.07004838 -0.07008249 -0.07011962 -0.07015249 -0.07018061 -0.07019779
 -0.07020395 -0.0701984 -0.07018204 -0.07016128 -0.07013702 -0.07011688 -0.07010016 -0.07008892 -0.07008215 -0.07007855
 -0.07007854 -0.0700823 -0.07008975 -0.07010151 -0.07011539 -0.0701303 -0.07014424 -0.07015574 -0.07016531 -0.07017275
 -0.07017916 -0.07018491 -0.07018957 -0.0701934 -0.07019298 -0.07018811 -0.07017395 -0.07015057 -0.07012069 -0.07008614
 -0.0700624 -0.07005105 -0.07006916 -0.07011256 -0.07018145 -0.07026424 -0.07033926 -0.07039797 -0.07041626 -0.0704028
 -0.07035383 -0.07028897 -0.07022003 -0.07015823 -0.07011344 -0.07008106 -0.07006281 -0.07004721 -0.07003152 -0.07001329
 -0.06999104 -0.06997376 -0.06996193 -0.06996296 -0.06997694 -0.07000315 -0.07004087 -0.07008462 -0.07013304 -0.07017778
 -0.07021695 -0.07024021 -0.07024837 -0.07023734 -0.07021081 -0.07017214 -0.07012389 -0.0700687 -0.07001089 -0.0699522
 -0.06990147 -0.06986304 -0.06984202 -0.06984322 -0.06985635 -0.06988208 -0.06989907 -0.06990463 -0.06988578 -0.06984092
 -0.06977685 -0.0696943 -0.0696106 -0.06952626 -0.06945344 -0.06939064 -0.0693377 -0.06929276 -0.06924994 -0.06920976
 -0.06917071 -0.06913347 -0.06909959 -0.06906595 -0.06903032 -0.06898992 -0.06894084 -0.06888703 -0.06882896 -0.06877138
 -0.06871695 -0.06866285 -0.06860947 -0.06855055 -0.068485 -0.06841221 -0.06833182 -0.06825101 -0.06817012 -0.06809686
 -0.0680304 -0.06796815 -0.06790718 -0.06783181 -0.06774216 -0.06762793 -0.06749672 -0.06735863 -0.06721985 -0.06709497
 -0.06698126 -0.06688241 -0.06679121 -0.06670395 -0.06661572 -0.06652309 -0.06642503 -0.06632011 -0.06621081 -0.06609735
 -0.06598259 -0.06586795 -0.06574481 -0.06561312 -0.06545258 -0.06526271 -0.06504018 -0.06478721 -0.06452262 -0.06424672
 -0.06397184 -0.06369443 -0.06341135 -0.06311751 -0.06280199 -0.06246013 -0.06207968 -0.06166235 -0.06120253 -0.06071233
 -0.06019822 -0.05966836 -0.05913223 -0.05857597 -0.05799832 -0.05738198 -0.05671935 -0.0560256 -0.05530046 -0.05457048
 -0.05383826 -0.05310411 -0.0523681 -0.05162785 -0.05088613 -0.05016714 -0.04947365 -0.04883413 -0.04824324 -0.04770264
 -0.04719982 -0.0467103 -0.04622591 -0.04572074 -0.0452045 -0.04467501 -0.04414953 -0.04364111 -0.04315315 -0.04269329
 -0.04224923 -0.0418199 -0.04139016 -0.04095868 -0.04050469 -0.04002918 -0.03947978 -0.03885294 -0.03809577 -0.03720828
 -0.03624134 -0.03520256 -0.03418826 -0.03319043 -0.03222169 -0.03126818 -0.03029312 -0.02929296 -0.02824541 -0.02714561
 -0.02598775 -0.02473873 -0.02337867 -0.02183736 -0.02006208 -0.0180069 -0.01560721 -0.01296877 -0.01008482 -0.007174855
 -0.00428792 -0.001540931 0.001036399 0.003461607 0.005731337 0.007917887 0.01002659 0.01218223 0.01439775 0.01685901
 0.01954995 0.02252348 0.02569017 0.0287852 0.03178845 0.03449854 0.03701936 0.03941897 0.04177398 0.04419843
 0.04669037 0.04928327 0.05195731 0.0547062 0.05753464 0.0604545 0.06341249 0.06640762 0.06934498 0.07220527
 0.07499119 0.0777007 0.08036792 0.08299141 0.08547232 0.08780033 0.0898303 0.0915724 0.09300009 0.0941318
 0.09501188 0.09564706 0.096063 0.09628446 0.09635065 0.0962996 0.09618729 0.0960236 0.09582933 0.09561341
 0.09538458 0.09514841 0.09491796 0.09464888 0.0943434 0.09390797 0.09333201 0.09252901 0.0914861 0.09024882
 0.08882213 0.08739993 0.08598253 0.08465402 0.08338917 0.08210262 0.08078066 0.07932789 0.0777653 0.0760782
 0.07432367 0.07257783 0.07088418 0.06932679 0.06788695 0.06658076 0.06537095 0.06423442 0.06318244 0.06220765
 0.06135409 0.06063454 0.06005131 0.05960959 0.05927514 0.05904482 0.05890836 0.05886576 0.05894259 0.05913993
 0.05948045 0.05995942 0.06056575 0.06129203 0.06210801 0.06301225 0.06398488 0.06503333 0.06615715 0.06737193
 0.06868926 0.07013345 0.07172132 0.07348102 0.07542683 0.07758804 0.07997211 0.08262055 0.08554357 0.08877122
 0.09231864 0.09612007 0.1001786 0.1043052 0.1084888 0.1124877 0.1162824 0.1195939 0.1223963 0.1243887
 0.1255986 0.1259253 0.1254787 0.1244338 0.1229044 0.121117 0.1191876 0.1173079 0.1155735 0.1141313
 0.1129484 0.1120689 0.1113508 0.1107623 0.1101679 0.1095148 0.1088256 0.1080791 0.1074754 0.1070352
 0.1067986 0.1067664 0.1068252 0.106974 0.107163 0.1074016 0.1077133 0.1081034 0.1086139 0.1092146
 0.1099093 0.1105416 0.1109467 0.1108049 0.1096636 0.1074996 0.1040392 0.09974682 0.09480499 0.08946824
 0.08385984 0.07810473 0.0722103 0.06649165 0.06098969 0.05597156 0.05147606 0.04744891 0.04388671 0.04057121
 0.03749838 0.03455015 0.03174102 0.0290915 0.02660647 0.02432044 0.02221109 0.02024916 0.01840655 0.01662695
 0.01489607 0.0131822 0.01146738 0.009743884 0.007949895 0.006056311 0.00400524 0.001724667 -0.0005972967 -0.002961106
 -0.005023119 -0.00670261 -0.008042469 -0.009027916 -0.009924591 -0.01074503 -0.01163369 -0.01258344 -0.013561 -0.01455146
 -0.01545135 -0.01626782 -0.01697269 -0.01757544 -0.01809509 -0.0185074 -0.0187875 -0.01890231 -0.0187974 -0.01848342
 -0.01794481 -0.01721861 -0.01632092 -0.01527306 -0.01408855 -0.01276584 -0.0113128 -0.009690642 -0.007899318 -0.00586396
 -0.003572033 -0.001056949 0.001677804 0.00432213 0.006857442 0.008958396 0.01064517 0.01186286 0.01264225 0.01305357
 0.01312086 0.01291915 0.01249213 0.01192902 0.01128979 0.01066081 0.01011455 0.009731676 0.009552465 0.00964608
 0.009914615 0.01034912 0.01082055 0.01128599 0.01173082 0.01214206 0.01256557 0.01300466 0.01348981 0.01402259
 0.01459148 0.01519465 0.01580504 0.01642483 0.0170512 0.01769099 0.01836909 0.01908366 0.01984982 0.0206452
 0.0214393 0.02221991 0.02295008 0.02366322 0.02436582 0.02511003 0.02592744 0.02683972 0.0278683 0.0289883
 0.03020145 0.03146392 0.03277074 0.03408189 0.03539506 0.0366571 0.03786489 0.03893911 0.03987605 0.04060743
 0.04113446 0.04142991 0.04149531 0.04132175 0.04090872 0.04024776 0.03934539 0.03820207 0.03684123 0.03528306
 0.03356309 0.03171348 0.02976048 0.02772904 0.02561978 0.02343642 0.02118183 0.01884541 0.01649712 0.0141368
 0.01189605 0.009788488 0.007886713 0.00619518 0.004679512 0.003336067 0.002108024 0.0009968132 -1.615145E-05 -0.0009292535
 -0.001742044 -0.002464641 -0.003115758 -0.003716311 -0.004305477 -0.004905006 -0.005554267 -0.00626467 -0.0070622 -0.007933851
 -0.00888675 -0.009879934 -0.01090312 -0.01191373 -0.0128964 -0.01384366 -0.01474862 -0.01564042 -0.01652102 -0.01741724
 -0.01833072 -0.0192408 -0.02014287 -0.02096935 -0.02171748 -0.02233318 -0.02282499 -0.02319353 -0.0234505 -0.02362388
 -0.02372032 -0.02376221 -0.02375411 -0.02370871 -0.02363055 -0.02352595 -0.02340092 -0.02325769 -0.02310957 -0.02295932
 -0.02282733 -0.02271855 -0.02264917 -0.02262327 -0.02264371 -0.02271176 -0.0228193 -0.02296595 -0.02314342 -0.02335131
 -0.023584 -0.02383947 -0.02410476 -0.02437381 -0.02461874 -0.02483326 -0.02498657 -0.02508073 -0.02510247 -0.02506428
 -0.02497342 -0.02484608 -0.02469588 -0.02453802 -0.02438321 -0.02424384 -0.02412716 -0.02403803 -0.02397998 -0.02394863
 -0.02394419 -0.02395962 -0.02399425 -0.0240435 -0.02410706 -0.0241801 -0.02426221 -0.02434681 -0.0244338 -0.02451868
 -0.02460288 -0.02468858 -0.02477863 -0.02488128 -0.0249978 -0.02513586 -0.02529029 -0.02546001 -0.02563441 -0.0258047
 -0.02596359 -0.02610337 -0.02622598 -0.02633009 -0.0264201 -0.02649746 -0.02656185 -0.02661366 -0.02665033 -0.02667163
 -0.02667577 -0.02666263 -0.02662963 -0.02657646 -0.0264981 -0.02639435 -0.02626084 -0.02609857 -0.02590833 -0.02569254
 -0.02545768 -0.02520487 -0.02494026 -0.0246602 -0.0243634 -0.02404485 -0.02369832 -0.02332668 -0.02292779 -0.02251247
 -0.02208441 -0.0216507 -0.02121439 -0.02077562 -0.02033412 -0.01989436 -0.01945576 -0.01903539 -0.01863415 -0.01827273
 -0.01795158 -0.01768096 -0.01745912 -0.0172805 -0.0171423 -0.01703069 -0.016945 -0.01687567 -0.01682582 -0.01679614
 -0.01679045 -0.01681405 -0.01686797 -0.01695506 -0.01707452 -0.0172261 -0.01741104 -0.01762874 -0.01788468 -0.01817954
 -0.0185209 -0.01891072 -0.01934999 -0.0198401 -0.02036702 -0.02093012 -0.02150488 -0.0220903 -0.02266779 -0.02323823
 -0.02379823 -0.0243494 -0.02489678 -0.02543968 -0.02597986 -0.02651365 -0.0270353 -0.0275426 -0.02802884 -0.0284986
 -0.0289518 -0.02939798 -0.02984278 -0.0302917 -0.03074964 -0.03121248 -0.03168105 -0.03214603 -0.03260628 -0.0330532
 -0.03348596 -0.03389674 -0.03428502 -0.03464337 -0.03497146 -0.03526381 -0.03552062 -0.03574002 -0.03592344 -0.03607484
 -0.03619688 -0.0362985 -0.03638104 -0.03645251 -0.03650856 -0.03654928 -0.03656385 -0.03654494 -0.03647932 -0.03635756
 -0.03617125 -0.0359133 -0.03558716 -0.03519035 -0.03473802 -0.03423151 -0.03368849 -0.03311093 -0.03251075 -0.03188878
 -0.03125289 -0.03060364 -0.02995019 -0.02929346 -0.02864414 -0.02800275 -0.02737761 -0.02676749 -0.02617419 -0.02559452
 -0.02502337 -0.02445925 -0.02389673 -0.02334011 -0.02279005 -0.02225407 -0.02173668 -0.02124286 -0.02077562 -0.02033746
 -0.01992969 -0.01955311 -0.01920882 -0.01889172 -0.01860205 -0.01832768 -0.01806796 -0.01780874 -0.01754914 -0.01727436
 -0.01698299 -0.01665806 -0.01629876 -0.01589222 -0.01543964 -0.01493731 -0.01438744 -0.01379151 -0.01315337 -0.0124766
 -0.01176927 -0.01103821 -0.01029291 -0.009540486 -0.008787455 -0.00803737 -0.007296344 -0.006566717 -0.005852182 -0.005155611
 -0.004465662 -0.003782813 -0.003080621 -0.002357327 -0.001596602 -0.0007991506 2.184029E-05 0.0008619542 0.00168484 0.002485134
 0.003221775 0.003892587 0.004468771 0.004956401 0.005349996 0.005664767 0.005914666 0.006120026 0.006300448 0.006477561
 0.00666862 0.006889231 0.007151433 0.007454915 0.007803096 0.008186259 0.008602146 0.009050652 0.009530653 0.01005335
 0.01061941 0.01123741 0.01190731 0.01262881 0.01339953 0.01420519 0.01503795 0.01586042 0.01666144 0.01739119
 0.01804603 0.01859374 0.01904268 0.01938956 0.01964579 0.01982076 0.01992072 0.01995271 0.01991691 0.01981472
 0.01964586 0.0194079 0.01911369 0.01876155 0.01838647 0.01799065 0.01761708 0.01726884 0.01697302 0.01673005
 0.01654471 0.01641494 0.01632885 0.016283 0.01625633 0.01624802 0.01624357 0.01624768 0.01626334 0.01629223
 0.01634172 0.01640015 0.01646197 0.01651051 0.01653288 0.01652319 0.01647409 0.01639219 0.01627648 0.01614052
 0.015986 0.01582737 0.01566746 0.01550544 0.015342 0.0151532 0.01493781 0.01467173 0.01435652 0.01399237
 0.01358283 0.01314355 0.01267545 0.01218956 0.01168375 0.01116017 0.01061374 0.01004037 0.009431357 0.008778078
 0.008072992 0.007308451 0.006482709 0.005592229 0.004641344 0.003628342 0.002568332 0.001461179 0.0003364225 -0.0008030909
 -0.001929812 -0.003041268 -0.004132072 -0.005202556 -0.006263837 -0.007316372 -0.00836888 -0.009420361 -0.01047164 -0.0115205
 -0.0125624 -0.01359292 -0.01460229 -0.01558568 -0.01653209 -0.01744093 -0.01830673 -0.01913408 -0.01992327 -0.02068181
 -0.02141262 -0.02212223 -0.02281405 -0.02348691 -0.02414216 -0.0247706 -0.02537121 -0.0259377 -0.02646935 -0.02696861
 -0.02743559 -0.02787333 -0.02828156 -0.02865925 -0.02900605 -0.02932034 -0.02960099 -0.02984438 -0.03004877 -0.03020706
 -0.03032397 -0.03039931 -0.03044804 -0.03048253 -0.0305177 -0.03056758 -0.03063647 -0.03073016 -0.0308463 -0.03098519
 -0.03114478 -0.03132471 -0.03152351 -0.03174085 -0.03197696 -0.03223187 -0.03250562 -0.03279776 -0.03309738 -0.0334021
 -0.03368726 -0.03395135 -0.03417329 -0.034356 -0.03449614 -0.0345987 -0.03467232 -0.03471883 -0.03474547 -0.03474901
 -0.03472934 -0.03468226 -0.03460351 -0.03449596 -0.03435694 -0.03420143 -0.03403134 -0.03386757 -0.03371434 -0.03358664
 -0.03348777 -0.03341743 -0.03337637 -0.03334717 -0.03332882 -0.03330006 -0.03326176 -0.03321095 -0.03315113 -0.03309816
 -0.03305123 -0.0330185 -0.03299213 -0.03295945 -0.03291742 -0.03285294 -0.03277663 -0.0326927 -0.03261398 -0.03255246
 -0.03250709 -0.03248259 -0.0324664 -0.03245593 -0.03244064 -0.03241768 -0.03238313 -0.03233615 -0.03227514 -0.03219998
 -0.03210856 -0.03200084 -0.03187648 -0.03173589 -0.03158229 -0.03141592 -0.03123985 -0.03105337 -0.03085559 -0.03064696
 -0.03042715 -0.03019883 -0.02996615 -0.02972922 -0.02949117 -0.02924637 -0.02899128 -0.02872444 -0.02844119 -0.02815439
 -0.02786538 -0.02759209 -0.0273391 -0.02711288 -0.02691559 -0.0267423 -0.02659293 -0.0264608 -0.02634545 -0.0262379
 -0.02613642 -0.02602236 -0.02589352 -0.02572826 -0.02552865 -0.02528731 -0.02501263 -0.02471717 -0.02440946 -0.0241075
 -0.02381344 -0.02353637 -0.02327387 -0.02302703 -0.02279293 -0.02257129 -0.0223569 -0.02214923 -0.02193918 -0.0217248
 -0.02150004 -0.02126318 -0.02101769 -0.0207634 -0.02051047 -0.02025935 -0.02001834 -0.01978679 -0.01956264 -0.01934387
 -0.01911921 -0.01888854 -0.01864458 -0.01839067 -0.01813106 -0.01786629 -0.01760087 -0.01732868 -0.01704431 -0.01674643
 -0.01642863 -0.01610495 -0.01577902 -0.0154666 -0.01517585 -0.01490394 -0.01465379 -0.01440715 -0.01416189 -0.01390539
 -0.01363607 -0.01335622 -0.01306606 -0.01277342 -0.01247807 -0.01218083 -0.01188073 -0.01157227 -0.01125724 -0.01093668
 -0.0106161 -0.01030758 -0.01001424 -0.009747773 -0.009502788 -0.009280822 -0.009068193 -0.008858053 -0.008633861 -0.008385785
 -0.00810577 -0.007786007 -0.007439231 -0.007064213 -0.006688429 -0.006315392 -0.005964099 -0.005636799 -0.005335185 -0.005059219
 -0.004802658 -0.004564303 -0.004331599 -0.004101719 -0.003853532 -0.003586385 -0.00328521 -0.002955643 -0.002601112 -0.002229525
 -0.001853112 -0.001478845 -0.001116814 -0.0007748462 -0.0004614119 -0.0001802649 6.292349E-05 0.0002745896 0.0004548692 0.0006129465
 0.0007508403 0.0008739748 0.0009826906 0.001085919 0.001184041 0.001291211 0.001408115 0.001544663 0.001700873 0.001881062
 0.002084433 0.002311223 0.002557107 0.002809703 0.003063319 0.003298278 0.00351613 0.003709716 0.003885069 0.004047262
 0.004196018 0.004331819 0.004456725 0.004567639 0.004683115 0.004807026 0.004959981 0.005148884 0.005375094 0.005640926
 0.005934038 0.006254085 0.006582879 0.006919325 0.00723853 0.007540543 0.007813265 0.008063225 0.008315352 0.008579471
 0.008901536 0.009282367 0.009750294 0.01029057 0.01089787 0.01154662 0.01220969 0.01286653 0.01349263 0.01408432
 0.01463668 0.01513957 0.01559598 0.01596362 0.0162334 0.01637601 0.01637866 0.01629278 0.01611861 0.01595608
 0.0158099 0.01574019 0.01574582 0.01583595 0.01600842 0.01625995 0.01658545 0.01697178 0.01740452 0.01784833
 0.01828783 0.01868371 0.01903158 0.01931018 0.01952767 0.01968077 0.01978682 0.01985184 0.01989429 0.01992212
 0.01994329 0.01996097 0.01997769 0.01999323 0.02001743 0.02005085 0.02010489 0.02018016 0.02028434 0.0204184
 0.02059677 0.02081862 0.02109077 0.02140444 0.02173384 0.02207357 0.02239426 0.02270797 0.02302101 0.02334254
 0.02368894 0.02405128 0.02442503 0.0248131 0.0252112 0.02564141 0.02611897 0.02661757 0.02714093 0.02762196
 0.02804581 0.02841858 0.02873828 0.02903916 0.02932242 0.02957467 0.0297933 0.0299418 0.03002335 0.0300349
 0.02998447 0.02989802 0.02977809 0.02964288 0.02949169 0.02933071 0.02915996 0.02898008 0.02879597 0.02860719
 0.02843179 0.02827739 0.02816155 0.02809622 0.02807081 0.02808839 0.02811808 0.02815573 0.02818034 0.02818949
 0.02817395 0.02813316 0.02805967 0.02795363 0.02781405 0.02764135 0.02743801 0.02720295 0.0269316 0.02662796
 0.02629582 0.02594632 0.02560251 0.02526006 0.02492671 0.02458477 0.02421425 0.02383516 0.02344508 0.02309072
 0.02279232 0.02255843 0.02239586 0.02229609 0.02225526 0.02229846 0.02242849 0.02265221 0.02296958 0.0233184
 0.02369479 0.02403198 0.02433394 0.0245882 0.02480156 0.02499076 0.02515858 0.0253206 0.02547384 0.02562229
 0.02575729 0.0258668 0.02595761 0.02602299 0.02609752 0.02620023 0.02634327 0.02654602 0.02675972 0.02697716
 0.02715495 0.02727897 0.02737973 0.02745722 0.02756422 0.02770328 0.02787068 0.02806317 0.02823857 0.02839676
 0.02851431 0.02859726 0.02865322 0.02868884 0.02872528 0.02876004 0.02880224 0.02883703 0.02884796 0.02883526
 0.02878529 0.02873062 0.02868665 0.0286691 0.02869465 0.02873285 0.02877706 0.02881623 0.02884242 0.02889756
 0.02898587 0.02912391 0.02931256 0.02950157 0.0296881 0.02982141 0.02990452 0.02992823 0.02989908 0.0298305
 0.02973616 0.02965119 0.02959247 0.02960948 0.02969098 0.02985314 0.03005156 0.03025734 0.03043869 0.03056559
 0.03064465 0.03066896 0.03066165 0.0306262 0.03058451 0.03054086 0.03050647 0.03048422 0.03045844 0.03042839
 0.03036947 0.0302823 0.03016943 0.03003279 0.02988674 0.02972881 0.02955599 0.02936901 0.02916589 0.02895376
 0.02874537 0.02854021 0.02834199 0.02815075 0.02796199 0.02779539 0.02766115 0.02756973 0.02753476 0.02752548
 0.02753839 0.02754015 0.02752171 0.02748965 0.02744312 0.02739976 0.02736052</values></Ydata></AB><ScSm><Ydata ylabel="Single channel"><values byteorder="INTEL" format="FLOAT32" numvalues="1814"> 0.0693998 0.06940866 0.06948259 0.06963959 0.06985055 0.07005568 0.07020476 0.07028649 0.07031222 0.07028361
 0.07020912 0.07014918 0.07019498 0.07037862 0.07062519 0.07080583 0.07083884 0.07076007 0.07070364 0.07077447
 0.07090999 0.07089771 0.07057572 0.07001735 0.06948198 0.06917328 0.06911196 0.06928958 0.06979503 0.0705694
 0.07113483 0.0709388 0.07004984 0.06918544 0.06891666 0.06912239 0.06932501 0.06924243 0.06887482 0.06839566
 0.0681993 0.06879482 0.07030477 0.07205178 0.07280142 0.07154109 0.06820391 0.06389903 0.06050142 0.05964393
 0.06156446 0.06478209 0.0672121 0.06783076 0.06716102 0.06620926 0.06538422 0.064635 0.06415578 0.06442188
 0.06553292 0.06676997 0.06696846 0.06551675 0.06308478 0.06114525 0.06062961 0.06134734 0.06277575 0.06462719
 0.06605125 0.06518422 0.06098419 0.05554648 0.05316557 0.05625276 0.06276452 0.06820278 0.06961598 0.06725028
 0.06324157 0.05984547 0.05858925 0.05986034 0.0628344 0.06615904 0.06877432 0.06996545 0.06918278 0.06651783
 0.06317092 0.06087282 0.06082611 0.06323181 0.0672397 0.07102637 0.07263137 0.07140617 0.06843845 0.06539993
 0.06345001 0.06324854 0.06511709 0.06870205 0.07295074 0.07672429 0.07926647 0.08028172 0.07999303 0.07899766
 0.07781242 0.07679428 0.07646237 0.07717634 0.0782921 0.07840656 0.07688596 0.07470958 0.07345764 0.07367519
 0.07443867 0.07448167 0.07347718 0.07182886 0.06941754 0.06557883 0.06062935 0.0562727 0.05389789 0.05352143
 0.05479818 0.05756123 0.06063458 0.06177175 0.06011973 0.05777962 0.05772285 0.06062157 0.06450781 0.06717038
 0.06819759 0.06881561 0.0703109 0.07271601 0.07464994 0.07436246 0.0714708 0.06793006 0.06664944 0.0686378
 0.07203482 0.07439765 0.07527557 0.07593919 0.07716085 0.07801741 0.07685265 0.07324561 0.06906825 0.06732874
 0.0695518 0.07425179 0.07800981 0.07800508 0.07391445 0.06798228 0.06326771 0.06152822 0.06275052 0.06631527
 0.07167549 0.07774666 0.08263223 0.08469127 0.08373865 0.08093622 0.0774689 0.07345372 0.06857911 0.06392905
 0.06219587 0.06513181 0.07130976 0.07731514 0.08079151 0.08161536 0.08056943 0.07788727 0.07346655 0.06826511
 0.0647616 0.06503048 0.06824286 0.07113796 0.07143958 0.06992953 0.06876543 0.0687894 0.06921948 0.06930493
 0.06939132 0.07032356 0.07223666 0.07423659 0.07526934 0.07508226 0.07426283 0.07355028 0.07316469 0.0726527
 0.07152754 0.07024705 0.07015307 0.07200181 0.07492241 0.07731401 0.07844938 0.07872888 0.07861055 0.0778078
 0.07571393 0.07255596 0.0698538 0.06929216 0.07109258 0.07387977 0.07611032 0.07717858 0.0772654 0.07677887
 0.07607741 0.07535078 0.0746856 0.07432499 0.07460468 0.07547373 0.07638814 0.07686183 0.07686514 0.07657522
 0.07602903 0.07519826 0.07424083 0.07350568 0.07328042 0.07357462 0.07416179 0.07478353 0.07524224 0.07536502
 0.0750657 0.07447438 0.07385725 0.07337505 0.07303341 0.07285118 0.07291037 0.07320184 0.07355148 0.07376516
 0.07378294 0.07365887 0.07345089 0.07317603 0.07284661 0.07251683 0.07228637 0.07223525 0.07233346 0.07245371
 0.07251415 0.07255805 0.07263532 0.07267025 0.07253984 0.07224755 0.07193385 0.07172848 0.07165122 0.07164088
 0.07161777 0.07150219 0.07122156 0.07077139 0.07028729 0.06999265 0.07002147 0.07032017 0.07073545 0.0711318
 0.07140888 0.07150725 0.07145321 0.0713354 0.07120048 0.07101858 0.0707667 0.07050546 0.07035668 0.07040988
 0.070641 0.07092559 0.07114129 0.07124236 0.07124554 0.07120092 0.07118192 0.07123038 0.07129189 0.0712665
 0.07113873 0.07100563 0.07096453 0.07100937 0.07104807 0.07100824 0.07091782 0.07087299 0.07092631 0.07103345
 0.07111959 0.07116544 0.07120751 0.07127298 0.07133065 0.07130951 0.07117674 0.07099117 0.07085091 0.07079251
 0.07077901 0.07078136 0.07081968 0.0709123 0.07102456 0.07109435 0.07109708 0.07106633 0.07104492 0.07102606
 0.07096173 0.07082938 0.07066818 0.07054091 0.07047592 0.07045415 0.07043816 0.0704027 0.07034178 0.0702579
 0.07015276 0.07002816 0.06988853 0.06974378 0.06961887 0.06955195 0.06955945 0.06959847 0.06958657 0.06947462
 0.06929442 0.06912572 0.06901857 0.06895451 0.0688829 0.06878313 0.06868033 0.0686084 0.06857647 0.06857084
 0.06857259 0.06857052 0.06857514 0.06862512 0.06875971 0.06896853 0.06918188 0.06932918 0.06940313 0.06945452
 0.06953236 0.06964557 0.06977643 0.06991304 0.07006613 0.07025675 0.0704808 0.0706913 0.07083918 0.07093246
 0.07102992 0.0711765 0.07137252 0.07159968 0.07183666 0.07204664 0.07219306 0.07228435 0.07237484 0.07250746
 0.07267641 0.07285362 0.07302828 0.07320665 0.07339223 0.07358603 0.07380053 0.07405736 0.07436779 0.07471704
 0.0750648 0.0753659 0.07560576 0.07582179 0.0760785 0.07641132 0.07679619 0.07717577 0.0775124 0.07781549
 0.07811935 0.07843901 0.07875896 0.07907066 0.07940234 0.07979029 0.08022957 0.0806769 0.08109924 0.08149983
 0.08189778 0.0823015 0.08270769 0.08311545 0.08353311 0.08396797 0.08440906 0.08482677 0.08519758 0.08552782
 0.0858489 0.08619349 0.08657558 0.08697942 0.08736092 0.08767904 0.08794263 0.08821289 0.08853824 0.08889657
 0.08922659 0.08950984 0.08979107 0.09011395 0.0904675 0.09081063 0.09112804 0.09144165 0.09177475 0.09211797
 0.0924303 0.0926726 0.09284567 0.09299293 0.09316109 0.09336889 0.09362311 0.0939416 0.09432922 0.0947419
 0.09510855 0.0953894 0.09559304 0.09574949 0.09589458 0.09606731 0.09628736 0.09653589 0.09677619 0.09698385
 0.0971486 0.09727532 0.09740096 0.09758054 0.09783255 0.09812424 0.09842746 0.09875708 0.09913024 0.09952117
 0.09989417 0.1002622 0.1006682 0.1011083 0.101512 0.1018132 0.102014 0.1021606 0.1022907 0.1024346
 0.1026402 0.1029499 0.1033515 0.1037836 0.1041914 0.1045601 0.1048987 0.1052113 0.1054891 0.1057199
 0.1059005 0.106041 0.1061623 0.1062932 0.1064651 0.1066896 0.1069369 0.1071482 0.1072772 0.1073054
 0.1072214 0.1070157 0.1067143 0.1063883 0.1060935 0.1058037 0.1054268 0.1048877 0.104178 0.1033262
 0.1023491 0.1012473 0.1000396 0.09878594 0.09757568 0.09649842 0.09562871 0.09503727 0.09479909 0.0949597
 0.0954745 0.09618798 0.09688301 0.09735353 0.09744935 0.09709853 0.09632323 0.09522607 0.09393387 0.09254135
 0.09109834 0.08962236 0.08810408 0.08651993 0.08487596 0.08325298 0.08181192 0.08078235 0.08047213 0.08124168
 0.08334531 0.08669178 0.09075886 0.09481512 0.09829541 0.1010149 0.1030983 0.1047753 0.1062354 0.1075797
 0.1088313 0.1099765 0.1110121 0.1119563 0.1128225 0.1136018 0.1142701 0.1148021 0.1151829 0.1154195
 0.1155382 0.1155673 0.1155325 0.1154696 0.1154136 0.115356 0.1152175 0.114873 0.1142046 0.1131363
 0.1116381 0.1097485 0.1076885 0.1060173 0.1055755 0.1070519 0.1104505 0.1149939 0.1196062 0.123515
 0.1264765 0.1286092 0.1301473 0.1313035 0.1322303 0.1330211 0.1337277 0.134377 0.1349812 0.1355474
 0.1360863 0.1366124 0.1371383 0.1376659 0.1381793 0.1386549 0.1390895 0.1395139 0.1399675 0.14046
 0.1409625 0.1414359 0.1418686 0.1422849 0.1427121 0.1431424 0.143544 0.1439059 0.1442532 0.1446197
 0.145023 0.1454598 0.1459051 0.146317 0.1466657 0.1469619 0.1472465 0.1475511 0.147878 0.1482133
 0.1485476 0.1488814 0.149219 0.1495647 0.1499231 0.15029 0.1506426 0.1509508 0.1512073 0.1514386
 0.1516814 0.1519505 0.1522338 0.1525133 0.1527885 0.153082 0.1534181 0.1537942 0.1541735 0.1545104
 0.154786 0.1550202 0.1552522 0.1555095 0.1557945 0.1560956 0.1564012 0.1567053 0.1570059 0.1573046
 0.1576045 0.1579049 0.158202 0.1584953 0.1587884 0.1590835 0.159377 0.1596648 0.1599512 0.1602501
 0.1605744 0.1609185 0.161256 0.1615594 0.1618229 0.1620645 0.1623068 0.1625602 0.1628243 0.1630971
 0.1633793 0.1636689 0.1639596 0.1642456 0.1645277 0.1648117 0.1651017 0.1653969 0.1656937 0.1659887
 0.1662834 0.1665845 0.1668956 0.1672088 0.1675093 0.1677908 0.1680616 0.1683357 0.1686195 0.1689092
 0.169195 0.1694703 0.1697372 0.1700045 0.1702801 0.1705649 0.170854 0.1711407 0.1714209 0.171697
 0.1719748 0.1722569 0.1725405 0.1728215 0.173098 0.1733711 0.1736439 0.1739194 0.1741983 0.1744798
 0.1747631 0.1750456 0.1753241 0.1755999 0.175877 0.1761555 0.1764302 0.1767003 0.1769723 0.1772504
 0.1775288 0.1777977 0.1780555 0.1783117 0.1785773 0.1788548 0.1791397 0.1794278 0.1797165 0.1800055
 0.1802983 0.1805987 0.1809018 0.1811958 0.1814743 0.1817396 0.1819964 0.1822501 0.1825097 0.1827845
 0.1830772 0.1833827 0.1836908 0.1839899 0.1842736 0.1845423 0.1847995 0.1850521 0.1853101 0.1855796
 0.1858566 0.1861332 0.1864046 0.1866691 0.1869301 0.1871957 0.1874694 0.1877441 0.188014 0.1882834
 0.1885587 0.1888415 0.1891307 0.1894212 0.1897036 0.1899741 0.1902418 0.1905182 0.1908064 0.1911019
 0.1913967 0.1916843 0.1919666 0.1922493 0.1925327 0.1928151 0.1931007 0.1933926 0.1936838 0.1939662
 0.1942389 0.1945062 0.194777 0.1950611 0.1953546 0.1956406 0.1959127 0.196182 0.1964573 0.1967375
 0.1970214 0.1973076 0.197593 0.197879 0.198167 0.1984496 0.1987232 0.1989979 0.1992806 0.1995614
 0.1998324 0.2000986 0.2003672 0.2006429 0.2009285 0.2012166 0.2014944 0.2017641 0.2020335 0.2022845
 0.2024584 0.2024199 0.2018513 0.2001326 0.1963201 0.1893295 0.1783713 0.1634554 0.1455612 0.1262855
 0.1072552 0.08971018 0.07438226 0.06158864 0.0513926 0.0437108 0.03837854 0.03525501 0.03433463 0.03586268
 0.04046208 0.04876381 0.06001128 0.07082634 0.07652821 0.07483301 0.06803976 0.06093334 0.05680928 0.05588977
 0.05676086 0.05822343 0.0599013 0.06201214 0.06492527 0.06874146 0.07328168 0.07854836 0.08494198 0.09275472
 0.1015714 0.1104453 0.1187107 0.1265045 0.1344489 0.1429069 0.1516036 0.1598966 0.1672876 0.1736779
 0.1792731 0.1843521 0.1891057 0.1936169 0.1979206 0.2020056 0.2057264 0.2087694 0.2108044 0.211734
 0.2118088 0.2114889 0.2111783 0.2110718 0.2111957 0.2115208 0.2120177 0.2126618 0.2134311 0.2142994
 0.2152264 0.2161726 0.2171188 0.2180563 0.2189676 0.2198282 0.2206207 0.22134 0.2219937 0.2225962
 0.2231546 0.2236641 0.2241246 0.2245507 0.2249609 0.2253648 0.2257636 0.2261523 0.226521 0.2268623
 0.2271758 0.2274644 0.2277326 0.2279906 0.2282518 0.2285216 0.2287948 0.2290629 0.22932 0.2295665
 0.2298109 0.2300632 0.2303254 0.230591 0.2308542 0.2311127 0.2313652 0.2316131 0.2318606 0.2321103
 0.2323601 0.2326071 0.23285 0.2330892 0.2333292 0.2335787 0.2338438 0.2341202 0.2343952 0.2346556
 0.2348998 0.2351421 0.2353996 0.2356742 0.2359556 0.2362371 0.2365178 0.2367965 0.237076 0.2373617
 0.2376435 0.2378927 0.2380965 0.2382836 0.2385025 0.2387757 0.2390827 0.2393853 0.2396641 0.2399274
 0.2401892 0.2404512 0.2407056 0.240943 0.2411629 0.2413888 0.2416585 0.2419812 0.2423252 0.2426609
 0.2429894 0.2433163 0.2436358 0.2439485 0.2442574 0.2445382 0.2447561 0.2449263 0.2451334 0.2454659
 0.2459278 0.2464225 0.2468411 0.247159 0.247431 0.2477201 0.2480559 0.2484132 0.2486882 0.2487731
 0.2487236 0.2487837 0.2491603 0.2498147 0.2505301 0.2511314 0.2515912 0.2519713 0.2523214 0.2526279
 0.2528319 0.2528978 0.2528908 0.2529871 0.253353 0.253976 0.2546586 0.2552144 0.2556145 0.2559209
 0.2561817 0.2564206 0.2565939 0.256537 0.2561404 0.2556497 0.2555934 0.256271 0.2574135 0.2584681
 0.2591429 0.2595524 0.259903 0.2602397 0.2605115 0.2606209 0.2602979 0.2592537 0.2577493 0.2567574
 0.257159 0.2588517 0.2609113 0.2625112 0.2634472 0.2639373 0.2642562 0.2645485 0.2647204 0.2644581
 0.2635753 0.2624623 0.2619811 0.2626708 0.264144 0.2655035 0.2662574 0.266581 0.2668398 0.2671811
 0.2674294 0.2670433 0.2654303 0.2628192 0.2606882 0.2607244 0.2631753 0.26655 0.2690966 0.2703115
 0.2707925 0.2709365 0.2703486 0.2685443 0.2656772 0.2624633 0.2599492 0.2593702 0.2613354 0.2648059
 0.2676832 0.2688783 0.26923 0.2701188 0.2718166 0.2735013 0.2743289 0.2740868 0.2730384 0.2714544
 0.2694895 0.2676224 0.266914 0.2682523 0.2712715 0.2744862 0.2766633 0.2777526 0.2782362 0.2776957
 0.2745346 0.2679084 0.2601238 0.2559912 0.2585766 0.2659879 0.2734019 0.2778044 0.279633 0.2804983
 0.2810341 0.2807296 0.2782248 0.2720518 0.2629479 0.2553059 0.2541975 0.2603525 0.2693292 0.2756593
 0.2765754 0.2723031 0.265066 0.2584154 0.2557816 0.2584004 0.2647783 0.2721649 0.2781983 0.2815474
 0.2819017 0.2798513 0.2768414 0.2748166 0.2748147 0.27543 0.2738768 0.269508 0.2648949 0.2620514
 0.2593175 0.2544334 0.2495023 0.2495895 0.2561356 0.2645479 0.2693636 0.2697792 0.2686549 0.2673031
 0.2632346 0.2537427 0.2410357 0.2323111 0.233449 0.2429119 0.2531243 0.2578799 0.2572567 0.2553857
 0.2549283 0.2543727 0.2501931 0.2414696 0.2321853 0.2278812 0.2297849 0.2337227 0.2350596 0.2324172
 0.2260709 0.2164189 0.2065478 0.2031551 0.2108883 0.2266272 0.2419382 0.2499909 0.2480099 0.2357734
 0.2165861 0.1992269 0.1936439 0.2020603 0.2162864 0.2252571 0.223812 0.2136008 0.1983172 0.1811487
 0.1662263 0.1590832 0.1633106 0.1768951 0.1924116 0.2008058 0.1963974 0.1812233 0.1652295 0.1591044
 0.1646547 0.173669 0.1771378 0.1733953 0.1667909 0.1619862 0.161224 0.164109 0.1680944 0.1708217
 0.1720116 0.1709476 0.1639405 0.1488806 0.1314059 0.1212084 0.1219202 0.1292637 0.1389147 0.1503112
 0.1615111 0.1665805 0.1623261 0.15444 0.1526686 0.1604764 0.1720562 0.1793669 0.180069 0.1779473
 0.1770176 0.1771654 0.1762829 0.1751138 0.1773599 0.1845929 0.1934948 0.1995482 0.2017135 0.2020042
 0.2020547 0.2018996 0.2011331 0.1996244 0.19743 0.1949079 0.1925997 0.1905729 0.1883225 0.1854471
 0.1816667 0.1759703 0.1669674 0.1552528 0.1446831 0.139462 0.1398614 0.1426149 0.1454606 0.148319
 0.1491873 0.1430639 0.1284386 0.1125079 0.1059272 0.1125652 0.1266704 0.1394118 0.1456051 0.1441389
 0.1353924 0.1215007 0.1085256 0.1045784 0.113372 0.1308559 0.1496314 0.1651467 0.1761723 0.1816015
 0.1801208 0.1729437 0.1647041 0.1608599 0.1644936 0.1749372 0.1878811 0.1963762 0.1942541 0.1823612
 0.1714554 0.1742277 0.1918214 0.2117487 0.2219219 0.2229364 0.2229864 0.225152 0.2259316 0.2243077
 0.2253066 0.2330364 0.2445599 0.2527769 0.2526762 0.2432954 0.2269458 0.2096249 0.19952 0.2006047
 0.2083282 0.2147139 0.2161278 0.2128066 0.2041468 0.1907729 0.1796576 0.1798779 0.1920354 0.2069674
 0.2162098 0.2197468 0.2221867 0.2248221 0.2240887 0.2170068 0.2061894 0.1982352 0.1972303 0.2011808
 0.2053628 0.2072633 0.2066934 0.203074 0.1957963 0.187226 0.182656 0.1857743 0.1949364 0.204762
 0.2109562 0.2129827 0.2127838 0.2122272 0.2118093 0.2108299 0.2087391 0.2068775 0.20819 0.2140122
 0.2218162 0.227742 0.2309983 0.234138 0.2391092 0.244615 0.2477396 0.2471922 0.2445911 0.2430837
 0.2448241 0.2492454 0.253464 0.2547203 0.252982 0.2511959 0.2525545 0.2574278 0.2633354 0.2677341
 0.2700874 0.2713187 0.2722875 0.273068 0.272927 0.270908 0.2672342 0.2641242 0.2642395 0.268059
 0.2734141 0.2776963 0.279925 0.2806376 0.2805241 0.2796845 0.2780188 0.2758871 0.2741134 0.2733565
 0.2736465 0.2745602 0.2756569 0.2766668 0.2774642 0.2780465 0.2784937 0.278872 0.2792021 0.2795061
 0.2797937 0.2800005 0.280046 0.2799884 0.2800258 0.2802758 0.2806166 0.2808106 0.2807169 0.2802946
 0.2794758 0.2781854 0.2764815 0.2745372 0.2724493 0.2701893 0.2678434 0.265851 0.2648722 0.2653145
 0.2669734 0.2691572 0.271158 0.2726068 0.2734808 0.2739261 0.2741273 0.2742475 0.2743847 0.2745545
 0.2747321 0.2749121 0.2751195 0.2753677 0.2756333 0.2758908 0.2761574 0.2764757 0.2768517 0.2772302
 0.2775311 0.2777045 0.277761 0.2777569 0.2777423 0.2777082 0.2775858 0.2772976 0.2768134 0.2761697
 0.2754492 0.2747317 0.2740446 0.2733493 0.2725834 0.2717038 0.2706707 0.2694141 0.2678809 0.2661377
 0.2643694 0.2627335 0.2612423 0.2598047 0.2583365 0.2568017 0.2551918 0.2535143 0.2517919 0.2500488
 0.2482992 0.2465497 0.2448021 0.2430532 0.241294 0.2395086 0.2376751 0.2357742 0.2337959 0.2317306
 0.2295459 0.2271715 0.2245048 0.2214359 0.2178707 0.2137468 0.2090595 0.2038937 0.1984186 0.1928328
 0.1873093 0.1819883 0.1770033 0.1725006 0.1686313 0.1655134 0.1631934 0.1616462 0.1608123 0.1606347
 0.1610744 0.1621054 0.1636842 0.1657114 0.1680261 0.1704385 0.1727719 0.1749012 0.1767935 0.1785221
 0.1802135 0.1819538 0.1837358 0.1854942 0.1871777 0.1887669 0.1902353 0.1915295 0.1926065 0.1934668
 0.194141 0.1946672 0.1950859 0.1954314 0.1957181 0.1959521 0.1961527 0.1963479 0.1965619 0.1968141
 0.1971208 0.1974911 0.1979357 0.1984773 0.1991378 0.1999198 0.2008074 0.2017788 0.2028181 0.2039275
 0.2051313 0.2064673 0.2079796 0.2097112 0.2116817 0.2138675 0.2162139 0.2186581 0.2211283 0.2235366
 0.2257936 0.2278281 0.2295912 0.231058 0.2322325 0.2331467 0.2338494 0.2343848 0.2347737 0.2350157
 0.2351088 0.235057 0.234864 0.2345371 0.2340903 0.2335334 0.232876 0.2321582 0.2314521 0.2308107
 0.2302337 0.2296972 0.2291975 0.2287502 0.2283638 0.228025 0.227701 0.2273536 0.2269546 0.2264912
 0.2259563 0.2253343 0.2245947 0.2237098 0.2226811 0.2215405 0.2203167 0.2190159 0.2176347 0.2161745
 0.2146383 0.2130311 0.2113604 0.2096225 0.2077986 0.2058752 0.2038546 0.2017435 0.1995591 0.1973532
 0.1952062 0.193182 0.1912983 0.1895311 0.1878389 0.1861901 0.1845793 0.1830166 0.1815073 0.1800499
 0.1786453 0.1772974 0.1760126 0.174805 0.1736951 0.1727014 0.1718325 0.1710773 0.1704021 0.1697688
 0.1691588 0.1685789 0.1680597 0.1676497 0.1673853 0.1672465 0.1671574 0.1670373 0.1668409 0.1665665
 0.1662498 0.1659425 0.1656724 0.1654263 0.1651749 0.1648933 0.1645428 0.164048 0.1633063 0.1622315
 0.1607976 0.1590458 0.1570591 0.1549479 0.1528541 0.1509221 0.1492426 0.1478415 0.1467135 0.1458307
 0.1451321 0.1445537 0.1440761 0.1437271 0.1435409 0.1435063 0.1435321 0.1434881 0.1433275 0.1431558
 0.1431466 0.1433986 0.143877 0.1444521 0.1449833 0.1453945 0.1456847 0.1458732 0.1459682 0.1459846
 0.1459398 0.1458243 0.145619 0.14533 0.1449766 0.1445665 0.1440991 0.1435678 0.1429558 0.1422579
 0.1414914 0.1406671 0.1397749 0.1387946 0.1376829 0.1363923 0.134982 0.1336848 0.1327949 0.1324849
 0.1327206 0.1332968 0.1339745 0.1346344 0.1352445 0.1356653 0.1356822 0.1353928 0.1354088 0.1364112
 0.1384739 0.1409509 0.143038 0.1443321 0.1448509 0.1447292 0.1440657 0.1429443 0.1414008 0.1394043
 0.1369736 0.1342358 0.1313182 0.1283209 0.1254081 0.1227704 0.1205027 0.1186158 0.1171029 0.1160139
 0.1154874 0.1151623 0.1132261 0.1073841 0.09839781 0.09163494 0.09255193 0.1005639 0.1094673 0.114007
 0.1140594 0.1124287 0.1110267 0.1101322 0.1096563 0.1097431 0.1105063 0.1117933 0.1132166 0.1143768
 0.1151094 0.1154576 0.1153989 0.1146164 0.1124344 0.108049 0.1011878 0.09267829 0.0841486 0.07707041
 0.07212049 0.06920819 0.06776637 0.06707324 0.06662542 0.06637493 0.06660721 0.06759329 0.0693678 0.07179414
 0.07471439 0.0779105 0.08099467 0.08357007 0.08554368 0.08710787 0.08839517 0.08932066 0.08976598 0.08974616
 0.08937175 0.08876757 0.08804692 0.08727711 0.08643001 0.08541138 0.08421346 0.08304505 0.08221303 0.08182812
 0.08172284 0.08168817 0.08165975 0.08164483 0.08162244 0.08156984 0.08149475 0.08143924 0.08150192 0.08178245
 0.08224252 0.08269784 0.0829892 0.08310563 0.08313189 0.08310141 0.08289546 0.08235647 0.08157265 0.0808934
 0.08048148 0.08001981 0.07912605 0.07794116 0.07703723 0.07679467 0.07707474 0.07745827 0.07762111 0.07749064
 0.0772249 0.07712263 0.07742182 0.07803227</values></Ydata></ScSm><ScRf><Ydata ylabel="Single channel"><values byteorder="INTEL" format="FLOAT32" numvalues="1820"> 0.06074284 0.0609008 0.06099065 0.06101634 0.06100687 0.06100808 0.06106753 0.06120718 0.06140385 0.06159736
 0.06173036 0.06178778 0.06178999 0.06175372 0.06169032 0.06164324 0.06168238 0.06183499 0.06204154 0.0621951
 0.06222511 0.06215932 0.06211068 0.06217057 0.06228776 0.06227838 0.06199703 0.06150204 0.06102073 0.06074061
 0.06068911 0.06085761 0.06131496 0.0620043 0.0625084 0.06234384 0.06156849 0.06081067 0.06057193 0.06074405
 0.06090654 0.06081647 0.06048069 0.06005218 0.05987414 0.06039445 0.06172422 0.06326649 0.06392901 0.06281569
 0.05986753 0.05606344 0.0530575 0.05229326 0.05398881 0.05684423 0.05901606 0.05958844 0.05901514 0.0581874
 0.05746949 0.05681108 0.05637582 0.05658496 0.05753792 0.05861098 0.05877898 0.05749825 0.05535554 0.05364923
 0.05320106 0.05384042 0.05510275 0.0567342 0.0579868 0.0572156 0.05349801 0.04868472 0.04657598 0.04931034
 0.05508281 0.05990879 0.06116783 0.05907482 0.05552713 0.05252987 0.05143213 0.05256238 0.05518085 0.05809774
 0.06039187 0.06143945 0.0607492 0.05839481 0.05543714 0.05340809 0.05336802 0.05549099 0.05902754 0.06237141
 0.06379057 0.06270713 0.06007946 0.05738758 0.05565955 0.0554785 0.05712914 0.06030541 0.06408499 0.06745885
 0.0697407 0.07064924 0.07038058 0.06948536 0.06844556 0.06757914 0.06732298 0.06797107 0.06894879 0.06902836
 0.06766362 0.06572434 0.06460603 0.06479309 0.065474 0.06552767 0.06465726 0.06321365 0.06108868 0.05769185
 0.05330349 0.04943866 0.04733453 0.04700604 0.04814619 0.05061239 0.05336774 0.05441274 0.05297012 0.05088713
 0.05080376 0.05333748 0.05676152 0.05911839 0.06003728 0.06060104 0.06194821 0.06410465 0.06584254 0.06560652
 0.06305292 0.05991654 0.05878857 0.06057499 0.06362331 0.06575487 0.06656504 0.06718741 0.06831288 0.06911752
 0.06812127 0.06494899 0.06127398 0.05977756 0.06180893 0.06603503 0.06941158 0.06943239 0.06581204 0.06055098
 0.05637896 0.05486608 0.05600519 0.05925598 0.06414539 0.06971046 0.0742453 0.07625325 0.07552952 0.07309204
 0.07001555 0.06643401 0.06208548 0.05795732 0.05649691 0.05930252 0.06507683 0.07070559 0.07403418 0.07494056
 0.0741254 0.07178549 0.06781831 0.06311712 0.05999777 0.06040151 0.06355666 0.0664129 0.06683592 0.06555714
 0.06460521 0.06477506 0.06532866 0.0655579 0.06580053 0.06686986 0.06889174 0.0709985 0.07216847 0.07215399
 0.07152376 0.07100205 0.07080935 0.07050085 0.06959413 0.06853577 0.06864338 0.07065994 0.07372646 0.07626019
 0.07753979 0.07797105 0.07802738 0.07742731 0.07554184 0.07257073 0.07003744 0.06966004 0.07168503 0.07472576
 0.07720631 0.07850097 0.07879208 0.07849544 0.07797521 0.07742944 0.07695509 0.07680163 0.07730545 0.07840906
 0.07955348 0.08023808 0.08043002 0.08030979 0.07991298 0.07921073 0.07837577 0.07778433 0.0777431 0.07825762
 0.07908145 0.07993961 0.08062635 0.0809563 0.08082569 0.08036561 0.07987143 0.0795333 0.07936131 0.07936605
 0.07962675 0.08012974 0.08068658 0.08109079 0.08128197 0.08131806 0.08125757 0.0811183 0.08091918 0.08072934
 0.08066432 0.08080232 0.08108664 0.08136574 0.08156869 0.08177395 0.0820451 0.08227786 0.08230873 0.08213258
 0.08191837 0.08182584 0.08187701 0.08199609 0.08209559 0.08209187 0.08190004 0.0815103 0.08108398 0.0808883
 0.08108207 0.08160372 0.08227241 0.08291605 0.08339828 0.08364472 0.08369924 0.08367904 0.08363879 0.08353363
 0.08332902 0.08310056 0.08300854 0.08317767 0.08358729 0.08407888 0.08448189 0.08472078 0.08481692 0.08485425
 0.0849447 0.0851395 0.08535001 0.08543047 0.08535937 0.08527292 0.08530056 0.08542094 0.08550313 0.085463
 0.08535847 0.08532956 0.08545315 0.08567549 0.08589064 0.08605929 0.08623016 0.08645155 0.08667589 0.08677453
 0.0866728 0.08645228 0.08627206 0.08620246 0.08619967 0.08623418 0.08635266 0.08657983 0.08683007 0.08697782
 0.0869938 0.0869669 0.08698972 0.08705287 0.08706661 0.08696858 0.08678982 0.08662286 0.08654553 0.08657351
 0.08666189 0.08673939 0.08675066 0.08668374 0.08656778 0.08644517 0.08634554 0.08629048 0.08631697 0.08646525
 0.0867141 0.08694097 0.08699168 0.08681805 0.08653653 0.08632818 0.08627422 0.08629592 0.0862516 0.08607569
 0.08581787 0.08557077 0.08538648 0.0852586 0.08515734 0.08506927 0.08501555 0.08504122 0.08516752 0.08533459
 0.08541085 0.08529925 0.08503555 0.08475579 0.08457172 0.08450182 0.0845009 0.08451535 0.08452066 0.08453806
 0.08459917 0.08467807 0.08469617 0.08461862 0.08450633 0.08445357 0.08451362 0.08468579 0.08491316 0.08508515
 0.08511032 0.08501267 0.08491156 0.08489442 0.08494925 0.08502336 0.0850976 0.08518222 0.08527789 0.08537531
 0.08548457 0.08563956 0.08586376 0.0861364 0.08639593 0.0865819 0.08668482 0.08676356 0.08690623 0.08715966
 0.08749053 0.08781537 0.08806999 0.08825497 0.08841909 0.08860168 0.08880083 0.08900473 0.08923332 0.08951769
 0.08984643 0.09016864 0.09045255 0.09071258 0.09097682 0.09125505 0.09154594 0.09185996 0.09222384 0.09265292
 0.09310898 0.0934996 0.0937493 0.0938765 0.09398629 0.09418982 0.09452805 0.09494166 0.09530006 0.09550087
 0.09557511 0.09566517 0.09586957 0.09614244 0.09638296 0.09658889 0.09686258 0.09726964 0.09774232 0.09814164
 0.09839228 0.09854025 0.09868662 0.09887782 0.09906864 0.09919412 0.09925944 0.09933299 0.09946014 0.09962952
 0.09983541 0.1001191 0.1005062 0.1009389 0.1013175 0.1015936 0.1017884 0.1019403 0.1020679 0.1021703
 0.1022337 0.1022527 0.1022607 0.1023103 0.102407 0.1024944 0.1025307 0.1025479 0.1026129 0.1027597
 0.1029842 0.1032726 0.1035966 0.1039026 0.1041578 0.1044052 0.1047227 0.1051063 0.1054402 0.1056184
 0.1056608 0.105667 0.105691 0.105724 0.1057802 0.1059206 0.1061766 0.1065068 0.1068515 0.1071935
 0.1075451 0.1079011 0.1082217 0.108453 0.108562 0.1085629 0.10852 0.1085208 0.1086342 0.1088758
 0.1091995 0.1095293 0.109808 0.1100096 0.1101139 0.1101075 0.1100322 0.1099968 0.1100901 0.110281
 0.1104332 0.110422 0.1102138 0.1098384 0.109326 0.1086994 0.1080095 0.1073449 0.1067935 0.1064009
 0.1061776 0.1061423 0.1063389 0.106788 0.1074293 0.1081372 0.1087943 0.1093202 0.109632 0.1096364
 0.1092984 0.1086949 0.1079678 0.1072374 0.1065668 0.1059655 0.1053974 0.1048247 0.1042896 0.1039471
 0.1039891 0.1045334 0.1055695 0.1069685 0.1085209 0.1099999 0.1112487 0.1122383 0.1130432 0.113757
 0.1144302 0.1150823 0.1157359 0.1164013 0.1170429 0.117604 0.1180727 0.1184914 0.1188983 0.119289
 0.1196338 0.1199102 0.1201246 0.1203175 0.1205261 0.1207273 0.1208452 0.1208379 0.1207466 0.1206403
 0.1205345 0.1203831 0.1201279 0.1197469 0.1192847 0.1188676 0.1186797 0.1188897 0.1195587 0.1206028
 0.1218531 0.1231615 0.1244389 0.1256055 0.1265618 0.1272453 0.1276902 0.1280008 0.1282746 0.1285633
 0.1288781 0.1292049 0.1295197 0.1298089 0.1300788 0.130351 0.130651 0.1309911 0.1313487 0.1316731
 0.1319311 0.1321492 0.1323982 0.1327265 0.1331117 0.1334866 0.1338153 0.1341263 0.1344539 0.1347716
 0.1350197 0.1351895 0.1353427 0.1355486 0.1358355 0.1361939 0.1365834 0.1369344 0.1371876 0.1373485
 0.1374829 0.1376529 0.1378728 0.1381237 0.1383843 0.1386417 0.1388916 0.1391451 0.1394265 0.139743
 0.140058 0.1403117 0.1404801 0.1406053 0.1407563 0.1409649 0.141204 0.1414264 0.1416168 0.1418107
 0.1420595 0.1423725 0.1426959 0.1429578 0.1431331 0.1432562 0.1433791 0.1435305 0.1437114 0.1439117
 0.1441209 0.1443309 0.1445386 0.1447473 0.1449622 0.1451838 0.1454069 0.1456249 0.1458347 0.1460379
 0.146237 0.1464331 0.1466331 0.1468581 0.1471311 0.1474448 0.1477519 0.1480001 0.1481762 0.1483064
 0.1484231 0.1485459 0.1486861 0.1488508 0.1490377 0.1492361 0.149438 0.1496431 0.1498527 0.1500642
 0.1502739 0.1504819 0.150691 0.150902 0.1511152 0.1513355 0.1515688 0.1518107 0.1520429 0.1522472
 0.1524237 0.1525943 0.1527848 0.1529989 0.153212 0.153399 0.1535623 0.1537269 0.1539116 0.1541133
 0.1543181 0.1545169 0.1547113 0.1549072 0.1551072 0.1553086 0.1555089 0.1557101 0.1559145 0.1561201
 0.1563226 0.156518 0.1567054 0.1568902 0.157082 0.1572855 0.157495 0.1577022 0.1579057 0.158108
 0.1583082 0.1585016 0.1586876 0.1588728 0.1590646 0.159262 0.1594602 0.1596588 0.159861 0.1600657
 0.1602696 0.1604717 0.1606724 0.1608716 0.1610747 0.1612895 0.1615122 0.1617281 0.1619297 0.1621254
 0.1623266 0.1625376 0.162758 0.1629867 0.1632201 0.163453 0.1636798 0.1638959 0.1640995 0.1642905
 0.1644678 0.1646317 0.164787 0.164943 0.1651082 0.165287 0.165476 0.1656662 0.165853 0.1660408
 0.1662344 0.166433 0.1666366 0.1668465 0.1670589 0.1672676 0.1674726 0.1676768 0.1678784 0.1680763
 0.1682744 0.1684741 0.1686723 0.1688698 0.1690712 0.169279 0.1694935 0.1697137 0.1699339 0.1701463
 0.1703485 0.1705434 0.1707387 0.1709461 0.1711694 0.1713948 0.1716049 0.1717999 0.1719929 0.1721924
 0.1723987 0.1726087 0.1728179 0.1730276 0.173243 0.1734601 0.1736697 0.1738773 0.1740986 0.1743337
 0.1745679 0.1747936 0.1750113 0.1752209 0.1754258 0.1756326 0.1758401 0.176045 0.1762534 0.1764721
 0.1766975 0.1769213 0.1771321 0.177308 0.1774103 0.1773383 0.1768197 0.1752988 0.1719281 0.1657456
 0.1560632 0.1429022 0.1271334 0.1101661 0.09343024 0.07800885 0.06454001 0.05330323 0.04435473 0.03761406
 0.03292616 0.03016265 0.02932109 0.03062252 0.03461926 0.04186953 0.05171447 0.06119592 0.06620786 0.06473762
 0.05879091 0.05256265 0.04894865 0.04814691 0.04891444 0.0501937 0.05165087 0.05347956 0.05601197 0.05934255
 0.06331334 0.06792149 0.07351236 0.08033698 0.08803351 0.09578464 0.1030191 0.1098544 0.116822 0.124229
 0.1318344 0.1390814 0.1455382 0.1511176 0.1559985 0.1604273 0.164573 0.1685056 0.1722515 0.1758035
 0.1790417 0.1816963 0.1834743 0.1842833 0.1843405 0.1840523 0.1837752 0.1836739 0.1837635 0.1840182
 0.1844195 0.1849524 0.1856006 0.1863427 0.1871431 0.1879636 0.1887806 0.189581 0.1903497 0.1910746
 0.1917512 0.1923739 0.1929352 0.1934383 0.1938989 0.194333 0.1947491 0.1951461 0.1955155 0.1958528
 0.1961678 0.1964745 0.1967755 0.1970629 0.1973284 0.1975681 0.1977847 0.197987 0.1981842 0.1983822
 0.1985862 0.1988004 0.1990208 0.1992375 0.1994455 0.1996478 0.199849 0.2000528 0.2002608 0.2004678
 0.2006644 0.2008486 0.2010295 0.2012177 0.2014166 0.2016219 0.2018246 0.2020161 0.202197 0.2023762
 0.2025614 0.202755 0.202956 0.2031626 0.2033741 0.2035911 0.2038116 0.2040291 0.2042421 0.2044568
 0.2046746 0.2048877 0.2050941 0.2053007 0.2055033 0.205681 0.2058243 0.2059573 0.206119 0.2063281
 0.2065674 0.206802 0.2070127 0.2072083 0.207406 0.2076078 0.2078016 0.2079762 0.2081372 0.2083141
 0.2085395 0.208811 0.2090882 0.2093402 0.209571 0.2097963 0.2100228 0.2102563 0.2104935 0.2107038
 0.2108558 0.21097 0.2111211 0.2113762 0.2117305 0.2121065 0.2124248 0.2126705 0.2128855 0.2131147
 0.2133802 0.2136624 0.2138713 0.2139073 0.2138136 0.213808 0.2140819 0.2146065 0.2151898 0.2156763
 0.2160398 0.2163302 0.2165891 0.2168081 0.2169381 0.2169479 0.2168959 0.2169385 0.2172191 0.2177222
 0.2182748 0.2187191 0.2190329 0.2192682 0.2194617 0.2196302 0.2197375 0.2196432 0.2192502 0.2187679
 0.2186591 0.2191945 0.220147 0.2210349 0.2215985 0.221934 0.222221 0.2224995 0.2227218 0.2227995
 0.2224977 0.2215655 0.2202242 0.2193126 0.2195982 0.2210045 0.2227443 0.2241092 0.2249195 0.2253484
 0.2256137 0.2258303 0.2259238 0.225641 0.2248371 0.22385 0.2234135 0.2239849 0.225232 0.2263848
 0.2270182 0.2272804 0.2274844 0.2277561 0.2279467 0.227594 0.2261871 0.2239174 0.2220542 0.2220535
 0.2241361 0.2270232 0.2292032 0.2302318 0.2306195 0.2307201 0.2302085 0.228666 0.2262097 0.2234459
 0.2212779 0.2207709 0.2224435 0.2253966 0.2278301 0.228816 0.2290788 0.2298076 0.2312451 0.2326932
 0.2334212 0.2332334 0.2323498 0.2310033 0.2293254 0.2277237 0.2271063 0.2282338 0.2307952 0.2335245
 0.2353736 0.2363064 0.2367414 0.2363155 0.2336384 0.227962 0.2212617 0.2176833 0.2198802 0.2262391
 0.2326136 0.2364024 0.2379777 0.2387314 0.2392094 0.2389613 0.2368152 0.2315243 0.22373 0.2171891
 0.2162336 0.2214894 0.2291707 0.2346157 0.2354537 0.2318504 0.225685 0.2200005 0.2177567 0.2200296
 0.2255398 0.2319171 0.2371263 0.2400312 0.2403772 0.2386691 0.2361374 0.2344496 0.234501 0.2350864
 0.2338173 0.2301435 0.2262709 0.2239208 0.2216633 0.2175537 0.2133964 0.213553 0.2192761 0.2266173
 0.2308645 0.2313184 0.2304441 0.2293807 0.2259956 0.2179564 0.2071488 0.1997709 0.2009181 0.2092924
 0.2183559 0.2227319 0.2224806 0.2211879 0.2211843 0.2211674 0.2180366 0.2109423 0.203362 0.2001843
 0.2025056 0.2066465 0.2085088 0.2068425 0.2018173 0.1937189 0.1853069 0.1826572 0.1900411 0.2047036
 0.2190197 0.2267673 0.2254008 0.2146967 0.1976539 0.1823283 0.1779093 0.1864854 0.2005027 0.2097099
 0.2092853 0.2006965 0.1873369 0.172219 0.1593607 0.1541975 0.1603328 0.1758829 0.1934994 0.2039944
 0.2014136 0.1877014 0.1731644 0.169062 0.1773281 0.1892028 0.1950266 0.1929992 0.1878252 0.1846761
 0.1862118 0.1920671 0.1992385 0.2049232 0.2087564 0.2096206 0.202632 0.185006 0.1638094 0.1512965
 0.152186 0.1612543 0.1731377 0.1871493 0.2008774 0.2068725 0.2010432 0.1903914 0.1870465 0.1953868
 0.2082966 0.2158797 0.2152583 0.211095 0.2083951 0.2071825 0.2049935 0.2026341 0.2043767 0.2120571
 0.2218569 0.2285665 0.2310041 0.2315303 0.2320563 0.2325959 0.2326163 0.2319189 0.2305675 0.2290184
 0.2279777 0.2276094 0.2273874 0.2269011 0.2258268 0.2226993 0.2152286 0.2035142 0.1920841 0.1862994
 0.1866643 0.1892058 0.1913859 0.1935808 0.1935609 0.1849349 0.1655906 0.1446286 0.1357401 0.1439751
 0.1619785 0.1783777 0.186494 0.1849222 0.1741429 0.1567313 0.1400639 0.1339977 0.1428326 0.1611893
 0.1797595 0.1933228 0.2013294 0.2034483 0.1985856 0.1880573 0.1768597 0.1708078 0.1729957 0.1824433
 0.1944239 0.2016741 0.1979486 0.1842299 0.1714652 0.1724805 0.1885197 0.2071677 0.2163074 0.2163896
 0.2154982 0.2167872 0.2169265 0.214935 0.2157108 0.2233154 0.2350004 0.2439217 0.2451514 0.2376168
 0.2234564 0.2085181 0.200845 0.2041958 0.2137072 0.2211236 0.2227512 0.2189945 0.2095171 0.195278
 0.1836558 0.1840053 0.1968258 0.2125637 0.2224674 0.2265549 0.2296108 0.2329513 0.2328297 0.2261112
 0.2155128 0.2079221 0.2075925 0.2124299 0.2175396 0.2203835 0.2208074 0.2181195 0.2115226 0.2034369
 0.1995275 0.203782 0.2143601 0.2252811 0.2317433 0.2331254 0.2316019 0.2293212 0.2269532 0.2238481
 0.2194712 0.2152715 0.214406 0.2183709 0.2246336 0.2292417 0.2313543 0.2335264 0.2376918 0.2424971
 0.2449472 0.2436703 0.2402205 0.2377176 0.2383395 0.2415955 0.2446984 0.2449469 0.2422943 0.2396302
 0.2401201 0.2441901 0.2494721 0.2534989 0.2557119 0.2569482 0.2579955 0.2589014 0.2589336 0.2571315
 0.2536661 0.2506364 0.2505844 0.2539756 0.2587611 0.2625031 0.2643489 0.2648862 0.2647938 0.2641297
 0.2627359 0.2608942 0.259342 0.2586864 0.2589635 0.2597878 0.260753 0.2616146 0.2622682 0.26272
 0.2630385 0.2632652 0.2634043 0.2634893 0.2635666 0.2636049 0.2635304 0.263389 0.2633664 0.2635783
 0.2639147 0.2641587 0.2641885 0.263974 0.2634464 0.2625171 0.2612262 0.2597437 0.2581776 0.2564967
 0.254755 0.2533509 0.2529125 0.2538247 0.2558632 0.2583259 0.2605112 0.2620749 0.2630242 0.2635189
 0.2637311 0.2638013 0.2638148 0.2637863 0.2636886 0.2635037 0.2632378 0.2629013 0.2625023 0.2620691
 0.2616581 0.2613168 0.2610405 0.2607759 0.2604644 0.2600747 0.2596082 0.2590903 0.2585489 0.2579814
 0.2573444 0.2565868 0.2556991 0.2547318 0.2537724 0.2528966 0.2521179 0.2513785 0.2506045 0.2497651
 0.2488586 0.2478632 0.246757 0.2455962 0.2445179 0.243629 0.2429149 0.2422734 0.2416062 0.240857
 0.2400008 0.2390428 0.2380173 0.2369577 0.2358689 0.2347366 0.2335478 0.2322924 0.2309602 0.2295467
 0.2280548 0.226494 0.2248842 0.2232476 0.2215756 0.2198038 0.2178232 0.2155075 0.2127334 0.2094055
 0.2054942 0.2010637 0.1962709 0.1913291 0.186449 0.1817919 0.1774682 0.1735705 0.170196 0.1674337
 0.1653415 0.1639387 0.1632223 0.1631884 0.1638348 0.1651443 0.1670647 0.1694985 0.1723004 0.1752926
 0.1782953 0.1811547 0.1837701 0.1861279 0.1883003 0.190372 0.192357 0.1942037 0.1958597 0.1973034
 0.1985272 0.1995334 0.2003502 0.2010262 0.2016032 0.2021 0.2025223 0.202882 0.2032007 0.2034929
 0.203752 0.2039642 0.204133 0.2042864 0.2044648 0.2047031 0.2050113 0.2053739 0.2057745 0.2062162
 0.2067091 0.2072492 0.2078204 0.2084088 0.2090102 0.2096368 0.2103216 0.2111113 0.2120496 0.2131619
 0.2144409 0.2158343 0.2172528 0.2185954 0.219776 0.2207401 0.2214686 0.221968 0.2222574 0.2223632
 0.222317 0.222147 0.2218741 0.2215151 0.2210808 0.2205723 0.2199887 0.2193389 0.2186401 0.2179096
 0.2171674 0.2164395 0.2157482 0.2150957 0.2144621 0.2138258 0.2131872 0.2125641 0.2119647 0.2113782
 0.2107956 0.2102251 0.2096767 0.2091418 0.2085947 0.2080071 0.207354 0.2066194 0.2058007 0.2048987
 0.2039005 0.2027831 0.201543 0.2002102 0.1988206 0.1973819 0.1958757 0.1942899 0.1926322 0.1909093
 0.1891043 0.1871919 0.1851833 0.1831463 0.1811742 0.1793343 0.1776456 0.1760883 0.1746234 0.1732166
 0.1718583 0.1705586 0.1693211 0.1681369 0.1670039 0.1659351 0.1649406 0.1640159 0.1631538 0.1623611
 0.1616518 0.1610253 0.1604642 0.1599587 0.1595194 0.1591589 0.1588823 0.1587045 0.1586445 0.1586833
 0.1587535 0.1587865 0.1587525 0.1586586 0.1585348 0.1584175 0.1583233 0.1582431 0.1581638 0.15807
 0.1579181 0.1576314 0.1571214 0.1563094 0.155149 0.1536539 0.1519037 0.1500268 0.1481768 0.1464916
 0.1450513 0.1438811 0.1429821 0.1423241 0.1418307 0.1414254 0.1410942 0.1408873 0.1408665 0.1410366
 0.1412958 0.1414838 0.14153 0.141535 0.1416779 0.1420738 0.1427145 0.1434892 0.1442504 0.144901
 0.1454179 0.1458006 0.1460465 0.1461766 0.1462198 0.1461749 0.1460344 0.1458211 0.1455666 0.1452833
 0.1449684 0.1445961 0.1441233 0.1435367 0.1428621 0.1421127 0.1412821 0.1403738 0.1393707 0.1382285
 0.1369924 0.1358764 0.1351532 0.1349911 0.1353898 0.1361971 0.1372017 0.1382642 0.1392989 0.1401127
 0.1404638 0.1404331 0.1406019 0.1416413 0.1436812 0.1461626 0.1483271 0.1497744 0.1505178 0.1506703
 0.1502737 0.149349 0.1479002 0.1458986 0.1433915 0.1405419 0.1374982 0.1343704 0.1313413 0.1286224
 0.1263211 0.124462 0.1230397 0.1220775 0.1216942 0.1215229 0.1196678 0.1136849 0.1043608 0.09739624
 0.09859431 0.1073283 0.1169981 0.1220027 0.1221768 0.1204793 0.1189586 0.117943 0.1173577 0.1173638
 0.1180845 0.1193625 0.1208064 0.1220146 0.1228057 0.1231956 0.1231364 0.1222789 0.1198959 0.115134
 0.1077138 0.09852684 0.08932272 0.08168475 0.07632412 0.0731205 0.07147729 0.07065816 0.07013962 0.06986727
 0.070154 0.07128951 0.07328001 0.07594631 0.07911395 0.08256229 0.08589031 0.08867694 0.09081163 0.09250042
 0.09391598 0.09498526 0.09554654 0.09557796 0.09521551 0.09462992 0.09393903 0.09318334 0.09231625 0.09124538
 0.08997981 0.0887465 0.08785717 0.08742556 0.08729959 0.08727345 0.08725965 0.08725677 0.08726892 0.0872826
 0.08727214 0.08724743 0.08730824 0.0875755 0.08804154 0.08854993 0.08893335 0.08913569 0.08920756 0.08918136
 0.08894644 0.08835188 0.0875015 0.08675988 0.08628558 0.08574037 0.08472426 0.08338781 0.08234431 0.08200976
 0.08223767 0.08258099 0.08271077 0.08256115 0.08228113 0.08216488 0.08246744 0.08310318 0.08361192 0.08359306
</values></Ydata></ScRf><Data_Parameters_AB><parameter name="DPF">1</parameter><parameter name="NPT">3497</parameter><parameter name="FXV">3996</parameter><parameter name="LXV">500</parameter><parameter name="CSF">1</parameter><parameter name="MXY">0.125925347208977</parameter><parameter name="MNY">-0.0704162642359734</parameter><parameter name="DAT">31/05/2022</parameter><parameter name="TIM">13:32:05.796 (GMT+2)</parameter><parameter name="DXU">WN</parameter></Data_Parameters_AB><AB__Qtest><MainReport name="Quality Test Report"><Header><Line><Legend>Test result ok/not ok [1/0]: </Legend><Value>0</Value></Line><Line><Legend>Method file: </Legend><Value>C:\Users\Public\Documents\Bruker\OPUS_8.2.28\QT\IRBT_v3_default.QT</Value></Line></Header><Matrix><Line><Legend></Legend><Legend>min</Legend><Legend>max</Legend><Legend>measured</Legend></Line><Line><Value>Absorption (X-Range 1):</Value><Value>0.400000</Value><Value>2.000000</Value><Value>0.166767</Value></Line><Line><Value>Noise (X-Range 4):</Value><Value></Value><Value>0.000300</Value><Value>0.000048</Value></Line><Line><Value>Signal/Noise (X-Range 2):</Value><Value>200.000000</Value><Value></Value><Value>95.372127</Value></Line><Line><Value>Signal/Noise (X-Range 3):</Value><Value>40.000000</Value><Value></Value><Value>40.048268</Value></Line><Line><Value>Water vapour (X-Range 5):</Value><Value></Value><Value>0.000300</Value><Value>0.000082</Value></Line><Line><Value>Signal/Water (X-Range 2):</Value><Value>100.000000</Value><Value></Value><Value>55.357942</Value></Line><Line><Value>Signal/Water (X-Range 3):</Value><Value>20.000000</Value><Value></Value><Value>23.245677</Value></Line><Line><Value>Fringes (X-Range 6):</Value><Value></Value><Value>0.000100</Value><Value>0.000047</Value></Line></Matrix></MainReport></AB__Qtest><Data_Parameters_ScSm><parameter name="DPF">1</parameter><parameter name="NPT">1814</parameter><parameter name="FXV">3996.33169228125</parameter><parameter name="LXV">499.541461535156</parameter><parameter name="CSF">1</parameter><parameter name="MXY">0.281901687383652</parameter><parameter name="MNY">0.0343346297740936</parameter><parameter name="DAT">31/05/2022</parameter><parameter name="TIM">13:32:05.796 (GMT+2)</parameter><parameter name="DXU">WN</parameter></Data_Parameters_ScSm><Data_Parameters_ScRf><parameter name="DPF">1</parameter><parameter name="NPT">1820</parameter><parameter name="FXV">4004.04661832813</parameter><parameter name="LXV">495.683998511719</parameter><parameter name="CSF">1</parameter><parameter name="MXY">0.264886200428009</parameter><parameter name="MNY">0.0293210856616497</parameter><parameter name="DAT">31/05/2022</parameter><parameter name="TIM">13:31:40.302 (GMT+2)</parameter><parameter name="DXU">WN</parameter></Data_Parameters_ScRf><Optic_Parameters_Rf><parameter name="APR">0</parameter><parameter name="APT">Open</parameter><parameter name="BMS">KBr</parameter><parameter name="DTC">RT-DLaTGS_IR-Biotyper [Microplate reader]</parameter><parameter name="HPF">0</parameter><parameter name="LPF">10.0</parameter><parameter name="LPV">4000</parameter><parameter name="PGR">0</parameter><parameter name="RCH">Module port</parameter><parameter name="RDX">0</parameter><parameter name="SRC">MIR</parameter><parameter name="VEL">10.0</parameter><parameter name="SON">Off</parameter></Optic_Parameters_Rf><Acquisition_Parameters_Rf><parameter name="ADT">1</parameter><parameter name="AQM">DD</parameter><parameter name="CFE">0</parameter><parameter name="COR">0</parameter><parameter name="DEL">0</parameter><parameter name="DLY">0</parameter><parameter name="HFW">8000</parameter><parameter name="LFW">0</parameter><parameter name="NSR">32</parameter><parameter name="PLF">AB</parameter><parameter name="RES">6</parameter><parameter name="RGN">-1</parameter><parameter name="STR">0</parameter><parameter name="TCL">MakeCompatibleScalar (0, {WSV=1.000000, ARV=0});</parameter><parameter name="TDL">37</parameter><parameter name="RPO">0</parameter></Acquisition_Parameters_Rf><FT_-_Parameters_Rf><parameter name="APF">B3</parameter><parameter name="HFQ">500</parameter><parameter name="LFQ">4000</parameter><parameter name="NLI">0</parameter><parameter name="PHR">24</parameter><parameter name="PHZ">ML</parameter><parameter name="SPZ">NO</parameter><parameter name="ZFF">1</parameter></FT_-_Parameters_Rf><Optic_Parameters_><parameter name="APR">0</parameter><parameter name="APT">Open</parameter><parameter name="BMS">KBr</parameter><parameter name="CHN">Module port</parameter><parameter name="DTC">RT-DLaTGS_IR-Biotyper [Microplate reader]</parameter><parameter name="HPF">0</parameter><parameter name="LPF">10.0</parameter><parameter name="LPV">4000</parameter><parameter name="PGN">0</parameter><parameter name="RDX">0</parameter><parameter name="SRC">MIR</parameter><parameter name="VEL">10.0</parameter><parameter name="SON">Off</parameter></Optic_Parameters_><FT_-_Parameters_><parameter name="APF">B3</parameter><parameter name="HFQ">500</parameter><parameter name="LFQ">4000</parameter><parameter name="NLI">0</parameter><parameter name="PHR">24</parameter><parameter name="PHZ">ML</parameter><parameter name="SPZ">NO</parameter><parameter name="ZFF">1</parameter></FT_-_Parameters_><Acquisition_Parameters_><parameter name="ADT">1</parameter><parameter name="AQM">DD</parameter><parameter name="CFE">0</parameter><parameter name="COR">0</parameter><parameter name="DEL">0</parameter><parameter name="DLY">0</parameter><parameter name="HFW">8000</parameter><parameter name="LFW">0</parameter><parameter name="NSS">32</parameter><parameter name="PLF">AB</parameter><parameter name="RES">6</parameter><parameter name="SOT">0</parameter><parameter name="TCL">MakeCompatibleScalar (0, {WSV=1.000000, ARV=0});</parameter><parameter name="TDL">37</parameter><parameter name="SPO">0</parameter><parameter name="SGN">-1</parameter></Acquisition_Parameters_><Instrument_Parameters_Rf><parameter name="HFL">15800.168544</parameter><parameter name="LFL">0</parameter><parameter name="LWN">15800.168544</parameter><parameter name="ABP">32197</parameter><parameter name="SSP">1</parameter><parameter name="ARG">2</parameter><parameter name="ASG">2</parameter><parameter name="ASS">32</parameter><parameter name="GFW">16</parameter><parameter name="GBW">16</parameter><parameter name="BFW">0</parameter><parameter name="BBW">0</parameter><parameter name="PKA">7263</parameter><parameter name="PKL">4996</parameter><parameter name="PRA">7446</parameter><parameter name="PRL">5001</parameter><parameter name="P2A">1</parameter><parameter name="P2L">1</parameter><parameter name="P2R">1</parameter><parameter name="P2K">1</parameter><parameter name="DAQ">0</parameter><parameter name="AG2">1</parameter><parameter name="SSM">1</parameter><parameter name="RSN">25675</parameter><parameter name="CRR">0</parameter><parameter name="SRT">1654003900.303</parameter><parameter name="DUR">19.6379852294922</parameter><parameter name="TSC">28.9</parameter><parameter name="MVD">0.200693741440773</parameter><parameter name="AN1">0.225796991725981</parameter><parameter name="AN2">0</parameter><parameter name="VSN">2.485 Apr  4 2017</parameter><parameter name="SRN">0085</parameter><parameter name="CAM">0</parameter><parameter name="INS">IR-Biotyper</parameter><parameter name="FOC">69</parameter><parameter name="RDY">1</parameter><parameter name="ARS">32</parameter></Instrument_Parameters_Rf><Sample_Parameters_><parameter name="BLD"></parameter><parameter name="CNM">Admin</parameter><parameter name="CPY"></parameter><parameter name="DPM"></parameter><parameter name="EXP">IRBT_v3_32Scans.XPM</parameter><parameter name="LCT"></parameter><parameter name="SFM">Microplate, HTS-XT</parameter><parameter name="SNM">220531-1301_CGR32F (D_6)_G2_15cac005-9abf-40e2-b1c4-bc43e93aaaa6.0</parameter><parameter name="XPP">C:\Users\Public\Documents\Bruker\OPUS_8.2.28\XPM</parameter><parameter name="IST">OK</parameter><parameter name="CPG">1252</parameter><parameter name="UID">76f05cc8-e9d6-455e-95f9-8842e991b7ae</parameter></Sample_Parameters_><Instrument_Parameters_><parameter name="HFL">15800.168544</parameter><parameter name="LFL">0</parameter><parameter name="LWN">15800.168544</parameter><parameter name="ABP">32197</parameter><parameter name="SSP">1</parameter><parameter name="ASG">2</parameter><parameter name="ARG">2</parameter><parameter name="ASS">32</parameter><parameter name="GFW">16</parameter><parameter name="GBW">16</parameter><parameter name="BFW">0</parameter><parameter name="BBW">0</parameter><parameter name="PKA">7601</parameter><parameter name="PKL">4988</parameter><parameter name="PRA">7849</parameter><parameter name="PRL">4993</parameter><parameter name="P2A">1</parameter><parameter name="P2L">1</parameter><parameter name="P2R">1</parameter><parameter name="P2K">1</parameter><parameter name="DAQ">0</parameter><parameter name="AG2">1</parameter><parameter name="SSM">1</parameter><parameter name="RSN">13463</parameter><parameter name="CRR">0</parameter><parameter name="SRT">1654003925.797</parameter><parameter name="DUR">19.6379852294922</parameter><parameter name="TSC">28.9</parameter><parameter name="MVD">0.44015035033226</parameter><parameter name="AN1">0.225806651934401</parameter><parameter name="AN2">0</parameter><parameter name="VSN">2.485 Apr  4 2017</parameter><parameter name="SRN">0085</parameter><parameter name="CAM">0</parameter><parameter name="INS">IR-Biotyper</parameter><parameter name="FOC">69</parameter><parameter name="RDY">1</parameter></Instrument_Parameters_><History/></OPUSDataFile>
