<?xml version="1.0" encoding="UTF-8" ?>
<OPUSDataFile><AB><Ydata ylabel="Absorbance Units"><values byteorder="INTEL" format="FLOAT32" numvalues="3497"> -0.1053707 -0.1053917 -0.1054029 -0.1054039 -0.1054014 -0.1053957 -0.105388 -0.1053779 -0.1053605 -0.1053366
 -0.1053075 -0.1052761 -0.1052529 -0.1052393 -0.1052449 -0.1052667 -0.1053054 -0.1053545 -0.1054075 -0.1054579
 -0.1054978 -0.1055261 -0.1055381 -0.1055421 -0.105539 -0.1055409 -0.1055517 -0.1055742 -0.1056106 -0.1056517
 -0.1056968 -0.1057366 -0.1057705 -0.1057984 -0.1058205 -0.1058416 -0.1058614 -0.105881 -0.1058995 -0.1059146
 -0.1059259 -0.1059309 -0.1059306 -0.1059245 -0.1059158 -0.1059068 -0.1059029 -0.1059094 -0.1059284 -0.1059651
 -0.10601 -0.1060636 -0.1061053 -0.1061301 -0.1061246 -0.106083 -0.1060204 -0.1059361 -0.1058672 -0.1058158
 -0.1058072 -0.10584 -0.105901 -0.1059855 -0.1060574 -0.1061183 -0.1061528 -0.1061704 -0.1061875 -0.1062076
 -0.1062469 -0.1062961 -0.1063515 -0.106402 -0.1064355 -0.1064526 -0.1064487 -0.1064327 -0.1064072 -0.1063768
 -0.1063434 -0.1063075 -0.1062682 -0.1062327 -0.1062008 -0.1061895 -0.1062 -0.1062499 -0.1063392 -0.1064729
 -0.1066465 -0.1068386 -0.1070395 -0.1072013 -0.1073206 -0.1073598 -0.1073355 -0.1072553 -0.1071437 -0.1070329
 -0.1069355 -0.1068753 -0.1068444 -0.1068488 -0.1068632 -0.1068792 -0.1068796 -0.1068546 -0.1068166 -0.1067642
 -0.1067237 -0.1066983 -0.1066964 -0.1067188 -0.1067497 -0.1067882 -0.1068194 -0.1068455 -0.1068723 -0.106903
 -0.1069543 -0.1070241 -0.1071189 -0.1072275 -0.1073347 -0.1074298 -0.1074904 -0.1075228 -0.1075221 -0.1075056
 -0.1074828 -0.1074619 -0.1074492 -0.107444 -0.1074454 -0.1074613 -0.1074913 -0.1075541 -0.1076525 -0.1077876
 -0.1079599 -0.1081004 -0.1082041 -0.108179 -0.1080375 -0.1078136 -0.1075264 -0.1072684 -0.1070407 -0.1068927
 -0.1068161 -0.1068226 -0.1068927 -0.1070126 -0.1071536 -0.1072865 -0.1073975 -0.1074657 -0.1075075 -0.1075238
 -0.1075321 -0.1075403 -0.1075418 -0.1075365 -0.1075174 -0.1074821 -0.1074463 -0.1074107 -0.107401 -0.1074172
 -0.1074658 -0.1075434 -0.1076322 -0.1077291 -0.1078129 -0.1078839 -0.1079337 -0.1079612 -0.1079612 -0.1079327
 -0.1078681 -0.1077803 -0.1076726 -0.107571 -0.1074906 -0.1074505 -0.1074651 -0.1075278 -0.1076446 -0.1077788
 -0.107927 -0.1080485 -0.1081379 -0.1081791 -0.1081705 -0.1081158 -0.1080156 -0.1078781 -0.1077057 -0.1075151
 -0.1073119 -0.1071249 -0.1069594 -0.1068453 -0.106779 -0.1067719 -0.1068074 -0.1068725 -0.1069469 -0.1070074
 -0.1070481 -0.1070557 -0.1070452 -0.107019 -0.1069934 -0.1069751 -0.1069641 -0.1069618 -0.1069618 -0.106963
 -0.1069686 -0.1069786 -0.1070011 -0.1070362 -0.1070839 -0.1071428 -0.1072031 -0.1072634 -0.1073136 -0.1073546
 -0.1073841 -0.1074034 -0.1074141 -0.1074154 -0.1074063 -0.1073874 -0.1073558 -0.1073234 -0.1072928 -0.1072865
 -0.1073145 -0.1073892 -0.107521 -0.1076884 -0.1078934 -0.1080878 -0.1082664 -0.1083976 -0.1084788 -0.1084957
 -0.1084477 -0.1083227 -0.1081259 -0.1078829 -0.1076054 -0.1073542 -0.1071353 -0.1069986 -0.1069363 -0.1069653
 -0.1070537 -0.1071719 -0.1072861 -0.1073487 -0.1073697 -0.1073367 -0.1072841 -0.1072245 -0.1071758 -0.1071486
 -0.1071325 -0.1071292 -0.1071129 -0.1070803 -0.1070215 -0.1069352 -0.1068419 -0.1067431 -0.1066708 -0.1066254
 -0.1066263 -0.1066668 -0.1067341 -0.1068124 -0.1068507 -0.1068474 -0.1067663 -0.1066377 -0.1064852 -0.1063329
 -0.1062165 -0.1061256 -0.1060692 -0.1060145 -0.105949 -0.1058554 -0.1057212 -0.1055687 -0.105398 -0.1052442
 -0.1051124 -0.1050138 -0.1049499 -0.1049009 -0.1048653 -0.104812 -0.1047419 -0.1046465 -0.1045304 -0.1044082
 -0.1042822 -0.1041648 -0.104058 -0.1039704 -0.103905 -0.1038713 -0.1038631 -0.1038831 -0.1039085 -0.1039277
 -0.1039196 -0.1038705 -0.1037787 -0.1036418 -0.103457 -0.1032236 -0.1029387 -0.1025999 -0.1022289 -0.1018266
 -0.1014259 -0.1010282 -0.1006563 -0.1003109 -0.1000082 -0.09974813 -0.0995412 -0.09938131 -0.09925966 -0.09916539
 -0.09907344 -0.09897982 -0.09886875 -0.09874155 -0.09859722 -0.0984275 -0.09822768 -0.09798995 -0.09770504 -0.09739038
 -0.09704735 -0.09669881 -0.09634984 -0.09600998 -0.09568085 -0.09536767 -0.09507082 -0.09479683 -0.09454598 -0.09432331
 -0.09412822 -0.09396061 -0.09381621 -0.09368112 -0.09354338 -0.09336306 -0.09313259 -0.09280973 -0.09241892 -0.09197031
 -0.09149871 -0.09104247 -0.09061149 -0.09022592 -0.0898746 -0.08955996 -0.08926056 -0.08897026 -0.08867688 -0.08837528
 -0.08807319 -0.08777135 -0.08747314 -0.08717949 -0.08686793 -0.08653717 -0.08616066 -0.08574102 -0.08528493 -0.08479913
 -0.08431618 -0.08383969 -0.08339612 -0.08298574 -0.08262238 -0.08230174 -0.08202802 -0.08178417 -0.08155966 -0.08133073
 -0.08107824 -0.0807933 -0.08046531 -0.08010204 -0.07970345 -0.07927778 -0.07882567 -0.07835813 -0.07787484 -0.07740179
 -0.07694064 -0.07651453 -0.0761237 -0.07576636 -0.07544013 -0.0751259 -0.07482138 -0.07450596 -0.07418049 -0.0738349
 -0.07347552 -0.07310887 -0.07274227 -0.07239015 -0.07205073 -0.07173186 -0.07141572 -0.07109624 -0.07074971 -0.07036076
 -0.06993062 -0.06945097 -0.06895564 -0.06844857 -0.06796344 -0.06750606 -0.06708452 -0.06670045 -0.06633723 -0.06599384
 -0.0656496 -0.06530405 -0.06494515 -0.06457204 -0.06417412 -0.06375155 -0.06329579 -0.06281588 -0.06232191 -0.06183016
 -0.06136902 -0.06094168 -0.0605664 -0.06022414 -0.0599095 -0.05960184 -0.05928861 -0.05896696 -0.05863185 -0.05829329
 -0.05795266 -0.05761647 -0.05728654 -0.05695778 -0.05663017 -0.05629278 -0.05594525 -0.05558172 -0.05520311 -0.05481399
 -0.05441612 -0.05402005 -0.05362609 -0.05324143 -0.05286347 -0.05249105 -0.05212053 -0.05174509 -0.05136651 -0.05098165
 -0.05060052 -0.05022863 -0.04987336 -0.04954225 -0.04922654 -0.04892721 -0.0486258 -0.04831828 -0.04799568 -0.04765552
 -0.04730232 -0.04693601 -0.04656621 -0.04619354 -0.04583055 -0.045478 -0.04514863 -0.04484141 -0.04455966 -0.04429954
 -0.04405222 -0.04381328 -0.04356975 -0.04331949 -0.04305327 -0.04277353 -0.04247805 -0.04217365 -0.04186466 -0.04155408
 -0.0412457 -0.04093462 -0.04061887 -0.04030053 -0.03997719 -0.03966821 -0.03937607 -0.03911285 -0.03888082 -0.0386573
 -0.03844072 -0.0381928 -0.03791459 -0.03759644 -0.03724605 -0.03689352 -0.03654574 -0.03624092 -0.03597536 -0.03576329
 -0.03558946 -0.03543982 -0.03529901 -0.03514463 -0.03497645 -0.03478498 -0.03458318 -0.03437497 -0.03416892 -0.03397
 -0.03377485 -0.03358392 -0.03339144 -0.03319664 -0.03299651 -0.03279081 -0.03257691 -0.03235484 -0.03212696 -0.03189401
 -0.03166436 -0.0314374 -0.03121559 -0.03099587 -0.03076931 -0.03053618 -0.03029037 -0.03003946 -0.02979076 -0.02955258
 -0.02933715 -0.02914437 -0.02897957 -0.02883457 -0.02870725 -0.02858996 -0.02847925 -0.02837382 -0.02827268 -0.02817716
 -0.0280878 -0.02800098 -0.02791668 -0.02782628 -0.0277294 -0.02762069 -0.02750055 -0.02737026 -0.02723054 -0.02708508
 -0.02693502 -0.02678475 -0.02663706 -0.02649967 -0.02637464 -0.02627048 -0.02618097 -0.0261063 -0.02603046 -0.02594212
 -0.02583252 -0.02568957 -0.02553134 -0.02535749 -0.02520079 -0.02507006 -0.02497442 -0.02491921 -0.0248777 -0.0248483
 -0.02480669 -0.02475246 -0.02469997 -0.02465167 -0.02463856 -0.02465749 -0.02471155 -0.02479116 -0.02486803 -0.02493673
 -0.02497026 -0.02497342 -0.02494006 -0.02488074 -0.02480327 -0.02471694 -0.02463107 -0.02454858 -0.02447447 -0.02440349
 -0.02433505 -0.02426394 -0.02418695 -0.02411334 -0.02404232 -0.02399723 -0.02398004 -0.02400521 -0.02407291 -0.02416885
 -0.02429055 -0.02440738 -0.02451969 -0.02461207 -0.02468895 -0.02475777 -0.02481799 -0.02487452 -0.02491898 -0.02493913
 -0.02493478 -0.02489552 -0.02484144 -0.02478157 -0.0247369 -0.02472414 -0.02473689 -0.02478029 -0.02482791 -0.02487387
 -0.02490598 -0.0249196 -0.02492956 -0.02493623 -0.02496129 -0.02500567 -0.02507832 -0.02517831 -0.02530097 -0.02544353
 -0.02559141 -0.02573954 -0.0258648 -0.02596317 -0.02601192 -0.02601784 -0.02597616 -0.02590871 -0.02583431 -0.02577398
 -0.02575269 -0.02576582 -0.02582285 -0.02589401 -0.02597157 -0.02603363 -0.02607124 -0.02609055 -0.02609081 -0.026084
 -0.026072 -0.02604389 -0.02599898 -0.02591502 -0.02579343 -0.02563802 -0.02545636 -0.02528874 -0.02514187 -0.0250615
 -0.02504159 -0.02509644 -0.02520462 -0.02534298 -0.02548783 -0.02560306 -0.02568531 -0.02571411 -0.02571716 -0.02569763
 -0.02569804 -0.02573357 -0.02582961 -0.02599869 -0.02622738 -0.02651916 -0.02682755 -0.02714968 -0.0274371 -0.0276876
 -0.02788311 -0.02802579 -0.02813154 -0.02820339 -0.02826613 -0.02831853 -0.02836963 -0.02841673 -0.02845556 -0.02849157
 -0.02852688 -0.02857862 -0.02866436 -0.0287994 -0.02900419 -0.02927207 -0.02961095 -0.0299887 -0.03039924 -0.03080522
 -0.03119679 -0.0315535 -0.0318699 -0.03214585 -0.03238021 -0.032586 -0.03276399 -0.03293522 -0.03310056 -0.03327804
 -0.03346519 -0.03365957 -0.03385575 -0.03403252 -0.0341914 -0.03432092 -0.03443617 -0.03455354 -0.03468936 -0.03487105
 -0.03509499 -0.03537368 -0.03567762 -0.03599916 -0.03630137 -0.03656871 -0.03678487 -0.03693871 -0.03705196 -0.03712283
 -0.03720006 -0.03728753 -0.03742429 -0.03761216 -0.03785184 -0.03814059 -0.03844808 -0.03877159 -0.03908045 -0.03937533
 -0.03964175 -0.03988284 -0.04009759 -0.04029087 -0.04046875 -0.0406375 -0.04080594 -0.04097831 -0.04116124 -0.04135364
 -0.04155721 -0.04176785 -0.04198464 -0.04220385 -0.04242449 -0.04264416 -0.04286227 -0.04307843 -0.04329241 -0.04350663
 -0.0437212 -0.04393875 -0.04415915 -0.0443817 -0.04460585 -0.04482822 -0.04504852 -0.04526371 -0.04547439 -0.04567982
 -0.04588219 -0.04608415 -0.04628862 -0.04650024 -0.04671906 -0.04694811 -0.04718139 -0.04741715 -0.0476489 -0.04787255
 -0.04809117 -0.04830347 -0.04852049 -0.04874423 -0.0489782 -0.04922366 -0.04946909 -0.04971394 -0.0499465 -0.05016724
 -0.05037851 -0.05058141 -0.05078405 -0.05098546 -0.05118623 -0.05138559 -0.05158044 -0.05177473 -0.0519727 -0.05217934
 -0.05240379 -0.05264241 -0.05289931 -0.05315704 -0.05341068 -0.05363595 -0.05382217 -0.05395888 -0.05403643 -0.05408153
 -0.05409244 -0.05412807 -0.05419341 -0.05433527 -0.05455614 -0.0548484 -0.05520759 -0.05557761 -0.05595329 -0.05627449
 -0.05654428 -0.05673708 -0.05686825 -0.05695662 -0.05702417 -0.05711537 -0.05724007 -0.0574329 -0.05767419 -0.05796564
 -0.05826977 -0.05856549 -0.05883581 -0.05906485 -0.05927075 -0.05945453 -0.05963573 -0.0598208 -0.05999504 -0.06015915
 -0.06027642 -0.06034491 -0.06035175 -0.06030029 -0.06022763 -0.06014131 -0.06010563 -0.06012115 -0.06022884 -0.06041365
 -0.06066435 -0.06095868 -0.0612538 -0.06154175 -0.06179274 -0.06202035 -0.0622259 -0.06242105 -0.06261703 -0.06280236
 -0.06297634 -0.06312399 -0.06323717 -0.06333203 -0.06340733 -0.06349932 -0.06361263 -0.06375381 -0.06392343 -0.06408501
 -0.0642368 -0.06434483 -0.0644136 -0.06445151 -0.06446645 -0.06449263 -0.06453027 -0.0645992 -0.06469037 -0.06479768
 -0.06491376 -0.06502502 -0.06513634 -0.06524368 -0.06536421 -0.06550544 -0.0656818 -0.06590376 -0.06616326 -0.06646506
 -0.06677332 -0.06708498 -0.06735812 -0.06758732 -0.06775945 -0.06787343 -0.06796192 -0.06802833 -0.0681277 -0.06825983
 -0.06845538 -0.06870358 -0.06898419 -0.06928279 -0.06955247 -0.06979179 -0.06997316 -0.07011228 -0.07021511 -0.07029962
 -0.07038368 -0.07047245 -0.07057536 -0.07068539 -0.07080299 -0.07091706 -0.07102498 -0.07111873 -0.07119528 -0.07126043
 -0.07131322 -0.0713767 -0.07145216 -0.07155906 -0.07169648 -0.07185555 -0.07203301 -0.07220257 -0.07236636 -0.0725163
 -0.07266059 -0.07281697 -0.07298645 -0.07318264 -0.07339287 -0.07360836 -0.07381688 -0.07400325 -0.07416922 -0.07431122
 -0.07443474 -0.07454348 -0.07463053 -0.07469568 -0.07472793 -0.07472349 -0.07469003 -0.07462623 -0.07456265 -0.07450092
 -0.07447451 -0.07448398 -0.07454454 -0.07465337 -0.07480216 -0.07498574 -0.07518186 -0.07538512 -0.07557195 -0.07573815
 -0.07586634 -0.07595453 -0.07599305 -0.0759838 -0.07592342 -0.07582016 -0.07567541 -0.0755038 -0.07530907 -0.07511004
 -0.07491105 -0.07473031 -0.07457229 -0.07444227 -0.07434309 -0.07425248 -0.07416952 -0.07404841 -0.07388742 -0.07365078
 -0.07334291 -0.07297155 -0.07254716 -0.07211355 -0.07167634 -0.07127422 -0.07090037 -0.07056186 -0.07024737 -0.06994446
 -0.06965059 -0.06935769 -0.06907235 -0.06879735 -0.0685334 -0.06828394 -0.06803721 -0.06779079 -0.0675358 -0.06726813
 -0.06700002 -0.06673115 -0.06648697 -0.06626905 -0.06609008 -0.0659495 -0.06583855 -0.0657569 -0.06569666 -0.06566139
 -0.06566198 -0.06569879 -0.06578382 -0.06590187 -0.06603689 -0.06616333 -0.06624217 -0.06626356 -0.06619954 -0.06607188
 -0.06588167 -0.06566174 -0.06542768 -0.06518911 -0.06495497 -0.06470784 -0.06444672 -0.06415223 -0.06382132 -0.06345259
 -0.06304558 -0.06261685 -0.06216796 -0.06172558 -0.06129095 -0.06088709 -0.06051072 -0.06016403 -0.05983767 -0.05950868
 -0.05917161 -0.05879945 -0.05841044 -0.05800254 -0.0576335 -0.05733642 -0.05720001 -0.0572801 -0.05764613 -0.05835093
 -0.05937315 -0.06073773 -0.06230544 -0.06406853 -0.06583247 -0.06757665 -0.06915825 -0.07056626 -0.07176818 -0.07276683
 -0.07361107 -0.07430678 -0.07491668 -0.07544225 -0.0759218 -0.07635505 -0.07675936 -0.0771368 -0.07749863 -0.07784667
 -0.07818909 -0.07852173 -0.07884537 -0.07915092 -0.07943334 -0.07968646 -0.07990568 -0.08009229 -0.08024543 -0.08036884
 -0.08046319 -0.08053001 -0.0805696 -0.08058162 -0.08056603 -0.08052304 -0.08045308 -0.08036191 -0.08025215 -0.08014322
 -0.08004005 -0.07997318 -0.07994428 -0.07997598 -0.08006053 -0.08019746 -0.080371 -0.08056321 -0.08075754 -0.0809349
 -0.08108235 -0.08118753 -0.08124291 -0.08124268 -0.08118417 -0.08106624 -0.08088481 -0.08063965 -0.08032227 -0.07992992
 -0.07947487 -0.07895626 -0.07845497 -0.07797944 -0.07768581 -0.07758263 -0.07781567 -0.07836655 -0.07925461 -0.08042447
 -0.08174881 -0.08316784 -0.08451061 -0.0857596 -0.08681441 -0.08770983 -0.08843721 -0.08904774 -0.08957092 -0.0900357
 -0.09046246 -0.09085645 -0.0912226 -0.09156185 -0.09187464 -0.09216417 -0.09243104 -0.09267465 -0.09289501 -0.09308977
 -0.09325926 -0.09340957 -0.09354246 -0.09367421 -0.09380522 -0.09394778 -0.09409688 -0.09424686 -0.09438963 -0.09450606
 -0.09459608 -0.09464759 -0.09467589 -0.09468759 -0.09470364 -0.09474055 -0.09480347 -0.09490296 -0.09501927 -0.09515142
 -0.09527038 -0.09536969 -0.09543724 -0.09546911 -0.09548059 -0.09547213 -0.09546999 -0.09547482 -0.0954975 -0.095536
 -0.09558003 -0.09562843 -0.09566908 -0.09570646 -0.09574586 -0.09579326 -0.09586435 -0.09595665 -0.0960767 -0.09621074
 -0.09635044 -0.09648028 -0.09658758 -0.09666669 -0.09671042 -0.09672565 -0.09671104 -0.09668267 -0.09664211 -0.09660899
 -0.09658589 -0.09658469 -0.09660669 -0.09664713 -0.09670538 -0.09676716 -0.09683238 -0.0968937 -0.09695237 -0.09701052
 -0.0970676 -0.09712388 -0.09717663 -0.09722015 -0.0972545 -0.09727622 -0.09728988 -0.09729853 -0.09730519 -0.09731368
 -0.09732123 -0.09732739 -0.0973304 -0.0973283 -0.09732743 -0.09732821 -0.09733894 -0.09736133 -0.09739346 -0.0974356
 -0.09747531 -0.09751204 -0.09753577 -0.09754734 -0.0975484 -0.097541 -0.09753491 -0.09753115 -0.09753838 -0.09755459
 -0.09758122 -0.09761266 -0.09764267 -0.09766561 -0.09767225 -0.09766595 -0.097643 -0.09761882 -0.09759848 -0.09759576
 -0.09761792 -0.09766103 -0.09772748 -0.0977985 -0.09787221 -0.09793376 -0.09798168 -0.09801593 -0.09803686 -0.09805386
 -0.09806743 -0.09808607 -0.09810895 -0.09813724 -0.09816916 -0.09820006 -0.09822936 -0.09825291 -0.09827317 -0.09829126
 -0.09831072 -0.09833576 -0.09836679 -0.09840606 -0.09845037 -0.09849894 -0.09854884 -0.09859888 -0.09864824 -0.09869675
 -0.09874296 -0.09878699 -0.09882466 -0.09885572 -0.09887667 -0.09888753 -0.09888966 -0.09888341 -0.09887213 -0.09885567
 -0.09883492 -0.09880974 -0.09877931 -0.09874552 -0.09871086 -0.09867883 -0.09865503 -0.09864221 -0.09864512 -0.09866425
 -0.09870201 -0.0987553 -0.09882491 -0.09890164 -0.09898413 -0.09905984 -0.09912609 -0.09917483 -0.09920405 -0.09921636
 -0.09921156 -0.09919965 -0.09918119 -0.09916668 -0.09915622 -0.0991558 -0.09916433 -0.09918057 -0.09920252 -0.09922365
 -0.09924313 -0.09925558 -0.09926278 -0.09926455 -0.09926385 -0.09926334 -0.09926534 -0.09927226 -0.0992848 -0.09930457
 -0.09932855 -0.09935697 -0.09938306 -0.09940548 -0.09941962 -0.09942409 -0.09942259 -0.09941506 -0.09941082 -0.09941022
 -0.09941857 -0.09943524 -0.09945735 -0.09948391 -0.09950851 -0.09953175 -0.0995515 -0.09957 -0.09959102 -0.0996153
 -0.09964635 -0.09968151 -0.09971979 -0.099758 -0.09979317 -0.09982554 -0.09985433 -0.09988103 -0.0999066 -0.0999289
 -0.09994818 -0.09995919 -0.09996112 -0.09995216 -0.0999319 -0.09990566 -0.09987389 -0.09984662 -0.09982412 -0.09981334
 -0.09981304 -0.09982159 -0.09983668 -0.09985039 -0.09986216 -0.09986629 -0.09986541 -0.09986065 -0.09985485 -0.09985178
 -0.09985115 -0.09985436 -0.099859 -0.09986397 -0.09986881 -0.09987279 -0.0998778 -0.09988436 -0.09989256 -0.09990286
 -0.09991128 -0.09991758 -0.09991785 -0.09991203 -0.09990065 -0.09988401 -0.09986522 -0.09984429 -0.09982267 -0.09980082
 -0.09978042 -0.09976298 -0.09975284 -0.09974975 -0.09975657 -0.09976862 -0.09978227 -0.09979414 -0.09979929 -0.09980185
 -0.09980208 -0.0998055 -0.09981551 -0.0998276 -0.09984223 -0.09984962 -0.09984777 -0.09983745 -0.09981822 -0.09980056
 -0.09978479 -0.09977433 -0.09976816 -0.09975774 -0.09974281 -0.0997167 -0.09968234 -0.09964512 -0.09960779 -0.09957951
 -0.09955877 -0.09954796 -0.09954294 -0.09954024 -0.09953758 -0.09953187 -0.0995239 -0.0995131 -0.09950122 -0.09948871
 -0.09947691 -0.09946642 -0.09945668 -0.09944802 -0.09943654 -0.09942201 -0.09939992 -0.09937016 -0.09933289 -0.09928881
 -0.09924452 -0.09920073 -0.0991646 -0.09913562 -0.09911619 -0.0991052 -0.09910146 -0.09910428 -0.09911266 -0.09912472
 -0.09913903 -0.09915175 -0.09915973 -0.09916081 -0.09915178 -0.09913761 -0.09911814 -0.09910276 -0.09909368 -0.09909575
 -0.09911071 -0.09913351 -0.09916423 -0.0991917 -0.09921541 -0.09922706 -0.09922706 -0.09921569 -0.09919436 -0.09917016
 -0.09914368 -0.09912086 -0.09910025 -0.09908158 -0.09906358 -0.09904347 -0.09902298 -0.09900238 -0.09898479 -0.09897314
 -0.09896709 -0.09896813 -0.09897181 -0.09897739 -0.09897991 -0.09897806 -0.09896953 -0.09895358 -0.09893119 -0.0989022
 -0.09887071 -0.09883695 -0.09880625 -0.09877865 -0.09875681 -0.09874018 -0.09872744 -0.0987178 -0.09870794 -0.09869751
 -0.09868407 -0.09866775 -0.09864768 -0.09862413 -0.09859683 -0.09856659 -0.09853335 -0.09849959 -0.0984661 -0.09843627
 -0.09841159 -0.0983931 -0.09838174 -0.09837484 -0.09837228 -0.09837073 -0.09836988 -0.09836844 -0.09836632 -0.09836324
 -0.09835921 -0.09835443 -0.09834893 -0.09834322 -0.09833692 -0.09832937 -0.09831963 -0.09830517 -0.098286 -0.0982608
 -0.09823069 -0.09819663 -0.09815872 -0.0981174 -0.09807225 -0.09802207 -0.0979709 -0.09791894 -0.09787361 -0.09783719
 -0.09781098 -0.09779629 -0.09778542 -0.09777787 -0.09776664 -0.09775145 -0.09773292 -0.09771137 -0.09769048 -0.09766999
 -0.09765037 -0.09763122 -0.09761109 -0.09759057 -0.09757019 -0.09755065 -0.09753402 -0.09751861 -0.09750427 -0.09748685
 -0.09746297 -0.097431 -0.09738769 -0.09733901 -0.09728537 -0.09723599 -0.09719368 -0.09716032 -0.09713748 -0.09711702
 -0.09709853 -0.0970728 -0.09703942 -0.09699766 -0.09694829 -0.09689915 -0.09685133 -0.09681477 -0.09678946 -0.0967807
 -0.09678762 -0.09681053 -0.09684961 -0.0969044 -0.09697788 -0.09707243 -0.09719195 -0.09734072 -0.09751854 -0.09772766
 -0.09796219 -0.09822083 -0.09849766 -0.09878945 -0.09910252 -0.09943629 -0.09980677 -0.1002165 -0.1006586 -0.1011321
 -0.1015697 -0.1019655 -0.1022247 -0.1023512 -0.1023107 -0.102123 -0.1018364 -0.1014634 -0.101056 -0.1006163
 -0.1001649 -0.09971574 -0.09928869 -0.09890104 -0.09857175 -0.09830956 -0.09812276 -0.09801786 -0.09799972 -0.09806792
 -0.09822997 -0.09844492 -0.0987149 -0.09894583 -0.09912889 -0.09920674 -0.09917671 -0.09907673 -0.09891108 -0.09874227
 -0.09856953 -0.09842175 -0.09829282 -0.09817781 -0.0980714 -0.09795831 -0.09783866 -0.09770632 -0.09756194 -0.09740523
 -0.09723296 -0.09704085 -0.09683296 -0.09660603 -0.09638036 -0.09616123 -0.09596808 -0.09580857 -0.09568106 -0.09558816
 -0.09551132 -0.09544957 -0.09538176 -0.09530676 -0.09521107 -0.09509528 -0.09496134 -0.09481192 -0.09466294 -0.0945164
 -0.09438848 -0.094277 -0.09418593 -0.09411012 -0.0940432 -0.09398138 -0.09391728 -0.09385171 -0.09378238 -0.09371267
 -0.09364431 -0.0935777 -0.09351447 -0.09344921 -0.09338082 -0.0933056 -0.09322181 -0.09313613 -0.09304863 -0.09297117
 -0.09290434 -0.09284996 -0.09280722 -0.09276601 -0.09272604 -0.09267972 -0.09262917 -0.09257779 -0.09252758 -0.09248578
 -0.09245067 -0.09242336 -0.0924 -0.09237645 -0.0923508 -0.09231972 -0.0922844 -0.09224465 -0.09220158 -0.09215581
 -0.09210684 -0.09205446 -0.09199952 -0.09194168 -0.09188569 -0.09183193 -0.09178432 -0.09174309 -0.09170604 -0.09167279
 -0.09163749 -0.09160011 -0.09155739 -0.09150951 -0.09145534 -0.09139498 -0.09132734 -0.0912542 -0.0911768 -0.09109978
 -0.09102867 -0.09096697 -0.09092056 -0.09088621 -0.09086518 -0.09084867 -0.09083404 -0.09081391 -0.09078532 -0.09074804
 -0.09070101 -0.09064999 -0.09059539 -0.0905425 -0.09049164 -0.09044297 -0.09039628 -0.09034822 -0.09029903 -0.09024812
 -0.09019668 -0.09014878 -0.09010494 -0.09006912 -0.0900392 -0.0900142 -0.08999032 -0.08996248 -0.08992951 -0.08988781
 -0.08984082 -0.08978909 -0.08973696 -0.08968683 -0.08963824 -0.08959204 -0.0895442 -0.08949398 -0.08944017 -0.08938228
 -0.08932434 -0.08926658 -0.08921439 -0.08916786 -0.08912946 -0.0890985 -0.0890727 -0.08905059 -0.08902565 -0.08899701
 -0.08895839 -0.0889122 -0.08885854 -0.08880289 -0.08875202 -0.08870833 -0.0886778 -0.08865444 -0.08863773 -0.08861829
 -0.08859149 -0.08855591 -0.08850882 -0.08845934 -0.08840825 -0.08836502 -0.08833108 -0.08830661 -0.08829169 -0.08827819
 -0.08826558 -0.08824482 -0.08821605 -0.088175 -0.08812328 -0.08806397 -0.08799975 -0.08793888 -0.08788247 -0.08783713
 -0.08779977 -0.08776999 -0.08774304 -0.08771424 -0.08768304 -0.08764688 -0.08760998 -0.08757358 -0.08753993 -0.08751068
 -0.0874819 -0.08745345 -0.08742004 -0.0873808 -0.08733666 -0.08728758 -0.08724152 -0.08719879 -0.08716641 -0.08714336
 -0.08712756 -0.08711654 -0.08709984 -0.08707663 -0.0870384 -0.08698865 -0.08692849 -0.08686396 -0.08680302 -0.08674847
 -0.0867065 -0.08667357 -0.08665022 -0.08662983 -0.0866098 -0.08658648 -0.08655799 -0.086525 -0.08648719 -0.08644679
 -0.08640403 -0.08635997 -0.08631468 -0.08626857 -0.08622172 -0.08617559 -0.08613033 -0.0860878 -0.0860478 -0.08601075
 -0.08597583 -0.0859411 -0.08590633 -0.08586987 -0.08583279 -0.08579595 -0.08575945 -0.08572473 -0.08568812 -0.08564804
 -0.08560137 -0.08554494 -0.08548412 -0.08541851 -0.08535934 -0.08530902 -0.08527096 -0.08524662 -0.08522594 -0.08520844
 -0.0851822 -0.08514723 -0.08510198 -0.08504776 -0.08499252 -0.08493716 -0.08488988 -0.08484953 -0.08481798 -0.08479223
 -0.08476799 -0.08474275 -0.08471099 -0.08467403 -0.08463036 -0.08458416 -0.08453783 -0.08449269 -0.08445074 -0.08440821
 -0.08436458 -0.08431613 -0.08426158 -0.084203 -0.08414017 -0.08407912 -0.08402023 -0.0839679 -0.08392207 -0.08388206
 -0.08384737 -0.08381398 -0.08378173 -0.08374748 -0.0837121 -0.08367605 -0.08364069 -0.08360898 -0.08358079 -0.08355792
 -0.0835375 -0.083518 -0.08349636 -0.08346973 -0.08343894 -0.08340292 -0.08336604 -0.08332954 -0.08329502 -0.08326355
 -0.08323111 -0.08319744 -0.0831586 -0.08311424 -0.08306573 -0.0830133 -0.08296087 -0.08290842 -0.08285795 -0.08280911
 -0.08276159 -0.08271518 -0.08266929 -0.08262368 -0.08257788 -0.08253132 -0.08248327 -0.08243297 -0.08237942 -0.08232265
 -0.08226176 -0.0821995 -0.08213608 -0.08207651 -0.08202223 -0.08197626 -0.08193998 -0.0819106 -0.08188829 -0.08186692
 -0.08184613 -0.08182079 -0.08179076 -0.0817536 -0.08170959 -0.08165919 -0.0816033 -0.08154552 -0.08148684 -0.08143196
 -0.08138052 -0.08133443 -0.08129188 -0.08125165 -0.08121136 -0.08116838 -0.08112181 -0.08106967 -0.08101452 -0.08095647
 -0.08089969 -0.08084593 -0.08079487 -0.08074749 -0.08069742 -0.08064402 -0.08058324 -0.08051465 -0.08044241 -0.08036689
 -0.08029532 -0.08022753 -0.08016613 -0.08011015 -0.08005719 -0.08000629 -0.07995354 -0.07989895 -0.07984047 -0.07977945
 -0.07971665 -0.07965358 -0.07959227 -0.07953206 -0.07947342 -0.07941462 -0.0793547 -0.07929399 -0.07923218 -0.0791708
 -0.07911026 -0.07905028 -0.07899091 -0.07893096 -0.07887036 -0.07880946 -0.07874832 -0.07868753 -0.07862685 -0.07856471
 -0.07850083 -0.07843275 -0.07836141 -0.07828736 -0.07821319 -0.07814369 -0.07808103 -0.07803097 -0.07799137 -0.07796406
 -0.0779411 -0.07791898 -0.07788932 -0.07784679 -0.07779111 -0.07771994 -0.07764096 -0.07755493 -0.07746956 -0.07738601
 -0.0773074 -0.07723407 -0.07716537 -0.07710123 -0.07703996 -0.07698163 -0.07692625 -0.07687408 -0.07682662 -0.07678353
 -0.07674532 -0.07670985 -0.07667405 -0.07663468 -0.07658606 -0.07652695 -0.07645274 -0.07636844 -0.07627444 -0.07618
 -0.07608956 -0.07600722 -0.07593638 -0.07587126 -0.07581168 -0.07575002 -0.07568497 -0.07561574 -0.07554208 -0.07546751
 -0.07539209 -0.07531678 -0.07524142 -0.07516504 -0.07508785 -0.0750104 -0.07493253 -0.07485428 -0.07477479 -0.07469202
 -0.07460648 -0.0745175 -0.07442729 -0.07433765 -0.07425017 -0.07416678 -0.07408666 -0.07401022 -0.07393522 -0.07386114
 -0.07378618 -0.0737097 -0.0736322 -0.07355349 -0.07347602 -0.07339996 -0.07332711 -0.0732575 -0.07319103 -0.0731278
 -0.07306852 -0.07301318 -0.07296271 -0.07291552 -0.07286838 -0.07281825 -0.07275711 -0.07268517 -0.07259772 -0.07250102
 -0.07239908 -0.072297 -0.07220032 -0.07210729 -0.07201923 -0.07193072 -0.07184011 -0.07174519 -0.07164466 -0.0715419
 -0.07143699 -0.07133479 -0.07123566 -0.07114179 -0.07105323 -0.07097078 -0.07089443 -0.07082491 -0.07076142 -0.07070146
 -0.07064279 -0.07057765 -0.07050501 -0.07041831 -0.07032022 -0.07021104 -0.07009491 -0.06997539 -0.06985633 -0.06974094
 -0.06963219 -0.06953274 -0.06944142 -0.06935939 -0.06928027 -0.06920343 -0.06912117 -0.06903221 -0.06893425 -0.06882685
 -0.06871443 -0.06859732 -0.06848248 -0.06836995 -0.06826338 -0.06816181 -0.06806288 -0.06796565 -0.06786589 -0.06776403
 -0.06765886 -0.06755115 -0.06744183 -0.06733026 -0.06721594 -0.06709915 -0.06697937 -0.06685885 -0.06673867 -0.06661945
 -0.06650214 -0.06638392 -0.0662643 -0.06614178 -0.06601588 -0.06588817 -0.06575873 -0.06562903 -0.06549909 -0.06536834
 -0.06523653 -0.06510148 -0.06496289 -0.06481766 -0.06466681 -0.06451111 -0.06435293 -0.06419779 -0.06404581 -0.06390033
 -0.06375826 -0.0636178 -0.06347673 -0.06333256 -0.06318613 -0.06303723 -0.06288676 -0.06273509 -0.06258208 -0.06242771
 -0.06227218 -0.06211573 -0.06195611 -0.06179327 -0.06162186 -0.06144181 -0.06125423 -0.06105978 -0.06086535 -0.06067024
 -0.06047527 -0.06027843 -0.06007396 -0.05986131 -0.05963601 -0.05940007 -0.05915398 -0.05890089 -0.05864366 -0.05838543
 -0.05813008 -0.05787574 -0.0576247 -0.05736578 -0.05709623 -0.0568068 -0.0564927 -0.05616504 -0.0558238 -0.0554868
 -0.05515579 -0.05483195 -0.05451517 -0.05419872 -0.05388284 -0.0535678 -0.0532533 -0.05293962 -0.05262288 -0.05229145
 -0.05194276 -0.05156229 -0.0511597 -0.05074028 -0.05031877 -0.04991414 -0.0495266 -0.04916416 -0.04881605 -0.04847964
 -0.04814528 -0.0478095 -0.04746657 -0.04711585 -0.04674752 -0.04636154 -0.04593766 -0.0454739 -0.04496541 -0.044413
 -0.04385413 -0.04328992 -0.04274843 -0.04222347 -0.04169929 -0.04117172 -0.04061836 -0.04004309 -0.03944286 -0.03882312
 -0.03819411 -0.03754807 -0.03688763 -0.03618481 -0.03542268 -0.03457814 -0.0336245 -0.03259901 -0.03149752 -0.0304033
 -0.02933575 -0.02833288 -0.02740589 -0.0265372 -0.0257272 -0.02494194 -0.02417926 -0.02339368 -0.02258158 -0.02168451
 -0.02071085 -0.01965972 -0.01856238 -0.01752313 -0.01654144 -0.01567742 -0.01488941 -0.01414027 -0.01340478 -0.01263885
 -0.01184893 -0.01102583 -0.01018145 -0.009321534 -0.008444717 -0.007547779 -0.00664812 -0.005745498 -0.004875241 -0.004044108
 -0.003255223 -0.002509976 -0.001792367 -0.001102285 -0.0004535 0.0001521162 0.0006883254 0.001159184 0.001569718 0.001927695
 0.002261795 0.002571491 0.002872633 0.003153492 0.003400882 0.003614105 0.00378382 0.0039239 0.004041382 0.004145653
 0.004244821 0.004335793 0.004420663 0.00448861 0.00453772 0.004559934 0.004553304 0.004518403 0.004454574 0.004374512
 0.004278928 0.004183843 0.004088765 0.003994992 0.003901055 0.003799063 0.003690862 0.003575591 0.003461473 0.003364311
 0.003292999 0.003270192 0.00329188 0.00336287 0.003475856 0.003622308 0.003814391 0.004053939 0.004358388 0.004739118
 0.005180748 0.005684575 0.006219502 0.006779526 0.007361589 0.007964317 0.008601213 0.009272796 0.009984029 0.01073471
 0.0115244 0.01235326 0.01322314 0.01413213 0.01507547 0.01605054 0.0170477 0.01807018 0.01911728 0.0201963
 0.02131561 0.02247668 0.02368555 0.02493325 0.02621918 0.02752745 0.02885275 0.03018456 0.03151861 0.03285662
 0.03419925 0.03554118 0.03688342 0.03819493 0.03947396 0.04068324 0.04182113 0.04286021 0.0437958 0.04458955
 0.04523692 0.04569757 0.04598315 0.04609581 0.04605588 0.04589269 0.04562531 0.04528026 0.04488058 0.04445353
 0.04400164 0.04354862 0.04302902 0.04244542 0.04165326 0.0406122 0.03927058 0.03758369 0.03583078 0.03403201
 0.03239783 0.030936 0.02955139 0.02823737 0.02688989 0.02551737 0.02411257 0.02268397 0.02126479 0.01983538
 0.01838601 0.01685343 0.01513011 0.01319474 0.01092864 0.008511903 0.006033423 0.003645519 0.001489304 -0.000528466
 -0.002409082 -0.004245673 -0.006074789 -0.007860677 -0.009607044 -0.0112407 -0.01275294 -0.01414254 -0.01540976 -0.01660702
 -0.01773581 -0.01883098 -0.01988811 -0.02090192 -0.02186741 -0.02276362 -0.02359277 -0.0243469 -0.02503639 -0.02567201
 -0.02626645 -0.02683547 -0.02739226 -0.02794727 -0.02852163 -0.02912847 -0.02978146 -0.03050289 -0.03122823 -0.03195576
 -0.03257761 -0.03306819 -0.03344157 -0.03369345 -0.03390161 -0.03406971 -0.03423943 -0.03440967 -0.03458117 -0.03475161
 -0.0349089 -0.03505325 -0.03518137 -0.03528954 -0.0353715 -0.03541479 -0.03539629 -0.03531076 -0.03513827 -0.03489583
 -0.03458794 -0.03423513 -0.03385056 -0.03344044 -0.0330114 -0.03255726 -0.03208063 -0.03155928 -0.03099328 -0.03033924
 -0.02959226 -0.02873424 -0.02776485 -0.02677208 -0.02576369 -0.02486309 -0.02406447 -0.02339933 -0.02285526 -0.02240646
 -0.02204721 -0.02175557 -0.02152191 -0.02132902 -0.02115002 -0.02095544 -0.02070801 -0.02036273 -0.01992583 -0.01937193
 -0.01878101 -0.01817887 -0.01760793 -0.01709217 -0.01659519 -0.01611653 -0.01560952 -0.01506865 -0.01448218 -0.01384947
 -0.01319944 -0.01253376 -0.01188347 -0.01124444 -0.01061183 -0.00997546 -0.009296442 -0.008571807 -0.007768502 -0.006906547
 -0.006001806 -0.005075131 -0.004163299 -0.003253617 -0.002351234 -0.001431781 -0.000478868 0.0005040643 0.001524515 0.002552347
 0.003582359 0.004589301 0.005567933 0.006509791 0.007414433 0.008266409 0.009064748 0.009764517 0.01036255 0.0108066
 0.01109653 0.01120552 0.0111343 0.01087224 0.01041721 0.00975763 0.008895162 0.007821938 0.006555745 0.005105467
 0.003509524 0.001794941 4.427583E-06 -0.001831602 -0.003693565 -0.005567088 -0.007450056 -0.009345739 -0.01121992 -0.01307393
 -0.0148307 -0.0164823 -0.01798637 -0.01934033 -0.02057379 -0.02168941 -0.0227305 -0.02369494 -0.02459214 -0.02541767
 -0.02615847 -0.0268176 -0.02739266 -0.0278958 -0.0283434 -0.02875056 -0.02913953 -0.02952241 -0.02991674 -0.03032433
 -0.03075355 -0.03119168 -0.03163772 -0.03207326 -0.03249283 -0.03288895 -0.03325818 -0.03360941 -0.03394292 -0.03427009
 -0.0345916 -0.03490092 -0.03519632 -0.03545218 -0.03566756 -0.0358227 -0.03592074 -0.03596226 -0.03595059 -0.03589387
 -0.03579377 -0.03565541 -0.03548269 -0.03527997 -0.03505616 -0.03481688 -0.03457711 -0.03434381 -0.03413588 -0.03396112
 -0.03383368 -0.03375933 -0.03374056 -0.03377943 -0.03386947 -0.03401068 -0.03419198 -0.03441278 -0.0346562 -0.03492105
 -0.03518796 -0.03545565 -0.03570711 -0.03594097 -0.03614315 -0.03631347 -0.03644321 -0.03653617 -0.03659376 -0.03662201
 -0.03662891 -0.03661681 -0.03659057 -0.0365493 -0.03649294 -0.03642341 -0.03634048 -0.03624973 -0.03615257 -0.03605252
 -0.03595034 -0.03584788 -0.0357451 -0.03564699 -0.03555381 -0.03547272 -0.03540392 -0.03535176 -0.03531574 -0.03529523
 -0.03528903 -0.03529289 -0.03530528 -0.0353203 -0.03533733 -0.03535227 -0.03536637 -0.035379 -0.03539304 -0.03541035
 -0.03543392 -0.03546635 -0.0355076 -0.03555951 -0.03561588 -0.03567652 -0.03573094 -0.0357775 -0.03580822 -0.03582191
 -0.03581699 -0.03579329 -0.03575336 -0.03569742 -0.03562894 -0.0355483 -0.03545944 -0.03536273 -0.03526183 -0.0351566
 -0.03504901 -0.03493757 -0.03482134 -0.03469723 -0.03456153 -0.03441145 -0.03424253 -0.03405682 -0.03385216 -0.03363867
 -0.03341805 -0.03320487 -0.03300316 -0.03282236 -0.03266557 -0.03253077 -0.03241858 -0.03231934 -0.0322325 -0.03215035
 -0.03207291 -0.03199909 -0.03192931 -0.03186572 -0.03180828 -0.03175799 -0.03171432 -0.03167656 -0.03164416 -0.03161566
 -0.03159128 -0.03157032 -0.03155421 -0.03154372 -0.03154064 -0.03154614 -0.03156153 -0.03158724 -0.03162541 -0.03167676
 -0.03174242 -0.0318238 -0.0319134 -0.03201135 -0.03210191 -0.03218411 -0.03224921 -0.03229783 -0.03233898 -0.03237412
 -0.03241827 -0.03246994 -0.03253225 -0.03260125 -0.03266816 -0.03273129 -0.03278263 -0.03282495 -0.03285778 -0.03288582
 -0.03291299 -0.03294185 -0.03297533 -0.03301288 -0.03305494 -0.03310075 -0.03315023 -0.03320291 -0.03325916 -0.03331526
 -0.03337113 -0.03342037 -0.03346255 -0.03349448 -0.03351615 -0.03352808 -0.03352999 -0.03352018 -0.03349813 -0.03345999
 -0.03340733 -0.03334151 -0.03326602 -0.03318777 -0.03310864 -0.03303484 -0.03296341 -0.03289572 -0.03282294 -0.03274181
 -0.03264073 -0.03251423 -0.03235583 -0.03216127 -0.0319358 -0.03167855 -0.0314028 -0.03110958 -0.03081208 -0.03051121
 -0.03021547 -0.02992493 -0.02964103 -0.02936296 -0.02908586 -0.02880915 -0.02852776 -0.02824203 -0.02795023 -0.02765305
 -0.02734991 -0.02704399 -0.02673717 -0.02643731 -0.02615196 -0.02588538 -0.02564527 -0.02542144 -0.02521328 -0.0250049
 -0.02479029 -0.02456782 -0.02433474 -0.02410358 -0.02387549 -0.02365901 -0.0234549 -0.02325948 -0.02307231 -0.02288532
 -0.02269834 -0.02250658 -0.02231013 -0.02210729 -0.0218973 -0.02167747 -0.02144676 -0.02120125 -0.02094271 -0.02067064
 -0.02039012 -0.0201057 -0.0198196 -0.01953518 -0.01925012 -0.01896301 -0.01867705 -0.01839149 -0.01811635 -0.0178538
 -0.01760726 -0.01737798 -0.0171593 -0.01695083 -0.01674893 -0.01655358 -0.01636568 -0.01618463 -0.01600616 -0.01583012
 -0.01565224 -0.01547567 -0.01530684 -0.01514778 -0.01500742 -0.01488 -0.0147638 -0.01464769 -0.01452167 -0.01437749
 -0.01420572 -0.01400881 -0.01378301 -0.01354296 -0.01329164 -0.01304188 -0.01279846 -0.01255469 -0.01231131 -0.01205042
 -0.01177077 -0.01146522 -0.01113401 -0.01078328 -0.01041417 -0.01003645 -0.009652629 -0.009277421 -0.008914416 -0.008581593
 -0.008278666 -0.008013966 -0.007784334 -0.007587242 -0.00742556 -0.007299466 -0.00721632 -0.007182467 -0.0071959 -0.007260577
 -0.007359609 -0.007490892 -0.007632533 -0.007780557 -0.007918322 -0.008043179 -0.00814859 -0.008233838 -0.008300012 -0.008347088
 -0.008374929 -0.008382949 -0.00836631 -0.008325019 -0.008255707 -0.008160556 -0.008042629 -0.007906529 -0.007760494 -0.007612261
 -0.007474203 -0.007353942 -0.007263678 -0.00720331 -0.007177659 -0.007179494 -0.00720699 -0.007254301 -0.007319578 -0.007398691
 -0.007491201 -0.007590211 -0.007694599 -0.007802606 -0.007913817 -0.008036358 -0.008170447 -0.008320275 -0.008484435 -0.008653996
 -0.00882753 -0.008994011 -0.0091537 -0.009301757 -0.009438863 -0.009563114 -0.009677696 -0.009784001 -0.009890522 -0.01000406
 -0.01013472 -0.01029006 -0.010478 -0.01070293 -0.01097184 -0.01128815 -0.01165279 -0.012068 -0.01252287 -0.01301703
 -0.01353532 -0.01407672 -0.01462949 -0.01519287 -0.01575315 -0.01630912 -0.01684426 -0.01735879 -0.01784434 -0.01830285
 -0.01873596 -0.01914401 -0.01952861 -0.01988906 -0.02022462 -0.02053611 -0.02082387 -0.02108894 -0.02133186 -0.02155384
 -0.02175457 -0.02193885 -0.02210761 -0.02226634 -0.02241664 -0.02255907 -0.02269384 -0.02282129 -0.02294133 -0.02305823
 -0.02317209 -0.02328464 -0.02339515 -0.02349856 -0.02359429 -0.02367685 -0.02374655 -0.02380124 -0.0238419 -0.02386895
 -0.02388431 -0.02389123 -0.02388952 -0.02388179 -0.02386202 -0.02382701 -0.02377291 -0.02369441 -0.0236019 -0.02349553
 -0.02339331 -0.02329925 -0.0232219 -0.02316345 -0.02312083 -0.02309409 -0.02307679 -0.0230685 -0.02306065 -0.0230526
 -0.02303495 -0.02300793 -0.02296749 -0.02291449 -0.02284976 -0.02277284 -0.02268327 -0.02258047 -0.02246265 -0.02233194
 -0.02218869 -0.02203787 -0.02188215 -0.02172715 -0.02157632 -0.02143148 -0.02129502 -0.02116121 -0.02102949 -0.02089371
 -0.02075213 -0.02061015 -0.02046776 -0.02033795 -0.02022118 -0.02012357 -0.02004452 -0.01998164 -0.01993426 -0.01989888
 -0.01987409 -0.01985446 -0.0198381 -0.01981751 -0.01979497 -0.01976934 -0.01974636 -0.01973277 -0.01972699 -0.01973305
 -0.01973746 -0.01973616 -0.01971528 -0.01966821 -0.01959476 -0.01949185 -0.01937432 -0.01924317 -0.01911497 -0.01899136
 -0.01887479 -0.01876503 -0.01865071 -0.01853155 -0.01839978 -0.01825713 -0.01810778 -0.01795299 -0.01779895 -0.01764484
 -0.01749172 -0.01733905 -0.01718635 -0.01703371 -0.01688081 -0.01672849 -0.01657562 -0.0164285 -0.01628915 -0.01616442
 -0.01605958 -0.01596479 -0.01588137 -0.0157846 -0.01567065 -0.01552971 -0.01535962 -0.01518339 -0.01500243 -0.01484939
 -0.01472342 -0.01463248 -0.01457068 -0.01451515 -0.01446058 -0.0143775 -0.01426867 -0.01412346 -0.01395195 -0.01376329
 -0.0135668 -0.01337469 -0.01319243 -0.01302704 -0.01288125 -0.01275996 -0.01265576 -0.01257102 -0.01248122 -0.01238247
 -0.01225199 -0.01208396 -0.01188768 -0.01166229 -0.01144533 -0.01123842 -0.01106774 -0.01093102 -0.0108191 -0.01072743
 -0.01062858 -0.01052232 -0.01039238 -0.01024379 -0.0100785 -0.00990233 -0.00972407 -0.009548127 -0.009381769 -0.009227715
 -0.009091074 -0.008968657 -0.008862298 -0.008760463 -0.008660365 -0.008551691 -0.008431098 -0.008297467 -0.00815015 -0.007990154
 -0.007817514 -0.007631673 -0.007432998 -0.007234719 -0.007039602 -0.006880022 -0.006756188 -0.006690286 -0.006672136 -0.006685227
 -0.00671385 -0.006715992 -0.00668709 -0.006597874 -0.00646414 -0.006288033 -0.006093212 -0.005898783 -0.005711608 -0.005543257
 -0.005379518 -0.005217474 -0.005048919 -0.004868783 -0.004691171 -0.004516889 -0.004361786 -0.004227791 -0.004111908 -0.004013842
 -0.003921812 -0.003835602 -0.003749149 -0.003662179 -0.003570476 -0.003473053 -0.003363644 -0.003243892 -0.00311262 -0.002975777
 -0.002840884 -0.002713988 -0.002605591 -0.002513469 -0.002442938 -0.002377828 -0.002313414 -0.002231438 -0.002122244 -0.001988544
 -0.001826014 -0.001660113 -0.001493297 -0.001348485 -0.001228267 -0.001136574 -0.001073331 -0.001025707 -0.0009917747 -0.0009475772
 -0.0008922068 -0.0008055446 -0.0006940889 -0.0005656299 -0.0004309163 -0.0003192089 -0.0002294785 -0.0001765749 -0.0001452467 -0.000125219
 -0.0001051307 -7.255749E-05 -2.644914E-05 3.607462E-05 0.0001165899 0.0002162368 0.0003355701 0.0004763129 0.000629518 0.0007944892
 0.00096149 0.001129365 0.00129822 0.001468008 0.001639135 0.001810628 0.001972926 0.002124552 0.00225169 0.002356308
 0.002434656 0.002495614 0.002555258 0.002622962 0.002723317 0.002849957 0.003009603 0.003181363 0.003350395 0.003509555
 0.003647738 0.003779139 0.003907516 0.004037837 0.004174524 0.004302274 0.004418805 0.004518655 0.004600271 0.004679067
 0.004755776 0.004843581 0.004942339 0.005054874 0.005180961 0.005321309 0.005475496 0.005642854 0.005822466 0.006012607
 0.006211169 0.006416992 0.006620666 0.00681441 0.006983894 0.007113796 0.007205114 0.007249266 0.007270646 0.007273621
 0.007285574 0.007314198 0.007371491 0.007462007 0.007575931 0.007714238 0.007841458 0.007955796 0.008024054 0.00804913
 0.008048831 0.008031178 0.008050844 0.008106078 0.008222312 0.008387934 0.008588945 0.008818691 0.009062327 0.009313458
 0.009561714 0.00979813 0.01000747 0.01020464 0.0103852 0.01059437 0.01085264 0.011162 0.01153781 0.01190366
 0.01224807 0.0125378 0.01276672 0.01295815 0.01311307 0.01325095 0.01337225 0.013489 0.01360006 0.01370883
 0.01380826 0.01387744 0.01390939 0.01387529 0.0137803 0.013618 0.01340018 0.0131348 0.01283748 0.01251657
 0.01220104 0.01190676 0.01165486 0.01146199 0.01130946 0.01119791 0.01109744 0.01100079 0.01091425 0.01083703
 0.01078975 0.01077322 0.01078097 0.01081155 0.01084609 0.01088461 0.01091939 0.0109484 0.01096149 0.010955
 0.0109127 0.01084061 0.01073826 0.01061954 0.01049918 0.01038702 0.01029492 0.01022777 0.01019667 0.01018095
 0.0101838 0.01015039 0.01006492 0.009910346 0.009672662 0.009426956 0.009177 0.009010607 0.008932111 0.008950488
 0.009061691 0.009222007 0.009426381 0.009626018 0.009817417 0.009959413 0.01005968 0.01011222 0.01013324 0.01015075
 0.01016072 0.010174 0.01016932 0.01012697 0.01005653 0.009948263 0.009850119 0.009777074 0.009761651 0.009819552
 0.009936526 0.01011692 0.01031035 0.01051413 0.01066621 0.01076331 0.01078347 0.01073154 0.01066052 0.01057674
 0.01054815 0.01056567 0.01063515 0.0107424 0.01085522 0.01097185 0.01107769 0.01116847 0.01123705 0.0112718
 0.01125553 0.0112026 0.011109 0.01101492 0.01093529 0.01089023 0.01089136 0.01092356 0.01098836 0.01105387
 0.01111778 0.0111485 0.0111443 0.01110583 0.01103656 0.01098307 0.01094579 0.01095679 0.01100141 0.01104537
 0.01107586 0.01104018 0.01094915 0.01079238 0.01059557 0.01037979 0.01017519 0.01000915 0.009907749 0.009899187
 0.009967502 0.01012475 0.01030005 0.01048033 0.01060444 0.01065683 0.01063566 0.01053763 0.01039172 0.01019941
 0.009993619 0.009776803 0.009589836 0.009432508 0.009328947 0.009268807 0.009230007 0.009199899 0.009134705 0.009036148
 0.008882369 0.00869386 0.0084797 0.008274199 0.008105714 0.008000286 0.007988675 0.008046469 0.00818158 0.008324579
 0.008458775 0.008542638 0.008561855 0.008538496 0.00847192 0.008404605 0.008338931</values></Ydata></AB><ScSm><Ydata ylabel="Single channel"><values byteorder="INTEL" format="FLOAT32" numvalues="1814"> 0.07776312 0.07777235 0.07785345 0.078034 0.07828107 0.07852083 0.07869025 0.0787765 0.07880035 0.07877219
 0.07870035 0.07864161 0.07868955 0.07888354 0.07915062 0.07935414 0.07940214 0.0793298 0.07928231 0.0793739
 0.07953288 0.07952061 0.07915503 0.07851861 0.07790534 0.0775496 0.0774792 0.07768347 0.07825677 0.07912977
 0.07976882 0.07955922 0.07857986 0.07763142 0.07734774 0.0775891 0.07782136 0.07773114 0.07731904 0.07677917
 0.0765559 0.07722279 0.07891538 0.08086872 0.08169746 0.08027256 0.07652768 0.07170998 0.0679187 0.06697925
 0.06915516 0.07278584 0.0755339 0.0762489 0.07551143 0.07444373 0.07350273 0.07263865 0.07208063 0.07236674
 0.07360536 0.07498762 0.07521108 0.07359345 0.07088258 0.06872201 0.06815012 0.06895277 0.07054976 0.07262625
 0.07422817 0.07325593 0.06853667 0.06243205 0.05977377 0.06326382 0.07059038 0.07669225 0.07826072 0.07558583
 0.07107666 0.06727044 0.06588045 0.06733389 0.07069438 0.07443674 0.0773721 0.07870299 0.07781588 0.07481656
 0.07105754 0.06848526 0.06844693 0.07116096 0.07566714 0.07991666 0.08170965 0.0803207 0.07697429 0.07355064
 0.07135607 0.0711367 0.07325408 0.07730392 0.08209544 0.08634689 0.08921021 0.09035288 0.09002436 0.08889958
 0.08756814 0.08643778 0.0860891 0.08691402 0.08817527 0.08829159 0.08655924 0.08409455 0.08268645 0.08294819
 0.08382955 0.08389278 0.08276572 0.08090609 0.07818398 0.07385592 0.06828471 0.06339043 0.06072941 0.06031141
 0.06174858 0.06485985 0.06832327 0.06960701 0.06775082 0.06512299 0.06506833 0.06833895 0.07271609 0.07571213
 0.0768688 0.07757081 0.07926679 0.08199026 0.08418148 0.08386523 0.08061051 0.07662646 0.07519723 0.07745653
 0.0812991 0.08396961 0.08496501 0.0857189 0.08709803 0.0880622 0.08675215 0.08270112 0.07802065 0.07609631
 0.07863563 0.08395168 0.08818625 0.08816689 0.08354291 0.07685608 0.07155938 0.06963055 0.07104815 0.07511096
 0.08120325 0.08810364 0.09367146 0.09604858 0.09501611 0.09188035 0.08798136 0.08345327 0.07794627 0.07270043
 0.07078607 0.07419743 0.08130336 0.0882117 0.09224084 0.0932516 0.09212954 0.08912863 0.08412639 0.07822718
 0.07428266 0.07467246 0.07843609 0.08182457 0.08222884 0.08055559 0.0792871 0.07938662 0.07994801 0.08010757
 0.08027378 0.0814313 0.08373424 0.08613715 0.08741087 0.08726421 0.08638777 0.08564714 0.08529426 0.08478761
 0.08354886 0.08211453 0.08206438 0.0842957 0.08779538 0.0906828 0.09209377 0.09249394 0.09242819 0.09156354
 0.08917882 0.0855342 0.08242457 0.08184447 0.08405708 0.087437 0.09016217 0.09151806 0.09171288 0.09121927
 0.09045589 0.08965106 0.08891705 0.08855285 0.08896448 0.09008986 0.09127052 0.09191594 0.09198865 0.09170628
 0.09111914 0.09019627 0.08912683 0.08832529 0.08813243 0.08856153 0.08934681 0.09017871 0.09081251 0.09103263
 0.0907338 0.09007683 0.08938973 0.0888724 0.08853226 0.08838747 0.08853217 0.08895454 0.08944884 0.0897867
 0.08989578 0.08983208 0.08965555 0.08938763 0.08905417 0.08872975 0.08853365 0.08855321 0.0887437 0.08895128
 0.08908507 0.08920604 0.08937673 0.08950166 0.08942717 0.08915663 0.08886166 0.08869673 0.08867788 0.08872734
 0.08875613 0.08867773 0.08840469 0.08792514 0.08740146 0.08711065 0.08722362 0.08767959 0.08828834 0.08887245
 0.08929771 0.08949025 0.0894908 0.08941602 0.08932383 0.08917157 0.08892332 0.08865292 0.08852248 0.08865997
 0.08904122 0.08949824 0.08985884 0.09005833 0.09012526 0.09013294 0.09017646 0.09030624 0.09045211 0.09048811
 0.09039602 0.09030069 0.09032352 0.09044801 0.09054872 0.09053452 0.09045082 0.09043257 0.0905567 0.09076763
 0.09095934 0.09109715 0.09123307 0.09141497 0.09160107 0.09167968 0.091591 0.09141225 0.09128138 0.0912516
 0.09127817 0.09133541 0.09146506 0.09168673 0.09192432 0.09206875 0.09209521 0.0920846 0.09212389 0.09220552
 0.09224356 0.09217959 0.09204732 0.09193276 0.09189558 0.09193504 0.09200849 0.09206592 0.09207493 0.09203014
 0.09194808 0.09185202 0.09175865 0.09168515 0.09167002 0.09176154 0.09195516 0.09215004 0.09220722 0.0920736
 0.09183882 0.09165457 0.09159626 0.09160793 0.0915781 0.09145396 0.09127402 0.09110713 0.09098664 0.09090392
 0.09083865 0.09078245 0.09075126 0.09078791 0.0909296 0.09114599 0.09132635 0.09136645 0.09126996 0.09113821
 0.09106698 0.09107833 0.09114018 0.09121574 0.09129639 0.09140591 0.09156041 0.09171814 0.09180544 0.0918076
 0.09179582 0.09185199 0.09200528 0.09224088 0.09251237 0.09273699 0.09284383 0.09285304 0.09286521 0.09295492
 0.09310856 0.09327585 0.09343944 0.09361168 0.09379587 0.09398569 0.09419399 0.09445462 0.09478754 0.09516893
 0.0955375 0.09583391 0.09604914 0.09624389 0.09650886 0.09689072 0.09735291 0.09780873 0.09819265 0.09850474
 0.09879353 0.09909827 0.09941678 0.09973767 0.1000838 0.1004923 0.1009578 0.1014287 0.101865 0.1022731
 0.1026813 0.1031043 0.1035398 0.1039873 0.104459 0.1049669 0.1054925 0.1059809 0.106381 0.1066974
 0.1069919 0.1073386 0.1077739 0.1082648 0.1087159 0.1090415 0.1092592 0.1094861 0.1098129 0.110206
 0.1105728 0.1108982 0.1112619 0.1117215 0.11223 0.1126897 0.1130571 0.1133726 0.1136989 0.1140488
 0.1143722 0.1146137 0.1147803 0.1149391 0.1151475 0.1154127 0.1157319 0.1161309 0.1166227 0.1171511
 0.1176225 0.1179863 0.1182567 0.1184724 0.1186673 0.1188634 0.1190621 0.1192506 0.1194297 0.1196136
 0.119792 0.1199336 0.1200464 0.1201924 0.1204193 0.1207143 0.1210491 0.1214261 0.1218445 0.1222596
 0.1226321 0.1229987 0.1234341 0.1239318 0.1243775 0.1246688 0.1248218 0.1249253 0.1250326 0.1251535
 0.1253221 0.1255988 0.125998 0.1264624 0.1269226 0.1273514 0.1277544 0.1281342 0.1284747 0.128748
 0.1289326 0.1290359 0.1291034 0.1292024 0.1293896 0.1296767 0.1300168 0.1303339 0.1305726 0.1307138
 0.1307493 0.1306756 0.1305304 0.1304022 0.1303584 0.1303645 0.1303009 0.1300626 0.1296233 0.1290101
 0.1282505 0.1273682 0.1264159 0.1254856 0.1246779 0.1240636 0.1236796 0.1235588 0.1237451 0.124254
 0.1250172 0.1258871 0.1267012 0.1273261 0.127646 0.1275657 0.1270659 0.1262388 0.1252382 0.124199
 0.1232011 0.1222696 0.1213842 0.120521 0.1197277 0.1191563 0.119005 0.1194296 0.1205018 0.1222036
 0.1244086 0.1268717 0.1292878 0.131417 0.1331779 0.134627 0.1358656 0.1369791 0.1380309 0.1390514
 0.1400189 0.1408868 0.141643 0.1423217 0.1429551 0.1435372 0.1440348 0.144418 0.1446873 0.1448826
 0.1450515 0.1451991 0.1452925 0.1453201 0.1453153 0.1453047 0.1452585 0.145105 0.1447779 0.1442499
 0.1435558 0.1428219 0.1422837 0.1422509 0.14299 0.1445715 0.1467995 0.1493049 0.1517221 0.1538028
 0.1554334 0.1566186 0.1574574 0.1580904 0.1586342 0.1591528 0.1596677 0.160176 0.1606659 0.1611313
 0.161576 0.1620108 0.1624513 0.1629096 0.1633749 0.1638128 0.1642008 0.164562 0.1649481 0.1653904
 0.1658688 0.1663353 0.1667675 0.16719 0.1676295 0.1680628 0.1684372 0.1687406 0.1690199 0.169333
 0.1697082 0.1701411 0.1705969 0.1710173 0.1713581 0.1716296 0.1718849 0.1721668 0.1724797 0.1728072
 0.1731385 0.1734716 0.1738054 0.1741434 0.1744991 0.1748794 0.1752573 0.1755796 0.1758175 0.1760037
 0.1762034 0.1764532 0.1767357 0.1770139 0.1772789 0.1775623 0.1779011 0.1782935 0.1786892 0.1790275
 0.1792858 0.179492 0.1796935 0.1799207 0.180179 0.1804606 0.1807526 0.1810387 0.1813099 0.1815754
 0.1818536 0.1821503 0.182453 0.1827468 0.1830292 0.1833066 0.1835825 0.1838557 0.1841312 0.1844283
 0.1847667 0.1851377 0.1854974 0.1858 0.1860367 0.1862359 0.1864315 0.1866404 0.1868648 0.1871035
 0.187354 0.187613 0.1878793 0.1881536 0.1884329 0.1887094 0.1889778 0.1892423 0.1895107 0.1897862
 0.1900677 0.1903556 0.1906494 0.1909397 0.1912131 0.191467 0.1917141 0.1919712 0.1922435 0.1925198
 0.1927821 0.1930224 0.1932516 0.1934902 0.1937481 0.194018 0.194285 0.1945389 0.1947784 0.1950106
 0.1952459 0.1954911 0.1957453 0.1960022 0.1962545 0.1964992 0.1967388 0.1969775 0.197218 0.1974618
 0.1977106 0.1979642 0.1982195 0.1984756 0.1987334 0.1989902 0.1992385 0.1994749 0.1997053 0.1999398
 0.2001826 0.2004307 0.2006798 0.2009289 0.2011758 0.2014169 0.2016554 0.2019026 0.2021621 0.2024232
 0.2026747 0.2029205 0.2031718 0.2034319 0.2036951 0.2039552 0.2042112 0.2044671 0.2047263 0.2049854
 0.2052391 0.2054889 0.2057393 0.2059893 0.2062332 0.2064674 0.2066916 0.2069097 0.2071274 0.2073456
 0.2075599 0.2077728 0.2079946 0.2082301 0.2084734 0.208717 0.2089563 0.209189 0.2094187 0.2096538
 0.2098969 0.2101453 0.2103971 0.2106494 0.2108943 0.2111289 0.21136 0.2115937 0.2118303 0.212071
 0.2123165 0.2125633 0.2128095 0.2130574 0.2133073 0.2135588 0.2138126 0.2140651 0.2143092 0.2145468
 0.2147877 0.2150335 0.2152801 0.2155289 0.2157803 0.2160285 0.2162716 0.2165138 0.2167517 0.2169799
 0.2172035 0.2174303 0.2176621 0.217905 0.2181658 0.2184332 0.2186873 0.2189247 0.2191548 0.2193851
 0.2196234 0.2198742 0.2201287 0.2203774 0.2206233 0.2208664 0.2210978 0.2213199 0.2215441 0.2217566
 0.2218951 0.2218048 0.2211284 0.2191798 0.2149242 0.2071786 0.1950863 0.1786686 0.1590103 0.1378662
 0.1170094 0.09777856 0.08096663 0.06693226 0.05576093 0.04736143 0.04153548 0.03810987 0.03707298 0.03870089
 0.04368308 0.05271018 0.06495493 0.07673407 0.08294495 0.08109307 0.07367833 0.06591721 0.06140784 0.06039364
 0.06132697 0.06289394 0.06468324 0.06693621 0.0700624 0.0741785 0.07909058 0.08479407 0.09171526 0.100169
 0.1097097 0.1193172 0.1282721 0.1367181 0.1453177 0.1544514 0.1638176 0.1727317 0.1806713 0.1875367
 0.1935447 0.1989898 0.2040774 0.2088979 0.2134875 0.2178357 0.2217948 0.2250325 0.2271848 0.2281324
 0.2281447 0.2277325 0.2273456 0.2271899 0.2272786 0.2275702 0.2280373 0.228662 0.2294241 0.2302941
 0.2312309 0.2321951 0.2331628 0.2341149 0.2350279 0.2358804 0.236661 0.2373646 0.2379959 0.2385723
 0.2391098 0.2396091 0.2400635 0.2404753 0.2408584 0.2412298 0.241598 0.2419539 0.2422788 0.2425659
 0.2428263 0.2430711 0.2433006 0.2435144 0.2437208 0.2439308 0.2441487 0.244369 0.2445826 0.2447866
 0.2449899 0.2452029 0.2454251 0.2456453 0.2458538 0.2460494 0.2462392 0.24643 0.2466213 0.2468069
 0.2469864 0.247169 0.247362 0.2475618 0.2477594 0.2479508 0.2481391 0.2483313 0.2485319 0.2487373
 0.248943 0.2491539 0.2493779 0.2496098 0.2498376 0.2500601 0.2502841 0.250511 0.2507395 0.250971
 0.2511951 0.2513844 0.2515235 0.2516395 0.2517877 0.2520001 0.2522553 0.2525026 0.2527159 0.2529105
 0.2531087 0.253309 0.2534953 0.2536585 0.2538064 0.2539705 0.2541885 0.2544622 0.25475 0.2550159
 0.2552595 0.2554931 0.2557235 0.2559615 0.2562072 0.2564238 0.2565683 0.256659 0.2567878 0.2570462
 0.2574365 0.2578602 0.2582093 0.2584643 0.2586836 0.2589232 0.2591991 0.2594783 0.2596588 0.2596348
 0.2594666 0.2594135 0.2597013 0.2602945 0.2609625 0.2615156 0.2619201 0.2622349 0.2625087 0.2627324
 0.2628533 0.262835 0.2627373 0.2627388 0.2630161 0.2635621 0.2641735 0.2646585 0.2649875 0.2652196
 0.2653934 0.2655277 0.2655857 0.2654111 0.2648946 0.2642846 0.2641258 0.264733 0.2658289 0.2668329
 0.2674341 0.2677546 0.2680222 0.268292 0.2685053 0.2685449 0.2681172 0.2669218 0.2652393 0.2640895
 0.2643903 0.2660366 0.2680721 0.2696435 0.270538 0.2709709 0.2712107 0.2713978 0.2714443 0.2710449
 0.2700178 0.2687634 0.2681685 0.2687901 0.2702252 0.27154 0.2722239 0.2724584 0.2726173 0.27285
 0.2729864 0.2724864 0.270745 0.2679873 0.2657224 0.2656771 0.2681011 0.2714618 0.2739646 0.2750956
 0.27547 0.2755018 0.2747986 0.2728715 0.2698739 0.2665262 0.2638844 0.2632005 0.2650978 0.2685264
 0.2713539 0.2724674 0.2727158 0.2735096 0.2751375 0.2767686 0.2775373 0.2772159 0.2760641 0.2743546
 0.2722474 0.2702346 0.269397 0.2706375 0.2735886 0.2767476 0.2788631 0.2798812 0.2802945 0.2796838
 0.2764263 0.2696502 0.2616751 0.2573669 0.2598425 0.2672136 0.2746165 0.2789945 0.2807695 0.2815572
 0.2819959 0.2815735 0.2789317 0.2726108 0.2633604 0.2555873 0.2543738 0.260449 0.2693615 0.2756335
 0.2764869 0.2721321 0.2647847 0.2580093 0.2552622 0.2577955 0.2641118 0.2714448 0.2774209 0.2807084
 0.2809998 0.2788826 0.275798 0.2736915 0.2736042 0.2741348 0.2725045 0.2680686 0.2633902 0.2604769
 0.2576753 0.252732 0.2477433 0.2477679 0.254254 0.2626191 0.2673958 0.2677665 0.2665861 0.2651835
 0.2611007 0.2516452 0.2389968 0.2303028 0.2314222 0.2408458 0.2510488 0.2558547 0.2553371 0.2536124
 0.2533467 0.2530435 0.2491689 0.2407723 0.231821 0.2278674 0.2301497 0.2344907 0.2362466 0.2340195
 0.2280285 0.2186008 0.2088173 0.205486 0.2133992 0.2294645 0.2451274 0.2534176 0.251506 0.23918
 0.2198068 0.2023389 0.1969524 0.2059352 0.2209011 0.2305052 0.2294561 0.2194486 0.2042804 0.1872445
 0.1726438 0.1662943 0.1720438 0.1878516 0.2058485 0.2162635 0.2128302 0.1976511 0.1815825 0.1764245
 0.184206 0.1958003 0.2011434 0.1983541 0.1923145 0.188357 0.1891738 0.1943726 0.2009178 0.2059722
 0.209165 0.2094379 0.2020012 0.1841139 0.1627871 0.1501697 0.1509188 0.1598173 0.1715111 0.1852964
 0.1987933 0.2046669 0.1989069 0.1884446 0.1852523 0.1936322 0.2065271 0.2141373 0.2136071 0.2095342
 0.2068533 0.2055794 0.2032658 0.2006854 0.2020414 0.2091571 0.2182831 0.2242851 0.2259982 0.2257525
 0.2254271 0.225034 0.2240734 0.2223892 0.2200569 0.2174961 0.2153594 0.2138028 0.2123511 0.2106375
 0.2083675 0.204229 0.196234 0.1845988 0.1734934 0.167767 0.1678599 0.1701611 0.1723271 0.1746227
 0.1749571 0.1675083 0.1504023 0.1319934 0.1247903 0.1333849 0.1510304 0.1672875 0.1759533 0.1755719
 0.1663879 0.150746 0.1358048 0.1312705 0.1414603 0.1611694 0.1812659 0.1965402 0.2062498 0.2097943
 0.2059171 0.195977 0.1851897 0.1796545 0.1826745 0.1932945 0.2065782 0.2148357 0.2113915 0.1972607
 0.1841462 0.1857896 0.2034952 0.2238911 0.2339594 0.2342335 0.233451 0.2350013 0.2352659 0.2331645
 0.2339653 0.2420294 0.2543691 0.2635932 0.2644065 0.2556964 0.2398064 0.2230221 0.2139404 0.2165951
 0.2258802 0.2331028 0.2343908 0.2301791 0.2200688 0.204953 0.1924519 0.1923274 0.2051537 0.221013
 0.2307806 0.2344355 0.2369346 0.2396884 0.2388942 0.2313451 0.2197902 0.2112333 0.2100074 0.2139914
 0.2182119 0.2200994 0.2195459 0.2159437 0.2085599 0.1998047 0.1952633 0.1988785 0.208909 0.2195847
 0.226281 0.2284243 0.2281255 0.2274124 0.2268121 0.2255417 0.222983 0.2205761 0.2215113 0.2272722
 0.2352133 0.2412522 0.2445434 0.2477635 0.25293 0.2586237 0.2617186 0.2608151 0.2576047 0.2554256
 0.2566016 0.2605953 0.2643989 0.2650945 0.2626216 0.2600785 0.2608566 0.2653951 0.2711235 0.2753738
 0.2775614 0.2786329 0.2794866 0.2802117 0.2800531 0.2780086 0.2742896 0.2711745 0.2713986 0.2754251
 0.2809756 0.2853483 0.2875746 0.288277 0.2882089 0.2874639 0.2858896 0.2837942 0.28198 0.2811176
 0.281267 0.2820365 0.2830046 0.2839031 0.2845971 0.2850721 0.2853939 0.2856126 0.2857468 0.2858486
 0.2859752 0.2860863 0.2860857 0.2859999 0.2860096 0.2862382 0.2865794 0.2868049 0.2867702 0.2864284
 0.2857101 0.2845414 0.2829806 0.2812044 0.2793136 0.2772732 0.2751592 0.2734203 0.272744 0.2735474
 0.2755913 0.2781245 0.2803956 0.2820287 0.2830153 0.2835119 0.2837001 0.2837401 0.283737 0.2837135
 0.2836349 0.283474 0.2832425 0.2829649 0.2826509 0.2823155 0.2820027 0.2817538 0.281554 0.2813327
 0.2810222 0.2806055 0.2801153 0.2796002 0.2790867 0.2785558 0.2779469 0.2771939 0.2762745 0.2752385
 0.2741844 0.273198 0.2722982 0.271435 0.2705372 0.2695593 0.2684754 0.267248 0.2658528 0.2643551
 0.2629129 0.2616581 0.2605888 0.2595973 0.2585698 0.2574384 0.25618 0.2548118 0.2533787 0.2519226
 0.2504619 0.248994 0.2474995 0.2459469 0.2443093 0.2425803 0.2407713 0.2389004 0.2369898 0.2350576
 0.2330877 0.2310008 0.228666 0.2259474 0.2227372 0.2189603 0.2145931 0.2097056 0.2044694 0.1991083
 0.1938332 0.1888109 0.184162 0.1799797 0.1763538 0.1733706 0.171088 0.1695214 0.1686617 0.1684982
 0.169026 0.1702313 0.1720603 0.1743942 0.1770612 0.1798732 0.1826509 0.1852485 0.1875965 0.1897296
 0.1917459 0.1937221 0.1956594 0.1975028 0.1992003 0.2007334 0.2020947 0.2032651 0.2042298 0.2050021
 0.205613 0.2060896 0.2064528 0.2067252 0.2069305 0.2070954 0.2072482 0.2074135 0.207609 0.2078479
 0.2081331 0.208454 0.2088077 0.2092178 0.2097165 0.2103109 0.2109725 0.2116602 0.2123544 0.2130706
 0.2138413 0.2146972 0.2156777 0.2168411 0.2182351 0.2198608 0.2216775 0.2236214 0.2256026 0.2275071
 0.2292264 0.2306868 0.2318519 0.2327164 0.2333021 0.2336502 0.2338066 0.2338055 0.233663 0.2333933
 0.2330275 0.2326003 0.2321235 0.231589 0.2309897 0.2303216 0.2295829 0.2287899 0.2279795 0.2271821
 0.2264089 0.2256647 0.2249538 0.2242703 0.2236028 0.2229459 0.2222965 0.221647 0.2209868 0.220306
 0.2195978 0.2188563 0.2180644 0.2171893 0.2162049 0.2151113 0.2139188 0.2126301 0.211253 0.209811
 0.2083244 0.2067916 0.2051976 0.2035297 0.2017858 0.1999686 0.1980686 0.1960576 0.1939254 0.1917212
 0.1895426 0.1874805 0.1855786 0.1838257 0.1821751 0.1805868 0.1790562 0.177597 0.1762106 0.1748879
 0.1736257 0.1724236 0.1712773 0.170188 0.1691661 0.1682249 0.1673778 0.1666352 0.1659946 0.1654378
 0.1649438 0.1645019 0.1641217 0.1638359 0.1636745 0.1636213 0.1636056 0.1635444 0.1633893 0.1631451
 0.1628627 0.1626056 0.162406 0.1622536 0.1621185 0.1619597 0.1617129 0.1612937 0.1606183 0.1596248
 0.1582892 0.1566399 0.1547562 0.1527562 0.1507804 0.1489616 0.1473958 0.1461377 0.1451977 0.1445169
 0.1439778 0.1434901 0.1430593 0.1427601 0.1426558 0.1427372 0.1428991 0.1429951 0.1429638 0.142903
 0.1429901 0.1433369 0.1439226 0.1446261 0.1453095 0.1458937 0.1463612 0.1466995 0.1468859 0.1469305
 0.1468752 0.1467459 0.1465468 0.1462896 0.1459855 0.1456262 0.1451995 0.1447054 0.1441468 0.1435253
 0.1428373 0.1420672 0.1412047 0.1402526 0.1391872 0.1379667 0.1366496 0.1354617 0.1346807 0.1344715
 0.1348218 0.1355646 0.1364764 0.1374175 0.138326 0.1390431 0.1393333 0.139253 0.1393651 0.1403341
 0.1422753 0.1446237 0.1466501 0.1479818 0.1486145 0.1486299 0.1480802 0.147032 0.1455246 0.1435294
 0.141064 0.1382571 0.1352428 0.1321303 0.1291018 0.1263756 0.1240699 0.1222011 0.1207471 0.1197324
 0.1192783 0.1190096 0.117065 0.1110795 0.1018378 0.0948943 0.09590729 0.1042765 0.1135639 0.1183047
 0.118362 0.116653 0.1151787 0.1142392 0.1137438 0.1138475 0.1146789 0.116074 0.1176015 0.1188285
 0.1196048 0.1200057 0.1199996 0.1192194 0.116943 0.1123458 0.1051554 0.09623338 0.08728343 0.07985638
 0.07465972 0.07158098 0.07002158 0.06925 0.06876478 0.06851179 0.06876776 0.06980908 0.07168363 0.07425532
 0.0773527 0.08074343 0.08402242 0.08676455 0.08885583 0.09050223 0.09187258 0.09289639 0.09342916 0.09345162
 0.09307181 0.09244333 0.09170519 0.09092373 0.09005351 0.08899027 0.08773164 0.08650037 0.08562173 0.08522739
 0.08515812 0.08518375 0.08520184 0.08520149 0.08517663 0.08512478 0.08505441 0.085 0.08506381 0.08535931
 0.08586198 0.08639374 0.08678065 0.08697359 0.0870285 0.08699244 0.0867826 0.08625426 0.08548366 0.0848145
 0.08440977 0.08393399 0.08298127 0.08170608 0.08072829 0.080453 0.08071189 0.08104328 0.08112246 0.080915
 0.08061321 0.08052608 0.08088323 0.08156659</values></Ydata></ScSm><ScRf><Ydata ylabel="Single channel"><values byteorder="INTEL" format="FLOAT32" numvalues="1820"> 0.06071227 0.06087973 0.06098401 0.06101915 0.06101154 0.06101344 0.06107663 0.06121975 0.06141642 0.06161075
 0.06175197 0.0618241 0.06183845 0.06180408 0.06173348 0.06167778 0.06171282 0.06186531 0.06207107 0.06222068
 0.06224627 0.06218022 0.06213661 0.06220284 0.06232227 0.06230924 0.06202234 0.06152577 0.06104702 0.0607651
 0.06069931 0.06084597 0.06129019 0.06198573 0.06250809 0.06235699 0.06158172 0.06081742 0.06057842 0.06076127
 0.06093799 0.06085515 0.06051821 0.06008855 0.05991597 0.06044508 0.06177917 0.06331901 0.06397592 0.06285639
 0.05990091 0.05608868 0.05307709 0.05231266 0.05401249 0.05687307 0.05904778 0.05961936 0.0590407 0.05820304
 0.05747422 0.05681075 0.05638 0.05659876 0.05755826 0.05863205 0.05879873 0.05751756 0.05537337 0.05366156
 0.05320402 0.05383248 0.05508467 0.05670861 0.05795811 0.05718975 0.05348162 0.04868318 0.04659058 0.04933767
 0.05511699 0.05994362 0.06119718 0.05909413 0.0555364 0.05253346 0.05143454 0.0525659 0.05518777 0.05811123
 0.06041174 0.06145947 0.06076259 0.05840193 0.05544454 0.05341985 0.05338159 0.05550229 0.05903699 0.06238174
 0.06379996 0.06270756 0.06006341 0.05735617 0.05562422 0.05545527 0.05713025 0.06033307 0.0641292 0.06750127
 0.06976533 0.07065335 0.07037443 0.06947908 0.06843816 0.06756242 0.06729484 0.06794037 0.06892569 0.06901316
 0.06764878 0.06570607 0.06458877 0.06478074 0.06546243 0.06551026 0.06463421 0.06319098 0.06107074 0.05767926
 0.05329555 0.04943192 0.04732102 0.04697906 0.04810821 0.0505736 0.05333716 0.05439381 0.05296393 0.05089515
 0.05082595 0.05337016 0.05679864 0.05915353 0.06006396 0.06061452 0.06194966 0.0641018 0.06584246 0.06560881
 0.0630538 0.05991794 0.05879762 0.06059361 0.0636429 0.06576416 0.06656027 0.06717302 0.06829536 0.069102
 0.06811258 0.0649512 0.06128632 0.05979301 0.06181878 0.06603441 0.06939919 0.06940696 0.06577284 0.06050222
 0.05633033 0.05482712 0.05598016 0.05924487 0.06414673 0.06972053 0.07425654 0.07625834 0.07552837 0.07309185
 0.07002246 0.06644605 0.06209425 0.05795528 0.05648284 0.0592821 0.06505862 0.07069533 0.07403179 0.07494125
 0.07412221 0.07177114 0.06778829 0.06307362 0.05995021 0.06036214 0.0635346 0.06641054 0.06684922 0.0655793
 0.0646303 0.06479806 0.06534369 0.06556065 0.06579399 0.06686546 0.06890249 0.07103004 0.07221532 0.07220244
 0.07155912 0.07101686 0.07080747 0.07049283 0.06958783 0.06853105 0.06863509 0.07064445 0.07370579 0.07624216
 0.07753441 0.07798322 0.07805064 0.07744652 0.0755453 0.07256006 0.07002458 0.06965588 0.07169216 0.07474084
 0.07722545 0.07852125 0.07880987 0.07850658 0.07797807 0.07742734 0.07695447 0.07680719 0.07731638 0.07841969
 0.07955754 0.08023262 0.08041583 0.08028991 0.079893 0.07919963 0.0783816 0.07780665 0.07777321 0.07828881
 0.07911645 0.07998486 0.08068202 0.08101539 0.08088063 0.08041152 0.07990479 0.07955213 0.07936778 0.07936649
 0.07962738 0.08013254 0.08068919 0.08108972 0.08127553 0.08130728 0.08124609 0.08111119 0.08091982 0.08073585
 0.0806706 0.08080293 0.08108039 0.08135495 0.08155776 0.08176863 0.08204971 0.08229116 0.08232421 0.08214398
 0.08192475 0.08183104 0.08188473 0.08200587 0.08210468 0.08210202 0.08192042 0.08155073 0.08114477 0.08095798
 0.08114482 0.08164897 0.08230029 0.08293644 0.08342339 0.08367942 0.0837383 0.08371449 0.08366887 0.08356339
 0.08336389 0.08314207 0.08305568 0.08322859 0.08363762 0.08412242 0.08451702 0.08475351 0.08485273 0.08488818
 0.08496562 0.08514363 0.08534484 0.0854257 0.08536015 0.0852827 0.0853239 0.08545876 0.08554876 0.085508
 0.08540217 0.0853793 0.08551458 0.08574495 0.08595832 0.08611654 0.08627156 0.08647258 0.08667386 0.08675341
 0.08664475 0.08643126 0.08626471 0.08620562 0.08620659 0.08624181 0.08636158 0.0865888 0.08683401 0.08697218
 0.08698042 0.086954 0.08698541 0.08705841 0.08707681 0.08697905 0.08680111 0.08663661 0.08656073 0.08658935
 0.08668017 0.08676061 0.08677202 0.08670624 0.08660102 0.08649732 0.08640923 0.08634548 0.08634946 0.08648071
 0.08673009 0.08697157 0.08704031 0.08688022 0.08660382 0.08639174 0.08632974 0.0863454 0.08629715 0.08611153
 0.08583198 0.08555585 0.0853485 0.08521436 0.0851231 0.08504948 0.08500201 0.08502234 0.08513842 0.0852998
 0.08538119 0.08528551 0.08504135 0.08477423 0.08459094 0.08451331 0.08450241 0.08450939 0.0845145 0.08454276
 0.08462397 0.08472437 0.08475716 0.0846832 0.08456367 0.08449735 0.0845433 0.08470428 0.0849246 0.08509468
 0.08512193 0.0850243 0.0849154 0.08488534 0.08493178 0.08500835 0.08509217 0.08518462 0.08528145 0.08537593
 0.08548263 0.08563533 0.08585408 0.08611753 0.08636855 0.08655187 0.08666018 0.08675085 0.08690782 0.08717287
 0.08750966 0.08783546 0.08808988 0.08827794 0.08844934 0.0886379 0.08883384 0.08902407 0.08923659 0.08951256
 0.08984545 0.09018369 0.09049128 0.09077534 0.09105568 0.09133686 0.0916179 0.09191441 0.09226072 0.09267917
 0.09313495 0.09353442 0.09379641 0.09393069 0.09403563 0.0942232 0.09454235 0.0949412 0.09529036 0.09548377
 0.09554821 0.0956248 0.09581516 0.09607948 0.09632137 0.09653766 0.09682533 0.09724343 0.09772004 0.09811741
 0.09836657 0.09851922 0.09867503 0.09887354 0.09906544 0.09918995 0.09926077 0.09934931 0.09949369 0.09967156
 0.09987454 0.1001528 0.1005433 0.100989 0.1013796 0.1016556 0.1018377 0.1019731 0.1020897 0.1021886
 0.1022541 0.1022792 0.1022955 0.1023513 0.1024494 0.1025364 0.1025735 0.1025909 0.1026514 0.1027887
 0.1030019 0.10328 0.1035963 0.1039006 0.1041634 0.1044264 0.1047608 0.1051568 0.1054982 0.1056823
 0.105731 0.1057414 0.1057635 0.1057882 0.1058346 0.1059683 0.1062212 0.1065486 0.1068878 0.1072215
 0.1075645 0.1079128 0.1082266 0.1084525 0.1085592 0.108562 0.1085222 0.1085218 0.1086282 0.1088622
 0.1091859 0.1095272 0.109823 0.1100364 0.1101414 0.110129 0.1100509 0.1100223 0.1101306 0.1103366
 0.1104959 0.1104819 0.1102676 0.1098914 0.1093849 0.1087633 0.1080696 0.1073928 0.1068279 0.1064262
 0.1061985 0.1061627 0.1063635 0.1068199 0.1074632 0.1081598 0.1087962 0.1093083 0.1096276 0.1096564
 0.1093409 0.108744 0.1080105 0.1072732 0.1066026 0.1060053 0.1054405 0.1048684 0.1043322 0.1039887
 0.1040331 0.1045851 0.1056312 0.1070351 0.1085815 0.1100446 0.1112749 0.1122506 0.1130496 0.1137645
 0.1144435 0.115102 0.1157558 0.1164113 0.1170373 0.1175864 0.1180518 0.1184744 0.118891 0.1192974
 0.119663 0.1199615 0.1201935 0.1203918 0.1205884 0.1207659 0.1208642 0.1208515 0.1207625 0.1206498
 0.1205233 0.1203495 0.1200877 0.1197203 0.1192802 0.1188789 0.1186965 0.1189092 0.119587 0.1206477
 0.1219165 0.1232375 0.1245181 0.1256817 0.1266341 0.1273158 0.1277607 0.1280693 0.1283334 0.1286016
 0.1288918 0.1292035 0.1295199 0.129819 0.1300923 0.1303584 0.1306542 0.131 0.1313665 0.1316913
 0.1319423 0.1321577 0.132413 0.1327492 0.1331358 0.1335067 0.1338324 0.1341436 0.1344733 0.134794
 0.1350441 0.1352107 0.135353 0.1355455 0.1358246 0.1361811 0.1365688 0.1369173 0.1371769 0.1373605
 0.1375257 0.137715 0.1379302 0.138159 0.1384005 0.138656 0.138918 0.1391832 0.1394643 0.1397691
 0.1400692 0.1403125 0.1404776 0.1406041 0.1407554 0.1409581 0.1411863 0.1414002 0.1415933 0.1418029
 0.142073 0.1424012 0.1427265 0.1429796 0.1431441 0.1432638 0.1433943 0.1435611 0.1437576 0.1439681
 0.1441814 0.1443905 0.144593 0.1447927 0.1449966 0.1452067 0.1454163 0.1456183 0.1458123 0.1460055
 0.1462055 0.1464156 0.1466382 0.1468849 0.1471701 0.147487 0.1477953 0.1480483 0.1482302 0.14836
 0.1484687 0.1485821 0.1487195 0.1488911 0.1490927 0.1493098 0.1495285 0.1497423 0.1499512 0.1501579
 0.1503654 0.1505755 0.1507887 0.1510018 0.1512117 0.1514223 0.151642 0.15187 0.1520916 0.1522935
 0.1524796 0.152667 0.1528676 0.1530744 0.1532673 0.1534356 0.1535918 0.1537581 0.1539438 0.1541413
 0.1543415 0.1545428 0.1547466 0.1549518 0.155154 0.1553505 0.1555435 0.1557391 0.1559388 0.156137
 0.1563288 0.1565158 0.1567035 0.1568942 0.1570872 0.1572818 0.1574809 0.1576882 0.1579041 0.1581224
 0.158335 0.1585357 0.158723 0.1589025 0.1590863 0.1592805 0.1594776 0.1596682 0.1598554 0.1600489
 0.1602511 0.1604584 0.1606701 0.160888 0.1611108 0.1613328 0.1615496 0.1617619 0.161973 0.1621846
 0.1623962 0.1626085 0.1628222 0.1630351 0.1632481 0.1634682 0.1636984 0.1639287 0.1641451 0.1643415
 0.1645198 0.1646858 0.164849 0.1650188 0.1651972 0.1653798 0.1655613 0.1657375 0.1659098 0.166087
 0.1662766 0.1664758 0.1666776 0.1668804 0.1670875 0.1673004 0.1675152 0.167723 0.1679166 0.1681001
 0.1682866 0.168485 0.1686948 0.1689111 0.1691273 0.1693372 0.1695413 0.1697465 0.1699572 0.1701741
 0.1703981 0.1706247 0.1708437 0.1710506 0.1712508 0.1714489 0.1716464 0.1718464 0.1720499 0.1722518
 0.1724504 0.1726505 0.1728536 0.173057 0.173263 0.1734769 0.1737007 0.1739331 0.1741679 0.174393
 0.1746026 0.1748039 0.1750038 0.1752037 0.175409 0.1756252 0.175844 0.1760551 0.1762638 0.1764794
 0.1766996 0.1769181 0.177129 0.1773174 0.177444 0.177398 0.1768945 0.1753724 0.1719885 0.1657886
 0.1560892 0.1429121 0.1271278 0.1101447 0.0933913 0.07795098 0.06446326 0.05320917 0.04424769 0.03750543
 0.03283522 0.03010781 0.02930831 0.0306422 0.03465266 0.04189738 0.05172405 0.0611858 0.06618486 0.0647058
 0.05874531 0.05249763 0.04886951 0.04806729 0.04884316 0.05012883 0.0515855 0.05340821 0.05593171 0.05925422
 0.0632241 0.06784322 0.07345457 0.08030045 0.08800864 0.09575513 0.1029715 0.1097891 0.1167539 0.1241725
 0.1317881 0.139031 0.1454742 0.151045 0.1559288 0.1603651 0.1645147 0.1684486 0.1722029 0.1757753
 0.1790379 0.1817053 0.1834797 0.1842784 0.1843288 0.184037 0.1837549 0.1836495 0.1837411 0.1840037
 0.1844149 0.1849584 0.1856184 0.1863696 0.1871716 0.1879869 0.188799 0.1896015 0.1903805 0.1911207
 0.1918138 0.1924502 0.1930191 0.193522 0.1939749 0.1943941 0.1947891 0.195164 0.1955217 0.1958673
 0.1962074 0.1965393 0.1968478 0.1971204 0.1973601 0.1975804 0.1977935 0.198006 0.1982194 0.1984341
 0.1986526 0.1988768 0.1991013 0.1993177 0.1995245 0.1997266 0.1999283 0.2001325 0.200341 0.2005493
 0.2007463 0.2009263 0.2010981 0.2012757 0.2014641 0.201657 0.2018443 0.2020219 0.2021956 0.202377
 0.2025749 0.2027881 0.2030042 0.2032087 0.2034023 0.2036015 0.2038175 0.2040393 0.2042521 0.2044609
 0.20468 0.204909 0.2051342 0.205346 0.205541 0.2057157 0.2058713 0.2060237 0.2061979 0.2064068
 0.2066363 0.2068583 0.2070601 0.2072546 0.2074563 0.2076621 0.2078579 0.2080334 0.2081922 0.2083598
 0.2085708 0.2088295 0.2090998 0.209351 0.2095905 0.2098359 0.2100844 0.210325 0.2105505 0.2107467
 0.2108978 0.2110214 0.2111786 0.2114308 0.211778 0.2121499 0.2124695 0.2127217 0.2129456 0.2131828
 0.2134525 0.2137346 0.2139422 0.2139776 0.213883 0.2138732 0.2141415 0.2146641 0.2152491 0.2157337
 0.216088 0.2163673 0.2166203 0.2168398 0.2169742 0.2169898 0.2169425 0.2169863 0.2172652 0.2177667
 0.2183196 0.2187657 0.2190822 0.2193191 0.2195108 0.2196755 0.2197833 0.2196994 0.2193228 0.2188522
 0.2187431 0.219267 0.2202042 0.2210781 0.2216298 0.2219529 0.2222266 0.2224937 0.2227104 0.2227873
 0.2224851 0.2215497 0.2202052 0.2192977 0.2196007 0.2210348 0.2227996 0.2241733 0.2249741 0.2253858
 0.2256393 0.2258551 0.225957 0.2256855 0.2248889 0.2239039 0.2234695 0.2240477 0.2253034 0.2264606
 0.2270926 0.2273496 0.2275466 0.227812 0.2280008 0.2276495 0.2262395 0.2239602 0.222092 0.2221
 0.2241987 0.227095 0.2292729 0.2302944 0.230674 0.2307607 0.2302256 0.228656 0.2261808 0.2234126
 0.2212512 0.220755 0.2224394 0.2254042 0.2278483 0.2288447 0.22912 0.2298617 0.231307 0.2327562
 0.2334826 0.2332927 0.2324051 0.2310525 0.2293693 0.2277631 0.2271401 0.2282631 0.2308283 0.233573
 0.2354404 0.2363795 0.2368018 0.2363526 0.233658 0.2279791 0.2212848 0.2177069 0.2198913 0.2262316
 0.2325976 0.2363984 0.2379993 0.2387738 0.2392564 0.2390027 0.2368535 0.2315654 0.2237722 0.2172248
 0.216261 0.2215179 0.2292131 0.2346746 0.2355193 0.2319096 0.22573 0.2200306 0.217775 0.2200407
 0.225548 0.2319261 0.2371402 0.2400547 0.240412 0.2387136 0.2361892 0.2345054 0.2345557 0.2351356
 0.2338595 0.2301755 0.226285 0.2239105 0.2216302 0.2175058 0.2133433 0.213506 0.2192483 0.2266158
 0.2308849 0.2313495 0.2304781 0.2294176 0.226038 0.2180018 0.2071889 0.1997973 0.2009285 0.2092898
 0.2183449 0.2227191 0.2224761 0.2212009 0.2212145 0.2212029 0.2180626 0.2109518 0.2033572 0.2001695
 0.2024789 0.2066009 0.2084421 0.206767 0.2017555 0.1936861 0.1853001 0.1826633 0.1900525 0.2047207
 0.2190415 0.2267875 0.2254149 0.2147057 0.1976589 0.1823279 0.1779046 0.1864824 0.200505 0.2097133
 0.2092865 0.2007035 0.1873612 0.1722553 0.1593847 0.1541896 0.1602988 0.1758476 0.1934852 0.2040111
 0.2014608 0.1877715 0.1732429 0.169132 0.1773767 0.1892266 0.195031 0.1929913 0.1878073 0.1846508
 0.1861915 0.1920695 0.1992666 0.2049573 0.2087722 0.2096091 0.2026001 0.1849652 0.1637708 0.1512711
 0.1521803 0.1612646 0.1731504 0.1871477 0.2008508 0.2068251 0.2009957 0.1903705 0.1870686 0.1954483
 0.2083766 0.2159528 0.215309 0.2111274 0.2084273 0.2072274 0.2050453 0.2026772 0.2044056 0.2120821
 0.2218889 0.2286043 0.2310384 0.231554 0.2320662 0.2325886 0.2325904 0.2318828 0.2305381 0.2290109
 0.2279976 0.2276531 0.2274434 0.2269492 0.2258451 0.222677 0.2151737 0.2034436 0.1920122 0.1862363
 0.1866206 0.1891943 0.1914147 0.1936445 0.1936388 0.1850024 0.1656352 0.1446531 0.1357504 0.1439688
 0.1619485 0.1783224 0.1864222 0.1848472 0.1740715 0.1566595 0.1399842 0.1339105 0.1427477 0.1611188
 0.1797086 0.1932842 0.2012845 0.2033793 0.1984915 0.1879565 0.176774 0.1707489 0.1729655 0.1824418
 0.1944501 0.201718 0.1979887 0.1842439 0.1714461 0.1724395 0.1884732 0.2071245 0.21627 0.2163593
 0.2154741 0.2167634 0.2168977 0.2149054 0.2156966 0.2233358 0.2350631 0.2440129 0.2452404 0.2376754
 0.2234817 0.2085378 0.2008951 0.2042861 0.2138124 0.2212112 0.2228161 0.2190607 0.2096103 0.195403
 0.1837967 0.1841398 0.1969373 0.2126463 0.2225248 0.226597 0.2296519 0.2330038 0.2328941 0.2261742
 0.215558 0.2079406 0.2075779 0.2123731 0.2174379 0.2202588 0.2207037 0.2180715 0.2115265 0.2034572
 0.1995329 0.2037691 0.2143417 0.2252633 0.2317226 0.2331001 0.2315765 0.2292967 0.2269241 0.2238118
 0.2194374 0.2152559 0.2144157 0.2183988 0.2246693 0.2292837 0.2314052 0.2335783 0.2377268 0.2425074
 0.2449472 0.2436841 0.2402576 0.2377685 0.2383943 0.2416597 0.244787 0.2450669 0.2424355 0.2397754
 0.2402584 0.2443186 0.2495876 0.2535952 0.2557891 0.2570201 0.258082 0.2590093 0.2590477 0.2572279
 0.2537358 0.2506957 0.2506604 0.2540851 0.2588998 0.2626526 0.2644913 0.2650123 0.2649017 0.2642201
 0.2628111 0.2609555 0.2593853 0.2587039 0.2589586 0.2597845 0.2607827 0.2616909 0.2623754 0.2628245
 0.2631098 0.2632924 0.2633992 0.2634776 0.2635709 0.2636316 0.2635692 0.2634215 0.2633796 0.263576
 0.2639175 0.2641888 0.264249 0.2640452 0.2635046 0.262555 0.2612548 0.2597797 0.2582349 0.2565851
 0.2548753 0.2534858 0.2530316 0.2539036 0.2559008 0.2583425 0.2605333 0.262119 0.2630891 0.2635909
 0.2637965 0.2638555 0.2638612 0.2638287 0.2637211 0.2635077 0.2631969 0.2628276 0.2624418 0.2620712
 0.2617373 0.261448 0.261185 0.2609051 0.2605638 0.2601424 0.2596559 0.2591382 0.2586128 0.2580633
 0.2574354 0.2566757 0.2557772 0.2547927 0.2538135 0.2529226 0.2521439 0.251425 0.2506812 0.2498555
 0.248928 0.2478874 0.2467423 0.2455715 0.2445127 0.2436613 0.2429884 0.2423765 0.2417168 0.2409555
 0.240081 0.2391122 0.2380895 0.2370405 0.2359564 0.2348176 0.2336246 0.2323824 0.2310728 0.229668
 0.2281624 0.2265794 0.2249545 0.2233144 0.2216478 0.2198849 0.2179072 0.2155812 0.2127876 0.209444
 0.2055281 0.2010993 0.1963043 0.1913518 0.1864553 0.1817821 0.1774498 0.1735562 0.1701932 0.1674349
 0.1653278 0.1638982 0.163164 0.163137 0.163815 0.1651666 0.1671222 0.169575 0.1723836 0.1753773
 0.178375 0.1812184 0.1838135 0.1861621 0.1883445 0.1904369 0.1924328 0.1942598 0.1958646 0.1972559
 0.198466 0.1995072 0.2003784 0.2010933 0.2016836 0.202184 0.2026196 0.2030039 0.2033387 0.2036173
 0.2038373 0.2040137 0.2041757 0.2043488 0.2045447 0.204765 0.2050099 0.2052903 0.2056321 0.2060575
 0.2065578 0.2071016 0.2076716 0.2082738 0.2089148 0.2095948 0.2103289 0.2111559 0.2121166 0.2132279
 0.2144752 0.2158178 0.2171942 0.2185247 0.2197213 0.2207126 0.2214628 0.2219701 0.2222547 0.2223541
 0.2223096 0.2221441 0.2218617 0.2214737 0.2210082 0.2204911 0.2199315 0.2193308 0.2186924 0.218016
 0.2172974 0.2165446 0.2157901 0.2150758 0.2144223 0.2138167 0.2132287 0.2126348 0.2120279 0.2114143
 0.210807 0.210215 0.2096352 0.2090571 0.2084753 0.2078864 0.2072693 0.2065801 0.2057799 0.2048628
 0.2038473 0.2027462 0.2015584 0.2002861 0.1989388 0.1975195 0.1960211 0.194443 0.1927956 0.1910801
 0.1892729 0.1873467 0.1853157 0.1832529 0.1812544 0.1793853 0.1776625 0.1760716 0.1745832 0.173169
 0.171818 0.1705345 0.1693182 0.1681612 0.1670607 0.166015 0.16501 0.1640355 0.163114 0.1622914
 0.1615939 0.1610029 0.1604752 0.1599857 0.1595479 0.1591917 0.1589376 0.1587969 0.1587728 0.1588325
 0.1588991 0.1589012 0.1588254 0.1587077 0.1585877 0.1584805 0.1583852 0.1583051 0.1582473 0.1581924
 0.1580721 0.1577864 0.1572379 0.1563562 0.1551204 0.1535742 0.1518104 0.1499475 0.1481217 0.1464625
 0.1450464 0.1438904 0.1429844 0.1422995 0.1417794 0.1413704 0.1410621 0.1408869 0.1408885 0.1410715
 0.1413437 0.1415457 0.1415987 0.1416016 0.1417431 0.142142 0.1427838 0.143556 0.1443207 0.1449851
 0.1455148 0.1458953 0.1461265 0.1462457 0.1462954 0.1462716 0.14615 0.1459363 0.1456576 0.1453346
 0.1449764 0.1445678 0.1440725 0.1434774 0.1428021 0.1420562 0.1412367 0.1403496 0.1393716 0.1382503
 0.1370325 0.1359437 0.1352622 0.1351434 0.1355616 0.136349 0.1373054 0.1383227 0.1393398 0.1401649
 0.1405424 0.1405419 0.1407388 0.1417891 0.1438038 0.1462286 0.1483422 0.1497717 0.1505128 0.1506459
 0.150219 0.1492915 0.1478807 0.1459274 0.1434443 0.1405941 0.1375504 0.1344397 0.1314358 0.128723
 0.1263921 0.1244826 0.1230279 0.1220755 0.1217308 0.1215904 0.1197326 0.1137139 0.1043414 0.09734457
 0.09854502 0.1073034 0.1169797 0.1219491 0.1220755 0.1203728 0.1189045 0.1179569 0.1174077 0.1174139
 0.1181238 0.1193915 0.1208125 0.121974 0.1227102 0.1230696 0.1230234 0.1222138 0.1198942 0.1151999
 0.107841 0.09869072 0.08948797 0.08183271 0.07646778 0.0732878 0.07168284 0.07089011 0.07036215 0.07003135
 0.07022014 0.0712588 0.07320413 0.07589529 0.0791281 0.08263792 0.08600634 0.08881846 0.09096127 0.0926245
 0.0939835 0.09500715 0.09558123 0.09567927 0.09537183 0.0947676 0.09399438 0.09316202 0.09227356 0.09122267
 0.08997843 0.08875407 0.08787298 0.08745601 0.08734874 0.08734812 0.08736918 0.08739272 0.08738962 0.08733504
 0.08723909 0.0871689 0.08724799 0.08756387 0.08805177 0.08852637 0.08883947 0.08898188 0.08904509 0.08907127
 0.08892137 0.08839644 0.08756886 0.08681158 0.08631653 0.08576915 0.08476885 0.08345358 0.08242315 0.08207873
 0.08226578 0.08255133 0.08263648 0.0824745 0.08221105 0.08212774 0.08246948 0.08314198 0.08367823 0.08367611
</values></Ydata></ScRf><Data_Parameters_AB><parameter name="DPF">1</parameter><parameter name="NPT">3497</parameter><parameter name="FXV">3996</parameter><parameter name="LXV">500</parameter><parameter name="CSF">1</parameter><parameter name="MXY">0.0460958145558834</parameter><parameter name="MNY">-0.108495697379112</parameter><parameter name="DAT">31/05/2022</parameter><parameter name="TIM">13:44:43.615 (GMT+2)</parameter><parameter name="DXU">WN</parameter></Data_Parameters_AB><AB__Qtest><MainReport name="Quality Test Report"><Header><Line><Legend>Test result ok/not ok [1/0]: </Legend><Value>0</Value></Line><Line><Legend>Method file: </Legend><Value>C:\Users\Public\Documents\Bruker\OPUS_8.2.28\QT\IRBT_v3_default.QT</Value></Line></Header><Matrix><Line><Legend></Legend><Legend>min</Legend><Legend>max</Legend><Legend>measured</Legend></Line><Line><Value>Absorption (X-Range 1):</Value><Value>0.400000</Value><Value>2.000000</Value><Value>0.102319</Value></Line><Line><Value>Noise (X-Range 4):</Value><Value></Value><Value>0.000300</Value><Value>0.000035</Value></Line><Line><Value>Signal/Noise (X-Range 2):</Value><Value>200.000000</Value><Value></Value><Value>32.435172</Value></Line><Line><Value>Signal/Noise (X-Range 3):</Value><Value>40.000000</Value><Value></Value><Value>26.245182</Value></Line><Line><Value>Water vapour (X-Range 5):</Value><Value></Value><Value>0.000300</Value><Value>0.000047</Value></Line><Line><Value>Signal/Water (X-Range 2):</Value><Value>100.000000</Value><Value></Value><Value>24.262222</Value></Line><Line><Value>Signal/Water (X-Range 3):</Value><Value>20.000000</Value><Value></Value><Value>19.631973</Value></Line><Line><Value>Fringes (X-Range 6):</Value><Value></Value><Value>0.000100</Value><Value>0.000051</Value></Line></Matrix></MainReport></AB__Qtest><Data_Parameters_ScSm><parameter name="DPF">1</parameter><parameter name="NPT">1814</parameter><parameter name="FXV">3996.33169228125</parameter><parameter name="LXV">499.541461535156</parameter><parameter name="CSF">1</parameter><parameter name="MXY">0.28827702999115</parameter><parameter name="MNY">0.0370729826390743</parameter><parameter name="DAT">31/05/2022</parameter><parameter name="TIM">13:44:43.615 (GMT+2)</parameter><parameter name="DXU">WN</parameter></Data_Parameters_ScSm><Data_Parameters_ScRf><parameter name="DPF">1</parameter><parameter name="NPT">1820</parameter><parameter name="FXV">4004.04661832813</parameter><parameter name="LXV">495.683998511719</parameter><parameter name="CSF">1</parameter><parameter name="MXY">0.265012323856354</parameter><parameter name="MNY">0.0293083135038614</parameter><parameter name="DAT">31/05/2022</parameter><parameter name="TIM">13:44:18.094 (GMT+2)</parameter><parameter name="DXU">WN</parameter></Data_Parameters_ScRf><Optic_Parameters_Rf><parameter name="APR">0</parameter><parameter name="APT">Open</parameter><parameter name="BMS">KBr</parameter><parameter name="DTC">RT-DLaTGS_IR-Biotyper [Microplate reader]</parameter><parameter name="HPF">0</parameter><parameter name="LPF">10.0</parameter><parameter name="LPV">4000</parameter><parameter name="PGR">0</parameter><parameter name="RCH">Module port</parameter><parameter name="RDX">0</parameter><parameter name="SRC">MIR</parameter><parameter name="VEL">10.0</parameter><parameter name="SON">Off</parameter></Optic_Parameters_Rf><Acquisition_Parameters_Rf><parameter name="ADT">1</parameter><parameter name="AQM">DD</parameter><parameter name="CFE">0</parameter><parameter name="COR">0</parameter><parameter name="DEL">0</parameter><parameter name="DLY">0</parameter><parameter name="HFW">8000</parameter><parameter name="LFW">0</parameter><parameter name="NSR">32</parameter><parameter name="PLF">AB</parameter><parameter name="RES">6</parameter><parameter name="RGN">-1</parameter><parameter name="STR">0</parameter><parameter name="TCL">MakeCompatibleScalar (0, {WSV=1.000000, ARV=0});</parameter><parameter name="TDL">37</parameter><parameter name="RPO">0</parameter></Acquisition_Parameters_Rf><FT_-_Parameters_Rf><parameter name="APF">B3</parameter><parameter name="HFQ">500</parameter><parameter name="LFQ">4000</parameter><parameter name="NLI">0</parameter><parameter name="PHR">24</parameter><parameter name="PHZ">ML</parameter><parameter name="SPZ">NO</parameter><parameter name="ZFF">1</parameter></FT_-_Parameters_Rf><Optic_Parameters_><parameter name="APR">0</parameter><parameter name="APT">Open</parameter><parameter name="BMS">KBr</parameter><parameter name="CHN">Module port</parameter><parameter name="DTC">RT-DLaTGS_IR-Biotyper [Microplate reader]</parameter><parameter name="HPF">0</parameter><parameter name="LPF">10.0</parameter><parameter name="LPV">4000</parameter><parameter name="PGN">0</parameter><parameter name="RDX">0</parameter><parameter name="SRC">MIR</parameter><parameter name="VEL">10.0</parameter><parameter name="SON">Off</parameter></Optic_Parameters_><FT_-_Parameters_><parameter name="APF">B3</parameter><parameter name="HFQ">500</parameter><parameter name="LFQ">4000</parameter><parameter name="NLI">0</parameter><parameter name="PHR">24</parameter><parameter name="PHZ">ML</parameter><parameter name="SPZ">NO</parameter><parameter name="ZFF">1</parameter></FT_-_Parameters_><Acquisition_Parameters_><parameter name="ADT">1</parameter><parameter name="AQM">DD</parameter><parameter name="CFE">0</parameter><parameter name="COR">0</parameter><parameter name="DEL">0</parameter><parameter name="DLY">0</parameter><parameter name="HFW">8000</parameter><parameter name="LFW">0</parameter><parameter name="NSS">32</parameter><parameter name="PLF">AB</parameter><parameter name="RES">6</parameter><parameter name="SOT">0</parameter><parameter name="TCL">MakeCompatibleScalar (0, {WSV=1.000000, ARV=0});</parameter><parameter name="TDL">37</parameter><parameter name="SPO">0</parameter><parameter name="SGN">-1</parameter></Acquisition_Parameters_><Instrument_Parameters_Rf><parameter name="HFL">15800.168544</parameter><parameter name="LFL">0</parameter><parameter name="LWN">15800.168544</parameter><parameter name="ABP">32197</parameter><parameter name="SSP">1</parameter><parameter name="ARG">2</parameter><parameter name="ASG">2</parameter><parameter name="ASS">32</parameter><parameter name="GFW">16</parameter><parameter name="GBW">16</parameter><parameter name="BFW">0</parameter><parameter name="BBW">0</parameter><parameter name="PKA">7260</parameter><parameter name="PKL">4996</parameter><parameter name="PRA">7444</parameter><parameter name="PRL">5001</parameter><parameter name="P2A">1</parameter><parameter name="P2L">1</parameter><parameter name="P2R">1</parameter><parameter name="P2K">1</parameter><parameter name="DAQ">0</parameter><parameter name="AG2">1</parameter><parameter name="SSM">1</parameter><parameter name="RSN">25703</parameter><parameter name="CRR">0</parameter><parameter name="SRT">1654004658.094</parameter><parameter name="DUR">19.6379852294922</parameter><parameter name="TSC">29</parameter><parameter name="MVD">0.218370094895363</parameter><parameter name="AN1">0.225794386658834</parameter><parameter name="AN2">0</parameter><parameter name="VSN">2.485 Apr  4 2017</parameter><parameter name="SRN">0085</parameter><parameter name="CAM">0</parameter><parameter name="INS">IR-Biotyper</parameter><parameter name="FOC">69</parameter><parameter name="RDY">1</parameter><parameter name="ARS">32</parameter></Instrument_Parameters_Rf><Sample_Parameters_><parameter name="BLD"></parameter><parameter name="CNM">Admin</parameter><parameter name="CPY"></parameter><parameter name="DPM"></parameter><parameter name="EXP">IRBT_v3_32Scans.XPM</parameter><parameter name="LCT"></parameter><parameter name="SFM">Microplate, HTS-XT</parameter><parameter name="SNM">220531-1301_CGR32F (D_6)_G4_cfc606d2-8539-4328-8335-a6790d4f8a4c.0</parameter><parameter name="XPP">C:\Users\Public\Documents\Bruker\OPUS_8.2.28\XPM</parameter><parameter name="IST">OK</parameter><parameter name="CPG">1252</parameter><parameter name="UID">28b21c99-736c-4153-a0a0-d26046b430cb</parameter></Sample_Parameters_><Instrument_Parameters_><parameter name="HFL">15800.168544</parameter><parameter name="LFL">0</parameter><parameter name="LWN">15800.168544</parameter><parameter name="ABP">32197</parameter><parameter name="SSP">1</parameter><parameter name="ASG">2</parameter><parameter name="ARG">2</parameter><parameter name="ASS">32</parameter><parameter name="GFW">16</parameter><parameter name="GBW">16</parameter><parameter name="BFW">0</parameter><parameter name="BBW">0</parameter><parameter name="PKA">8284</parameter><parameter name="PKL">4988</parameter><parameter name="PRA">8597</parameter><parameter name="PRL">4993</parameter><parameter name="P2A">1</parameter><parameter name="P2L">1</parameter><parameter name="P2R">1</parameter><parameter name="P2K">1</parameter><parameter name="DAQ">0</parameter><parameter name="AG2">1</parameter><parameter name="SSM">1</parameter><parameter name="RSN">13477</parameter><parameter name="CRR">0</parameter><parameter name="SRT">1654004683.615</parameter><parameter name="DUR">19.6379852294922</parameter><parameter name="TSC">28.9</parameter><parameter name="MVD">0.208538442850113</parameter><parameter name="AN1">0.225795395933968</parameter><parameter name="AN2">0</parameter><parameter name="VSN">2.485 Apr  4 2017</parameter><parameter name="SRN">0085</parameter><parameter name="CAM">0</parameter><parameter name="INS">IR-Biotyper</parameter><parameter name="FOC">69</parameter><parameter name="RDY">1</parameter></Instrument_Parameters_><History/></OPUSDataFile>
