<?xml version="1.0" encoding="UTF-8" ?>
<OPUSDataFile><AB><Ydata ylabel="Absorbance Units"><values byteorder="INTEL" format="FLOAT32" numvalues="3497"> -0.07862733 -0.07862122 -0.07860997 -0.0785934 -0.07857411 -0.07855228 -0.07853323 -0.07851742 -0.07851203 -0.07851691
 -0.07853609 -0.07856701 -0.07860404 -0.0786424 -0.07866774 -0.07867834 -0.07866237 -0.07862768 -0.07857607 -0.07852208
 -0.07847799 -0.07845151 -0.07845286 -0.07847347 -0.07851435 -0.07855899 -0.07860312 -0.07863805 -0.07866074 -0.07867558
 -0.07868235 -0.07869001 -0.07869904 -0.07871268 -0.07873048 -0.07874744 -0.07876278 -0.07876906 -0.0787668 -0.07875332
 -0.07873092 -0.07870308 -0.0786729 -0.07864665 -0.07862692 -0.07861923 -0.0786241 -0.07864456 -0.07867717 -0.07872242
 -0.07877161 -0.07882282 -0.07886488 -0.07889421 -0.07890663 -0.0788995 -0.07888304 -0.07885745 -0.07883858 -0.07882732
 -0.07882828 -0.07884066 -0.07885426 -0.07886858 -0.07887423 -0.07887407 -0.07887314 -0.07887472 -0.07889035 -0.07891878
 -0.0789644 -0.07902141 -0.07908609 -0.07914992 -0.07920606 -0.0792457 -0.07926156 -0.07925168 -0.07921105 -0.07915201
 -0.0790747 -0.07899999 -0.07893076 -0.07888462 -0.07886345 -0.07888027 -0.07893592 -0.07903723 -0.07918283 -0.07935842
 -0.07955702 -0.07972899 -0.07986801 -0.07991769 -0.07989209 -0.07979155 -0.07964431 -0.07950088 -0.07937056 -0.07928812
 -0.07924038 -0.07922996 -0.07923749 -0.07925242 -0.07926433 -0.07926448 -0.0792596 -0.07924823 -0.07924615 -0.07925627
 -0.07928569 -0.07933663 -0.07939593 -0.07946303 -0.07951532 -0.07955292 -0.07957186 -0.079576 -0.0795879 -0.07961005
 -0.07966673 -0.07975075 -0.07986024 -0.07997902 -0.08007754 -0.0801492 -0.08016934 -0.08015392 -0.0801072 -0.08004482
 -0.07997914 -0.07990956 -0.07983674 -0.07976615 -0.07969502 -0.0796513 -0.07963819 -0.07968522 -0.07979836 -0.07996462
 -0.08018434 -0.08035282 -0.0804651 -0.08041715 -0.0802272 -0.07996203 -0.07964105 -0.07937682 -0.07916418 -0.0790469
 -0.07901176 -0.07905963 -0.07916919 -0.07932048 -0.07948357 -0.07962692 -0.07973482 -0.07978369 -0.07979258 -0.07976083
 -0.07971794 -0.07967387 -0.07963391 -0.07960133 -0.07956918 -0.07953639 -0.07950687 -0.07948072 -0.07946765 -0.07946747
 -0.0794787 -0.0794998 -0.07951962 -0.07953796 -0.07954821 -0.07955091 -0.07954513 -0.07952886 -0.07949728 -0.07945163
 -0.07938829 -0.07931875 -0.07924964 -0.07919481 -0.07916487 -0.07916412 -0.07919939 -0.07925919 -0.07934501 -0.07942978
 -0.07951001 -0.07955984 -0.07957492 -0.07955513 -0.07949994 -0.0794343 -0.07935908 -0.07929184 -0.07923006 -0.0791649
 -0.07909454 -0.07900479 -0.07890139 -0.07879002 -0.07868066 -0.07859503 -0.0785345 -0.07851369 -0.07851744 -0.0785404
 -0.07856221 -0.07856715 -0.07855261 -0.07850968 -0.07845917 -0.07840362 -0.07836628 -0.07835304 -0.07836755 -0.07841194
 -0.0784724 -0.07854825 -0.07862452 -0.07870081 -0.07876983 -0.07883179 -0.07888482 -0.07892864 -0.07896108 -0.07898199
 -0.07898881 -0.07898428 -0.07897107 -0.07895406 -0.07893991 -0.07893279 -0.07893781 -0.07895916 -0.07900004 -0.07906486
 -0.07915828 -0.07927329 -0.07941309 -0.07954866 -0.0796764 -0.07976809 -0.07981893 -0.07982984 -0.07980069 -0.07972818
 -0.07961173 -0.07943572 -0.0792058 -0.07895105 -0.07868309 -0.07846595 -0.07830121 -0.0782302 -0.07823684 -0.07831819
 -0.07844116 -0.0785621 -0.07866307 -0.07870546 -0.07871156 -0.07868285 -0.07864335 -0.0786069 -0.07857171 -0.07854264
 -0.07850024 -0.07844143 -0.07835395 -0.07823437 -0.07809668 -0.07794122 -0.07779791 -0.07766809 -0.07757642 -0.07752233
 -0.07751632 -0.07755245 -0.07761665 -0.07769509 -0.0777421 -0.07775422 -0.07769669 -0.07759252 -0.07745706 -0.07730857
 -0.07717334 -0.07704389 -0.07692519 -0.0768003 -0.07666053 -0.07650689 -0.07633457 -0.07616512 -0.07600185 -0.07585979
 -0.07574272 -0.07563905 -0.07554876 -0.07543764 -0.07530446 -0.07512458 -0.07490268 -0.07466067 -0.07440476 -0.07417462
 -0.07396682 -0.07379225 -0.07364564 -0.07352205 -0.07341882 -0.07333282 -0.07325608 -0.07318332 -0.07310033 -0.07299706
 -0.07286528 -0.07269979 -0.07249513 -0.0722508 -0.07195292 -0.07159705 -0.07118641 -0.07071835 -0.07022618 -0.06971179
 -0.0692055 -0.06870825 -0.0682334 -0.06778161 -0.06736453 -0.06698234 -0.06664448 -0.06634574 -0.06607831 -0.06583428
 -0.06559528 -0.06535701 -0.06510928 -0.0648423 -0.06454757 -0.06420712 -0.06380192 -0.06334271 -0.06282233 -0.0622831
 -0.06173784 -0.06120363 -0.06068769 -0.06018231 -0.05968715 -0.05919764 -0.05871325 -0.0582381 -0.05777275 -0.05732967
 -0.0569093 -0.05652452 -0.05616855 -0.05582568 -0.05547671 -0.05505655 -0.05456351 -0.05394828 -0.0532599 -0.05254249
 -0.05183383 -0.05119386 -0.05060599 -0.05008089 -0.04958419 -0.04910283 -0.04861713 -0.04811605 -0.04760506 -0.04708287
 -0.0465611 -0.04604249 -0.04551854 -0.04498934 -0.04442769 -0.04383294 -0.04319412 -0.0425156 -0.04182639 -0.0411307
 -0.04046415 -0.03982277 -0.03921435 -0.03863225 -0.03806752 -0.0375158 -0.03696856 -0.03642121 -0.03586584 -0.035303
 -0.03472933 -0.03415189 -0.03357582 -0.03299394 -0.03240956 -0.03179297 -0.03113709 -0.03043324 -0.02967486 -0.02891147
 -0.02814564 -0.02743163 -0.02677011 -0.02615976 -0.02559621 -0.02504442 -0.02450242 -0.02394164 -0.02336643 -0.02277232
 -0.02216862 -0.02157192 -0.02098609 -0.02042765 -0.01988339 -0.01935134 -0.01880586 -0.01822844 -0.017609 -0.01693225
 -0.01622305 -0.01548272 -0.01474656 -0.0140223 -0.01332825 -0.01266883 -0.01204086 -0.01144507 -0.01085775 -0.01027759
 -0.009677758 -0.009059023 -0.008415226 -0.007749074 -0.007070168 -0.006378145 -0.005676465 -0.004964571 -0.004240463 -0.003510632
 -0.002782217 -0.002062449 -0.001362629 -0.000679919 -1.681427E-05 0.000634095 0.001277051 0.001910517 0.002536341 0.003144697
 0.003733114 0.004299675 0.004841868 0.005380142 0.005915334 0.006477498 0.007067403 0.007692861 0.008350739 0.009017922
 0.009692401 0.01035113 0.01099863 0.01163622 0.01226817 0.01290556 0.01354481 0.01418687 0.01482414 0.01544928
 0.01605875 0.01664637 0.01721726 0.01777047 0.01831775 0.01886243 0.01941241 0.01997095 0.02053449 0.02110342
 0.02166967 0.02223261 0.02278907 0.02333897 0.02388209 0.0244185 0.02494799 0.02547132 0.02599188 0.02651022
 0.02703016 0.02755092 0.02807234 0.02859476 0.0291184 0.02964413 0.03017459 0.03070463 0.03123277 0.03175127
 0.03225492 0.0327448 0.03321932 0.03368499 0.03414343 0.03459502 0.03503976 0.03547943 0.03591369 0.0363567
 0.03680907 0.03728197 0.03777372 0.03827504 0.03878267 0.03927606 0.03975473 0.04020571 0.04063243 0.04103449
 0.04141809 0.04179107 0.04215936 0.04253227 0.04291021 0.04329696 0.04368866 0.04408438 0.04448139 0.04487927
 0.04527349 0.04566374 0.04604245 0.04640809 0.04676054 0.04709933 0.04743419 0.0477655 0.04809851 0.04843314
 0.0487695 0.04910931 0.04946117 0.04982613 0.05021446 0.05061991 0.05103562 0.05145367 0.0518579 0.05225014
 0.05262581 0.05299002 0.05334817 0.0536922 0.05402207 0.05432155 0.05458308 0.05480819 0.05499184 0.05516412
 0.05532691 0.05551688 0.05573769 0.05599916 0.05630106 0.05662034 0.05695526 0.0572798 0.05759556 0.05789724
 0.05818596 0.05846398 0.0587276 0.05896929 0.05918852 0.05937781 0.0595483 0.05970673 0.05986665 0.0600415
 0.06023107 0.0604416 0.06065787 0.06087717 0.06108395 0.0612733 0.06144327 0.06159175 0.06173135 0.06186292
 0.06199584 0.06213011 0.06225479 0.06236852 0.0624523 0.06250874 0.06253875 0.06254973 0.06256554 0.06258939
 0.06264213 0.06271631 0.06281193 0.06291632 0.06301519 0.0631055 0.06317587 0.06324428 0.06331241 0.06341039
 0.0635501 0.06374222 0.06399705 0.06428035 0.06459266 0.06487048 0.06510875 0.06526205 0.06532901 0.06531673
 0.06522982 0.0651153 0.06497646 0.06485511 0.06474849 0.06466824 0.06461406 0.06458851 0.06459806 0.06465696
 0.06475877 0.064911 0.06507888 0.06524298 0.06537048 0.06543306 0.06544505 0.06539783 0.06534394 0.06529362
 0.06528195 0.06531877 0.06538969 0.06549587 0.06559163 0.0656747 0.06570455 0.06568225 0.06559981 0.06546531
 0.06531242 0.06515276 0.06504138 0.06498207 0.06501456 0.06512374 0.06531117 0.06554295 0.06578866 0.06601328
 0.06617933 0.06628082 0.06629694 0.06626515 0.06618857 0.06611988 0.06607214 0.06607243 0.06612784 0.06623663
 0.06639915 0.06661449 0.06688264 0.06720857 0.06758946 0.06800316 0.06843868 0.06882879 0.06916383 0.06937113
 0.0694635 0.0694233 0.06929136 0.06911711 0.06894121 0.06883099 0.06878569 0.06883679 0.06893405 0.06906722
 0.06917282 0.06922667 0.06919397 0.06905807 0.06883152 0.06850951 0.0681451 0.0677412 0.06735963 0.06700332
 0.0667014 0.06645144 0.06623825 0.06605812 0.06588189 0.06571265 0.06554376 0.06538322 0.06524857 0.06513624
 0.06505711 0.06498085 0.06488636 0.06473026 0.06447063 0.06409638 0.06357922 0.06296846 0.06226652 0.06155122
 0.06084039 0.06018469 0.05959618 0.05908148 0.05864344 0.05826091 0.05793262 0.05761915 0.05731821 0.05698843
 0.05663349 0.05624787 0.05584334 0.05545796 0.05509439 0.05478389 0.05450627 0.05424683 0.0539811 0.0536727
 0.0533229 0.0529143 0.05247759 0.05201962 0.05157949 0.0511724 0.05082072 0.05053712 0.05030319 0.05012315
 0.04993467 0.04973346 0.04945881 0.04910794 0.04868067 0.0481822 0.04767133 0.04715189 0.04667798 0.04624239
 0.04585085 0.04549247 0.04514408 0.04480382 0.04445706 0.04411003 0.04376473 0.04342428 0.04309361 0.04276744
 0.0424453 0.04211913 0.04178569 0.0414415 0.04108439 0.0407178 0.04034162 0.03996171 0.03957872 0.0391943
 0.03880852 0.03841719 0.03802044 0.03761661 0.03720833 0.03680801 0.03642021 0.03606861 0.03575147 0.0354813
 0.03524241 0.03501923 0.03478967 0.03452183 0.03420904 0.03382993 0.03340678 0.03294066 0.03246889 0.03200557
 0.03157109 0.03117668 0.03080837 0.03046783 0.03012292 0.02977072 0.0293909 0.0289824 0.02855047 0.02809658
 0.02763948 0.02717998 0.02673249 0.02629553 0.02587203 0.02545958 0.02505373 0.02465393 0.02425672 0.02386415
 0.02347666 0.02309762 0.02272804 0.02237579 0.02204229 0.0217442 0.021488 0.02128372 0.02114101 0.02102939
 0.02095169 0.02083237 0.02066551 0.02038359 0.019983 0.0194668 0.01884154 0.0181862 0.01751097 0.01691691
 0.01640245 0.01602385 0.01575559 0.01557442 0.01543946 0.01527287 0.0150562 0.01472642 0.01432083 0.01383824
 0.01334525 0.01288185 0.01247002 0.01213697 0.01183794 0.01156721 0.01128628 0.01098134 0.01068796 0.01040567
 0.01020651 0.01009425 0.01008122 0.01016068 0.01025185 0.01034385 0.01032855 0.01021002 0.009937747 0.009538221
 0.00904341 0.008486437 0.007937503 0.007407976 0.006943577 0.006524975 0.006152393 0.005805259 0.005466814 0.005147263
 0.004844811 0.004578832 0.004359205 0.004166969 0.004004184 0.003823453 0.003618922 0.003379726 0.003105004 0.002841334
 0.002591156 0.002400968 0.002265621 0.002179641 0.002133414 0.00208825 0.002042769 0.001972208 0.001885302 0.001785787
 0.001680208 0.00158215 0.001480432 0.001377467 0.001240503 0.001054704 0.0007898768 0.0004244659 -2.553088E-05 -0.0005707552
 -0.001133574 -0.00170712 -0.002202615 -0.002608117 -0.002902724 -0.003084526 -0.003224736 -0.003329245 -0.003497149 -0.003726018
 -0.00405655 -0.004471395 -0.004931772 -0.005419682 -0.005870269 -0.006282245 -0.006620991 -0.006901802 -0.007126824 -0.007316275
 -0.007485928 -0.007651931 -0.007827649 -0.008019469 -0.008234993 -0.008465218 -0.008710499 -0.0089556 -0.009196484 -0.00943554
 -0.009671137 -0.009928666 -0.01020953 -0.01052848 -0.01088338 -0.01124755 -0.0116163 -0.01194373 -0.01223494 -0.01247985
 -0.0126956 -0.01292001 -0.01316174 -0.01345889 -0.01379409 -0.01416613 -0.01454583 -0.01490748 -0.01523871 -0.01552343
 -0.01576733 -0.01597026 -0.0161331 -0.01625731 -0.01633554 -0.01636489 -0.01635395 -0.01630085 -0.01624595 -0.01619133
 -0.01619229 -0.01625036 -0.01639999 -0.01663597 -0.01694663 -0.01731974 -0.01770529 -0.01809279 -0.01843025 -0.01871783
 -0.01893101 -0.01907821 -0.01915964 -0.01918367 -0.01915655 -0.01908566 -0.01897504 -0.01883508 -0.01866914 -0.01848989
 -0.01830076 -0.01811193 -0.01792631 -0.01774483 -0.0175693 -0.01738092 -0.01717887 -0.01692414 -0.01661527 -0.01622143
 -0.01574739 -0.01520521 -0.0146061 -0.01399902 -0.01338987 -0.0128208 -0.01228435 -0.01178802 -0.01131982 -0.01086658
 -0.01042556 -0.00998846 -0.009561002 -0.009145211 -0.008742024 -0.00835363 -0.007973681 -0.007599181 -0.0072347 -0.006877313
 -0.006555998 -0.00627238 -0.006062497 -0.005928786 -0.005879816 -0.005914036 -0.006007106 -0.006156987 -0.006337758 -0.006551147
 -0.006792274 -0.007058964 -0.007348645 -0.007645587 -0.00792382 -0.008165325 -0.008334059 -0.008433239 -0.008447937 -0.008404119
 -0.008312314 -0.008192468 -0.008058422 -0.007904295 -0.007732818 -0.007527125 -0.007283702 -0.006998277 -0.006668864 -0.006308305
 -0.005917045 -0.005521284 -0.00512302 -0.004757518 -0.004425654 -0.004153425 -0.003934972 -0.003763861 -0.003629278 -0.003498189
 -0.003369931 -0.003220785 -0.003074875 -0.00294253 -0.002872873 -0.002901778 -0.003090536 -0.003481672 -0.004119603 -0.005040082
 -0.006226657 -0.007697379 -0.009347818 -0.01117367 -0.01301742 -0.01486338 -0.0165849 -0.01817251 -0.01959057 -0.02084118
 -0.02196113 -0.02295418 -0.02386391 -0.0246882 -0.02544014 -0.0261191 -0.02672606 -0.02727126 -0.02777123 -0.02823926
 -0.02870131 -0.02915531 -0.02961252 -0.0300538 -0.03047139 -0.03084991 -0.03117869 -0.03146149 -0.03169581 -0.03189514
 -0.0320623 -0.03220129 -0.03231408 -0.03238694 -0.03241925 -0.03238983 -0.03229906 -0.03214893 -0.0319473 -0.03174625
 -0.03155927 -0.03147031 -0.03148108 -0.03164653 -0.03194226 -0.03235695 -0.03284973 -0.03336704 -0.03387671 -0.03433127
 -0.03472174 -0.03502702 -0.03525848 -0.03541449 -0.03551243 -0.03555768 -0.03555681 -0.03551317 -0.03541834 -0.03527036
 -0.03507552 -0.03483282 -0.03460967 -0.03441315 -0.03437477 -0.0345012 -0.03491186 -0.03559028 -0.03654712 -0.03773491
 -0.03904093 -0.04041569 -0.04171252 -0.0429227 -0.0439666 -0.04488277 -0.04567488 -0.0463875 -0.04705236 -0.04768212
 -0.04829184 -0.0488721 -0.04942178 -0.04993908 -0.05042247 -0.05087902 -0.05130972 -0.05171517 -0.05209557 -0.05244576
 -0.05276576 -0.05305618 -0.05331809 -0.05355918 -0.05378081 -0.05399237 -0.05419479 -0.054396 -0.05459438 -0.0547917
 -0.05498336 -0.05516324 -0.05533107 -0.05548122 -0.05562536 -0.05576751 -0.05592164 -0.05609765 -0.05629008 -0.0565034
 -0.05670953 -0.05690431 -0.05706519 -0.05718709 -0.05727953 -0.05734229 -0.05740683 -0.05747414 -0.0575618 -0.05766725
 -0.05777904 -0.05789546 -0.05800075 -0.05810102 -0.0582036 -0.05831694 -0.05846313 -0.05863871 -0.0588525 -0.05908647
 -0.05932932 -0.05956216 -0.05976951 -0.05994366 -0.06007623 -0.06017162 -0.06022697 -0.06025994 -0.06027079 -0.06029032
 -0.06032174 -0.06039118 -0.06050115 -0.06064897 -0.06083339 -0.06102596 -0.06122508 -0.06140478 -0.06156709 -0.06170631
 -0.06182584 -0.06193229 -0.06202712 -0.06211606 -0.06219939 -0.06227965 -0.0623569 -0.0624327 -0.06250481 -0.06257307
 -0.0626329 -0.06268175 -0.06271907 -0.06274207 -0.06276213 -0.06277948 -0.0628132 -0.06286599 -0.06294657 -0.06305619
 -0.06318168 -0.06332199 -0.06345519 -0.0635817 -0.06369409 -0.06379558 -0.06389657 -0.06399836 -0.06411179 -0.06423191
 -0.06435597 -0.06447524 -0.06457669 -0.06465584 -0.06470115 -0.06472093 -0.06471309 -0.06469951 -0.06468735 -0.06469867
 -0.06474283 -0.0648248 -0.0649494 -0.06510088 -0.06527904 -0.06545934 -0.06564007 -0.06580348 -0.0659492 -0.06607378
 -0.06617855 -0.06627221 -0.06635635 -0.06644276 -0.06653112 -0.06662736 -0.06672878 -0.06683327 -0.06693772 -0.06703687
 -0.06712958 -0.06721206 -0.06728704 -0.06735433 -0.06741938 -0.06748454 -0.06755327 -0.067628 -0.06770576 -0.0677868
 -0.06786532 -0.06794031 -0.06801133 -0.06807809 -0.06814685 -0.06821782 -0.06829511 -0.06837767 -0.06845904 -0.06853719
 -0.06859875 -0.06864432 -0.06866675 -0.0686722 -0.06866786 -0.0686622 -0.06867009 -0.06869514 -0.06874736 -0.06882255
 -0.0689221 -0.06903748 -0.06916618 -0.0692988 -0.06943264 -0.06955918 -0.06967617 -0.06977966 -0.06986837 -0.06994597
 -0.0700125 -0.07007463 -0.0701326 -0.07018969 -0.07024589 -0.07030217 -0.07035894 -0.07041857 -0.07048137 -0.07054994
 -0.07062329 -0.07070091 -0.0707815 -0.07086279 -0.07094464 -0.07102592 -0.07110742 -0.07118955 -0.07127215 -0.07135587
 -0.07143801 -0.07151867 -0.07159194 -0.07165684 -0.07170783 -0.0717435 -0.07176642 -0.0717763 -0.07178609 -0.07179648
 -0.07182115 -0.07185972 -0.07191531 -0.07198627 -0.07206687 -0.072156 -0.07224762 -0.07234117 -0.07243324 -0.07252242
 -0.07260516 -0.07268121 -0.07274811 -0.07280917 -0.07286562 -0.07292083 -0.0729773 -0.07303397 -0.07309118 -0.07314691
 -0.07320018 -0.07325388 -0.07330813 -0.07336682 -0.07343051 -0.07349581 -0.0735624 -0.07362128 -0.07367239 -0.07371076
 -0.07373801 -0.07375852 -0.07377477 -0.07379658 -0.07382473 -0.07386639 -0.07391884 -0.07398201 -0.07405116 -0.07412164
 -0.07419059 -0.0742542 -0.07431331 -0.07436733 -0.07441768 -0.07446501 -0.07450853 -0.07454815 -0.07458321 -0.07461325
 -0.07464174 -0.07466878 -0.07470094 -0.07473846 -0.07478415 -0.07483733 -0.07489332 -0.07495104 -0.07500248 -0.07504824
 -0.07508526 -0.07511631 -0.0751456 -0.07517508 -0.07521023 -0.07524909 -0.07529253 -0.07533593 -0.07537621 -0.07541104
 -0.07543767 -0.07545909 -0.07547508 -0.07549115 -0.07550859 -0.07552989 -0.07555585 -0.07558456 -0.07561593 -0.07564835
 -0.07568184 -0.07571901 -0.0757601 -0.07580878 -0.07586419 -0.0759247 -0.07598791 -0.07604558 -0.07609639 -0.07613249
 -0.07615696 -0.07616959 -0.07617702 -0.07618605 -0.07620023 -0.07622585 -0.07625762 -0.07629576 -0.07633083 -0.07635918
 -0.07637797 -0.07638478 -0.07638636 -0.07638308 -0.07638238 -0.07638507 -0.0763925 -0.07640467 -0.07641905 -0.0764357
 -0.07645421 -0.07647518 -0.07650125 -0.07653292 -0.0765732 -0.07662182 -0.07668 -0.07674636 -0.07682009 -0.07689819
 -0.07697817 -0.07705534 -0.07712574 -0.07718648 -0.07723403 -0.07727202 -0.0772998 -0.07732602 -0.0773527 -0.077384
 -0.07742156 -0.07745957 -0.07749783 -0.07752797 -0.07754972 -0.07756326 -0.07756949 -0.07757717 -0.07758685 -0.0776066
 -0.07763468 -0.07767052 -0.07771083 -0.07774811 -0.07778107 -0.07780349 -0.07781868 -0.07782694 -0.07783365 -0.07784294
 -0.07785723 -0.0778794 -0.07790747 -0.07794172 -0.07797881 -0.0780183 -0.07805635 -0.07809252 -0.07812279 -0.07814667
 -0.07816371 -0.07817402 -0.07818336 -0.07819226 -0.07820821 -0.07823075 -0.07826194 -0.07829999 -0.07834033 -0.07838187
 -0.07841941 -0.07845461 -0.0784873 -0.07852028 -0.07855716 -0.07859717 -0.07864227 -0.07868636 -0.07872721 -0.0787595
 -0.07878003 -0.07879076 -0.07879076 -0.07878746 -0.07878185 -0.07877865 -0.07877854 -0.07878004 -0.07878304 -0.07878344
 -0.07878128 -0.07877529 -0.07876634 -0.07875833 -0.07875215 -0.07875312 -0.07876056 -0.07877594 -0.07879712 -0.07882138
 -0.07884751 -0.07887308 -0.07889803 -0.07892186 -0.07894365 -0.07896313 -0.07897836 -0.07898825 -0.0789933 -0.07899283
 -0.07899095 -0.07898795 -0.07898857 -0.07899337 -0.07900371 -0.07901965 -0.07903793 -0.07905816 -0.0790748 -0.07908798
 -0.07909507 -0.07909752 -0.07909858 -0.0790996 -0.07910582 -0.07911608 -0.07913173 -0.07914895 -0.07916413 -0.07917485
 -0.07917695 -0.079174 -0.07916572 -0.0791591 -0.07915708 -0.07916114 -0.07917316 -0.0791866 -0.07920086 -0.07921006
 -0.07921328 -0.07921361 -0.07921124 -0.07921306 -0.07921905 -0.07923109 -0.07924897 -0.07927182 -0.0793012 -0.07934104
 -0.07939446 -0.07947044 -0.07957048 -0.07970153 -0.07986153 -0.08005127 -0.08026741 -0.08050688 -0.08077041 -0.08105598
 -0.08137122 -0.08171804 -0.08210322 -0.0825302 -0.08299357 -0.08349466 -0.08401413 -0.08455084 -0.08508351 -0.08561091
 -0.08611272 -0.08658641 -0.08700044 -0.087348 -0.08757716 -0.08768018 -0.08759931 -0.08734174 -0.08688061 -0.08626334
 -0.08553965 -0.08477961 -0.08408115 -0.08347366 -0.08301505 -0.08269178 -0.08251277 -0.08245619 -0.0825187 -0.08267465
 -0.08292382 -0.08321303 -0.08353899 -0.0838245 -0.08406133 -0.08421536 -0.08428488 -0.08429468 -0.08424649 -0.08416735
 -0.08405668 -0.08392411 -0.08376971 -0.08359747 -0.08341109 -0.08321965 -0.08302921 -0.08285511 -0.08269548 -0.08255779
 -0.08242708 -0.08229484 -0.08214887 -0.08197669 -0.08178803 -0.08158129 -0.08137665 -0.08117965 -0.08099737 -0.08083262
 -0.08067949 -0.08053759 -0.08040359 -0.08027735 -0.08016191 -0.08005727 -0.07996462 -0.07988295 -0.07980712 -0.07973646
 -0.07966553 -0.07959539 -0.07952564 -0.07945793 -0.07939509 -0.07933702 -0.07928506 -0.0792376 -0.07919355 -0.07915255
 -0.07911411 -0.07907828 -0.07904579 -0.07901292 -0.07897934 -0.07893988 -0.07889309 -0.07884052 -0.07878172 -0.07872573
 -0.07867303 -0.07863018 -0.07859685 -0.07857087 -0.07855143 -0.07853264 -0.0785148 -0.0784956 -0.07847642 -0.07845946
 -0.07844532 -0.07843661 -0.07843158 -0.07842985 -0.07842814 -0.07842363 -0.07841499 -0.07840011 -0.07838141 -0.0783592
 -0.07833618 -0.0783134 -0.07829044 -0.07826757 -0.07824249 -0.07821498 -0.07818361 -0.07814828 -0.07810992 -0.07806886
 -0.07802936 -0.07799207 -0.07796331 -0.07794266 -0.07793274 -0.07793089 -0.0779324 -0.07793481 -0.07793122 -0.0779229
 -0.07790813 -0.07789029 -0.077872 -0.07785378 -0.07783712 -0.07781968 -0.0778005 -0.07777962 -0.07775627 -0.0777343
 -0.07771426 -0.07769842 -0.07768729 -0.07767863 -0.07767233 -0.07766519 -0.07765724 -0.0776477 -0.07763673 -0.07762483
 -0.0776119 -0.07759778 -0.0775824 -0.07756543 -0.07754716 -0.07752772 -0.07750782 -0.07748798 -0.07746951 -0.07745372
 -0.07744105 -0.07743284 -0.07742625 -0.07742086 -0.07741292 -0.07740079 -0.07738575 -0.07736726 -0.07735098 -0.07733759
 -0.07732843 -0.07732363 -0.07731871 -0.07731359 -0.07730596 -0.07729655 -0.0772889 -0.07728337 -0.07728352 -0.07728853
 -0.07729815 -0.07731175 -0.07732817 -0.07734706 -0.07736822 -0.0773894 -0.07740936 -0.07742446 -0.07743199 -0.07743127
 -0.07742037 -0.07740429 -0.0773833 -0.07736483 -0.07735034 -0.07734305 -0.07734381 -0.07734908 -0.07735872 -0.07736679
 -0.07737321 -0.07737534 -0.0773736 -0.07736923 -0.07736237 -0.0773542 -0.07734461 -0.07733364 -0.07732183 -0.07730985
 -0.07729879 -0.07729023 -0.07728465 -0.07728326 -0.07728511 -0.0772903 -0.07729694 -0.0773044 -0.07731117 -0.07731656
 -0.07732083 -0.07732376 -0.07732712 -0.07733113 -0.07733626 -0.07734257 -0.07734785 -0.07735196 -0.07735228 -0.07734903
 -0.07734217 -0.07733239 -0.07732223 -0.07731231 -0.07730541 -0.07730182 -0.07730331 -0.07730986 -0.07732268 -0.07733997
 -0.07736145 -0.07738289 -0.07740211 -0.07741543 -0.07742002 -0.07741802 -0.07740858 -0.07739897 -0.07739031 -0.07738752
 -0.07739156 -0.07740056 -0.07741448 -0.0774285 -0.07744247 -0.07745319 -0.07746068 -0.07746346 -0.07746196 -0.07745659
 -0.07744896 -0.0774429 -0.07744026 -0.07744651 -0.07746088 -0.07748556 -0.0775163 -0.07755063 -0.07758425 -0.07761333
 -0.07763837 -0.07765815 -0.07767631 -0.07769415 -0.0777111 -0.07772806 -0.07773792 -0.07773996 -0.07772958 -0.07770637
 -0.07767662 -0.07764103 -0.07761133 -0.07758737 -0.07757416 -0.07757018 -0.07757214 -0.07757901 -0.0775861 -0.077594
 -0.07760131 -0.07760967 -0.07762019 -0.07763501 -0.07765654 -0.07768506 -0.0777225 -0.07776447 -0.07781059 -0.07785357
 -0.07789125 -0.07791991 -0.07793804 -0.07794808 -0.07794996 -0.07794812 -0.0779428 -0.07793665 -0.07792976 -0.07792389
 -0.07791932 -0.07791898 -0.077923 -0.0779341 -0.07795084 -0.07797156 -0.07799342 -0.07801033 -0.07802142 -0.07802186
 -0.07801593 -0.07800482 -0.07799469 -0.07799019 -0.07799222 -0.07800324 -0.07801824 -0.07803649 -0.07805338 -0.0780676
 -0.07807931 -0.07808833 -0.07809607 -0.07810266 -0.07810652 -0.07810754 -0.0781033 -0.07809439 -0.0780832 -0.07807139
 -0.07806686 -0.07807033 -0.07808862 -0.07811916 -0.0781614 -0.07821051 -0.07826057 -0.07830776 -0.07834639 -0.07837615
 -0.07839455 -0.07840493 -0.07840747 -0.07840732 -0.07840593 -0.07840649 -0.07841025 -0.07841545 -0.07842227 -0.07842607
 -0.07842653 -0.07842187 -0.07841227 -0.07840131 -0.07838941 -0.0783816 -0.07837728 -0.07837728 -0.07837972 -0.07838002
 -0.07837729 -0.07836701 -0.07835144 -0.078331 -0.07830944 -0.07829056 -0.07827524 -0.07826566 -0.07825953 -0.07825638
 -0.07825456 -0.07825334 -0.0782529 -0.07825328 -0.07825392 -0.07825483 -0.07825483 -0.07825382 -0.07825155 -0.07824802
 -0.07824337 -0.07823755 -0.0782301 -0.07822099 -0.07820974 -0.0781965 -0.07818145 -0.07816473 -0.07814667 -0.07812741
 -0.07810719 -0.07808637 -0.07806496 -0.07804449 -0.07802545 -0.0780105 -0.07800105 -0.07799782 -0.07800221 -0.07800933
 -0.07801914 -0.07802319 -0.07802043 -0.0780059 -0.0779791 -0.07794214 -0.07789547 -0.07784717 -0.07779802 -0.07775781
 -0.07772647 -0.07770975 -0.07770547 -0.07771131 -0.07772393 -0.07773589 -0.07774574 -0.07774802 -0.07774421 -0.07773364
 -0.07771845 -0.07769995 -0.07767895 -0.07765619 -0.07763139 -0.07760438 -0.07757603 -0.07754611 -0.07751802 -0.07749211
 -0.07747094 -0.07745482 -0.07744059 -0.07742795 -0.07741062 -0.07738898 -0.0773624 -0.07733231 -0.07730462 -0.07727998
 -0.07726366 -0.07725425 -0.07725209 -0.07725424 -0.07725767 -0.07725836 -0.07725154 -0.07723525 -0.07720537 -0.07716725
 -0.07712098 -0.07707609 -0.07703587 -0.07700352 -0.07698122 -0.07696257 -0.07694739 -0.07692678 -0.07690001 -0.07686409
 -0.07681916 -0.07676927 -0.07671504 -0.07666309 -0.07661341 -0.07656986 -0.07653136 -0.07649671 -0.07646566 -0.07643667
 -0.07641136 -0.07639167 -0.07637756 -0.07637109 -0.07636717 -0.07636398 -0.07635505 -0.07633652 -0.07630757 -0.07626623
 -0.07621815 -0.0761638 -0.07610963 -0.07605661 -0.07600722 -0.07596181 -0.0759182 -0.07587636 -0.07583538 -0.07579594
 -0.07576323 -0.07573777 -0.075726 -0.07572491 -0.07573106 -0.0757379 -0.07573051 -0.07570703 -0.07565569 -0.07558656
 -0.07550353 -0.07541897 -0.07534342 -0.07527816 -0.07522809 -0.07518403 -0.07514425 -0.07510173 -0.07505371 -0.07500388
 -0.07495194 -0.07490596 -0.0748666 -0.07483643 -0.07481547 -0.07480233 -0.07479666 -0.07479601 -0.07479832 -0.07479418
 -0.07478014 -0.07474008 -0.07467587 -0.07458157 -0.07446548 -0.07433598 -0.07420015 -0.07406697 -0.07394165 -0.07382919
 -0.07373494 -0.07366346 -0.07361311 -0.07358673 -0.07356962 -0.07356053 -0.07354075 -0.07350738 -0.07345364 -0.07337858
 -0.07328743 -0.07318055 -0.07306584 -0.07294387 -0.07282239 -0.07270221 -0.07259124 -0.0724896 -0.07240245 -0.0723279
 -0.07226582 -0.07221144 -0.07215889 -0.07210284 -0.07203493 -0.0719566 -0.07186424 -0.07176768 -0.07167023 -0.07157966
 -0.07150036 -0.07142927 -0.07136744 -0.07130515 -0.07124132 -0.07116908 -0.07108764 -0.07099877 -0.07090266 -0.07080542
 -0.07070662 -0.07060625 -0.07050245 -0.07038601 -0.07025714 -0.0701104 -0.0699501 -0.06978264 -0.06961007 -0.06943889
 -0.06926671 -0.06909286 -0.06891716 -0.06873776 -0.06856018 -0.06838611 -0.06822085 -0.06806716 -0.06792414 -0.06779346
 -0.06766482 -0.06753856 -0.06739201 -0.06722346 -0.06701645 -0.06677119 -0.06650565 -0.06622217 -0.06595028 -0.06568771
 -0.06544044 -0.06520278 -0.06496114 -0.06471206 -0.06444129 -0.06415045 -0.06383396 -0.06349996 -0.06315276 -0.0628034
 -0.06246251 -0.062129 -0.0618101 -0.06148137 -0.06113807 -0.06075539 -0.06032376 -0.05985337 -0.05934291 -0.05881771
 -0.05827997 -0.05773557 -0.05718491 -0.05663409 -0.05608522 -0.0555615 -0.0550622 -0.05459975 -0.0541645 -0.05373535
 -0.05330174 -0.0528287 -0.05232107 -0.05176742 -0.05118522 -0.05058894 -0.0499863 -0.04938794 -0.04879214 -0.04819947
 -0.04761213 -0.0470309 -0.04645804 -0.04589825 -0.04532736 -0.04474772 -0.04409084 -0.04335127 -0.04248339 -0.04148814
 -0.04044678 -0.03936565 -0.03834285 -0.03736535 -0.03642201 -0.03549777 -0.0345392 -0.03354618 -0.03249368 -0.03138529
 -0.03022295 -0.02898859 -0.02767613 -0.02623686 -0.02463581 -0.02284245 -0.02081084 -0.01862388 -0.01627894 -0.01393829
 -0.01163929 -0.009462896 -0.007430615 -0.005524663 -0.003747199 -0.002039948 -0.0003985867 0.001278223 0.003000694 0.004917915
 0.007015197 0.009326421 0.01177802 0.01414627 0.01641759 0.01843057 0.02027082 0.02199673 0.02366962 0.02538199
 0.02713245 0.02894867 0.03081328 0.03272135 0.03467297 0.03667469 0.03869016 0.04071751 0.04269819 0.04461921
 0.04649201 0.04831624 0.05011599 0.05189009 0.05355948 0.05511663 0.05645241 0.05757513 0.05846743 0.05914451
 0.05964415 0.05997464 0.06016444 0.06023343 0.06021729 0.06014325 0.06005361 0.05995649 0.05987104 0.05979405
 0.05973159 0.05966682 0.05959976 0.05949759 0.05935556 0.05913755 0.05883783 0.05843347 0.05792003 0.05732683
 0.0566563 0.05598848 0.05532308 0.05469032 0.05408018 0.05345605 0.05281466 0.05212061 0.05139088 0.05063677
 0.04989301 0.04921614 0.04862622 0.04816867 0.04783629 0.0476351 0.04756395 0.04762186 0.04781554 0.04815206
 0.04861067 0.04918995 0.04986136 0.05061802 0.05146774 0.05240996 0.05346655 0.05463818 0.0559214 0.05731428
 0.05879583 0.06036547 0.06201005 0.06372929 0.06551553 0.06736853 0.06928219 0.07126159 0.07331126 0.07543635
 0.07764645 0.07993606 0.08230659 0.08474471 0.08724477 0.08979598 0.09239346 0.09503239 0.09771274 0.1004224
 0.1031636 0.1058918 0.1086046 0.1112433 0.1138055 0.1162904 0.1187023 0.121098 0.123464 0.1257704
 0.1279787 0.1299347 0.1316465 0.133044 0.1341823 0.1351227 0.13588 0.1364997 0.1369584 0.1372494
 0.1373658 0.1373109 0.137048 0.1365876 0.1357937 0.1346295 0.1330431 0.1309863 0.1287766 0.1264383
 0.1241908 0.122042 0.1198546 0.1176211 0.1152124 0.1126418 0.1099151 0.1070453 0.1040933 0.1010265
 0.09782864 0.09440232 0.09056425 0.08633303 0.08155205 0.07660508 0.07173358 0.06716958 0.06317562 0.05950732
 0.05613651 0.05285383 0.04958059 0.04635446 0.04316368 0.04012163 0.03724178 0.03451887 0.03195208 0.02944569
 0.0269981 0.02455513 0.02212919 0.01975742 0.0174538 0.01528923 0.01325611 0.01137794 0.009627897 0.007976625
 0.006399746 0.004864355 0.003344586 0.001823411 0.0002451751 -0.001420627 -0.00321719 -0.005204561 -0.007218997 -0.009257109
 -0.01104145 -0.01250497 -0.0136963 -0.01460496 -0.01544933 -0.01623969 -0.01708254 -0.01797158 -0.01886882 -0.01976463
 -0.0205817 -0.02133086 -0.02200979 -0.02262852 -0.02321822 -0.02375783 -0.02423179 -0.02461136 -0.02485069 -0.02496124
 -0.024931 -0.02479552 -0.02457193 -0.02427642 -0.02392123 -0.02349961 -0.02301579 -0.02244147 -0.0217777 -0.0209625
 -0.01999 -0.018816 -0.01743909 -0.01596585 -0.01440934 -0.01296233 -0.01162059 -0.01046039 -0.009464984 -0.008615817
 -0.007906857 -0.00732022 -0.006844165 -0.006464818 -0.006139401 -0.005827536 -0.005464209 -0.004978947 -0.0043654 -0.003577947
 -0.002721719 -0.001827756 -0.0009555375 -0.0001378653 0.0006759966 0.001487514 0.002355652 0.003288208 0.004287432 0.005353489
 0.006437389 0.007537373 0.008614326 0.009675493 0.01073759 0.01181643 0.01297661 0.01422392 0.01561362 0.01711772
 0.01871811 0.02038478 0.02206656 0.02378142 0.02552383 0.02732303 0.02920177 0.03114411 0.03315512 0.03519173
 0.03724026 0.03929652 0.04135297 0.04345607 0.04561113 0.04783199 0.05011913 0.05235249 0.05452028 0.05643872
 0.05810827 0.05943878 0.06043864 0.06109524 0.0614011 0.06133439 0.06088202 0.06000676 0.05872021 0.05700998
 0.05492374 0.05248519 0.04975842 0.0467803 0.04360007 0.04024092 0.03673735 0.03308973 0.02938335 0.02561883
 0.02196054 0.01842422 0.01512296 0.01206348 0.009210663 0.006558689 0.004018778 0.00159562 -0.0007308198 -0.002944696
 -0.004995562 -0.006884383 -0.008580665 -0.0101113 -0.01150358 -0.01278686 -0.01400528 -0.01517385 -0.01631891 -0.01744278
 -0.01855396 -0.01964838 -0.02072708 -0.02178269 -0.02281357 -0.02381467 -0.02478423 -0.02572602 -0.02664037 -0.02752986
 -0.02839467 -0.02921634 -0.02999248 -0.03068577 -0.03129577 -0.03179945 -0.0322014 -0.03250635 -0.03271722 -0.03284374
 -0.03288534 -0.03284343 -0.03272218 -0.03252264 -0.03226103 -0.0319452 -0.03160378 -0.03124982 -0.03091803 -0.03062201
 -0.03039115 -0.03023484 -0.03017102 -0.03020409 -0.03034233 -0.03058774 -0.03093412 -0.0313813 -0.03190184 -0.03249327
 -0.03311713 -0.03377003 -0.03441378 -0.03504384 -0.0356236 -0.03615031 -0.0365968 -0.03696879 -0.03726176 -0.03748703
 -0.0376565 -0.03777624 -0.03785575 -0.03789468 -0.03789441 -0.03785699 -0.03778198 -0.03767725 -0.03754354 -0.03739223
 -0.03722409 -0.03705566 -0.03688797 -0.03674182 -0.03661845 -0.03653111 -0.03647927 -0.03645844 -0.0364661 -0.03648421
 -0.03651176 -0.0365337 -0.03655471 -0.03657678 -0.03660905 -0.03666813 -0.0367588 -0.03689563 -0.03707215 -0.03728983
 -0.03753608 -0.03780461 -0.03808617 -0.03837616 -0.03866869 -0.03896234 -0.03924935 -0.03952878 -0.03979161 -0.04003693
 -0.0402576 -0.04045315 -0.04061986 -0.0407578 -0.04086751 -0.04094926 -0.0410053 -0.04103511 -0.04103806 -0.04101319
 -0.0409572 -0.04087097 -0.04075399 -0.04060874 -0.04043799 -0.04024342 -0.0400275 -0.0397903 -0.03953201 -0.03925431
 -0.03895678 -0.03864545 -0.03832045 -0.03799332 -0.03766524 -0.0373497 -0.03704821 -0.03676926 -0.03651348 -0.03628264
 -0.03607677 -0.03589618 -0.03574084 -0.03561117 -0.03550621 -0.03542273 -0.0353596 -0.03531148 -0.03528022 -0.03526524
 -0.03527201 -0.0353066 -0.03537345 -0.03547952 -0.03562252 -0.03580488 -0.03601694 -0.03625626 -0.03651271 -0.03678281
 -0.03706275 -0.03735109 -0.03764861 -0.03795528 -0.03827128 -0.03859664 -0.03893099 -0.03927425 -0.03962602 -0.03998535
 -0.04034639 -0.04070712 -0.04105589 -0.04139321 -0.04171315 -0.04202036 -0.04232036 -0.04261644 -0.04291605 -0.04321684
 -0.04351937 -0.04382091 -0.04411899 -0.04441589 -0.04471214 -0.04500889 -0.04530784 -0.04560241 -0.04589234 -0.04616802
 -0.04642819 -0.0466696 -0.04689192 -0.04709774 -0.0472871 -0.04746086 -0.04761867 -0.04775838 -0.04788009 -0.04798305
 -0.04806759 -0.0481346 -0.04818334 -0.04821297 -0.04822283 -0.04821135 -0.04817953 -0.04812838 -0.04805631 -0.04796431
 -0.04784497 -0.04769603 -0.04751041 -0.047285 -0.04702023 -0.04671532 -0.04637426 -0.04599712 -0.0455892 -0.04515064
 -0.04469668 -0.04422877 -0.04377302 -0.04332991 -0.04291722 -0.04253069 -0.04216417 -0.04181108 -0.04145064 -0.04108097
 -0.04068752 -0.04027578 -0.03984594 -0.0394057 -0.03896202 -0.03851876 -0.03808043 -0.03764719 -0.03721941 -0.03679961
 -0.03638812 -0.03598903 -0.03560359 -0.03523088 -0.03487122 -0.03451976 -0.03417619 -0.03383803 -0.03350499 -0.03317342
 -0.03284178 -0.0324978 -0.03213948 -0.03175153 -0.03133457 -0.03088159 -0.03039608 -0.02988031 -0.02933936 -0.02877988
 -0.028207 -0.02762809 -0.0270434 -0.02645679 -0.02586094 -0.02525352 -0.02462983 -0.02398579 -0.02333133 -0.02266562
 -0.02201074 -0.02136866 -0.02075939 -0.02018451 -0.01964966 -0.01915414 -0.01868436 -0.0182384 -0.01779502 -0.01735543
 -0.01691192 -0.01646977 -0.0160394 -0.01562393 -0.01523522 -0.01487025 -0.01453131 -0.0142108 -0.01390489 -0.01360134
 -0.01329253 -0.01296803 -0.01261937 -0.01225189 -0.01186349 -0.01147056 -0.01107705 -0.01068523 -0.01029713 -0.009896603
 -0.009482682 -0.00904357 -0.00857943 -0.008094898 -0.007591395 -0.007080844 -0.00656486 -0.006055404 -0.005555172 -0.005075828
 -0.004622884 -0.00420966 -0.003845431 -0.003546927 -0.003321029 -0.003182908 -0.003123933 -0.003147031 -0.003229666 -0.00336366
 -0.003531781 -0.003727238 -0.00394313 -0.004178482 -0.004421217 -0.004670839 -0.004907762 -0.005130682 -0.005324956 -0.005489919
 -0.005614951 -0.005699068 -0.005728586 -0.005704797 -0.005623085 -0.005491025 -0.005325113 -0.005135305 -0.004947823 -0.004767872
 -0.00461283 -0.004483772 -0.004386282 -0.004323646 -0.004297486 -0.004316555 -0.004384791 -0.004508371 -0.004692623 -0.00492613
 -0.005210343 -0.005516584 -0.005841983 -0.006163215 -0.006478271 -0.006781379 -0.007072276 -0.007347496 -0.007606382 -0.007840964
 -0.008052599 -0.008241723 -0.008412416 -0.008576336 -0.00873573 -0.008899588 -0.00907015 -0.009251561 -0.009452125 -0.009678856
 -0.009943362 -0.01025402 -0.01062037 -0.01104726 -0.01154435 -0.01211495 -0.01276674 -0.01350292 -0.01431947 -0.01521754
 -0.01618006 -0.0172063 -0.01827168 -0.01937454 -0.02048395 -0.02159788 -0.02268579 -0.02374751 -0.02476569 -0.02574198
 -0.02667251 -0.02755773 -0.02839624 -0.02918937 -0.02993693 -0.03064414 -0.03131522 -0.03195534 -0.03256935 -0.03315846
 -0.03372408 -0.0342673 -0.03478863 -0.03528911 -0.03576957 -0.0362266 -0.03666005 -0.03706555 -0.03744271 -0.03779095
 -0.03811012 -0.0383972 -0.03865134 -0.03886332 -0.03903397 -0.03915996 -0.03924686 -0.03930739 -0.03934888 -0.03939216
 -0.03943926 -0.03950392 -0.03957812 -0.03966114 -0.03973972 -0.03980393 -0.03985 -0.03987115 -0.03987879 -0.03987448
 -0.03986989 -0.03986862 -0.03987021 -0.03987498 -0.03988138 -0.03988909 -0.03990447 -0.03992762 -0.03996012 -0.04000022
 -0.04003438 -0.04006049 -0.04006114 -0.0400372 -0.03998141 -0.03989752 -0.03978909 -0.03965989 -0.03951718 -0.03936096
 -0.03919471 -0.03901447 -0.03881781 -0.03860474 -0.03837256 -0.03813068 -0.03788127 -0.03763184 -0.03738553 -0.03713758
 -0.03688794 -0.03662965 -0.03636174 -0.03609164 -0.03582021 -0.03556813 -0.03533697 -0.03514912 -0.03500471 -0.03491753
 -0.03488405 -0.03490287 -0.03496668 -0.03506103 -0.03517949 -0.03530717 -0.03544152 -0.0355757 -0.03570703 -0.03583342
 -0.03594796 -0.0360485 -0.0361249 -0.03617471 -0.03618639 -0.03615738 -0.03607925 -0.03594975 -0.03577234 -0.03554662
 -0.03528893 -0.0350002 -0.03469884 -0.03438513 -0.03406937 -0.03375109 -0.0334333 -0.03311637 -0.0328025 -0.03249335
 -0.03219379 -0.03190366 -0.03162654 -0.03135651 -0.03108979 -0.03081984 -0.03053883 -0.03025182 -0.02995678 -0.02966872
 -0.0293926 -0.02913478 -0.02889906 -0.02867665 -0.02846696 -0.02826197 -0.0280608 -0.02786444 -0.0276729 -0.02748721
 -0.02730709 -0.02713003 -0.02695624 -0.02678565 -0.02661799 -0.02645346 -0.02628902 -0.02611866 -0.02594015 -0.02574648
 -0.02554085 -0.02532377 -0.0250985 -0.02486883 -0.02463159 -0.02438566 -0.02413055 -0.02386301 -0.02359748 -0.02333542
 -0.0230944 -0.02287864 -0.02268266 -0.02250729 -0.02232374 -0.0221307 -0.02190562 -0.02164995 -0.02136673 -0.02105961
 -0.02074721 -0.02043198 -0.02013144 -0.01984468 -0.01957993 -0.01933082 -0.01909392 -0.01885773 -0.0186096 -0.01834248
 -0.01804462 -0.01772484 -0.01738064 -0.01703518 -0.01669463 -0.01637803 -0.01609299 -0.01583378 -0.01560287 -0.01537133
 -0.01513706 -0.01487894 -0.01459655 -0.01429877 -0.01398728 -0.01368224 -0.01338215 -0.01308972 -0.01280326 -0.01251669
 -0.01223469 -0.01196389 -0.01170875 -0.01148127 -0.01127536 -0.01109129 -0.01091693 -0.0107436 -0.01056505 -0.01037517
 -0.01017575 -0.009965506 -0.009749945 -0.00952982 -0.00931032 -0.009092264 -0.008878549 -0.008669452 -0.008467438 -0.008272536
 -0.008083876 -0.007899786 -0.007704248 -0.007494857 -0.007248518 -0.006969928 -0.006658685 -0.006326743 -0.006000203 -0.005683542
 -0.005396943 -0.005132978 -0.004890782 -0.004665497 -0.004451958 -0.00425281 -0.004069259 -0.003898892 -0.003742921 -0.003590834
 -0.003441019 -0.003283513 -0.003116722 -0.002934508 -0.002735914 -0.002523668 -0.002298147 -0.002075128 -0.001855019 -0.001649468
 -0.001455247 -0.001262121 -0.001067146 -0.0008532816 -0.0006255378 -0.0003844896 -0.0001400482 9.252736E-05 0.0003080399 0.0004935212
 0.0006540313 0.0007864895 0.000905609 0.00101702 0.001133533 0.001262056 0.001401825 0.001553685 0.001715934 0.001887079
 0.002079481 0.002294393 0.002534961 0.002800866 0.003065697 0.00332861 0.003568846 0.003791397 0.00401232 0.004234061
 0.004475981 0.004729945 0.004986948 0.00524201 0.005480195 0.005710276 0.005934376 0.006164837 0.006411896 0.006680353
 0.006977968 0.007294705 0.007633796 0.007962935 0.008276928 0.008543913 0.008755152 0.008923193 0.009046391 0.009175811
 0.00931388 0.009496961 0.009723733 0.009994073 0.01030415 0.01063516 0.01098362 0.011329 0.01166939 0.01199096
 0.01229309 0.01257069 0.01281914 0.01303262 0.0132057 0.01332895 0.01341283 0.01345596 0.01348363 0.01350407
 0.01353358 0.01357774 0.01364136 0.01372502 0.01383865 0.0139834 0.0141624 0.01437555 0.0146035 0.01484512
 0.01508098 0.0153123 0.01553622 0.01575315 0.01596229 0.01616468 0.01636061 0.01655509 0.01675731 0.01696648
 0.01718354 0.01741215 0.01764305 0.01792164 0.01826063 0.01872321 0.01935597 0.0200897 0.02093505 0.02171673
 0.02239914 0.02296886 0.02341769 0.02382413 0.02419134 0.02453318 0.02484646 0.02509774 0.025288 0.02540542
 0.02545485 0.02544768 0.02538384 0.02526754 0.02510003 0.0248841 0.02462322 0.02432225 0.02398296 0.02360475
 0.02320005 0.02277048 0.02234204 0.02192228 0.02153565 0.02118755 0.02090137 0.02068125 0.02054356 0.02049234
 0.02049964 0.02056369 0.02061434 0.02064939 0.02062005 0.02053076 0.02038101 0.02017462 0.01992203 0.01962845
 0.01930424 0.01896883 0.01865762 0.01838146 0.01817707 0.01801025 0.01787098 0.0177181 0.01752175 0.01728258
 0.01699179 0.01666812 0.01631179 0.01595124 0.01558584 0.01527763 0.01503171 0.01490035 0.0148861 0.0149736
 0.01515916 0.01539454 0.01567812 0.01597805 0.01629313 0.01660262 0.0169059 0.01719057 0.01745922 0.01771332
 0.01794727 0.01815865 0.01833314 0.01845621 0.01852917 0.0185431 0.01852439 0.01847651 0.01843664 0.01841251
 0.01843801 0.01852154 0.01866644 0.01887675 0.0191024 0.01934085 0.019539 0.019699 0.01983256 0.01994466
 0.02007515 0.02021435 0.02035105 0.02047116 0.02053123 0.02053765 0.02047804 0.02037136 0.02023376 0.02007959
 0.01992344 0.01977766 0.01965314 0.01955308 0.01948334 0.01943225 0.0193966 0.01937618 0.01936942 0.01938831
 0.0194357 0.01949037 0.01955124 0.0195743 0.0195605 0.01950868 0.01942511 0.01934811 0.01927671 0.01922907
 0.01919763 0.01917342 0.01915137 0.01911991 0.01907522 0.01900474 0.01891943 0.0188165 0.01873015 0.01868314
 0.01867724 0.01873326 0.01877583 0.01879285 0.01871325 0.0185144 0.01823408 0.01786907 0.01752816 0.01721715
 0.01698921 0.0168398 0.01672258 0.01662996 0.01648961 0.01630913 0.01607176 0.01580072 0.01554457 0.01531368
 0.01515495 0.0150455 0.01497742 0.01493017 0.0148771 0.0148343 0.01480286 0.01479978 0.01483742 0.01489868
 0.01498272 0.01506894 0.01515337 0.01522919 0.0152968 0.01532859 0.015323</values></Ydata></AB><ScSm><Ydata ylabel="Single channel"><values byteorder="INTEL" format="FLOAT32" numvalues="1814"> 0.07310922 0.07310936 0.07317292 0.0733276 0.07354628 0.07376228 0.07391755 0.07400052 0.07402875 0.07400645
 0.07393712 0.07387743 0.07392384 0.07411669 0.07438084 0.07457876 0.07462212 0.07454897 0.07449943 0.07457844
 0.07471475 0.07468592 0.07432825 0.07372469 0.0731502 0.07282028 0.07275817 0.07295342 0.0734951 0.07431935
 0.07492532 0.07473151 0.07380507 0.07289721 0.0726119 0.07282715 0.0730423 0.07295927 0.07257771 0.07208022
 0.07188024 0.07251015 0.07409571 0.07592279 0.0766957 0.07535745 0.0718454 0.06732498 0.06375883 0.06285845
 0.06488001 0.06827545 0.0708511 0.07151923 0.07082271 0.06982349 0.06895678 0.06816776 0.06765616 0.06792067
 0.06907 0.07035568 0.07056093 0.06904455 0.06650385 0.06447787 0.06394185 0.06469638 0.06619353 0.06813303
 0.06962321 0.06870444 0.06427936 0.05855305 0.05604767 0.05930243 0.0661642 0.07189451 0.07338374 0.07089002
 0.06666287 0.06308052 0.06175567 0.0630978 0.0662353 0.06973973 0.07249528 0.07375224 0.07293016 0.0701206
 0.0665891 0.06416646 0.06412365 0.06666949 0.07090496 0.07490709 0.07660453 0.07530579 0.07215673 0.06892835
 0.06685309 0.06663252 0.06860781 0.07240415 0.07690436 0.08089827 0.08358303 0.08464806 0.08433561 0.08328441
 0.08204371 0.08098592 0.08065051 0.08141176 0.08259013 0.08270676 0.08109388 0.07878681 0.07745737 0.07768399
 0.0784913 0.07854097 0.07748936 0.07576453 0.07323661 0.06919561 0.06397123 0.05936631 0.05685475 0.05645671
 0.05780506 0.06072204 0.06396924 0.06517752 0.06344154 0.06097148 0.06090374 0.06395623 0.06805781 0.07087082
 0.07195262 0.07259412 0.07415776 0.07668632 0.07872814 0.07843446 0.07539366 0.07166237 0.07031083 0.07240918
 0.07599883 0.07850079 0.07943246 0.08012742 0.08140118 0.08228859 0.08105078 0.07724391 0.07283627 0.07099504
 0.07332564 0.07826141 0.08220121 0.08217825 0.0778572 0.07160297 0.06663501 0.06479984 0.06607684 0.06980789
 0.07541937 0.08178271 0.0869143 0.0890851 0.08808462 0.0851247 0.08145942 0.07722634 0.07209883 0.06720379
 0.06536395 0.06842723 0.0749025 0.08120318 0.08485077 0.08571259 0.08460832 0.08178428 0.07713766 0.07167379
 0.06798615 0.06824812 0.07159919 0.07462832 0.07494393 0.0733543 0.07211846 0.07212585 0.07256201 0.07263904
 0.07271846 0.07369067 0.07570204 0.07781051 0.07889724 0.07868742 0.07780181 0.07703128 0.07661934 0.0760895
 0.07491653 0.07356364 0.07343344 0.07533097 0.07835871 0.08084153 0.08200911 0.0822776 0.08213566 0.08129166
 0.07910348 0.07579143 0.07293816 0.07231647 0.07417327 0.07707552 0.07940473 0.08052051 0.08060373 0.08007401
 0.07930811 0.07851654 0.07779884 0.07740422 0.07767264 0.07854758 0.07946533 0.07992189 0.07988773 0.07955217
 0.07895896 0.07807624 0.07705989 0.07626902 0.0760071 0.07628769 0.07687145 0.07748567 0.07792896 0.07803002
 0.07770247 0.07707766 0.07642784 0.07591917 0.07555819 0.07536346 0.07541683 0.07570502 0.07604703 0.07624616
 0.07624616 0.07610388 0.07587488 0.07557499 0.07522328 0.07488411 0.07465968 0.07462005 0.07471991 0.0748248
 0.07486246 0.07489529 0.07498218 0.07503571 0.07491378 0.07461458 0.07428955 0.07407895 0.07400163 0.07399055
 0.0739655 0.07385008 0.07357147 0.0731222 0.07263996 0.07235615 0.07240936 0.07274191 0.07319281 0.07361981
 0.07391621 0.07401854 0.07395863 0.07383935 0.0737175 0.07355787 0.073321 0.07305767 0.0728994 0.07295658
 0.07321462 0.07353804 0.07378737 0.07391076 0.07392935 0.07390087 0.07390718 0.07399523 0.07410438 0.0741207
 0.07402291 0.0739162 0.07390618 0.07398322 0.0740457 0.07401678 0.07392821 0.07388641 0.07395763 0.07410613
 0.07425143 0.07435795 0.07445082 0.07455772 0.0746508 0.07465748 0.074545 0.07438082 0.07427198 0.0742522
 0.07427487 0.0743096 0.07438552 0.07452503 0.07468387 0.07478894 0.07481858 0.07481956 0.07484113 0.0748709
 0.07485372 0.07476507 0.07464247 0.07454474 0.07450097 0.07449973 0.07450923 0.07450157 0.07446646 0.07440883
 0.07433616 0.07425038 0.07415035 0.07404518 0.07396756 0.07396147 0.07403488 0.07412609 0.07414012 0.07403263
 0.0738533 0.07369924 0.07362483 0.073599 0.07355149 0.07345185 0.07333142 0.0732362 0.07318073 0.07315101
 0.07313062 0.07311407 0.07311243 0.07315674 0.07327761 0.07346158 0.07363848 0.07373605 0.07374864 0.07373704
 0.07376306 0.07384034 0.07394431 0.07405053 0.0741615 0.07430232 0.07448255 0.07466325 0.07478644 0.07484502
 0.0748972 0.07500532 0.07518681 0.07542308 0.07567631 0.07589167 0.07602714 0.07610095 0.07618158 0.07631731
 0.07649653 0.07668302 0.07686374 0.07704788 0.07724133 0.07744522 0.07767306 0.07794915 0.078283 0.07865037
 0.07900222 0.07929601 0.07952904 0.07974762 0.08001623 0.08036755 0.08077848 0.08119188 0.08156136 0.08188239
 0.08218518 0.0824966 0.08281711 0.08314408 0.0835021 0.08392103 0.08438945 0.08485894 0.08529652 0.08570955
 0.08611953 0.08653603 0.08695945 0.08739188 0.08783763 0.08829643 0.08875483 0.08918712 0.08957623 0.08993477
 0.09029722 0.09069316 0.09113023 0.09158751 0.09201475 0.09236156 0.09263274 0.0928998 0.09322909 0.09360811
 0.09397242 0.09429768 0.09462936 0.09501556 0.09544298 0.09585889 0.09623705 0.09659959 0.09697817 0.09736802
 0.09772404 0.09800125 0.09820114 0.09837501 0.09857859 0.09883457 0.0991468 0.09952493 0.09996447 0.1004173
 0.1008176 0.1011356 0.1013836 0.1015862 0.1017718 0.1019759 0.1022188 0.1024855 0.1027465 0.1029818
 0.1031762 0.1033257 0.1034666 0.1036627 0.1039422 0.1042741 0.1046242 0.1049983 0.1054068 0.1058205
 0.1062065 0.1065876 0.1070207 0.1075071 0.1079655 0.1083134 0.1085457 0.1087127 0.1088549 0.1090017
 0.1092049 0.1095182 0.1099387 0.1104047 0.1108548 0.1112671 0.1116456 0.1119948 0.112311 0.1125845
 0.1128063 0.1129789 0.1131241 0.1132797 0.1134843 0.1137514 0.1140511 0.1143276 0.1145372 0.1146617
 0.1146862 0.1145981 0.1144243 0.1142425 0.1141186 0.1140323 0.113887 0.1135931 0.1131258 0.1125079
 0.1117684 0.1109337 0.1100495 0.1091922 0.1084523 0.1079058 0.1076014 0.107571 0.1078404 0.1084065
 0.109197 0.11007 0.1108673 0.1114647 0.1117736 0.111732 0.1113306 0.1106379 0.109774 0.1088577
 0.1079752 0.1071697 0.1064379 0.1057588 0.1051627 0.1047714 0.1047573 0.1052622 0.1063465 0.1079757
 0.1100151 0.1122441 0.1144187 0.116362 0.1180183 0.1194291 0.1206683 0.1218004 0.1228716 0.1238997
 0.1248652 0.1257347 0.1265011 0.1271866 0.1278075 0.1283546 0.1288069 0.1291493 0.1293842 0.12954
 0.1296617 0.1297826 0.1299118 0.1300526 0.1302108 0.1303721 0.1304845 0.1304769 0.1302943 0.1299226
 0.1294062 0.1288695 0.1285272 0.1286463 0.1294435 0.1309593 0.1330111 0.1352788 0.1374559 0.1393459
 0.1408695 0.1420363 0.1429174 0.1436134 0.144215 0.1447807 0.1453377 0.1458888 0.1464211 0.1469194
 0.1473823 0.1478287 0.1482861 0.1487661 0.1492491 0.1497019 0.1501152 0.1505175 0.1509491 0.1514241
 0.151917 0.1523872 0.1528196 0.1532384 0.1536707 0.1541057 0.1545087 0.1548699 0.155219 0.1555926
 0.156007 0.1564561 0.1569137 0.1573396 0.1577062 0.1580238 0.1583292 0.15865 0.1589875 0.1593301
 0.159671 0.1600114 0.1603552 0.1607074 0.1610766 0.1614639 0.1618466 0.1621861 0.1624635 0.1627042
 0.1629578 0.1632548 0.1635845 0.163913 0.1642207 0.164524 0.1648587 0.1652366 0.1656267 0.1659811
 0.1662776 0.1665341 0.1667861 0.1670595 0.1673602 0.1676801 0.1680048 0.1683204 0.1686213 0.1689144
 0.169211 0.1695161 0.1698267 0.1701386 0.1704479 0.1707502 0.1710444 0.1713371 0.1716416 0.1719714
 0.17233 0.1727011 0.1730524 0.1733576 0.1736182 0.173858 0.1740996 0.1743506 0.1746101 0.1748795
 0.1751624 0.1754578 0.1757574 0.1760533 0.1763452 0.1766374 0.1769303 0.1772197 0.1775046 0.1777922
 0.1780932 0.1784127 0.1787436 0.1790667 0.1793641 0.1796349 0.1798968 0.1801689 0.1804562 0.180748
 0.1810299 0.1812978 0.1815617 0.1818342 0.1821158 0.1823971 0.1826719 0.1829438 0.1832181 0.183493
 0.1837623 0.1840233 0.1842818 0.1845483 0.184827 0.1851103 0.1853877 0.1856566 0.1859234 0.186194
 0.1864662 0.1867334 0.1869959 0.1872636 0.1875439 0.1878317 0.1881146 0.1883853 0.188645 0.1889001
 0.1891586 0.1894252 0.1896975 0.1899692 0.1902348 0.1904915 0.1907426 0.1909989 0.1912698 0.1915543
 0.1918433 0.1921292 0.1924085 0.192683 0.1929582 0.1932376 0.1935175 0.1937939 0.1940682 0.1943426
 0.1946164 0.1948902 0.1951665 0.195444 0.1957172 0.1959812 0.1962343 0.1964798 0.1967254 0.196975
 0.1972262 0.1974784 0.1977356 0.1979979 0.1982583 0.1985114 0.1987579 0.1990033 0.1992573 0.1995263
 0.1998037 0.2000762 0.2003395 0.2005971 0.2008509 0.2011038 0.2013627 0.2016299 0.2019023 0.202179
 0.2024602 0.2027418 0.2030199 0.2032935 0.2035607 0.203823 0.2040905 0.2043684 0.2046483 0.2049231
 0.2051967 0.2054716 0.2057417 0.2060009 0.2062473 0.2064845 0.2067265 0.206986 0.2072579 0.2075292
 0.2077989 0.2080705 0.2083388 0.2086003 0.2088597 0.2091194 0.2093797 0.2096454 0.2099158 0.2101813
 0.2104401 0.2107021 0.2109706 0.2112399 0.2115059 0.211763 0.2120078 0.2122502 0.2124986 0.2127305
 0.2128848 0.2128237 0.2122138 0.2103944 0.2063622 0.1989755 0.1874119 0.1716911 0.1528485 0.1325664
 0.1125554 0.09411433 0.07800546 0.06455757 0.05383675 0.04575736 0.04014729 0.03685644 0.03587517 0.03745898
 0.04226163 0.05094646 0.06272515 0.07406335 0.08005328 0.07828622 0.07115693 0.06368317 0.05933598 0.05835994
 0.05926847 0.06079138 0.06252657 0.06470764 0.06773542 0.07172349 0.07647719 0.08198453 0.08865824 0.09680928
 0.1060111 0.1152767 0.1239112 0.1320585 0.1403659 0.1492046 0.1582805 0.166926 0.1746301 0.1812904
 0.1871123 0.1923825 0.1973098 0.2019921 0.2064632 0.2107009 0.2145504 0.2176909 0.2197822 0.2207195
 0.2207622 0.2203954 0.2200473 0.2199212 0.2200375 0.2203578 0.2208478 0.2214826 0.2222451 0.2231151
 0.2240559 0.2250233 0.2259857 0.2269247 0.227826 0.2286787 0.2294737 0.2302001 0.2308535 0.2314444
 0.2319868 0.2324868 0.2329501 0.2333877 0.2338076 0.2342107 0.2345976 0.2349676 0.2353131 0.2356262
 0.2359062 0.2361597 0.2363984 0.2366377 0.2368852 0.2371335 0.2373714 0.2376009 0.2378325 0.2380705
 0.238312 0.2385553 0.2388012 0.2390481 0.2392905 0.2395225 0.2397447 0.2399659 0.2401933 0.2404255
 0.2406564 0.2408853 0.2411151 0.2413459 0.2415759 0.2418043 0.2420335 0.2422677 0.2425087 0.24275
 0.2429838 0.2432156 0.2434582 0.2437114 0.2439622 0.2442053 0.2444499 0.2447055 0.2449742 0.24525
 0.2455156 0.2457471 0.2459382 0.2461148 0.2463207 0.2465814 0.2468795 0.2471689 0.2474202 0.2476466
 0.2478775 0.2481214 0.2483628 0.2485842 0.2487859 0.2489977 0.2492612 0.249584 0.2499274 0.250251
 0.2505482 0.2508301 0.2511079 0.2513926 0.2516783 0.2519268 0.2521054 0.2522447 0.2524344 0.252752
 0.2531888 0.253648 0.2540305 0.2543233 0.2545876 0.2548843 0.2552343 0.255601 0.2558695 0.2559213
 0.2558099 0.2557932 0.2561034 0.256721 0.2574279 0.2580285 0.2584739 0.2588223 0.2591383 0.2594212
 0.2596074 0.259648 0.2596053 0.2596657 0.2600026 0.2605985 0.2612495 0.261777 0.2621667 0.2624814
 0.2627515 0.2629813 0.2631208 0.2630088 0.2625418 0.2619779 0.2618662 0.2625175 0.2636529 0.2646999
 0.2653587 0.2657515 0.266091 0.2664177 0.266672 0.2667519 0.2663807 0.2652613 0.2636623 0.262586
 0.2629393 0.2646162 0.2666673 0.2682497 0.2691619 0.2696281 0.2699199 0.270173 0.2702893 0.2699553
 0.2689891 0.2677945 0.2672578 0.2679332 0.269418 0.2707814 0.2715129 0.271796 0.2720116 0.2723147
 0.2725297 0.2721028 0.2704192 0.2677044 0.2654731 0.2654605 0.2679268 0.2713475 0.2739247 0.2751297
 0.2755635 0.2756422 0.2749869 0.2731147 0.2701714 0.266871 0.2642755 0.2636467 0.2656068 0.2690984
 0.2719862 0.2731614 0.2734741 0.2743281 0.2760055 0.2776786 0.2784904 0.2782168 0.2771167 0.2754662
 0.2734294 0.2714941 0.2707305 0.2720332 0.2750329 0.2782298 0.2803775 0.2814281 0.2818763 0.2813013
 0.2780758 0.2713246 0.2633719 0.2590988 0.2616362 0.2690904 0.2765765 0.2810199 0.2828403 0.2836653
 0.2841499 0.2837881 0.2812035 0.274907 0.2656421 0.257849 0.2566534 0.2627955 0.2717947 0.2781337
 0.2790174 0.2746664 0.2673203 0.2605642 0.2578633 0.2604651 0.2668585 0.2742643 0.2803014 0.2836357
 0.2839611 0.2818684 0.2788018 0.2767118 0.2766469 0.2772045 0.2755929 0.2711627 0.2664915 0.2635938
 0.2607967 0.2558337 0.2508312 0.2508925 0.2574619 0.2658996 0.2706901 0.2710248 0.2698006 0.2683613
 0.2642177 0.2546467 0.2418512 0.2330473 0.2341443 0.2436144 0.2538622 0.2586553 0.2580686 0.2562549
 0.2559013 0.2555016 0.2515039 0.2429525 0.2338278 0.2297085 0.2318454 0.2360383 0.2376084 0.2351561
 0.2289365 0.2193134 0.2093829 0.2059422 0.2137447 0.2296489 0.2450808 0.2530976 0.2509236 0.2383884
 0.2188472 0.2011635 0.1954049 0.2038457 0.2182097 0.2272859 0.2258366 0.2155343 0.2001391 0.1828986
 0.1680016 0.1610559 0.1657169 0.1799592 0.1962295 0.2052653 0.2012072 0.1860939 0.1701281 0.1643373
 0.1706186 0.1805002 0.1846506 0.1813273 0.1750338 0.1706384 0.1705324 0.1743263 0.1793056 0.18294
 0.1849185 0.1844164 0.177366 0.1614212 0.142679 0.1316926 0.1324722 0.1404188 0.1508362 0.1631011
 0.1751145 0.1804414 0.1755845 0.1666678 0.1642413 0.172088 0.1839648 0.1911991 0.1912508 0.1881699
 0.1862869 0.1855466 0.1837233 0.1815224 0.1827618 0.189111 0.1971823 0.2023121 0.2034273 0.2026436
 0.2016953 0.2006306 0.1990143 0.1966995 0.1937472 0.19054 0.1876744 0.1852978 0.1829914 0.1804352
 0.1774046 0.172847 0.1651408 0.1544628 0.1442452 0.1385144 0.1376932 0.1388264 0.1399387 0.1412338
 0.1410929 0.1348698 0.1210362 0.1062759 0.100636 0.1078314 0.1224852 0.1362307 0.1440412 0.1446334
 0.1380514 0.1261086 0.1147475 0.1121776 0.1221221 0.1402176 0.1587244 0.1732001 0.1829274 0.1872179
 0.1848381 0.1769494 0.168212 0.1641434 0.167807 0.1784269 0.1915415 0.2000496 0.1976922 0.1853612
 0.1740113 0.1765639 0.1942297 0.2143585 0.2246482 0.2256398 0.2256223 0.2277538 0.228539 0.2269891
 0.2282341 0.2364817 0.2487911 0.2579526 0.2588048 0.2502606 0.2346043 0.2179596 0.2086982 0.2107712
 0.2192807 0.2258542 0.2267703 0.2224605 0.2125316 0.1978039 0.1855712 0.1852183 0.1973093 0.2123
 0.2213906 0.2245394 0.2265121 0.2286988 0.2275068 0.2198914 0.2084454 0.1997865 0.1980047 0.2010834
 0.2043037 0.2052265 0.2037771 0.1994627 0.1916587 0.1825765 0.1772866 0.1793633 0.1872677 0.1958705
 0.2011111 0.2025814 0.2022525 0.2019631 0.2021644 0.2021088 0.2011695 0.2005666 0.2031293 0.2101484
 0.2191315 0.2262835 0.2308435 0.235325 0.2415799 0.2482066 0.2522104 0.2522579 0.2499787 0.2486106
 0.250447 0.2550131 0.2593969 0.2607294 0.2589144 0.2569622 0.2581976 0.26306 0.2690191 0.2734313
 0.2757016 0.2767562 0.2774954 0.2780471 0.2777271 0.2756091 0.2719492 0.2690206 0.2695248 0.2739027
 0.2798706 0.284704 0.2873752 0.288443 0.2886362 0.2880602 0.2865812 0.28452 0.282695 0.281799
 0.2819116 0.2826522 0.2836068 0.2845138 0.2852368 0.2857469 0.2860991 0.2863595 0.2865867 0.2868616
 0.2872349 0.2876378 0.2879473 0.2881765 0.2885019 0.2890414 0.2896743 0.2901542 0.2903286 0.2901469
 0.2895274 0.288382 0.2867764 0.2849137 0.2829124 0.2807322 0.278439 0.2764898 0.2755986 0.2762108
 0.2781042 0.2805334 0.2827462 0.284357 0.2853397 0.2858429 0.2860661 0.286199 0.286359 0.2865551
 0.2867285 0.2868322 0.2868692 0.2868684 0.2868531 0.2868457 0.2868798 0.2869766 0.2871121 0.2872283
 0.287275 0.287231 0.2871042 0.2869242 0.2867183 0.2864692 0.2861106 0.2855787 0.2848678 0.284036
 0.28317 0.2823419 0.2815701 0.2808064 0.2799767 0.2790356 0.277961 0.2767078 0.2752358 0.2736092
 0.272006 0.2705754 0.269317 0.268126 0.266908 0.2656143 0.2642159 0.2627029 0.2610965 0.2594302
 0.257723 0.2559806 0.2542062 0.2523989 0.2505467 0.2486289 0.2466313 0.2445586 0.2424304 0.2402573
 0.2380136 0.235625 0.2329763 0.2299372 0.2263882 0.222243 0.2174782 0.2121713 0.2065108 0.2007486
 0.1951226 0.1898048 0.1849014 0.180491 0.1766569 0.1734805 0.1710136 0.1692755 0.1682699 0.1679931
 0.1684298 0.1695456 0.1712691 0.173474 0.1759932 0.1786541 0.181296 0.183777 0.1860137 0.1880283
 0.1899303 0.1918264 0.1937396 0.1956153 0.1973896 0.1990287 0.2005055 0.2017774 0.2028158 0.2036367
 0.2042772 0.2047601 0.2051021 0.2053353 0.2055012 0.2056343 0.2057658 0.2059351 0.2061855 0.2065436
 0.2070026 0.207529 0.2080905 0.2086762 0.2092912 0.2099452 0.2106419 0.2113721 0.2121216 0.2128977
 0.2137382 0.2146959 0.2158305 0.2172153 0.2189177 0.2209581 0.2232925 0.2258273 0.2284358 0.2309727
 0.2333005 0.2353184 0.2369786 0.238287 0.2392828 0.2400102 0.2405083 0.2408161 0.240969 0.2409895
 0.2408889 0.2406708 0.240329 0.2398571 0.2392672 0.2385928 0.2378745 0.2371458 0.2364234 0.2357067
 0.2349936 0.2342929 0.2336143 0.2329544 0.2323066 0.2316718 0.2310491 0.2304253 0.2297812 0.2290999
 0.22837 0.2275811 0.2267109 0.2257256 0.2246057 0.2233632 0.222016 0.2205616 0.2189955 0.2173438
 0.2156572 0.213979 0.2123219 0.2106679 0.2089845 0.2072372 0.2053865 0.2033933 0.2012573 0.1990419
 0.1968378 0.1947065 0.1926686 0.1907238 0.1888655 0.187088 0.1853927 0.1837789 0.1822342 0.1807466
 0.1793178 0.1779556 0.1766633 0.1754409 0.1742896 0.1732201 0.1722608 0.1714386 0.1707444 0.1701367
 0.1695839 0.1690839 0.1686549 0.1683246 0.168112 0.1679901 0.1678833 0.16772 0.167478 0.1671771
 0.1668506 0.1665298 0.1662347 0.1659681 0.1657157 0.1654424 0.1650865 0.164565 0.1637875 0.1626778
 0.1612105 0.1594327 0.1574402 0.1553403 0.1532507 0.1513035 0.1496104 0.1482241 0.1471393 0.1463083
 0.1456559 0.1451105 0.144648 0.1443074 0.1441542 0.1441991 0.1443346 0.1443923 0.1443047 0.1441842
 0.1442127 0.1444847 0.1449691 0.1455649 0.1461585 0.1466636 0.1470352 0.1472571 0.1473372 0.1473125
 0.1472206 0.1470644 0.1468305 0.1465265 0.1461708 0.1457631 0.1452867 0.1447224 0.1440648 0.1433394
 0.1425794 0.1417782 0.1409014 0.1399296 0.1388376 0.1375836 0.1362147 0.1349553 0.1341029 0.1338335
 0.1341165 0.134768 0.1355838 0.136457 0.1373205 0.137973 0.1381503 0.1379252 0.1378997 0.1387642
 0.1406337 0.1429249 0.1448856 0.1461301 0.1466603 0.1465787 0.1459546 0.1448609 0.1433415 0.1413707
 0.1389525 0.1361881 0.1331972 0.1301003 0.1270921 0.1243809 0.1220651 0.1201567 0.1186473 0.1175766
 0.1170706 0.1167637 0.1148295 0.1089344 0.09981637 0.09289458 0.0937264 0.1017684 0.1107492 0.1153159
 0.1153166 0.1136006 0.1121313 0.1112041 0.1107238 0.1108354 0.1116659 0.1130693 0.1146442 0.1159698
 0.1168647 0.1173494 0.1173683 0.1165894 0.1143555 0.1098857 0.1029082 0.09424945 0.08555739 0.07833023
 0.0732577 0.07025695 0.06877305 0.06808778 0.06768177 0.06748407 0.06776679 0.06879875 0.07061631 0.07308528
 0.07605395 0.07931391 0.08247806 0.08512983 0.08715208 0.08874123 0.09006066 0.09103993 0.09153371 0.09152159
 0.09111349 0.09046272 0.08970233 0.08889881 0.08802342 0.08699298 0.08580692 0.08466539 0.08386336 0.08351181
 0.08344795 0.08345553 0.08345374 0.08344205 0.08340938 0.08335401 0.08330092 0.08328992 0.08339492 0.08369377
 0.08416153 0.08465441 0.08503052 0.08524548 0.08533981 0.08534874 0.08519609 0.08474583 0.08405331 0.08341967
 0.08299729 0.08249374 0.08154661 0.08030143 0.07934153 0.07906757 0.07934332 0.07972593 0.07986853 0.07970026
 0.07939839 0.07928167 0.07960044 0.08026347</values></Ydata></ScSm><ScRf><Ydata ylabel="Single channel"><values byteorder="INTEL" format="FLOAT32" numvalues="1820"> 0.06072287 0.06087992 0.06097385 0.06100664 0.06100198 0.06100393 0.06106139 0.06119616 0.06138279 0.06156207
 0.06168401 0.06174296 0.06176215 0.06175085 0.06170757 0.06166784 0.06170441 0.06185403 0.06206301 0.06222207
 0.06225605 0.06219239 0.0621464 0.06220819 0.06232204 0.06230344 0.06201313 0.06151576 0.06103683 0.06075463
 0.06069027 0.06084011 0.0612849 0.06197424 0.06248596 0.06232725 0.06155176 0.06079101 0.06055271 0.06073188
 0.06090485 0.06082152 0.06048611 0.06005836 0.05988991 0.06042692 0.0617689 0.06331004 0.0639593 0.06282753
 0.0598622 0.05604834 0.05304585 0.05229769 0.05401083 0.05687186 0.05903438 0.05959174 0.05900776 0.05817551
 0.05745554 0.05679473 0.05635601 0.05656037 0.05750771 0.058576 0.0587413 0.05745949 0.05531678 0.05361174
 0.05316555 0.05380575 0.05506726 0.05669883 0.05795524 0.05719093 0.05348022 0.04867212 0.04656806 0.04930828
 0.05508745 0.05991833 0.0611769 0.05907603 0.05551434 0.05250113 0.05139056 0.05251537 0.05513712 0.05806284
 0.0603656 0.06141897 0.0607347 0.05839012 0.05544493 0.05342662 0.05339396 0.0555236 0.05906849 0.06242004
 0.06384 0.06274598 0.06009976 0.05739213 0.05566115 0.05549017 0.05715351 0.06033297 0.06410284 0.0674617
 0.06973456 0.07064546 0.07038721 0.06950283 0.06846807 0.06759867 0.06733369 0.06797186 0.06894222 0.06901708
 0.06764857 0.06570573 0.06458396 0.064766 0.06543922 0.06548514 0.06461142 0.06316985 0.0610487 0.05765473
 0.05326927 0.04940846 0.04730825 0.04698336 0.04813008 0.05060817 0.05337632 0.05442738 0.05298246 0.05089562
 0.05081391 0.05335446 0.05678437 0.05914091 0.06005249 0.06060519 0.06194341 0.06409833 0.06584214 0.06561342
 0.06306227 0.05992189 0.05878562 0.0605629 0.06360559 0.06573829 0.06655425 0.06717943 0.06829906 0.06909232
 0.0680885 0.06491809 0.06125052 0.05975904 0.06178947 0.06601117 0.06938238 0.06939737 0.06577201 0.06050928
 0.05633953 0.05483113 0.05597563 0.05923201 0.06412598 0.06969394 0.07423016 0.07623749 0.07551146 0.07307442
 0.07000638 0.06643879 0.06209847 0.05796336 0.05648308 0.05926821 0.06503299 0.07066476 0.07400152 0.07491384
 0.07410128 0.07176235 0.06779438 0.06309029 0.05996912 0.0603767 0.06354247 0.06641239 0.06684579 0.06556849
 0.06460807 0.06476447 0.06530681 0.06553134 0.06577639 0.06685464 0.06889077 0.07101344 0.07219447 0.07218079
 0.07154204 0.07100947 0.07081038 0.07050151 0.06959788 0.06854292 0.06865085 0.07066181 0.07371892 0.07624841
 0.07753746 0.07798909 0.07806239 0.07746303 0.0755625 0.07257179 0.070024 0.06963904 0.07166141 0.07470302
 0.07718532 0.07847848 0.07876371 0.0784609 0.07793902 0.07739738 0.07693158 0.0767891 0.07730357 0.07841499
 0.07956349 0.08024835 0.08043564 0.08030604 0.07990009 0.07919668 0.07837076 0.07779129 0.07775564 0.0782684
 0.07908969 0.07994802 0.08063416 0.08096066 0.08082917 0.08037588 0.07989187 0.07955747 0.07937908 0.07937244
 0.07962293 0.0801181 0.08066781 0.0810657 0.08125331 0.08128993 0.08123441 0.08110413 0.08091493 0.0807289
 0.08065607 0.08077717 0.08104512 0.08131642 0.08152136 0.0817343 0.0820128 0.08224711 0.08227207 0.08208584
 0.08186277 0.08176681 0.08182259 0.08195436 0.08207107 0.08208419 0.08190691 0.08152975 0.08111167 0.08091493
 0.08109675 0.08160032 0.08225205 0.08288533 0.0833662 0.08361899 0.08368224 0.08366603 0.08362172 0.08350886
 0.08330275 0.08308611 0.08301565 0.08320273 0.08361451 0.08409281 0.08447845 0.08470544 0.0847941 0.08482122
 0.08489653 0.08507776 0.08528481 0.08537395 0.08531767 0.08524495 0.08528362 0.08541533 0.08551076 0.08548374
 0.08538972 0.08536644 0.08548694 0.08569475 0.08588932 0.0860425 0.08620869 0.08643116 0.08665495 0.08675055
 0.08664696 0.08642771 0.08625105 0.08618625 0.08618875 0.08622752 0.08634716 0.08657072 0.08681297 0.08695298
 0.08696944 0.08695495 0.08699518 0.08706814 0.08707802 0.08696794 0.08677803 0.08660477 0.08652529 0.08655457
 0.08664732 0.08672956 0.08674272 0.08667597 0.0865636 0.08644974 0.08635703 0.08629773 0.08630958 0.08644532
 0.08669496 0.08693458 0.08700027 0.08683666 0.08655848 0.0863473 0.0862869 0.08630371 0.08625931 0.08608421
 0.08582053 0.08555928 0.08536085 0.0852291 0.08513425 0.08505024 0.08498686 0.0849928 0.08510415 0.08527131
 0.0853606 0.08526608 0.08501519 0.08473945 0.08455186 0.08447587 0.08446877 0.08447486 0.08446957 0.08448043
 0.08454654 0.08464262 0.08468358 0.08462654 0.08452764 0.08448017 0.08453751 0.08469949 0.08491306 0.08507404
 0.08509371 0.08499298 0.08488931 0.08487308 0.0849331 0.08501042 0.08507955 0.08515355 0.08524278 0.08534504
 0.08546831 0.08563556 0.08585881 0.0861152 0.08635215 0.08652087 0.08661866 0.08670668 0.08687239 0.0871568
 0.0875145 0.08784947 0.08809363 0.08825693 0.0884046 0.08858597 0.08879425 0.08900376 0.08922543 0.08949414
 0.08981089 0.09013461 0.09043223 0.09070801 0.0909823 0.09126677 0.09156583 0.09189005 0.0922596 0.09268429
 0.09312783 0.09350549 0.09374736 0.09386955 0.09397087 0.09416147 0.09448861 0.09489855 0.09525914 0.09546232
 0.09553547 0.09562156 0.09582203 0.09609417 0.09633975 0.09655818 0.09684983 0.09727179 0.09774488 0.09812778
 0.09835698 0.0984937 0.09864351 0.09884596 0.09904818 0.09918293 0.0992565 0.09933719 0.09946781 0.09963401
 0.0998302 0.1001017 0.1004796 0.1009091 0.1012905 0.1015734 0.1017759 0.1019341 0.1020673 0.102175
 0.1022419 0.1022615 0.10227 0.1023243 0.1024293 0.1025232 0.102561 0.1025756 0.1026342 0.1027676
 0.1029727 0.1032461 0.1035704 0.1038932 0.1041707 0.1044311 0.1047432 0.1051071 0.1054228 0.1055987
 0.1056543 0.1056767 0.1057091 0.1057408 0.1057879 0.1059141 0.1061561 0.1064782 0.1068215 0.1071645
 0.1075172 0.1078763 0.1082026 0.1084381 0.1085444 0.1085385 0.1084923 0.1084945 0.1086059 0.1088361
 0.1091453 0.1094686 0.1097518 0.109963 0.110077 0.11008 0.1100148 0.1099909 0.110097 0.1102993
 0.1104561 0.1104395 0.1102198 0.1098356 0.1093237 0.1087056 0.1080242 0.1073598 0.1067978 0.1063888
 0.1061509 0.1061089 0.1063088 0.1067691 0.107424 0.1081414 0.1088003 0.1093216 0.1096299 0.1096387
 0.1093128 0.1087195 0.1079904 0.1072461 0.1065595 0.1059495 0.1053821 0.1048168 0.1042935 0.1039653
 0.1040195 0.1045681 0.1055996 0.1069884 0.1085272 0.1099891 0.1112208 0.1121996 0.1130011 0.1137111
 0.1143745 0.1150161 0.1156677 0.1163423 0.1169987 0.1175741 0.1180544 0.1184817 0.1188936 0.1192821
 0.1196157 0.1198763 0.1200791 0.1202697 0.120484 0.1206948 0.1208227 0.120819 0.1207186 0.1205922
 0.1204676 0.1203119 0.1200693 0.119708 0.1192598 0.1188445 0.1186503 0.1188551 0.1195294 0.1205937
 0.1218752 0.1232127 0.1245046 0.1256695 0.1266177 0.1272974 0.1277458 0.1280592 0.128322 0.1285804
 0.1288579 0.1291617 0.1294797 0.1297899 0.1300802 0.1303587 0.1306494 0.1309713 0.1313105 0.1316232
 0.1318807 0.1321108 0.1323793 0.1327249 0.1331171 0.1334878 0.1338058 0.1341042 0.1344217 0.1347364
 0.1349906 0.1351713 0.1353324 0.1355408 0.1358285 0.1361886 0.1365778 0.1369253 0.1371771 0.1373444
 0.1374904 0.1376679 0.1378843 0.1381208 0.1383636 0.1386102 0.1388622 0.1391271 0.1394186 0.1397395
 0.1400573 0.1403159 0.1404885 0.1406113 0.1407514 0.1409427 0.1411633 0.1413728 0.1415619 0.1417667
 0.1420338 0.1423657 0.1427046 0.1429759 0.1431501 0.1432593 0.1433631 0.143505 0.1436943 0.1439135
 0.1441358 0.1443426 0.1445335 0.1447232 0.1449264 0.1451448 0.145368 0.1455863 0.145799 0.1460093
 0.1462168 0.1464206 0.146628 0.146859 0.1471329 0.1474425 0.1477458 0.1479954 0.1481765 0.1483116
 0.1484322 0.1485594 0.148705 0.1488762 0.1490725 0.1492849 0.1495023 0.1497162 0.1499231 0.1501237
 0.1503196 0.1505108 0.1506983 0.1508874 0.151087 0.1513053 0.1515442 0.1517947 0.1520388 0.15226
 0.1524566 0.1526413 0.1528259 0.1530099 0.1531871 0.1533598 0.1535393 0.1537315 0.153931 0.1541299
 0.1543253 0.1545173 0.1547055 0.1548927 0.1550846 0.1552844 0.1554903 0.155697 0.1558987 0.1560916
 0.156277 0.1564607 0.1566488 0.1568445 0.1570467 0.1572506 0.1574519 0.1576509 0.1578506 0.1580529
 0.158258 0.1584624 0.1586601 0.1588485 0.1590351 0.1592323 0.1594434 0.1596603 0.1598705 0.1600677
 0.1602565 0.1604477 0.160646 0.1608463 0.1610446 0.1612467 0.1614604 0.1616838 0.1619066 0.1621208
 0.1623289 0.1625422 0.1627677 0.1629994 0.1632268 0.1634479 0.1636677 0.1638853 0.1640922 0.16428
 0.1644459 0.164596 0.1647441 0.1649043 0.165082 0.1652727 0.1654676 0.1656598 0.1658505 0.166046
 0.1662464 0.1664442 0.1666374 0.1668337 0.1670399 0.167254 0.1674687 0.1676756 0.1678698 0.1680552
 0.1682425 0.1684395 0.1686494 0.1688721 0.1690996 0.1693185 0.1695235 0.1697211 0.1699169 0.1701111
 0.1703053 0.1705033 0.1707081 0.1709236 0.1711519 0.1713848 0.1716103 0.1718247 0.1720317 0.1722358
 0.1724425 0.1726547 0.172867 0.1730738 0.1732793 0.173488 0.1736978 0.1739091 0.1741257 0.1743439
 0.1745568 0.1747664 0.1749768 0.1751875 0.1754004 0.1756178 0.1758347 0.1760463 0.1762577 0.1764719
 0.1766819 0.1768842 0.1770818 0.1772648 0.1773907 0.1773407 0.1768279 0.1752986 0.1719177 0.1657274
 0.156033 0.142851 0.1270593 0.1100772 0.09333833 0.07792203 0.06446043 0.05322903 0.04428449 0.03755116
 0.03287826 0.03013593 0.0293168 0.03063891 0.03465306 0.04191289 0.05175359 0.06121802 0.06620955 0.06472328
 0.05876313 0.05251811 0.04888372 0.04806378 0.04882064 0.05009836 0.05156244 0.05340415 0.0559504 0.05928832
 0.06325547 0.06785217 0.07343338 0.08025787 0.087962 0.09571964 0.1029541 0.1097848 0.1167458 0.1241433
 0.131737 0.1389761 0.1454345 0.1510216 0.1559059 0.1603276 0.1644613 0.1683886 0.1721427 0.175713
 0.1789688 0.1816303 0.1834031 0.1842023 0.1842529 0.1839624 0.1836842 0.1835843 0.1836827 0.1839552
 0.1843775 0.1849259 0.1855813 0.1863271 0.187136 0.1879733 0.188811 0.1896267 0.1903988 0.1911151
 0.1917778 0.1923902 0.1929503 0.1934599 0.1939279 0.1943628 0.1947698 0.1951524 0.1955132 0.1958563
 0.1961868 0.1965056 0.1968057 0.1970807 0.1973305 0.1975598 0.1977764 0.1979893 0.1982032 0.1984163
 0.1986265 0.1988342 0.1990395 0.1992435 0.1994504 0.1996618 0.1998727 0.2000762 0.2002683 0.2004465
 0.2006136 0.2007827 0.2009688 0.201174 0.201385 0.2015884 0.2017801 0.2019655 0.2021524 0.2023445
 0.2025419 0.2027462 0.2029583 0.2031706 0.2033727 0.2035667 0.2037646 0.20397 0.2041751 0.2043757
 0.2045767 0.2047852 0.2050066 0.2052399 0.2054703 0.2056731 0.2058373 0.2059812 0.2061397 0.2063381
 0.2065719 0.2068115 0.20703 0.2072262 0.2074156 0.2076075 0.2077971 0.2079751 0.2081443 0.2083279
 0.2085519 0.2088119 0.2090733 0.2093123 0.2095352 0.2097528 0.2099687 0.2101926 0.2104309 0.2106595
 0.2108403 0.2109795 0.2111439 0.2114046 0.2117628 0.2121394 0.2124474 0.2126691 0.2128532 0.2130587
 0.2133177 0.2136079 0.2138303 0.2138782 0.2137913 0.2137816 0.2140377 0.2145395 0.2151097 0.2155986
 0.2159735 0.216275 0.2165411 0.216766 0.2169045 0.2169251 0.2168808 0.2169251 0.2172056 0.2177112
 0.2182659 0.2187051 0.2190051 0.2192228 0.219401 0.2195589 0.2196603 0.219565 0.2191758 0.2187013
 0.2186022 0.2191457 0.2201022 0.2209874 0.2215423 0.2218686 0.2221538 0.2224398 0.222673 0.2227568
 0.2224551 0.221523 0.2201888 0.2192895 0.2195839 0.2209854 0.2227017 0.2240289 0.2247995 0.2252016
 0.2254614 0.2256917 0.2258094 0.2255515 0.2247617 0.223771 0.2233179 0.2238741 0.2251191 0.2262851
 0.2269417 0.2272268 0.2274401 0.2277013 0.2278708 0.2275029 0.2260962 0.2238389 0.2219924 0.2220049
 0.2240945 0.2269852 0.2291667 0.2301918 0.2305686 0.2306561 0.2301374 0.2285962 0.2261444 0.2233814
 0.2212068 0.2206912 0.2223645 0.2253333 0.2277901 0.2287969 0.2290759 0.2298192 0.2312695 0.2327262
 0.2334583 0.2332702 0.2323812 0.2310246 0.2293335 0.2277156 0.2270806 0.2281952 0.2307553 0.2334932
 0.2353503 0.2362801 0.2367005 0.2362587 0.233577 0.2279103 0.2212239 0.217651 0.2198419 0.2261897
 0.2325563 0.2363433 0.2379173 0.2386622 0.2391236 0.2388601 0.2367074 0.2314143 0.2236143 0.2170659
 0.2161134 0.2213909 0.2291076 0.2345862 0.2354418 0.2318373 0.2256617 0.2199706 0.2177256 0.2199954
 0.2255005 0.2318823 0.2371126 0.2400438 0.2404032 0.2386923 0.2361523 0.2344576 0.2345005 0.2350724
 0.2337862 0.2300921 0.2261942 0.2238156 0.2215341 0.2174135 0.2132605 0.213432 0.2191721 0.2265264
 0.2307835 0.2312481 0.2303864 0.2293316 0.2259423 0.2178848 0.2070569 0.1996721 0.200827 0.2092081
 0.218264 0.2226227 0.2223615 0.2210764 0.2210912 0.2210878 0.2179556 0.2108466 0.2032472 0.2000552
 0.2023735 0.2065251 0.2084065 0.2067569 0.2017385 0.1936393 0.1852271 0.1825835 0.1899807 0.2046609
 0.2189938 0.2267516 0.225383 0.2146609 0.1975865 0.1822267 0.1777818 0.1863418 0.2003475 0.2095458
 0.2091203 0.200546 0.1872169 0.172134 0.1592953 0.1541265 0.1602408 0.1757755 0.1933945 0.2039089
 0.2013565 0.1876717 0.1731528 0.1690565 0.1773188 0.1891836 0.1949964 0.1929633 0.1877906 0.1846441
 0.1861784 0.192031 0.199204 0.2048959 0.2087398 0.209617 0.2026424 0.1850253 0.1638223 0.1512856
 0.1521484 0.1612083 0.1731049 0.1871276 0.2008413 0.2068047 0.2009578 0.190319 0.1870021 0.195361
 0.2082728 0.2158498 0.2152205 0.2110513 0.2083552 0.2071602 0.2049888 0.2026255 0.2043419 0.2119998
 0.2218034 0.228536 0.230991 0.2315154 0.2320272 0.2325524 0.2325635 0.231862 0.2305124 0.228971
 0.2279418 0.227585 0.2273704 0.2268832 0.2257981 0.2226523 0.2151616 0.2034276 0.1919789 0.1861815
 0.1865509 0.1891219 0.1913491 0.1935865 0.1935824 0.1849409 0.1655639 0.144571 0.1356619 0.1438818
 0.1618682 0.178248 0.1863497 0.1847758 0.1740078 0.1566142 0.1399621 0.1339009 0.1427284 0.1610723
 0.1796347 0.1931975 0.2012023 0.2033115 0.1984369 0.1879043 0.1767119 0.1706734 0.1728842 0.1823634
 0.194373 0.2016347 0.197897 0.1841496 0.171355 0.1723538 0.1883955 0.2070593 0.2162207 0.2163266
 0.2154567 0.2167553 0.2168877 0.2148831 0.2156569 0.2232743 0.2349733 0.2438945 0.2451063 0.2375457
 0.2233676 0.2084332 0.2007826 0.204156 0.2136761 0.221094 0.2227331 0.2190026 0.2095518 0.195321
 0.18368 0.1839912 0.1967748 0.2124972 0.2224091 0.2265129 0.2295789 0.2329242 0.232809 0.2260967
 0.215495 0.2078887 0.2075391 0.2123612 0.2174608 0.2202944 0.2207064 0.2180093 0.2114111 0.2033336
 0.19944 0.2037121 0.2142996 0.2252142 0.23166 0.2330316 0.2315129 0.2292435 0.2268779 0.2237662
 0.2193915 0.2152145 0.2143801 0.2183611 0.2246158 0.2292042 0.2313 0.2334601 0.2376142 0.2424131
 0.2448727 0.2436245 0.2402084 0.2377241 0.2383426 0.2415865 0.2446874 0.2449494 0.2423151 0.2396618
 0.2401517 0.2442136 0.2494812 0.2534914 0.2556948 0.256936 0.2579966 0.2589068 0.2589264 0.2571065
 0.2536376 0.2506264 0.2506037 0.2540182 0.2588109 0.2625445 0.2643718 0.2648847 0.2647629 0.2640651
 0.2626367 0.2607632 0.2591862 0.2585215 0.258816 0.2596842 0.2607015 0.2615992 0.2622618 0.2627022
 0.263001 0.2632068 0.2633257 0.2633948 0.2634684 0.2635181 0.2634616 0.26333 0.2633044 0.2635127
 0.2638612 0.2641341 0.2641921 0.2639852 0.2634416 0.2624874 0.2611803 0.2596946 0.2581284 0.2564411
 0.2546868 0.2532687 0.2528169 0.2537147 0.2557438 0.2582155 0.2604359 0.2620481 0.2630343 0.2635418
 0.2637506 0.2638138 0.2638183 0.2637727 0.2636465 0.2634236 0.2631188 0.2627591 0.2623658 0.2619601
 0.2615755 0.2612458 0.2609744 0.2607189 0.2604167 0.26003 0.2595666 0.2590612 0.2585348 0.257969
 0.257318 0.2565452 0.2556539 0.2546918 0.2537351 0.2528523 0.2520607 0.2513155 0.2505527 0.2497347
 0.2488396 0.24783 0.2466868 0.2454841 0.2443819 0.2435059 0.2428432 0.2422674 0.2416419 0.2408899
 0.2400025 0.2390171 0.2379823 0.2369212 0.2358262 0.2346863 0.2335001 0.232261 0.2309496 0.2295481
 0.2280519 0.226471 0.2248324 0.2231702 0.2214884 0.2197279 0.2177705 0.2154711 0.212694 0.2093475
 0.2054169 0.2009799 0.196194 0.1912597 0.1863736 0.181697 0.1773581 0.1734669 0.1701158 0.1673691
 0.165264 0.1638237 0.1630709 0.1630304 0.1637115 0.1650806 0.1670501 0.1694948 0.1722743 0.1752383
 0.1782249 0.1810766 0.1836897 0.1860601 0.1882635 0.1903636 0.1923501 0.1941732 0.1958093 0.1972604
 0.1985165 0.1995577 0.2003889 0.2010528 0.2016065 0.2020953 0.2025388 0.2029325 0.2032617 0.2035213
 0.2037256 0.2039015 0.2040721 0.2042495 0.2044443 0.2046712 0.2049394 0.2052509 0.2056181 0.2060627
 0.2065849 0.2071528 0.2077325 0.2083156 0.208912 0.2095391 0.210227 0.211022 0.2119695 0.2130899
 0.2143649 0.2157454 0.2171644 0.2185398 0.2197769 0.2207932 0.2215511 0.2220569 0.2223352 0.2224132
 0.2223224 0.2220971 0.2217685 0.221364 0.2209023 0.2203888 0.2198246 0.2192194 0.2185854 0.2179227
 0.2172227 0.2164901 0.2157527 0.215044 0.214377 0.2137414 0.213123 0.2125164 0.2119172 0.2113166
 0.2107132 0.2101199 0.2095493 0.2089972 0.2084432 0.2078615 0.2072255 0.2065109 0.2057009 0.2047894
 0.2037776 0.2026685 0.2014681 0.2001869 0.1988372 0.1974225 0.1959348 0.1943663 0.1927199 0.1909972
 0.1891797 0.1872425 0.1851999 0.1831289 0.1811318 0.1792773 0.1775776 0.1760076 0.1745335 0.1731349
 0.1718077 0.1705473 0.1693346 0.1681562 0.1670256 0.1659655 0.1649744 0.1640304 0.1631234 0.1622737
 0.1615192 0.1608852 0.1603624 0.1599156 0.1595152 0.1591612 0.158881 0.1587109 0.158666 0.1587148
 0.1587893 0.1588226 0.1587745 0.1586402 0.1584569 0.15829 0.1581865 0.1581443 0.1581239 0.1580673
 0.1579061 0.1575724 0.1570068 0.1561555 0.1549837 0.1535018 0.1517726 0.1499041 0.1480441 0.1463453
 0.1449057 0.1437548 0.1428853 0.1422573 0.1417874 0.1413918 0.1410534 0.1408309 0.140802 0.1409781
 0.1412483 0.141441 0.1414862 0.1414908 0.1416361 0.1420348 0.1426824 0.1434756 0.1442659 0.1449409
 0.1454593 0.1458133 0.1460089 0.1460852 0.1460928 0.1460475 0.1459439 0.145786 0.1455737 0.1452947
 0.1449455 0.1445258 0.1440246 0.1434417 0.1427912 0.142069 0.1412615 0.1403691 0.1393688 0.1382173
 0.1369736 0.1358649 0.1351631 0.1350274 0.1354468 0.136256 0.1372366 0.1382638 0.139279 0.1400997
 0.1404691 0.140449 0.140612 0.141624 0.1436152 0.1460481 0.1481983 0.1496717 0.1504439 0.1505883
 0.1501534 0.1492016 0.1477641 0.1458019 0.1433324 0.1404956 0.1374398 0.1342968 0.1312771 0.1285962
 0.1263355 0.1244882 0.1230438 0.1220441 0.1216242 0.1214164 0.1195232 0.1135133 0.1041881 0.09724614
 0.09847552 0.1072417 0.1169422 0.1219648 0.1221349 0.1204238 0.118901 0.1178934 0.117307 0.1172996
 0.118011 0.1192878 0.1207193 0.1218932 0.1226518 0.1230465 0.1230377 0.1222496 0.1199234 0.1151948
 0.107788 0.09859565 0.08937123 0.08171581 0.07636106 0.07318623 0.07157338 0.07076621 0.07023354 0.06991914
 0.07013962 0.071202 0.07313867 0.07578756 0.0789747 0.08247139 0.08586612 0.08872252 0.09090832 0.09260806
 0.0939863 0.09498967 0.0954999 0.09552613 0.09518661 0.09460341 0.09387666 0.09308469 0.09222405 0.0911946
 0.08996165 0.08873081 0.08783324 0.08740602 0.08729418 0.08727693 0.08726245 0.0872492 0.08723243 0.0871955
 0.08713571 0.08709498 0.08717711 0.08747537 0.08795531 0.08845519 0.08881743 0.08900386 0.08908929 0.08911818
 0.08895595 0.08840486 0.08754644 0.08676973 0.08626871 0.0857062 0.08465725 0.08326842 0.08218551 0.08185425
 0.08211884 0.08249696 0.08263664 0.08247853 0.08219647 0.08210556 0.08245835 0.08314319 0.08367419 0.08364864
</values></Ydata></ScRf><Data_Parameters_AB><parameter name="DPF">1</parameter><parameter name="NPT">3497</parameter><parameter name="FXV">3996</parameter><parameter name="LXV">500</parameter><parameter name="CSF">1</parameter><parameter name="MXY">0.137365773320198</parameter><parameter name="MNY">-0.0876801759004593</parameter><parameter name="DAT">31/05/2022</parameter><parameter name="TIM">13:41:04.698 (GMT+2)</parameter><parameter name="DXU">WN</parameter></Data_Parameters_AB><AB__Qtest><MainReport name="Quality Test Report"><Header><Line><Legend>Test result ok/not ok [1/0]: </Legend><Value>0</Value></Line><Line><Legend>Method file: </Legend><Value>C:\Users\Public\Documents\Bruker\OPUS_8.2.28\QT\IRBT_v3_default.QT</Value></Line></Header><Matrix><Line><Legend></Legend><Legend>min</Legend><Legend>max</Legend><Legend>measured</Legend></Line><Line><Value>Absorption (X-Range 1):</Value><Value>0.400000</Value><Value>2.000000</Value><Value>0.147709</Value></Line><Line><Value>Noise (X-Range 4):</Value><Value></Value><Value>0.000300</Value><Value>0.000065</Value></Line><Line><Value>Signal/Noise (X-Range 2):</Value><Value>200.000000</Value><Value></Value><Value>44.650457</Value></Line><Line><Value>Signal/Noise (X-Range 3):</Value><Value>40.000000</Value><Value></Value><Value>26.426482</Value></Line><Line><Value>Water vapour (X-Range 5):</Value><Value></Value><Value>0.000300</Value><Value>0.000099</Value></Line><Line><Value>Signal/Water (X-Range 2):</Value><Value>100.000000</Value><Value></Value><Value>29.369654</Value></Line><Line><Value>Signal/Water (X-Range 3):</Value><Value>20.000000</Value><Value></Value><Value>17.382501</Value></Line><Line><Value>Fringes (X-Range 6):</Value><Value></Value><Value>0.000100</Value><Value>0.000058</Value></Line></Matrix></MainReport></AB__Qtest><Data_Parameters_ScSm><parameter name="DPF">1</parameter><parameter name="NPT">1814</parameter><parameter name="FXV">3996.33169228125</parameter><parameter name="LXV">499.541461535156</parameter><parameter name="CSF">1</parameter><parameter name="MXY">0.290328621864319</parameter><parameter name="MNY">0.0358751714229584</parameter><parameter name="DAT">31/05/2022</parameter><parameter name="TIM">13:41:04.698 (GMT+2)</parameter><parameter name="DXU">WN</parameter></Data_Parameters_ScSm><Data_Parameters_ScRf><parameter name="DPF">1</parameter><parameter name="NPT">1820</parameter><parameter name="FXV">4004.04661832813</parameter><parameter name="LXV">495.683998511719</parameter><parameter name="CSF">1</parameter><parameter name="MXY">0.26488471031189</parameter><parameter name="MNY">0.0293168015778065</parameter><parameter name="DAT">31/05/2022</parameter><parameter name="TIM">13:40:38.845 (GMT+2)</parameter><parameter name="DXU">WN</parameter></Data_Parameters_ScRf><Optic_Parameters_Rf><parameter name="APR">0</parameter><parameter name="APT">Open</parameter><parameter name="BMS">KBr</parameter><parameter name="DTC">RT-DLaTGS_IR-Biotyper [Microplate reader]</parameter><parameter name="HPF">0</parameter><parameter name="LPF">10.0</parameter><parameter name="LPV">4000</parameter><parameter name="PGR">0</parameter><parameter name="RCH">Module port</parameter><parameter name="RDX">0</parameter><parameter name="SRC">MIR</parameter><parameter name="VEL">10.0</parameter><parameter name="SON">Off</parameter></Optic_Parameters_Rf><Acquisition_Parameters_Rf><parameter name="ADT">1</parameter><parameter name="AQM">DD</parameter><parameter name="CFE">0</parameter><parameter name="COR">0</parameter><parameter name="DEL">0</parameter><parameter name="DLY">0</parameter><parameter name="HFW">8000</parameter><parameter name="LFW">0</parameter><parameter name="NSR">32</parameter><parameter name="PLF">AB</parameter><parameter name="RES">6</parameter><parameter name="RGN">-1</parameter><parameter name="STR">0</parameter><parameter name="TCL">MakeCompatibleScalar (0, {WSV=1.000000, ARV=0});</parameter><parameter name="TDL">37</parameter><parameter name="RPO">0</parameter></Acquisition_Parameters_Rf><FT_-_Parameters_Rf><parameter name="APF">B3</parameter><parameter name="HFQ">500</parameter><parameter name="LFQ">4000</parameter><parameter name="NLI">0</parameter><parameter name="PHR">24</parameter><parameter name="PHZ">ML</parameter><parameter name="SPZ">NO</parameter><parameter name="ZFF">1</parameter></FT_-_Parameters_Rf><Optic_Parameters_><parameter name="APR">0</parameter><parameter name="APT">Open</parameter><parameter name="BMS">KBr</parameter><parameter name="CHN">Module port</parameter><parameter name="DTC">RT-DLaTGS_IR-Biotyper [Microplate reader]</parameter><parameter name="HPF">0</parameter><parameter name="LPF">10.0</parameter><parameter name="LPV">4000</parameter><parameter name="PGN">0</parameter><parameter name="RDX">0</parameter><parameter name="SRC">MIR</parameter><parameter name="VEL">10.0</parameter><parameter name="SON">Off</parameter></Optic_Parameters_><FT_-_Parameters_><parameter name="APF">B3</parameter><parameter name="HFQ">500</parameter><parameter name="LFQ">4000</parameter><parameter name="NLI">0</parameter><parameter name="PHR">24</parameter><parameter name="PHZ">ML</parameter><parameter name="SPZ">NO</parameter><parameter name="ZFF">1</parameter></FT_-_Parameters_><Acquisition_Parameters_><parameter name="ADT">1</parameter><parameter name="AQM">DD</parameter><parameter name="CFE">0</parameter><parameter name="COR">0</parameter><parameter name="DEL">0</parameter><parameter name="DLY">0</parameter><parameter name="HFW">8000</parameter><parameter name="LFW">0</parameter><parameter name="NSS">32</parameter><parameter name="PLF">AB</parameter><parameter name="RES">6</parameter><parameter name="SOT">0</parameter><parameter name="TCL">MakeCompatibleScalar (0, {WSV=1.000000, ARV=0});</parameter><parameter name="TDL">37</parameter><parameter name="SPO">0</parameter><parameter name="SGN">-1</parameter></Acquisition_Parameters_><Instrument_Parameters_Rf><parameter name="HFL">15800.168544</parameter><parameter name="LFL">0</parameter><parameter name="LWN">15800.168544</parameter><parameter name="ABP">32197</parameter><parameter name="SSP">1</parameter><parameter name="ARG">2</parameter><parameter name="ASG">2</parameter><parameter name="ASS">32</parameter><parameter name="GFW">16</parameter><parameter name="GBW">16</parameter><parameter name="BFW">0</parameter><parameter name="BBW">0</parameter><parameter name="PKA">7253</parameter><parameter name="PKL">4996</parameter><parameter name="PRA">7443</parameter><parameter name="PRL">5001</parameter><parameter name="P2A">1</parameter><parameter name="P2L">1</parameter><parameter name="P2R">1</parameter><parameter name="P2K">1</parameter><parameter name="DAQ">0</parameter><parameter name="AG2">1</parameter><parameter name="SSM">1</parameter><parameter name="RSN">25695</parameter><parameter name="CRR">0</parameter><parameter name="SRT">1654004438.846</parameter><parameter name="DUR">19.6379852294922</parameter><parameter name="TSC">28.9</parameter><parameter name="MVD">0.222699195146561</parameter><parameter name="AN1">0.225802351855668</parameter><parameter name="AN2">0</parameter><parameter name="VSN">2.485 Apr  4 2017</parameter><parameter name="SRN">0085</parameter><parameter name="CAM">0</parameter><parameter name="INS">IR-Biotyper</parameter><parameter name="FOC">69</parameter><parameter name="RDY">1</parameter><parameter name="ARS">32</parameter></Instrument_Parameters_Rf><Sample_Parameters_><parameter name="BLD"></parameter><parameter name="CNM">Admin</parameter><parameter name="CPY"></parameter><parameter name="DPM"></parameter><parameter name="EXP">IRBT_v3_32Scans.XPM</parameter><parameter name="LCT"></parameter><parameter name="SFM">Microplate, HTS-XT</parameter><parameter name="SNM">220531-1301_CGR32F (D_3)_C4_67ceddea-671c-4fd5-883c-d8ce9da37c55.0</parameter><parameter name="XPP">C:\Users\Public\Documents\Bruker\OPUS_8.2.28\XPM</parameter><parameter name="IST">OK</parameter><parameter name="CPG">1252</parameter><parameter name="UID">25efa45a-6653-431c-87a9-f723080c0f39</parameter></Sample_Parameters_><Instrument_Parameters_><parameter name="HFL">15800.168544</parameter><parameter name="LFL">0</parameter><parameter name="LWN">15800.168544</parameter><parameter name="ABP">32197</parameter><parameter name="SSP">1</parameter><parameter name="ASG">2</parameter><parameter name="ARG">2</parameter><parameter name="ASS">32</parameter><parameter name="GFW">16</parameter><parameter name="GBW">16</parameter><parameter name="BFW">0</parameter><parameter name="BBW">0</parameter><parameter name="PKA">7905</parameter><parameter name="PKL">4988</parameter><parameter name="PRA">8169</parameter><parameter name="PRL">4993</parameter><parameter name="P2A">1</parameter><parameter name="P2L">1</parameter><parameter name="P2R">1</parameter><parameter name="P2K">1</parameter><parameter name="DAQ">0</parameter><parameter name="AG2">1</parameter><parameter name="SSM">1</parameter><parameter name="RSN">13473</parameter><parameter name="CRR">0</parameter><parameter name="SRT">1654004464.699</parameter><parameter name="DUR">19.6379852294922</parameter><parameter name="TSC">28.9</parameter><parameter name="MVD">0.216716036200523</parameter><parameter name="AN1">0.225802601875287</parameter><parameter name="AN2">0</parameter><parameter name="VSN">2.485 Apr  4 2017</parameter><parameter name="SRN">0085</parameter><parameter name="CAM">0</parameter><parameter name="INS">IR-Biotyper</parameter><parameter name="FOC">69</parameter><parameter name="RDY">1</parameter></Instrument_Parameters_><History/></OPUSDataFile>
