<?xml version="1.0" encoding="UTF-8" ?>
<OPUSDataFile><AB><Ydata ylabel="Absorbance Units"><values byteorder="INTEL" format="FLOAT32" numvalues="3497"> -0.0773913 -0.07746608 -0.07753693 -0.07760499 -0.07765298 -0.07768004 -0.07768274 -0.0776622 -0.07763061 -0.0775904
 -0.07756213 -0.07754625 -0.07755714 -0.07758947 -0.07763942 -0.07769871 -0.07775106 -0.07779513 -0.07782041 -0.07783668
 -0.07784737 -0.07786293 -0.07789207 -0.07793211 -0.07798599 -0.07804081 -0.07809342 -0.07813748 -0.07817017 -0.07819987
 -0.07822675 -0.07826351 -0.07831086 -0.07836914 -0.07843726 -0.07850106 -0.07855948 -0.0785981 -0.07861891 -0.07862037
 -0.07860726 -0.07858966 -0.07857204 -0.07856641 -0.07857413 -0.07860214 -0.0786476 -0.07871153 -0.0787877 -0.07887436
 -0.07896224 -0.07904897 -0.07912236 -0.07917914 -0.07921076 -0.07921391 -0.07919558 -0.07915484 -0.07911695 -0.07908327
 -0.07908143 -0.07911132 -0.07917973 -0.07928187 -0.0793928 -0.07950751 -0.07959227 -0.07965121 -0.07967444 -0.07967515
 -0.0796707 -0.07967069 -0.07969602 -0.07974108 -0.07981163 -0.0798893 -0.07996634 -0.08002737 -0.08006341 -0.08007334
 -0.08005323 -0.0800159 -0.07996123 -0.07991145 -0.07986795 -0.07985722 -0.07988081 -0.07995883 -0.08009067 -0.08027522
 -0.08050621 -0.08074805 -0.08098957 -0.08116869 -0.08128465 -0.08129741 -0.08122972 -0.08109822 -0.08093134 -0.08076922
 -0.08062696 -0.0805323 -0.08048121 -0.08048277 -0.0805148 -0.0805722 -0.08063316 -0.08068894 -0.08073994 -0.08078341
 -0.08083521 -0.08089731 -0.08097251 -0.08106121 -0.08114121 -0.08121153 -0.08125192 -0.08126576 -0.08126295 -0.08124977
 -0.0812562 -0.08128225 -0.08134628 -0.08143725 -0.08154543 -0.08166005 -0.08176145 -0.08185371 -0.08193412 -0.08200654
 -0.08207655 -0.0821306 -0.0821634 -0.08217078 -0.08214435 -0.0821185 -0.08209457 -0.08212362 -0.08221281 -0.08237586
 -0.08261479 -0.08284044 -0.08304625 -0.08310568 -0.08303385 -0.08286437 -0.08261974 -0.08240757 -0.08222535 -0.08212146
 -0.08208242 -0.08210923 -0.08218398 -0.08228754 -0.08240265 -0.08250713 -0.08259799 -0.08266474 -0.08271996 -0.08276708
 -0.08281217 -0.08285953 -0.08289999 -0.08293228 -0.08295114 -0.0829547 -0.08295621 -0.08295629 -0.0829741 -0.08300953
 -0.08306465 -0.08313629 -0.08320493 -0.08326814 -0.08330435 -0.08331773 -0.08330744 -0.08327932 -0.08324481 -0.08320262
 -0.08315505 -0.08310187 -0.08303982 -0.0829815 -0.08293013 -0.08290617 -0.08291925 -0.08297806 -0.08309155 -0.0832362
 -0.0834128 -0.08357604 -0.08372101 -0.08381952 -0.08386932 -0.08387454 -0.08383608 -0.08376942 -0.08367522 -0.08356391
 -0.08343762 -0.08330835 -0.08318166 -0.0830773 -0.08300009 -0.08296955 -0.08298149 -0.08304256 -0.08313529 -0.08324981
 -0.08336495 -0.08346415 -0.08354177 -0.08358856 -0.08361885 -0.08363406 -0.08364952 -0.08366926 -0.08369395 -0.0837245
 -0.08375444 -0.08378336 -0.08381104 -0.08383784 -0.08387031 -0.08390823 -0.08395419 -0.08400563 -0.08405365 -0.08409697
 -0.08412579 -0.08414523 -0.08415832 -0.08417394 -0.08420454 -0.08425479 -0.08433369 -0.08443995 -0.08457461 -0.08473817
 -0.08493125 -0.08515376 -0.08541037 -0.08567657 -0.08595334 -0.08618839 -0.08637635 -0.08647923 -0.08649405 -0.08641271
 -0.08623645 -0.08598369 -0.08566209 -0.08533201 -0.08500267 -0.08474409 -0.08455662 -0.08448063 -0.08450215 -0.08462398
 -0.08480807 -0.08501031 -0.08519793 -0.08531777 -0.08538809 -0.0854013 -0.08539137 -0.08537414 -0.08535562 -0.08534381
 -0.08532012 -0.08528178 -0.08521833 -0.08512597 -0.08502734 -0.08492335 -0.08484953 -0.08480692 -0.08481432 -0.08486976
 -0.08497114 -0.08511197 -0.08526908 -0.08542932 -0.08554442 -0.08561125 -0.08559426 -0.08551715 -0.08539471 -0.08524902
 -0.08510838 -0.08497153 -0.08484743 -0.08472403 -0.08459546 -0.08446551 -0.0843305 -0.08421422 -0.0841212 -0.08406339
 -0.08404518 -0.08404285 -0.08405565 -0.08403861 -0.08399096 -0.08389746 -0.08376464 -0.08363467 -0.08350982 -0.08342497
 -0.08337013 -0.08333436 -0.0833132 -0.08329171 -0.08327404 -0.08326188 -0.08325229 -0.0832473 -0.08323102 -0.08319329
 -0.0831276 -0.08302569 -0.08289969 -0.08275371 -0.08258506 -0.08239575 -0.08216815 -0.08189911 -0.08159157 -0.08124503
 -0.08088408 -0.08051015 -0.08015001 -0.07980497 -0.07949796 -0.0792283 -0.07900801 -0.07883038 -0.07868471 -0.07856258
 -0.0784421 -0.07832249 -0.07819497 -0.07805785 -0.0779122 -0.07773903 -0.07752673 -0.0772636 -0.07693372 -0.07656807
 -0.07616986 -0.07577624 -0.07539644 -0.07504068 -0.07471244 -0.07440129 -0.07410694 -0.07381251 -0.07351775 -0.07322006
 -0.07292145 -0.07263835 -0.07236838 -0.07211532 -0.07186505 -0.0715785 -0.07125092 -0.07084279 -0.07038932 -0.06991878
 -0.06946427 -0.0690741 -0.06873716 -0.06846713 -0.06822404 -0.06799673 -0.06774539 -0.06745259 -0.06711494 -0.06672494
 -0.06631493 -0.06588799 -0.06546699 -0.06505435 -0.06464101 -0.06422608 -0.06378926 -0.06333146 -0.06284993 -0.06234827
 -0.06184015 -0.06132866 -0.06082894 -0.06034311 -0.05988341 -0.05944726 -0.05903897 -0.05864731 -0.0582632 -0.05787985
 -0.05748753 -0.05709419 -0.0567029 -0.05631258 -0.05592856 -0.05552232 -0.0550889 -0.05460884 -0.05407505 -0.05352276
 -0.0529532 -0.05242056 -0.05192603 -0.05148209 -0.05108497 -0.05071123 -0.05035673 -0.04999088 -0.04961323 -0.0492042
 -0.04877169 -0.04831932 -0.04786014 -0.047415 -0.04698625 -0.04658921 -0.0462034 -0.04582382 -0.04542177 -0.04497929
 -0.04449733 -0.04396723 -0.04342217 -0.04286689 -0.04232796 -0.04181065 -0.04131538 -0.04084308 -0.04037496 -0.0399101
 -0.03943093 -0.03893824 -0.03843065 -0.03790994 -0.03738349 -0.03685154 -0.03631758 -0.03578332 -0.03525214 -0.03472949
 -0.03422496 -0.03373946 -0.03328023 -0.03283659 -0.03240488 -0.03197312 -0.03153291 -0.03108679 -0.03063121 -0.03018352
 -0.02974676 -0.02933249 -0.0289446 -0.02856771 -0.02820166 -0.02781297 -0.02740052 -0.02694783 -0.02645801 -0.02594931
 -0.02542556 -0.02491525 -0.02441585 -0.02393577 -0.02346859 -0.02300443 -0.02254228 -0.02207451 -0.02160834 -0.02114723
 -0.02069931 -0.02027373 -0.01986488 -0.01947648 -0.01908604 -0.01868751 -0.01826501 -0.017811 -0.01733967 -0.01685031
 -0.01637213 -0.01590757 -0.01546828 -0.01505418 -0.01465433 -0.01426768 -0.01388025 -0.01349293 -0.01310185 -0.01270955
 -0.0123213 -0.01193897 -0.01156991 -0.01121164 -0.01086503 -0.01052382 -0.01018213 -0.009836367 -0.009482208 -0.009119105
 -0.008746548 -0.008361509 -0.007961932 -0.007550776 -0.007125628 -0.006707172 -0.006297447 -0.00591533 -0.00556333 -0.005228991
 -0.004911141 -0.004577227 -0.004227913 -0.003852934 -0.003459014 -0.003072088 -0.00269718 -0.002365415 -0.002070771 -0.001818965
 -0.001595056 -0.001380362 -0.00116512 -0.0009300263 -0.00068137 -0.0004157191 -0.0001469502 0.0001179895 0.0003757153 0.0006217776
 0.0008657516 0.001108505 0.001359896 0.001621593 0.001897015 0.002186737 0.002488092 0.002800801 0.003116943 0.003436191
 0.003751694 0.004064647 0.004377215 0.004690409 0.005009561 0.005332101 0.005656069 0.005977156 0.006288351 0.006587287
 0.006869738 0.007132949 0.007374265 0.007590784 0.00777881 0.007943976 0.008085072 0.008217825 0.008345016 0.008479259
 0.008623305 0.008777183 0.008941345 0.009108962 0.009279786 0.009450574 0.009621808 0.009796765 0.00997577 0.01016303
 0.01035654 0.01055357 0.01074963 0.01093369 0.01110429 0.01125204 0.01138495 0.01150488 0.01162719 0.01176364
 0.01192123 0.01211051 0.01231571 0.01253746 0.01274553 0.01293285 0.01308435 0.0131948 0.01327947 0.01333876
 0.01339512 0.01344917 0.01350005 0.01354614 0.01357018 0.01357379 0.01355433 0.01351815 0.01348378 0.0134547
 0.01344904 0.01346199 0.01349565 0.01354102 0.01358905 0.01363622 0.01367506 0.01371305 0.01374992 0.01379995
 0.01386816 0.01396174 0.0140856 0.01422728 0.01438797 0.01453652 0.01467094 0.01475933 0.01480052 0.0147877
 0.01472381 0.01463443 0.01452296 0.01442134 0.01432671 0.01424687 0.01417753 0.0141106 0.01405073 0.01400109
 0.01396649 0.01395813 0.0139621 0.01397562 0.01397534 0.01394525 0.01388782 0.01379465 0.01370014 0.01360985
 0.01355211 0.01353439 0.01354711 0.01359138 0.01363123 0.0136649 0.0136616 0.01362198 0.01353944 0.0134185
 0.01327672 0.0131206 0.01297975 0.0128575 0.01277741 0.01273377 0.0127316 0.012755 0.01279136 0.01282357
 0.01283426 0.01281931 0.01276881 0.0126977 0.01260624 0.01251873 0.01243972 0.01239005 0.01237323 0.012402
 0.01247798 0.01260453 0.01278151 0.01299474 0.01324091 0.0134829 0.01371509 0.0138884 0.01400158 0.01402035
 0.01395727 0.0138161 0.01362522 0.01342559 0.01324495 0.01313239 0.013085 0.01312641 0.01321006 0.01332614
 0.01341205 0.01344266 0.01338992 0.01323653 0.01301235 0.01271553 0.01240645 0.01209021 0.01180674 0.01155774
 0.01134163 0.01115673 0.01098388 0.0108238 0.01066967 0.01052531 0.01039992 0.01029548 0.0102238 0.01017705
 0.01015463 0.010132 0.01008811 0.009990462 0.009806044 0.009527227 0.009132026 0.008660913 0.00811599 0.007561597
 0.00701266 0.006510173 0.006064283 0.005677308 0.005351332 0.005066939 0.004822999 0.004588457 0.004361692 0.004112373
 0.003843615 0.003553492 0.003251184 0.002968441 0.002705195 0.002483765 0.002282327 0.002079304 0.00185146 0.001558886
 0.001211723 0.0007950357 0.0003561181 -8.863976E-05 -0.0004921576 -0.0008308834 -0.001096571 -0.001276516 -0.001411896 -0.001502884
 -0.001617409 -0.001761399 -0.001983512 -0.002285962 -0.00266088 -0.003103651 -0.00356048 -0.00402725 -0.004452285 -0.004839194
 -0.005171277 -0.005457173 -0.005707345 -0.005929408 -0.006139115 -0.006341873 -0.006548837 -0.006763743 -0.006992822 -0.007237112
 -0.007499109 -0.007776974 -0.008071126 -0.008377459 -0.008695729 -0.009019389 -0.009347744 -0.009673853 -0.009997054 -0.01031255
 -0.01062009 -0.01091706 -0.0112035 -0.01147851 -0.01174291 -0.01200018 -0.01225216 -0.01250716 -0.01276585 -0.01303473
 -0.01331112 -0.0135936 -0.01387992 -0.01416571 -0.01445411 -0.01474543 -0.0150446 -0.0153557 -0.01567603 -0.01600696
 -0.01633887 -0.01666918 -0.01699467 -0.01731344 -0.0176337 -0.017956 -0.01828707 -0.01862719 -0.0189694 -0.01931281
 -0.01964375 -0.0199628 -0.0202648 -0.02055359 -0.02083891 -0.02112522 -0.02142847 -0.02174801 -0.02209252 -0.02245222
 -0.02282201 -0.02318699 -0.02353486 -0.02385457 -0.02413655 -0.02437826 -0.02457479 -0.02473508 -0.02485656 -0.0249683
 -0.02507118 -0.02521248 -0.02539663 -0.02565769 -0.02599751 -0.02640167 -0.02686569 -0.02733133 -0.02779364 -0.0281923
 -0.02853108 -0.02878635 -0.028975 -0.02911973 -0.029245 -0.02940084 -0.02959868 -0.02987805 -0.03021656 -0.03061632
 -0.0310341 -0.03144511 -0.03183166 -0.03217576 -0.03250095 -0.03281082 -0.03311969 -0.03343582 -0.03372108 -0.03397424
 -0.03413908 -0.03421259 -0.03419429 -0.0340902 -0.03397489 -0.0338574 -0.03383142 -0.03389353 -0.03408792 -0.03439171
 -0.03477772 -0.03521679 -0.03564679 -0.03605986 -0.03641682 -0.03674006 -0.03703399 -0.03731981 -0.03761684 -0.03791071
 -0.03820366 -0.03846679 -0.0386888 -0.03887748 -0.03902855 -0.03918424 -0.03934906 -0.03954041 -0.03975945 -0.03997244
 -0.04017716 -0.04033343 -0.04044543 -0.04051561 -0.04055345 -0.04059497 -0.04064345 -0.0407271 -0.04083797 -0.04097635
 -0.04113231 -0.04129178 -0.0414573 -0.04162172 -0.04180447 -0.04201259 -0.04226589 -0.04257751 -0.04293925 -0.04335778
 -0.04378816 -0.04422671 -0.04462038 -0.0449623 -0.04523677 -0.0454425 -0.04561787 -0.04576641 -0.04594667 -0.04615748
 -0.04642494 -0.0467384 -0.04707467 -0.04742227 -0.04774024 -0.04802842 -0.04826534 -0.04846314 -0.04862588 -0.04876892
 -0.04890505 -0.04904626 -0.04920333 -0.0493787 -0.04957849 -0.0497891 -0.05001013 -0.05021989 -0.05041302 -0.05058876
 -0.05074424 -0.05091448 -0.05110133 -0.0513402 -0.05162955 -0.05195629 -0.05231323 -0.05264691 -0.05295761 -0.0532131
 -0.05342901 -0.05362686 -0.05382009 -0.05404633 -0.05429631 -0.05457795 -0.05486784 -0.05514845 -0.05540801 -0.05563314
 -0.0558279 -0.05599155 -0.05612605 -0.05623277 -0.05630681 -0.05634649 -0.05635592 -0.05633374 -0.05630469 -0.05626999
 -0.05626816 -0.05630089 -0.05640116 -0.05656663 -0.05680256 -0.05709944 -0.05742742 -0.05777396 -0.05809315 -0.05837939
 -0.05860089 -0.0587626 -0.05885683 -0.0588934 -0.05887688 -0.05881749 -0.05872012 -0.05859832 -0.05845581 -0.05831201
 -0.05817172 -0.05805204 -0.05795833 -0.05788749 -0.05784222 -0.05778595 -0.05771689 -0.05757777 -0.05736696 -0.05704819
 -0.05662769 -0.05612374 -0.05554939 -0.05496353 -0.0543735 -0.05383008 -0.05332615 -0.05287465 -0.05246047 -0.05207005
 -0.05169409 -0.05131888 -0.05094568 -0.05057186 -0.05019921 -0.04982974 -0.04945645 -0.04907846 -0.04868713 -0.04827904
 -0.0478623 -0.04743577 -0.04702809 -0.04664082 -0.04630347 -0.0460167 -0.04579404 -0.04563505 -0.04554375 -0.0455197
 -0.04556675 -0.04567792 -0.04584394 -0.04604354 -0.04623979 -0.04640687 -0.04649619 -0.04650305 -0.0464006 -0.04621514
 -0.04595089 -0.0456423 -0.04530556 -0.04495397 -0.04459694 -0.04422299 -0.04383263 -0.04340713 -0.04294416 -0.04243558
 -0.04188053 -0.04129108 -0.0406689 -0.04004291 -0.039414 -0.03880515 -0.03821043 -0.03762203 -0.0370279 -0.03639194
 -0.03571061 -0.03495143 -0.03414345 -0.03328951 -0.03247448 -0.03174637 -0.03124335 -0.03104711 -0.03128265 -0.03203352
 -0.0332971 -0.03511948 -0.03731011 -0.03986436 -0.04248175 -0.045133 -0.04757249 -0.04978202 -0.05168151 -0.05327456
 -0.05462204 -0.05573403 -0.05670716 -0.05754369 -0.05830242 -0.05898188 -0.05960481 -0.0601765 -0.06071449 -0.06122825
 -0.0617378 -0.06224373 -0.06275631 -0.06326317 -0.06376158 -0.06423575 -0.06467862 -0.06508102 -0.06543863 -0.06575001
 -0.06601385 -0.06623351 -0.06640927 -0.06654327 -0.06663577 -0.06668196 -0.06668201 -0.06663565 -0.06654716 -0.06644352
 -0.06633373 -0.0662692 -0.06625264 -0.06632188 -0.06646331 -0.06667408 -0.06693043 -0.06720322 -0.06747189 -0.06771003
 -0.06790383 -0.06803902 -0.06810615 -0.068099 -0.06801049 -0.06783971 -0.06757192 -0.06720701 -0.06671441 -0.06608896
 -0.065325 -0.06441946 -0.06348376 -0.06253207 -0.06182486 -0.06138079 -0.06147294 -0.06207653 -0.06326327 -0.06494325
 -0.06693131 -0.06912524 -0.07124924 -0.0732675 -0.07500983 -0.07652331 -0.07778479 -0.07886691 -0.07980937 -0.08065185
 -0.08142254 -0.08212689 -0.08277104 -0.08335627 -0.0838825 -0.08435807 -0.08478356 -0.08516844 -0.08551326 -0.08582763
 -0.08611221 -0.08637952 -0.08663028 -0.086876 -0.08711633 -0.08735662 -0.08759493 -0.08782948 -0.08805723 -0.08827153
 -0.08847132 -0.08865082 -0.08881537 -0.08896579 -0.08911286 -0.08926335 -0.08942412 -0.0896019 -0.08978979 -0.08998957
 -0.09018219 -0.09036467 -0.0905218 -0.09065023 -0.09075532 -0.09083682 -0.09091693 -0.09099644 -0.09109034 -0.0911969
 -0.09131001 -0.09142812 -0.09153959 -0.09164859 -0.09175966 -0.09187893 -0.09202219 -0.09218671 -0.09237847 -0.0925843
 -0.09279532 -0.09299951 -0.09318618 -0.09335214 -0.09349298 -0.09361099 -0.0937053 -0.09378159 -0.09383953 -0.09389201
 -0.09393997 -0.09399816 -0.09406775 -0.09415306 -0.09425384 -0.09436311 -0.09448039 -0.09459885 -0.09471872 -0.09483798
 -0.09495564 -0.09506853 -0.09517454 -0.0952675 -0.09534822 -0.09541405 -0.09546965 -0.09551837 -0.09556343 -0.09560885
 -0.09565224 -0.09569339 -0.09573036 -0.09576073 -0.09579273 -0.09582625 -0.09587667 -0.09594623 -0.09604076 -0.09616128
 -0.09629434 -0.09643891 -0.09657372 -0.09669878 -0.09680372 -0.09689081 -0.09696412 -0.09702592 -0.09708503 -0.09714141
 -0.09719996 -0.09725771 -0.09731313 -0.09736264 -0.09740111 -0.09743091 -0.09744927 -0.09746881 -0.09749301 -0.09753605
 -0.09760424 -0.09769828 -0.09782111 -0.09795871 -0.09811029 -0.09825962 -0.0984055 -0.09853767 -0.09865577 -0.09875477
 -0.09883521 -0.09889789 -0.0989449 -0.09898522 -0.09902152 -0.09906634 -0.09912013 -0.0991905 -0.09927429 -0.09937098
 -0.09947599 -0.09958511 -0.09969479 -0.09980133 -0.09990398 -0.1000012 -0.1000946 -0.100184 -0.1002716 -0.1003577
 -0.1004436 -0.1005295 -0.1006164 -0.1007045 -0.1007934 -0.100883 -0.1009692 -0.1010514 -0.101122 -0.101181
 -0.1012235 -0.1012516 -0.1012682 -0.1012776 -0.1012892 -0.1013068 -0.1013394 -0.1013878 -0.1014568 -0.101543
 -0.1016467 -0.1017614 -0.101885 -0.1020098 -0.1021332 -0.1022496 -0.1023574 -0.1024544 -0.1025399 -0.1026145
 -0.1026778 -0.102733 -0.1027804 -0.1028273 -0.1028743 -0.1029316 -0.1029987 -0.1030807 -0.1031748 -0.1032763
 -0.1033812 -0.103479 -0.1035682 -0.1036416 -0.1037031 -0.1037527 -0.1037966 -0.1038392 -0.1038832 -0.1039318
 -0.1039822 -0.1040345 -0.1040847 -0.1041315 -0.1041759 -0.1042176 -0.1042615 -0.1043078 -0.1043595 -0.1044167
 -0.1044777 -0.1045423 -0.1046076 -0.1046737 -0.1047406 -0.1048094 -0.1048831 -0.1049621 -0.1050495 -0.1051433
 -0.1052428 -0.1053429 -0.1054392 -0.1055261 -0.105598 -0.1056552 -0.1056944 -0.1057244 -0.1057464 -0.1057721
 -0.1058046 -0.105847 -0.1059008 -0.1059579 -0.1060179 -0.1060739 -0.1061258 -0.1061762 -0.1062256 -0.1062793
 -0.1063362 -0.1063945 -0.1064533 -0.1065075 -0.106559 -0.1066089 -0.1066601 -0.1067182 -0.1067822 -0.1068546
 -0.10693 -0.1070058 -0.1070775 -0.1071415 -0.1071992 -0.1072495 -0.1072973 -0.1073439 -0.1073907 -0.1074387
 -0.1074829 -0.1075229 -0.107554 -0.107576 -0.1075925 -0.1076045 -0.1076212 -0.107643 -0.1076765 -0.1077204
 -0.1077749 -0.1078376 -0.1079048 -0.1079728 -0.1080353 -0.1080891 -0.1081272 -0.1081528 -0.1081636 -0.1081708
 -0.1081787 -0.1081967 -0.1082306 -0.1082769 -0.1083374 -0.108399 -0.1084602 -0.1085116 -0.1085519 -0.1085834
 -0.1086062 -0.1086299 -0.1086547 -0.1086883 -0.1087295 -0.1087786 -0.1088332 -0.1088866 -0.1089366 -0.1089752
 -0.1090032 -0.109017 -0.1090214 -0.1090192 -0.1090173 -0.1090211 -0.109034 -0.1090604 -0.1090962 -0.1091418
 -0.1091898 -0.1092383 -0.1092833 -0.1093235 -0.1093611 -0.109396 -0.1094297 -0.1094621 -0.1094892 -0.1095107
 -0.109523 -0.1095276 -0.1095292 -0.1095302 -0.1095411 -0.1095613 -0.1095956 -0.1096396 -0.1096891 -0.1097406
 -0.1097882 -0.1098329 -0.1098732 -0.1099123 -0.1099517 -0.1099919 -0.110034 -0.1100757 -0.1101165 -0.1101552
 -0.1101911 -0.1102264 -0.110261 -0.1102968 -0.1103337 -0.1103693 -0.1104032 -0.1104311 -0.1104538 -0.1104728
 -0.1104901 -0.1105133 -0.1105424 -0.1105818 -0.1106276 -0.1106758 -0.1107226 -0.1107615 -0.1107942 -0.110819
 -0.1108418 -0.1108654 -0.1108925 -0.1109257 -0.1109609 -0.110998 -0.1110306 -0.1110574 -0.1110774 -0.1110902
 -0.1111013 -0.1111109 -0.1111252 -0.111144 -0.1111681 -0.1111969 -0.1112279 -0.1112607 -0.111293 -0.1113249
 -0.1113552 -0.1113839 -0.1114104 -0.1114348 -0.1114566 -0.1114763 -0.1114934 -0.1115095 -0.1115246 -0.1115415
 -0.1115614 -0.111585 -0.1116134 -0.1116424 -0.1116719 -0.1116974 -0.1117185 -0.1117374 -0.1117543 -0.1117751
 -0.1117998 -0.1118292 -0.1118624 -0.1118948 -0.1119257 -0.1119503 -0.1119686 -0.1119782 -0.1119803 -0.1119748
 -0.1119647 -0.1119528 -0.1119418 -0.1119354 -0.1119327 -0.1119347 -0.1119384 -0.1119426 -0.1119472 -0.1119516
 -0.1119588 -0.1119692 -0.1119845 -0.1120048 -0.1120274 -0.112052 -0.1120745 -0.1120947 -0.1121106 -0.1121228
 -0.1121329 -0.1121415 -0.1121517 -0.1121632 -0.1121768 -0.112192 -0.1122082 -0.1122254 -0.1122437 -0.1122625
 -0.1122818 -0.1122986 -0.1123113 -0.1123177 -0.112316 -0.1123081 -0.1122938 -0.1122773 -0.1122591 -0.1122427
 -0.1122284 -0.11222 -0.1122176 -0.1122244 -0.1122401 -0.1122622 -0.1122901 -0.1123173 -0.112345 -0.1123719
 -0.1124027 -0.1124463 -0.1125081 -0.112601 -0.1127258 -0.1128894 -0.1130857 -0.1133125 -0.1135647 -0.1138362
 -0.1141354 -0.1144607 -0.1148335 -0.1152586 -0.1157488 -0.1163097 -0.116922 -0.1175866 -0.1182558 -0.118927
 -0.1195465 -0.1201115 -0.1205747 -0.1209332 -0.1211465 -0.121214 -0.12111 -0.1208417 -0.1204035 -0.1198251
 -0.1191386 -0.118399 -0.1176759 -0.1170088 -0.1164509 -0.1160101 -0.1157039 -0.1155291 -0.11549 -0.1155759
 -0.1157924 -0.1160873 -0.1164619 -0.116806 -0.1171101 -0.1172967 -0.1173623 -0.1173304 -0.1172061 -0.1170551
 -0.1168801 -0.1167306 -0.116602 -0.1165079 -0.1164365 -0.1163684 -0.116294 -0.1161876 -0.1160511 -0.1158745
 -0.1156691 -0.115439 -0.1151984 -0.1149553 -0.1147197 -0.1144981 -0.1142901 -0.1140973 -0.1139145 -0.1137407
 -0.1135754 -0.1134182 -0.1132735 -0.1131417 -0.113025 -0.1129231 -0.1128338 -0.1127567 -0.1126883 -0.1126279
 -0.1125711 -0.1125162 -0.1124573 -0.1123933 -0.1123189 -0.1122367 -0.1121466 -0.1120543 -0.1119641 -0.11188
 -0.1118066 -0.1117405 -0.1116825 -0.111625 -0.1115656 -0.1115039 -0.1114384 -0.1113803 -0.1113304 -0.1112977
 -0.1112828 -0.1112783 -0.111283 -0.1112795 -0.1112682 -0.1112411 -0.1112017 -0.1111573 -0.1111106 -0.1110723
 -0.1110406 -0.1110179 -0.1109997 -0.1109817 -0.1109621 -0.1109373 -0.1109091 -0.1108771 -0.1108438 -0.1108095
 -0.1107764 -0.1107445 -0.1107182 -0.1106977 -0.1106881 -0.1106902 -0.1107025 -0.1107251 -0.1107478 -0.1107697
 -0.1107791 -0.1107763 -0.1107563 -0.1107209 -0.1106733 -0.1106162 -0.110558 -0.1105007 -0.1104523 -0.1104113
 -0.1103802 -0.1103536 -0.110328 -0.1103003 -0.1102666 -0.1102313 -0.1101946 -0.1101632 -0.1101394 -0.1101236
 -0.1101172 -0.1101115 -0.1101062 -0.1100906 -0.1100639 -0.1100216 -0.1099643 -0.1098989 -0.1098268 -0.1097611
 -0.1097018 -0.1096571 -0.1096244 -0.1096021 -0.1095876 -0.1095755 -0.1095655 -0.1095548 -0.1095452 -0.1095371
 -0.1095321 -0.1095315 -0.1095341 -0.1095407 -0.1095459 -0.1095487 -0.1095435 -0.1095288 -0.109506 -0.1094744
 -0.1094417 -0.1094084 -0.1093789 -0.1093528 -0.1093272 -0.1093017 -0.1092729 -0.1092417 -0.1092103 -0.10918
 -0.1091557 -0.1091372 -0.1091267 -0.1091225 -0.1091237 -0.1091281 -0.1091338 -0.109138 -0.1091388 -0.109134
 -0.1091218 -0.1091031 -0.1090772 -0.1090479 -0.1090156 -0.1089841 -0.1089538 -0.1089267 -0.1089031 -0.1088849
 -0.1088723 -0.1088674 -0.1088696 -0.1088771 -0.1088884 -0.1088968 -0.1089016 -0.1088963 -0.1088822 -0.1088582
 -0.1088272 -0.1087917 -0.1087544 -0.1087184 -0.1086846 -0.1086548 -0.1086275 -0.1086028 -0.1085788 -0.1085548
 -0.1085317 -0.1085092 -0.1084902 -0.108475 -0.108464 -0.1084571 -0.1084512 -0.1084464 -0.1084413 -0.1084364
 -0.1084344 -0.1084352 -0.1084403 -0.1084478 -0.1084537 -0.1084561 -0.1084491 -0.108433 -0.1084054 -0.1083694
 -0.1083262 -0.1082797 -0.1082319 -0.1081867 -0.1081454 -0.1081113 -0.1080854 -0.1080685 -0.1080614 -0.1080601
 -0.1080645 -0.1080676 -0.1080687 -0.1080624 -0.1080486 -0.108027 -0.1079981 -0.1079659 -0.1079312 -0.1078998
 -0.1078719 -0.1078515 -0.1078373 -0.1078296 -0.107825 -0.1078198 -0.1078108 -0.1077935 -0.1077678 -0.1077311
 -0.1076883 -0.1076399 -0.1075932 -0.1075501 -0.1075157 -0.1074916 -0.1074774 -0.1074735 -0.1074735 -0.1074772
 -0.1074764 -0.1074708 -0.1074554 -0.1074307 -0.1073975 -0.1073569 -0.1073132 -0.1072674 -0.1072239 -0.1071831
 -0.1071479 -0.1071186 -0.1070968 -0.1070817 -0.1070738 -0.1070707 -0.1070714 -0.1070726 -0.1070731 -0.1070696
 -0.107061 -0.1070455 -0.107022 -0.1069928 -0.1069573 -0.1069238 -0.1068926 -0.1068716 -0.1068606 -0.1068566
 -0.1068583 -0.1068536 -0.1068426 -0.106818 -0.1067836 -0.1067446 -0.1067048 -0.1066744 -0.1066523 -0.1066426
 -0.106639 -0.106638 -0.1066333 -0.1066192 -0.106595 -0.1065581 -0.106515 -0.1064662 -0.1064205 -0.1063796
 -0.1063465 -0.1063224 -0.1063018 -0.1062848 -0.1062622 -0.106234 -0.106196 -0.1061497 -0.1061018 -0.1060541
 -0.1060188 -0.1059945 -0.1059854 -0.1059862 -0.1059892 -0.1059902 -0.1059791 -0.1059584 -0.1059254 -0.1058869
 -0.1058462 -0.1058081 -0.105776 -0.1057491 -0.1057289 -0.1057098 -0.1056912 -0.1056669 -0.1056357 -0.1055965
 -0.1055491 -0.1054999 -0.1054491 -0.1054025 -0.1053596 -0.1053186 -0.1052784 -0.1052332 -0.105184 -0.1051296
 -0.1050734 -0.1050215 -0.1049759 -0.1049428 -0.1049186 -0.1049035 -0.1048901 -0.1048739 -0.1048508 -0.104817
 -0.1047756 -0.1047261 -0.1046741 -0.1046206 -0.1045696 -0.1045218 -0.1044798 -0.104444 -0.1044139 -0.1043893
 -0.1043638 -0.1043369 -0.104301 -0.1042571 -0.1042046 -0.1041454 -0.1040851 -0.1040235 -0.1039633 -0.1039022
 -0.1038378 -0.1037695 -0.1036948 -0.1036177 -0.1035394 -0.1034652 -0.1033982 -0.1033389 -0.103289 -0.1032427
 -0.1031993 -0.1031541 -0.1031061 -0.1030567 -0.103006 -0.1029569 -0.1029094 -0.102862 -0.1028146 -0.1027651
 -0.1027145 -0.1026661 -0.1026211 -0.1025851 -0.1025569 -0.1025376 -0.102523 -0.1025084 -0.1024892 -0.1024592
 -0.1024162 -0.1023562 -0.102283 -0.1021961 -0.1021043 -0.1020098 -0.1019199 -0.1018368 -0.1017612 -0.1016937
 -0.1016302 -0.1015705 -0.1015092 -0.1014464 -0.1013807 -0.1013127 -0.1012473 -0.1011852 -0.1011323 -0.1010877
 -0.101052 -0.1010229 -0.1009963 -0.1009704 -0.1009414 -0.1009067 -0.1008632 -0.1008078 -0.1007367 -0.1006525
 -0.1005534 -0.1004495 -0.1003428 -0.100242 -0.1001495 -0.1000656 -0.09999102 -0.09992 -0.09985221 -0.09978296
 -0.09971216 -0.09963932 -0.09956482 -0.09949157 -0.09941971 -0.09935176 -0.09928677 -0.09922374 -0.09916104 -0.09909482
 -0.09902504 -0.09894948 -0.09887036 -0.09878867 -0.09870684 -0.09862704 -0.09854931 -0.09847479 -0.09840053 -0.09832618
 -0.09824817 -0.09816544 -0.09807809 -0.09798577 -0.09789205 -0.09779718 -0.09770343 -0.09761085 -0.09751965 -0.09743024
 -0.09734561 -0.0972668 -0.09720086 -0.09714676 -0.09710713 -0.09707585 -0.09704322 -0.09700261 -0.09693904 -0.09685582
 -0.09674856 -0.09662865 -0.09650244 -0.09637619 -0.09625536 -0.09613724 -0.09602211 -0.09590671 -0.09578959 -0.0956749
 -0.09556276 -0.09545927 -0.09536503 -0.09527966 -0.095203 -0.09513014 -0.09506091 -0.09499232 -0.09492408 -0.09485388
 -0.09478034 -0.09469834 -0.09460714 -0.09450217 -0.09438538 -0.09425663 -0.09412024 -0.09397878 -0.09383968 -0.09370784
 -0.09358984 -0.09349155 -0.09340872 -0.09334407 -0.09327893 -0.09321071 -0.09312162 -0.09300803 -0.09287073 -0.09270898
 -0.09254047 -0.09236605 -0.09220278 -0.09205018 -0.09191281 -0.09178833 -0.09166887 -0.09155287 -0.09143101 -0.09130523
 -0.09117454 -0.09104197 -0.09091227 -0.09078422 -0.09065897 -0.09053322 -0.09040409 -0.09027322 -0.09013986 -0.09000896
 -0.08988244 -0.0897608 -0.08964533 -0.08952975 -0.08941364 -0.0892902 -0.08915871 -0.0890201 -0.08887456 -0.08872882
 -0.08858229 -0.08843382 -0.0882806 -0.08810788 -0.08791628 -0.08769715 -0.08745889 -0.08721389 -0.08696871 -0.08673944
 -0.08652312 -0.08632382 -0.08613373 -0.08594839 -0.08576417 -0.08557734 -0.08539062 -0.085204 -0.0850207 -0.08484236
 -0.08466483 -0.08448897 -0.08429887 -0.08409348 -0.0838593 -0.08359646 -0.08331773 -0.08302505 -0.08274174 -0.08246622
 -0.08220424 -0.08195154 -0.08169872 -0.08144297 -0.08117417 -0.08089196 -0.08059088 -0.08027389 -0.07994068 -0.07959767
 -0.07924989 -0.07889834 -0.07854804 -0.0781845 -0.07780526 -0.07739428 -0.07694464 -0.07646817 -0.07596399 -0.07545847
 -0.07495386 -0.07445965 -0.07397611 -0.07350235 -0.07303856 -0.07258733 -0.0721471 -0.07171386 -0.07128184 -0.0708313
 -0.07035959 -0.0698473 -0.06930687 -0.06874545 -0.06817982 -0.06763208 -0.06710169 -0.06659681 -0.06610676 -0.06562788
 -0.06515528 -0.06468616 -0.06422146 -0.06376329 -0.06329858 -0.06282959 -0.06230884 -0.06173292 -0.06106098 -0.06029331
 -0.05947973 -0.0586259 -0.05780877 -0.0570208 -0.05626625 -0.05553434 -0.05479327 -0.05404188 -0.05326294 -0.05245846
 -0.05162888 -0.05076225 -0.04985509 -0.04887259 -0.04779205 -0.04658416 -0.04521516 -0.04373069 -0.04212362 -0.04050531
 -0.0388992 -0.03737089 -0.03593599 -0.03459125 -0.03333888 -0.03214549 -0.03100845 -0.02986344 -0.02870323 -0.02742672
 -0.02604176 -0.02451527 -0.02289507 -0.02132019 -0.01980195 -0.018448 -0.0172032 -0.01603185 -0.01489294 -0.01372567
 -0.01253114 -0.0112907 -0.01001806 -0.008716424 -0.007391292 -0.006039055 -0.004692531 -0.003354931 -0.002070781 -0.0008505407
 0.0003177264 0.001433324 0.002530396 0.003609266 0.004642054 0.00562407 0.006495459 0.007260657 0.007908159 0.00844993
 0.008917416 0.009316978 0.009678112 0.009998616 0.01028576 0.01054157 0.01076777 0.0109749 0.01117174 0.01136145
 0.01155168 0.01172666 0.01188523 0.0120039 0.01207744 0.01209068 0.0120398 0.01192521 0.01174526 0.01153061
 0.01128312 0.01104896 0.01082724 0.01062773 0.01044541 0.01025898 0.01006824 0.009858536 0.009639362 0.009421024
 0.009218379 0.009059189 0.00894777 0.00889926 0.008911379 0.008982272 0.009125834 0.009346732 0.009661059 0.01008131
 0.01058591 0.01117534 0.01181189 0.01248833 0.01319949 0.01394359 0.01473571 0.0155765 0.01647487 0.01743112
 0.01845155 0.01953623 0.0206908 0.02191146 0.02319003 0.02452131 0.02588845 0.02729359 0.02873145 0.03020886
 0.03173194 0.03330246 0.034925 0.03659463 0.0383107 0.04006677 0.04186014 0.04368899 0.04555262 0.04745071
 0.04938601 0.05133357 0.0532936 0.05520738 0.05707175 0.05882855 0.06047487 0.06196447 0.06328917 0.06438079
 0.06523523 0.06579389 0.06607981 0.06610963 0.06591625 0.06555275 0.06504917 0.06445009 0.06379041 0.06311338
 0.06242014 0.06174299 0.0609917 0.06016531 0.05908619 0.05770073 0.05596855 0.05383898 0.05165923 0.04945685
 0.04744972 0.04564559 0.0439073 0.04222853 0.04049424 0.03871721 0.03690853 0.03507761 0.03327429 0.03146828
 0.02964139 0.02770379 0.02550375 0.02300315 0.02003138 0.01681958 0.01347361 0.01020062 0.007185467 0.004316778
 0.001594022 -0.001086109 -0.003769319 -0.00638255 -0.008925873 -0.01129229 -0.01346784 -0.01546648 -0.01728936 -0.01902819
 -0.02068486 -0.022313 -0.02390364 -0.02543708 -0.02690385 -0.02825847 -0.02950705 -0.03063649 -0.03166682 -0.03262142
 -0.03351949 -0.03438794 -0.03524419 -0.03610341 -0.03699461 -0.03793768 -0.03894465 -0.04004724 -0.04113678 -0.04220403
 -0.04310213 -0.0437919 -0.04432598 -0.04470123 -0.0450462 -0.04536694 -0.04571274 -0.04607943 -0.04643466 -0.04677365
 -0.04705136 -0.04727387 -0.04743998 -0.0475529 -0.04762378 -0.04764148 -0.04759341 -0.04747078 -0.04725502 -0.04695568
 -0.04657308 -0.04611932 -0.04560184 -0.04502355 -0.04438751 -0.04369229 -0.04294099 -0.04211557 -0.04121778 -0.04019752
 -0.03904881 -0.03775689 -0.03632191 -0.03487921 -0.03343943 -0.03217726 -0.03108228 -0.03018687 -0.02947198 -0.0288889
 -0.02843132 -0.02806512 -0.0277818 -0.02756395 -0.02737644 -0.02718664 -0.0269326 -0.02655112 -0.02602771 -0.02531262
 -0.02451143 -0.02364986 -0.0228103 -0.02202873 -0.02127836 -0.02056243 -0.0198318 -0.01908096 -0.01829724 -0.01747991
 -0.01665142 -0.01581267 -0.01498341 -0.01415915 -0.01332718 -0.0124777 -0.01156884 -0.01059836 -0.009533057 -0.008394388
 -0.007200378 -0.005972999 -0.004750988 -0.003522452 -0.002292339 -0.001041532 0.0002449607 0.001555138 0.00289266 0.004224324
 0.005541993 0.006828515 0.008079058 0.00929559 0.01047941 0.0116114 0.01269038 0.01364368 0.01446615 0.01507288
 0.01546428 0.0156001 0.01548305 0.01510245 0.01445708 0.01353676 0.01234532 0.01087736 0.009156764 0.007198458
 0.005050353 0.002747351 0.0003423019 -0.002127076 -0.004635586 -0.007165044 -0.00971249 -0.0122824 -0.01482924 -0.01735561
 -0.0197523 -0.02200866 -0.02405568 -0.02588923 -0.02754524 -0.02902823 -0.03040734 -0.0316812 -0.03287753 -0.0339894
 -0.03500407 -0.03592322 -0.0367398 -0.03746976 -0.0381331 -0.03874964 -0.03934936 -0.03994372 -0.04055367 -0.04117454
 -0.04181265 -0.04244857 -0.04307764 -0.04368111 -0.04425171 -0.044789 -0.04528999 -0.04577233 -0.04623754 -0.04669816
 -0.04715495 -0.04759061 -0.04800253 -0.04835096 -0.04863551 -0.04883211 -0.04894613 -0.04898351 -0.04894995 -0.04886097
 -0.04872166 -0.04854574 -0.04833984 -0.04811643 -0.04787983 -0.04763655 -0.04739107 -0.04714386 -0.04691108 -0.04669544
 -0.04652283 -0.04639995 -0.04634425 -0.04636074 -0.04644917 -0.04661093 -0.04683109 -0.0471089 -0.04742126 -0.04776671
 -0.04812142 -0.04848371 -0.04883225 -0.04916435 -0.0494591 -0.0497146 -0.04991438 -0.05006199 -0.05015453 -0.05019981
 -0.05020582 -0.05017786 -0.05012231 -0.05004305 -0.0499416 -0.04982829 -0.04970586 -0.04958754 -0.04947792 -0.04938053
 -0.04929739 -0.04922277 -0.04915623 -0.04909417 -0.04903635 -0.04898318 -0.04893455 -0.04888873 -0.04884538 -0.04880088
 -0.0487559 -0.04871053 -0.04866665 -0.04862885 -0.04859849 -0.04858015 -0.04857378 -0.04858124 -0.04860172 -0.04863502
 -0.04868103 -0.04874015 -0.0488105 -0.04889291 -0.0489796 -0.04907003 -0.04915174 -0.04922288 -0.04927307 -0.04930098
 -0.04930195 -0.04927563 -0.04922146 -0.04913972 -0.04903422 -0.04890596 -0.04876314 -0.04860639 -0.04844277 -0.04827133
 -0.04809335 -0.04790741 -0.04771112 -0.04750504 -0.04728815 -0.04706345 -0.04683255 -0.04659932 -0.04636655 -0.0461357
 -0.04590871 -0.04568257 -0.04545699 -0.04522868 -0.0449962 -0.04476387 -0.04453134 -0.04431103 -0.04410364 -0.04391942
 -0.04375824 -0.04362009 -0.04350385 -0.04340209 -0.04331449 -0.04323555 -0.04316645 -0.04310738 -0.04305932 -0.04302453
 -0.04300228 -0.04299279 -0.04299473 -0.04300692 -0.04302907 -0.04306046 -0.04310202 -0.04315365 -0.04321746 -0.04329374
 -0.04338528 -0.04349305 -0.04361548 -0.04375322 -0.04389555 -0.04404191 -0.04417868 -0.04430572 -0.04441891 -0.04451979
 -0.04461645 -0.0447102 -0.04481106 -0.04491767 -0.04503234 -0.04515179 -0.04527147 -0.04538886 -0.04549901 -0.04560103
 -0.04569237 -0.04577349 -0.04584329 -0.04590507 -0.04595868 -0.04601189 -0.04606657 -0.04612887 -0.0462012 -0.04627891
 -0.04636237 -0.04643955 -0.04650969 -0.04656696 -0.04661157 -0.04664697 -0.04667302 -0.04669081 -0.04669867 -0.04669032
 -0.04666517 -0.04661796 -0.04655058 -0.0464638 -0.04635981 -0.04624179 -0.0461105 -0.04596802 -0.04581326 -0.04564692
 -0.04546517 -0.04526762 -0.04504739 -0.04480299 -0.04452771 -0.04421954 -0.04387889 -0.04350463 -0.04310969 -0.04269463
 -0.04227946 -0.0418647 -0.04146077 -0.04106604 -0.04067422 -0.04028378 -0.03988434 -0.03947775 -0.03906325 -0.03864375
 -0.03822443 -0.03780631 -0.03739236 -0.03698388 -0.03658233 -0.03619039 -0.03581015 -0.03544268 -0.03508902 -0.03474897
 -0.03442242 -0.03411061 -0.03381382 -0.03353248 -0.03326696 -0.03301388 -0.03277311 -0.03253834 -0.03230905 -0.03207675
 -0.03184059 -0.03159055 -0.03132619 -0.03104035 -0.03073323 -0.03040192 -0.03004636 -0.0296645 -0.02925791 -0.02882617
 -0.02837541 -0.02790951 -0.02743693 -0.026963 -0.0264955 -0.02603759 -0.02559875 -0.02518197 -0.02479423 -0.02443877
 -0.02410848 -0.02380397 -0.02350634 -0.02321445 -0.02291341 -0.02260276 -0.02227486 -0.02193015 -0.02156586 -0.02118587
 -0.02080234 -0.02042312 -0.02007661 -0.01976418 -0.01950547 -0.01928745 -0.01910387 -0.01893651 -0.01876687 -0.01858513
 -0.01837833 -0.01815006 -0.01789689 -0.01763189 -0.01735812 -0.01708489 -0.0168163 -0.01654392 -0.01626844 -0.01596849
 -0.01564271 -0.01527451 -0.01486362 -0.01440595 -0.01390373 -0.01336863 -0.01280705 -0.01224997 -0.01170529 -0.01121086
 -0.01076807 -0.01039841 -0.01009588 -0.009861923 -0.009689275 -0.009572703 -0.009504946 -0.009480905 -0.009493722 -0.009539101
 -0.009614797 -0.009719871 -0.009851486 -0.01001098 -0.01018251 -0.01036536 -0.01053703 -0.01069591 -0.01082951 -0.01093753
 -0.0110163 -0.01106558 -0.01108096 -0.01106324 -0.01101209 -0.01093129 -0.01083047 -0.01071362 -0.01059261 -0.01046941
 -0.0103509 -0.01023896 -0.01013662 -0.01004783 -0.00997404 -0.009924272 -0.00990111 -0.0099171 -0.0099779 -0.01008317
 -0.01023686 -0.01041502 -0.01061616 -0.01081247 -0.01100161 -0.01117773 -0.01134113 -0.01150165 -0.01165962 -0.0118217
 -0.01198769 -0.01216005 -0.01233894 -0.01252665 -0.01272217 -0.01292436 -0.01313312 -0.01334572 -0.01356876 -0.01380455
 -0.01406688 -0.01436289 -0.01470905 -0.01511391 -0.01558768 -0.01613797 -0.01675427 -0.01743929 -0.0181593 -0.01891142
 -0.01966278 -0.02041063 -0.02114358 -0.0218615 -0.02256592 -0.02325703 -0.02393657 -0.0246046 -0.02526296 -0.02591027
 -0.02654517 -0.02716266 -0.02775259 -0.0283114 -0.02882874 -0.02930757 -0.02974669 -0.0301504 -0.03052146 -0.03086124
 -0.03116975 -0.03145261 -0.03171019 -0.0319529 -0.03218313 -0.03240523 -0.0326204 -0.03282599 -0.03302185 -0.03320708
 -0.03338167 -0.03354658 -0.03370148 -0.03384416 -0.03397401 -0.03408723 -0.03418325 -0.03425848 -0.03431258 -0.03434242
 -0.03435014 -0.0343365 -0.03430578 -0.03426244 -0.03420845 -0.03414593 -0.03407691 -0.03400093 -0.03392686 -0.03385642
 -0.03379999 -0.03376091 -0.03373865 -0.03373438 -0.03373804 -0.03374913 -0.03375607 -0.03375825 -0.033745 -0.03371618
 -0.03366524 -0.03359336 -0.03350228 -0.0333931 -0.03327 -0.03313316 -0.03298377 -0.03282474 -0.03265977 -0.03249331
 -0.03233299 -0.03217438 -0.03201907 -0.0318547 -0.03167475 -0.03147703 -0.03125662 -0.03102895 -0.03079532 -0.03057384
 -0.03036726 -0.03018376 -0.03002431 -0.02988867 -0.02977675 -0.02968528 -0.02961424 -0.02956219 -0.02952917 -0.02951579
 -0.02951965 -0.0295355 -0.02955806 -0.02957375 -0.02958129 -0.02957108 -0.02955025 -0.02952198 -0.02949277 -0.02947035
 -0.02944907 -0.02943062 -0.02939989 -0.02935302 -0.02927773 -0.02916993 -0.02902916 -0.02885374 -0.0286561 -0.02843671
 -0.0282135 -0.02798721 -0.02776923 -0.02755885 -0.02735518 -0.02715644 -0.02695389 -0.02674671 -0.02652681 -0.0262972
 -0.02605809 -0.02581752 -0.02558615 -0.02537114 -0.0251853 -0.0250252 -0.02489549 -0.02478064 -0.02467617 -0.02456533
 -0.02444157 -0.02429757 -0.02412966 -0.02394198 -0.0237337 -0.02351767 -0.02329456 -0.02307966 -0.02287363 -0.02268646
 -0.0225174 -0.02236472 -0.02222635 -0.02209154 -0.02195964 -0.02182231 -0.02168195 -0.02153982 -0.02139715 -0.02125745
 -0.02111757 -0.02097553 -0.02082931 -0.02067588 -0.02051823 -0.02035772 -0.02019388 -0.02002836 -0.01985257 -0.01966422
 -0.01946188 -0.01924342 -0.01902532 -0.01880852 -0.01861009 -0.01843039 -0.01826589 -0.01811476 -0.01795868 -0.01779686
 -0.0176154 -0.01741624 -0.01719761 -0.01696259 -0.01671617 -0.01646149 -0.01620453 -0.01594879 -0.01569941 -0.01545957
 -0.01523335 -0.01502079 -0.0148237 -0.01463811 -0.01446353 -0.01429508 -0.01413171 -0.01397006 -0.01380978 -0.01364678
 -0.01348087 -0.01330567 -0.01312096 -0.01292403 -0.01271584 -0.01250327 -0.01228857 -0.01208633 -0.01189764 -0.01173505
 -0.01159435 -0.01147471 -0.01136732 -0.01125862 -0.01114454 -0.01101424 -0.01087278 -0.01072064 -0.01056159 -0.010399
 -0.0102289 -0.01004988 -0.009862679 -0.009665921 -0.009469274 -0.009274357 -0.009083251 -0.008896538 -0.008707881 -0.008517182
 -0.008327496 -0.008139606 -0.007963473 -0.00779757 -0.00763968 -0.007487398 -0.007330676 -0.007171701 -0.007009971 -0.006848746
 -0.006693554 -0.006543512 -0.006399743 -0.00626096 -0.006125758 -0.005996263 -0.005873655 -0.005757495 -0.005649236 -0.005541741
 -0.005434725 -0.005316597 -0.005185566 -0.005034851 -0.004862961 -0.004682289 -0.004493732 -0.004324812 -0.004175198 -0.004054433
 -0.003956709 -0.003857572 -0.003752876 -0.00361395 -0.003447191 -0.003249926 -0.003035313 -0.002820313 -0.002617456 -0.002446244
 -0.002311469 -0.002227208 -0.002176839 -0.002161676 -0.002144765 -0.002114526 -0.002045262 -0.001925934 -0.001764667 -0.001559095
 -0.001337031 -0.001100233 -0.0008753462 -0.0006636289 -0.0004806197 -0.0003247877 -0.0001876696 -6.51975E-05 6.910693E-05 0.000214817
 0.0003855019 0.0005760948 0.000780331 0.0009993007 0.001230588 0.001479987 0.001755283 0.002051944 0.002373009 0.002700648
 0.003030203 0.003336541 0.003612106 0.003832604 0.003988446 0.00408285 0.004110248 0.004119688 0.004113951 0.004147042
 0.004221234 0.004346549 0.004520628 0.004722698 0.004950772 0.005185116 0.005423916 0.005651251 0.005865993 0.006055741
 0.006226381 0.006380741 0.006525948 0.006673296 0.006818103 0.006962583 0.00709459 0.007207886 0.007297525 0.00735824
 0.007398859 0.007416952 0.007441074 0.007473269 0.007550218 0.007676559 0.007853381 0.008080223 0.008308226 0.008535123
 0.008717247 0.008859651 0.008965517 0.009042537 0.009116488 0.009193116 0.009296637 0.009431079 0.009616415 0.009843582
 0.01011262 0.01040813 0.01071166 0.01103902 0.01138751 0.01179552 0.01228992 0.01282714 0.01341401 0.0139369
 0.01437203 0.01471644 0.01496454 0.01518389 0.01537753 0.01558044 0.01579076 0.0160018 0.01620702 0.01637086
 0.01648423 0.01649538 0.01640691 0.01618987 0.01587483 0.0154903 0.01507714 0.01469231 0.01435164 0.01408919
 0.01389121 0.01376316 0.01367591 0.01362257 0.01357361 0.01351882 0.01345411 0.01337533 0.01330336 0.01324074
 0.01318513 0.01313614 0.01305217 0.01293201 0.01274615 0.01249985 0.01220541 0.01187067 0.01152554 0.01118021
 0.01086961 0.01060534 0.01042722 0.01032136 0.01029837 0.01031033 0.01032353 0.01031005 0.01023985 0.01012945
 0.009976612 0.009805092 0.009617991 0.00944316 0.009283783 0.009171462 0.009111245 0.009090419 0.009108366 0.009128983
 0.009155764 0.009219199 0.009326323 0.009541771 0.009849495 0.01023468 0.01066651 0.01106375 0.01141803 0.01167563
 0.0118535 0.01194668 0.01198226 0.01197526 0.01195738 0.01195019 0.0119664 0.01202029 0.01209099 0.01217596
 0.0122585 0.01233323 0.01241272 0.01249818 0.0125914 0.01269237 0.01277402 0.01283596 0.01286493 0.01286397
 0.01284462 0.0128076 0.01275913 0.0127031 0.01264849 0.01260585 0.01260047 0.01262576 0.01269058 0.01276666
 0.01283238 0.01287813 0.01288812 0.01288052 0.01285913 0.01283524 0.01281279 0.01279422 0.01277945 0.01277794
 0.01279102 0.01281803 0.01285893 0.01289566 0.01292727 0.0129379 0.01292628 0.01287641 0.01278872 0.01265011
 0.01247538 0.01228956 0.01211203 0.01199345 0.01192026 0.01190417 0.01190616 0.01189451 0.01186097 0.01178503
 0.01169784 0.01160692 0.01153314 0.01148617 0.01145841 0.01145174 0.01144502 0.01143741 0.01139827 0.01132587
 0.01120266 0.01103064 0.01083187 0.01060935 0.01039354 0.01018143 0.009976771 0.009778932 0.009586781 0.009404592
 0.00924189 0.009093139 0.008954285 0.00882492 0.008693703 0.008594775 0.008541066 0.008566211 0.008695922 0.008900584
 0.009187239 0.009473752 0.009750012 0.009943901 0.01004616 0.01003209 0.009899857</values></Ydata></AB><ScSm><Ydata ylabel="Single channel"><values byteorder="INTEL" format="FLOAT32" numvalues="1814"> 0.07289016 0.07291181 0.07300359 0.07318459 0.07342149 0.07364728 0.07380684 0.07389155 0.07392043 0.07389835
 0.07382901 0.07376854 0.07381301 0.07400413 0.07427081 0.07447998 0.07454357 0.07449444 0.07446609 0.0745607
 0.07470781 0.07468574 0.07433142 0.07373108 0.0731632 0.07284211 0.0727873 0.07298882 0.07353975 0.07437533
 0.07498827 0.07479585 0.07387395 0.072981 0.07271507 0.07294166 0.07315609 0.0730679 0.07268487 0.07219115
 0.07199873 0.07264055 0.07424277 0.07608794 0.07687417 0.07553959 0.0720221 0.06749413 0.06392741 0.06303774
 0.06507757 0.06849112 0.07107928 0.07175406 0.0710611 0.07006456 0.06919997 0.06841367 0.0679092 0.06818872
 0.06935836 0.0706602 0.07086784 0.06933913 0.06678092 0.06474467 0.06421218 0.06498419 0.06651113 0.06848823
 0.07001019 0.06909851 0.06465069 0.05889433 0.05638754 0.05968565 0.06661431 0.0723947 0.07389137 0.07136825
 0.06710245 0.06350015 0.06218591 0.0635625 0.06674284 0.07028601 0.07306915 0.0743371 0.07350701 0.07067701
 0.06712651 0.06469806 0.06466714 0.06724089 0.07151169 0.07554136 0.07724649 0.07593881 0.07277924 0.06955007
 0.06748568 0.06728759 0.06929827 0.07314059 0.07769122 0.08173573 0.0844681 0.08557097 0.08527936 0.0842316
 0.08298367 0.08191866 0.08158732 0.08236614 0.08355991 0.08366977 0.08203079 0.0797071 0.07839522 0.0786673
 0.07951741 0.07958178 0.07851651 0.07676509 0.07420504 0.07012209 0.06485016 0.06020997 0.05768417 0.05728424
 0.05863924 0.06157902 0.06485844 0.06608161 0.0643331 0.06185133 0.06180743 0.06491992 0.06908769 0.07194763
 0.07305881 0.07373427 0.07535544 0.0779613 0.08006948 0.07979362 0.07671449 0.07293184 0.0715763 0.07373182
 0.07739437 0.07994023 0.08089441 0.08162697 0.08296236 0.08390236 0.08266706 0.07880713 0.07433735 0.07249479
 0.07491964 0.08000907 0.08407807 0.08408791 0.07969212 0.07331114 0.06824508 0.06639309 0.06774434 0.07163028
 0.07745714 0.08405308 0.08937241 0.09164031 0.09064563 0.0876347 0.08389172 0.07955476 0.07429686 0.06929854
 0.06747886 0.07073082 0.07749692 0.08407161 0.08790459 0.08886123 0.08777648 0.08488885 0.08008904 0.07443782
 0.0706529 0.07100107 0.07457347 0.07780464 0.07820298 0.07661542 0.07539341 0.07545641 0.07595606 0.07608434
 0.07623276 0.0773298 0.07951185 0.08178014 0.08296649 0.08279424 0.0819184 0.08116438 0.08078366 0.08027647
 0.07909541 0.07773429 0.0776742 0.07976098 0.08304062 0.08574034 0.0870479 0.08740422 0.08731858 0.08647076
 0.08418129 0.08070181 0.07773004 0.07715006 0.07921308 0.08238547 0.08494067 0.08619387 0.08633675 0.08582015
 0.08505134 0.08425828 0.08354899 0.08319253 0.08355473 0.08457345 0.08563961 0.08620813 0.08624554 0.08595431
 0.08537983 0.08448745 0.08344688 0.08264748 0.08241972 0.08278453 0.08348918 0.08423549 0.08479346 0.08496748
 0.08466293 0.08402679 0.08335897 0.08284346 0.08249038 0.08232214 0.08242966 0.08280043 0.0832364 0.08351697
 0.08357261 0.08346322 0.08325612 0.08297586 0.08264127 0.08231378 0.08210103 0.08208709 0.08223464 0.08240107
 0.0824992 0.08258551 0.08272115 0.08281647 0.08272092 0.08243208 0.08211437 0.08192162 0.0818738 0.08189651
 0.08190323 0.08181062 0.08153525 0.08106637 0.08055885 0.08027256 0.08036216 0.08076406 0.08129969 0.08180791
 0.08216663 0.08230793 0.08227426 0.08218151 0.08208409 0.08193292 0.08168571 0.08141183 0.08126781 0.08137411
 0.08170584 0.08210701 0.08242037 0.08258662 0.08263108 0.08262317 0.08265384 0.08276759 0.08289199 0.08290604
 0.08279695 0.08268869 0.082699 0.08281203 0.08290736 0.08289572 0.08281578 0.08279161 0.08289684 0.08308503
 0.08326112 0.08339049 0.08351503 0.08367495 0.08383077 0.0838806 0.08377476 0.0835945 0.08347324 0.08345422
 0.08348372 0.08353159 0.08364049 0.0838379 0.08406089 0.08420987 0.0842556 0.08426192 0.08429971 0.08435982
 0.08437046 0.0842915 0.08416414 0.08406667 0.0840452 0.08409204 0.0841659 0.08422007 0.08422415 0.08417627
 0.08409728 0.08400947 0.08392072 0.08383788 0.08379604 0.08385034 0.08401012 0.08418874 0.08425385 0.08414639
 0.08393926 0.08376655 0.08369809 0.0836897 0.08364967 0.08353545 0.0833796 0.08324039 0.08314925 0.08310059
 0.08307 0.08303851 0.08301667 0.08305006 0.08318034 0.0833835 0.08356215 0.08362548 0.08357622 0.0835007
 0.08347951 0.08352797 0.08361256 0.08369879 0.08378494 0.08390264 0.08407217 0.08425367 0.08437499 0.08441921
 0.08444995 0.08454075 0.08471552 0.08495799 0.08522739 0.08545628 0.08558856 0.0856424 0.08570037 0.08582185
 0.08599333 0.08617169 0.08634257 0.08652006 0.08671443 0.08692588 0.08716314 0.08744793 0.08779278 0.08817703
 0.08854648 0.08884422 0.08905868 0.08924926 0.08951011 0.0898919 0.09035713 0.09081638 0.0912068 0.09153528
 0.09185058 0.09218227 0.09251898 0.09284998 0.09320441 0.09362094 0.09409024 0.0945611 0.09500289 0.09543161
 0.09587248 0.09632468 0.09677224 0.09721401 0.09767223 0.09816943 0.0986934 0.09919126 0.09961222 0.09995758
 0.1002819 0.1006501 0.1010939 0.1015856 0.1020433 0.1023916 0.1026449 0.1029073 0.1032608 0.1036757
 0.104065 0.1044064 0.1047645 0.1051943 0.1056675 0.106112 0.1064949 0.1068459 0.1072083 0.1075856
 0.1079344 0.1082101 0.1084178 0.1086123 0.1088447 0.1091273 0.1094617 0.1098666 0.1103454 0.1108468
 0.1112956 0.111657 0.1119438 0.1121812 0.1123948 0.1126133 0.1128498 0.1130923 0.1133294 0.1135613
 0.1137743 0.1139446 0.1140868 0.1142608 0.1145081 0.1148153 0.1151595 0.1155501 0.1159924 0.1164457
 0.1168649 0.1172705 0.1177264 0.1182371 0.1187122 0.1190587 0.1192747 0.1194231 0.1195517 0.1196884
 0.1198854 0.1202029 0.120642 0.121137 0.1216203 0.122069 0.122489 0.1228803 0.1232281 0.1235134
 0.1237286 0.1238866 0.12402 0.1241739 0.1243923 0.1246919 0.1250385 0.1253636 0.1256118 0.1257644
 0.1258155 0.1257591 0.1256205 0.1254722 0.1253764 0.1253107 0.1251772 0.1248877 0.124418 0.1237852
 0.1230058 0.1220988 0.1211158 0.1201457 0.1192854 0.1186082 0.1181602 0.1179824 0.1181227 0.1185994
 0.1193481 0.1202189 0.1210368 0.1216529 0.1219468 0.1218332 0.1213064 0.1204609 0.1194403 0.1183646
 0.1173084 0.1163061 0.1153512 0.1144195 0.1135391 0.1128372 0.1124992 0.1126879 0.113508 0.1150058
 0.1171366 0.1197112 0.1224112 0.1249148 0.1270375 0.1287693 0.1302044 0.1314584 0.1326244 0.1337452
 0.1348023 0.135754 0.136595 0.1373623 0.138085 0.1387527 0.1393309 0.1397886 0.1401174 0.1403433
 0.1405117 0.1406479 0.1407463 0.1408061 0.1408522 0.1408987 0.1409068 0.1407925 0.1404738 0.1399136
 0.1391427 0.1382758 0.1375326 0.1372421 0.1377607 0.1392854 0.14169 0.1445574 0.1473978 0.1498598
 0.1517979 0.1532311 0.1542757 0.1550788 0.1557594 0.1563858 0.1569879 0.1575734 0.1581394 0.158682
 0.1592043 0.1597163 0.1602309 0.1607538 0.1612715 0.161757 0.1621995 0.1626264 0.1630845 0.1635974
 0.1641404 0.1646628 0.1651409 0.1656016 0.1660787 0.1665571 0.1669876 0.1673544 0.1676982 0.1680737
 0.1685089 0.168999 0.1695068 0.1699741 0.1703597 0.1706769 0.1709775 0.1713012 0.1716517 0.1720144
 0.1723787 0.1727432 0.1731107 0.1734885 0.173886 0.1742997 0.1746997 0.175045 0.1753255 0.1755797
 0.1758605 0.1761874 0.176536 0.1768692 0.1771769 0.1774875 0.1778422 0.1782508 0.1786731 0.1790507
 0.1793575 0.1796164 0.1798711 0.1801497 0.1804552 0.1807778 0.181106 0.1814303 0.1817484 0.1820687
 0.1824025 0.1827494 0.1830967 0.183434 0.1837616 0.184086 0.1844116 0.1847382 0.1850682 0.1854137
 0.1857897 0.1861916 0.1865852 0.1869316 0.187222 0.1874797 0.1877328 0.1879959 0.1882741 0.1885679
 0.188872 0.1891789 0.1894859 0.1897969 0.1901156 0.1904407 0.1907676 0.1910934 0.1914177 0.1917403
 0.1920612 0.1923845 0.1927154 0.1930501 0.1933753 0.1936812 0.1939727 0.1942647 0.194569 0.1948852
 0.1952018 0.195506 0.195796 0.196081 0.1963705 0.1966675 0.1969709 0.1972767 0.1975785 0.1978742
 0.1981691 0.1984681 0.198768 0.1990631 0.1993552 0.1996525 0.1999579 0.2002623 0.2005536 0.200832
 0.2011101 0.2013977 0.2016925 0.2019881 0.2022848 0.2025865 0.2028942 0.2032041 0.2035087 0.2038007
 0.2040796 0.2043542 0.2046359 0.2049289 0.2052263 0.205516 0.2057943 0.2060694 0.2063513 0.206643
 0.2069448 0.2072572 0.207574 0.2078826 0.2081758 0.2084596 0.208746 0.2090444 0.2093562 0.2096745
 0.2099907 0.2103009 0.2106036 0.2108973 0.2111842 0.2114688 0.2117475 0.212012 0.2122636 0.2125143
 0.2127736 0.2130433 0.2133205 0.2136003 0.2138793 0.2141587 0.2144393 0.2147175 0.2149938 0.215275
 0.2155639 0.2158559 0.2161487 0.2164438 0.2167415 0.2170414 0.2173417 0.2176358 0.2179192 0.2181986
 0.2184826 0.2187707 0.2190619 0.2193588 0.2196604 0.2199602 0.2202552 0.2205448 0.2208289 0.2211141
 0.2214067 0.2216987 0.2219784 0.2222514 0.2225309 0.2228189 0.2231099 0.2233994 0.2236814 0.2239541
 0.224228 0.2245107 0.2247962 0.2250795 0.2253663 0.2256604 0.2259605 0.2262658 0.2265681 0.2268558
 0.2271327 0.2274144 0.2277041 0.227996 0.2282903 0.2285839 0.2288666 0.2291381 0.2294025 0.2296397
 0.2297906 0.2297123 0.2290452 0.2270688 0.2226914 0.2146814 0.2021638 0.1851706 0.1648197 0.1429222
 0.1213231 0.1014232 0.08404046 0.06952569 0.05795355 0.04923896 0.04319853 0.03966423 0.03861747 0.04033223
 0.04551887 0.05489505 0.06760119 0.07981236 0.08623838 0.08430544 0.07662015 0.06859297 0.06394303 0.0629115
 0.06389153 0.06552328 0.06738272 0.06972596 0.07298674 0.07728784 0.0824177 0.08836122 0.0955631 0.1043608
 0.1142966 0.1243053 0.1336313 0.1424214 0.1513736 0.1608987 0.1706886 0.1800176 0.1883234 0.1954968
 0.201772 0.2074613 0.2127754 0.2178081 0.222605 0.227163 0.2313258 0.2347367 0.2370071 0.2380124
 0.2380402 0.2376305 0.2372508 0.2371086 0.2372144 0.2375327 0.2380431 0.2387265 0.2395559 0.2404998
 0.2415191 0.2425713 0.2436225 0.2446467 0.245619 0.2465219 0.2473498 0.2481029 0.2487845 0.2494028
 0.2499694 0.2504976 0.2510024 0.2514902 0.25195 0.2523675 0.252745 0.253098 0.2534347 0.253751
 0.2540408 0.2543064 0.2545594 0.2548154 0.255083 0.255358 0.2556292 0.2558876 0.256132 0.2563704
 0.2566134 0.2568622 0.2571057 0.2573345 0.2575512 0.2577673 0.2579926 0.2582299 0.2584727 0.2587093
 0.2589349 0.2591549 0.2593761 0.2596002 0.259828 0.2600626 0.260304 0.2605477 0.2607875 0.261018
 0.2612417 0.2614735 0.261728 0.261999 0.2622659 0.2625199 0.2627679 0.2630178 0.2632728 0.2635327
 0.2637867 0.264013 0.2642005 0.2643687 0.2645565 0.2647896 0.2650572 0.2653259 0.2655756 0.2658147
 0.2660572 0.2662985 0.266522 0.2667163 0.2668893 0.2670781 0.2673277 0.2676421 0.2679751 0.268285
 0.2685701 0.2688425 0.2691079 0.2693772 0.269653 0.2699012 0.2700778 0.2701979 0.2703505 0.2706274
 0.2710356 0.2714828 0.2718636 0.2721542 0.2724087 0.2726879 0.2730176 0.2733631 0.273604 0.2736194
 0.273474 0.2734441 0.2737649 0.274399 0.2751113 0.2757083 0.2761508 0.2764928 0.2767863 0.2770324
 0.2771839 0.2771996 0.2771315 0.2771565 0.2774588 0.2780392 0.2786969 0.2792358 0.2796177 0.2798917
 0.2800954 0.2802569 0.2803444 0.2801873 0.2796616 0.2790295 0.2788735 0.2795301 0.2807065 0.2817895
 0.2824495 0.2828082 0.2830978 0.2833806 0.2836081 0.2836658 0.2832412 0.2820073 0.2802528 0.2790516
 0.2793773 0.2811269 0.2832945 0.2849697 0.2859133 0.2863514 0.2865864 0.2867865 0.2868555 0.2864491
 0.2853645 0.2840354 0.283413 0.2840865 0.2856242 0.2870377 0.2877879 0.2880645 0.2882602 0.2885323
 0.2886991 0.2881858 0.2863493 0.2834253 0.2810092 0.2809347 0.28348 0.2870335 0.2896926 0.2909017
 0.2913038 0.2913401 0.2906026 0.2885748 0.2854131 0.281877 0.2790899 0.2783814 0.2804036 0.2840333
 0.2870132 0.2881777 0.2884372 0.2892828 0.2910101 0.2927331 0.2935371 0.2931874 0.2919664 0.2901685
 0.2879615 0.2858565 0.2849881 0.286308 0.2894279 0.2927579 0.2949743 0.2960238 0.2964326 0.2957636
 0.2923069 0.2851444 0.2767252 0.2721829 0.2748007 0.2825757 0.2903701 0.294961 0.2968008 0.2976028
 0.2980494 0.2976051 0.294828 0.2881604 0.2783836 0.2701566 0.2688568 0.2752553 0.2846436 0.2912349
 0.2921077 0.2874969 0.2797393 0.2725812 0.2696605 0.2723044 0.278945 0.2866674 0.2929581 0.2963991
 0.2966639 0.2943827 0.2910877 0.2888329 0.2887114 0.2892424 0.2874978 0.2828004 0.2778523 0.2747669
 0.2718015 0.2665852 0.2613238 0.261327 0.2680982 0.276816 0.2817545 0.2820798 0.2807943 0.2792745
 0.2749217 0.2649109 0.2515479 0.2423498 0.2434682 0.253309 0.2639616 0.2689385 0.2683225 0.2664379
 0.2660739 0.2656482 0.261457 0.2525185 0.2429988 0.2387136 0.2409605 0.2453669 0.2470657 0.2445854
 0.2381611 0.2281536 0.2177949 0.2141852 0.2223033 0.2389084 0.2550851 0.2635811 0.2614619 0.2485212
 0.2282664 0.2099754 0.2041736 0.2132264 0.2284732 0.2381971 0.236924 0.2263916 0.2105192 0.1927127
 0.1774042 0.1705478 0.1760481 0.1917825 0.2097124 0.2199144 0.2160623 0.2003174 0.1836756 0.178054
 0.1854904 0.19678 0.20179 0.1986358 0.1922315 0.1879199 0.1883715 0.1931802 0.1993266 0.2039874
 0.2067911 0.2067268 0.1991318 0.1813443 0.1602596 0.1477937 0.1484912 0.1572069 0.1686738 0.1821927
 0.1954219 0.2011719 0.1955306 0.1853183 0.1822826 0.1906249 0.2033944 0.2109615 0.2105315 0.2066316
 0.2041039 0.2029396 0.2007126 0.1981818 0.1994949 0.2064535 0.2153601 0.2211502 0.2226735 0.222225
 0.2216575 0.2209905 0.2197403 0.2177522 0.2150971 0.2121958 0.2097034 0.2077738 0.2059259 0.2037838
 0.201066 0.1965428 0.1883613 0.1767861 0.1658469 0.1601963 0.1602483 0.162525 0.1647471 0.1671251
 0.1676167 0.1606242 0.1443657 0.1268856 0.1202063 0.1287405 0.1460147 0.1619976 0.170691 0.1706223
 0.1619612 0.1469793 0.1327106 0.1287083 0.1392451 0.1592476 0.1797669 0.1956488 0.2060496 0.2102325
 0.2068753 0.1973441 0.1868977 0.1816949 0.1850993 0.1961851 0.2099746 0.218656 0.2154229 0.2013041
 0.188233 0.1902177 0.2085673 0.2296201 0.2400937 0.2405467 0.2398986 0.2415839 0.241885 0.239719
 0.2405189 0.2487603 0.2613456 0.2706558 0.271252 0.26202 0.2453934 0.2278168 0.2180846 0.2203512
 0.2294641 0.2365923 0.2377727 0.2334143 0.2230922 0.2076926 0.1949148 0.194635 0.2074403 0.2233047
 0.2330063 0.2365261 0.2388679 0.2414493 0.2404383 0.2326177 0.2207658 0.2119227 0.210432 0.214157
 0.2181047 0.2196945 0.2188205 0.2149009 0.2072434 0.1982716 0.1935361 0.1969455 0.2067907 0.2173891
 0.224187 0.2266192 0.2267571 0.2265784 0.226571 0.2259228 0.2239949 0.2222255 0.2238218 0.2302614
 0.2388383 0.2454025 0.2491138 0.2527226 0.2582945 0.2643769 0.2677779 0.2670766 0.2640133 0.2620082
 0.2634375 0.267742 0.27183 0.2727052 0.2703048 0.2678051 0.2686843 0.2733962 0.2793065 0.2836769
 0.285906 0.2869677 0.2877895 0.2884735 0.2882624 0.2861436 0.2823385 0.279182 0.2794811 0.2837136
 0.2895322 0.2941404 0.296519 0.297294 0.2972398 0.2964578 0.2947979 0.2925912 0.2906873 0.2897963
 0.2899797 0.2908157 0.2918501 0.2927949 0.2935045 0.2939638 0.2942538 0.2944502 0.2945892 0.2947187
 0.2948761 0.2950032 0.2950008 0.2949065 0.2949142 0.295148 0.2954884 0.295693 0.2956158 0.2952129
 0.2944103 0.2931265 0.2914272 0.2895098 0.2874885 0.2853234 0.2830806 0.2812113 0.2804204 0.2811466
 0.2831614 0.2857025 0.2879923 0.2896317 0.2906064 0.2910829 0.291256 0.2912924 0.2912985 0.2912986
 0.2912585 0.2911448 0.2909599 0.2907259 0.2904573 0.2901691 0.2898993 0.2896907 0.2895429 0.2893985
 0.2891836 0.2888581 0.2884312 0.2879442 0.2874358 0.286907 0.2863088 0.2855721 0.2846664 0.2836361
 0.2825758 0.2815681 0.2806314 0.2797199 0.2787688 0.2777348 0.2765861 0.2752723 0.2737611 0.2721242
 0.2705335 0.2691273 0.2679027 0.2667526 0.2655667 0.264277 0.2628568 0.2613223 0.2597207 0.2580938
 0.2564564 0.2548048 0.2531268 0.2514048 0.2496251 0.2477846 0.2458856 0.2439285 0.2419171 0.2398591
 0.2377411 0.2354921 0.2329823 0.2300688 0.2266401 0.2226303 0.2180315 0.2129244 0.2074863 0.201943
 0.1965009 0.1913112 0.1864778 0.1820952 0.1782788 0.1751456 0.1727647 0.1711416 0.1702517 0.1700742
 0.1705964 0.1717954 0.1736082 0.1759096 0.178528 0.1812801 0.1839906 0.1865115 0.1887719 0.190818
 0.1927698 0.1947196 0.1966668 0.1985452 0.200294 0.2018882 0.2033103 0.2045289 0.2055248 0.2063181
 0.2069478 0.2074396 0.2078066 0.2080663 0.2082458 0.208376 0.2084849 0.2085979 0.208749 0.2089806
 0.209313 0.2097231 0.2101759 0.2106698 0.2112331 0.211881 0.2125927 0.2133303 0.2140784 0.2148648
 0.2157396 0.2167439 0.2179143 0.2192997 0.2209363 0.2228079 0.2248549 0.227009 0.2291977 0.23133
 0.2333011 0.2350147 0.2364059 0.2374589 0.2382022 0.2386821 0.238945 0.239038 0.2389982 0.2388393
 0.2385618 0.2381756 0.2377017 0.2371586 0.2365515 0.2358693 0.2351014 0.234268 0.2334197 0.2325967
 0.2318058 0.2310418 0.2303107 0.2296229 0.2289765 0.2283514 0.2277169 0.2270508 0.2263488 0.225614
 0.2248469 0.2240456 0.223196 0.2222624 0.2212114 0.2200453 0.2187885 0.2174502 0.2160259 0.2145243
 0.2129681 0.2113727 0.2097389 0.2080554 0.2063046 0.2044676 0.202526 0.2004628 0.198282 0.1960318
 0.1937959 0.1916547 0.1896542 0.1877967 0.1860512 0.1843824 0.1827751 0.1812311 0.1797536 0.1783481
 0.1770228 0.1757753 0.1745905 0.173459 0.1723883 0.1713963 0.1705015 0.1697117 0.1690143 0.1683869
 0.1678209 0.1673262 0.1669224 0.1666325 0.1664678 0.1664005 0.166362 0.1662761 0.1660968 0.1658258
 0.1655115 0.1652171 0.164974 0.1647696 0.1645728 0.164349 0.1640466 0.1635879 0.1628803 0.161844
 0.1604519 0.1587474 0.1568204 0.154779 0.15275 0.1508676 0.1492331 0.1478973 0.1468728 0.1461233
 0.1455519 0.1450565 0.1446129 0.1442858 0.1441582 0.1442389 0.1444154 0.1445156 0.1444593 0.1443451
 0.144365 0.144647 0.1451829 0.1458586 0.1465315 0.1471041 0.1475392 0.1478244 0.1479633 0.1479931
 0.1479544 0.1478432 0.1476369 0.1473492 0.1470146 0.1466422 0.1462151 0.1457109 0.1451131 0.1444271
 0.1436791 0.1428807 0.1420182 0.1410677 0.1399848 0.1387242 0.1373497 0.1360982 0.135265 0.1350238
 0.1353514 0.1360643 0.1369385 0.1378424 0.1387064 0.1393519 0.1395422 0.1393673 0.1394323 0.1404143
 0.1424002 0.1447795 0.1467913 0.1480616 0.1486152 0.1485758 0.1480224 0.1470114 0.1455422 0.1435499
 0.1410468 0.1381873 0.1351338 0.132001 0.1289559 0.126205 0.1238733 0.1219887 0.1205254 0.1194927
 0.1190032 0.1186888 0.1167028 0.1106912 0.1014355 0.09446912 0.09542897 0.1037201 0.1129377 0.1176434
 0.1176921 0.1159765 0.1144924 0.1135613 0.1131073 0.1132661 0.1141281 0.1155162 0.1170283 0.1182643
 0.1190656 0.1194712 0.1194425 0.1186521 0.1164201 0.1119203 0.1048434 0.09601551 0.08712284 0.07971561
 0.07451778 0.07144631 0.06992145 0.06919672 0.06873485 0.06846766 0.06870078 0.06975043 0.07166532 0.07426326
 0.0773247 0.0806165 0.08378327 0.08645494 0.08852931 0.09017829 0.09153281 0.0925172 0.09300901 0.09300871
 0.09262406 0.09199183 0.09123616 0.09043185 0.0895628 0.08854047 0.08733983 0.08614668 0.08527488 0.08486976
 0.08478296 0.08478434 0.08477397 0.08474852 0.08470769 0.08465438 0.08460582 0.08460183 0.08473618 0.085097
 0.08562697 0.08613031 0.08645442 0.08660456 0.08668031 0.08672009 0.08658659 0.08608377 0.0852814 0.08455913
 0.0841227 0.08365664 0.08274601 0.08151573 0.08055541 0.08026817 0.08051915 0.08087799 0.08100918 0.08084009
 0.08054189 0.08043048 0.08075111 0.08140591</values></Ydata></ScSm><ScRf><Ydata ylabel="Single channel"><values byteorder="INTEL" format="FLOAT32" numvalues="1820"> 0.06073371 0.06088507 0.0609767 0.06100624 0.0609963 0.06099433 0.06105356 0.06119766 0.06140041 0.06159935
 0.06173769 0.06180143 0.06181026 0.06177869 0.06171505 0.06166106 0.06168922 0.0618342 0.06204313 0.06220872
 0.06225378 0.06219969 0.06215791 0.06222088 0.06233682 0.06232076 0.06202993 0.06152844 0.06104461 0.06075805
 0.06068889 0.06083462 0.06127992 0.06197593 0.06249699 0.06234471 0.06156857 0.06079874 0.06054713 0.06071799
 0.06089408 0.06082126 0.060493 0.06006242 0.05988338 0.06040952 0.06174821 0.06329736 0.06396212 0.06284422
 0.05988398 0.0560642 0.05304548 0.05227642 0.05397733 0.05684707 0.0590353 0.05961591 0.05903699 0.05819416
 0.05746209 0.05679757 0.05636292 0.05657351 0.05752639 0.05860131 0.05877589 0.05750263 0.05536111 0.05364635
 0.05318226 0.05380327 0.0550518 0.0566818 0.05794758 0.05719592 0.05349156 0.04868028 0.04656852 0.04930343
 0.05508115 0.05991089 0.06116628 0.05906333 0.0555059 0.05250311 0.05140217 0.05252915 0.05514631 0.05806612
 0.06036403 0.06141066 0.06071562 0.05836059 0.05541331 0.05340394 0.05338359 0.05551785 0.05905728 0.06240193
 0.06382218 0.06273437 0.06009249 0.05738278 0.05564552 0.05546988 0.05713594 0.0603278 0.06411602 0.06749175
 0.06977475 0.07068764 0.0704225 0.0695217 0.06846392 0.06757254 0.0672944 0.06793055 0.06890597 0.06898771
 0.06762803 0.06570143 0.06460579 0.06481726 0.06551109 0.06555994 0.06467076 0.06320268 0.06105553 0.05764446
 0.05324982 0.0493814 0.04727289 0.04694255 0.04808868 0.05056823 0.05333805 0.05439351 0.0529571 0.05087829
 0.05079796 0.0533328 0.0567555 0.05910952 0.06002653 0.06059305 0.06195007 0.06412025 0.06586636 0.06562518
 0.0630561 0.05990502 0.05876996 0.06055394 0.06360003 0.06573273 0.06655392 0.06719503 0.0683336 0.06913443
 0.06812255 0.06494015 0.06126989 0.05978409 0.06181768 0.06603557 0.06940205 0.06941611 0.06579045 0.06052521
 0.05635475 0.05485197 0.05600598 0.05927035 0.06416924 0.06973976 0.07427497 0.07627633 0.075541 0.07309328
 0.07001193 0.06642789 0.06207405 0.05793856 0.05647515 0.05928625 0.06507163 0.07070978 0.0740413 0.0749458
 0.074128 0.07178401 0.06780721 0.06309333 0.0599689 0.06038107 0.06354974 0.06641124 0.06682837 0.06554029
 0.06458194 0.06474817 0.06529967 0.06553029 0.06577997 0.06686173 0.06890024 0.07102644 0.07221386 0.07220671
 0.07156968 0.07103181 0.07082203 0.07049976 0.06958319 0.06852027 0.06862909 0.07064855 0.07371517 0.07624876
 0.07753561 0.07798293 0.0780536 0.07745264 0.07554834 0.07255177 0.07000066 0.06961879 0.07164951 0.07470131
 0.07719454 0.07849886 0.07879239 0.07849205 0.07796796 0.07742306 0.07695361 0.07680455 0.07730856 0.07840835
 0.07954915 0.08023456 0.08043095 0.08031334 0.07991438 0.07920973 0.07837804 0.07779413 0.07775872 0.07827711
 0.07910888 0.0799803 0.08067726 0.08100644 0.0808665 0.08039786 0.0799025 0.0795693 0.07940102 0.07940181
 0.07965273 0.08014958 0.08071043 0.08112352 0.08131617 0.08134058 0.08126264 0.08111272 0.08091407 0.08072831
 0.08066359 0.08080129 0.08109221 0.0813839 0.08159778 0.08180973 0.08208562 0.08231772 0.08233473 0.08213283
 0.08189429 0.08178968 0.0818389 0.08195712 0.08205342 0.08204991 0.08186951 0.08150351 0.08110525 0.08093129
 0.08113451 0.08165379 0.08231274 0.08294591 0.08342244 0.08366749 0.08371934 0.08369215 0.08364484 0.08353882
 0.0833405 0.08312136 0.08303707 0.08320904 0.08361453 0.08409667 0.08449119 0.08472776 0.08482595 0.08486331
 0.08494938 0.08513963 0.08534975 0.08543235 0.0853613 0.08527325 0.08530438 0.08543798 0.08553901 0.08551516
 0.08542119 0.08539846 0.08552227 0.08573461 0.08593102 0.08608036 0.08623762 0.08645115 0.08667208 0.08677287
 0.08667938 0.08647142 0.08630572 0.08624937 0.086252 0.08627746 0.08637397 0.08657694 0.08681037 0.0869492
 0.08696087 0.08693568 0.08696879 0.08704586 0.0870681 0.08697236 0.08679743 0.08663879 0.08656766 0.08659378
 0.08667451 0.08674373 0.08674812 0.08667686 0.0865612 0.08644328 0.08634815 0.08629307 0.08631639 0.08646378
 0.08671688 0.08694975 0.08700246 0.08682515 0.08653833 0.08632888 0.08628079 0.08631237 0.08627395 0.08609314
 0.0858212 0.08556049 0.08537211 0.08525022 0.08515725 0.0850697 0.08500555 0.08501855 0.08514361 0.08532554
 0.08542388 0.08532935 0.0850731 0.08479388 0.08460757 0.08453398 0.08452578 0.08452617 0.08451337 0.08452021
 0.08458999 0.08469401 0.08473463 0.08465911 0.08452985 0.08445923 0.08451404 0.08469035 0.08492072 0.08509022
 0.08510853 0.08499952 0.08488329 0.0848548 0.0849111 0.08499934 0.08509015 0.08518534 0.08528754 0.08539405
 0.08551419 0.0856722 0.08588511 0.08613773 0.08638071 0.08656064 0.08666699 0.08675466 0.08690867 0.08717337
 0.08751382 0.08784656 0.08810891 0.08830293 0.088477 0.0886668 0.0888644 0.08905426 0.08925974 0.08952269
 0.08984348 0.09017593 0.09048204 0.09076387 0.09104025 0.09132037 0.09160774 0.09191643 0.09227297 0.09269252
 0.09314057 0.09353011 0.09378679 0.09392335 0.09403694 0.09423529 0.09456296 0.09496699 0.09531908 0.09551342
 0.09557648 0.09564972 0.09583363 0.09608626 0.09631516 0.09652795 0.0968269 0.09726195 0.09774654 0.09813797
 0.09837376 0.09851429 0.09866387 0.09886162 0.09905446 0.09917712 0.0992423 0.09932517 0.09946889 0.09965255
 0.0998631 0.1001432 0.1005267 0.1009623 0.1013497 0.1016332 0.101827 0.1019693 0.1020855 0.1021823
 0.102249 0.1022787 0.102299 0.1023557 0.102451 0.1025325 0.1025653 0.102584 0.1026496 0.1027885
 0.1029985 0.1032778 0.1036096 0.103939 0.1042195 0.1044803 0.1047976 0.105177 0.1055095 0.1056842
 0.1057126 0.1056967 0.1057035 0.1057327 0.105794 0.1059394 0.1061981 0.1065324 0.1068836 0.1072305
 0.1075823 0.1079352 0.1082542 0.1084882 0.1086016 0.1086043 0.1085575 0.1085487 0.1086492 0.1088793
 0.109199 0.1095344 0.1098205 0.1100198 0.1101089 0.1100846 0.1100017 0.1099746 0.1100881 0.1103021
 0.1104722 0.1104703 0.1102652 0.1098911 0.1093808 0.1087545 0.1080567 0.1073729 0.1067976 0.1063902
 0.1061683 0.1061444 0.1063495 0.1067968 0.1074268 0.1081205 0.1087692 0.1092994 0.109631 0.1096653
 0.1093563 0.1087685 0.1080374 0.107287 0.1065911 0.10597 0.1053927 0.1048196 0.1042877 0.1039499
 0.1040018 0.104564 0.1056211 0.1070329 0.1085809 0.110039 0.1112614 0.1122326 0.1130338 0.1137536
 0.1144337 0.1150906 0.1157496 0.1164224 0.11707 0.1176311 0.118092 0.1184975 0.1188934 0.1192842
 0.1196445 0.1199456 0.120179 0.120371 0.1205582 0.1207313 0.1208309 0.1208196 0.1207316 0.120626
 0.1205157 0.1203591 0.1201036 0.1197277 0.119273 0.1188654 0.1186927 0.1189238 0.119612 0.1206644
 0.1219118 0.1232138 0.124489 0.1256585 0.1266178 0.1273004 0.1277414 0.128047 0.1283128 0.128587
 0.1288838 0.1291991 0.1295169 0.1298218 0.130111 0.1303962 0.1306969 0.1310235 0.1313586 0.1316637
 0.1319181 0.1321496 0.1324177 0.1327592 0.1331497 0.1335251 0.1338506 0.1341547 0.1344756 0.134793
 0.1350479 0.1352248 0.1353773 0.1355727 0.1358429 0.1361832 0.1365572 0.1369028 0.1371703 0.1373652
 0.1375366 0.1377239 0.1379335 0.1381585 0.1383984 0.1386539 0.1389199 0.1391954 0.1394897 0.1398022
 0.1400996 0.1403313 0.1404821 0.1405976 0.1407443 0.1409492 0.1411871 0.1414176 0.141627 0.1418423
 0.1421039 0.1424185 0.1427366 0.142991 0.1431571 0.1432687 0.1433803 0.1435271 0.1437177 0.1439421
 0.1441792 0.1444047 0.1446075 0.1447973 0.1449923 0.1452002 0.1454141 0.1456244 0.1458286 0.1460302
 0.1462313 0.1464324 0.1466407 0.1468748 0.1471517 0.1474623 0.1477641 0.1480114 0.1481908 0.1483237
 0.1484423 0.1485702 0.1487203 0.1488964 0.1490944 0.1493043 0.1495146 0.1497164 0.1499073 0.1500946
 0.1502904 0.1505022 0.1507263 0.1509514 0.151171 0.1513909 0.1516199 0.1518546 0.1520787 0.1522809
 0.1524668 0.1526516 0.1528442 0.1530401 0.1532266 0.1533972 0.1535619 0.1537403 0.1539423 0.154159
 0.1543732 0.1545762 0.1547722 0.1549679 0.1551644 0.1553597 0.1555541 0.1557487 0.1559421 0.1561323
 0.1563198 0.1565062 0.1566907 0.1568734 0.157058 0.1572498 0.1574526 0.1576674 0.1578895 0.1581099
 0.158321 0.1585206 0.1587105 0.1588973 0.1590919 0.1592994 0.1595109 0.1597133 0.1599026 0.1600864
 0.1602745 0.1604712 0.1606725 0.1608711 0.1610682 0.1612749 0.1614984 0.1617323 0.161962 0.1621774
 0.1623791 0.1625781 0.1627862 0.1630047 0.1632252 0.1634431 0.1636626 0.1638862 0.1641079 0.1643164
 0.1645035 0.1646719 0.1648335 0.164999 0.1651712 0.1653498 0.1655353 0.1657259 0.1659166 0.1661064
 0.1662992 0.1664974 0.1666983 0.1668961 0.1670879 0.1672788 0.1674789 0.1676898 0.167902 0.1681092
 0.1683151 0.1685234 0.1687328 0.1689412 0.1691471 0.1693493 0.1695504 0.1697562 0.1699674 0.1701802
 0.1703927 0.1706041 0.1708119 0.1710166 0.1712215 0.1714256 0.1716256 0.1718231 0.1720206 0.1722186
 0.1724198 0.172628 0.1728421 0.1730591 0.1732796 0.1735019 0.1737205 0.1739362 0.1741539 0.1743724
 0.1745889 0.1748061 0.175024 0.1752362 0.1754429 0.1756518 0.1758642 0.1760766 0.1762893 0.1765017
 0.1767117 0.1769239 0.1771394 0.1773364 0.1774635 0.1774046 0.1768779 0.1753311 0.17193 0.1657239
 0.1560229 0.142838 0.1270383 0.1100443 0.09329741 0.07787709 0.06440428 0.05314737 0.04417205 0.03741959
 0.03274707 0.0300183 0.02921316 0.03053997 0.03454794 0.04179723 0.05163141 0.06109607 0.06609187 0.06461228
 0.05866291 0.05243333 0.04881661 0.04801405 0.04878547 0.05006844 0.05151958 0.05332983 0.05584171 0.05916479
 0.06314524 0.0677695 0.07337135 0.08020361 0.08791404 0.09568591 0.102936 0.1097711 0.1167246 0.1241132
 0.1317015 0.138934 0.1453843 0.150975 0.1558843 0.1603421 0.1645011 0.1684355 0.1721908 0.1757661
 0.179025 0.1816778 0.1834335 0.1842204 0.1842717 0.1839918 0.1837256 0.1836319 0.1837291 0.183997
 0.1844189 0.1849762 0.1856439 0.1863908 0.1871787 0.1879767 0.1887742 0.189569 0.1903493 0.1910948
 0.1917856 0.1924073 0.1929606 0.1934628 0.1939317 0.1943718 0.1947826 0.1951674 0.1955307 0.1958784
 0.1962195 0.1965546 0.1968687 0.197146 0.1973864 0.1976024 0.1978079 0.1980128 0.1982203 0.1984288
 0.1986388 0.1988534 0.1990705 0.1992846 0.1994971 0.1997133 0.1999298 0.2001348 0.2003216 0.2004958
 0.2006685 0.2008486 0.2010385 0.201235 0.2014341 0.2016337 0.2018325 0.2020277 0.2022165 0.2023982
 0.2025771 0.2027617 0.2029582 0.2031629 0.2033699 0.2035821 0.2038065 0.2040397 0.2042691 0.2044867
 0.2046934 0.2048948 0.205098 0.2053048 0.2055025 0.2056726 0.2058154 0.2059576 0.2061331 0.2063556
 0.2066072 0.2068525 0.2070691 0.2072617 0.2074477 0.2076356 0.2078222 0.2079991 0.2081652 0.208339
 0.2085489 0.2087996 0.2090659 0.2093271 0.2095857 0.2098427 0.210088 0.2103193 0.2105389 0.2107305
 0.2108739 0.2109896 0.2111451 0.2114037 0.2117617 0.212141 0.212456 0.2126886 0.2128866 0.2131056
 0.2133729 0.2136658 0.2138867 0.2139271 0.2138249 0.2138017 0.2140622 0.2145881 0.2151828 0.2156743
 0.2160266 0.2162965 0.2165432 0.2167729 0.2169372 0.2169875 0.2169578 0.2169952 0.2172593 0.2177568
 0.2183173 0.2187659 0.2190677 0.2192806 0.2194557 0.2196169 0.2197242 0.2196309 0.2192387 0.2187626
 0.2186713 0.2192314 0.2202028 0.2210951 0.2216531 0.221982 0.2222641 0.2225339 0.2227407 0.2228001
 0.2224851 0.2215513 0.2202215 0.219329 0.2196308 0.2210415 0.2227713 0.224116 0.2249004 0.2253022
 0.2255483 0.2257666 0.2258875 0.2256435 0.2248657 0.2238827 0.2234411 0.224016 0.2252765 0.2264419
 0.2270819 0.2273482 0.2275533 0.2278143 0.2279772 0.2275886 0.2261551 0.2238813 0.2220368 0.2220648
 0.2241693 0.2270619 0.2292342 0.2302528 0.2306355 0.2307332 0.2302128 0.2286539 0.2261802 0.2234039
 0.2212263 0.2207125 0.2223908 0.2253699 0.2278403 0.2288573 0.2291396 0.2298813 0.2313267 0.2327727
 0.2334867 0.2332767 0.2323701 0.2310093 0.2293311 0.2277374 0.2271253 0.2282527 0.2308173 0.2335595
 0.235424 0.2363608 0.2367844 0.2363437 0.2336639 0.2279962 0.221298 0.2177015 0.2198674 0.2262018
 0.2325716 0.2363746 0.2379709 0.2387372 0.2392131 0.2389562 0.2368082 0.2315247 0.2237375 0.2171958
 0.2162355 0.2214919 0.2291816 0.2346351 0.2354705 0.2318501 0.22566 0.2199572 0.2177123 0.2200025
 0.2255395 0.2319413 0.2371652 0.240076 0.2404234 0.2387144 0.2361776 0.2344787 0.2345151 0.2350848
 0.233797 0.2300955 0.2261876 0.2238067 0.2215333 0.2174233 0.2132774 0.2134573 0.2192138 0.2265885
 0.2308589 0.2313256 0.2304605 0.2294033 0.2260142 0.2179572 0.2071273 0.1997381 0.2008915 0.2092795
 0.2183484 0.2227179 0.2224595 0.2211689 0.2211706 0.2211483 0.2179971 0.2108765 0.2032764 0.2000942
 0.2024279 0.2065903 0.2084681 0.2068017 0.2017661 0.1936602 0.18525 0.1826085 0.1900052 0.204688
 0.2190325 0.2268076 0.2254523 0.2147329 0.1976527 0.1822874 0.1778477 0.1864285 0.2004634 0.2096821
 0.2092559 0.2006603 0.1872969 0.172173 0.1592939 0.1540959 0.1602032 0.1757554 0.1934069 0.2039496
 0.2014025 0.1876984 0.1731536 0.1690441 0.1773078 0.1891774 0.1949894 0.1929496 0.1877709 0.1846295
 0.1861853 0.1920648 0.1992482 0.204923 0.208734 0.2095799 0.2025829 0.184954 0.163756 0.151244
 0.1521401 0.1612253 0.1731343 0.1871644 0.2008858 0.2068527 0.2010004 0.1903529 0.1870354 0.1954028
 0.2083195 0.2158872 0.2152406 0.2110578 0.2083524 0.2071456 0.2049634 0.2026054 0.2043478 0.2120357
 0.2218518 0.2285747 0.2310103 0.2315212 0.2320343 0.2325767 0.2326149 0.2319382 0.2305998 0.2290562
 0.228022 0.2276656 0.2274542 0.2269652 0.2258694 0.2227078 0.2152037 0.2034647 0.1920192 0.1862261
 0.1865934 0.1891533 0.191364 0.1935845 0.193565 0.1849111 0.1655312 0.1445528 0.1356713 0.1439145
 0.1619065 0.1782797 0.1863759 0.1847981 0.1740161 0.1565951 0.1399164 0.1338468 0.1426856 0.1610462
 0.1796187 0.1931874 0.2012007 0.2033182 0.1984433 0.1879012 0.1766982 0.170654 0.1728657 0.1823522
 0.1943713 0.2016342 0.197885 0.1841254 0.171335 0.1723555 0.1884165 0.2070758 0.2162045 0.2162649
 0.2153589 0.2166457 0.2167914 0.2148142 0.2156164 0.2232584 0.2349832 0.2439366 0.245183 0.2376471
 0.2234765 0.2085387 0.2008853 0.2042563 0.2137617 0.2211459 0.2227398 0.2189624 0.2094655 0.1951965
 0.1835455 0.183888 0.1967297 0.2125065 0.2224515 0.22657 0.2296416 0.2329864 0.2328637 0.2261395
 0.2155279 0.2079187 0.2075715 0.2123985 0.2175068 0.2203553 0.2207835 0.2180938 0.2114893 0.2033945
 0.1994801 0.2037369 0.2143211 0.225244 0.231703 0.2330836 0.2315635 0.2292814 0.226897 0.2237671
 0.2193751 0.2151806 0.2143352 0.218325 0.2246138 0.2292495 0.2313844 0.233561 0.2377084 0.2424845
 0.2449106 0.243623 0.2401723 0.2376749 0.238313 0.2416015 0.2447462 0.2450262 0.2423804 0.2397033
 0.2401789 0.2442472 0.2495411 0.2535819 0.2557937 0.2570061 0.2580218 0.2589131 0.2589564 0.2571759
 0.2537261 0.2507072 0.2506711 0.2540838 0.2588817 0.262612 0.2644228 0.2649182 0.2647928 0.2641092
 0.2627071 0.2608627 0.2593044 0.2586322 0.2588906 0.2597139 0.2607047 0.2616057 0.262291 0.2627538
 0.2630646 0.2632788 0.2634165 0.263516 0.2636113 0.2636511 0.2635514 0.2633646 0.263293 0.2634721
 0.263807 0.2640826 0.2641593 0.263979 0.2634591 0.2625237 0.2612359 0.2597719 0.258224 0.2565436
 0.2547836 0.2533556 0.2529035 0.2538176 0.2558702 0.2583529 0.2605624 0.2621516 0.2631177 0.26361
 0.2637991 0.2638363 0.2638226 0.2637815 0.2636805 0.2634843 0.2631887 0.2628174 0.2624066 0.2619982
 0.2616345 0.261336 0.2610808 0.2608141 0.2604834 0.2600676 0.2595831 0.2590678 0.2585486 0.2580081
 0.257387 0.2566317 0.2557395 0.254762 0.2537788 0.2528631 0.252045 0.2512938 0.250547 0.249756
 0.2488864 0.2478935 0.2467566 0.2455555 0.2444597 0.2435936 0.2429291 0.2423306 0.2416784 0.2409232
 0.2400595 0.2391012 0.2380781 0.2370192 0.2359315 0.2348033 0.2336195 0.2323635 0.2310204 0.229587
 0.2280723 0.2264891 0.2248578 0.2232045 0.22153 0.2197729 0.2178138 0.2155122 0.2127431 0.2094173
 0.2055033 0.2010553 0.1962271 0.1912445 0.1863342 0.181664 0.177344 0.1734654 0.1701162 0.1673669
 0.1652639 0.1638383 0.1631129 0.1630983 0.1637855 0.1651369 0.1670795 0.1695053 0.17228 0.1752539
 0.1782659 0.1811534 0.1837943 0.1861663 0.1883464 0.1904222 0.1924074 0.1942539 0.1959175 0.1973796
 0.1986289 0.1996605 0.2004936 0.2011704 0.2017373 0.2022268 0.2026498 0.2030033 0.2032888 0.20352
 0.2037135 0.2038824 0.20404 0.2042019 0.2043854 0.2046064 0.2048772 0.205208 0.2056115 0.2060906
 0.2066201 0.2071594 0.2076957 0.208257 0.2088752 0.2095542 0.2102872 0.2110936 0.2120203 0.2131073
 0.2143544 0.2157183 0.217129 0.2184975 0.219724 0.2207262 0.2214701 0.2219659 0.2222428 0.2223356
 0.2222834 0.2221187 0.2218557 0.2214975 0.2210482 0.2205188 0.2199278 0.2192967 0.2186379 0.2179483
 0.2172227 0.2164746 0.2157369 0.2150383 0.2143786 0.2137352 0.2130932 0.2124612 0.2118546 0.2112754
 0.2107144 0.2101614 0.2096087 0.209051 0.2084839 0.207894 0.2072524 0.2065311 0.2057239 0.2048407
 0.2038789 0.2028148 0.2016284 0.2003277 0.1989394 0.1974812 0.1959554 0.1943652 0.1927204 0.1910179
 0.1892283 0.1873189 0.1852997 0.1832412 0.1812426 0.1793805 0.1776791 0.1761143 0.1746412 0.1732287
 0.1718762 0.1705957 0.1693854 0.1682274 0.1671064 0.1660201 0.1649793 0.1640042 0.1631158 0.1623267
 0.1616375 0.1610352 0.1604954 0.1600004 0.1595568 0.159185 0.1589013 0.1587239 0.1586683 0.1587135
 0.1587906 0.1588275 0.1587907 0.1586842 0.1585338 0.158379 0.1582546 0.1581723 0.1581202 0.1580662
 0.1579517 0.1576895 0.1571784 0.1563317 0.1551202 0.1535905 0.1518362 0.1499669 0.148111 0.1464058
 0.1449523 0.1437909 0.1429162 0.1422802 0.1417944 0.1413817 0.1410342 0.1408121 0.1407907 0.1409828
 0.1412783 0.1414984 0.141561 0.1415687 0.1417058 0.1420885 0.1427126 0.1434776 0.1442429 0.1449046
 0.1454245 0.1457916 0.1460068 0.1461065 0.1461397 0.1461167 0.1460233 0.1458581 0.1456243 0.1453222
 0.1449663 0.144568 0.144108 0.1435598 0.1429141 0.1421646 0.1413168 0.1403968 0.1393975 0.1382677
 0.1370389 0.1359168 0.1351804 0.1350156 0.1354296 0.1362545 0.1372599 0.1383138 0.1393574 0.1402073
 0.1405993 0.1405854 0.1407414 0.1417518 0.143759 0.1462097 0.1483515 0.1497829 0.150501 0.150607
 0.1501647 0.1492378 0.1478423 0.1459088 0.1434318 0.1405588 0.1374661 0.1343038 0.1312807 0.1286049
 0.1263533 0.1245133 0.1230663 0.1220533 0.1216197 0.1214107 0.1195289 0.1135295 0.1042069 0.09726755
 0.09850357 0.1072632 0.1169282 0.1219082 0.1220719 0.1204009 0.1189247 0.1179267 0.1173101 0.1172656
 0.1179669 0.1192766 0.1207764 0.1220231 0.1228186 0.1231954 0.1231313 0.1222865 0.119922 0.1151662
 0.1077291 0.09850764 0.08927253 0.08163254 0.07630803 0.07316363 0.07157549 0.0707843 0.07025491 0.0699351
 0.07015467 0.07123052 0.07319574 0.07588463 0.07911325 0.08263356 0.08602072 0.08884774 0.09100561 0.09269582
 0.09408855 0.09512484 0.09566596 0.09569805 0.09533864 0.09472862 0.09397632 0.09314972 0.09224124 0.09116672
 0.08991171 0.08868809 0.08781824 0.08742341 0.08733558 0.08732863 0.08730969 0.08727877 0.08724204 0.0872018
 0.08716333 0.08715545 0.08726294 0.087571 0.08804584 0.08852683 0.08885747 0.08900367 0.08905005 0.08905713
 0.08890288 0.08838309 0.08755395 0.0867836 0.08627224 0.08571193 0.08469899 0.08336566 0.0823156 0.08196574
 0.08217307 0.08249607 0.08262037 0.0825026 0.08230092 0.08228111 0.08264241 0.08326387 0.08370227 0.0836031
</values></Ydata></ScRf><Data_Parameters_AB><parameter name="DPF">1</parameter><parameter name="NPT">3497</parameter><parameter name="FXV">3996</parameter><parameter name="LXV">500</parameter><parameter name="CSF">1</parameter><parameter name="MXY">0.0661096274852753</parameter><parameter name="MNY">-0.121214009821415</parameter><parameter name="DAT">31/05/2022</parameter><parameter name="TIM">13:51:57.355 (GMT+2)</parameter><parameter name="DXU">WN</parameter></Data_Parameters_AB><AB__Qtest><MainReport name="Quality Test Report"><Header><Line><Legend>Test result ok/not ok [1/0]: </Legend><Value>0</Value></Line><Line><Legend>Method file: </Legend><Value>C:\Users\Public\Documents\Bruker\OPUS_8.2.28\QT\IRBT_v3_default.QT</Value></Line></Header><Matrix><Line><Legend></Legend><Legend>min</Legend><Legend>max</Legend><Legend>measured</Legend></Line><Line><Value>Absorption (X-Range 1):</Value><Value>0.400000</Value><Value>2.000000</Value><Value>0.133366</Value></Line><Line><Value>Noise (X-Range 4):</Value><Value></Value><Value>0.000300</Value><Value>0.000046</Value></Line><Line><Value>Signal/Noise (X-Range 2):</Value><Value>200.000000</Value><Value></Value><Value>37.810714</Value></Line><Line><Value>Signal/Noise (X-Range 3):</Value><Value>40.000000</Value><Value></Value><Value>27.284059</Value></Line><Line><Value>Water vapour (X-Range 5):</Value><Value></Value><Value>0.000300</Value><Value>0.000054</Value></Line><Line><Value>Signal/Water (X-Range 2):</Value><Value>100.000000</Value><Value></Value><Value>32.512733</Value></Line><Line><Value>Signal/Water (X-Range 3):</Value><Value>20.000000</Value><Value></Value><Value>23.461057</Value></Line><Line><Value>Fringes (X-Range 6):</Value><Value></Value><Value>0.000100</Value><Value>0.000076</Value></Line></Matrix></MainReport></AB__Qtest><Data_Parameters_ScSm><parameter name="DPF">1</parameter><parameter name="NPT">1814</parameter><parameter name="FXV">3996.33169228125</parameter><parameter name="LXV">499.541461535156</parameter><parameter name="CSF">1</parameter><parameter name="MXY">0.298049449920654</parameter><parameter name="MNY">0.0386174693703651</parameter><parameter name="DAT">31/05/2022</parameter><parameter name="TIM">13:51:57.355 (GMT+2)</parameter><parameter name="DXU">WN</parameter></Data_Parameters_ScSm><Data_Parameters_ScRf><parameter name="DPF">1</parameter><parameter name="NPT">1820</parameter><parameter name="FXV">4004.04661832813</parameter><parameter name="LXV">495.683998511719</parameter><parameter name="CSF">1</parameter><parameter name="MXY">0.264918178319931</parameter><parameter name="MNY">0.0292131640017033</parameter><parameter name="DAT">31/05/2022</parameter><parameter name="TIM">13:51:31.502 (GMT+2)</parameter><parameter name="DXU">WN</parameter></Data_Parameters_ScRf><Optic_Parameters_Rf><parameter name="APR">0</parameter><parameter name="APT">Open</parameter><parameter name="BMS">KBr</parameter><parameter name="DTC">RT-DLaTGS_IR-Biotyper [Microplate reader]</parameter><parameter name="HPF">0</parameter><parameter name="LPF">10.0</parameter><parameter name="LPV">4000</parameter><parameter name="PGR">0</parameter><parameter name="RCH">Module port</parameter><parameter name="RDX">0</parameter><parameter name="SRC">MIR</parameter><parameter name="VEL">10.0</parameter><parameter name="SON">Off</parameter></Optic_Parameters_Rf><Acquisition_Parameters_Rf><parameter name="ADT">1</parameter><parameter name="AQM">DD</parameter><parameter name="CFE">0</parameter><parameter name="COR">0</parameter><parameter name="DEL">0</parameter><parameter name="DLY">0</parameter><parameter name="HFW">8000</parameter><parameter name="LFW">0</parameter><parameter name="NSR">32</parameter><parameter name="PLF">AB</parameter><parameter name="RES">6</parameter><parameter name="RGN">-1</parameter><parameter name="STR">0</parameter><parameter name="TCL">MakeCompatibleScalar (0, {WSV=1.000000, ARV=0});</parameter><parameter name="TDL">37</parameter><parameter name="RPO">0</parameter></Acquisition_Parameters_Rf><FT_-_Parameters_Rf><parameter name="APF">B3</parameter><parameter name="HFQ">500</parameter><parameter name="LFQ">4000</parameter><parameter name="NLI">0</parameter><parameter name="PHR">24</parameter><parameter name="PHZ">ML</parameter><parameter name="SPZ">NO</parameter><parameter name="ZFF">1</parameter></FT_-_Parameters_Rf><Optic_Parameters_><parameter name="APR">0</parameter><parameter name="APT">Open</parameter><parameter name="BMS">KBr</parameter><parameter name="CHN">Module port</parameter><parameter name="DTC">RT-DLaTGS_IR-Biotyper [Microplate reader]</parameter><parameter name="HPF">0</parameter><parameter name="LPF">10.0</parameter><parameter name="LPV">4000</parameter><parameter name="PGN">0</parameter><parameter name="RDX">0</parameter><parameter name="SRC">MIR</parameter><parameter name="VEL">10.0</parameter><parameter name="SON">Off</parameter></Optic_Parameters_><FT_-_Parameters_><parameter name="APF">B3</parameter><parameter name="HFQ">500</parameter><parameter name="LFQ">4000</parameter><parameter name="NLI">0</parameter><parameter name="PHR">24</parameter><parameter name="PHZ">ML</parameter><parameter name="SPZ">NO</parameter><parameter name="ZFF">1</parameter></FT_-_Parameters_><Acquisition_Parameters_><parameter name="ADT">1</parameter><parameter name="AQM">DD</parameter><parameter name="CFE">0</parameter><parameter name="COR">0</parameter><parameter name="DEL">0</parameter><parameter name="DLY">0</parameter><parameter name="HFW">8000</parameter><parameter name="LFW">0</parameter><parameter name="NSS">32</parameter><parameter name="PLF">AB</parameter><parameter name="RES">6</parameter><parameter name="SOT">0</parameter><parameter name="TCL">MakeCompatibleScalar (0, {WSV=1.000000, ARV=0});</parameter><parameter name="TDL">37</parameter><parameter name="SPO">0</parameter><parameter name="SGN">-1</parameter></Acquisition_Parameters_><Instrument_Parameters_Rf><parameter name="HFL">15800.168544</parameter><parameter name="LFL">0</parameter><parameter name="LWN">15800.168544</parameter><parameter name="ABP">32197</parameter><parameter name="SSP">1</parameter><parameter name="ARG">2</parameter><parameter name="ASG">2</parameter><parameter name="ASS">32</parameter><parameter name="GFW">16</parameter><parameter name="GBW">16</parameter><parameter name="BFW">0</parameter><parameter name="BBW">0</parameter><parameter name="PKA">7260</parameter><parameter name="PKL">4996</parameter><parameter name="PRA">7442</parameter><parameter name="PRL">5001</parameter><parameter name="P2A">1</parameter><parameter name="P2L">1</parameter><parameter name="P2R">1</parameter><parameter name="P2K">1</parameter><parameter name="DAQ">0</parameter><parameter name="AG2">1</parameter><parameter name="SSM">1</parameter><parameter name="RSN">25719</parameter><parameter name="CRR">0</parameter><parameter name="SRT">1654005091.502</parameter><parameter name="DUR">19.6379852294922</parameter><parameter name="TSC">29</parameter><parameter name="MVD">0.319351553916931</parameter><parameter name="AN1">0.225828626190855</parameter><parameter name="AN2">0</parameter><parameter name="VSN">2.485 Apr  4 2017</parameter><parameter name="SRN">0085</parameter><parameter name="CAM">0</parameter><parameter name="INS">IR-Biotyper</parameter><parameter name="FOC">69</parameter><parameter name="RDY">1</parameter><parameter name="ARS">32</parameter></Instrument_Parameters_Rf><Sample_Parameters_><parameter name="BLD"></parameter><parameter name="CNM">Admin</parameter><parameter name="CPY"></parameter><parameter name="DPM"></parameter><parameter name="EXP">IRBT_v3_32Scans.XPM</parameter><parameter name="LCT"></parameter><parameter name="SFM">Microplate, HTS-XT</parameter><parameter name="SNM">220531-1301_CGR32F (D_6)_G5_4e2a4374-2980-4a2f-9288-ef8471423d6a.0</parameter><parameter name="XPP">C:\Users\Public\Documents\Bruker\OPUS_8.2.28\XPM</parameter><parameter name="IST">OK</parameter><parameter name="CPG">1252</parameter><parameter name="UID">73d3b239-4f54-44fa-833a-2a6fbc689e9f</parameter></Sample_Parameters_><Instrument_Parameters_><parameter name="HFL">15800.168544</parameter><parameter name="LFL">0</parameter><parameter name="LWN">15800.168544</parameter><parameter name="ABP">32197</parameter><parameter name="SSP">1</parameter><parameter name="ASG">2</parameter><parameter name="ARG">2</parameter><parameter name="ASS">32</parameter><parameter name="GFW">16</parameter><parameter name="GBW">16</parameter><parameter name="BFW">0</parameter><parameter name="BBW">0</parameter><parameter name="PKA">8361</parameter><parameter name="PKL">4988</parameter><parameter name="PRA">8598</parameter><parameter name="PRL">4993</parameter><parameter name="P2A">1</parameter><parameter name="P2L">1</parameter><parameter name="P2R">1</parameter><parameter name="P2K">1</parameter><parameter name="DAQ">0</parameter><parameter name="AG2">1</parameter><parameter name="SSM">1</parameter><parameter name="RSN">13485</parameter><parameter name="CRR">0</parameter><parameter name="SRT">1654005117.355</parameter><parameter name="DUR">19.6379852294922</parameter><parameter name="TSC">29</parameter><parameter name="MVD">0.726348102092743</parameter><parameter name="AN1">0.225799727114111</parameter><parameter name="AN2">0</parameter><parameter name="VSN">2.485 Apr  4 2017</parameter><parameter name="SRN">0085</parameter><parameter name="CAM">0</parameter><parameter name="INS">IR-Biotyper</parameter><parameter name="FOC">69</parameter><parameter name="RDY">1</parameter></Instrument_Parameters_><History/></OPUSDataFile>
