<?xml version="1.0" encoding="UTF-8" ?>
<OPUSDataFile><AB><Ydata ylabel="Absorbance Units"><values byteorder="INTEL" format="FLOAT32" numvalues="3497"> -0.06270173 -0.06267637 -0.0626496 -0.0626219 -0.06258561 -0.06254037 -0.06248993 -0.06243558 -0.06239432 -0.06236763
 -0.06237439 -0.06241181 -0.06248278 -0.06257796 -0.06267769 -0.06277384 -0.06284182 -0.06288613 -0.06289962 -0.06289692
 -0.06288775 -0.06288008 -0.06288282 -0.0628911 -0.06290527 -0.06291965 -0.06293211 -0.0629439 -0.06295514 -0.06296553
 -0.06297541 -0.06297845 -0.06297432 -0.06296016 -0.06293678 -0.06291331 -0.06289139 -0.06288609 -0.06289681 -0.06293076
 -0.06298356 -0.0630492 -0.06312245 -0.0631917 -0.0632551 -0.06330561 -0.06334487 -0.06337239 -0.06338847 -0.06339373
 -0.06338608 -0.06336433 -0.06332947 -0.06328018 -0.06322509 -0.06316453 -0.06311137 -0.06306676 -0.06304112 -0.0630351
 -0.06305157 -0.06308998 -0.0631441 -0.06321279 -0.06328626 -0.06336404 -0.06343979 -0.06351266 -0.06357826 -0.0636343
 -0.06367439 -0.06369916 -0.06370562 -0.0636989 -0.06368243 -0.0636588 -0.06363122 -0.06359707 -0.06355459 -0.06350797
 -0.06345541 -0.06341462 -0.06338745 -0.0633924 -0.0634318 -0.06351258 -0.06363527 -0.06379402 -0.06398714 -0.06419294
 -0.06440567 -0.06458002 -0.06471037 -0.06474628 -0.06469908 -0.06456459 -0.06437065 -0.06416248 -0.06395692 -0.06379372
 -0.0636709 -0.06360168 -0.0635734 -0.06358447 -0.06361748 -0.06366616 -0.06371669 -0.06376343 -0.06380454 -0.06383809
 -0.06387122 -0.06390466 -0.0639415 -0.06398202 -0.06401986 -0.06405519 -0.06408771 -0.06412012 -0.06417002 -0.0642385
 -0.06434315 -0.06447396 -0.0646195 -0.06476035 -0.06485534 -0.06490167 -0.06487168 -0.06479411 -0.06468154 -0.06456194
 -0.0644567 -0.064372 -0.06431346 -0.06428738 -0.06429382 -0.06435083 -0.06446283 -0.06463354 -0.06486823 -0.06511028
 -0.06535736 -0.06547231 -0.06545383 -0.06524899 -0.06488359 -0.06450393 -0.06412014 -0.0638518 -0.0636812 -0.06362487
 -0.06366215 -0.06377032 -0.063922 -0.06407998 -0.06421468 -0.06428479 -0.06429189 -0.064215 -0.06410319 -0.06396904
 -0.06385564 -0.06378205 -0.06374128 -0.06373668 -0.06374408 -0.0637602 -0.06378331 -0.06381303 -0.06386194 -0.06392975
 -0.06401509 -0.06411456 -0.06420577 -0.06428506 -0.06432571 -0.06432865 -0.0642804 -0.06418951 -0.06406102 -0.06391184
 -0.06376208 -0.06362949 -0.06353673 -0.06348861 -0.06349692 -0.06355028 -0.0636493 -0.06377386 -0.06392021 -0.06406743
 -0.06421241 -0.06433544 -0.06443491 -0.06448778 -0.06449252 -0.06443414 -0.06431365 -0.06414587 -0.06393484 -0.06371447
 -0.06348721 -0.06327996 -0.06309351 -0.06294319 -0.06282903 -0.06276003 -0.06272975 -0.06273761 -0.06276701 -0.06280524
 -0.06283656 -0.06284565 -0.0628348 -0.0627984 -0.06275456 -0.06270666 -0.06266987 -0.06264802 -0.06264452 -0.0626605
 -0.06269265 -0.06274091 -0.06279728 -0.06286091 -0.06291706 -0.06296477 -0.0629889 -0.06299156 -0.06297126 -0.0629339
 -0.06289373 -0.06285492 -0.06283259 -0.06282462 -0.06283497 -0.06285882 -0.06289088 -0.06293601 -0.06299248 -0.06307623
 -0.06319507 -0.06335196 -0.0635551 -0.0637721 -0.06400187 -0.06419551 -0.06434746 -0.06442869 -0.06443713 -0.06434842
 -0.06416287 -0.06387849 -0.06350648 -0.0631225 -0.062739 -0.0624509 -0.0622504 -0.0621722 -0.062187 -0.06226455
 -0.06236565 -0.06242335 -0.06243322 -0.06235804 -0.06224 -0.06209393 -0.06195165 -0.06183429 -0.06173785 -0.06166874
 -0.06160029 -0.06152852 -0.06143468 -0.06131404 -0.06118244 -0.06104017 -0.06092383 -0.06083469 -0.0607979 -0.06081036
 -0.06086678 -0.06095557 -0.06102939 -0.06107522 -0.06102464 -0.06089715 -0.06068821 -0.06044086 -0.06021626 -0.06001652
 -0.05987423 -0.059749 -0.05962556 -0.05947354 -0.05926792 -0.05903206 -0.05876211 -0.05850971 -0.05828634 -0.05810835
 -0.05798294 -0.0578693 -0.0577661 -0.05759756 -0.05736169 -0.05701801 -0.05657865 -0.05611204 -0.05563138 -0.05523403
 -0.05490799 -0.05467192 -0.05450716 -0.05438907 -0.05430308 -0.0542262 -0.05413437 -0.05400175 -0.0538043 -0.05351263
 -0.05314381 -0.05269272 -0.05219989 -0.05168017 -0.05113601 -0.05057105 -0.04997521 -0.04934557 -0.04870056 -0.04804102
 -0.04738955 -0.04674702 -0.04612667 -0.04552998 -0.04497505 -0.04446172 -0.04400296 -0.04358936 -0.04320474 -0.0428351
 -0.04244823 -0.04203311 -0.04156703 -0.04103167 -0.04040028 -0.0396719 -0.03881726 -0.03791925 -0.03699913 -0.03614583
 -0.03540302 -0.03474611 -0.03418349 -0.03364217 -0.03311392 -0.03255568 -0.03196318 -0.03134141 -0.03069218 -0.0300566
 -0.02943524 -0.02885858 -0.02831141 -0.02775199 -0.0271529 -0.02640222 -0.02552225 -0.02447911 -0.02336463 -0.02229729
 -0.0213041 -0.02047171 -0.0197312 -0.01906798 -0.01841171 -0.01772159 -0.01698785 -0.01619173 -0.01537936 -0.01455688
 -0.01375799 -0.01299079 -0.01223699 -0.01149664 -0.0107248 -0.009920424 -0.009067238 -0.008170664 -0.007266183 -0.006357447
 -0.005481964 -0.004632344 -0.003807505 -0.002999153 -0.002189969 -0.00137844 -0.0005549583 0.0002779627 0.001124327 0.001971529
 0.002814559 0.003637897 0.00442617 0.005202359 0.005961479 0.006768908 0.007640248 0.008595503 0.009647445 0.01070753
 0.01177105 0.01274714 0.01363497 0.01444532 0.01518504 0.01591401 0.01663311 0.01737951 0.01814522 0.01892877
 0.01971867 0.02049014 0.02124198 0.0219549 0.02265371 0.0233479 0.02407839 0.02487914 0.02575571 0.0267308
 0.02774899 0.02880101 0.02983234 0.03082802 0.03177566 0.03267106 0.0335204 0.03432346 0.03509601 0.03583936
 0.03658114 0.03732309 0.03809185 0.03888738 0.03972442 0.04060053 0.04151922 0.04247149 0.0434457 0.04442428
 0.04537847 0.04629815 0.04715814 0.04797385 0.04874337 0.04949688 0.05024833 0.05101267 0.05180194 0.05259783
 0.05340125 0.05417847 0.05492369 0.05563165 0.0563002 0.0569685 0.0576386 0.05835309 0.05910945 0.05990714
 0.06073873 0.06156933 0.06239699 0.0631962 0.06397349 0.06472921 0.06547074 0.06620997 0.06694622 0.06768575
 0.06841752 0.0691363 0.06983334 0.07049972 0.07114658 0.07177211 0.07240306 0.07304432 0.07371501 0.0744192
 0.07515726 0.07593013 0.07672057 0.0775271 0.07831614 0.07908609 0.07980681 0.08048203 0.08111094 0.08170156
 0.08227725 0.0828418 0.083415 0.08399389 0.0845835 0.08517736 0.08577131 0.08635975 0.08693555 0.08750381
 0.08806192 0.08862816 0.08920939 0.08980943 0.09043448 0.09105566 0.09167001 0.09225506 0.09280746 0.0933526
 0.09389229 0.09447134 0.09508778 0.09574646 0.09643767 0.09711917 0.09778385 0.09838537 0.0989311 0.09940908
 0.09984083 0.1002511 0.1006562 0.1010859 0.1015302 0.1019944 0.1024568 0.1029051 0.1033402 0.1037572
 0.1041745 0.1045963 0.105027 0.1054684 0.1059139 0.1063628 0.1068189 0.1072822 0.1077575 0.1082441
 0.108737 0.1092373 0.1097481 0.1102719 0.1108219 0.1113912 0.111975 0.1125578 0.1131142 0.113639
 0.1141149 0.1145528 0.1149544 0.11533 0.1156858 0.1160237 0.1163447 0.1166534 0.1169495 0.1172439
 0.1175381 0.1178405 0.1181522 0.1184747 0.1188082 0.1191533 0.1195105 0.1198843 0.1202735 0.1206778
 0.1210918 0.1214995 0.1218954 0.1222578 0.1225917 0.1228918 0.1231753 0.1234576 0.1237511 0.1240735
 0.1244134 0.1247746 0.1251257 0.1254574 0.1257492 0.1259903 0.1262025 0.1263842 0.1265849 0.1268094
 0.1270716 0.1273709 0.1276523 0.127912 0.1280866 0.1281846 0.1282109 0.128184 0.128165 0.1281619
 0.1282247 0.1283421 0.1285219 0.1287443 0.1289925 0.1292522 0.1295053 0.129757 0.1300002 0.1302624
 0.1305515 0.1308845 0.1312737 0.1316818 0.1321103 0.1324806 0.1327861 0.1329808 0.1330637 0.1330691
 0.1330031 0.1329421 0.1328856 0.1328741 0.132897 0.1329395 0.1330001 0.1330628 0.133144 0.1332639
 0.1334261 0.133653 0.1339076 0.1341748 0.134413 0.1345888 0.1347178 0.1347888 0.1348665 0.134964
 0.1351199 0.1353467 0.1356136 0.1359211 0.136199 0.1364438 0.1366004 0.136671 0.1366522 0.1365559
 0.1364362 0.1363087 0.1362528 0.1362711 0.1364154 0.1366615 0.1370047 0.1373999 0.1378021 0.138172
 0.1384633 0.138675 0.1387865 0.1388414 0.1388447 0.138853 0.138879 0.1389623 0.1391097 0.1393482
 0.1396803 0.1401286 0.1406939 0.1413675 0.1421417 0.1429412 0.1437494 0.1444413 0.1450086 0.1453504
 0.1454915 0.1454222 0.1452033 0.1449142 0.1446162 0.1444103 0.1443033 0.1443478 0.1444743 0.1446742
 0.1448438 0.1449465 0.1449184 0.1447305 0.1444027 0.1439269 0.1433887 0.1427933 0.1422242 0.1416851
 0.1412049 0.1407812 0.1403986 0.1400556 0.1397363 0.1394429 0.1391761 0.1389337 0.138717 0.138509
 0.1382926 0.1380332 0.137692 0.1372345 0.1366168 0.1358472 0.1349033 0.1338612 0.1327319 0.1316177
 0.1305448 0.1295702 0.12871 0.1279549 0.1273075 0.1267206 0.1261916 0.1256599 0.1251231 0.1245329
 0.1238961 0.1232193 0.1225191 0.1218577 0.1212362 0.1206983 0.12021 0.1197425 0.1192567 0.1186907
 0.1180523 0.1173141 0.1165401 0.1157482 0.1150141 0.114371 0.1138488 0.1134697 0.1131866 0.1130035
 0.1128118 0.1126036 0.1122809 0.111839 0.1112648 0.1105654 0.1098132 0.1090171 0.1082641 0.1075526
 0.1069253 0.1063712 0.1058888 0.1054651 0.1050819 0.1047261 0.1043787 0.1040277 0.1036582 0.1032641
 0.1028366 0.1023816 0.1018968 0.1013986 0.1008895 0.1003858 0.09989107 0.09940997 0.09894373 0.09848621
 0.09803711 0.09758948 0.09714343 0.09669842 0.0962548 0.09581453 0.09537732 0.0949434 0.09451202 0.09408211
 0.09365193 0.09321958 0.09278022 0.09232846 0.09185934 0.09136571 0.09085117 0.09031302 0.08976565 0.08921304
 0.08866735 0.08813366 0.08760962 0.0870964 0.0865834 0.08606954 0.08555095 0.0850274 0.0845014 0.08397298
 0.08344299 0.08291175 0.08238072 0.0818515 0.0813309 0.08081895 0.08032046 0.0798315 0.07934805 0.07886692
 0.07838144 0.07789531 0.07740618 0.07692799 0.07646368 0.07603741 0.07565848 0.07534224 0.07510093 0.07490225
 0.07475003 0.07455868 0.07432137 0.07396385 0.07348212 0.07288466 0.07217851 0.07145076 0.07071056 0.07005706
 0.06948721 0.06905069 0.06872217 0.06847622 0.06827079 0.06802586 0.06772021 0.06728514 0.06676184 0.06614777
 0.06552192 0.06493058 0.06440333 0.06397329 0.06359066 0.06324974 0.06290607 0.06254426 0.06220145 0.06187702
 0.06164706 0.06151561 0.06149641 0.06158254 0.06169195 0.06181206 0.06182493 0.06173148 0.06146432 0.06104999
 0.06051027 0.05988473 0.0592492 0.05862103 0.05805574 0.05753432 0.0570595 0.05661265 0.05617663 0.05577064
 0.05539596 0.05507861 0.05483234 0.05463164 0.05447885 0.05431452 0.05413131 0.05391583 0.05366703 0.0534375
 0.05322958 0.05309074 0.05301369 0.05298115 0.05298091 0.05295771 0.05291151 0.05281052 0.05267063 0.05250292
 0.05232284 0.05215794 0.05199905 0.05185732 0.05169033 0.05148215 0.05118785 0.05077963 0.0502669 0.04963441
 0.0489677 0.04827302 0.04765575 0.04712921 0.04672855 0.04645655 0.04624704 0.0460935 0.04589032 0.04563801
 0.04528122 0.04483614 0.04432822 0.04377851 0.04325113 0.04275394 0.04233265 0.04197473 0.04168793 0.0414451
 0.0412302 0.04101413 0.04077509 0.04050346 0.04018494 0.03984497 0.03948413 0.03914182 0.03882791 0.03854211
 0.0382888 0.03801303 0.03771188 0.03734132 0.03690445 0.03643513 0.03594257 0.03550579 0.03511919 0.0348107
 0.03455506 0.03430282 0.03404091 0.03371593 0.03335166 0.03295069 0.0325487 0.03217989 0.03185089 0.03157835
 0.0313457 0.03114679 0.03098384 0.03085175 0.03078013 0.03077433 0.03084763 0.0310057 0.03120395 0.03144044
 0.03162462 0.03175246 0.03174642 0.03161201 0.03133925 0.03094646 0.03049276 0.02999787 0.02954029 0.0291267
 0.0288062 0.02856972 0.02842762 0.02836317 0.02836722 0.02842403 0.02852273 0.0286535 0.02881039 0.02898843
 0.02918565 0.02939777 0.02962304 0.02986399 0.03011872 0.03041572 0.03075629 0.03119551 0.03173521 0.03241548
 0.03322951 0.03415794 0.03518547 0.03624439 0.03732552 0.03836897 0.03938172 0.04034664 0.04127881 0.04218967
 0.04309 0.04399211 0.04490269 0.04582701 0.04677442 0.04774944 0.04875861 0.04980808 0.05088167 0.05198254
 0.05306055 0.0541131 0.0550746 0.05594096 0.05666808 0.05725593 0.05769969 0.05800176 0.05817501 0.05822049
 0.05814428 0.05795598 0.05767174 0.05732651 0.05697916 0.05667833 0.0565087 0.0564886 0.05667155 0.05702418
 0.05754573 0.05819188 0.0589401 0.05978512 0.0607179 0.06176047 0.06291739 0.06419003 0.06558149 0.06705905
 0.06862118 0.07022367 0.07186428 0.07350381 0.07514109 0.07674792 0.07832669 0.07987039 0.08138418 0.08288214
 0.08435639 0.08581571 0.08720709 0.08849782 0.08956162 0.0903106 0.09056585 0.09020445 0.08910677 0.08716607
 0.08446671 0.08096678 0.07698795 0.07255387 0.06808267 0.06361873 0.05947398 0.05567188 0.05231323 0.04939422
 0.0468507 0.04467052 0.04274321 0.04106295 0.03955147 0.03820424 0.03697498 0.03585084 0.0347905 0.03377987
 0.0327822 0.03180065 0.03082027 0.02986576 0.028945 0.02808546 0.02730103 0.02660294 0.02599854 0.02548244
 0.02505501 0.0247085 0.02444106 0.0242605 0.02416698 0.0241832 0.02430875 0.02454306 0.02487525 0.02523499
 0.02560203 0.02585519 0.02598975 0.02592006 0.02568094 0.02528326 0.02479167 0.02428527 0.02382454 0.02348783
 0.02330668 0.02332427 0.02353824 0.0239608 0.02456791 0.02535543 0.0263045 0.02741022 0.02867149 0.03009261
 0.03162526 0.03327051 0.03480648 0.03621082 0.03706993 0.03736282 0.03671393 0.03517506 0.03271472 0.02947855
 0.02581289 0.02186899 0.01808903 0.0145188 0.01141442 0.008699616 0.00640511 0.004416037 0.002669306 0.001098087
 -0.0003440366 -0.00166792 -0.002884866 -0.003994153 -0.004994998 -0.005901143 -0.006712809 -0.007453983 -0.008126069 -0.008753732
 -0.009338021 -0.009897564 -0.01043195 -0.01094765 -0.01144288 -0.01191396 -0.0123594 -0.01277284 -0.01315488 -0.01350216
 -0.01381987 -0.01411041 -0.01438642 -0.01465767 -0.01493958 -0.01524625 -0.01557872 -0.01594619 -0.01632281 -0.01670653
 -0.01705954 -0.01737298 -0.01763308 -0.01783425 -0.01800534 -0.0181474 -0.01830544 -0.01848038 -0.0186869 -0.0189209
 -0.01915763 -0.01939538 -0.01961026 -0.01981147 -0.02001062 -0.02021884 -0.02046614 -0.02074753 -0.02107379 -0.02142275
 -0.02177987 -0.02212411 -0.02243722 -0.0227125 -0.02294113 -0.02312962 -0.02327573 -0.02339792 -0.02349704 -0.02360184
 -0.02371559 -0.02386013 -0.02403766 -0.0242439 -0.02447775 -0.02471487 -0.0249541 -0.02517496 -0.02537908 -0.0255621
 -0.02572687 -0.02587872 -0.0260197 -0.026156 -0.0262887 -0.02642211 -0.02655534 -0.02669019 -0.02682173 -0.02694856
 -0.02706291 -0.02716053 -0.02723912 -0.02729451 -0.02734015 -0.02737577 -0.0274267 -0.02749611 -0.02759933 -0.02773819
 -0.02790174 -0.02808884 -0.02827401 -0.02845681 -0.02862165 -0.02877105 -0.02890731 -0.0290333 -0.02915872 -0.02928336
 -0.02941304 -0.02954205 -0.02966681 -0.0297782 -0.02986504 -0.02992718 -0.02995616 -0.02997278 -0.02998031 -0.03000971
 -0.03007206 -0.03017961 -0.03033978 -0.03053459 -0.03076412 -0.03099894 -0.03123694 -0.03145978 -0.03166704 -0.03185506
 -0.03202462 -0.03217938 -0.03232082 -0.03245645 -0.03258879 -0.03272917 -0.03287803 -0.03304349 -0.03321954 -0.0334034
 -0.03358446 -0.03375132 -0.03389934 -0.03401985 -0.03412054 -0.03420136 -0.03427465 -0.0343444 -0.03441655 -0.03449308
 -0.0345751 -0.03466256 -0.03475998 -0.03486759 -0.0349915 -0.03513163 -0.03528393 -0.03544628 -0.0355997 -0.03574188
 -0.03585068 -0.03592917 -0.03597177 -0.03598926 -0.03599879 -0.03601104 -0.03604922 -0.03611366 -0.03621534 -0.03634343
 -0.03649536 -0.03665818 -0.03682576 -0.03698945 -0.03714507 -0.03729003 -0.03742213 -0.0375477 -0.03766664 -0.03779091
 -0.03792155 -0.03806284 -0.03821454 -0.03836678 -0.03851874 -0.03865854 -0.03878748 -0.03890478 -0.03901297 -0.03911952
 -0.03922461 -0.03933269 -0.03944157 -0.03955014 -0.03965646 -0.03975785 -0.0398546 -0.0399456 -0.04003326 -0.04011823
 -0.04020295 -0.04028832 -0.04037553 -0.04046501 -0.0405569 -0.04065109 -0.04074953 -0.04085226 -0.04096333 -0.04108282
 -0.04121131 -0.04134798 -0.04148614 -0.04162483 -0.04175503 -0.0418785 -0.04199485 -0.04210787 -0.04222591 -0.04234862
 -0.04248136 -0.04261575 -0.04274635 -0.04286473 -0.04296162 -0.0430401 -0.04309686 -0.04314582 -0.04319022 -0.04324155
 -0.04330347 -0.04337728 -0.04346404 -0.04355914 -0.04366236 -0.04376903 -0.04387891 -0.04398806 -0.04409626 -0.0442
 -0.04429932 -0.04439226 -0.04447945 -0.04456161 -0.04463964 -0.04471566 -0.04479023 -0.04486517 -0.04494027 -0.0450162
 -0.04509185 -0.0451665 -0.04523995 -0.04531124 -0.04538324 -0.04545644 -0.0455342 -0.04561806 -0.0457052 -0.04579621
 -0.04588067 -0.0459578 -0.04602082 -0.0460698 -0.04611213 -0.04614921 -0.04619726 -0.04625588 -0.04633295 -0.04642454
 -0.04652345 -0.04662557 -0.04671818 -0.04680188 -0.04687084 -0.04693067 -0.04698433 -0.04703755 -0.04709584 -0.04715969
 -0.04723174 -0.04730685 -0.04738431 -0.04745828 -0.04752711 -0.04758926 -0.04764399 -0.0476942 -0.04774004 -0.047785
 -0.0478292 -0.04787425 -0.04792002 -0.04796596 -0.04801194 -0.04805682 -0.04810111 -0.04814546 -0.04819123 -0.04824165
 -0.04829722 -0.04836089 -0.04843007 -0.04850394 -0.0485782 -0.04864918 -0.04871587 -0.04877609 -0.04883315 -0.04888809
 -0.0489415 -0.04899462 -0.04904117 -0.04908049 -0.04910764 -0.04912175 -0.04912878 -0.04912918 -0.04913624 -0.04915034
 -0.04918068 -0.0492263 -0.04928761 -0.049363 -0.04944831 -0.0495415 -0.04963697 -0.04973207 -0.0498208 -0.04990131
 -0.04996908 -0.05002508 -0.05006773 -0.05010151 -0.05012739 -0.05015161 -0.05017621 -0.0502058 -0.05024198 -0.05028563
 -0.05033723 -0.05039547 -0.0504603 -0.05053078 -0.05060681 -0.05068574 -0.05076707 -0.05084451 -0.05091777 -0.05098152
 -0.05103686 -0.05108413 -0.05112512 -0.0511639 -0.05120106 -0.05123916 -0.0512782 -0.05131887 -0.05136169 -0.05140729
 -0.05145575 -0.05150767 -0.05156124 -0.05161618 -0.05167006 -0.05172217 -0.05177173 -0.0518184 -0.05186325 -0.05190634
 -0.05194861 -0.05199004 -0.05202863 -0.05206414 -0.05209324 -0.05211663 -0.05213553 -0.05215217 -0.05217428 -0.05220307
 -0.05224595 -0.05230029 -0.0523663 -0.05243878 -0.05251248 -0.05258384 -0.05264832 -0.05270582 -0.05275497 -0.05279728
 -0.05283294 -0.05286318 -0.05288805 -0.05290976 -0.05292835 -0.05294769 -0.05296807 -0.05299244 -0.05302088 -0.05305222
 -0.05308621 -0.05311961 -0.05315278 -0.05318578 -0.05321947 -0.0532571 -0.05329801 -0.05334294 -0.05338964 -0.05343495
 -0.05347762 -0.05351469 -0.05354717 -0.05357488 -0.05359876 -0.05361941 -0.05363667 -0.05365044 -0.05366128 -0.05366885
 -0.05367631 -0.05368385 -0.053696 -0.05371325 -0.05373679 -0.0537666 -0.05379749 -0.05382892 -0.05385303 -0.05387025
 -0.05387827 -0.05387915 -0.05387821 -0.05387732 -0.05388346 -0.05389639 -0.0539194 -0.0539498 -0.05398671 -0.05402556
 -0.05406284 -0.05409534 -0.0541193 -0.05413851 -0.05415235 -0.05416964 -0.05419298 -0.05422388 -0.05426403 -0.05430342
 -0.05434135 -0.05436926 -0.05438684 -0.05439945 -0.05440808 -0.05442563 -0.05445214 -0.05449469 -0.05455231 -0.05462494
 -0.05471307 -0.05481712 -0.05493938 -0.05508339 -0.05525116 -0.05544557 -0.05566947 -0.05592335 -0.05621739 -0.0565542
 -0.05695105 -0.05741563 -0.0579532 -0.05857073 -0.05924304 -0.05997007 -0.06070936 -0.06145727 -0.06218529 -0.06289177
 -0.06355374 -0.0641673 -0.06468336 -0.06509513 -0.06533989 -0.06541467 -0.06527497 -0.06492539 -0.06433883 -0.06356149
 -0.06263267 -0.06164662 -0.06072101 -0.05991085 -0.05930351 -0.05888432 -0.05867281 -0.05862698 -0.05874204 -0.05896163
 -0.05928027 -0.05961188 -0.05994565 -0.06019959 -0.06036193 -0.06043997 -0.06043408 -0.06041011 -0.06036887 -0.06034054
 -0.06031968 -0.06029193 -0.06025255 -0.06017683 -0.0600668 -0.05991242 -0.05972366 -0.05951189 -0.05928425 -0.05905622
 -0.05882047 -0.05857732 -0.05831646 -0.05802777 -0.05772395 -0.05740225 -0.05709724 -0.05681668 -0.05658371 -0.05640573
 -0.05627159 -0.05618237 -0.05610414 -0.05603515 -0.05594795 -0.05584314 -0.05571922 -0.05557906 -0.05543813 -0.05529759
 -0.05516974 -0.05505332 -0.05495132 -0.05486253 -0.05478634 -0.05472179 -0.05466807 -0.05462305 -0.05458521 -0.05455205
 -0.05452193 -0.05449323 -0.05446533 -0.05443612 -0.05440529 -0.0543695 -0.05432807 -0.05427962 -0.05422367 -0.05416377
 -0.0541001 -0.05404016 -0.05398438 -0.05394039 -0.05390811 -0.05389154 -0.05388927 -0.05389913 -0.05391866 -0.0539414
 -0.05396518 -0.05398359 -0.05399599 -0.05399895 -0.0539936 -0.05397918 -0.05395865 -0.05393269 -0.05390593 -0.05388012
 -0.0538584 -0.0538423 -0.05383071 -0.05382403 -0.05381783 -0.05381172 -0.0538027 -0.05379058 -0.05377685 -0.05376168
 -0.05374801 -0.0537354 -0.05372307 -0.05370994 -0.05369157 -0.05366772 -0.05363517 -0.05359527 -0.05354848 -0.05349697
 -0.05344311 -0.05338912 -0.05333719 -0.05328955 -0.05324814 -0.05321347 -0.0531867 -0.05316525 -0.0531489 -0.05313447
 -0.05312118 -0.05310892 -0.0530975 -0.05308885 -0.05308306 -0.05308014 -0.05307978 -0.0530781 -0.05307455 -0.05306332
 -0.05304494 -0.0530172 -0.05298306 -0.05294793 -0.05291533 -0.05289445 -0.05288433 -0.05288913 -0.0529018 -0.05291867
 -0.05293266 -0.0529382 -0.05293453 -0.05291938 -0.052897 -0.05286783 -0.05283624 -0.05280305 -0.05277022 -0.05273801
 -0.05270774 -0.05267948 -0.05265596 -0.05263727 -0.05262583 -0.05262097 -0.05262021 -0.05262212 -0.05261951 -0.05261289
 -0.0525988 -0.05258122 -0.0525654 -0.0525539 -0.05255339 -0.05255963 -0.05257249 -0.05258451 -0.05259062 -0.0525899
 -0.05257938 -0.05256644 -0.05255238 -0.05254284 -0.05253978 -0.05253949 -0.05254209 -0.05253994 -0.05253257 -0.05252011
 -0.05250322 -0.05249147 -0.05248542 -0.05249413 -0.05251585 -0.05254963 -0.05259208 -0.05263453 -0.05267484 -0.05270495
 -0.05272595 -0.05273515 -0.05273676 -0.05273279 -0.05272816 -0.0527265 -0.05272924 -0.05273857 -0.05275093 -0.052766
 -0.05278001 -0.05279192 -0.05280267 -0.05281211 -0.05282385 -0.05283811 -0.05285566 -0.0528763 -0.05289692 -0.05291732
 -0.05293461 -0.05294907 -0.05296022 -0.05296854 -0.05297477 -0.05297946 -0.0529837 -0.05298816 -0.05299404 -0.05300173
 -0.05301211 -0.05302477 -0.05303977 -0.05305661 -0.05307509 -0.05309498 -0.05311655 -0.05313773 -0.05315855 -0.05317499
 -0.0531866 -0.05319129 -0.05318888 -0.05318253 -0.05317257 -0.05316473 -0.05315915 -0.05315964 -0.05316607 -0.05318002
 -0.0532011 -0.05322969 -0.05326401 -0.05330186 -0.05334016 -0.05337445 -0.05340271 -0.05342138 -0.05343119 -0.05343103
 -0.05342411 -0.05341077 -0.05339629 -0.0533815 -0.05337323 -0.05337275 -0.05338438 -0.05340907 -0.05344456 -0.05349082
 -0.05353982 -0.05359112 -0.05363656 -0.05367633 -0.0537071 -0.05373019 -0.05374869 -0.05376401 -0.0537818 -0.05380132
 -0.05382457 -0.05384845 -0.05386976 -0.05388692 -0.05389642 -0.05390157 -0.05390268 -0.05390479 -0.05391057 -0.0539205
 -0.05393605 -0.05395218 -0.05396832 -0.05398019 -0.05398694 -0.05399003 -0.05398946 -0.05399023 -0.05399248 -0.05399892
 -0.05400928 -0.05402297 -0.05403965 -0.05405774 -0.05407702 -0.054096 -0.05411489 -0.0541329 -0.0541517 -0.05417284
 -0.05419794 -0.05422986 -0.05426613 -0.05430691 -0.05434711 -0.0543839 -0.0544178 -0.05444748 -0.05447932 -0.05451482
 -0.05455458 -0.05459962 -0.05463911 -0.05467243 -0.05469013 -0.0546925 -0.05468413 -0.05466659 -0.05465335 -0.05464439
 -0.0546475 -0.05466012 -0.05467987 -0.05470402 -0.05472634 -0.05474609 -0.05475925 -0.054768 -0.05477202 -0.05477611
 -0.05478266 -0.05479616 -0.05481997 -0.05485212 -0.05489404 -0.05493625 -0.0549775 -0.05500945 -0.05503055 -0.05504166
 -0.05504266 -0.05503997 -0.05503382 -0.05502836 -0.05502364 -0.0550218 -0.05502319 -0.05503086 -0.05504388 -0.0550621
 -0.0550827 -0.05510025 -0.05511374 -0.05511825 -0.05511817 -0.0551149 -0.05511447 -0.05512153 -0.05513713 -0.0551642
 -0.05519615 -0.0552325 -0.055264 -0.05528869 -0.05530229 -0.05530356 -0.055297 -0.05528276 -0.05526745 -0.05525107
 -0.05523363 -0.05521457 -0.05518941 -0.05515875 -0.0551221 -0.05508148 -0.05504218 -0.05500518 -0.05497502 -0.05495083
 -0.05493325 -0.05492149 -0.05491477 -0.05491356 -0.05491837 -0.05492807 -0.05494356 -0.05495857 -0.05497217 -0.05497646
 -0.05496926 -0.05494964 -0.05491653 -0.0548785 -0.05483599 -0.05479804 -0.05476476 -0.05473788 -0.0547168 -0.05469803
 -0.05468145 -0.05466476 -0.05464848 -0.05463279 -0.05461822 -0.05460592 -0.05459578 -0.05458835 -0.05458285 -0.054579
 -0.05457545 -0.05457115 -0.05456581 -0.05455897 -0.05455101 -0.05454208 -0.05453192 -0.05452055 -0.05450748 -0.05449255
 -0.05447659 -0.05445958 -0.0544446 -0.05443184 -0.05442505 -0.05442412 -0.05443045 -0.05444288 -0.05445747 -0.05447286
 -0.05448288 -0.05448797 -0.0544859 -0.0544779 -0.05446546 -0.05444704 -0.0544218 -0.05438849 -0.05434434 -0.05429525
 -0.05424214 -0.05419327 -0.05415224 -0.05411851 -0.05409356 -0.0540686 -0.05404271 -0.05400991 -0.05396959 -0.0539236
 -0.0538722 -0.05382152 -0.05377187 -0.05372876 -0.05369169 -0.05366192 -0.05363787 -0.05361569 -0.05359464 -0.05357107
 -0.05354613 -0.05352031 -0.05349326 -0.05346572 -0.05343449 -0.05339756 -0.05335361 -0.05330048 -0.05324263 -0.0531806
 -0.05311945 -0.05306059 -0.05300448 -0.05295156 -0.05289891 -0.05284632 -0.0527922 -0.05273675 -0.05268456 -0.05263657
 -0.05260254 -0.05258224 -0.05258145 -0.05259581 -0.05261793 -0.05263991 -0.05264256 -0.0526229 -0.05256572 -0.0524813
 -0.05237151 -0.05225254 -0.05213566 -0.05202892 -0.05193992 -0.05186549 -0.05180688 -0.05175664 -0.05171327 -0.05167348
 -0.05163649 -0.05160309 -0.05157329 -0.05154788 -0.05152689 -0.05151107 -0.05149975 -0.05148917 -0.0514764 -0.05144623
 -0.05139736 -0.05131499 -0.05120747 -0.05108277 -0.05095122 -0.05083241 -0.05072464 -0.05063432 -0.05055418 -0.05048032
 -0.05041142 -0.05034583 -0.0502843 -0.05022823 -0.05017069 -0.05011141 -0.05003909 -0.04995181 -0.0498471 -0.04972431
 -0.04959287 -0.04945347 -0.04932 -0.04919273 -0.04908045 -0.04898156 -0.04889397 -0.04881541 -0.04873813 -0.04866152
 -0.04858124 -0.04849616 -0.04840401 -0.04830128 -0.04818247 -0.04805012 -0.04790155 -0.04774927 -0.04759834 -0.04745664
 -0.04732968 -0.0472103 -0.04709864 -0.04698371 -0.04686353 -0.04673759 -0.04660553 -0.04647343 -0.04634127 -0.04620691
 -0.04606852 -0.0459094 -0.0457284 -0.04550836 -0.04525597 -0.04498002 -0.04469081 -0.04441565 -0.04415263 -0.04391357
 -0.043685 -0.04345752 -0.04322354 -0.04297195 -0.04271191 -0.04244391 -0.04217992 -0.04192605 -0.04167803 -0.04143902
 -0.04118471 -0.04091407 -0.0405919 -0.04021491 -0.03977377 -0.03926948 -0.03874261 -0.03819498 -0.03766277 -0.03713918
 -0.03661268 -0.03607454 -0.03549111 -0.03486348 -0.03417443 -0.03343723 -0.03266057 -0.03186256 -0.03106354 -0.030275
 -0.02951541 -0.0287715 -0.02804916 -0.02730499 -0.02652573 -0.02568643 -0.02477126 -0.02382561 -0.02285149 -0.02190467
 -0.02099092 -0.0201092 -0.01925931 -0.01842778 -0.01761701 -0.01684485 -0.01611148 -0.01543138 -0.0147937 -0.01417385
 -0.01356231 -0.01292259 -0.01226601 -0.01159094 -0.01091556 -0.01026184 -0.00962571 -0.009014138 -0.008409597 -0.007805185
 -0.007191009 -0.006562287 -0.005916741 -0.005257756 -0.004556533 -0.003815974 -0.002950575 -0.001953253 -0.0007723185 0.0005901814
 0.002006148 0.003466222 0.00482223 0.006093529 0.007294468 0.008449039 0.009638831 0.01086889 0.0121863 0.01359212
 0.01509598 0.01673028 0.01851298 0.02052221 0.02281656 0.02544376 0.02847822 0.03178314 0.03536262 0.03894881
 0.0424808 0.0458196 0.04892955 0.0518318 0.05452197 0.05709421 0.05955587 0.0620849 0.06469903 0.06765885
 0.07093675 0.07458179 0.07846536 0.08218879 0.0857348 0.08882995 0.09163158 0.09425593 0.09681628 0.09948543
 0.1022636 0.1052063 0.1082758 0.1114644 0.1147563 0.1181598 0.1215921 0.125046 0.128403 0.1316371
 0.1347662 0.1377889 0.1407596 0.1436768 0.1464098 0.1489447 0.1510846 0.1528453 0.1541964 0.1551696
 0.15585 0.1562474 0.1564196 0.1563739 0.1561337 0.155734 0.1552128 0.1546092 0.1539582 0.1532912
 0.1526357 0.1519891 0.151368 0.1507078 0.1500064 0.1491601 0.1481571 0.1469011 0.1453787 0.1436201
 0.1416299 0.1396078 0.137557 0.1355917 0.1336888 0.1317884 0.1298784 0.1278812 0.1258212 0.1237008
 0.1215772 0.1195345 0.1176151 0.1159001 0.1143852 0.1130921 0.1120068 0.1111261 0.110446 0.1099689
 0.1096706 0.1095487 0.1095704 0.1097284 0.1100261 0.1104623 0.111065 0.1118353 0.1127807 0.1138987
 0.1151653 0.1165773 0.118105 0.1197476 0.1214863 0.123323 0.125251 0.1272767 0.1294059 0.1316456
 0.1340062 0.1364866 0.1390905 0.1418098 0.1446404 0.1475805 0.150626 0.1537892 0.1570743 0.1604781
 0.164008 0.1675935 0.1712321 0.1748142 0.1783349 0.1817498 0.1850595 0.1882723 0.1913641 0.1942214
 0.1968039 0.1988957 0.2005367 0.2016896 0.2024528 0.2029663 0.2032742 0.203483 0.203576 0.2035688
 0.2034542 0.2032287 0.2029022 0.2024813 0.2019523 0.201313 0.200552 0.1996625 0.1986839 0.1976203
 0.1964747 0.1952469 0.1938893 0.1924023 0.1907711 0.1890024 0.1871258 0.1851438 0.1830931 0.1809413
 0.1786661 0.1761602 0.1732519 0.1698675 0.1657763 0.1612359 0.1563399 0.151367 0.1465456 0.1417669
 0.1370362 0.1322624 0.1273896 0.1225851 0.1178588 0.1134068 0.1092552 0.1053822 0.1017862 0.09831902
 0.09497902 0.0916944 0.08847973 0.08537868 0.08239838 0.07959306 0.07694225 0.07443107 0.07202973 0.06968456
 0.06738184 0.06508978 0.06279603 0.06049543 0.05813541 0.05569096 0.05311476 0.05034122 0.04755575 0.04476245
 0.04227629 0.04017415 0.03839431 0.03694829 0.03558105 0.03428067 0.03293133 0.03154178 0.03017491 0.02884286
 0.02765098 0.0265854 0.02565241 0.02483959 0.02411107 0.02349036 0.02299427 0.02265545 0.02252329 0.02259243
 0.02287976 0.02335598 0.02401096 0.02482152 0.02577753 0.02686469 0.02807205 0.02942598 0.03092014 0.03265624
 0.03464548 0.03693121 0.03951382 0.042132 0.04476313 0.04704535 0.04899764 0.05053731 0.05170443 0.05259291
 0.05321986 0.05366289 0.0539395 0.05409455 0.05418237 0.05426325 0.05442131 0.05475168 0.05525671 0.05599761
 0.05681726 0.05766929 0.05845907 0.05913742 0.05976894 0.06035341 0.06097665 0.06164868 0.06239156 0.06320655
 0.06405304 0.06492922 0.06579737 0.0666649 0.06755042 0.06846996 0.06949146 0.07061747 0.07189979 0.07330172
 0.07478881 0.0763279 0.07785378 0.0793979 0.08095711 0.08258338 0.08431136 0.08614165 0.08808918 0.09011227
 0.09220021 0.09434188 0.09652933 0.09880219 0.101166 0.1036168 0.1061541 0.1086209 0.1110042 0.1130947
 0.1148969 0.1163302 0.1174079 0.1181404 0.1185192 0.1185329 0.1181628 0.1173665 0.116154 0.1145071
 0.1124783 0.1100932 0.1074186 0.1044944 0.1013675 0.09806005 0.09460807 0.09101196 0.08735982 0.08365427
 0.08004863 0.07655831 0.07327902 0.07021653 0.06733545 0.06463126 0.06203226 0.05954387 0.05716037 0.05489437
 0.05279332 0.05085114 0.04908473 0.04746448 0.04595287 0.04451935 0.04311498 0.04172334 0.04031419 0.03888916
 0.03743733 0.03597954 0.0345183 0.03308192 0.03167926 0.03031974 0.02900866 0.02772785 0.02647603 0.02523749
 0.02401127 0.02282276 0.02167603 0.02063238 0.01969342 0.01890215 0.01825152 0.0177394 0.01735854 0.01709053
 0.01693255 0.01687332 0.01690856 0.01703187 0.01723241 0.01750439 0.01782481 0.01818602 0.01854967 0.01890392
 0.01920719 0.01944786 0.01959711 0.01964853 0.01958713 0.0194102 0.01911742 0.01870856 0.01820724 0.01761638
 0.0169798 0.01630211 0.01563159 0.01497358 0.01437259 0.01383172 0.01338252 0.0130199 0.01275171 0.01256571
 0.01245102 0.01239793 0.01239549 0.01243778 0.01252079 0.01263414 0.01277602 0.01292704 0.01308341 0.01322485
 0.0133472 0.01344032 0.01350201 0.01353765 0.01354739 0.01354596 0.01353385 0.01352118 0.01350698 0.01349054
 0.01347033 0.01344062 0.01340006 0.01334305 0.01326773 0.01316802 0.01304441 0.01289339 0.01272131 0.01253104
 0.01233099 0.01212678 0.01192255 0.01172119 0.01152385 0.01133084 0.01114512 0.01096663 0.01080174 0.01065062
 0.01052381 0.01042191 0.01035602 0.01032607 0.01033374 0.01037732 0.01044624 0.0105402 0.01065074 0.01078239
 0.01094123 0.01113337 0.01137306 0.0116605 0.0120039 0.01239435 0.01282947 0.01329482 0.01378272 0.01428026
 0.01478082 0.01527745 0.01576698 0.0162475 0.01671833 0.01717857 0.01762825 0.01806451 0.01848724 0.0188878
 0.01926538 0.01960574 0.01990861 0.020164 0.02037446 0.02054403 0.02067573 0.02078087 0.02085657 0.02090507
 0.02091731 0.02088299 0.02079664 0.02064811 0.02044264 0.02017908 0.01986774 0.01951284 0.01911898 0.01868888
 0.01822032 0.0177132 0.01716616 0.0165786 0.01595565 0.01529752 0.01461446 0.01390721 0.01318838 0.01245876
 0.01172996 0.01100173 0.01027983 0.009562456 0.008847632 0.008134689 0.007420448 0.006708002 0.00599907 0.005298539
 0.004611269 0.003939556 0.003286797 0.002650818 0.002032169 0.001425929 0.0008308062 0.0002438105 -0.000336668 -0.0009055143
 -0.001462908 -0.001997621 -0.002508976 -0.002988627 -0.003436476 -0.003850824 -0.004231558 -0.004577348 -0.004887273 -0.005156857
 -0.005385657 -0.005570064 -0.005710666 -0.005806594 -0.00585925 -0.005869819 -0.005839895 -0.005771668 -0.00566454 -0.005520166
 -0.005332508 -0.005100641 -0.004815423 -0.004474038 -0.004071664 -0.00360603 -0.003081867 -0.002498407 -0.001872047 -0.001203554
 -0.0005177057 0.0001843569 0.0008816674 0.001574668 0.002255882 0.00292693 0.003590056 0.00424654 0.004900201 0.005552964
 0.006209893 0.006872309 0.007545373 0.008224837 0.008910266 0.009593268 0.01026894 0.01093148 0.01157795 0.01220335
 0.01280691 0.01337971 0.01392011 0.0144216 0.01488248 0.01530864 0.01570013 0.01607347 0.01642998 0.01679307
 0.01716487 0.0175719 0.01801473 0.01851091 0.01905741 0.01965475 0.02030132 0.0209927 0.02173332 0.02252746
 0.0233771 0.02428908 0.02525167 0.02626377 0.0273017 0.02835777 0.02940722 0.03044206 0.03144625 0.0324145
 0.03334683 0.03424156 0.03511368 0.03596397 0.03680873 0.03764821 0.03848723 0.03932414 0.04015052 0.04096309
 0.04174443 0.04249171 0.04318723 0.04383343 0.04442428 0.04496918 0.04547536 0.04595657 0.04642487 0.04689665
 0.04738431 0.04789973 0.04845392 0.04903833 0.04965665 0.05027935 0.05090168 0.05150206 0.05207556 0.05263204
 0.05317134 0.05372462 0.05429319 0.05490198 0.05554903 0.05623399 0.05695033 0.0576727 0.05839296 0.05907774
 0.05971981 0.06029326 0.06078781 0.06118257 0.06146419 0.06161178 0.06162537 0.06149239 0.06124095 0.06087393
 0.06043712 0.05994114 0.05942967 0.058911 0.05842071 0.05796339 0.05756576 0.05723006 0.05696837 0.05678059
 0.05666263 0.05661257 0.05661541 0.05666814 0.05675079 0.05686067 0.05698033 0.05710865 0.05723661 0.05736134
 0.05747776 0.05757746 0.0576527 0.05769324 0.05769071 0.05763913 0.05753365 0.05737346 0.05715642 0.05688814
 0.05656817 0.05620875 0.05581078 0.05538766 0.05494023 0.05448124 0.05401156 0.05354828 0.05309217 0.05265871
 0.05224501 0.05184892 0.05146331 0.05106829 0.05065744 0.05020981 0.04972168 0.04918053 0.04858308 0.047923
 0.04719632 0.04640016 0.04552769 0.04457628 0.04353761 0.04240775 0.04118684 0.03987244 0.03847861 0.03700587
 0.03547332 0.033882 0.03225368 0.03059012 0.02892526 0.02726202 0.02563959 0.02405798 0.02253903 0.02107901
 0.01967824 0.01833474 0.01704417 0.01580792 0.01462618 0.01350003 0.01243105 0.01141807 0.01046202 0.009557327
 0.008703418 0.007889507 0.007112745 0.006363978 0.005640367 0.004941117 0.004265614 0.0036163 0.002993327 0.002397446
 0.001828845 0.001291508 0.0007861789 0.0003208789 -0.000104256 -0.0004843052 -0.000819814 -0.001109547 -0.001354615 -0.001554955
 -0.00171577 -0.001841813 -0.001943412 -0.002030717 -0.00211372 -0.00220123 -0.002299974 -0.002414338 -0.002549888 -0.002709451
 -0.002894178 -0.003105483 -0.003338182 -0.003591823 -0.003862521 -0.00414998 -0.004452104 -0.004768396 -0.005087492 -0.005407549
 -0.005707951 -0.005988142 -0.006234206 -0.006447928 -0.006627624 -0.006774161 -0.006888741 -0.006970851 -0.007019734 -0.007036542
 -0.00702115 -0.00697754 -0.006907786 -0.006816193 -0.006705868 -0.006576292 -0.006429289 -0.006256694 -0.006057083 -0.005824676
 -0.005557081 -0.005266062 -0.004951613 -0.004642297 -0.00433969 -0.004073441 -0.003844347 -0.003672687 -0.003557074 -0.003504038
 -0.003508016 -0.003557593 -0.003645633 -0.00375152 -0.00387462 -0.004004429 -0.004145786 -0.004301639 -0.004469558 -0.0046523
 -0.004835085 -0.005013704 -0.005170836 -0.005300473 -0.005391753 -0.005440628 -0.005447245 -0.005410047 -0.005341584 -0.005242506
 -0.005127376 -0.004996459 -0.00484857 -0.00468207 -0.004481455 -0.004246947 -0.00396961 -0.003654646 -0.003311121 -0.002947045
 -0.002582604 -0.002222606 -0.001884075 -0.001562546 -0.001262068 -0.000970196 -0.0006789804 -0.0003830773 -7.474636E-05 0.0002336827
 0.0005410926 0.0008317726 0.00110039 0.001349761 0.001578073 0.001804796 0.002031337 0.002270595 0.002522673 0.002779932
 0.003040859 0.003288154 0.003522469 0.003736587 0.003934682 0.004125067 0.00431173 0.004506964 0.004711736 0.004932615
 0.005168904 0.005422701 0.00569147 0.0059756 0.006267863 0.006566112 0.006861127 0.007149419 0.007426389 0.007689983
 0.007941446 0.008180103 0.008412812 0.008639677 0.008874584 0.009118282 0.009385712 0.009676283 0.009991768 0.0103292
 0.01067578 0.01102869 0.01137287 0.01170741 0.01202303 0.01232099 0.01259744 0.01285924 0.01310898 0.01336093
 0.01362496 0.01391199 0.01423258 0.0145792 0.01495496 0.01533584 0.01571795 0.01608066 0.01641997 0.01673118
 0.01701324 0.01727226 0.0175087 0.01773415 0.0179504 0.01817835 0.01841977 0.01869703 0.01900507 0.0193435
 0.01969908 0.02004425 0.02037013 0.02064918 0.02088756 0.02107825 0.02123885 0.02137685 0.02151347 0.02165925
 0.02183178 0.02204069 0.02228626 0.02257323 0.02287953 0.02320364 0.0235207 0.02382813 0.02411955 0.0243949
 0.02466354 0.02492614 0.02519278 0.02546322 0.02574142 0.02602695 0.02631992 0.02662159 0.02693431 0.02725996
 0.0276046 0.02796227 0.02833258 0.02869952 0.02905068 0.02937978 0.02967542 0.02995766 0.03022851 0.03051421
 0.03082325 0.03115648 0.03151735 0.03188236 0.03225025 0.03259595 0.03291836 0.033205 0.03345697 0.03367907
 0.03387491 0.0340644 0.03425125 0.03445799 0.03468468 0.0349441 0.03523022 0.03554207 0.03586742 0.03619345
 0.03651208 0.03680966 0.03709731 0.03737473 0.03766093 0.03796584 0.03828344 0.03861741 0.03893947 0.03924517
 0.0395235 0.03977203 0.04000838 0.04023353 0.04047062 0.04072073 0.04100259 0.04131703 0.04167957 0.04208792
 0.04254372 0.04304285 0.04357577 0.04414364 0.0447448 0.04537886 0.04605014 0.04674122 0.04744639 0.04813478
 0.04879272 0.04939006 0.04991428 0.05034672 0.05067743 0.0509196 0.05106935 0.05117927 0.05125274 0.05134171
 0.05144852 0.05159039 0.05176698 0.05198077 0.05223243 0.0525292 0.05286796 0.05324513 0.05365141 0.05406617
 0.05447986 0.05487122 0.05522992 0.05553867 0.05578826 0.05596267 0.05607265 0.05611372 0.0561188 0.05609731
 0.05607482 0.05605969 0.05605924 0.0560747 0.05611679 0.05618624 0.05629656 0.05644828 0.05663998 0.05687105
 0.05713425 0.05742943 0.05775419 0.05810503 0.05847068 0.05884501 0.05920889 0.05955959 0.05988429 0.06018413
 0.0604497 0.06070199 0.06093716 0.06122759 0.06159987 0.06213799 0.06290568 0.06381015 0.06486598 0.06583778
 0.06667881 0.06736124 0.06787283 0.06831992 0.06870701 0.06907715 0.06942733 0.06973784 0.07000589 0.07020804
 0.07034314 0.07039516 0.07036443 0.07023892 0.07003263 0.06975853 0.06943714 0.0690979 0.06874465 0.06839124
 0.06802969 0.06765783 0.06727498 0.06687856 0.06647739 0.06607032 0.06568006 0.06530796 0.0649868 0.06472053
 0.06451644 0.06437465 0.06425772 0.06416224 0.06403743 0.06388221 0.06366362 0.0633848 0.06303418 0.0626254
 0.06217805 0.06171592 0.06128778 0.06089868 0.06057893 0.06030553 0.06006838 0.05985726 0.05966365 0.05948609
 0.05932833 0.05916126 0.05897665 0.05876562 0.0585188 0.05829467 0.05809752 0.0579747 0.05792843 0.05793265
 0.05798621 0.05806516 0.0581757 0.05834421 0.05856996 0.05886896 0.05922623 0.05961722 0.06002575 0.0604172
 0.06077848 0.061081 0.06132331 0.06148788 0.06160348 0.06167624 0.06174464 0.06182711 0.06193031 0.06206206
 0.06220386 0.06235416 0.06249764 0.06263309 0.06274519 0.06283307 0.06288198 0.06289265 0.06286951 0.06281439
 0.06273988 0.06264643 0.06253809 0.06242376 0.06232271 0.06225012 0.06224395 0.06229746 0.0624244 0.06259437
 0.06278907 0.0629854 0.06316902 0.06331851 0.06342706 0.06346403 0.0634148 0.06329551 0.06309871 0.0629077
 0.06272994 0.06262115 0.06258442 0.06258128 0.06260707 0.06259103 0.06253491 0.0624108 0.06222853 0.06200581
 0.06175373 0.0615083 0.06127119 0.06106516 0.06087597 0.06069456 0.06051474 0.06032152 0.06013792 0.05997403
 0.05984036 0.05975298 0.05966902 0.05958319 0.05944943 0.05925547 0.05900912 0.05870862 0.05838512 0.05804026
 0.05768276 0.0573125 0.05692868 0.05653329 0.05613757 0.0557446 0.05537147 0.05501926 0.05470086 0.05441092
 0.05414653 0.0539028 0.05366664 0.0534555 0.05327579 0.05315135 0.05310817 0.05311545 0.05317786 0.0532213
 0.0532213 0.05316896 0.05305026 0.05294449 0.05285928 0.05283038 0.05286017</values></Ydata></AB><ScSm><Ydata ylabel="Single channel"><values byteorder="INTEL" format="FLOAT32" numvalues="1814"> 0.07049395 0.07050555 0.07057516 0.07072401 0.07093049 0.07113854 0.07129437 0.07138103 0.07140873 0.07138164
 0.07130885 0.07124811 0.07129012 0.07147259 0.07172736 0.07192598 0.07198019 0.07191854 0.07187167 0.07194508
 0.07207911 0.07206327 0.07173376 0.07116103 0.07060646 0.07028079 0.07021043 0.07038861 0.07090454 0.0716971
 0.0722788 0.07208532 0.07118591 0.07031369 0.07005356 0.07028082 0.07050293 0.07042742 0.07005462 0.06956314
 0.06935413 0.06994599 0.07146905 0.07324259 0.07401551 0.07275653 0.06939249 0.06504296 0.06160372 0.0607291
 0.06266799 0.06593028 0.06840423 0.06904118 0.06836087 0.06738544 0.06653866 0.06577443 0.06528823 0.06555823
 0.06668368 0.06793791 0.06814498 0.06668508 0.06422836 0.06225809 0.0617196 0.06242972 0.0638667 0.06574261
 0.06719734 0.06633796 0.06209481 0.05657892 0.05414715 0.05726261 0.06386818 0.06940036 0.0708518 0.0684597
 0.06438532 0.06091806 0.05961562 0.06088471 0.06389822 0.06728168 0.06995095 0.07117429 0.07038929 0.06768486
 0.06428036 0.06193819 0.06188192 0.06431642 0.06838477 0.07224182 0.07388842 0.0726479 0.06962059 0.06651948
 0.06453562 0.06433487 0.06623153 0.06986311 0.07416804 0.07799862 0.08058908 0.08163324 0.08134882 0.0803388
 0.0791323 0.07809804 0.07776497 0.07849552 0.07963203 0.07974664 0.07819392 0.07597016 0.07468654 0.07490267
 0.07568035 0.07572767 0.0747086 0.07303603 0.07059383 0.06670511 0.06168297 0.05725446 0.05483535 0.05444338
 0.05571898 0.05849038 0.06158032 0.06272621 0.06105702 0.058683 0.05860759 0.06152236 0.06544777 0.06814768
 0.06919765 0.06983022 0.07134652 0.07378586 0.07575515 0.07547712 0.07254988 0.06894314 0.06761076 0.06959618
 0.0730283 0.07542253 0.07630253 0.07695048 0.07816243 0.0790176 0.07783625 0.07417236 0.06990008 0.06806312
 0.07022579 0.07490891 0.0786642 0.07863671 0.0744902 0.06847785 0.06367821 0.06186461 0.06302448 0.06652792
 0.07182256 0.077829 0.0826553 0.08465794 0.08364592 0.08077729 0.0772403 0.07316329 0.06823827 0.06352928
 0.06170192 0.06450896 0.07055227 0.07644279 0.07982668 0.08057131 0.07945909 0.07673868 0.07231767 0.0671239
 0.0635713 0.06370303 0.06674179 0.06951129 0.0697595 0.06821804 0.06699145 0.06692053 0.06725465 0.06725746
 0.06725653 0.06807496 0.06985369 0.07172746 0.07266317 0.0724044 0.07151983 0.07073411 0.07027334 0.06970877
 0.06856099 0.06724393 0.06703545 0.06868289 0.07137908 0.07359132 0.07460339 0.07478682 0.07458965 0.07375562
 0.07170719 0.06864004 0.06598069 0.0653355 0.06693603 0.06948856 0.0715256 0.07246888 0.07248847 0.07196566
 0.07123267 0.07046725 0.06975191 0.06931512 0.06947763 0.0702033 0.07098623 0.07135942 0.07128175 0.07092354
 0.07033877 0.06951126 0.06857598 0.06783751 0.06755772 0.06775756 0.06823942 0.06876372 0.06913829 0.06919672
 0.0688618 0.06826137 0.06764648 0.06716326 0.06680705 0.06658398 0.06656754 0.06676142 0.06702228 0.06717813
 0.06716594 0.06702231 0.0667935 0.06649915 0.06616074 0.06583317 0.06560178 0.06552951 0.06558448 0.06565174
 0.06565864 0.06564772 0.0656708 0.06566554 0.06552214 0.06523986 0.06493865 0.06473034 0.0646338 0.06459926
 0.06455871 0.06444125 0.06418143 0.06377168 0.06332612 0.06304044 0.0630379 0.0632766 0.06362221 0.06395382
 0.06418188 0.06425298 0.06419118 0.06407826 0.06395651 0.06379254 0.06355499 0.06329442 0.06312967 0.06315564
 0.0633554 0.06360921 0.06379803 0.0638801 0.06387424 0.06382666 0.0638022 0.06384012 0.06389575 0.06387983
 0.06377003 0.06364231 0.06358495 0.06360985 0.06365058 0.06363717 0.06357406 0.06353503 0.06357431 0.06366672
 0.06374969 0.06379669 0.06382876 0.06386986 0.06390478 0.0638843 0.06378288 0.06364493 0.06354491 0.06350575
 0.06349424 0.06349236 0.06352596 0.06361236 0.0637157 0.06377544 0.06376776 0.06372444 0.06368825 0.06365932
 0.06360134 0.06349775 0.06337845 0.0632851 0.06322961 0.06319396 0.06315553 0.06310292 0.06303512 0.06295484
 0.06286448 0.06276496 0.06265365 0.06252854 0.0624035 0.06231266 0.06228058 0.06228597 0.06227066 0.06219314
 0.06206819 0.0619484 0.06186983 0.06182151 0.06177111 0.06171003 0.06166 0.0616405 0.06164835 0.0616692
 0.06169203 0.0617122 0.06173965 0.06180866 0.06195747 0.0621827 0.06242461 0.06261483 0.06273675 0.06282897
 0.06293584 0.0630696 0.06321809 0.0633729 0.0635445 0.06375153 0.06399018 0.06421845 0.0643907 0.06451075
 0.06463011 0.06479259 0.06500234 0.0652415 0.06548484 0.06569648 0.06585009 0.06596513 0.0660961 0.06627455
 0.06648029 0.06667686 0.0668555 0.06703367 0.0672266 0.0674376 0.06767108 0.067939 0.06824876 0.06858779
 0.06892129 0.06921032 0.06944396 0.06965943 0.0699202 0.070263 0.07066672 0.07107428 0.07144109 0.07176383
 0.07206997 0.07238423 0.07270873 0.07303956 0.07339184 0.07378899 0.07422768 0.07467361 0.07509755 0.07550097
 0.07590189 0.07630968 0.07672144 0.07713459 0.07755405 0.07798533 0.07842105 0.07883942 0.07922262 0.07957621
 0.07992592 0.08029768 0.08070175 0.08112447 0.08152682 0.08186792 0.08214986 0.08242952 0.08276083 0.0831309
 0.08347963 0.0837816 0.08407602 0.08440798 0.08477191 0.08513309 0.0854811 0.08583698 0.08621563 0.08659875
 0.08694287 0.08721024 0.08740083 0.08755761 0.08773364 0.08795702 0.08823445 0.08857134 0.08896181 0.08936727
 0.0897339 0.09003251 0.09026638 0.09045289 0.0906207 0.09081031 0.09104829 0.09132318 0.09160067 0.09184986
 0.09204996 0.09220094 0.09234491 0.09254719 0.09283368 0.09316918 0.09351382 0.09387146 0.09425937 0.09466074
 0.09504595 0.09542568 0.09583969 0.09628868 0.09671266 0.09705082 0.0972963 0.09747949 0.09763085 0.09778616
 0.09799995 0.09831252 0.09870746 0.0991266 0.09952216 0.0998776 0.1001886 0.1004489 0.1006579 0.1008294
 0.1009855 0.1011449 0.1013175 0.1015108 0.1017366 0.1019999 0.1022796 0.1025317 0.1027163 0.1028116
 0.1028026 0.1026785 0.1024584 0.1021976 0.101941 0.1016721 0.101324 0.1008423 0.1002189 0.09947017
 0.09860609 0.09763575 0.09659494 0.09555604 0.09460886 0.09383221 0.09328233 0.09300372 0.09303689 0.09339444
 0.09401904 0.09477263 0.09547684 0.0959677 0.09612669 0.0958942 0.09528111 0.09436464 0.09325485 0.09205541
 0.09084478 0.08966804 0.08853215 0.08743006 0.08639853 0.08555345 0.08506014 0.08507843 0.08573926 0.08713086
 0.08924128 0.09188902 0.09474207 0.09745288 0.09980555 0.101758 0.1033796 0.1047732 0.1060312 0.1072106
 0.10832 0.1093383 0.1102541 0.111077 0.1118154 0.1124596 0.1129901 0.1133886 0.1136464 0.1137755
 0.1138158 0.1138238 0.1138533 0.1139388 0.114075 0.1141999 0.1142091 0.1140006 0.1135169 0.1127583
 0.1117785 0.1106949 0.1097334 0.1092642 0.1097182 0.1113524 0.1140303 0.1172493 0.1204178 0.1231349
 0.125272 0.1268893 0.1281246 0.1291176 0.1299684 0.1307305 0.1314303 0.132086 0.1327094 0.1333029
 0.1338654 0.1344011 0.1349232 0.1354446 0.1359636 0.1364642 0.1369357 0.1373886 0.1378492 0.1383367
 0.1388454 0.1393482 0.1398243 0.1402812 0.1407404 0.1412025 0.141644 0.1420503 0.1424367 0.1428334
 0.1432607 0.1437189 0.1441846 0.14462 0.1449994 0.1453321 0.1456512 0.145982 0.1463283 0.146684
 0.1470442 0.1474038 0.1477577 0.1481084 0.1484665 0.1488339 0.1491907 0.1495099 0.1497863 0.1500448
 0.1503173 0.150617 0.1509349 0.151253 0.151562 0.1518704 0.1521962 0.1525475 0.1529093 0.1532538
 0.1535645 0.1538511 0.154139 0.1544468 0.1547733 0.1551054 0.1554338 0.1557598 0.1560875 0.1564154
 0.1567356 0.1570415 0.1573342 0.1576205 0.1579066 0.1581984 0.1585025 0.1588219 0.1591525 0.1594887
 0.15983 0.1601735 0.1605045 0.1608043 0.1610706 0.1613213 0.161577 0.1618452 0.1621237 0.1624127
 0.162717 0.1630365 0.1633617 0.1636817 0.1639937 0.1643021 0.1646102 0.1649172 0.1652211 0.1655221
 0.1658237 0.166131 0.1664457 0.1667622 0.1670715 0.1673707 0.167666 0.1679671 0.168278 0.1685923
 0.1688961 0.1691792 0.1694461 0.1697108 0.169983 0.1702631 0.1705491 0.1708397 0.1711302 0.1714135
 0.171688 0.1719604 0.1722405 0.1725335 0.1728349 0.1731336 0.17342 0.1736921 0.1739557 0.1742213
 0.1744964 0.1747794 0.1750612 0.1753366 0.1756107 0.1758913 0.1761781 0.176462 0.1767345 0.1769957
 0.1772541 0.1775185 0.1777915 0.1780702 0.1783501 0.1786272 0.1788996 0.1791686 0.179437 0.1797068
 0.1799804 0.1802601 0.1805446 0.1808289 0.181109 0.1813843 0.1816572 0.1819308 0.1822041 0.1824715
 0.1827321 0.1829951 0.1832696 0.1835537 0.18384 0.1841227 0.1843955 0.1846541 0.1849009 0.185142
 0.1853809 0.1856207 0.185865 0.1861126 0.1863604 0.1866128 0.1868767 0.18715 0.1874247 0.1876966
 0.1879644 0.1882292 0.1884958 0.188767 0.1890398 0.189312 0.1895868 0.1898655 0.1901453 0.1904227
 0.1906924 0.1909485 0.1911958 0.1914495 0.1917171 0.1919943 0.1922756 0.1925575 0.1928358 0.1931091
 0.1933787 0.1936417 0.1938967 0.194152 0.1944156 0.1946843 0.1949523 0.1952187 0.1954826 0.1957445
 0.1960107 0.1962826 0.1965515 0.1968115 0.1970652 0.1973157 0.1975679 0.1978296 0.198099 0.198365
 0.1986258 0.1988894 0.1991551 0.1994188 0.1996837 0.1999469 0.200197 0.2004361 0.2006771 0.2009076
 0.2010688 0.2010223 0.2004515 0.1987405 0.1949483 0.1879938 0.1770933 0.1622605 0.1444736 0.1253245
 0.1064332 0.08902836 0.07382872 0.06114119 0.05102467 0.04339491 0.0380878 0.03496535 0.03402624 0.03551469
 0.0400414 0.04822661 0.05933302 0.07003978 0.07571965 0.07408547 0.06737752 0.0603236 0.05620798 0.05527668
 0.05613681 0.05758833 0.05924028 0.06130097 0.06414686 0.06789509 0.07237311 0.07757069 0.08386929 0.09155644
 0.1002333 0.1089768 0.117133 0.124831 0.132676 0.1410195 0.1495881 0.1577514 0.1650248 0.1713152
 0.1768235 0.1818199 0.1864892 0.1909122 0.1951237 0.1991174 0.2027582 0.2057406 0.2077333 0.2086326
 0.2086872 0.2083595 0.2080525 0.2079493 0.2080603 0.2083479 0.2087854 0.209359 0.2100611 0.210878
 0.2117738 0.2127017 0.2136277 0.214531 0.2153916 0.2161933 0.2169299 0.2175998 0.2182041 0.2187515
 0.2192563 0.219728 0.2201706 0.2205873 0.2209802 0.2213524 0.2217094 0.2220509 0.2223658 0.2226442
 0.2228919 0.2231269 0.2233647 0.2236098 0.2238543 0.2240853 0.2242971 0.2244967 0.224695 0.2248994
 0.2251153 0.2253448 0.2255818 0.2258154 0.2260417 0.2262649 0.2264885 0.2267103 0.226927 0.227139
 0.227353 0.2275757 0.2278051 0.2280301 0.228244 0.2284527 0.2286683 0.2288977 0.2291357 0.22937
 0.2295962 0.2298275 0.2300788 0.2303441 0.230605 0.230856 0.2311063 0.2313618 0.2316205 0.2318779
 0.232123 0.2323387 0.2325204 0.2326917 0.2328932 0.2331499 0.2334467 0.2337379 0.2339907 0.2342109
 0.2344232 0.2346397 0.2348572 0.2350691 0.2352775 0.2355042 0.2357777 0.2360947 0.2364134 0.2367023
 0.2369684 0.2372293 0.2374935 0.2377718 0.2380659 0.2383401 0.2385493 0.2387045 0.2388878 0.2391852
 0.2396015 0.2400466 0.2404193 0.2407017 0.2409539 0.2412367 0.241569 0.2419158 0.2421722 0.24223
 0.2421387 0.2421381 0.242444 0.2430362 0.2437117 0.2442947 0.244745 0.2451088 0.2454298 0.2457031
 0.2458853 0.2459473 0.2459418 0.246021 0.2463374 0.246889 0.2475035 0.248014 0.2483906 0.2486796
 0.2489153 0.2491221 0.2492701 0.2492038 0.2488027 0.2482911 0.2481897 0.2488097 0.2498986 0.2509097
 0.2515463 0.2519175 0.2522306 0.2525364 0.2527862 0.2528793 0.2525458 0.251501 0.2499999 0.2489921
 0.2493379 0.2509403 0.2529029 0.254424 0.2553029 0.2557418 0.2559989 0.256219 0.2563269 0.2560284
 0.2551385 0.2540261 0.2535259 0.254164 0.255564 0.2568513 0.2575484 0.2578275 0.2580401 0.2583247
 0.258517 0.2581031 0.2565059 0.2539328 0.251812 0.2517917 0.2541257 0.2573698 0.2598155 0.2609628
 0.2613874 0.261485 0.2608874 0.2591261 0.2563395 0.2532141 0.250761 0.2501677 0.252017 0.2553118
 0.2580371 0.2591417 0.2594266 0.2602249 0.2618114 0.2634016 0.2641756 0.2639154 0.2628698 0.2613044
 0.2593696 0.2575177 0.2567633 0.2579699 0.2608044 0.2638469 0.265904 0.2669162 0.2673464 0.2667993
 0.2637387 0.257336 0.2497902 0.2457265 0.2481131 0.2551535 0.2622172 0.2663985 0.2681102 0.2688999
 0.2693784 0.2690519 0.2666099 0.2606412 0.2518472 0.2444322 0.2432629 0.249059 0.2575818 0.2635935
 0.2644339 0.2603051 0.2533206 0.2468713 0.2442492 0.246656 0.2526742 0.259673 0.26539 0.2685467
 0.2688397 0.2668271 0.2638854 0.2618683 0.2617696 0.2622583 0.260683 0.2564232 0.2519296 0.2491319
 0.2464551 0.2417291 0.2369245 0.2368537 0.2429151 0.2507714 0.2552212 0.2554702 0.2542313 0.2527865
 0.248808 0.2397151 0.2275414 0.2190473 0.2197974 0.2283906 0.2377124 0.2418906 0.2409595 0.2388076
 0.2379858 0.237134 0.2329734 0.2246159 0.2157294 0.2114628 0.2129933 0.2164773 0.2176126 0.2151104
 0.2092161 0.2002621 0.1910495 0.1877657 0.1947639 0.2092027 0.2232581 0.2305643 0.2285568 0.2170705
 0.1991602 0.1828794 0.1773786 0.184753 0.1975251 0.2055268 0.2039886 0.194418 0.180221 0.1643134
 0.1504225 0.1435334 0.1468825 0.1586537 0.1721761 0.1793548 0.1751342 0.1613156 0.1467161 0.1408496
 0.1453975 0.15313 0.1560268 0.1525398 0.1464846 0.1419834 0.1410186 0.14326 0.1464997 0.1486667
 0.1495035 0.1484333 0.1423174 0.129313 0.1142422 0.1054945 0.1062706 0.1128892 0.1215744 0.1318113
 0.1418947 0.1466174 0.1431514 0.1364935 0.1352691 0.1425878 0.1533117 0.1602448 0.1612249 0.1595839
 0.1589163 0.1591294 0.1583011 0.1570504 0.1587045 0.1647362 0.1722163 0.177085 0.1783897 0.177949
 0.1772622 0.1763825 0.1749556 0.1728743 0.1701999 0.1672625 0.1645718 0.1622429 0.1598932 0.1572235
 0.1540359 0.1494653 0.142201 0.1324846 0.1233278 0.1182221 0.1175324 0.1186736 0.1198572 0.1211739
 0.1211983 0.1159242 0.1039929 0.09108623 0.08582411 0.09145458 0.1034365 0.1146365 0.1207729 0.1208038
 0.1148505 0.1044912 0.09470338 0.09235321 0.1006263 0.1160166 0.1321413 0.1452019 0.1543782 0.1588889
 0.1576065 0.1515041 0.1445496 0.141488 0.1450334 0.1546294 0.166495 0.1744614 0.1729903 0.16276
 0.1533352 0.1561104 0.172212 0.1904981 0.2000667 0.2013593 0.2017084 0.203909 0.2048286 0.2035624
 0.204682 0.2119423 0.2226861 0.2304328 0.2305909 0.2222797 0.2076112 0.1920247 0.1829268 0.1838998
 0.1907791 0.1962702 0.1970519 0.1934142 0.1849419 0.172271 0.1617002 0.1614331 0.1720481 0.185279
 0.1934278 0.1964046 0.1983422 0.2004499 0.1995741 0.1930278 0.1830735 0.1755369 0.1740532 0.176882
 0.1798615 0.1807977 0.1795805 0.1757598 0.1687939 0.1606506 0.1558255 0.1575011 0.1643492 0.1718545
 0.1764202 0.177664 0.1773125 0.1769841 0.1770798 0.1769541 0.1760692 0.1754927 0.177696 0.1838181
 0.1916956 0.198005 0.2020542 0.2060249 0.2115483 0.2174247 0.2210547 0.2212847 0.2195529 0.2186959
 0.2206988 0.2251018 0.2293169 0.2308232 0.2295556 0.228176 0.2296063 0.2342117 0.2397349 0.2438274
 0.2459625 0.246964 0.2476347 0.2480995 0.2477646 0.2458132 0.2424741 0.2397839 0.2401787 0.2440756
 0.2494337 0.2537934 0.2562048 0.2571465 0.2572653 0.2566696 0.255265 0.253361 0.2516991 0.250899
 0.2510304 0.2517482 0.2526662 0.2535296 0.2542087 0.2546904 0.2550412 0.2553235 0.2555746 0.2558427
 0.2561523 0.2564362 0.2565985 0.2566735 0.2568346 0.2571879 0.2576185 0.2579012 0.2579031 0.2575947
 0.2569184 0.2557896 0.2542347 0.2524063 0.2504158 0.2482619 0.2460294 0.2441201 0.2431464 0.2434914
 0.2449637 0.2469184 0.2487047 0.249993 0.2507681 0.2511655 0.2513604 0.2515141 0.2517223 0.2519922
 0.2522844 0.2525784 0.2528897 0.2532363 0.2536131 0.2540106 0.2544435 0.2549374 0.2554872 0.2560445
 0.2565427 0.2569334 0.2572089 0.2574018 0.257553 0.2576677 0.2576996 0.2575836 0.2572881 0.2568425
 0.2563192 0.2557842 0.2552499 0.2546706 0.2539839 0.2531531 0.2521569 0.2509565 0.249526 0.2479274
 0.2463086 0.2447901 0.2433804 0.2420137 0.2406273 0.2391791 0.2376393 0.2360042 0.2343014 0.2325607
 0.2307939 0.229004 0.2271968 0.2253793 0.2235547 0.2217212 0.2198699 0.2179866 0.2160568 0.2140658
 0.2119818 0.2097303 0.2071888 0.2042222 0.2007343 0.1966924 0.192126 0.1871325 0.1818784 0.1765676
 0.1713863 0.1664703 0.1619133 0.1577993 0.154222 0.151268 0.1489828 0.1473639 0.1463872 0.1460303
 0.1462753 0.1471004 0.148462 0.150268 0.1523713 0.1545953 0.1567708 0.1587694 0.1605409 0.1621367
 0.1636791 0.1652785 0.1669646 0.1686886 0.1703772 0.1719699 0.1734125 0.1746507 0.1756518 0.1764225
 0.1769918 0.1773926 0.1776661 0.1778671 0.1780459 0.1782292 0.1784241 0.1786389 0.1788971 0.1792298
 0.1796541 0.1801635 0.1807408 0.1813716 0.1820457 0.1827577 0.1835136 0.1843293 0.1852268 0.1862336
 0.1873772 0.18868 0.1901695 0.191891 0.1938921 0.1961904 0.1987552 0.2015022 0.2043016 0.2070098
 0.2095104 0.2117315 0.213638 0.2152219 0.2164968 0.2174919 0.2182468 0.2188058 0.2192061 0.2194743
 0.2196317 0.2196855 0.2196211 0.2194209 0.2190874 0.2186366 0.2180859 0.2174677 0.2168378 0.2162477
 0.2157159 0.2152338 0.2147902 0.2143862 0.2140342 0.2137352 0.213459 0.2131583 0.2128017 0.2123807
 0.2118918 0.2113223 0.210649 0.2098446 0.2088927 0.2077975 0.2065714 0.2052221 0.2037624 0.2022232
 0.2006482 0.199078 0.1975323 0.1959967 0.194434 0.1928105 0.1911032 0.1892902 0.1873688 0.1853871
 0.1834277 0.1815552 0.1797872 0.1781045 0.1764722 0.1748615 0.1732686 0.1717106 0.1702081 0.1687754
 0.1674184 0.1661308 0.164903 0.1637381 0.1626529 0.1616656 0.1607877 0.1600182 0.1593375 0.1587198
 0.1581528 0.1576391 0.1571903 0.1568315 0.1565878 0.1564432 0.1563285 0.1561706 0.1559446 0.1556727
 0.155388 0.1551064 0.1548248 0.1545364 0.1542388 0.1539185 0.1535334 0.1530154 0.152285 0.1512678
 0.1499259 0.1482837 0.1464175 0.1444338 0.142466 0.1406564 0.1391026 0.1378266 0.1368005 0.13598
 0.1353158 0.1347693 0.1343361 0.1340462 0.133931 0.1339695 0.1340558 0.1340536 0.1339221 0.1337686
 0.1337529 0.1339611 0.1343717 0.1348904 0.1354011 0.1358202 0.1361203 0.1363017 0.1363639 0.1363148
 0.1361702 0.1359369 0.1356208 0.1352451 0.1348366 0.1344047 0.1339391 0.1334112 0.1327896 0.1320759
 0.1313013 0.1304761 0.1295812 0.1286008 0.1275145 0.1262942 0.1249895 0.123796 0.1229659 0.1226484
 0.1228169 0.1233031 0.123907 0.1245178 0.1250855 0.1254663 0.1254646 0.1251715 0.1251318 0.1259514
 0.1277049 0.1298339 0.1316317 0.1327359 0.1331561 0.1330154 0.1324102 0.1314157 0.130049 0.1282595
 0.1260467 0.123524 0.120822 0.1180522 0.1153709 0.1129406 0.1108379 0.109079 0.1076666 0.1066441
 0.106136 0.1058254 0.1040612 0.09871148 0.09041691 0.08407272 0.08472303 0.09190165 0.09995277 0.1040358
 0.1040011 0.1024125 0.1010474 0.1001951 0.09979114 0.09995674 0.1007665 0.1020578 0.1034761 0.1046691
 0.1054893 0.1059578 0.1060235 0.1053775 0.1034073 0.09939859 0.09311526 0.08531645 0.07749648 0.07101057
 0.06647512 0.06379455 0.06245168 0.06180908 0.06142353 0.06124047 0.06149564 0.06242441 0.06406507 0.06630285
 0.0689944 0.07193596 0.07477105 0.07713701 0.07894876 0.08038594 0.08157712 0.08244403 0.08286516 0.08284594
 0.08249985 0.08196045 0.08133283 0.08066294 0.07991461 0.07900463 0.07792659 0.0768593 0.0760726 0.07567978
 0.07555913 0.07554155 0.07556084 0.07559745 0.07561205 0.07558252 0.07552998 0.07551115 0.07562492 0.07595707
 0.07646403 0.07697475 0.07733886 0.07753166 0.07762133 0.07765152 0.07753657 0.07713693 0.07651596 0.07597648
 0.07566428 0.07528941 0.07449675 0.07341591 0.0725878 0.07237864 0.07265353 0.07300194 0.07312125 0.07297777
 0.07275313 0.07272027 0.07306333 0.07367124</values></Ydata></ScSm><ScRf><Ydata ylabel="Single channel"><values byteorder="INTEL" format="FLOAT32" numvalues="1820"> 0.06071465 0.06087085 0.0609667 0.06100688 0.06101577 0.06103275 0.0611009 0.06124186 0.0614348 0.06162245
 0.06174901 0.06180007 0.06179734 0.06175891 0.0616945 0.06164432 0.0616794 0.06183341 0.06205042 0.06221921
 0.0622637 0.0622116 0.06217698 0.06224623 0.06236009 0.06233334 0.06202892 0.06151564 0.06102405 0.06073646
 0.06067546 0.06083628 0.06129576 0.06199694 0.06251158 0.06234581 0.06155809 0.06078614 0.06054072 0.0607173
 0.0608931 0.06081939 0.06049751 0.06007829 0.05990574 0.0604286 0.06175783 0.06329624 0.06395192 0.06283022
 0.05987531 0.0560707 0.05307363 0.05232556 0.0540375 0.05690284 0.05907564 0.05963941 0.05904684 0.05819172
 0.05744891 0.05678049 0.05635225 0.05657534 0.05753746 0.0586108 0.05877237 0.05748188 0.05532925 0.05361593
 0.05316502 0.05380443 0.05506678 0.05669652 0.05794635 0.05717475 0.05346378 0.04866589 0.04657734 0.04932945
 0.05511154 0.05993766 0.06119013 0.05908913 0.0555361 0.05253529 0.05143241 0.05255689 0.05517453 0.0580973
 0.06039784 0.0614455 0.06074993 0.05839115 0.05543443 0.05341148 0.05338094 0.05551569 0.05906451 0.06241628
 0.06383198 0.06273084 0.06007808 0.05736645 0.05563263 0.05545906 0.05712307 0.06030922 0.0640891 0.06745649
 0.06973605 0.07065418 0.07040201 0.06951693 0.06847237 0.06758885 0.06731389 0.06795189 0.06893058 0.06901541
 0.06765328 0.06571546 0.06460311 0.06479929 0.06548344 0.06552845 0.06464166 0.06318387 0.06105307 0.05765662
 0.0532674 0.04939488 0.04727803 0.04693934 0.04807735 0.05054777 0.05330729 0.05435304 0.0529108 0.05083274
 0.05075979 0.05330663 0.05674428 0.05911434 0.0600439 0.06061345 0.06196252 0.06411979 0.06585664 0.0656134
 0.06304665 0.05989881 0.05876765 0.06055578 0.06360202 0.06572638 0.06653284 0.0671616 0.06829916 0.06911235
 0.06811826 0.06494524 0.06126889 0.05977023 0.06179858 0.06602053 0.06938855 0.0693948 0.06576009 0.06049557
 0.05633548 0.05484361 0.05600226 0.05926526 0.06416082 0.06972931 0.07426438 0.07626589 0.07552867 0.07307667
 0.06999341 0.06641777 0.06208491 0.05797394 0.05652448 0.05933204 0.06509929 0.07071181 0.07401812 0.0749054
 0.07408243 0.07174353 0.06777753 0.06307567 0.0599598 0.06037471 0.06354479 0.06641436 0.06684733 0.06557485
 0.06462432 0.06479025 0.06533619 0.06555623 0.06579007 0.06685373 0.06887689 0.07099393 0.07218057 0.07218289
 0.07156383 0.07104434 0.07084398 0.07052037 0.069598 0.06853028 0.0686349 0.0706497 0.07371484 0.07625446
 0.07755209 0.07800587 0.07807276 0.07746071 0.07554553 0.07254252 0.06998932 0.06960943 0.07164611 0.07470468
 0.0771997 0.07849789 0.07878067 0.07847168 0.07794601 0.07740562 0.0769407 0.07679137 0.07729219 0.07839127
 0.07953468 0.08022162 0.08041591 0.08029528 0.07989575 0.07919261 0.07836194 0.07777728 0.07774004 0.07825695
 0.07908849 0.07996102 0.08066037 0.08099289 0.08085559 0.08038606 0.07988453 0.07954246 0.07936966 0.07937583
 0.079639 0.08014411 0.08070183 0.08110583 0.08129615 0.08133033 0.08126605 0.08112077 0.08091356 0.08071381
 0.08063967 0.08077372 0.08106044 0.08134411 0.0815502 0.08175883 0.08203568 0.08227235 0.08229835 0.08210764
 0.08187638 0.0817721 0.08181842 0.08193614 0.08203679 0.08204181 0.08187132 0.08151124 0.08110859 0.08091679
 0.08109315 0.08158877 0.08223976 0.08288286 0.08337804 0.0836404 0.08370531 0.08368807 0.08364721 0.08354276
 0.08334118 0.08311473 0.08302118 0.08318686 0.08359329 0.0840814 0.08448066 0.08471902 0.0848207 0.08486565
 0.08495727 0.08514278 0.08533843 0.08540724 0.08533201 0.08524726 0.08528025 0.08541034 0.08550744 0.08548529
 0.08539793 0.08538206 0.08551201 0.08573297 0.08594108 0.08609994 0.08625837 0.08646339 0.08666962 0.08675519
 0.08665255 0.0864459 0.08628945 0.08624172 0.08624701 0.08627278 0.08637314 0.08658309 0.08682239 0.0869659
 0.0869846 0.08696844 0.08700716 0.08708209 0.08709452 0.08698308 0.08678943 0.08661496 0.0865377 0.08656858
 0.08665925 0.08673643 0.08674316 0.08666869 0.08654713 0.08642557 0.08633421 0.08629221 0.08633421 0.08649802
 0.08675955 0.08699527 0.08705229 0.08688137 0.08659297 0.08636454 0.08628482 0.08628944 0.08624417 0.08607732
 0.08582665 0.08557799 0.08538587 0.08525164 0.08515042 0.08506496 0.08500837 0.08502357 0.08513781 0.08529727
 0.0853712 0.0852612 0.08500309 0.08473226 0.08455735 0.08449239 0.08448848 0.08449173 0.08448435 0.08449972
 0.0845781 0.08468899 0.08473663 0.08466852 0.08454191 0.08446467 0.08450898 0.08468291 0.08492488 0.08511312
 0.08514487 0.08503659 0.08491035 0.08486843 0.08491436 0.08499703 0.0850857 0.08518046 0.08528177 0.08538366
 0.08549392 0.08563942 0.08584194 0.08608982 0.08633558 0.08652598 0.08664715 0.08674715 0.08690491 0.08716434
 0.08749554 0.08782056 0.08807712 0.08826265 0.08842283 0.08859888 0.08879307 0.08899343 0.08921513 0.08948779
 0.08980785 0.09013527 0.09044014 0.09072733 0.09101405 0.09130582 0.09160113 0.09191018 0.09226178 0.09267794
 0.093127 0.09351812 0.09377302 0.09390495 0.09401277 0.09420473 0.09452701 0.09492907 0.09528209 0.09547752
 0.09554297 0.09562628 0.09583232 0.09611389 0.09636474 0.09658069 0.0968639 0.09727535 0.0977414 0.09812559
 0.09836472 0.09851409 0.09867132 0.09887079 0.09905986 0.099177 0.09923581 0.09930851 0.09943753 0.09960799
 0.09981547 0.1001059 0.100508 0.1009613 0.1013572 0.1016377 0.1018225 0.1019596 0.1020798 0.102185
 0.1022542 0.1022747 0.102279 0.1023236 0.1024176 0.1025076 0.1025535 0.1025846 0.1026578 0.1027968
 0.1030007 0.1032733 0.1036011 0.1039266 0.1041996 0.1044513 0.10476 0.1051286 0.1054472 0.1056151
 0.1056558 0.1056689 0.1057051 0.1057516 0.1058193 0.1059672 0.1062267 0.1065554 0.1068911 0.1072169
 0.1075538 0.1079073 0.1082382 0.1084812 0.1085926 0.1085888 0.1085424 0.1085427 0.1086526 0.108884
 0.1091957 0.1095184 0.1097948 0.1099945 0.1100962 0.1100913 0.1100262 0.1100085 0.1101196 0.1103188
 0.1104661 0.1104417 0.1102209 0.1098382 0.1093228 0.1086963 0.1080091 0.1073484 0.1068013 0.1064135
 0.1061939 0.1061574 0.1063476 0.106791 0.1074308 0.1081366 0.1087847 0.1092977 0.1096037 0.1096141
 0.1092893 0.1086996 0.1079828 0.1072558 0.1065787 0.1059636 0.1053835 0.1048063 0.1042724 0.1039346
 0.1039895 0.1045579 0.1056215 0.1070359 0.1085819 0.1100374 0.1112591 0.1122297 0.1130257 0.1137348
 0.1144034 0.1150546 0.1157169 0.1164021 0.1170692 0.1176518 0.1181276 0.1185355 0.1189222 0.1192972
 0.1196388 0.1199227 0.1201477 0.1203474 0.1205567 0.1207564 0.1208755 0.1208692 0.1207702 0.1206422
 0.1205078 0.1203359 0.1200794 0.1197137 0.1192699 0.1188618 0.1186724 0.1188776 0.1195456 0.1205945
 0.1218543 0.1231746 0.1244645 0.1256421 0.1266038 0.1272842 0.1277225 0.1280324 0.1283123 0.1286019
 0.128903 0.1292074 0.1295072 0.1297984 0.1300846 0.1303776 0.1306925 0.131033 0.1313741 0.1316728
 0.1319112 0.1321276 0.1323918 0.1327409 0.1331407 0.1335184 0.1338388 0.1341355 0.1344519 0.1347704
 0.1350313 0.1352151 0.1353713 0.1355682 0.1358431 0.1361918 0.1365708 0.1369107 0.1371618 0.1373366
 0.1374936 0.1376792 0.1379018 0.1381482 0.1384049 0.1386613 0.1389119 0.1391661 0.1394457 0.1397573
 0.1400673 0.1403206 0.1404941 0.1406226 0.1407645 0.1409498 0.1411663 0.1413852 0.1415928 0.1418065
 0.1420629 0.1423754 0.1427035 0.1429781 0.1431634 0.1432863 0.143405 0.1435591 0.1437527 0.1439686
 0.1441878 0.1443965 0.1445899 0.1447761 0.1449704 0.1451804 0.1454002 0.145619 0.145833 0.1460448
 0.1462548 0.1464593 0.1466605 0.1468773 0.1471353 0.1474345 0.1477319 0.1479737 0.1481439 0.1482717
 0.1483971 0.1485426 0.1487112 0.1488965 0.1490883 0.1492816 0.1494792 0.1496851 0.1498966 0.150108
 0.150317 0.1505255 0.1507364 0.1509508 0.1511689 0.1513912 0.1516175 0.1518418 0.1520535 0.1522451
 0.1524223 0.1526026 0.1528001 0.1530079 0.1532013 0.1533669 0.1535234 0.153702 0.1539112 0.1541328
 0.1543478 0.1545509 0.1547432 0.1549243 0.1550981 0.1552752 0.1554669 0.1556765 0.1558963 0.1561137
 0.1563194 0.156513 0.1567008 0.1568881 0.1570771 0.1572696 0.1574702 0.1576825 0.1579013 0.1581134
 0.1583095 0.1584937 0.158677 0.1588664 0.1590606 0.1592551 0.1594484 0.1596442 0.1598473 0.1600568
 0.1602679 0.1604772 0.160685 0.1608938 0.1611069 0.1613248 0.1615411 0.1617475 0.1619447 0.1621409
 0.1623422 0.1625473 0.1627543 0.162966 0.1631881 0.1634211 0.1636557 0.1638781 0.1640814 0.1642676
 0.1644415 0.1646104 0.1647848 0.1649711 0.1651652 0.1653597 0.1655497 0.1657318 0.1659046 0.1660737
 0.1662492 0.1664379 0.1666398 0.1668496 0.1670597 0.1672663 0.1674722 0.1676784 0.1678816 0.1680826
 0.1682881 0.1685006 0.1687165 0.1689319 0.1691445 0.1693531 0.1695592 0.169764 0.1699636 0.1701566
 0.1703509 0.170554 0.1707649 0.1709808 0.1712009 0.1714192 0.171629 0.1718334 0.1720412 0.1722536
 0.1724649 0.1726699 0.172868 0.1730659 0.1732744 0.1734946 0.1737172 0.1739369 0.1741551 0.1743699
 0.174579 0.1747878 0.1750022 0.175223 0.1754512 0.1756846 0.1759112 0.1761229 0.1763271 0.1765318
 0.176735 0.1769343 0.1771274 0.1773001 0.1774138 0.177358 0.1768461 0.1753166 0.17193 0.1657353
 0.1560454 0.1428758 0.1270961 0.110118 0.09337059 0.07793412 0.06444906 0.05320209 0.04425305 0.03751863
 0.03284089 0.03009204 0.02926935 0.03058861 0.03459575 0.04184633 0.05168316 0.06115329 0.06615827 0.06469011
 0.05875073 0.05252638 0.04890836 0.0480969 0.04885309 0.0501214 0.05156788 0.05338541 0.0559075 0.05923234
 0.06320401 0.06781846 0.07342087 0.08026282 0.08797461 0.09572246 0.1029292 0.1097296 0.1166792 0.1240918
 0.1317137 0.1389753 0.1454436 0.1510343 0.1559247 0.1603561 0.1644959 0.1684185 0.1721582 0.175715
 0.1789722 0.1816551 0.1834594 0.1842812 0.184334 0.1840311 0.1837409 0.1836374 0.1837364 0.1840042
 0.184412 0.1849389 0.1855717 0.1862991 0.1870961 0.1879258 0.1887563 0.1895652 0.1903369 0.1910642
 0.1917469 0.1923814 0.1929618 0.193489 0.1939692 0.1944084 0.194814 0.1951941 0.1955514 0.1958858
 0.1962027 0.1965082 0.1968016 0.1970761 0.1973247 0.1975457 0.1977485 0.1979516 0.1981661 0.1983856
 0.198599 0.1988048 0.1990086 0.1992142 0.199422 0.1996308 0.1998399 0.2000518 0.2002668 0.2004765
 0.200672 0.2008573 0.201046 0.2012436 0.2014446 0.2016447 0.2018467 0.2020526 0.2022559 0.2024463
 0.2026204 0.2027879 0.2029618 0.2031469 0.2033424 0.2035512 0.2037738 0.2039997 0.2042175 0.204429
 0.2046416 0.2048547 0.2050655 0.205275 0.2054783 0.2056609 0.205817 0.2059646 0.2061367 0.2063535
 0.2066018 0.2068422 0.2070463 0.207223 0.2074008 0.2075941 0.2077948 0.2079874 0.2081669 0.2083497
 0.2085619 0.2088069 0.2090596 0.2093013 0.2095389 0.2097822 0.2100278 0.2102724 0.2105089 0.2107093
 0.2108473 0.2109469 0.2110856 0.2113329 0.2116829 0.2120539 0.2123649 0.2126072 0.2128286 0.2130717
 0.2133506 0.2136426 0.2138628 0.2139136 0.2138305 0.2138207 0.2140757 0.2145806 0.2151589 0.2156559
 0.2160313 0.2163199 0.2165642 0.2167707 0.2169021 0.216922 0.2168754 0.2169147 0.2171899 0.2176907
 0.2182416 0.218682 0.2189921 0.2192267 0.2194238 0.2196022 0.2197238 0.2196398 0.219246 0.2187572
 0.2186481 0.2191924 0.2201569 0.2210521 0.221612 0.2219277 0.222184 0.2224384 0.2226564 0.2227405
 0.2224367 0.2214886 0.2201327 0.2192234 0.2195267 0.2209505 0.2226946 0.2240532 0.2248568 0.2252827
 0.2255469 0.2257676 0.2258773 0.2256185 0.2248277 0.2238324 0.2233807 0.2239522 0.2252183 0.2263939
 0.2270419 0.2273103 0.2275151 0.2277826 0.2279673 0.2276135 0.2262114 0.2239458 0.2220801 0.2220692
 0.224137 0.22701 0.2291824 0.2302112 0.2305984 0.2306861 0.2301477 0.2285788 0.226114 0.2233627
 0.221214 0.2207189 0.2223959 0.225355 0.2278004 0.2288016 0.2290809 0.2298268 0.2312796 0.2327352
 0.2334586 0.2332553 0.2323533 0.2309947 0.2293113 0.2277035 0.2270763 0.2281986 0.2307691 0.2335216
 0.235398 0.2363495 0.2367879 0.2363532 0.2336653 0.2279825 0.2212761 0.2176864 0.2198707 0.2262245
 0.232604 0.2364019 0.237981 0.2387277 0.2391913 0.2389328 0.2367865 0.2314982 0.2237008 0.2171576
 0.2162139 0.2214922 0.2291867 0.2346249 0.2354482 0.2318383 0.2256746 0.21999 0.2177397 0.2200041
 0.2255092 0.2318863 0.2370984 0.2400052 0.2403492 0.2386379 0.2361094 0.2344347 0.2345025 0.2350946
 0.2338127 0.2301076 0.2261965 0.2238151 0.2215407 0.2174273 0.2132744 0.2134415 0.2191805 0.2265384
 0.2307972 0.2312587 0.2303978 0.2293598 0.2260035 0.2179799 0.2071674 0.1997708 0.2008972 0.2092541
 0.2183041 0.2226712 0.2224194 0.2211374 0.2211495 0.221137 0.2179853 0.2108482 0.2032227 0.2000164
 0.2023295 0.2064738 0.208344 0.2066918 0.2016895 0.1936152 0.1852136 0.1825563 0.1899294 0.2045957
 0.2189327 0.2267084 0.2253676 0.214679 0.1976347 0.1822945 0.177865 0.1864478 0.2004793 0.2096872
 0.2092473 0.2006482 0.1873001 0.1722043 0.159353 0.1541754 0.160293 0.1758394 0.193462 0.2039599
 0.2013783 0.1876712 0.1731478 0.1690584 0.1773264 0.1891898 0.1949957 0.1929536 0.1877737 0.1846263
 0.1861668 0.1920268 0.1992003 0.2048815 0.2087047 0.2095552 0.2025543 0.1849218 0.163725 0.1512144
 0.1521053 0.1611764 0.1730704 0.1871002 0.2008463 0.2068532 0.201031 0.1903854 0.1870468 0.1953933
 0.2083076 0.2158873 0.2152485 0.2110587 0.2083383 0.2071213 0.2049391 0.2025857 0.2043268 0.2120008
 0.2217988 0.2285228 0.2309918 0.2315478 0.232077 0.2325864 0.2325625 0.2318341 0.2304776 0.2289446
 0.2279289 0.2275828 0.2273724 0.2268834 0.2257941 0.2226456 0.2151566 0.203431 0.1919971 0.1862165
 0.1865986 0.1891744 0.1913999 0.1936343 0.1936297 0.1849905 0.1656195 0.1446377 0.1357403 0.1439614
 0.1619336 0.1782944 0.1863894 0.1848247 0.1740684 0.1566758 0.140016 0.1339522 0.1427907 0.1611519
 0.1797231 0.19328 0.2012739 0.2033817 0.1985199 0.1880065 0.1768272 0.1707867 0.1729812 0.1824364
 0.1944213 0.2016603 0.1979062 0.1841558 0.1713722 0.1723846 0.1884274 0.2070743 0.2162041 0.2162717
 0.2153718 0.2166665 0.2168238 0.2148517 0.2156407 0.223255 0.2349532 0.243892 0.2451358 0.2376041
 0.2234421 0.2085189 0.20089 0.2042918 0.2138198 0.2212053 0.2227859 0.2190025 0.2095174 0.1952632
 0.1836091 0.1839305 0.1967501 0.2125144 0.222451 0.226557 0.2296148 0.2329524 0.232832 0.2261124
 0.2154987 0.2078771 0.2075134 0.212328 0.2174314 0.2202813 0.2207179 0.2180443 0.2114602 0.2033852
 0.1994885 0.2037617 0.2143633 0.2253073 0.2317898 0.2331863 0.2316628 0.2293567 0.2269396 0.2237832
 0.2193806 0.2151938 0.2143666 0.2183668 0.2246423 0.2292432 0.2313424 0.233502 0.2376543 0.242447
 0.2448943 0.2436325 0.2402108 0.2377335 0.2383673 0.2416234 0.2447215 0.2449625 0.2422989 0.239624
 0.2401105 0.2441865 0.2494795 0.2535153 0.2557289 0.2569548 0.2579878 0.2588874 0.2589265 0.2571375
 0.253683 0.2506627 0.2506251 0.2540384 0.2588478 0.262604 0.2644442 0.2649525 0.2648146 0.2641032
 0.2626774 0.2608265 0.259281 0.258631 0.2589012 0.2597114 0.2606725 0.2615516 0.2622359 0.2627097
 0.2630276 0.2632382 0.2633646 0.2634516 0.2635426 0.2635955 0.263528 0.2633814 0.2633409 0.26353
 0.263854 0.2641056 0.2641516 0.263939 0.2633932 0.2624461 0.2611603 0.2597052 0.2581707 0.2565091
 0.2547665 0.2533371 0.2528529 0.2537162 0.2557282 0.258201 0.260424 0.262029 0.2630081 0.2635258
 0.2637628 0.2638534 0.2638689 0.2638226 0.2636995 0.2634931 0.2632174 0.2628889 0.2625136 0.2621045
 0.261705 0.2613666 0.2610957 0.2608372 0.2605182 0.2600995 0.2595927 0.2590423 0.2584873 0.2579217
 0.2572921 0.2565441 0.2556704 0.2547185 0.2537652 0.2528792 0.2520822 0.251336 0.2505795 0.2497711
 0.2488823 0.2478738 0.2467324 0.2455388 0.2444496 0.2435743 0.2428873 0.2422734 0.2416277 0.2408926
 0.2400427 0.2390836 0.2380553 0.2369977 0.2359133 0.234782 0.2335922 0.2323378 0.2310039 0.2295765
 0.2280585 0.2264677 0.2248355 0.2231963 0.2215471 0.2198077 0.2178396 0.2155063 0.2127066 0.2093712
 0.2054694 0.2010438 0.1962362 0.1912645 0.1863564 0.181688 0.1773719 0.1734912 0.1701282 0.1673616
 0.1652464 0.163809 0.1630629 0.1630255 0.1637078 0.1650835 0.1670687 0.1695321 0.1723211 0.1752803
 0.1782545 0.1810957 0.1837021 0.1860695 0.1882799 0.1904042 0.1924218 0.1942558 0.1958637 0.197259
 0.1984633 0.1994826 0.2003303 0.2010375 0.2016324 0.2021261 0.2025293 0.2028711 0.2031888 0.2034956
 0.2037723 0.2039986 0.2041825 0.2043547 0.2045428 0.20476 0.2050101 0.2052998 0.2056465 0.2060682
 0.2065631 0.2071075 0.2076805 0.2082811 0.208919 0.209602 0.2103406 0.2111622 0.2121113 0.2132235
 0.2144925 0.2158629 0.2172552 0.2185885 0.2197842 0.2207742 0.2215208 0.2220236 0.2223061 0.222401
 0.2223402 0.2221482 0.2218443 0.2214532 0.2210006 0.2204966 0.219935 0.219313 0.2186425 0.217941
 0.2172215 0.2164972 0.2157885 0.2151136 0.2144691 0.2138324 0.2131885 0.2125468 0.2119273 0.2113364
 0.2107657 0.2102047 0.2096463 0.2090853 0.2085159 0.207926 0.2072897 0.2065698 0.2057391 0.2048002
 0.2037777 0.2026882 0.2015236 0.2002665 0.1989106 0.197464 0.1959404 0.1943525 0.1927033 0.190979
 0.1891523 0.1872058 0.1851646 0.1831089 0.1811402 0.1793221 0.1776528 0.1760921 0.1746069 0.1731893
 0.1718442 0.1705692 0.1693485 0.1681689 0.1670364 0.1659675 0.1649665 0.1640214 0.1631266 0.1623022
 0.161585 0.1609907 0.1604902 0.1600357 0.1596075 0.159222 0.1589105 0.1587092 0.1586462 0.1587021
 0.1587951 0.1588357 0.1587902 0.1586816 0.1585527 0.1584381 0.1583531 0.1582917 0.1582329 0.1581411
 0.1579592 0.1576141 0.1570362 0.1561765 0.1550173 0.1535755 0.1518967 0.1500623 0.1482033 0.1464763
 0.1449996 0.1438232 0.1429431 0.1423064 0.1418211 0.1414098 0.1410656 0.1408471 0.1408228 0.1409999
 0.1412719 0.1414707 0.141524 0.1415359 0.1416855 0.1420765 0.1426917 0.1434328 0.144181 0.1448534
 0.1454117 0.1458271 0.1460827 0.1462091 0.1462575 0.1462398 0.1461353 0.1459385 0.1456633 0.145327
 0.144945 0.1445154 0.1440184 0.1434478 0.1428111 0.1420987 0.1413001 0.1404228 0.1394407 0.1382912
 0.1370148 0.1358447 0.1350845 0.1349214 0.1353456 0.1361746 0.137179 0.1382348 0.1392857 0.1401438
 0.140539 0.140522 0.1406742 0.1416904 0.1437152 0.1461822 0.1483209 0.1497284 0.1504217 0.1505278
 0.1501187 0.1492386 0.147871 0.1459323 0.1434335 0.1405499 0.1374686 0.1343291 0.1313208 0.1286406
 0.1263728 0.1245273 0.1231028 0.1221348 0.121745 0.1215565 0.1196676 0.1136453 0.1042943 0.09732133
 0.09852109 0.1072574 0.1169242 0.1219143 0.1220634 0.1203445 0.1188194 0.1178142 0.1172475 0.1172853
 0.1180537 0.1193773 0.1208345 0.1220123 0.1227491 0.1230959 0.1230291 0.1221987 0.1198588 0.1151337
 0.1077286 0.09853478 0.08932197 0.08169862 0.07637972 0.07322614 0.0716248 0.07083704 0.07033578 0.070052
 0.07028556 0.07133102 0.07322098 0.07581474 0.07896723 0.08245807 0.08586095 0.08872549 0.09091979 0.09263416
 0.09403677 0.09507343 0.09561539 0.09565592 0.09531209 0.09472506 0.09400567 0.0932111 0.09231003 0.09121358
 0.08993582 0.08871478 0.08786471 0.08748698 0.08741403 0.08742779 0.08742605 0.08739544 0.08734778 0.08729692
 0.08724199 0.08719979 0.08726592 0.08755494 0.08804543 0.08855626 0.0889039 0.08905061 0.08909284 0.08909266
 0.08892182 0.08838474 0.08755723 0.08680758 0.08630931 0.08573212 0.08468177 0.08332062 0.08227101 0.08194196
 0.08217134 0.0825079 0.08263319 0.08249108 0.08223303 0.08215578 0.08251536 0.08321281 0.08376099 0.08374056
</values></Ydata></ScRf><Data_Parameters_AB><parameter name="DPF">1</parameter><parameter name="NPT">3497</parameter><parameter name="FXV">3996</parameter><parameter name="LXV">500</parameter><parameter name="CSF">1</parameter><parameter name="MXY">0.203575983643532</parameter><parameter name="MNY">-0.065472312271595</parameter><parameter name="DAT">31/05/2022</parameter><parameter name="TIM">13:47:26.322 (GMT+2)</parameter><parameter name="DXU">WN</parameter></Data_Parameters_AB><AB__Qtest><MainReport name="Quality Test Report"><Header><Line><Legend>Test result ok/not ok [1/0]: </Legend><Value>0</Value></Line><Line><Legend>Method file: </Legend><Value>C:\Users\Public\Documents\Bruker\OPUS_8.2.28\QT\IRBT_v3_default.QT</Value></Line></Header><Matrix><Line><Legend></Legend><Legend>min</Legend><Legend>max</Legend><Legend>measured</Legend></Line><Line><Value>Absorption (X-Range 1):</Value><Value>0.400000</Value><Value>2.000000</Value><Value>0.211723</Value></Line><Line><Value>Noise (X-Range 4):</Value><Value></Value><Value>0.000300</Value><Value>0.000048</Value></Line><Line><Value>Signal/Noise (X-Range 2):</Value><Value>200.000000</Value><Value></Value><Value>114.638665</Value></Line><Line><Value>Signal/Noise (X-Range 3):</Value><Value>40.000000</Value><Value></Value><Value>55.329045</Value></Line><Line><Value>Water vapour (X-Range 5):</Value><Value></Value><Value>0.000300</Value><Value>0.000060</Value></Line><Line><Value>Signal/Water (X-Range 2):</Value><Value>100.000000</Value><Value></Value><Value>91.406811</Value></Line><Line><Value>Signal/Water (X-Range 3):</Value><Value>20.000000</Value><Value></Value><Value>44.116456</Value></Line><Line><Value>Fringes (X-Range 6):</Value><Value></Value><Value>0.000100</Value><Value>0.000068</Value></Line></Matrix></MainReport></AB__Qtest><Data_Parameters_ScSm><parameter name="DPF">1</parameter><parameter name="NPT">1814</parameter><parameter name="FXV">3996.33169228125</parameter><parameter name="LXV">499.541461535156</parameter><parameter name="CSF">1</parameter><parameter name="MXY">0.269378423690796</parameter><parameter name="MNY">0.0340262427926064</parameter><parameter name="DAT">31/05/2022</parameter><parameter name="TIM">13:47:26.322 (GMT+2)</parameter><parameter name="DXU">WN</parameter></Data_Parameters_ScSm><Data_Parameters_ScRf><parameter name="DPF">1</parameter><parameter name="NPT">1820</parameter><parameter name="FXV">4004.04661832813</parameter><parameter name="LXV">495.683998511719</parameter><parameter name="CSF">1</parameter><parameter name="MXY">0.264952480792999</parameter><parameter name="MNY">0.0292693488299847</parameter><parameter name="DAT">31/05/2022</parameter><parameter name="TIM">13:47:00.469 (GMT+2)</parameter><parameter name="DXU">WN</parameter></Data_Parameters_ScRf><Optic_Parameters_Rf><parameter name="APR">0</parameter><parameter name="APT">Open</parameter><parameter name="BMS">KBr</parameter><parameter name="DTC">RT-DLaTGS_IR-Biotyper [Microplate reader]</parameter><parameter name="HPF">0</parameter><parameter name="LPF">10.0</parameter><parameter name="LPV">4000</parameter><parameter name="PGR">0</parameter><parameter name="RCH">Module port</parameter><parameter name="RDX">0</parameter><parameter name="SRC">MIR</parameter><parameter name="VEL">10.0</parameter><parameter name="SON">Off</parameter></Optic_Parameters_Rf><Acquisition_Parameters_Rf><parameter name="ADT">1</parameter><parameter name="AQM">DD</parameter><parameter name="CFE">0</parameter><parameter name="COR">0</parameter><parameter name="DEL">0</parameter><parameter name="DLY">0</parameter><parameter name="HFW">8000</parameter><parameter name="LFW">0</parameter><parameter name="NSR">32</parameter><parameter name="PLF">AB</parameter><parameter name="RES">6</parameter><parameter name="RGN">-1</parameter><parameter name="STR">0</parameter><parameter name="TCL">MakeCompatibleScalar (0, {WSV=1.000000, ARV=0});</parameter><parameter name="TDL">37</parameter><parameter name="RPO">0</parameter></Acquisition_Parameters_Rf><FT_-_Parameters_Rf><parameter name="APF">B3</parameter><parameter name="HFQ">500</parameter><parameter name="LFQ">4000</parameter><parameter name="NLI">0</parameter><parameter name="PHR">24</parameter><parameter name="PHZ">ML</parameter><parameter name="SPZ">NO</parameter><parameter name="ZFF">1</parameter></FT_-_Parameters_Rf><Optic_Parameters_><parameter name="APR">0</parameter><parameter name="APT">Open</parameter><parameter name="BMS">KBr</parameter><parameter name="CHN">Module port</parameter><parameter name="DTC">RT-DLaTGS_IR-Biotyper [Microplate reader]</parameter><parameter name="HPF">0</parameter><parameter name="LPF">10.0</parameter><parameter name="LPV">4000</parameter><parameter name="PGN">0</parameter><parameter name="RDX">0</parameter><parameter name="SRC">MIR</parameter><parameter name="VEL">10.0</parameter><parameter name="SON">Off</parameter></Optic_Parameters_><FT_-_Parameters_><parameter name="APF">B3</parameter><parameter name="HFQ">500</parameter><parameter name="LFQ">4000</parameter><parameter name="NLI">0</parameter><parameter name="PHR">24</parameter><parameter name="PHZ">ML</parameter><parameter name="SPZ">NO</parameter><parameter name="ZFF">1</parameter></FT_-_Parameters_><Acquisition_Parameters_><parameter name="ADT">1</parameter><parameter name="AQM">DD</parameter><parameter name="CFE">0</parameter><parameter name="COR">0</parameter><parameter name="DEL">0</parameter><parameter name="DLY">0</parameter><parameter name="HFW">8000</parameter><parameter name="LFW">0</parameter><parameter name="NSS">32</parameter><parameter name="PLF">AB</parameter><parameter name="RES">6</parameter><parameter name="SOT">0</parameter><parameter name="TCL">MakeCompatibleScalar (0, {WSV=1.000000, ARV=0});</parameter><parameter name="TDL">37</parameter><parameter name="SPO">0</parameter><parameter name="SGN">-1</parameter></Acquisition_Parameters_><Instrument_Parameters_Rf><parameter name="HFL">15800.168544</parameter><parameter name="LFL">0</parameter><parameter name="LWN">15800.168544</parameter><parameter name="ABP">32197</parameter><parameter name="SSP">1</parameter><parameter name="ARG">2</parameter><parameter name="ASG">2</parameter><parameter name="ASS">32</parameter><parameter name="GFW">16</parameter><parameter name="GBW">16</parameter><parameter name="BFW">0</parameter><parameter name="BBW">0</parameter><parameter name="PKA">7255</parameter><parameter name="PKL">4996</parameter><parameter name="PRA">7439</parameter><parameter name="PRL">5001</parameter><parameter name="P2A">1</parameter><parameter name="P2L">1</parameter><parameter name="P2R">1</parameter><parameter name="P2K">1</parameter><parameter name="DAQ">0</parameter><parameter name="AG2">1</parameter><parameter name="SSM">1</parameter><parameter name="RSN">25709</parameter><parameter name="CRR">0</parameter><parameter name="SRT">1654004820.469</parameter><parameter name="DUR">19.6379852294922</parameter><parameter name="TSC">29</parameter><parameter name="MVD">0.292943745851517</parameter><parameter name="AN1">0.225819238382747</parameter><parameter name="AN2">0</parameter><parameter name="VSN">2.485 Apr  4 2017</parameter><parameter name="SRN">0085</parameter><parameter name="CAM">0</parameter><parameter name="INS">IR-Biotyper</parameter><parameter name="FOC">69</parameter><parameter name="RDY">1</parameter><parameter name="ARS">32</parameter></Instrument_Parameters_Rf><Sample_Parameters_><parameter name="BLD"></parameter><parameter name="CNM">Admin</parameter><parameter name="CPY"></parameter><parameter name="DPM"></parameter><parameter name="EXP">IRBT_v3_32Scans.XPM</parameter><parameter name="LCT"></parameter><parameter name="SFM">Microplate, HTS-XT</parameter><parameter name="SNM">220531-1301_CGR32F (D_2)_B5_a6120779-ac2b-422a-abb4-caa9515b6dc8.0</parameter><parameter name="XPP">C:\Users\Public\Documents\Bruker\OPUS_8.2.28\XPM</parameter><parameter name="IST">OK</parameter><parameter name="CPG">1252</parameter><parameter name="UID">0749322d-41a6-4cad-ad83-1f3a9d232ed9</parameter></Sample_Parameters_><Instrument_Parameters_><parameter name="HFL">15800.168544</parameter><parameter name="LFL">0</parameter><parameter name="LWN">15800.168544</parameter><parameter name="ABP">32197</parameter><parameter name="SSP">1</parameter><parameter name="ASG">2</parameter><parameter name="ARG">2</parameter><parameter name="ASS">32</parameter><parameter name="GFW">16</parameter><parameter name="GBW">16</parameter><parameter name="BFW">0</parameter><parameter name="BBW">0</parameter><parameter name="PKA">7217</parameter><parameter name="PKL">4988</parameter><parameter name="PRA">7538</parameter><parameter name="PRL">4993</parameter><parameter name="P2A">1</parameter><parameter name="P2L">1</parameter><parameter name="P2R">1</parameter><parameter name="P2K">1</parameter><parameter name="DAQ">0</parameter><parameter name="AG2">1</parameter><parameter name="SSM">1</parameter><parameter name="RSN">13480</parameter><parameter name="CRR">0</parameter><parameter name="SRT">1654004846.322</parameter><parameter name="DUR">19.6379852294922</parameter><parameter name="TSC">29</parameter><parameter name="MVD">0.306526571512222</parameter><parameter name="AN1">0.225814666561789</parameter><parameter name="AN2">0</parameter><parameter name="VSN">2.485 Apr  4 2017</parameter><parameter name="SRN">0085</parameter><parameter name="CAM">0</parameter><parameter name="INS">IR-Biotyper</parameter><parameter name="FOC">69</parameter><parameter name="RDY">1</parameter></Instrument_Parameters_><History/></OPUSDataFile>
