<?xml version="1.0" encoding="UTF-8" ?>
<OPUSDataFile><AB><Ydata ylabel="Absorbance Units"><values byteorder="INTEL" format="FLOAT32" numvalues="3497"> -0.02557062 -0.0256 -0.02562559 -0.02564814 -0.02565631 -0.02564953 -0.02562207 -0.02557469 -0.02551452 -0.02544413
 -0.02538207 -0.02532978 -0.02530301 -0.02529954 -0.0253229 -0.0253681 -0.02543005 -0.02550111 -0.02557251 -0.02563408
 -0.02567516 -0.02569022 -0.02567077 -0.02562573 -0.0255538 -0.02547509 -0.02539414 -0.0253252 -0.0252722 -0.02523441
 -0.02521251 -0.02519898 -0.02519344 -0.02519247 -0.02519622 -0.02520593 -0.02522158 -0.02524364 -0.02527183 -0.02530528
 -0.02534398 -0.02538788 -0.02543621 -0.02548853 -0.0255419 -0.02559317 -0.02563921 -0.02567625 -0.02570384 -0.02572074
 -0.0257273 -0.02572402 -0.02570815 -0.02567876 -0.02563553 -0.02557706 -0.0255134 -0.02544496 -0.02538575 -0.02533658
 -0.02530082 -0.02527777 -0.02525796 -0.02524111 -0.02521959 -0.02519613 -0.02517665 -0.02516353 -0.02516674 -0.02518362
 -0.02521559 -0.02525589 -0.0252978 -0.02533505 -0.02536008 -0.02537101 -0.02536349 -0.02534267 -0.02530776 -0.0252709
 -0.02523457 -0.02520923 -0.02519755 -0.02520071 -0.02521949 -0.02524763 -0.02528482 -0.02532515 -0.0253684 -0.02541081
 -0.02545173 -0.02548574 -0.02551134 -0.02551931 -0.02551051 -0.02548041 -0.02543537 -0.02538316 -0.0253308 -0.02529052
 -0.0252629 -0.02525484 -0.02525678 -0.02526709 -0.02527146 -0.02526232 -0.02523899 -0.0251966 -0.02515584 -0.02511896
 -0.02510547 -0.02511914 -0.02515015 -0.02519825 -0.025231 -0.02524801 -0.0252356 -0.02519851 -0.02515943 -0.02512305
 -0.02512124 -0.02514955 -0.02521669 -0.02530774 -0.02540161 -0.02548707 -0.02553859 -0.02556401 -0.02555954 -0.0255397
 -0.0255126 -0.02548388 -0.025457 -0.02543604 -0.02542173 -0.02542151 -0.02543775 -0.02546792 -0.02551381 -0.02554807
 -0.0255693 -0.02553711 -0.02545294 -0.0253306 -0.02517813 -0.02505806 -0.02496752 -0.02492951 -0.02493494 -0.02497281
 -0.02503653 -0.02511138 -0.02519028 -0.02526017 -0.0253141 -0.02534119 -0.02534139 -0.02530899 -0.02525635 -0.02518545
 -0.02511211 -0.02504098 -0.02498066 -0.02493344 -0.02490244 -0.02488826 -0.02489194 -0.02491365 -0.02494965 -0.02499939
 -0.02505407 -0.02511277 -0.02516524 -0.02521125 -0.02524441 -0.0252653 -0.02527217 -0.02526562 -0.02524522 -0.02521326
 -0.02517093 -0.02512405 -0.02507726 -0.02503625 -0.02500583 -0.02498782 -0.02498452 -0.02499396 -0.02501672 -0.02504762
 -0.02508685 -0.02512353 -0.02515723 -0.0251708 -0.02516315 -0.02512335 -0.02505232 -0.02496331 -0.0248595 -0.02476928
 -0.02469283 -0.02464759 -0.0246282 -0.02463096 -0.0246484 -0.02466563 -0.02467863 -0.02467555 -0.02465858 -0.02462472
 -0.02457978 -0.02452626 -0.02446844 -0.0244082 -0.02434926 -0.02429153 -0.0242449 -0.02421005 -0.02420171 -0.02422186
 -0.02427668 -0.02436693 -0.02447921 -0.02461161 -0.02473121 -0.02483568 -0.02489049 -0.02489994 -0.0248597 -0.02478086
 -0.02468984 -0.02459365 -0.02451773 -0.02446125 -0.02443298 -0.02443074 -0.02445522 -0.02450543 -0.02458251 -0.02468006
 -0.02479961 -0.02492007 -0.02503884 -0.02512595 -0.02517386 -0.02517673 -0.02513068 -0.02506635 -0.02498554 -0.02490661
 -0.02482904 -0.02474114 -0.02464334 -0.0245319 -0.02441098 -0.02429548 -0.0241879 -0.02410232 -0.02403871 -0.02400449
 -0.02399564 -0.02401295 -0.02404427 -0.02408046 -0.02410998 -0.02412205 -0.02411602 -0.02408724 -0.02404559 -0.02399131
 -0.02394065 -0.0238965 -0.02387005 -0.02386373 -0.02387293 -0.02389766 -0.02392569 -0.02395679 -0.02398682 -0.02401632
 -0.02404832 -0.02408099 -0.0241096 -0.0241297 -0.02412454 -0.02409782 -0.02404489 -0.02398006 -0.02392131 -0.02387311
 -0.02384952 -0.02383753 -0.02383523 -0.02382468 -0.02379587 -0.02374738 -0.02367327 -0.02359489 -0.0235145 -0.0234534
 -0.02341549 -0.02340004 -0.02340777 -0.02341138 -0.02340918 -0.02336708 -0.02328788 -0.02317371 -0.02303287 -0.02290239
 -0.02278349 -0.02269948 -0.02264438 -0.0226187 -0.02261495 -0.02262505 -0.0226402 -0.02264961 -0.02264945 -0.02263173
 -0.02260562 -0.02257441 -0.02253988 -0.02250756 -0.02245361 -0.02237406 -0.0222539 -0.02208827 -0.02190051 -0.02169147
 -0.02149599 -0.0213151 -0.02116571 -0.02104699 -0.0209618 -0.02090806 -0.02088075 -0.02087454 -0.02087327 -0.02087159
 -0.02085067 -0.02081245 -0.02075109 -0.02067209 -0.02058032 -0.02047339 -0.02035182 -0.02021095 -0.02004627 -0.01986653
 -0.01967227 -0.01947593 -0.01928026 -0.01909043 -0.01890741 -0.01873278 -0.01856667 -0.01841123 -0.01826666 -0.01813699
 -0.0180219 -0.01792281 -0.01783594 -0.01774823 -0.01765189 -0.01751549 -0.01734273 -0.01711867 -0.01686892 -0.01662216
 -0.01639302 -0.01620987 -0.01606104 -0.01594927 -0.01585576 -0.0157732 -0.015689 -0.01559733 -0.01549599 -0.01538354
 -0.01526133 -0.0151299 -0.01498436 -0.01482454 -0.01464162 -0.0144356 -0.01420755 -0.01395983 -0.01371098 -0.01346345
 -0.0132386 -0.01303482 -0.01285975 -0.0127078 -0.01257316 -0.01244833 -0.01232078 -0.01218702 -0.01203671 -0.01187832
 -0.01171235 -0.0115529 -0.01140918 -0.01127736 -0.01116286 -0.01103599 -0.01089248 -0.01070625 -0.0104707 -0.01020263
 -0.009901866 -0.009614367 -0.009341755 -0.009110332 -0.00891779 -0.008758672 -0.008628793 -0.008507069 -0.008391839 -0.008265956
 -0.008134086 -0.007996912 -0.007859543 -0.007732478 -0.007608483 -0.007488343 -0.007353248 -0.007189225 -0.006992295 -0.006750758
 -0.006493374 -0.006225221 -0.005973541 -0.005747214 -0.005543166 -0.005363165 -0.005190216 -0.005023158 -0.004852081 -0.004676775
 -0.004496672 -0.004311902 -0.004123305 -0.003930459 -0.003731398 -0.003526674 -0.003315698 -0.00310188 -0.002891046 -0.00268704
 -0.002498742 -0.00232425 -0.00216658 -0.002017844 -0.00187396 -0.001729015 -0.001578389 -0.001423508 -0.00126326 -0.001102878
 -0.0009434631 -0.0007871767 -0.0006349753 -0.0004819203 -0.0003278 -0.0001661441 3.112601E-06 0.000178769 0.0003600543 0.0005393715
 0.0007173271 0.0008919165 0.001065817 0.001246482 0.001433966 0.001633685 0.001839928 0.002047811 0.002250884 0.002440489
 0.002615732 0.00277237 0.002915273 0.003044931 0.003167947 0.003285891 0.003405529 0.003528108 0.00366014 0.003802774
 0.003958384 0.004127495 0.004304211 0.004488018 0.004666835 0.00484014 0.004998072 0.00514117 0.005266167 0.005374823
 0.005469449 0.005553924 0.005635593 0.005720794 0.005821632 0.005940858 0.006088092 0.006254883 0.006440485 0.006630747
 0.006818117 0.006997894 0.007165692 0.007327706 0.007485006 0.007639333 0.007791744 0.007935178 0.008068985 0.008192579
 0.008306366 0.008424442 0.008547571 0.008689987 0.008848806 0.009019556 0.009196183 0.009357725 0.009502432 0.009613905
 0.009700859 0.009766411 0.009824612 0.009891181 0.009971691 0.01007709 0.0101992 0.01033834 0.01048155 0.01062471
 0.01076028 0.01088538 0.0110005 0.01110479 0.01120502 0.01130154 0.01140215 0.01150704 0.01161556 0.01172685
 0.01183206 0.01193194 0.01202428 0.01211295 0.01220894 0.01231385 0.01243825 0.01257644 0.012726 0.01287852
 0.01302421 0.01316007 0.01328057 0.01338737 0.01347985 0.01356012 0.01362802 0.01368836 0.01374105 0.01379624
 0.01385519 0.01392567 0.01400875 0.01410016 0.01419955 0.01429687 0.01439225 0.01448285 0.01456943 0.01465479
 0.01473794 0.01481737 0.01489179 0.01495638 0.01501422 0.01506615 0.01511921 0.01518081 0.01525502 0.01534891
 0.01545659 0.01557944 0.01570246 0.01582181 0.01592415 0.01600459 0.01606447 0.01610201 0.01613299 0.01615843
 0.01619211 0.01623442 0.01628366 0.01633891 0.01639035 0.01643837 0.01647926 0.01651519 0.01655098 0.01658808
 0.01663235 0.01668275 0.01674106 0.01680379 0.01686821 0.01693137 0.01698929 0.01704445 0.01709567 0.01715099
 0.01721312 0.01728601 0.01737274 0.01746385 0.0175595 0.01764206 0.01770994 0.01775454 0.0177758 0.01778544
 0.01778493 0.01779433 0.01781224 0.01784316 0.01788258 0.01791717 0.01794766 0.0179667 0.017983 0.01800762
 0.01804286 0.01809957 0.01816331 0.01822812 0.01828017 0.0183071 0.01831858 0.01831217 0.01831211 0.01832439
 0.01835833 0.01841797 0.01848878 0.0185703 0.01864256 0.01870468 0.01874688 0.01876976 0.01877516 0.01876474
 0.01874717 0.01872445 0.01870765 0.01869724 0.01870038 0.01871453 0.01873973 0.01877151 0.01880506 0.0188382
 0.01886707 0.01889399 0.01891879 0.01894492 0.01897397 0.0190058 0.01904051 0.01907812 0.01911777 0.01916758
 0.01922781 0.0193122 0.01942129 0.01955884 0.0197229 0.01989619 0.02007451 0.02022715 0.02035232 0.02042608
 0.02045436 0.02043504 0.02038261 0.02031586 0.02025047 0.02021139 0.02020143 0.02023529 0.02029336 0.02037407
 0.02044458 0.02049341 0.02050035 0.0204552 0.02037072 0.02024459 0.02011429 0.01998273 0.0198782 0.0198018
 0.01974938 0.01971879 0.01968542 0.01964897 0.01959324 0.01952325 0.0194458 0.01936746 0.01930737 0.019265
 0.01925215 0.01925384 0.01926254 0.01925455 0.01920899 0.01911643 0.0189609 0.01876421 0.01852604 0.01828485
 0.01804993 0.01784236 0.01766853 0.01752023 0.01739786 0.01728327 0.0171756 0.01706485 0.01695131 0.01683444
 0.01671543 0.01660006 0.01648921 0.01639041 0.01630016 0.01621671 0.01613094 0.0160275 0.0159022 0.01574052
 0.01555531 0.01534762 0.01514141 0.01494941 0.01478494 0.01465826 0.01456081 0.01449471 0.01443782 0.01438786
 0.01432344 0.01424221 0.01413452 0.01399997 0.01384769 0.01367939 0.01351722 0.01336211 0.01323187 0.01312351
 0.01303754 0.0129685 0.01290451 0.01284201 0.01276975 0.01268816 0.01259274 0.01248732 0.01237244 0.01225435
 0.01213561 0.01202315 0.01191987 0.01183007 0.01175609 0.01169512 0.01164795 0.01160414 0.01156306 0.01151342
 0.01145466 0.01138289 0.01129854 0.01120561 0.01110445 0.01099931 0.0108895 0.01077442 0.01065416 0.01052738
 0.01039756 0.01026913 0.01014601 0.01003578 0.00993535 0.009846895 0.009759843 0.009668921 0.009568548 0.009453299
 0.009331855 0.009204547 0.009083279 0.0089712 0.008864914 0.008765132 0.008655437 0.008535027 0.008396198 0.008240232
 0.008079681 0.007917052 0.007773743 0.007648963 0.007552924 0.007479837 0.007422538 0.007373891 0.007318793 0.007255239
 0.007173646 0.007079637 0.006973078 0.006863642 0.006755893 0.006657744 0.006573594 0.00650491 0.006454468 0.006412647
 0.006379982 0.006335539 0.006277709 0.006186806 0.006061777 0.005902837 0.005712025 0.005513675 0.005311124 0.00513664
 0.004989901 0.004889117 0.004827017 0.004798151 0.004790497 0.004782967 0.004766588 0.00472153 0.004649855 0.004544785
 0.004417398 0.004271279 0.004116426 0.003957248 0.003798938 0.003641967 0.003497538 0.003365821 0.003268183 0.003206827
 0.003194791 0.003232818 0.003303588 0.003404133 0.003492244 0.003565633 0.003587763 0.003562403 0.003481028 0.003353458
 0.00319697 0.003021943 0.00285353 0.002694858 0.002561395 0.002445182 0.002345918 0.002253208 0.002159527 0.002065844
 0.001969086 0.001879881 0.001800883 0.001736259 0.00168813 0.001649105 0.001618668 0.001591231 0.001566463 0.001546296
 0.0015306 0.001518521 0.001509072 0.001494943 0.001477119 0.001453848 0.001429716 0.001415011 0.001412259 0.001432617
 0.001469646 0.001523133 0.001578513 0.001625824 0.001650278 0.001640713 0.001591439 0.001495402 0.001362496 0.001190647
 0.001006573 0.0008125399 0.0006410578 0.0004960372 0.0003918443 0.0003295283 0.0002904992 0.0002726379 0.0002417828 0.000198414
 0.0001263729 3.159073E-05 -7.342063E-05 -0.0001832482 -0.0002773276 -0.0003571523 -0.000414584 -0.0004567004 -0.0004873611 -0.0005157076
 -0.0005495253 -0.0005967839 -0.00066555 -0.0007533308 -0.0008643547 -0.0009798413 -0.001096972 -0.001195599 -0.001270053 -0.001323637
 -0.001354698 -0.001388537 -0.00142652 -0.001486979 -0.001569141 -0.001665737 -0.001774395 -0.001875939 -0.001971338 -0.002052918
 -0.002125375 -0.00219673 -0.002269304 -0.002352247 -0.002441325 -0.002535929 -0.002629767 -0.002716785 -0.002795739 -0.002863257
 -0.002923714 -0.002978075 -0.003029606 -0.003080227 -0.00312665 -0.003169284 -0.003199957 -0.003217845 -0.003217195 -0.003197549
 -0.003166926 -0.003126869 -0.003101494 -0.003092207 -0.00312207 -0.003186869 -0.003285694 -0.003408589 -0.003530594 -0.003645527
 -0.003729418 -0.003787062 -0.003813599 -0.003818371 -0.003808475 -0.003786806 -0.003757892 -0.003718483 -0.003667589 -0.003605654
 -0.003531506 -0.003452069 -0.003368339 -0.003285349 -0.003204193 -0.003121468 -0.003037087 -0.002941866 -0.002835321 -0.00270873
 -0.002562129 -0.002390908 -0.002196281 -0.001979212 -0.001743185 -0.001496236 -0.001243446 -0.0009973228 -0.0007601432 -0.0005409002
 -0.0003355484 -0.0001446698 3.874257E-05 0.0002189696 0.0003987005 0.0005805038 0.0007626271 0.0009448857 0.001126784 0.001308282
 0.001489015 0.001669579 0.001841413 0.002004124 0.0021427 0.002256886 0.002340106 0.002394184 0.00242754 0.002442291
 0.002451058 0.002454279 0.002458762 0.002465484 0.002478058 0.002500119 0.002537171 0.002592383 0.00267086 0.002771814
 0.002896705 0.003042255 0.003207866 0.003389629 0.003586844 0.003794665 0.004012294 0.004235593 0.004463844 0.004697395
 0.004936246 0.005180328 0.005429006 0.005672439 0.005908852 0.006120887 0.006308731 0.00646281 0.00658673 0.00668547
 0.006760405 0.006819229 0.00685358 0.006859615 0.006820423 0.006721625 0.006548706 0.006287558 0.005937836 0.005492607
 0.004970086 0.004370007 0.003726444 0.003042669 0.002360518 0.001684151 0.001049443 0.000458984 -7.141288E-05 -0.0005420584
 -0.0009580947 -0.001320811 -0.001641512 -0.001920037 -0.00216076 -0.002364763 -0.002534529 -0.002677195 -0.002805018 -0.002927236
 -0.003061749 -0.003208556 -0.00337677 -0.003553638 -0.003735526 -0.003907853 -0.004063108 -0.004196432 -0.004304219 -0.00438994
 -0.004453585 -0.0044991 -0.00452717 -0.004537184 -0.004529177 -0.004499818 -0.004449418 -0.004382029 -0.004300318 -0.004224208
 -0.004157073 -0.004124763 -0.004124746 -0.004166421 -0.004238955 -0.004328121 -0.004423507 -0.004504805 -0.004571623 -0.004615315
 -0.004643071 -0.004657635 -0.004661611 -0.00465874 -0.00464102 -0.004607693 -0.004548487 -0.004460179 -0.004344962 -0.004201052
 -0.004050452 -0.003894022 -0.003769699 -0.003679913 -0.003668621 -0.003737403 -0.003921226 -0.004215252 -0.004623973 -0.005130784
 -0.005698592 -0.006304906 -0.006891371 -0.007447442 -0.007932036 -0.008357162 -0.008716304 -0.009032518 -0.009318599 -0.009587232
 -0.009848883 -0.01009904 -0.01033938 -0.01055949 -0.01075737 -0.01092827 -0.01107081 -0.01118961 -0.01128473 -0.01136684
 -0.01143655 -0.01150521 -0.01157297 -0.01164682 -0.01172572 -0.01180996 -0.01189699 -0.01198077 -0.01205823 -0.01212013
 -0.01216723 -0.01219426 -0.01221049 -0.01222025 -0.01223724 -0.01227233 -0.01232871 -0.01241399 -0.01251175 -0.01262079
 -0.01271801 -0.01279799 -0.01285277 -0.01287942 -0.01289087 -0.01288761 -0.01288778 -0.01289184 -0.01290733 -0.01293302
 -0.01296344 -0.01299731 -0.01302563 -0.01305 -0.01306916 -0.01308745 -0.01311277 -0.01314692 -0.0131975 -0.0132586
 -0.01332903 -0.01339908 -0.01346204 -0.01351344 -0.01354847 -0.01357151 -0.01358165 -0.0135892 -0.01359546 -0.01361092
 -0.01363728 -0.01367777 -0.01373301 -0.01379443 -0.01386141 -0.01392126 -0.01397424 -0.01401605 -0.01404811 -0.01407433
 -0.01409511 -0.01411349 -0.01412949 -0.01414402 -0.01415853 -0.01417556 -0.0141953 -0.01422011 -0.01424548 -0.01426967
 -0.01428797 -0.014297 -0.01429811 -0.01429015 -0.01427934 -0.01426644 -0.01425757 -0.01425346 -0.01425894 -0.01427437
 -0.01430343 -0.01434607 -0.01440109 -0.01446733 -0.01453576 -0.01460471 -0.01466156 -0.01470684 -0.01473421 -0.01474814
 -0.01475383 -0.01475568 -0.01476323 -0.01477379 -0.01478985 -0.01480288 -0.01480727 -0.0148006 -0.01477789 -0.01474979
 -0.01471708 -0.01469495 -0.01468697 -0.0146994 -0.01473431 -0.01478517 -0.0148519 -0.01492121 -0.01499247 -0.01505425
 -0.01510663 -0.01514473 -0.01516973 -0.0151836 -0.01518854 -0.01519113 -0.0151941 -0.015206 -0.01522759 -0.01526485
 -0.01531311 -0.01537143 -0.01543175 -0.01548848 -0.01553729 -0.01557408 -0.01560083 -0.01561716 -0.01562599 -0.01562785
 -0.01562442 -0.01561566 -0.01560555 -0.01559427 -0.01558837 -0.01558808 -0.01559671 -0.01561366 -0.01563566 -0.01566173
 -0.01568563 -0.01570733 -0.01572323 -0.0157345 -0.01574149 -0.01574578 -0.01574973 -0.01575411 -0.01576039 -0.01576918
 -0.01578064 -0.01579735 -0.01582017 -0.01585216 -0.0158951 -0.0159472 -0.01600947 -0.01607302 -0.01613716 -0.01619228
 -0.01623747 -0.01627104 -0.01629311 -0.01630877 -0.01631825 -0.01632594 -0.01633152 -0.01633554 -0.01633834 -0.01634069
 -0.01634428 -0.01635336 -0.01636758 -0.01638953 -0.01641459 -0.01643969 -0.01646013 -0.0164706 -0.01647344 -0.01646706
 -0.01645968 -0.01645359 -0.01645389 -0.01646267 -0.01647803 -0.0165003 -0.01652441 -0.01655002 -0.0165737 -0.01659536
 -0.01661431 -0.01663078 -0.01664639 -0.01666144 -0.01667847 -0.01669712 -0.016718 -0.01673988 -0.01676049 -0.01677912
 -0.01679342 -0.01680441 -0.01681199 -0.01681787 -0.01682325 -0.01682882 -0.01683513 -0.01684255 -0.01685099 -0.01686212
 -0.0168762 -0.0168948 -0.01691846 -0.01694489 -0.01697407 -0.01700084 -0.017025 -0.01704357 -0.01705688 -0.01706659
 -0.01707307 -0.017079 -0.01708429 -0.01708991 -0.01709615 -0.0171036 -0.01711364 -0.01712852 -0.01714903 -0.01717753
 -0.01721174 -0.01725187 -0.0172924 -0.0173311 -0.01736329 -0.0173864 -0.01740122 -0.01740707 -0.01740811 -0.01740499
 -0.01739876 -0.01738964 -0.01737513 -0.01735526 -0.01733277 -0.01730872 -0.01729409 -0.01728923 -0.01730268 -0.01733146
 -0.01737183 -0.01741933 -0.01746256 -0.01750039 -0.01752557 -0.01754103 -0.01754684 -0.01754653 -0.0175427 -0.01753684
 -0.01753038 -0.0175233 -0.01751581 -0.01750809 -0.01750002 -0.01749279 -0.01748646 -0.01748257 -0.01748129 -0.01748256
 -0.01748635 -0.01749101 -0.01749662 -0.01750291 -0.01751035 -0.01752125 -0.0175354 -0.01755389 -0.01757503 -0.01759595
 -0.01761498 -0.01762792 -0.01763564 -0.01763692 -0.01763463 -0.01763022 -0.01762632 -0.01762464 -0.01762601 -0.01763136
 -0.0176393 -0.01765004 -0.01766016 -0.01766925 -0.01767439 -0.01767514 -0.01767331 -0.01766909 -0.01766881 -0.01767261
 -0.01768469 -0.01770431 -0.01773012 -0.01776117 -0.01779397 -0.01782777 -0.01785998 -0.01788863 -0.01791026 -0.01792217
 -0.0179193 -0.0179038 -0.0178733 -0.01783827 -0.01780203 -0.01777608 -0.01776596 -0.0177726 -0.01779835 -0.01783448
 -0.01788034 -0.01792727 -0.01797452 -0.01801713 -0.0180548 -0.01808213 -0.01809894 -0.0181006 -0.01808841 -0.01806565
 -0.01803519 -0.01800801 -0.01798528 -0.01797587 -0.01797676 -0.0179881 -0.01800474 -0.01802137 -0.01803494 -0.01804083
 -0.01804091 -0.01803405 -0.01802581 -0.01801762 -0.01801409 -0.01801683 -0.0180263 -0.01804311 -0.01806403 -0.01808901
 -0.0181123 -0.01813357 -0.01814537 -0.01814765 -0.01813641 -0.01811312 -0.01808265 -0.01804729 -0.01801727 -0.01799257
 -0.01797872 -0.01797317 -0.01797416 -0.01798049 -0.01798974 -0.01800307 -0.01802109 -0.018043 -0.01806968 -0.018096
 -0.01812056 -0.01813912 -0.01814962 -0.01815519 -0.01815538 -0.01815884 -0.01816638 -0.01818218 -0.01820628 -0.01823193
 -0.01825832 -0.01827413 -0.01828013 -0.01827354 -0.01825752 -0.01824072 -0.01822533 -0.01822136 -0.01822652 -0.01824279
 -0.01826436 -0.01828617 -0.01830326 -0.01830983 -0.01830574 -0.01828829 -0.01826313 -0.0182309 -0.01819916 -0.01816985
 -0.01814667 -0.01813067 -0.01812104 -0.01811782 -0.01811939 -0.01812569 -0.01813658 -0.01815212 -0.01817294 -0.01819864
 -0.018228 -0.01825942 -0.0182875 -0.01831005 -0.01831898 -0.01831491 -0.01829349 -0.01826129 -0.01822262 -0.01818563
 -0.01815883 -0.01814247 -0.01814103 -0.01814423 -0.0181501 -0.01814823 -0.01813472 -0.01811069 -0.0180748 -0.0180379
 -0.01800078 -0.01797219 -0.01795251 -0.01794142 -0.01793857 -0.0179395 -0.01794459 -0.01795339 -0.01796714 -0.01798993
 -0.01802208 -0.01806688 -0.01812264 -0.01818883 -0.01826213 -0.01833927 -0.01841662 -0.01848979 -0.01855923 -0.01862107
 -0.01868819 -0.01876093 -0.01886421 -0.01900424 -0.01919539 -0.0194445 -0.01972582 -0.02004007 -0.02032465 -0.02057628
 -0.02073948 -0.02081537 -0.02079609 -0.0206895 -0.02053267 -0.02033349 -0.02014003 -0.01994936 -0.01978046 -0.01962238
 -0.01946243 -0.01930366 -0.01914024 -0.01899015 -0.01886431 -0.01877717 -0.01873996 -0.01875578 -0.01883117 -0.01895192
 -0.01912178 -0.01929454 -0.01946682 -0.01957862 -0.01962209 -0.01959327 -0.01949215 -0.01937804 -0.01925387 -0.01917352
 -0.01913307 -0.01914142 -0.01918783 -0.01924083 -0.01929365 -0.01931146 -0.01930374 -0.01926819 -0.01922008 -0.0191791
 -0.01914278 -0.0191197 -0.01909051 -0.01904611 -0.01897805 -0.01887708 -0.01876015 -0.01862783 -0.01850443 -0.01839449
 -0.01830735 -0.0182451 -0.01819921 -0.01816926 -0.01814049 -0.01811269 -0.01807868 -0.01803979 -0.01799978 -0.01795988
 -0.01792682 -0.01789963 -0.01788012 -0.0178652 -0.01785085 -0.01783482 -0.01781222 -0.01778483 -0.01775131 -0.01771741
 -0.01768596 -0.01766017 -0.01764301 -0.01763028 -0.01762206 -0.01761141 -0.01759675 -0.01757785 -0.01755411 -0.0175327
 -0.01751399 -0.01750458 -0.01750426 -0.0175127 -0.01752873 -0.01754577 -0.01756277 -0.01757216 -0.01757471 -0.01756778
 -0.01755437 -0.01753789 -0.01752138 -0.01751009 -0.01750381 -0.01750482 -0.01750953 -0.01751721 -0.01752301 -0.01752521
 -0.01751996 -0.01750549 -0.01748271 -0.01745077 -0.01741698 -0.01738182 -0.0173525 -0.01732942 -0.01731126 -0.01729759
 -0.01728158 -0.01726371 -0.01724285 -0.01722095 -0.01720482 -0.0171946 -0.01719522 -0.01720269 -0.01721315 -0.01722216
 -0.01722211 -0.01721403 -0.01719495 -0.01717118 -0.01714504 -0.01712199 -0.01710506 -0.01709485 -0.01709237 -0.01709563
 -0.01710461 -0.01711658 -0.01713138 -0.01714534 -0.01715823 -0.01716764 -0.01717371 -0.01717792 -0.01718037 -0.01718275
 -0.01718429 -0.0171828 -0.01717833 -0.01716913 -0.01715771 -0.01714773 -0.01714017 -0.01713932 -0.01713999 -0.01714026
 -0.01713357 -0.01711453 -0.01708442 -0.01704108 -0.01699308 -0.0169419 -0.01689515 -0.01685447 -0.01682257 -0.01680002
 -0.01678582 -0.01677995 -0.01677956 -0.01678447 -0.01679139 -0.01680044 -0.01681045 -0.01682168 -0.01683487 -0.01684922
 -0.0168636 -0.01687628 -0.01688365 -0.01688542 -0.01687919 -0.01686729 -0.01685045 -0.01683171 -0.01681303 -0.01679586
 -0.01678102 -0.01676985 -0.01676266 -0.01676118 -0.01676609 -0.01677559 -0.01679003 -0.01680117 -0.01680855 -0.01680488
 -0.01679049 -0.01676852 -0.01674041 -0.01671726 -0.01669886 -0.0166911 -0.01669133 -0.01669584 -0.01670325 -0.01670866
 -0.01671428 -0.01672085 -0.01673009 -0.01674482 -0.01676197 -0.01678141 -0.01679753 -0.0168081 -0.01680989 -0.01680112
 -0.01678316 -0.01675542 -0.01672345 -0.01668743 -0.01665602 -0.01662975 -0.01661528 -0.01661239 -0.01661924 -0.01663459
 -0.01664951 -0.01666368 -0.01667062 -0.01667208 -0.01666909 -0.01666328 -0.01665853 -0.0166539 -0.01664999 -0.01664514
 -0.01663761 -0.01662812 -0.01661623 -0.01660403 -0.01659241 -0.01658186 -0.01657277 -0.01656465 -0.01655733 -0.01655167
 -0.01654773 -0.01654659 -0.01654832 -0.01655174 -0.01655677 -0.01656161 -0.01656648 -0.01657208 -0.01657846 -0.01658668
 -0.01659552 -0.01660251 -0.01660645 -0.01660316 -0.01659486 -0.01658158 -0.01656847 -0.01656013 -0.01655887 -0.01656864
 -0.01658478 -0.01660725 -0.01662832 -0.01664597 -0.01665524 -0.01665474 -0.01664382 -0.01662203 -0.01659223 -0.0165545
 -0.01651583 -0.01647677 -0.01644677 -0.01642594 -0.01642037 -0.01642836 -0.01644749 -0.01647466 -0.01650087 -0.01652431
 -0.01653694 -0.0165407 -0.01653388 -0.01652136 -0.01650672 -0.01649317 -0.01648434 -0.01647853 -0.01647625 -0.01647402
 -0.01647048 -0.01646625 -0.01646077 -0.01645861 -0.01646032 -0.01646774 -0.0164811 -0.01649542 -0.01651028 -0.01651804
 -0.01651885 -0.01650969 -0.01649192 -0.01646896 -0.0164424 -0.01641818 -0.0163967 -0.01638167 -0.0163719 -0.01636763
 -0.01636688 -0.01636806 -0.01636979 -0.0163705 -0.01637086 -0.01637051 -0.01637143 -0.01637422 -0.01637966 -0.01638832
 -0.01639803 -0.01640884 -0.01641629 -0.01642011 -0.01641721 -0.01640772 -0.01639363 -0.01637576 -0.01636085 -0.01634922
 -0.0163462 -0.01635023 -0.01636027 -0.01637421 -0.01638756 -0.01639993 -0.01640885 -0.01641508 -0.01641873 -0.01641966
 -0.0164177 -0.01641323 -0.01640598 -0.0163979 -0.01638957 -0.01638185 -0.01637517 -0.01636832 -0.01636103 -0.01635445
 -0.01634858 -0.01634781 -0.01635212 -0.01636203 -0.01637657 -0.01638912 -0.01639913 -0.01640029 -0.01639429 -0.016382
 -0.01636589 -0.0163512 -0.01633827 -0.01633008 -0.01632486 -0.01632212 -0.01632025 -0.01631795 -0.01631496 -0.01631103
 -0.01630546 -0.0162981 -0.016288 -0.01627466 -0.01625975 -0.01624319 -0.01622909 -0.01621776 -0.01621012 -0.01620601
 -0.01620178 -0.0161975 -0.01619152 -0.01618479 -0.01618062 -0.01617904 -0.01618268 -0.01618893 -0.01619447 -0.01619679
 -0.01619039 -0.01617694 -0.01615486 -0.01612986 -0.01610472 -0.01608424 -0.01607194 -0.0160665 -0.01606929 -0.01607272
 -0.01607578 -0.01607172 -0.01605922 -0.01603921 -0.01601156 -0.01598256 -0.01595251 -0.01592696 -0.01590577 -0.01589076
 -0.01588125 -0.0158757 -0.01587298 -0.01586888 -0.01586368 -0.01585495 -0.01584587 -0.01583948 -0.01583837 -0.01584751
 -0.01586266 -0.01588416 -0.01590274 -0.01591379 -0.01591491 -0.01590303 -0.01588577 -0.01586393 -0.01584443 -0.01582864
 -0.01581519 -0.01580413 -0.01579111 -0.01577613 -0.01575991 -0.01574301 -0.01573022 -0.01572122 -0.01571755 -0.01571784
 -0.01571883 -0.0157203 -0.01572011 -0.01571913 -0.01571865 -0.01571629 -0.01571138 -0.0156987 -0.01567339 -0.01563759
 -0.01558858 -0.01553955 -0.01549352 -0.01546094 -0.01544594 -0.01544254 -0.01545147 -0.01545582 -0.01545439 -0.01543813
 -0.01540727 -0.01536906 -0.01532471 -0.01528713 -0.01525602 -0.0152374 -0.01522934 -0.01522967 -0.01523668 -0.01524617
 -0.0152572 -0.01526733 -0.01527471 -0.0152771 -0.01527256 -0.01525858 -0.01523662 -0.01520562 -0.01517179 -0.0151364
 -0.01510566 -0.01508146 -0.0150641 -0.01505435 -0.01504574 -0.01503791 -0.01502354 -0.01500259 -0.0149759 -0.01494465
 -0.01491884 -0.01489895 -0.01489354 -0.01489997 -0.01491604 -0.0149376 -0.01495505 -0.01496773 -0.01496984 -0.01496507
 -0.01495512 -0.01494211 -0.01492862 -0.01491291 -0.01489486 -0.01487286 -0.01484594 -0.01481567 -0.01478181 -0.01474835
 -0.01471563 -0.01468744 -0.01466407 -0.01464758 -0.01463802 -0.01463575 -0.01464029 -0.01464875 -0.01465939 -0.01466335
 -0.01465887 -0.014635 -0.01459476 -0.01453706 -0.01446964 -0.01440254 -0.01434064 -0.01429312 -0.01425816 -0.01423813
 -0.01422734 -0.01422392 -0.01422374 -0.01422495 -0.01422682 -0.0142293 -0.0142299 -0.01422884 -0.01421841 -0.01419803
 -0.01416297 -0.01411347 -0.01405736 -0.01399592 -0.01394355 -0.01389996 -0.01387221 -0.01385768 -0.01385298 -0.01385503
 -0.01385664 -0.01385509 -0.0138437 -0.01382129 -0.01378302 -0.01373333 -0.0136721 -0.01360882 -0.01354815 -0.01349409
 -0.01345005 -0.01341087 -0.01337602 -0.01334141 -0.01330578 -0.01327439 -0.01324748 -0.01323131 -0.01322589 -0.0132279
 -0.01323617 -0.01323926 -0.01323651 -0.0132177 -0.01318526 -0.01314019 -0.01308656 -0.01303369 -0.01298192 -0.01293677
 -0.01289377 -0.01285079 -0.01280362 -0.01274772 -0.01268494 -0.01261381 -0.01254143 -0.01246956 -0.01240356 -0.01234541
 -0.012294 -0.01225031 -0.01220384 -0.01215402 -0.01208839 -0.01200678 -0.01191202 -0.01180568 -0.01170322 -0.01160447
 -0.01151752 -0.01143946 -0.0113661 -0.01129491 -0.01121801 -0.01113659 -0.01104827 -0.01095676 -0.01086545 -0.01077479
 -0.01068794 -0.01059792 -0.0105038 -0.01039425 -0.01026472 -0.01011227 -0.009933437 -0.009741737 -0.009538133 -0.009336459
 -0.009138118 -0.008944213 -0.008754793 -0.008569091 -0.00838754 -0.008214382 -0.008049149 -0.007892935 -0.007742769 -0.007590272
 -0.0074335 -0.007262815 -0.007082399 -0.006893118 -0.00670166 -0.006516056 -0.006336593 -0.006166498 -0.006002367 -0.005842966
 -0.005687525 -0.005535465 -0.005387362 -0.005244868 -0.005098414 -0.004949 -0.004768495 -0.004554631 -0.004289317 -0.003973037
 -0.003642094 -0.003299263 -0.002987704 -0.00270182 -0.002437415 -0.002187866 -0.001930307 -0.001664025 -0.001377234 -0.001070208
 -0.00074143 -0.0003827312 1.101711E-05 0.0004565955 0.0009686443 0.001551117 0.002218072 0.002933525 0.003694146 0.004447375
 0.005179768 0.005870616 0.00651383 0.007115955 0.007676451 0.008213369 0.008728197 0.009257657 0.009805487 0.01042661
 0.01111473 0.01187768 0.01268818 0.01345969 0.01419025 0.01482465 0.01539708 0.01593498 0.01646128 0.01701333
 0.01758767 0.01819465 0.01882111 0.01946245 0.02011286 0.02077178 0.02142547 0.02207244 0.02269313 0.02328283
 0.02384789 0.02438803 0.02492076 0.02544629 0.02595249 0.02643709 0.02687185 0.02725846 0.02759087 0.02787163
 0.02810808 0.02829528 0.02842474 0.02849642 0.02850056 0.02845635 0.02837884 0.02828441 0.02819 0.02810007
 0.02802188 0.02795155 0.02789087 0.02782835 0.02776347 0.02767825 0.02757146 0.02741881 0.02721789 0.0269572
 0.02663694 0.02628767 0.02591195 0.02554834 0.02519423 0.02485654 0.02453148 0.02421012 0.02389251 0.02357347
 0.02325695 0.02294612 0.02264545 0.02236078 0.02209437 0.02184872 0.02162743 0.02143186 0.02126804 0.02113887
 0.02104496 0.02098816 0.02096023 0.02096044 0.02098091 0.02102073 0.02107869 0.02115479 0.0212526 0.02137218
 0.02151601 0.02168281 0.02186781 0.02206881 0.02227587 0.02248913 0.02270309 0.0229215 0.02314737 0.02338423
 0.02363727 0.02390715 0.02419599 0.0245032 0.02482896 0.02517283 0.025535 0.02591383 0.02630972 0.02671738
 0.02713702 0.02755698 0.02797654 0.02838255 0.02877447 0.02915024 0.02951066 0.02986496 0.03021148 0.03054828
 0.0308695 0.03115355 0.03140049 0.03159811 0.03175342 0.03187225 0.03195852 0.03201831 0.03205383 0.03206775
 0.03206348 0.03204511 0.03200737 0.03195287 0.03185982 0.03172284 0.0315315 0.03127846 0.03100682 0.0307197
 0.03044925 0.03019659 0.02994248 0.0296856 0.02940498 0.02910183 0.02877209 0.02841693 0.02804059 0.02763746
 0.02720295 0.02671754 0.02614776 0.02548593 0.02469155 0.0238279 0.02292436 0.02204232 0.02123413 0.02047498
 0.01976802 0.01908341 0.01841006 0.01775883 0.01712906 0.01653915 0.01599187 0.01547764 0.01499586 0.01452159
 0.01405442 0.01358141 0.01310424 0.01262506 0.01214539 0.01167101 0.01120285 0.01074574 0.01029989 0.009868684
 0.009449076 0.009041078 0.008635831 0.008229648 0.007806768 0.007357523 0.006874911 0.006344049 0.005812529 0.005283993
 0.004824488 0.004451368 0.00414285 0.003900453 0.003668138 0.003443314 0.003207015 0.002961466 0.002726677 0.002504141
 0.002314603 0.002152116 0.002006968 0.001874906 0.001737981 0.001604464 0.001477103 0.001370093 0.001302652 0.001274753
 0.001295584 0.001351222 0.001436662 0.001542529 0.001662756 0.001800498 0.001953422 0.002136887 0.002351349 0.002621548
 0.002950312 0.003347539 0.003813451 0.004304017 0.004815164 0.005283169 0.00571054 0.006078405 0.006392601 0.006663468
 0.006892968 0.007089078 0.007255283 0.007397134 0.007526387 0.007655817 0.007799846 0.00797785 0.008181815 0.008419198
 0.008654995 0.008875675 0.009070469 0.009230624 0.009376025 0.009508419 0.009644302 0.009786118 0.009931454 0.01008022
 0.01021923 0.01034859 0.01046493 0.01057083 0.01067868 0.01079175 0.01092878 0.01108899 0.01128228 0.01150027
 0.01173439 0.01197691 0.0122136 0.01244803 0.01267692 0.01290973 0.01315075 0.01340585 0.01367885 0.01396905
 0.01427768 0.01459941 0.01493435 0.01527277 0.01561461 0.01594015 0.01624829 0.01651271 0.01673303 0.01689659
 0.01700553 0.01706613 0.01707904 0.0170511 0.01697856 0.01685659 0.01668049 0.01643866 0.01613401 0.01576164
 0.01533663 0.01486708 0.01437029 0.01385934 0.0133368 0.01280843 0.01226345 0.01169838 0.01111527 0.01051052
 0.009915592 0.009332692 0.008792233 0.008295943 0.007842437 0.007430393 0.0070417 0.006676343 0.006324981 0.005989389
 0.005671789 0.005371612 0.00508962 0.004822162 0.004563767 0.004311454 0.004059484 0.003807326 0.003552904 0.003295996
 0.003036004 0.002772788 0.002505237 0.002237591 0.001969503 0.001710999 0.001463474 0.001235123 0.001027384 0.0008377137
 0.0006660451 0.0005009472 0.0003421168 0.0001818824 2.205855E-05 -0.0001307329 -0.0002739711 -0.000394499 -0.0004926925 -0.0005621152
 -0.0006061782 -0.0006272884 -0.0006291585 -0.0006167888 -0.0005929018 -0.0005605981 -0.000523271 -0.0004825905 -0.0004440809 -0.0004096912
 -0.0003847844 -0.0003711946 -0.0003711439 -0.0003856984 -0.0004123501 -0.000451331 -0.0004951785 -0.0005434905 -0.0005878383 -0.0006281899
 -0.0006622535 -0.0006906785 -0.0007165102 -0.0007396862 -0.0007619063 -0.0007819726 -0.0007977949 -0.0008085594 -0.000811691 -0.0008077152
 -0.0007960084 -0.0007779431 -0.0007537875 -0.0007266469 -0.0006973296 -0.000671539 -0.0006513907 -0.0006414152 -0.000644142 -0.0006563065
 -0.0006785295 -0.0007015134 -0.0007243915 -0.0007405041 -0.0007493914 -0.000753215 -0.0007524145 -0.0007540341 -0.0007579886 -0.0007676097
 -0.0007816577 -0.000797026 -0.0008133999 -0.0008276411 -0.0008420664 -0.0008589482 -0.0008808046 -0.0009123514 -0.0009522285 -0.001002135
 -0.001056248 -0.001112372 -0.001164278 -0.001208887 -0.001243677 -0.001266979 -0.001280476 -0.001283817 -0.001281549 -0.001273934
 -0.001266394 -0.001259261 -0.001256121 -0.001256879 -0.00126101 -0.001267755 -0.001272319 -0.001273706 -0.001265563 -0.001247668
 -0.001216189 -0.001171656 -0.001113137 -0.00104154 -0.0009571587 -0.0008619592 -0.0007566258 -0.0006458943 -0.000532083 -0.0004201564
 -0.0003131248 -0.0002111329 -0.0001158659 -2.050587E-05 7.552349E-05 0.0001799434 0.0002940343 0.0004173085 0.0005499006 0.0006810892
 0.0008101277 0.0009236118 0.001021837 0.001099305 0.001158318 0.00120423 0.001239721 0.001274789 0.001309089 0.001347904
 0.001386221 0.001421018 0.001445554 0.001452748 0.001440327 0.001403846 0.001347724 0.001272034 0.001183368 0.00108351
 0.0009763702 0.0008628541 0.000745153 0.0006235394 0.0004999856 0.0003746415 0.0002474296 0.0001183021 -1.387252E-05 -0.0001487173
 -0.0002844165 -0.000420262 -0.0005521973 -0.0006806459 -0.0008044651 -0.0009247421 -0.001043191 -0.001159625 -0.001274623 -0.001387434
 -0.001497011 -0.001604881 -0.001711315 -0.00181872 -0.00192866 -0.002040177 -0.002154133 -0.002264965 -0.002372161 -0.002469278
 -0.00255539 -0.002628632 -0.002688763 -0.002740199 -0.002783311 -0.002824937 -0.002864941 -0.002906268 -0.002947474 -0.002985154
 -0.003016765 -0.003034338 -0.003035803 -0.003013208 -0.002967746 -0.002896224 -0.002804902 -0.002697314 -0.002580321 -0.002459677
 -0.002336168 -0.00221233 -0.002083419 -0.001948566 -0.001804525 -0.001650323 -0.001486215 -0.001312088 -0.001128666 -0.0009359391
 -0.0007369833 -0.0005322176 -0.0003291596 -0.0001281817 6.384039E-05 0.0002481807 0.0004256766 0.0005988415 0.00077479 0.0009545728
 0.001143906 0.001341134 0.001546774 0.001758242 0.001973663 0.002190758 0.002408359 0.002622707 0.002832961 0.00303273
 0.003220086 0.003391116 0.003544044 0.003682568 0.003806399 0.003924726 0.00403807 0.004155301 0.004276787 0.004409316
 0.004552618 0.004708977 0.004876473 0.005048702 0.005223963 0.005392796 0.005558989 0.005723494 0.005894111 0.006082656
 0.006289164 0.006521395 0.006765247 0.007015682 0.007257859 0.007482016 0.007690819 0.007880561 0.00806946 0.008260394
 0.008465554 0.008687871 0.008919301 0.009159707 0.00939167 0.009614822 0.009822639 0.01001643 0.01020297 0.01038255
 0.01056041 0.01073486 0.01090373 0.01106632 0.01122009 0.01136575 0.01150331 0.011633 0.01175407 0.01186975
 0.01198029 0.01209359 0.01221348 0.01234289 0.01248535 0.01263116 0.01277971 0.01291891 0.01304661 0.01316331
 0.01326863 0.01337581 0.01348554 0.01361129 0.01375228 0.01391012 0.01408178 0.01425595 0.01442969 0.01458913
 0.01473376 0.01485667 0.01495735 0.01503359 0.01508167 0.01509756 0.01507898 0.01502134 0.01493146 0.0148085
 0.01466917 0.01451671 0.01436919 0.0142307 0.01411066 0.01401153 0.01392788 0.01385972 0.01379277 0.01372665
 0.01365484 0.01357898 0.01350835 0.01344478 0.01340188 0.0133778 0.01337569 0.01339021 0.01341367 0.01344003
 0.01345869 0.01346535 0.01345186 0.01341865 0.0133618 0.01328966 0.01320318 0.01311564 0.01303122 0.01295741
 0.01289796 0.01284492 0.0127987 0.01274191 0.01267324 0.01258543 0.01247897 0.01236715 0.01225124 0.01214879
 0.01205711 0.01197521 0.01189719 0.01180567 0.01169852 0.01156218 0.01140107 0.01121474 0.01100964 0.01079143
 0.01056451 0.01033343 0.01009931 0.009863989 0.009626012 0.009385546 0.009139999 0.008888843 0.008630722 0.008365219
 0.008093613 0.007815856 0.007536673 0.007256377 0.006981457 0.00671176 0.006449427 0.006193281 0.005939291 0.005686714
 0.005431318 0.005173272 0.004911371 0.004644818 0.004371936 0.004092608 0.003804505 0.003513183 0.003220284 0.002934216
 0.002660169 0.002398292 0.002151364 0.001909267 0.001670797 0.001426284 0.001173897 0.0009130912 0.0006434507 0.0003731268
 0.0001026977 -0.0001560287 -0.0004025825 -0.0006278149 -0.0008320009 -0.001011475 -0.001166699 -0.001296883 -0.001402777 -0.001484205
 -0.001545076 -0.001588896 -0.001623468 -0.00165681 -0.001695247 -0.001745807 -0.001808887 -0.001887002 -0.0019763 -0.002076438
 -0.002182873 -0.002294929 -0.002408003 -0.002521679 -0.002630806 -0.002735063 -0.002828478 -0.002910827 -0.002978319 -0.00303181
 -0.003075991 -0.003112974 -0.0031554 -0.003203043 -0.003263307 -0.003331286 -0.003400847 -0.003468219 -0.003524295 -0.003571671
 -0.003609707 -0.003640828 -0.003668639 -0.003686563 -0.003693165 -0.003680731 -0.003644188 -0.003591414 -0.003520791 -0.003455241
 -0.003397589 -0.003362561 -0.003352091 -0.003356689 -0.003375506 -0.003387071 -0.003391503 -0.003379806 -0.003354745 -0.003324416
 -0.003290345 -0.003261789 -0.003237088 -0.003217299 -0.003200606 -0.003184626 -0.003169146 -0.003153465 -0.003136598 -0.00311782
 -0.003096103 -0.003070343 -0.003042024 -0.003011484 -0.002979445 -0.002946565 -0.002909885 -0.002868792 -0.002823872 -0.002774722
 -0.002732976 -0.002699258 -0.002686956 -0.002694795 -0.002719162 -0.00275521 -0.002778918 -0.002786417 -0.00275177 -0.002679267
 -0.002562218 -0.002413639 -0.002247267 -0.002077074 -0.001921949 -0.001787745 -0.001685709 -0.001610324 -0.001564091 -0.001531983
 -0.001511167 -0.001484745 -0.001448284 -0.001394685 -0.001321285 -0.001236932 -0.001141775 -0.001051303 -0.0009661161 -0.0008942547
 -0.0008351187 -0.0007868836 -0.0007486486 -0.0007156596 -0.0006869206 -0.0006575459 -0.0006258795 -0.0005858177 -0.0005376641 -0.0004777538
 -0.0004114659 -0.0003418742 -0.0002758057 -0.0002198793 -0.0001739252 -0.0001408182 -0.0001135865 -9.020853E-05 -6.772554E-05 -4.453204E-05
 -2.399397E-05 -6.948192E-06 9.527584E-06 2.518835E-05 5.288757E-05 9.310505E-05 0.0001524183 0.0002295324 0.0003150688 0.0004079352
 0.0004974036 0.0005849053 0.0006702102 0.0007526624 0.0008325865 0.0009043625 0.0009593528 0.0009959218 0.001006123 0.001000476
 0.0009822547 0.0009648452 0.0009572927 0.0009591495 0.0009739253 0.000989963 0.001004236 0.001015505 0.001021613 0.0010391
 0.001069145 0.001123849 0.001203237 0.001293705 0.001393566 0.001479849 0.001554964 0.001617628 0.001673287 0.001739959
 0.001816087 0.001909675 0.002010661 0.002107499 0.002194052 0.002257522 0.002303428 0.002330129 0.00234873 0.002364472
 0.002383011 0.002408603 0.002436904 0.002468314 0.002494507 0.002513393 0.002528555 0.002539319 0.002567186 0.002613122
 0.002693811 0.002806827 0.002936664 0.003077907 0.003193842 0.003285491 0.003333646 0.003349569 0.003346614 0.003336265
 0.003342608 0.003366685 0.003420308 0.003494894 0.003588841 0.003692182 0.003800125 0.003905249 0.004004817 0.004091884
 0.00416486 0.004217303 0.004247488 0.004257115 0.004245512 0.00422853 0.00420708 0.004201925 0.004212778 0.004245975
 0.004298084 0.004355306 0.004414883 0.004459268 0.004491946 0.004510703 0.004522426 0.004537105 0.004557008 0.004589203
 0.004630422 0.00468026 0.004736569 0.004798253 0.004864005 0.004934709 0.005002264 0.005066174 0.005113508 0.005141764
 0.005147874 0.005130515 0.005105546 0.005073975 0.005062899 0.00507295 0.005122284 0.005207373 0.005321373 0.005457671
 0.00559105 0.005719363 0.005823634 0.005910459 0.005980377 0.006042873 0.006108533 0.006181618 0.006269868 0.006369339
 0.00648202 0.006596076 0.006709082 0.006807576 0.006887377 0.006945153 0.006978847 0.006997101 0.007000249 0.006998511
 0.006992511 0.006995099 0.007007929 0.007053829 0.007132715 0.007259688 0.007426398 0.007616095 0.007816674 0.007991848
 0.008140152 0.008240612 0.008305065 0.008337572 0.008350064 0.008353683 0.008350836 0.008346236 0.008336524 0.008320528
 0.008299892 0.008272744 0.008253141 0.008242195 0.00825643 0.008298069 0.00836508 0.008457157 0.008552461 0.008649866
 0.008729655 0.008792409 0.008830979 0.008846439 0.008836622 0.008806413 0.008762383 0.008716136 0.008688251 0.008685894
 0.008727041 0.008805344 0.008923781 0.009068721 0.009237912 0.009407018 0.009570844 0.009696011 0.009768923 0.009800301
 0.009785883 0.00977413 0.009769662 0.009792659 0.009843993 0.009910626 0.009991214 0.01006615 0.01013622 0.01019563
 0.01024607 0.01029106 0.0103292 0.01035976 0.01037926 0.01038204 0.01036592 0.01032483 0.0102631 0.01017956
 0.01008661 0.009989944 0.009898877 0.009818937 0.009749459 0.009690934 0.009643621 0.009607616 0.009584116 0.009574252
 0.009560954 0.009543269 0.009494538 0.009415851 0.009309333 0.009180792 0.009064503 0.008961749 0.008898275 0.008864067
 0.008850935 0.008845746 0.008822858 0.008779331 0.008698503 0.008593626 0.008464538 0.008338993 0.008230253 0.008159813
 0.008142448 0.008168134 0.008240253 0.00832937 0.008431148 0.008528797 0.008619932 0.008702806 0.008777281 0.008847781
 0.008915467 0.008995983 0.009089446 0.009207974 0.009344154 0.009479989 0.009607204 0.009694107 0.009747433 0.009760275
 0.009750955 0.009737222 0.009731044 0.009749352 0.009789434 0.009856731 0.009936966 0.01002804 0.01011127 0.01018162
 0.01022877 0.01024892 0.01024996 0.01023168 0.01021075 0.01018798 0.0101672 0.01014719 0.01011313 0.01006486
 0.009990071 0.009897586 0.009807539 0.009736195 0.00973467 0.009802634 0.009974318 0.0102089 0.01048173 0.01073731
 0.01091892 0.01101665 0.01100049 0.01091364 0.01076206 0.01059342 0.0104202 0.01027132 0.010153 0.01008143
 0.01006004 0.01007839 0.01013594 0.01018603 0.0102267 0.01021712 0.01016336 0.01007759 0.009970791 0.009890337
 0.009835894 0.009834562 0.009870062 0.009929677 0.009995793 0.01004204 0.0100639 0.01004744 0.01000029 0.009921419
 0.009823444 0.009708929 0.00959437 0.009483424 0.009391411 0.009322884 0.009274117 0.009246931 0.009210172 0.009162202
 0.009068497 0.008929146 0.008735362 0.008491335 0.008214992 0.007913417 0.007618968 0.007340087 0.007112819 0.006940506
 0.006846528 0.006824609 0.006878416 0.006995699 0.007172794 0.007385061 0.00762522 0.007851016 0.00804692 0.00817971
 0.008234485 0.008216451 0.008121907 0.007978251 0.007787229 0.007577796 0.007351672</values></Ydata></AB><ScSm><Ydata ylabel="Single channel"><values byteorder="INTEL" format="FLOAT32" numvalues="1814"> 0.06465267 0.06466511 0.06473603 0.06488527 0.06508754 0.06528371 0.06542023 0.06548456 0.06549576 0.06546685
 0.0654055 0.06535381 0.0653846 0.0655315 0.06574008 0.0659022 0.06594109 0.06588006 0.06583422 0.06589945
 0.06602299 0.0660134 0.06572109 0.06520982 0.06471445 0.06442147 0.06435311 0.06450704 0.0649694 0.06568681
 0.06621614 0.06604305 0.06522679 0.06442894 0.06417897 0.064367 0.06455187 0.06447169 0.06412587 0.06367613
 0.06349067 0.06404315 0.06544612 0.0670678 0.06775928 0.06657879 0.06346605 0.05945555 0.05629215 0.05549347
 0.05728242 0.06028644 0.06256673 0.06316286 0.06255224 0.06166926 0.06089782 0.06019429 0.05974062 0.05997685
 0.06099248 0.06212139 0.06229071 0.06094002 0.05868909 0.05689669 0.05642164 0.05708719 0.05841263 0.06013659
 0.06146979 0.06067123 0.05675946 0.05168016 0.04944196 0.05230891 0.05838779 0.06348004 0.06481675 0.06261596
 0.05887228 0.05569769 0.05451808 0.05569054 0.05844671 0.0615335 0.06397007 0.06508896 0.0643701 0.06189342
 0.05877934 0.05664407 0.05660583 0.05884629 0.06257334 0.06609352 0.06758151 0.06642889 0.06365006 0.06081159
 0.05899877 0.05881973 0.06056529 0.06390735 0.06787367 0.07140665 0.07379431 0.07474966 0.07447721 0.07354356
 0.0724432 0.07150845 0.07120904 0.0718696 0.07289572 0.07299415 0.07158001 0.06955804 0.06839062 0.06858495
 0.06928806 0.06932628 0.06839633 0.06687444 0.06464782 0.06108881 0.05648099 0.05241024 0.05018094 0.0498191
 0.05100805 0.05359608 0.05648973 0.05758803 0.05607803 0.05390368 0.05383673 0.05651851 0.06012814 0.06260866
 0.06357439 0.06416498 0.0655757 0.06783289 0.06964684 0.06938465 0.06668848 0.06338393 0.06219209 0.06406072
 0.06725314 0.06948426 0.07033042 0.07097791 0.07214828 0.07297976 0.07192579 0.06859156 0.06472082 0.06311837
 0.06520744 0.06960572 0.07312638 0.07313423 0.06932211 0.06378848 0.0594028 0.05781534 0.05901191 0.06241148
 0.06750819 0.07329512 0.07799439 0.08004898 0.07925473 0.07668273 0.07345252 0.06969357 0.06512557 0.06078003
 0.05921431 0.06209773 0.06807578 0.07389705 0.0773142 0.07820566 0.07730988 0.07483671 0.07067974 0.06576441
 0.06249063 0.06286943 0.06610128 0.06902529 0.06942676 0.06805916 0.06702428 0.06715076 0.06767698 0.06786413
 0.06805229 0.06908181 0.07109541 0.07321161 0.07437764 0.07432643 0.07363158 0.07303572 0.07277313 0.07239789
 0.07141759 0.07027841 0.07031401 0.07228211 0.07532088 0.07783586 0.07909945 0.07951199 0.0795338 0.07887141
 0.07689874 0.07383217 0.07121301 0.07076848 0.07274255 0.07573789 0.07816713 0.0793993 0.07961969 0.07925174
 0.07866408 0.07805195 0.0775087 0.07728698 0.07772952 0.07877854 0.07986782 0.08049065 0.0806146 0.08042693
 0.07997306 0.07922971 0.07836387 0.07773737 0.07764603 0.07809572 0.07884667 0.07962824 0.08023706 0.0804943
 0.08030592 0.07980545 0.07927863 0.07890168 0.07867615 0.07861218 0.07879521 0.07922223 0.07971416 0.0800664
 0.0802131 0.08020519 0.08009708 0.07990659 0.07965481 0.07941051 0.0792864 0.07936169 0.07958774 0.07981944
 0.0799811 0.08013867 0.08034921 0.08051643 0.0804936 0.08028482 0.08005044 0.079932 0.07994193 0.0800095
 0.08005968 0.08002043 0.07981266 0.07942098 0.07898948 0.07876907 0.07891504 0.07937202 0.07996626 0.0805344
 0.08095251 0.08115387 0.08117647 0.08112551 0.08105272 0.08092045 0.08069876 0.08045755 0.08034699 0.08048545
 0.08085203 0.08129378 0.08165036 0.08185511 0.08192841 0.08194098 0.08198927 0.08212259 0.08226962 0.08230697
 0.08221901 0.08212797 0.08214785 0.08225548 0.08232692 0.08228145 0.08217341 0.0821359 0.08224024 0.08243323
 0.08261599 0.08275357 0.08288935 0.0830646 0.08323742 0.08329731 0.08318282 0.08296987 0.08280049 0.08273485
 0.08273032 0.08275683 0.08285278 0.08304098 0.08325078 0.08337417 0.0833825 0.08335066 0.08336031 0.08340327
 0.08339893 0.08329497 0.08312604 0.08297613 0.08290759 0.08292751 0.08299576 0.08305155 0.08304677 0.08297314
 0.08286133 0.08274935 0.08265342 0.08257927 0.08255735 0.08263597 0.08281354 0.08299184 0.0830345 0.08288912
 0.08264171 0.08243883 0.08235512 0.08234011 0.08228855 0.08214763 0.08194949 0.08175816 0.08161046 0.08150595
 0.08142883 0.0813689 0.08133614 0.08136263 0.08147098 0.08162354 0.08172134 0.08168386 0.08152902 0.08135438
 0.08124641 0.08122529 0.08125973 0.08130698 0.08134919 0.08140984 0.08151716 0.08164293 0.08171393 0.08170016
 0.08165526 0.08165797 0.08175106 0.08193567 0.08216915 0.08236041 0.08242759 0.08238398 0.08232971 0.08234555
 0.08242859 0.082536 0.08264866 0.08277126 0.08290103 0.0830293 0.08316749 0.08334793 0.08359148 0.08387893
 0.08415603 0.08436955 0.08451095 0.08463362 0.08481923 0.08511184 0.08547837 0.08583585 0.08612168 0.08634023
 0.08654188 0.0867606 0.08698871 0.08721884 0.08748209 0.08781371 0.08819609 0.08857125 0.0889059 0.08921535
 0.08952758 0.08985073 0.09017998 0.0905206 0.09089609 0.09132577 0.09178433 0.09219586 0.09249359 0.09268774
 0.09286217 0.09310783 0.09346046 0.09387441 0.09424203 0.09447455 0.09459648 0.09473486 0.09498346 0.09530333
 0.09559414 0.09583794 0.09611886 0.09650183 0.09694058 0.09732627 0.09760229 0.09780972 0.09802704 0.09828113
 0.09852476 0.09870059 0.09881419 0.0989251 0.09907329 0.09925125 0.09945892 0.09974019 0.1001258 0.1005666
 0.1009653 0.1012627 0.101465 0.1016077 0.1017232 0.101831 0.1019308 0.1020162 0.1021038 0.1022202
 0.1023529 0.1024534 0.102507 0.1025639 0.1026806 0.102866 0.1031055 0.1033982 0.1037365 0.1040777
 0.104385 0.1046876 0.1050488 0.1054621 0.1058234 0.1060416 0.1061382 0.1061999 0.1062691 0.1063389
 0.1064318 0.1066106 0.1069021 0.1072616 0.1076299 0.1079877 0.1083434 0.1086928 0.109005 0.1092384
 0.1093693 0.1094131 0.1094235 0.1094691 0.1096046 0.1098469 0.1101619 0.1104823 0.1107487 0.1109278
 0.1109959 0.1109413 0.1108083 0.1107052 0.1107196 0.110821 0.1108766 0.1107657 0.1104563 0.1099785
 0.1093651 0.1086429 0.1078638 0.1071111 0.1064676 0.1059822 0.105678 0.1055864 0.1057532 0.1061904
 0.1068267 0.1075296 0.1081771 0.1086847 0.108969 0.1089369 0.108549 0.1078733 0.1070485 0.1062028
 0.1054125 0.1046997 0.1040402 0.1034044 0.1028325 0.1024687 0.1024996 0.103053 0.1041401 0.1056528
 0.1073913 0.1091225 0.1106655 0.1119562 0.1130361 0.1139793 0.1148354 0.1156324 0.1164006 0.1171571
 0.1178799 0.1185292 0.1190971 0.1196115 0.1200942 0.1205376 0.120921 0.1212279 0.1214575 0.1216348
 0.1217942 0.1219368 0.1220234 0.1220286 0.1219765 0.1219061 0.1218174 0.1216679 0.1214067 0.1210096
 0.1205127 0.1200403 0.1197924 0.1199726 0.1206903 0.121901 0.1234349 0.125088 0.1266923 0.1281202
 0.1292741 0.1301177 0.1307036 0.1311385 0.1315148 0.1318798 0.1322502 0.1326268 0.1330004 0.1333596
 0.1337005 0.1340325 0.1343744 0.1347386 0.1351126 0.1354613 0.135761 0.1360305 0.1363223 0.1366773
 0.1370834 0.1374877 0.1378552 0.1382018 0.1385546 0.1388958 0.1391795 0.1393975 0.1395975 0.1398375
 0.1401473 0.1405218 0.1409221 0.1412837 0.1415591 0.1417594 0.1419424 0.1421568 0.1424095 0.142683
 0.1429629 0.1432439 0.1435227 0.143802 0.1440966 0.1444147 0.1447299 0.1449926 0.1451824 0.1453363
 0.1455137 0.1457397 0.1459912 0.1462331 0.1464586 0.1466952 0.1469731 0.1472881 0.1475976 0.1478559
 0.1480526 0.1482157 0.1483838 0.1485782 0.1487979 0.1490318 0.1492682 0.1494989 0.1497227 0.1499483
 0.1501858 0.1504345 0.1506829 0.1509195 0.1511409 0.1513516 0.1515594 0.1517732 0.152003 0.1522616
 0.1525581 0.1528815 0.1531945 0.1534563 0.1536542 0.1538081 0.1539498 0.1541047 0.1542875 0.1544994
 0.1547279 0.1549575 0.1551811 0.1553994 0.1556148 0.1558298 0.15605 0.1562795 0.1565132 0.1567418
 0.1569657 0.1571988 0.1574519 0.1577164 0.1579694 0.1581959 0.1584011 0.1586034 0.158818 0.1590452
 0.1592708 0.1594816 0.1596799 0.159879 0.1600853 0.1602952 0.1605052 0.1607164 0.160928 0.1611362
 0.1613409 0.1615479 0.161761 0.1619772 0.1621899 0.1623986 0.1626094 0.1628269 0.1630483 0.1632674
 0.1634825 0.1636947 0.1639033 0.1641072 0.16431 0.1645178 0.1647334 0.1649533 0.1651707 0.1653821
 0.1655902 0.1658017 0.1660203 0.1662438 0.1664645 0.1666752 0.1668764 0.1670766 0.1672828 0.1674965
 0.1677179 0.1679483 0.1681839 0.1684163 0.1686405 0.1688586 0.169076 0.1692984 0.1695302 0.1697683
 0.1700043 0.1702335 0.170458 0.1706806 0.170902 0.1711202 0.1713301 0.1715258 0.1717067 0.1718789
 0.1720527 0.1722376 0.1724373 0.1726466 0.1728597 0.1730762 0.1732939 0.1735055 0.1737081 0.1739093
 0.1741175 0.1743344 0.1745566 0.1747768 0.1749888 0.1751965 0.1754096 0.1756307 0.1758557 0.1760818
 0.1763052 0.1765193 0.1767251 0.1769321 0.1771461 0.1773656 0.1775902 0.1778196 0.1780495 0.1782778
 0.1785061 0.1787332 0.1789575 0.1791817 0.1794047 0.1796197 0.1798279 0.1800402 0.1802614 0.1804866
 0.1807109 0.1809289 0.1811357 0.1813373 0.1815469 0.181768 0.1819967 0.1822319 0.1824702 0.1827042
 0.1829353 0.1831682 0.183394 0.1836017 0.1837987 0.1839986 0.1842041 0.1844139 0.1846249 0.1848172
 0.1849413 0.1848794 0.1843447 0.1827706 0.179292 0.1729165 0.1629229 0.149318 0.1329913 0.1153963
 0.09801675 0.08198489 0.06797135 0.05626916 0.04693858 0.03990347 0.03501197 0.03213443 0.03126744 0.03264047
 0.03682785 0.04440618 0.05468232 0.06457271 0.06980412 0.06828225 0.06209062 0.05559116 0.05180224 0.05094326
 0.05173186 0.0530674 0.05459356 0.05650411 0.05914548 0.06262198 0.06676938 0.07157435 0.07738515 0.08446296
 0.09244014 0.1004738 0.1079724 0.1150582 0.1222804 0.1299519 0.1378188 0.1453079 0.1519792 0.1577441
 0.162782 0.167344 0.1716104 0.1756617 0.1795258 0.1831883 0.1865207 0.1892458 0.1910655 0.1918879
 0.1919391 0.1916386 0.1913544 0.1912575 0.1913634 0.1916417 0.1920688 0.1926249 0.1932899 0.194043
 0.1948574 0.1957018 0.1965466 0.1973659 0.1981425 0.1988742 0.199564 0.200204 0.2007817 0.2012993
 0.2017706 0.2022082 0.2026217 0.2030184 0.2033985 0.2037583 0.2041 0.2044288 0.2047402 0.2050223
 0.2052715 0.205498 0.2057155 0.2059309 0.2061426 0.2063475 0.2065474 0.2067476 0.2069506 0.2071559
 0.2073621 0.207568 0.2077734 0.2079806 0.2081887 0.2083903 0.2085811 0.2087689 0.2089647 0.2091682
 0.2093729 0.2095771 0.2097809 0.2099788 0.2101673 0.2103537 0.2105507 0.2107614 0.2109748 0.2111784
 0.2113736 0.2115768 0.2117996 0.2120336 0.2122611 0.212474 0.2126762 0.2128747 0.2130805 0.213302
 0.2135288 0.2137331 0.2138996 0.2140456 0.2142064 0.2144032 0.2146273 0.2148528 0.2150643 0.2152682
 0.2154752 0.2156847 0.2158865 0.2160718 0.2162449 0.2164318 0.2166636 0.2169389 0.2172214 0.2174849
 0.2177345 0.2179797 0.2182188 0.2184536 0.2186837 0.2188855 0.2190342 0.2191533 0.2193166 0.219588
 0.2199585 0.2203465 0.2206703 0.220917 0.2211325 0.2213639 0.221633 0.22192 0.2221361 0.2221814
 0.222096 0.222094 0.2223666 0.2228902 0.2234792 0.2239791 0.2243576 0.2246548 0.224908 0.225117
 0.2252479 0.2252739 0.2252418 0.2252961 0.2255821 0.2260924 0.2266558 0.2271113 0.2274362 0.2276846
 0.2278934 0.2280756 0.2281887 0.2280864 0.227674 0.227175 0.2270686 0.2276284 0.2286134 0.2295244
 0.2300964 0.2304339 0.2307274 0.231019 0.2312542 0.2313311 0.2310014 0.230015 0.2286183 0.2276828
 0.2279882 0.2294406 0.2312257 0.23262 0.2334432 0.2338756 0.2341418 0.2343594 0.2344493 0.2341489
 0.2333112 0.2322915 0.2318502 0.2324505 0.2337358 0.2349086 0.2355413 0.2357956 0.2359914 0.2362532
 0.2364319 0.2360598 0.2346134 0.2322845 0.2303734 0.2303745 0.2325132 0.2354746 0.2377043 0.2387462
 0.2391281 0.2392167 0.2386783 0.2370792 0.2345364 0.2316741 0.2294228 0.228878 0.2305743 0.2335938
 0.2360927 0.2371194 0.2374135 0.2381847 0.2396683 0.2411421 0.2418652 0.2416493 0.2407232 0.2393225
 0.237582 0.2359214 0.2352716 0.2364129 0.2390288 0.2418237 0.2437198 0.2446712 0.2450975 0.2446268
 0.2418478 0.236007 0.2291279 0.2254517 0.2276977 0.2342167 0.2407553 0.2446352 0.2462265 0.2469552
 0.2473945 0.2471002 0.2448738 0.2394213 0.231389 0.2246406 0.2236409 0.2290372 0.2369305 0.2425174
 0.243356 0.2396209 0.233253 0.2273895 0.225073 0.2273998 0.233045 0.239574 0.2449045 0.2478711
 0.2482061 0.2464254 0.2437949 0.2420273 0.2420396 0.2425939 0.2412366 0.2374014 0.2333601 0.2308963
 0.2285528 0.224328 0.2200561 0.2201978 0.226036 0.2335288 0.23785 0.2382799 0.2373407 0.2361983
 0.2326671 0.2243601 0.2132187 0.205597 0.2067065 0.2152061 0.2244011 0.2287969 0.2284629 0.227068
 0.2269893 0.2268881 0.2235932 0.2162347 0.2083572 0.2049477 0.2071327 0.2111689 0.2128823 0.2110085
 0.2057394 0.1973732 0.1886976 0.1858596 0.1931849 0.2078832 0.2222307 0.2299286 0.2284091 0.2174575
 0.2000993 0.1844414 0.1797323 0.1880839 0.2019075 0.2108947 0.2102041 0.2013305 0.1876936 0.1722921
 0.1590967 0.1534883 0.1590298 0.1738452 0.1906768 0.2005046 0.1975297 0.1836804 0.1690028 0.1644416
 0.1718851 0.1828558 0.1880014 0.1855792 0.1801375 0.1766426 0.1776024 0.1826479 0.188942 0.1938367
 0.196986 0.1973813 0.1905068 0.1737838 0.1538182 0.1420604 0.1429086 0.1514487 0.1626294 0.1757863
 0.188667 0.1943259 0.1889645 0.17916 0.1762772 0.1844054 0.196845 0.2042795 0.2039862 0.200343
 0.1980591 0.1971441 0.1952545 0.1931477 0.1948834 0.2022215 0.2115455 0.2179003 0.2201501 0.2205284
 0.2208513 0.2211462 0.2209328 0.2200411 0.2185296 0.2168153 0.2155537 0.2148968 0.2143525 0.213536
 0.2121439 0.2088212 0.2014679 0.1902093 0.1792696 0.1736385 0.173799 0.1760628 0.1780474 0.1800709
 0.1800496 0.1720521 0.1541294 0.1347484 0.1266311 0.1344612 0.1513995 0.166879 0.1746884 0.1734968
 0.163708 0.1476997 0.1324063 0.1271464 0.1360176 0.153964 0.1721858 0.1857106 0.1939434 0.1964807
 0.1922359 0.1824787 0.1720342 0.1665368 0.1690188 0.1785674 0.1906008 0.1980257 0.1947131 0.1816051
 0.1694347 0.1708024 0.1869296 0.2055914 0.2148515 0.2151536 0.2144665 0.2158999 0.216172 0.2143254
 0.2152051 0.2228144 0.234414 0.2432145 0.2443285 0.2366891 0.2224154 0.2073018 0.1993128 0.2021831
 0.2111473 0.218103 0.2194415 0.2155752 0.2061563 0.1920715 0.1805062 0.1806277 0.1929678 0.2082044
 0.2177579 0.2216077 0.2244233 0.2275259 0.2272936 0.2206602 0.2102297 0.202678 0.2021473 0.2066197
 0.2113431 0.2138443 0.2139722 0.2110737 0.2044068 0.1963344 0.1923335 0.1962453 0.2062956 0.2167409
 0.2229914 0.2244803 0.2233067 0.2215075 0.2196771 0.2171544 0.2134234 0.2099013 0.2096421 0.2140621
 0.2206614 0.2255853 0.2280327 0.2305126 0.2349143 0.2399125 0.2425857 0.241606 0.2385036 0.236339
 0.2372513 0.2407539 0.244087 0.2445686 0.2421502 0.2397031 0.2403711 0.2445681 0.2499253 0.2539806
 0.2561818 0.2573781 0.2583783 0.2592514 0.2592782 0.257499 0.2540796 0.2511115 0.2511257 0.2545759
 0.2594057 0.2631733 0.265021 0.2655334 0.2653962 0.2646805 0.2632386 0.2613566 0.2597772 0.259114
 0.2594047 0.2602598 0.2612673 0.2621751 0.2628669 0.2633358 0.2636491 0.2638665 0.2640179 0.2641473
 0.2642884 0.2643858 0.2643492 0.2642218 0.2641968 0.2644041 0.264748 0.2650124 0.2650554 0.2648209
 0.2642338 0.2632242 0.2618544 0.2602974 0.2586488 0.2568678 0.2550092 0.2534744 0.2528924 0.2536499
 0.2555348 0.2578676 0.2599665 0.2614841 0.2624034 0.2628644 0.2630423 0.2630957 0.2631218 0.2631326
 0.263092 0.2629763 0.2627949 0.2625669 0.2623082 0.2620447 0.2618179 0.2616579 0.2615507 0.2614415
 0.2612694 0.2610015 0.2606485 0.2602536 0.2598523 0.2594306 0.2589236 0.258266 0.257449 0.2565314
 0.2556043 0.2547393 0.2539507 0.2531901 0.2523884 0.2515027 0.2505152 0.2493968 0.2481267 0.246767
 0.2454724 0.2443741 0.2434697 0.2426479 0.2417924 0.240836 0.2397548 0.2385638 0.2373116 0.2360425
 0.2347608 0.2334434 0.2320753 0.230655 0.2291765 0.2276261 0.2259959 0.2242956 0.222551 0.2207881
 0.2190008 0.2171184 0.2150088 0.2125228 0.2095452 0.2060183 0.2019441 0.1973904 0.1924985 0.1874667
 0.1825002 0.1777641 0.1733755 0.1694296 0.1660164 0.1632106 0.1610581 0.1595812 0.1587919 0.1586929
 0.1592717 0.160496 0.1623055 0.1645998 0.167233 0.17003 0.1728136 0.1754356 0.177817 0.1799778
 0.1820103 0.1839935 0.1859284 0.1877598 0.1894386 0.1909405 0.1922434 0.1933291 0.1942129 0.1949456
 0.195574 0.196111 0.1965496 0.1968927 0.197164 0.1973935 0.1976057 0.1978192 0.1980481 0.1982972
 0.1985644 0.1988537 0.199182 0.199569 0.2000242 0.2005468 0.2011285 0.2017581 0.2024289 0.2031453
 0.2039162 0.204749 0.2056594 0.2066811 0.2078555 0.2092028 0.2107015 0.2122947 0.2139132 0.2154872
 0.2169413 0.2181996 0.2192137 0.2199804 0.2205277 0.220891 0.221104 0.2211933 0.2211707 0.2210388
 0.220807 0.2204929 0.2201111 0.2196693 0.2191714 0.218616 0.2180034 0.2173505 0.2166933 0.2160639
 0.2154713 0.2149064 0.2143622 0.21384 0.2133381 0.2128396 0.2123223 0.2117818 0.2112363 0.210702
 0.2101709 0.2096153 0.2090012 0.2082932 0.2074629 0.2065066 0.2054478 0.2043151 0.2031173 0.2018444
 0.2004835 0.1990299 0.1974855 0.1958576 0.1941601 0.1924022 0.1905683 0.1886266 0.1865784 0.184493
 0.182472 0.1805848 0.178847 0.1772418 0.1757402 0.1743101 0.1729288 0.1715872 0.1702833 0.1690214
 0.1678167 0.1666852 0.1656289 0.1646393 0.1637126 0.1628571 0.1620879 0.1614145 0.1608328 0.1603324
 0.1599061 0.1595445 0.1592385 0.159003 0.1588746 0.1588606 0.1589037 0.1589175 0.1588519 0.1587144
 0.158544 0.1583766 0.1582305 0.1581116 0.1580139 0.1579048 0.1577219 0.1573905 0.1568348 0.1559788
 0.1547785 0.1532614 0.1515149 0.1496466 0.147776 0.1460348 0.1445322 0.1433202 0.1423936 0.1417009
 0.1411633 0.1407203 0.1403675 0.1401479 0.1401115 0.1402579 0.1404886 0.1406531 0.1406861 0.1406778
 0.1407871 0.1411219 0.1416961 0.1424315 0.1431881 0.1438389 0.1443246 0.1446366 0.1447948 0.1448512
 0.1448568 0.1448142 0.1446973 0.1444981 0.1442261 0.1438934 0.1435147 0.1430893 0.1425912 0.1420065
 0.1413477 0.1406167 0.1397999 0.1388936 0.1378788 0.1367158 0.1354535 0.1343055 0.1335465 0.133348
 0.1337059 0.1344579 0.1353892 0.1363707 0.1373334 0.1380951 0.138414 0.138365 0.13852 0.1395314
 0.1415112 0.1439052 0.1459799 0.1473414 0.1479817 0.1480078 0.1475023 0.1465413 0.1451439 0.1432443
 0.1408357 0.1380562 0.1350676 0.1319982 0.1290267 0.1263476 0.1240614 0.1221997 0.1207739 0.1198226
 0.1194579 0.1192932 0.1174505 0.1115373 0.1023335 0.09543169 0.09653278 0.1050388 0.1144761 0.1193371
 0.1194601 0.1177668 0.116278 0.1153057 0.1147595 0.1147921 0.115528 0.1168085 0.1182327 0.1193972
 0.1201383 0.1204938 0.1204314 0.1196214 0.1173575 0.1127808 0.1055691 0.09656768 0.08751249 0.08000435
 0.07477437 0.07170281 0.07017422 0.06943156 0.06893955 0.06863649 0.06883432 0.0698438 0.07170977 0.07427773
 0.07737009 0.08075644 0.0840368 0.08679248 0.08890273 0.09055489 0.09191392 0.09292655 0.09346414 0.0935099
 0.09316079 0.09254707 0.09179791 0.09101067 0.09017681 0.08917331 0.08793753 0.08666465 0.08571146 0.08525822
 0.08517073 0.08521602 0.08527523 0.08531813 0.08531904 0.0852659 0.08518679 0.08515224 0.0852665 0.08559804
 0.08608543 0.08656218 0.08689068 0.08705111 0.08711649 0.08712871 0.08697021 0.086458 0.08565828 0.08493511
 0.08448866 0.08401608 0.08310542 0.0818627 0.08087049 0.08055262 0.08079179 0.08115662 0.0813097 0.08117343
 0.08089933 0.08079287 0.0811196 0.08180004</values></Ydata></ScSm><ScRf><Ydata ylabel="Single channel"><values byteorder="INTEL" format="FLOAT32" numvalues="1820"> 0.06068033 0.06083502 0.06092945 0.06096198 0.06095742 0.06096135 0.06102272 0.06116544 0.06136832 0.06157162
 0.06171503 0.06177852 0.06177888 0.06173316 0.06165699 0.06159998 0.06163672 0.06179524 0.06201326 0.06218025
 0.0622231 0.06216722 0.06212301 0.06218047 0.06228963 0.0622703 0.06198172 0.06148506 0.06100477 0.06071967
 0.06065166 0.06079859 0.06124313 0.06193539 0.0624528 0.06230301 0.06153984 0.06079193 0.06056219 0.06074357
 0.0609148 0.06082918 0.0604922 0.06006285 0.05989113 0.06042168 0.06175445 0.06328732 0.06393452 0.06281058
 0.05986273 0.05606984 0.05308025 0.05232809 0.05402451 0.05687093 0.05903096 0.05959439 0.05901615 0.05818647
 0.057469 0.05681311 0.05638152 0.05659366 0.05754779 0.05862113 0.05879005 0.05751015 0.05536564 0.05365345
 0.05319639 0.05382658 0.05508307 0.05671506 0.0579752 0.05721752 0.05351859 0.04872605 0.04663208 0.04936734
 0.05512765 0.05993745 0.06118479 0.05908702 0.05553899 0.05254051 0.05143681 0.05255958 0.05517748 0.0581031
 0.06040723 0.06145805 0.06076645 0.05841362 0.05546306 0.05344252 0.05340686 0.05552739 0.05905598 0.06239059
 0.06380256 0.06271429 0.0600844 0.05739534 0.05567696 0.05551033 0.05717473 0.06035623 0.06412439 0.06747021
 0.06972247 0.07062045 0.0703662 0.06949605 0.06847299 0.06760737 0.06734062 0.06797419 0.06893748 0.06900356
 0.0676287 0.06568827 0.0645805 0.06478333 0.06547481 0.06552975 0.06465504 0.06320636 0.06107895 0.05768591
 0.05330873 0.04945771 0.04736326 0.04703801 0.04817745 0.05064361 0.05340584 0.05447058 0.05305907 0.05100617
 0.0509372 0.0534666 0.05687994 0.05923495 0.06016266 0.06073245 0.06206922 0.06419918 0.06590709 0.06565033
 0.06309026 0.0599582 0.05883585 0.06061981 0.06365591 0.06577305 0.0665756 0.06719887 0.06832935 0.06914
 0.06815242 0.06499214 0.06132624 0.05982756 0.06184424 0.06605115 0.06941201 0.06942338 0.06580089 0.06054692
 0.05638932 0.05489027 0.0560359 0.05928696 0.06417548 0.06973967 0.07427004 0.07626788 0.07553141 0.07308432
 0.07000627 0.06643286 0.06209805 0.05797989 0.05651862 0.05931527 0.06508152 0.07070769 0.07403717 0.07494592
 0.07413508 0.07180074 0.06783962 0.06314853 0.06004782 0.06047614 0.06365225 0.06651746 0.06693552 0.06564131
 0.06467023 0.0648251 0.0653718 0.06559964 0.0658413 0.06690964 0.06893526 0.07105306 0.07223594 0.07222748
 0.07159378 0.071063 0.07085895 0.0705375 0.06961918 0.06855514 0.06866199 0.07067594 0.07373537 0.07626431
 0.07754955 0.07799476 0.0780612 0.07745832 0.07556303 0.07259052 0.0700703 0.06970894 0.07173714 0.07476497
 0.07722512 0.07850125 0.07878047 0.07848056 0.07796513 0.0774283 0.07696208 0.07681243 0.07731439 0.07841123
 0.07954638 0.0802208 0.08040147 0.08027086 0.07987206 0.07918423 0.0783776 0.07781314 0.0777832 0.07829429
 0.07911225 0.07996877 0.08065377 0.08097817 0.08084297 0.08038475 0.07989623 0.07956042 0.07938384 0.07937863
 0.07962769 0.08012068 0.08067031 0.08106743 0.08124769 0.0812699 0.08120018 0.08106333 0.08087521 0.08069338
 0.08062689 0.0807597 0.08104399 0.08132814 0.08153491 0.08174056 0.08201191 0.08224618 0.08227758 0.08209936
 0.08188196 0.08178724 0.08183806 0.08195823 0.08206096 0.08206566 0.08189063 0.08152414 0.0811189 0.08093211
 0.08111838 0.08162075 0.08226918 0.08290258 0.08338903 0.08364891 0.08371498 0.08369537 0.0836449 0.08352841
 0.08332216 0.08310367 0.08302549 0.08320373 0.08361515 0.08410323 0.08450063 0.08473527 0.08483087 0.08486926
 0.08495674 0.08514123 0.08533701 0.08540487 0.0853282 0.08524421 0.08528071 0.08541277 0.08550529 0.08547225
 0.08537398 0.08535322 0.08548471 0.08570965 0.08592135 0.08608458 0.08625072 0.08646639 0.08668181 0.0867695
 0.08665934 0.08643854 0.08626854 0.08621423 0.08622162 0.08625587 0.08636749 0.08658684 0.08682868 0.0869659
 0.08697314 0.08694649 0.08697952 0.0870546 0.08707358 0.08697468 0.0867956 0.08663104 0.0865548 0.08657943
 0.0866618 0.08673293 0.08673877 0.0866716 0.08656625 0.08646285 0.08637863 0.08632538 0.08634421 0.08648762
 0.08674078 0.08697788 0.08703894 0.08687118 0.08658631 0.08636397 0.08629301 0.0863067 0.08626682 0.08609931
 0.08584486 0.08559643 0.08541238 0.08528958 0.08519475 0.085107 0.08504342 0.08505259 0.08516414 0.08532412
 0.08540189 0.08529872 0.08504735 0.08477928 0.08460234 0.08453362 0.08452837 0.08453493 0.08453444 0.08455557
 0.0846321 0.08473071 0.08476098 0.08468155 0.08455714 0.08449142 0.08454295 0.08470906 0.08493003 0.08509597
 0.08511525 0.0850082 0.08489388 0.08486748 0.08492497 0.0850118 0.08509859 0.08518687 0.08527639 0.08536416
 0.08546847 0.08562665 0.08585861 0.08613736 0.08639917 0.08658653 0.08669333 0.08677725 0.08692174 0.08717176
 0.08749834 0.08782314 0.08808123 0.08826783 0.08842818 0.08860232 0.08879122 0.08898561 0.08920611 0.08948344
 0.0898091 0.09013971 0.0904481 0.090742 0.09103543 0.09132843 0.09161921 0.09192266 0.09227122 0.09268703
 0.09313737 0.09352903 0.09377919 0.09389883 0.09399249 0.0941776 0.09450334 0.09491536 0.09528188 0.09549238
 0.09556702 0.09564351 0.09582697 0.09608418 0.09632387 0.0965452 0.09684309 0.09726901 0.09774257 0.09812475
 0.09835347 0.09848894 0.0986363 0.09883714 0.09903975 0.09917524 0.09924781 0.09932578 0.09945357 0.09961851
 0.09981604 0.1000911 0.1004734 0.1009081 0.1012976 0.1015928 0.1018093 0.1019772 0.1021103 0.1022079
 0.1022599 0.1022672 0.1022698 0.1023225 0.1024255 0.1025153 0.1025493 0.1025656 0.1026332 0.1027798
 0.1029968 0.1032758 0.1035955 0.1039015 0.1041567 0.1044067 0.1047335 0.1051294 0.1054705 0.1056505
 0.1056974 0.1057136 0.1057472 0.1057826 0.1058344 0.1059678 0.1062181 0.1065446 0.1068849 0.1072167
 0.1075506 0.1078898 0.1082084 0.1084576 0.1085921 0.108608 0.1085628 0.1085515 0.1086526 0.1088854
 0.1092049 0.1095384 0.1098288 0.110043 0.1101512 0.1101371 0.110047 0.1099969 0.1100817 0.1102753
 0.1104435 0.1104559 0.1102653 0.1098919 0.10937 0.1087348 0.1080422 0.1073751 0.1068159 0.1064134
 0.1061835 0.1061456 0.1063412 0.10679 0.1074323 0.1081421 0.1088019 0.1093349 0.1096638 0.109696
 0.109388 0.1088033 0.1080761 0.1073311 0.1066454 0.1060405 0.1054829 0.1049278 0.1044089 0.104078
 0.1041301 0.1046847 0.1057276 0.1071236 0.1086607 0.1101149 0.1113355 0.1123003 0.1130882 0.1137916
 0.1144575 0.1151048 0.1157592 0.1164328 0.1170865 0.1176579 0.1181312 0.1185476 0.1189474 0.119332
 0.119679 0.1199687 0.1202005 0.1204018 0.1206012 0.1207784 0.1208688 0.1208407 0.1207393 0.12063
 0.1205226 0.120369 0.1201147 0.1197429 0.1193 0.1189071 0.1187404 0.1189642 0.1196428 0.1206971
 0.1219564 0.123265 0.1245309 0.1256808 0.1266215 0.1272896 0.1277164 0.1280076 0.1282647 0.1285402
 0.1288459 0.1291714 0.1294959 0.1298006 0.1300828 0.1303598 0.1306614 0.1310032 0.1313594 0.1316733
 0.1319127 0.1321129 0.1323522 0.132681 0.1330754 0.133465 0.1338075 0.1341245 0.1344518 0.1347717
 0.1350286 0.1352065 0.1353581 0.1355556 0.1358368 0.1361937 0.1365763 0.1369098 0.1371437 0.1372982
 0.1374429 0.1376295 0.1378606 0.1381149 0.138377 0.1386377 0.138892 0.1391487 0.1394296 0.1397426
 0.1400548 0.1403107 0.1404842 0.140607 0.1407387 0.1409148 0.1411279 0.1413501 0.141566 0.1417889
 0.1420482 0.1423524 0.1426668 0.1429352 0.1431278 0.1432628 0.1433841 0.1435276 0.1437061 0.1439143
 0.1441378 0.1443586 0.1445634 0.1447535 0.1449445 0.1451499 0.1453678 0.1455865 0.1457994 0.1460081
 0.1462151 0.1464214 0.146633 0.1468662 0.1471378 0.1474414 0.1477397 0.1479894 0.1481754 0.148315
 0.1484346 0.1485542 0.1486897 0.1488528 0.1490435 0.1492492 0.1494575 0.1496637 0.1498691 0.1500739
 0.1502779 0.150483 0.1506926 0.1509077 0.1511276 0.1513549 0.151592 0.1518319 0.1520585 0.1522619
 0.1524481 0.1526323 0.1528265 0.1530305 0.1532343 0.1534286 0.1536148 0.1538025 0.1539964 0.154192
 0.1543838 0.1545706 0.1547547 0.1549385 0.1551257 0.1553196 0.1555208 0.1557244 0.1559227 0.1561109
 0.1562919 0.156473 0.1566603 0.1568561 0.1570591 0.1572653 0.1574724 0.1576818 0.1578925 0.1580964
 0.1582861 0.1584658 0.1586465 0.1588354 0.1590333 0.1592396 0.1594543 0.1596744 0.1598919 0.1600984
 0.1602926 0.1604823 0.1606765 0.1608765 0.1610796 0.1612863 0.1614985 0.1617143 0.1619299 0.1621424
 0.1623516 0.1625609 0.162776 0.1629985 0.1632244 0.1634469 0.1636596 0.1638601 0.164051 0.1642362
 0.1644157 0.1645914 0.1647715 0.1649605 0.1651511 0.1653329 0.1655048 0.1656725 0.165843 0.1660234
 0.1662194 0.1664294 0.1666445 0.1668552 0.1670572 0.1672547 0.1674565 0.1676651 0.1678738 0.1680781
 0.1682795 0.168479 0.1686768 0.1688785 0.1690907 0.1693118 0.1695344 0.1697528 0.1699647 0.1701723
 0.1703793 0.1705846 0.1707851 0.1709867 0.1711982 0.1714149 0.1716236 0.1718211 0.1720158 0.1722162
 0.1724261 0.1726416 0.1728524 0.1730535 0.1732534 0.1734606 0.1736742 0.1738921 0.1741146 0.1743384
 0.1745602 0.1747811 0.1749979 0.1752031 0.1754009 0.1756054 0.1758212 0.1760418 0.1762606 0.17647
 0.1766671 0.1768657 0.1770802 0.177292 0.1774391 0.1773953 0.1768855 0.1753716 0.172024 0.1658854
 0.1562623 0.143169 0.1274708 0.110571 0.09389149 0.07850578 0.06504332 0.05378545 0.0448062 0.03804953
 0.03337305 0.03064236 0.02984034 0.03117711 0.03520209 0.04247592 0.05234193 0.06183924 0.06685488 0.06537211
 0.05940033 0.05314503 0.04951426 0.0487129 0.04949261 0.05078068 0.05223272 0.0540482 0.05657436 0.05991114
 0.06389001 0.06849552 0.07407364 0.08088614 0.08857618 0.09631936 0.1035366 0.1103472 0.1172887 0.1246679
 0.1322382 0.1394419 0.1458547 0.1513976 0.15625 0.160653 0.1647704 0.1686723 0.1723897 0.1759185
 0.1791367 0.1817682 0.1835169 0.1842952 0.1843307 0.1840385 0.1837746 0.183695 0.1838039 0.1840692
 0.1844738 0.1850078 0.1856598 0.1864092 0.1872197 0.1880505 0.1888747 0.1896769 0.1904412 0.1911545
 0.1918133 0.1924201 0.1929788 0.1934944 0.193969 0.1944026 0.1948013 0.1951748 0.195528 0.1958629
 0.1961858 0.1964993 0.1967972 0.1970715 0.1973204 0.1975456 0.1977548 0.1979641 0.1981877 0.1984238
 0.19866 0.198887 0.1991019 0.199305 0.1994998 0.1996902 0.1998781 0.200065 0.2002534 0.2004435
 0.2006352 0.2008316 0.2010361 0.2012442 0.2014464 0.2016382 0.2018224 0.2020073 0.2022004 0.2024033
 0.20261 0.2028146 0.2030143 0.2032053 0.203386 0.2035673 0.2037652 0.2039831 0.2042115 0.2044417
 0.2046675 0.2048815 0.2050831 0.2052842 0.2054898 0.2056837 0.2058483 0.2059931 0.2061517 0.2063488
 0.2065755 0.2068029 0.2070147 0.2072174 0.20742 0.2076202 0.2078101 0.207984 0.2081449 0.2083168
 0.2085353 0.208806 0.2090903 0.2093489 0.2095779 0.2097937 0.2100093 0.2102372 0.2104793 0.2107077
 0.2108862 0.211021 0.2111736 0.2114118 0.2117457 0.2121122 0.2124331 0.2126841 0.2128989 0.2131238
 0.2133864 0.213667 0.2138729 0.2139046 0.2138093 0.2138059 0.2140833 0.2146115 0.2152001 0.2156929
 0.2160597 0.2163446 0.2165878 0.2167891 0.2169119 0.2169286 0.2168881 0.2169372 0.217221 0.2177286
 0.2182827 0.2187193 0.21902 0.2192468 0.2194405 0.2196136 0.2197253 0.2196341 0.2192448 0.2187708
 0.2186753 0.2192194 0.2201641 0.2210283 0.2215692 0.2218982 0.2221954 0.2224897 0.2227228 0.2227992
 0.2224841 0.2215385 0.2202011 0.2193131 0.2196228 0.2210329 0.2227573 0.2241048 0.2249043 0.2253231
 0.2255742 0.2257802 0.2258768 0.2256109 0.2248271 0.2238548 0.2234269 0.2240041 0.2252558 0.2264129
 0.2270521 0.2273191 0.2275186 0.2277747 0.2279519 0.2276023 0.2262114 0.2239541 0.2220915 0.2220846
 0.2241591 0.2270351 0.2292008 0.2302175 0.2306008 0.230703 0.2301937 0.2286523 0.2261986 0.2234387
 0.2212688 0.2207515 0.2224165 0.2253778 0.2278316 0.2288363 0.2291134 0.2298608 0.2313225 0.2327887
 0.2335198 0.2333227 0.2324236 0.2310606 0.2293712 0.2277686 0.2271585 0.2282925 0.2308534 0.2335766
 0.2354189 0.2363474 0.2367808 0.2363572 0.2336933 0.2280462 0.2213798 0.2178138 0.2199852 0.2262948
 0.2326272 0.2363963 0.2379632 0.2387029 0.2391613 0.238901 0.2367589 0.2314836 0.2237081 0.2171864
 0.2162533 0.221534 0.2292344 0.2346834 0.2355122 0.2319001 0.2257361 0.2200597 0.2178207 0.2200934
 0.225605 0.2319867 0.2371954 0.2400878 0.2404127 0.2386882 0.2361583 0.2344913 0.2345678 0.2351662
 0.2338952 0.2302126 0.2263284 0.2239645 0.2216976 0.2175934 0.2134521 0.213617 0.2193301 0.2266532
 0.2308921 0.2313555 0.2305035 0.2294668 0.2261066 0.2180892 0.2073007 0.1999368 0.2010877 0.2094525
 0.2184974 0.2228572 0.2226031 0.2213222 0.2213341 0.2213249 0.2181962 0.2111083 0.2035398 0.2003694
 0.2026871 0.2068183 0.208672 0.2070023 0.2019826 0.1939001 0.1855052 0.1828586 0.1902266 0.2048661
 0.2191687 0.2269198 0.2255715 0.2148935 0.1978769 0.1825695 0.1781529 0.1867102 0.2006916 0.2098616
 0.2094196 0.2008457 0.1875285 0.17246 0.1596338 0.1544735 0.160589 0.1761143 0.1937147 0.2042086
 0.2016452 0.1879675 0.1734677 0.1693829 0.1776346 0.1894733 0.195265 0.1932311 0.1880779 0.1849572
 0.1865054 0.1923504 0.1994987 0.2051601 0.2089791 0.2098488 0.202895 0.185326 0.164182 0.1516954
 0.1525859 0.1616426 0.1735044 0.1874781 0.2011603 0.2071293 0.2013122 0.1906934 0.1873635 0.1956822
 0.2085535 0.2161148 0.2154991 0.2113521 0.2086593 0.2074408 0.2052374 0.2028562 0.20457 0.2122238
 0.2220107 0.228721 0.2311606 0.2316789 0.2321856 0.2326987 0.2326924 0.2319763 0.23062 0.2290763
 0.2280431 0.2276834 0.2274766 0.2270106 0.22595 0.2228234 0.2153515 0.2036449 0.1922289 0.1864587
 0.1868451 0.189423 0.1916439 0.1938634 0.193846 0.1852152 0.165873 0.1449201 0.1360383 0.1442693
 0.162259 0.178643 0.186754 0.1851928 0.1744376 0.1570547 0.1404054 0.1343324 0.1431347 0.1614513
 0.1799971 0.19356 0.201582 0.2037239 0.1988927 0.1884043 0.1772452 0.1712166 0.1734061 0.1828367
 0.19479 0.2020131 0.1982699 0.1845448 0.1717733 0.1727677 0.1887725 0.2073888 0.2165104 0.2165813
 0.2156761 0.2169545 0.2170964 0.215113 0.2158843 0.2234696 0.23514 0.2440678 0.245322 0.2378207
 0.2237012 0.2088093 0.2011709 0.2045231 0.2140009 0.2213717 0.22297 0.2192142 0.2097615 0.1955486
 0.1839279 0.1842451 0.1970189 0.2127249 0.2226187 0.2266971 0.2297272 0.2330375 0.2329119 0.226228
 0.2156814 0.2081268 0.2078024 0.2126223 0.2177056 0.2205228 0.220927 0.2182354 0.2116562 0.2036029
 0.1997234 0.2039867 0.2145457 0.2254326 0.2318725 0.2332588 0.2317539 0.2294801 0.227098 0.2239773
 0.2196083 0.2154396 0.2146007 0.2185652 0.2248069 0.2293977 0.2315058 0.2336714 0.2378107 0.2425765
 0.245002 0.2437395 0.2403369 0.2378797 0.2385145 0.2417507 0.244832 0.2450897 0.2424792 0.2398581
 0.2403564 0.2443962 0.2496338 0.2536244 0.255811 0.2570263 0.2580646 0.2589825 0.2590456 0.2572801
 0.2538455 0.2508375 0.2507994 0.2541996 0.2589884 0.2627222 0.2645424 0.2650391 0.2649032 0.2642063
 0.2627967 0.2609503 0.2593931 0.2587257 0.2589913 0.2598202 0.2608153 0.2617211 0.2624071 0.2628601
 0.2631541 0.2633543 0.2634824 0.2635698 0.2636499 0.2636831 0.2635978 0.2634459 0.2634174 0.2636322
 0.2639828 0.2642459 0.2642818 0.2640461 0.2634786 0.2625185 0.2612289 0.2597792 0.2582574 0.2566081
 0.2548708 0.2534445 0.2529726 0.2538596 0.2558947 0.258377 0.2605955 0.2621903 0.2631575 0.2636603
 0.2638841 0.2639726 0.2639974 0.2639572 0.2638236 0.2635892 0.2632741 0.2629038 0.2624986 0.2620846
 0.2617017 0.2613843 0.2611271 0.2608773 0.2605698 0.260171 0.2596936 0.2591772 0.2586508 0.2581016
 0.2574769 0.2567262 0.255845 0.2548828 0.2539159 0.2530106 0.2521904 0.2514273 0.250671 0.2498821
 0.2490245 0.2480469 0.2469211 0.2457177 0.2445977 0.2436924 0.2429978 0.2423964 0.241757 0.2409998
 0.2401039 0.2391007 0.2380506 0.2369972 0.2359367 0.2348382 0.2336766 0.2324358 0.2311009 0.2296645
 0.2281361 0.2265426 0.2249223 0.223304 0.2216677 0.2199256 0.2179512 0.2156203 0.2128237 0.2094716
 0.2055296 0.2010651 0.1962513 0.19131 0.1864384 0.1817798 0.1774466 0.1735478 0.1701841 0.1674303
 0.1653314 0.1639125 0.1631877 0.1631668 0.1638513 0.1652154 0.1671866 0.1696454 0.1724415 0.1754125
 0.1783944 0.1812363 0.1838379 0.1861955 0.1883901 0.190495 0.1924987 0.1943347 0.1959615 0.1973833
 0.1986114 0.1996458 0.2004959 0.2011924 0.2017742 0.2022708 0.2026971 0.2030589 0.2033615 0.2036096
 0.2038084 0.2039719 0.2041295 0.2043123 0.2045339 0.2047871 0.2050614 0.2053651 0.2057297 0.2061812
 0.2067061 0.207259 0.2078086 0.2083624 0.2089467 0.2095838 0.210295 0.2111129 0.2120747 0.2131974
 0.2144606 0.2158144 0.2171991 0.2185471 0.2197746 0.220797 0.2215626 0.2220649 0.2223312 0.2224105
 0.2223579 0.2222046 0.2219448 0.2215631 0.2210672 0.2204895 0.2198664 0.2192227 0.218569 0.2179048
 0.2172275 0.2165397 0.2158509 0.2151711 0.2145032 0.2138446 0.2131972 0.2125716 0.2119756 0.211403
 0.210837 0.2102637 0.2096786 0.2090876 0.2084973 0.2078986 0.2072575 0.2065334 0.2057097 0.2047978
 0.2038092 0.2027339 0.2015556 0.2002789 0.1989249 0.1975019 0.1959978 0.1944045 0.1927349 0.1910033
 0.1891963 0.1872851 0.1852733 0.1832277 0.1812477 0.1794061 0.1777168 0.176147 0.1746507 0.1732048
 0.1718244 0.1705372 0.1693436 0.1682148 0.167124 0.1660647 0.1650432 0.164074 0.1631795 0.1623798
 0.1616795 0.1610679 0.1605307 0.16006 0.1596558 0.1593166 0.1590429 0.1588524 0.1587721 0.1587949
 0.1588601 0.1588903 0.1588407 0.1587155 0.1585577 0.1584189 0.1583249 0.1582697 0.1582336 0.1581829
 0.1580523 0.1577519 0.1571967 0.1563263 0.1551202 0.1536097 0.1518685 0.1500019 0.1481483 0.1464526
 0.1450077 0.1438408 0.1429478 0.1422987 0.1418207 0.1414331 0.1411131 0.140907 0.1408809 0.1410444
 0.1412952 0.1414726 0.1415149 0.1415365 0.1417143 0.1421374 0.1427769 0.1435347 0.1442924 0.1449584
 0.145489 0.1458668 0.1460956 0.1462148 0.146265 0.1462403 0.1461161 0.1459032 0.1456349 0.1453298
 0.1449848 0.1445783 0.1440842 0.1435045 0.1428619 0.1421562 0.1413699 0.1404968 0.1395074 0.1383462
 0.1370595 0.1358815 0.1351196 0.1349659 0.135406 0.1362459 0.1372465 0.1382817 0.1393006 0.1401309
 0.1405249 0.140543 0.1407475 0.1417958 0.1438106 0.1462411 0.1483591 0.1497923 0.1505478 0.1507057
 0.1502966 0.1493708 0.1479613 0.1460254 0.1435661 0.1407221 0.1376607 0.1345285 0.131525 0.1288445
 0.1265664 0.1247029 0.1232593 0.1222756 0.1218788 0.1217032 0.1198546 0.1138858 0.1045665 0.09758005
 0.09873471 0.1074303 0.1170825 0.1220807 0.1222483 0.120553 0.1190569 0.1180824 0.1175354 0.1175648
 0.1182916 0.1195564 0.1209632 0.1221128 0.1228401 0.1231846 0.123114 0.1222742 0.1199198 0.1151807
 0.1077656 0.09855793 0.08931287 0.08163787 0.07626972 0.07309522 0.07150663 0.07074794 0.07026954 0.06999151
 0.07022139 0.07127508 0.07320198 0.07585445 0.07905848 0.08256599 0.08594491 0.08876319 0.09091713 0.09261794
 0.0940378 0.09511105 0.09568888 0.09574356 0.0953792 0.09474155 0.09396555 0.09314033 0.09225126 0.09119411
 0.08994735 0.08872718 0.08785501 0.08744752 0.08734225 0.08732883 0.08732516 0.08732624 0.08731918 0.08728408
 0.08721726 0.08716407 0.08724251 0.08755793 0.08806512 0.08857788 0.08892769 0.08908027 0.0891134 0.08908087
 0.08887695 0.08832746 0.08749802 0.08673874 0.08623037 0.08565871 0.08461976 0.08325002 0.08217087 0.08182852
 0.0821026 0.08254376 0.08278567 0.08271193 0.08244721 0.08230267 0.08256637 0.08317542 0.08368152 0.08368628
</values></Ydata></ScRf><Data_Parameters_AB><parameter name="DPF">1</parameter><parameter name="NPT">3497</parameter><parameter name="FXV">3996</parameter><parameter name="LXV">500</parameter><parameter name="CSF">1</parameter><parameter name="MXY">0.0320677533745766</parameter><parameter name="MNY">-0.0257272981107235</parameter><parameter name="DAT">31/05/2022</parameter><parameter name="TIM">12:02:10.846 (GMT+2)</parameter><parameter name="DXU">WN</parameter></Data_Parameters_AB><AB__Qtest><MainReport name="Quality Test Report"><Header><Line><Legend>Test result ok/not ok [1/0]: </Legend><Value>0</Value></Line><Line><Legend>Method file: </Legend><Value>C:\Users\Public\Documents\Bruker\OPUS_8.2.28\QT\IRBT_v3_default.QT</Value></Line></Header><Matrix><Line><Legend></Legend><Legend>min</Legend><Legend>max</Legend><Legend>measured</Legend></Line><Line><Value>Absorption (X-Range 1):</Value><Value>0.400000</Value><Value>2.000000</Value><Value>0.045144</Value></Line><Line><Value>Noise (X-Range 4):</Value><Value></Value><Value>0.000300</Value><Value>0.000049</Value></Line><Line><Value>Signal/Noise (X-Range 2):</Value><Value>200.000000</Value><Value></Value><Value>21.924170</Value></Line><Line><Value>Signal/Noise (X-Range 3):</Value><Value>40.000000</Value><Value></Value><Value>10.535023</Value></Line><Line><Value>Water vapour (X-Range 5):</Value><Value></Value><Value>0.000300</Value><Value>0.000045</Value></Line><Line><Value>Signal/Water (X-Range 2):</Value><Value>100.000000</Value><Value></Value><Value>23.665656</Value></Line><Line><Value>Signal/Water (X-Range 3):</Value><Value>20.000000</Value><Value></Value><Value>11.371844</Value></Line><Line><Value>Fringes (X-Range 6):</Value><Value></Value><Value>0.000100</Value><Value>0.000056</Value></Line></Matrix></MainReport></AB__Qtest><Data_Parameters_ScSm><parameter name="DPF">1</parameter><parameter name="NPT">1814</parameter><parameter name="FXV">3996.33169228125</parameter><parameter name="LXV">499.541461535156</parameter><parameter name="CSF">1</parameter><parameter name="MXY">0.265533447265625</parameter><parameter name="MNY">0.0312674380838871</parameter><parameter name="DAT">31/05/2022</parameter><parameter name="TIM">12:02:10.846 (GMT+2)</parameter><parameter name="DXU">WN</parameter></Data_Parameters_ScSm><Data_Parameters_ScRf><parameter name="DPF">1</parameter><parameter name="NPT">1820</parameter><parameter name="FXV">4004.04661832813</parameter><parameter name="LXV">495.683998511719</parameter><parameter name="CSF">1</parameter><parameter name="MXY">0.265039145946503</parameter><parameter name="MNY">0.0298403427004814</parameter><parameter name="DAT">31/05/2022</parameter><parameter name="TIM">12:01:43.490 (GMT+2)</parameter><parameter name="DXU">WN</parameter></Data_Parameters_ScRf><Optic_Parameters_Rf><parameter name="APR">0</parameter><parameter name="APT">Open</parameter><parameter name="BMS">KBr</parameter><parameter name="DTC">RT-DLaTGS_IR-Biotyper [Microplate reader]</parameter><parameter name="HPF">0</parameter><parameter name="LPF">10.0</parameter><parameter name="LPV">4000</parameter><parameter name="PGR">0</parameter><parameter name="RCH">Module port</parameter><parameter name="RDX">0</parameter><parameter name="SRC">MIR</parameter><parameter name="VEL">10.0</parameter><parameter name="SON">Off</parameter></Optic_Parameters_Rf><Acquisition_Parameters_Rf><parameter name="ADT">1</parameter><parameter name="AQM">DD</parameter><parameter name="CFE">0</parameter><parameter name="COR">0</parameter><parameter name="DEL">0</parameter><parameter name="DLY">0</parameter><parameter name="HFW">8000</parameter><parameter name="LFW">0</parameter><parameter name="NSR">32</parameter><parameter name="PLF">AB</parameter><parameter name="RES">6</parameter><parameter name="RGN">-1</parameter><parameter name="STR">0</parameter><parameter name="TCL">MakeCompatibleScalar (0, {WSV=1.000000, ARV=0});</parameter><parameter name="TDL">37</parameter><parameter name="RPO">0</parameter></Acquisition_Parameters_Rf><FT_-_Parameters_Rf><parameter name="APF">B3</parameter><parameter name="HFQ">500</parameter><parameter name="LFQ">4000</parameter><parameter name="NLI">0</parameter><parameter name="PHR">24</parameter><parameter name="PHZ">ML</parameter><parameter name="SPZ">NO</parameter><parameter name="ZFF">1</parameter></FT_-_Parameters_Rf><Optic_Parameters_><parameter name="APR">0</parameter><parameter name="APT">Open</parameter><parameter name="BMS">KBr</parameter><parameter name="CHN">Module port</parameter><parameter name="DTC">RT-DLaTGS_IR-Biotyper [Microplate reader]</parameter><parameter name="HPF">0</parameter><parameter name="LPF">10.0</parameter><parameter name="LPV">4000</parameter><parameter name="PGN">0</parameter><parameter name="RDX">0</parameter><parameter name="SRC">MIR</parameter><parameter name="VEL">10.0</parameter><parameter name="SON">Off</parameter></Optic_Parameters_><FT_-_Parameters_><parameter name="APF">B3</parameter><parameter name="HFQ">500</parameter><parameter name="LFQ">4000</parameter><parameter name="NLI">0</parameter><parameter name="PHR">24</parameter><parameter name="PHZ">ML</parameter><parameter name="SPZ">NO</parameter><parameter name="ZFF">1</parameter></FT_-_Parameters_><Acquisition_Parameters_><parameter name="ADT">1</parameter><parameter name="AQM">DD</parameter><parameter name="CFE">0</parameter><parameter name="COR">0</parameter><parameter name="DEL">0</parameter><parameter name="DLY">0</parameter><parameter name="HFW">8000</parameter><parameter name="LFW">0</parameter><parameter name="NSS">32</parameter><parameter name="PLF">AB</parameter><parameter name="RES">6</parameter><parameter name="SOT">0</parameter><parameter name="TCL">MakeCompatibleScalar (0, {WSV=1.000000, ARV=0});</parameter><parameter name="TDL">37</parameter><parameter name="SPO">0</parameter><parameter name="SGN">-1</parameter></Acquisition_Parameters_><Instrument_Parameters_Rf><parameter name="HFL">15800.168544</parameter><parameter name="LFL">0</parameter><parameter name="LWN">15800.168544</parameter><parameter name="ABP">32197</parameter><parameter name="SSP">1</parameter><parameter name="ARG">2</parameter><parameter name="ASG">2</parameter><parameter name="ASS">32</parameter><parameter name="GFW">16</parameter><parameter name="GBW">16</parameter><parameter name="BFW">0</parameter><parameter name="BBW">0</parameter><parameter name="PKA">7264</parameter><parameter name="PKL">4996</parameter><parameter name="PRA">7448</parameter><parameter name="PRL">5001</parameter><parameter name="P2A">1</parameter><parameter name="P2L">1</parameter><parameter name="P2R">1</parameter><parameter name="P2K">1</parameter><parameter name="DAQ">0</parameter><parameter name="AG2">1</parameter><parameter name="SSM">1</parameter><parameter name="RSN">25531</parameter><parameter name="CRR">0</parameter><parameter name="SRT">1653998503.491</parameter><parameter name="DUR">19.6379852294922</parameter><parameter name="TSC">28.9</parameter><parameter name="MVD">0.556737840175629</parameter><parameter name="AN1">0.225834517536241</parameter><parameter name="AN2">0</parameter><parameter name="VSN">2.485 Apr  4 2017</parameter><parameter name="SRN">0085</parameter><parameter name="CAM">0</parameter><parameter name="INS">IR-Biotyper</parameter><parameter name="FOC">69</parameter><parameter name="RDY">1</parameter><parameter name="ARS">32</parameter></Instrument_Parameters_Rf><Sample_Parameters_><parameter name="BLD"></parameter><parameter name="CNM">Admin</parameter><parameter name="CPY"></parameter><parameter name="DPM"></parameter><parameter name="EXP">IRBT_v3_32Scans.XPM</parameter><parameter name="LCT"></parameter><parameter name="SFM">Microplate, HTS-XT</parameter><parameter name="SNM">220531-1021(v.3)_CGR32F (D_1)_C12_8b11654b-548f-4595-9572-bff36df7b5a7.0</parameter><parameter name="XPP">C:\Users\Public\Documents\Bruker\OPUS_8.2.28\XPM</parameter><parameter name="IST">OK</parameter><parameter name="CPG">1252</parameter><parameter name="UID">c6ab6286-db83-4642-af52-c1749043f75e</parameter></Sample_Parameters_><Instrument_Parameters_><parameter name="HFL">15800.168544</parameter><parameter name="LFL">0</parameter><parameter name="LWN">15800.168544</parameter><parameter name="ABP">32197</parameter><parameter name="SSP">1</parameter><parameter name="ASG">2</parameter><parameter name="ARG">2</parameter><parameter name="ASS">32</parameter><parameter name="GFW">16</parameter><parameter name="GBW">16</parameter><parameter name="BFW">0</parameter><parameter name="BBW">0</parameter><parameter name="PKA">7336</parameter><parameter name="PKL">4988</parameter><parameter name="PRA">7570</parameter><parameter name="PRL">5002</parameter><parameter name="P2A">1</parameter><parameter name="P2L">1</parameter><parameter name="P2R">1</parameter><parameter name="P2K">1</parameter><parameter name="DAQ">0</parameter><parameter name="AG2">1</parameter><parameter name="SSM">1</parameter><parameter name="RSN">13391</parameter><parameter name="CRR">0</parameter><parameter name="SRT">1653998530.847</parameter><parameter name="DUR">19.6379852294922</parameter><parameter name="TSC">28.9</parameter><parameter name="MVD">0.209018006920815</parameter><parameter name="AN1">0.225803596010103</parameter><parameter name="AN2">0</parameter><parameter name="VSN">2.485 Apr  4 2017</parameter><parameter name="SRN">0085</parameter><parameter name="CAM">0</parameter><parameter name="INS">IR-Biotyper</parameter><parameter name="FOC">69</parameter><parameter name="RDY">1</parameter></Instrument_Parameters_><History/></OPUSDataFile>
