<?xml version="1.0" encoding="UTF-8" ?>
<OPUSDataFile><AB><Ydata ylabel="Absorbance Units"><values byteorder="INTEL" format="FLOAT32" numvalues="3497"> -0.09686648 -0.09684645 -0.09683639 -0.09683646 -0.09684522 -0.09686261 -0.0968755 -0.09688407 -0.09688641 -0.09688507
 -0.09689407 -0.09691489 -0.09696197 -0.09703097 -0.09712134 -0.09722278 -0.0973191 -0.09740152 -0.09745175 -0.09747287
 -0.09745773 -0.0974235 -0.09737615 -0.09733289 -0.09730301 -0.09728838 -0.09729224 -0.09730664 -0.09733022 -0.09736159
 -0.09740023 -0.0974507 -0.09751324 -0.09758209 -0.09765616 -0.09771864 -0.09776942 -0.09779807 -0.09780768 -0.0978031
 -0.09778808 -0.09777403 -0.09776241 -0.09776119 -0.09776872 -0.09778711 -0.0978113 -0.09783822 -0.09786332 -0.09788231
 -0.09789671 -0.09790586 -0.09791301 -0.09791943 -0.09792373 -0.09792539 -0.0979264 -0.0979259 -0.0979403 -0.09797047
 -0.09803358 -0.09812865 -0.09824721 -0.09838472 -0.09850837 -0.09861761 -0.09869067 -0.09873501 -0.09875729 -0.09876465
 -0.09877306 -0.0987828 -0.09880159 -0.09882388 -0.09884882 -0.09886832 -0.09887797 -0.09887186 -0.09884505 -0.09880276
 -0.09874335 -0.09868334 -0.09862459 -0.0985831 -0.09856056 -0.09856788 -0.09860577 -0.09868573 -0.0988078 -0.09897768
 -0.09919047 -0.09942272 -0.09966221 -0.09984899 -0.09998135 -0.1000174 -0.09998105 -0.09989232 -0.09977539 -0.09966972
 -0.09957775 -0.09951743 -0.09947436 -0.09944569 -0.0994182 -0.09938321 -0.09934697 -0.09930684 -0.09928443 -0.09928369
 -0.09931391 -0.09937816 -0.09945662 -0.09954838 -0.09962247 -0.09967875 -0.09970904 -0.09971683 -0.0997197 -0.09972065
 -0.09974076 -0.09977856 -0.09984317 -0.09992641 -0.1000208 -0.1001138 -0.1001866 -0.1002344 -0.1002439 -0.1002261
 -0.1001812 -0.100128 -0.1000727 -0.1000322 -0.1000111 -0.1000253 -0.1000775 -0.1001847 -0.1003507 -0.1005658
 -0.1008305 -0.1010449 -0.1012034 -0.1011916 -0.1010278 -0.1007745 -0.1004546 -0.100193 -0.09998512 -0.0998837
 -0.09987049 -0.09994289 -0.1000723 -0.1002271 -0.1003777 -0.1004851 -0.1005486 -0.100549 -0.1005238 -0.1004825
 -0.1004567 -0.1004609 -0.1004875 -0.1005392 -0.1005928 -0.1006458 -0.1006893 -0.1007228 -0.1007531 -0.1007806
 -0.1008115 -0.1008447 -0.1008773 -0.1009078 -0.1009288 -0.1009393 -0.1009325 -0.1009078 -0.1008598 -0.1007927
 -0.1007068 -0.1006145 -0.1005246 -0.1004515 -0.1004062 -0.1003964 -0.1004293 -0.1005004 -0.1006129 -0.1007472
 -0.1009026 -0.1010499 -0.1011864 -0.1012835 -0.1013393 -0.1013396 -0.1012854 -0.1011904 -0.1010583 -0.1009195
 -0.1007759 -0.100651 -0.1005448 -0.1004688 -0.1004226 -0.1004121 -0.1004314 -0.1004795 -0.1005401 -0.1006007
 -0.1006464 -0.1006617 -0.1006534 -0.1006169 -0.100577 -0.1005398 -0.1005198 -0.1005222 -0.1005395 -0.1005716
 -0.1006086 -0.1006496 -0.1006958 -0.1007475 -0.1008086 -0.1008781 -0.1009505 -0.1010232 -0.1010818 -0.1011269
 -0.1011505 -0.1011585 -0.1011574 -0.1011533 -0.101157 -0.1011699 -0.1011961 -0.1012379 -0.1012948 -0.1013792
 -0.1014958 -0.101654 -0.1018628 -0.1020965 -0.102357 -0.1025871 -0.1027804 -0.1029025 -0.1029505 -0.1029167
 -0.1028012 -0.1026035 -0.1023303 -0.102025 -0.1017011 -0.1014358 -0.1012335 -0.1011501 -0.1011677 -0.1012912
 -0.101473 -0.1016558 -0.101808 -0.1018697 -0.1018743 -0.1018212 -0.101755 -0.1016983 -0.1016571 -0.1016418
 -0.1016265 -0.1016081 -0.1015645 -0.1014909 -0.1014006 -0.1012938 -0.1012075 -0.1011432 -0.1011278 -0.1011595
 -0.1012416 -0.101366 -0.1015052 -0.1016439 -0.1017234 -0.1017448 -0.1016735 -0.1015431 -0.101382 -0.1012167
 -0.1010859 -0.1009827 -0.1009185 -0.1008657 -0.1008154 -0.1007496 -0.1006578 -0.1005529 -0.1004341 -0.1003261
 -0.1002324 -0.1001608 -0.1001126 -0.10007 -0.1000317 -0.09997185 -0.09989227 -0.09979348 -0.09968081 -0.09957796
 -0.09948485 -0.09941338 -0.09936086 -0.09932713 -0.09931188 -0.09931606 -0.09933541 -0.09937018 -0.09940515 -0.09943297
 -0.09943711 -0.09940822 -0.0993409 -0.0992326 -0.09907762 -0.09887454 -0.09861922 -0.09830928 -0.09796254 -0.09757956
 -0.09719241 -0.09680273 -0.09644008 -0.09610584 -0.09582546 -0.09559751 -0.09543327 -0.09532277 -0.09524653 -0.09519272
 -0.09512655 -0.0950527 -0.09496072 -0.09486484 -0.09478156 -0.09469655 -0.09461492 -0.09449004 -0.09429716 -0.09403322
 -0.0936837 -0.09330019 -0.09288909 -0.0924948 -0.09212426 -0.09179283 -0.09150242 -0.0912443 -0.09101786 -0.09081007
 -0.09062143 -0.09045183 -0.09029958 -0.0901627 -0.09002833 -0.08986124 -0.08964944 -0.0893433 -0.08896766 -0.08852842
 -0.08806694 -0.08762635 -0.08722021 -0.08687362 -0.08657236 -0.0863204 -0.08608631 -0.08586232 -0.08562443 -0.0853644
 -0.08508676 -0.08479079 -0.08448639 -0.08417467 -0.08384465 -0.08349558 -0.08311022 -0.08269074 -0.08224496 -0.08177801
 -0.08131631 -0.08086208 -0.08043496 -0.08003438 -0.0796695 -0.07933565 -0.07903394 -0.07874982 -0.07847226 -0.07818525
 -0.07787313 -0.0775366 -0.07717094 -0.07678539 -0.07638364 -0.07596213 -0.07552047 -0.07505581 -0.07456475 -0.07407898
 -0.07359993 -0.07317204 -0.07279602 -0.07247749 -0.07221143 -0.07196172 -0.07172304 -0.07145106 -0.07114889 -0.07079904
 -0.07041477 -0.07001285 -0.06960433 -0.06921339 -0.06883751 -0.06848578 -0.06814372 -0.06780571 -0.06745749 -0.06708967
 -0.06670191 -0.06628989 -0.06586793 -0.06543744 -0.06501383 -0.06459972 -0.06419902 -0.06381255 -0.06343149 -0.06305542
 -0.06267611 -0.06229397 -0.06190982 -0.06152255 -0.06112893 -0.06072483 -0.0602949 -0.05984084 -0.05935426 -0.05885019
 -0.05834367 -0.05785101 -0.05739579 -0.05697677 -0.05660326 -0.05625885 -0.05593908 -0.0556295 -0.05532389 -0.05501934
 -0.05471393 -0.05441032 -0.0541097 -0.05380309 -0.05349053 -0.053147 -0.05277154 -0.05234741 -0.05187808 -0.05138315
 -0.05086983 -0.0503826 -0.04992158 -0.0495136 -0.04914671 -0.04881145 -0.04849432 -0.04817059 -0.04783963 -0.04748925
 -0.04713144 -0.04677152 -0.04641504 -0.04606988 -0.04572088 -0.04536626 -0.0449876 -0.04457806 -0.04414519 -0.04368693
 -0.04323379 -0.04278782 -0.04237282 -0.0419893 -0.04163816 -0.04131785 -0.0410159 -0.04073092 -0.04045038 -0.04017345
 -0.03989149 -0.03960397 -0.03930567 -0.0389968 -0.03867486 -0.03834226 -0.03799926 -0.03765154 -0.03730237 -0.03695717
 -0.03661929 -0.03629092 -0.03597301 -0.03566825 -0.03537724 -0.03510289 -0.03484688 -0.03459892 -0.03435903 -0.03410104
 -0.03382392 -0.03351022 -0.03316271 -0.03279689 -0.03241855 -0.03206407 -0.03173371 -0.03144991 -0.03120306 -0.03098584
 -0.03078649 -0.03058331 -0.03037615 -0.03015398 -0.02992969 -0.02970924 -0.02950028 -0.02931126 -0.02913123 -0.02895968
 -0.02878154 -0.02859226 -0.02839126 -0.02817726 -0.02795814 -0.02773458 -0.02750758 -0.02727713 -0.02704052 -0.02679766
 -0.02654721 -0.02628805 -0.02601417 -0.02572427 -0.02540908 -0.02507332 -0.02471908 -0.02435876 -0.02401021 -0.02368322
 -0.02339575 -0.02314579 -0.02293965 -0.02276511 -0.02261885 -0.02248889 -0.02237068 -0.02225793 -0.02214879 -0.0220392
 -0.02192895 -0.02181049 -0.02168334 -0.02153998 -0.0213802 -0.021203 -0.02100897 -0.02080255 -0.02058474 -0.02036143
 -0.02013553 -0.01991787 -0.01971276 -0.01953605 -0.01938506 -0.01926735 -0.01916556 -0.01906768 -0.01895313 -0.01880013
 -0.01861206 -0.01837793 -0.01813388 -0.01788722 -0.01767371 -0.01750604 -0.01738028 -0.01730042 -0.01723048 -0.01716755
 -0.01709288 -0.01700634 -0.01692924 -0.01686311 -0.01683313 -0.0168345 -0.01685818 -0.01689583 -0.0169159 -0.01691694
 -0.01687879 -0.01680892 -0.01670838 -0.01658751 -0.01645706 -0.01632366 -0.01619718 -0.01607298 -0.01595442 -0.01582389
 -0.01567598 -0.01550018 -0.01528858 -0.01506576 -0.01483061 -0.01463551 -0.01448484 -0.01441111 -0.01441493 -0.0144739
 -0.01458345 -0.01468932 -0.0147915 -0.01485927 -0.01490064 -0.01492619 -0.01493865 -0.01495267 -0.01495777 -0.0149438
 -0.01490519 -0.01482583 -0.0147254 -0.01460918 -0.01450517 -0.01443227 -0.01439042 -0.01438897 -0.01439656 -0.01440859
 -0.01439766 -0.014357 -0.01429197 -0.01420119 -0.01411727 -0.01404191 -0.0140082 -0.0140155 -0.01407227 -0.01417255
 -0.01429281 -0.01442454 -0.0145283 -0.01460091 -0.01461355 -0.01457502 -0.01448182 -0.01435464 -0.01421111 -0.01407278
 -0.01396194 -0.01388406 -0.01385139 -0.01384713 -0.01387043 -0.01389751 -0.01392317 -0.01393165 -0.01392061 -0.01387661
 -0.01379881 -0.01366778 -0.01348267 -0.01323384 -0.01292455 -0.01258126 -0.01221298 -0.01187975 -0.0115872 -0.01138954
 -0.01127587 -0.01125605 -0.01130024 -0.01137099 -0.01143902 -0.01145502 -0.01142012 -0.0113108 -0.01116736 -0.01099818
 -0.01085528 -0.01075906 -0.01073523 -0.01079736 -0.01093013 -0.01113637 -0.01137282 -0.01163668 -0.01188537 -0.01211689
 -0.01231296 -0.01247471 -0.0126079 -0.01271352 -0.01280035 -0.01286612 -0.01290718 -0.01292324 -0.01290714 -0.01287194
 -0.01282826 -0.01280367 -0.01283018 -0.01292792 -0.01312837 -0.01341527 -0.01379704 -0.01422333 -0.01468098 -0.01512573
 -0.01554317 -0.01592177 -0.01625709 -0.01655382 -0.016812 -0.01703424 -0.01722089 -0.01738792 -0.01753753 -0.01770142
 -0.01787768 -0.01807591 -0.01828616 -0.01847841 -0.01865109 -0.01877884 -0.018883 -0.01898249 -0.01910229 -0.01928182
 -0.01951675 -0.01982491 -0.02016724 -0.02053369 -0.0208762 -0.02117533 -0.02140596 -0.02155297 -0.02164059 -0.02166446
 -0.02169736 -0.02174437 -0.02187562 -0.02209432 -0.02240427 -0.02279972 -0.02321788 -0.02365286 -0.02403813 -0.02437847
 -0.02465254 -0.02487259 -0.02505484 -0.02520966 -0.02536017 -0.02551128 -0.02567733 -0.02585778 -0.02605751 -0.02627154
 -0.02649935 -0.02673404 -0.02697379 -0.02721122 -0.02744458 -0.02766768 -0.02787882 -0.02807862 -0.02826644 -0.02845252
 -0.02863742 -0.02883357 -0.02904091 -0.02926295 -0.02949806 -0.02973954 -0.02998537 -0.03022503 -0.03045807 -0.03067752
 -0.03088601 -0.03108337 -0.03127538 -0.03146743 -0.031666 -0.03187835 -0.03210555 -0.03235224 -0.03260917 -0.03287603
 -0.03313669 -0.03338701 -0.03361809 -0.0338264 -0.03402083 -0.03420106 -0.03438792 -0.03458248 -0.03479849 -0.03503517
 -0.03528779 -0.03555382 -0.03581624 -0.03607457 -0.03631679 -0.0365472 -0.03676886 -0.03698761 -0.0372155 -0.03745161
 -0.03770197 -0.03795657 -0.03821105 -0.03845341 -0.03867631 -0.03887263 -0.03903734 -0.0391714 -0.03927132 -0.03935514
 -0.03942189 -0.03951202 -0.03962857 -0.03981117 -0.04006194 -0.04037987 -0.04076057 -0.04115142 -0.04154534 -0.04187284
 -0.04213567 -0.04229696 -0.04237616 -0.04239367 -0.04238098 -0.042398 -0.04246213 -0.04262475 -0.04286157 -0.04317944
 -0.0435239 -0.04386665 -0.04417749 -0.04443199 -0.04465191 -0.04483679 -0.04501573 -0.04519754 -0.04536484 -0.04551876
 -0.04561173 -0.04564126 -0.04559382 -0.04547381 -0.04533147 -0.0451755 -0.04508378 -0.04505656 -0.04514136 -0.0453213
 -0.04558506 -0.04590651 -0.04623703 -0.04656449 -0.0468512 -0.04711169 -0.0473439 -0.04756676 -0.04779497 -0.04802046
 -0.04824708 -0.04844941 -0.04861918 -0.0487549 -0.04885195 -0.04893933 -0.04901958 -0.04911137 -0.04921583 -0.04931778
 -0.04941598 -0.04948873 -0.04953846 -0.0495682 -0.04958248 -0.04960049 -0.04962147 -0.04965432 -0.04969368 -0.04973349
 -0.04977302 -0.04980561 -0.04984277 -0.0498877 -0.04996166 -0.05007654 -0.0502472 -0.05048634 -0.05078022 -0.05113427
 -0.05149866 -0.05186881 -0.05218787 -0.05244823 -0.05263546 -0.05274831 -0.05283311 -0.05289375 -0.05299563 -0.05313663
 -0.05334053 -0.05359504 -0.05386924 -0.05415236 -0.05440035 -0.05461665 -0.05478461 -0.05491842 -0.05502759 -0.05512445
 -0.05522248 -0.05532637 -0.05544339 -0.05557011 -0.05570884 -0.05584685 -0.05598223 -0.05610055 -0.05619714 -0.05627859
 -0.05634311 -0.05642606 -0.05652937 -0.05668279 -0.05688467 -0.05711919 -0.05738018 -0.05761934 -0.05783806 -0.05801165
 -0.05815456 -0.05828973 -0.05842814 -0.05860354 -0.05880601 -0.05904105 -0.05928589 -0.05952341 -0.0597403 -0.05992277
 -0.06007248 -0.06018716 -0.06027002 -0.06032208 -0.06034203 -0.06032883 -0.06028793 -0.06021837 -0.06014346 -0.06006438
 -0.06001785 -0.06000533 -0.06005602 -0.06016711 -0.06033862 -0.06056171 -0.06080572 -0.06106023 -0.06128435 -0.06147341
 -0.06159956 -0.06166739 -0.06166952 -0.0616177 -0.06151783 -0.0613827 -0.06122087 -0.06104012 -0.06084517 -0.06063985
 -0.06042533 -0.06020684 -0.0599857 -0.05976351 -0.05954191 -0.05930395 -0.05904891 -0.05874052 -0.05837746 -0.05793207
 -0.05740841 -0.05681586 -0.05616423 -0.05549474 -0.05481461 -0.05416391 -0.05354045 -0.05296003 -0.05241395 -0.05189819
 -0.05140507 -0.05092747 -0.05045933 -0.04999743 -0.04953097 -0.04905651 -0.04856085 -0.04803806 -0.04748993 -0.04691193
 -0.0463369 -0.04576578 -0.04524951 -0.04479122 -0.04442465 -0.04414914 -0.04395856 -0.04384837 -0.04378631 -0.04376937
 -0.0437698 -0.04378616 -0.04380411 -0.0438161 -0.04380568 -0.04375945 -0.04365334 -0.04348418 -0.04323637 -0.04292799
 -0.04256227 -0.04216423 -0.04174551 -0.04131641 -0.04088355 -0.04044114 -0.03998967 -0.03951966 -0.03902991 -0.03851662
 -0.0379793 -0.03742847 -0.03686592 -0.03632182 -0.03579859 -0.03532943 -0.0349108 -0.03454923 -0.03423467 -0.03394352
 -0.03367219 -0.03339632 -0.03313681 -0.03289682 -0.03273285 -0.03268012 -0.03282102 -0.03320967 -0.0339059 -0.03495951
 -0.0363382 -0.03806393 -0.03998842 -0.04210218 -0.04420393 -0.04627244 -0.04815718 -0.04984666 -0.05130273 -0.05252862
 -0.05357927 -0.05446232 -0.05525601 -0.05596152 -0.05662523 -0.05724301 -0.05782601 -0.05837403 -0.0588901 -0.05937916
 -0.05984941 -0.06030125 -0.06073967 -0.06115733 -0.06155176 -0.06191587 -0.06224597 -0.06253948 -0.06279549 -0.06301071
 -0.06318476 -0.06331314 -0.06339533 -0.06342844 -0.06341224 -0.06334481 -0.06322665 -0.06306402 -0.06286127 -0.06264897
 -0.06243539 -0.06227068 -0.06215766 -0.06213276 -0.06218544 -0.06231675 -0.06250784 -0.06273738 -0.06298751 -0.06323768
 -0.06347209 -0.0636775 -0.06384017 -0.06395205 -0.06400428 -0.06399328 -0.063913 -0.06376181 -0.06353524 -0.06323009
 -0.06287014 -0.0624551 -0.06208118 -0.06175742 -0.06165096 -0.0617693 -0.06225719 -0.06309292 -0.06428281 -0.06576706
 -0.06740031 -0.06912003 -0.07074123 -0.07224829 -0.07353647 -0.07464655 -0.07557333 -0.07637332 -0.0770807 -0.0777254
 -0.07833011 -0.07889629 -0.07942883 -0.07992259 -0.0803768 -0.08079105 -0.08116477 -0.08150289 -0.08180552 -0.08208407
 -0.08233932 -0.08258611 -0.08282455 -0.08306333 -0.08330045 -0.08353295 -0.08375789 -0.0839655 -0.08415517 -0.08431996
 -0.08446406 -0.08458839 -0.08470131 -0.0848099 -0.08492146 -0.08504346 -0.08517569 -0.08532177 -0.0854716 -0.08562449
 -0.08576525 -0.08589074 -0.08599254 -0.08606812 -0.08612652 -0.08616783 -0.08621468 -0.08626791 -0.08634312 -0.08643846
 -0.08654781 -0.08666826 -0.08678293 -0.08689405 -0.08699743 -0.08710013 -0.08721417 -0.08734208 -0.08749489 -0.08766392
 -0.08784741 -0.0880309 -0.08820535 -0.08836051 -0.0884891 -0.08858975 -0.08865876 -0.08870663 -0.08873253 -0.08876017
 -0.08879165 -0.08885026 -0.08893815 -0.08905517 -0.08920022 -0.08934765 -0.08949579 -0.08961884 -0.08971931 -0.08979349
 -0.08984621 -0.08988918 -0.08992434 -0.08996115 -0.08999854 -0.09003877 -0.09008081 -0.09012473 -0.09016886 -0.09021278
 -0.09025319 -0.09028825 -0.09031731 -0.09033818 -0.09035941 -0.09038121 -0.09041783 -0.09047154 -0.09054639 -0.09064333
 -0.09074716 -0.09085684 -0.09095042 -0.09102867 -0.09108619 -0.09112687 -0.09116499 -0.09120239 -0.09125321 -0.09131292
 -0.0913804 -0.09144877 -0.0915073 -0.09155513 -0.0915857 -0.09160666 -0.09161961 -0.09163541 -0.0916591 -0.09169739
 -0.0917542 -0.09182785 -0.09191979 -0.09202027 -0.09212879 -0.09223305 -0.09233211 -0.09241851 -0.09249222 -0.09255496
 -0.09260761 -0.09265804 -0.09270672 -0.09276022 -0.09281774 -0.09288059 -0.09294738 -0.09301596 -0.09308553 -0.09315401
 -0.09322142 -0.09328688 -0.09335136 -0.0934149 -0.0934794 -0.09354588 -0.09361476 -0.09368697 -0.09375945 -0.09383208
 -0.0939003 -0.09396326 -0.0940211 -0.0940736 -0.09412649 -0.09417993 -0.09423706 -0.09429674 -0.09435119 -0.09439874
 -0.09442623 -0.094436 -0.09442573 -0.09440335 -0.09438276 -0.09437063 -0.09438356 -0.09441892 -0.09448193 -0.09456278
 -0.0946568 -0.0947564 -0.09485689 -0.09495518 -0.09504975 -0.09513807 -0.09521935 -0.09529253 -0.09535693 -0.09541705
 -0.09547308 -0.09553097 -0.09559078 -0.09565119 -0.09571134 -0.09576292 -0.09580582 -0.09583429 -0.09585075 -0.09585874
 -0.09586165 -0.09586822 -0.09587933 -0.09590052 -0.0959294 -0.09596569 -0.09600707 -0.09605148 -0.09609928 -0.09615021
 -0.09620456 -0.09626305 -0.09632238 -0.09638222 -0.09643871 -0.09649094 -0.09654039 -0.09658695 -0.09663726 -0.09669157
 -0.09675402 -0.09682382 -0.09689636 -0.0969701 -0.0970352 -0.09709181 -0.0971344 -0.09716614 -0.09719016 -0.09721031
 -0.09723376 -0.09726108 -0.09729616 -0.09733581 -0.09737931 -0.09742322 -0.09746524 -0.09750567 -0.09754374 -0.09758216
 -0.09762152 -0.09766275 -0.09770647 -0.09774866 -0.09778915 -0.09782248 -0.0978485 -0.09786666 -0.09787776 -0.09788834
 -0.09789933 -0.09791882 -0.09794641 -0.09798556 -0.09803422 -0.09809022 -0.09815103 -0.09821219 -0.09827237 -0.09832825
 -0.09838086 -0.09842952 -0.09847683 -0.0985238 -0.09857231 -0.09862345 -0.09867668 -0.09873239 -0.09878778 -0.09884278
 -0.098893 -0.09893816 -0.09897357 -0.09899909 -0.09901322 -0.09901664 -0.09901451 -0.09900803 -0.09900605 -0.09900842
 -0.09901998 -0.09903832 -0.09906089 -0.09908561 -0.09910758 -0.0991284 -0.09914722 -0.09916776 -0.09919288 -0.09922302
 -0.09926033 -0.09929948 -0.09933975 -0.09937461 -0.09940203 -0.09942129 -0.09943139 -0.09943895 -0.09944424 -0.0994561
 -0.09947488 -0.09950433 -0.09954382 -0.0995894 -0.09963992 -0.0996877 -0.09973244 -0.09976884 -0.09979843 -0.09982152
 -0.09984028 -0.0998583 -0.09987574 -0.09989479 -0.09991273 -0.09992827 -0.09993955 -0.09994421 -0.09994612 -0.09994523
 -0.09994869 -0.09995842 -0.09997634 -0.1000036 -0.1000345 -0.1000689 -0.1001009 -0.1001303 -0.1001554 -0.1001762
 -0.1001924 -0.1002041 -0.1002109 -0.1002136 -0.1002146 -0.1002163 -0.1002249 -0.100242 -0.1002733 -0.1003167
 -0.1003736 -0.100437 -0.1005034 -0.1005647 -0.1006158 -0.1006534 -0.1006741 -0.1006832 -0.1006803 -0.1006746
 -0.1006672 -0.1006651 -0.1006692 -0.1006819 -0.1007034 -0.1007323 -0.1007685 -0.1008079 -0.10085 -0.1008896
 -0.1009264 -0.1009564 -0.1009801 -0.1009965 -0.101007 -0.1010129 -0.1010159 -0.1010181 -0.1010198 -0.1010218
 -0.1010243 -0.101027 -0.1010322 -0.1010403 -0.1010538 -0.1010739 -0.1010988 -0.1011289 -0.1011589 -0.1011884
 -0.1012136 -0.1012343 -0.1012494 -0.1012588 -0.1012618 -0.101259 -0.1012518 -0.1012417 -0.1012338 -0.1012292
 -0.1012328 -0.1012434 -0.1012617 -0.1012852 -0.1013121 -0.1013395 -0.1013653 -0.1013866 -0.1014013 -0.1014091
 -0.1014083 -0.1014033 -0.1013943 -0.1013871 -0.1013827 -0.1013828 -0.1013876 -0.1013945 -0.1014034 -0.1014114
 -0.1014184 -0.1014228 -0.1014249 -0.101425 -0.1014237 -0.1014236 -0.1014249 -0.1014301 -0.1014381 -0.1014481
 -0.1014583 -0.1014662 -0.1014719 -0.1014742 -0.1014754 -0.1014764 -0.1014782 -0.1014818 -0.1014854 -0.1014888
 -0.1014897 -0.1014875 -0.1014837 -0.1014784 -0.1014757 -0.1014758 -0.1014801 -0.1014882 -0.1014965 -0.1015046
 -0.1015078 -0.1015066 -0.1015001 -0.1014895 -0.1014773 -0.1014643 -0.101453 -0.1014434 -0.1014367 -0.1014319
 -0.1014287 -0.1014255 -0.1014215 -0.101415 -0.1014054 -0.1013921 -0.1013746 -0.1013554 -0.1013344 -0.1013179
 -0.1013067 -0.1013044 -0.1013112 -0.101322 -0.1013361 -0.1013441 -0.1013471 -0.1013447 -0.1013404 -0.1013452
 -0.101361 -0.1013983 -0.1014551 -0.1015328 -0.1016297 -0.101743 -0.101878 -0.1020361 -0.1022272 -0.1024576
 -0.1027301 -0.1030491 -0.1034047 -0.1037953 -0.1042128 -0.1046547 -0.1051277 -0.1056326 -0.10617 -0.1067394
 -0.1073005 -0.1078487 -0.1083187 -0.1087084 -0.1089743 -0.1091138 -0.1090968 -0.1089183 -0.108539 -0.1079921
 -0.1072942 -0.1065238 -0.1057734 -0.1050894 -0.1045419 -0.1041243 -0.1038525 -0.1037062 -0.1036833 -0.1037622
 -0.103943 -0.1041811 -0.1044745 -0.104752 -0.1050065 -0.105197 -0.1053214 -0.1053895 -0.1054022 -0.1053751
 -0.1053082 -0.1052098 -0.1050812 -0.1049308 -0.1047606 -0.1045792 -0.1043891 -0.1041973 -0.1040064 -0.1038223
 -0.1036444 -0.1034745 -0.1033101 -0.1031497 -0.102994 -0.1028422 -0.1026984 -0.1025634 -0.1024393 -0.102327
 -0.102223 -0.1021274 -0.1020292 -0.101928 -0.1018102 -0.1016762 -0.1015238 -0.101356 -0.101188 -0.1010232
 -0.1008827 -0.1007664 -0.1006862 -0.1006354 -0.1006113 -0.1006021 -0.100595 -0.1005801 -0.1005437 -0.1004884
 -0.1004089 -0.1003214 -0.1002297 -0.1001487 -0.1000841 -0.100036 -0.1000061 -0.09998466 -0.09997085 -0.09995749
 -0.09994417 -0.09992943 -0.09991334 -0.09989657 -0.0998793 -0.09986288 -0.09984756 -0.09983521 -0.09982537 -0.09981802
 -0.09981238 -0.09980701 -0.09980185 -0.09979616 -0.09979038 -0.09978479 -0.09977914 -0.0997733 -0.09976737 -0.0997611
 -0.09975597 -0.09975247 -0.09975078 -0.09975135 -0.0997512 -0.09975022 -0.09974462 -0.09973418 -0.09971825 -0.09969696
 -0.09967206 -0.09964349 -0.09961183 -0.09957684 -0.0995376 -0.09949484 -0.09944917 -0.09940284 -0.09935962 -0.09932154
 -0.09929282 -0.099273 -0.09926379 -0.09926179 -0.09926638 -0.09927211 -0.0992773 -0.09927646 -0.09926778 -0.09924891
 -0.09921877 -0.09917985 -0.099132 -0.09908135 -0.09902824 -0.09897989 -0.09893664 -0.09890501 -0.09888478 -0.09887876
 -0.09888507 -0.09889922 -0.09891803 -0.09893184 -0.09893875 -0.09893056 -0.09890913 -0.09887236 -0.09882578 -0.09877224
 -0.09871849 -0.09866896 -0.09862738 -0.09859684 -0.0985755 -0.09856398 -0.09855718 -0.09855448 -0.09855151 -0.09854781
 -0.09854035 -0.09852895 -0.09851123 -0.09848718 -0.09845617 -0.09841865 -0.09837691 -0.0983316 -0.09828611 -0.09824101
 -0.09819914 -0.09816093 -0.0981285 -0.09810163 -0.09808123 -0.09806598 -0.09805521 -0.09804765 -0.09804215 -0.09803906
 -0.09803827 -0.09804014 -0.09804513 -0.09805124 -0.09805848 -0.09806287 -0.09806404 -0.09805854 -0.09804615 -0.09802692
 -0.09800113 -0.09797271 -0.09794205 -0.09791385 -0.0978877 -0.09786491 -0.09784435 -0.09782369 -0.09780274 -0.09777965
 -0.0977559 -0.09773266 -0.09771042 -0.09769079 -0.09767125 -0.09765082 -0.09762767 -0.09759984 -0.09757121 -0.09754188
 -0.09751797 -0.09750108 -0.09749082 -0.09748776 -0.09748469 -0.0974812 -0.0974723 -0.09745815 -0.09744019 -0.09741882
 -0.09739734 -0.09737576 -0.09735571 -0.09733729 -0.09732176 -0.09730865 -0.09729834 -0.09728874 -0.09727762 -0.0972633
 -0.09724289 -0.0972182 -0.09718883 -0.09715874 -0.0971294 -0.09710328 -0.09708163 -0.09706382 -0.09705032 -0.09703754
 -0.09702535 -0.09700856 -0.09698685 -0.09695736 -0.09692032 -0.09687859 -0.09683295 -0.0967899 -0.09674976 -0.09671747
 -0.09669232 -0.0966754 -0.09666504 -0.09665922 -0.09665567 -0.09665094 -0.09664348 -0.09663039 -0.09661262 -0.09658951
 -0.09656363 -0.09653581 -0.09650797 -0.09648118 -0.09645427 -0.09642746 -0.09639765 -0.09636437 -0.096327 -0.09628541
 -0.09624459 -0.09620491 -0.09617331 -0.09614938 -0.09613446 -0.0961269 -0.09612089 -0.09611552 -0.09610511 -0.09609064
 -0.09607103 -0.09604786 -0.09602269 -0.09599647 -0.09597018 -0.09594553 -0.09592365 -0.09590585 -0.09589368 -0.09588419
 -0.09587784 -0.09586687 -0.0958499 -0.09582233 -0.09578288 -0.0957372 -0.09568545 -0.09563848 -0.09559649 -0.09556433
 -0.09554096 -0.09552177 -0.09550595 -0.09548753 -0.09546731 -0.09544416 -0.09541918 -0.09539402 -0.09536871 -0.09534393
 -0.09531947 -0.09529547 -0.09527155 -0.09524786 -0.09522309 -0.09519713 -0.09516741 -0.09513302 -0.09509358 -0.09504827
 -0.09500154 -0.09495338 -0.09491237 -0.09487905 -0.09485942 -0.09485323 -0.09485658 -0.09486803 -0.09487566 -0.09487911
 -0.0948696 -0.09484996 -0.09482256 -0.09479125 -0.09476497 -0.0947431 -0.09473022 -0.09471937 -0.09470663 -0.09468512
 -0.09464822 -0.09459775 -0.09453084 -0.09445925 -0.09438499 -0.09431987 -0.09426695 -0.09422845 -0.09420555 -0.09419098
 -0.09418437 -0.0941771 -0.09416899 -0.09415637 -0.09413974 -0.09412091 -0.09410021 -0.0940803 -0.09406007 -0.0940384
 -0.09401329 -0.09398022 -0.09393913 -0.09388696 -0.09382771 -0.09376271 -0.09369865 -0.09363959 -0.09359062 -0.09355567
 -0.09353331 -0.0935254 -0.0935221 -0.09352264 -0.09351462 -0.09349616 -0.09346394 -0.09341744 -0.09336501 -0.09330724
 -0.0932549 -0.09320765 -0.09316867 -0.09313631 -0.0931057 -0.09307535 -0.09303827 -0.09299538 -0.09294432 -0.09288858
 -0.09283147 -0.09277593 -0.09272628 -0.09268196 -0.09264424 -0.09261063 -0.0925803 -0.09255184 -0.0925248 -0.09249824
 -0.09247227 -0.09244394 -0.092413 -0.09237629 -0.09233353 -0.09228545 -0.09223232 -0.09217977 -0.09212798 -0.0920817
 -0.09203959 -0.0919992 -0.09195839 -0.09190937 -0.09185334 -0.0917874 -0.09171727 -0.09164905 -0.09158687 -0.09153806
 -0.09149913 -0.09147133 -0.09144631 -0.09142074 -0.09138974 -0.09135078 -0.09130422 -0.09124951 -0.09118921 -0.09112353
 -0.09105472 -0.09098294 -0.09090965 -0.09083488 -0.09075901 -0.09068242 -0.09060784 -0.09053624 -0.09047341 -0.09041927
 -0.09037735 -0.09034515 -0.09032032 -0.09029897 -0.09027515 -0.09024645 -0.09020813 -0.09016115 -0.09010385 -0.090041
 -0.08997384 -0.08990745 -0.089844 -0.08978384 -0.08972798 -0.08967178 -0.08961492 -0.08955269 -0.08948469 -0.08941047
 -0.08933022 -0.08924819 -0.08916491 -0.08908663 -0.08901317 -0.08894758 -0.08888823 -0.0888324 -0.08877833 -0.08872098
 -0.08866071 -0.08859586 -0.08852755 -0.0884566 -0.08838264 -0.08830577 -0.08822515 -0.08814003 -0.08805162 -0.08795982
 -0.08786716 -0.08777411 -0.08768235 -0.08759214 -0.08750434 -0.08741901 -0.08733699 -0.08725841 -0.08718555 -0.08711876
 -0.08706192 -0.08701485 -0.08697984 -0.08695455 -0.08693507 -0.08691642 -0.08688765 -0.08684468 -0.08677611 -0.08668476
 -0.08656729 -0.08643346 -0.08628712 -0.08613995 -0.08599751 -0.08586846 -0.08575716 -0.08566443 -0.08559228 -0.08553225
 -0.08548407 -0.08543572 -0.08538628 -0.08532953 -0.08526548 -0.08519705 -0.08512455 -0.08505255 -0.0849793 -0.08489983
 -0.08481184 -0.08470442 -0.08458119 -0.08444212 -0.08429593 -0.08415493 -0.08402285 -0.08390868 -0.08380926 -0.0837258
 -0.08365244 -0.08358741 -0.08352451 -0.08346189 -0.08339418 -0.08331996 -0.08323681 -0.08314405 -0.08304249 -0.08293207
 -0.08281443 -0.08268972 -0.08256085 -0.08242815 -0.08229553 -0.08216312 -0.08203351 -0.0819067 -0.08178378 -0.0816652
 -0.08155298 -0.08144567 -0.0813433 -0.08124113 -0.08113436 -0.08102107 -0.08089676 -0.08076791 -0.08063561 -0.08050793
 -0.08038837 -0.08027757 -0.08017704 -0.08008087 -0.07998879 -0.07989369 -0.07979505 -0.07968786 -0.07957188 -0.07944345
 -0.07930225 -0.07914333 -0.07896733 -0.07877271 -0.07856383 -0.07835201 -0.07814173 -0.07794905 -0.07777069 -0.07761065
 -0.07745945 -0.07730941 -0.07715427 -0.0769859 -0.07680818 -0.07661965 -0.07642969 -0.07624079 -0.07605993 -0.07588951
 -0.0757298 -0.07558242 -0.07543371 -0.07528315 -0.07510899 -0.07491078 -0.074688 -0.07444289 -0.07419568 -0.07394633
 -0.07370589 -0.07347111 -0.07323809 -0.07300426 -0.0727625 -0.07251219 -0.07224911 -0.0719749 -0.07168893 -0.0713953
 -0.07109727 -0.07079508 -0.07049233 -0.07017711 -0.06984692 -0.06949061 -0.06910251 -0.0686962 -0.06827155 -0.06785231
 -0.0674407 -0.06704176 -0.06665549 -0.06627543 -0.06590148 -0.06553087 -0.06516275 -0.06479301 -0.0644181 -0.06402499
 -0.06361213 -0.06316715 -0.06269839 -0.06221066 -0.06171593 -0.06122904 -0.06075235 -0.06029292 -0.05984607 -0.05941106
 -0.05898501 -0.05856673 -0.05815572 -0.05775367 -0.05734867 -0.05694288 -0.0564924 -0.05599442 -0.05540273 -0.05471718
 -0.05397486 -0.05318227 -0.05241838 -0.051678 -0.05097873 -0.05030893 -0.04964279 -0.04897317 -0.04827458 -0.04754164
 -0.04675961 -0.04591621 -0.04499904 -0.04398517 -0.04285459 -0.04159664 -0.04018719 -0.03868201 -0.03708116 -0.0354902
 -0.03393326 -0.03246584 -0.03110245 -0.02983177 -0.02865542 -0.02753177 -0.02645778 -0.02536301 -0.02424058 -0.02298967
 -0.02161983 -0.02010655 -0.01849863 -0.01694322 -0.01544993 -0.01412676 -0.01291677 -0.01178158 -0.01067982 -0.009548268
 -0.008391611 -0.007191323 -0.005969497 -0.004734279 -0.003492722 -0.002245982 -0.001010491 0.0002122307 0.001396391 0.002535487
 0.003641524 0.004714676 0.005775201 0.006822777 0.007818193 0.008757293 0.009580335 0.01029364 0.01089434 0.01139687
 0.01184594 0.01224661 0.01263569 0.01299923 0.01332979 0.01362298 0.01386514 0.01407581 0.01426527 0.01444508
 0.01462866 0.0147993 0.01495773 0.01507382 0.01514188 0.01513785 0.01505707 0.01488973 0.014633 0.01431595
 0.01394069 0.01356876 0.01319967 0.01285389 0.01252412 0.01218321 0.01182872 0.01143557 0.01101314 0.01056496
 0.01011056 0.009680329 0.009286291 0.00895394 0.008680853 0.008470917 0.008326767 0.008248774 0.008245971 0.008324587
 0.00847469 0.008697612 0.008969271 0.009285727 0.00963822 0.01002538 0.01044974 0.01091131 0.01140824 0.01194043
 0.01250576 0.01310487 0.01374073 0.01441274 0.01512108 0.01586361 0.01663535 0.01743602 0.01826299 0.01911672
 0.01999729 0.02090327 0.0218334 0.02278758 0.02376414 0.02476853 0.02580086 0.02687172 0.027984 0.02914215
 0.03035006 0.03158383 0.03284331 0.03408026 0.03529238 0.03644808 0.03754786 0.0385895 0.03956885 0.04046585
 0.04127006 0.04193219 0.0424574 0.04282924 0.04306564 0.04318724 0.04320493 0.0431358 0.04299052 0.04278218
 0.042515 0.04220481 0.0418102 0.04133393 0.04067882 0.03981454 0.03872739 0.03738874 0.03601425 0.03462232
 0.03332727 0.03213282 0.03093185 0.02972049 0.02841947 0.02703934 0.02559581 0.02409833 0.02259553 0.02106692
 0.01950802 0.01785532 0.01599979 0.01392977 0.01153405 0.009006232 0.006452414 0.00401461 0.001835759 -0.0001975015
 -0.00209451 -0.003953839 -0.005815805 -0.007638908 -0.009426381 -0.01110106 -0.01265336 -0.01408839 -0.01540674 -0.0166719
 -0.01788537 -0.01908627 -0.02026899 -0.02142297 -0.02254407 -0.02361015 -0.02462796 -0.02560045 -0.02653779 -0.02745799
 -0.02836413 -0.02926459 -0.03016473 -0.03106441 -0.03198991 -0.03295403 -0.03397678 -0.03508973 -0.0361978 -0.03729657
 -0.03823736 -0.03898275 -0.03956988 -0.03999405 -0.04037859 -0.04072932 -0.04110388 -0.04149922 -0.04189876 -0.04229791
 -0.04266134 -0.04299308 -0.04329052 -0.04355437 -0.04379085 -0.04398399 -0.04411278 -0.0441619 -0.04410119 -0.04394126
 -0.04367748 -0.04333167 -0.04291455 -0.04243759 -0.04190755 -0.04132771 -0.04070219 -0.04001929 -0.03928113 -0.03844825
 -0.03751627 -0.03646797 -0.03530317 -0.03412487 -0.03294243 -0.03190381 -0.03100242 -0.03027926 -0.0297175 -0.02928241
 -0.02896289 -0.02871996 -0.02854279 -0.02840321 -0.02827989 -0.02814607 -0.02796689 -0.02770395 -0.0273509 -0.02687824
 -0.02635393 -0.02579484 -0.02525471 -0.02475686 -0.024285 -0.02384167 -0.02339348 -0.02293694 -0.02246002 -0.02196204
 -0.02145588 -0.02094232 -0.02043621 -0.01993505 -0.01943436 -0.0189271 -0.0183869 -0.01780893 -0.01716519 -0.0164649
 -0.01570883 -0.01491039 -0.01408931 -0.01323961 -0.01236454 -0.01145206 -0.01049221 -0.009494659 -0.00845714 -0.007405092
 -0.006345998 -0.005286557 -0.004231674 -0.003158397 -0.002064591 -0.0009369509 0.0002251116 0.001370861 0.002494295 0.00350528
 0.004402461 0.005132757 0.005698825 0.006084897 0.006286686 0.006287274 0.006080599 0.005645484 0.004990452 0.00411032
 0.003034311 0.001778774 0.000379108 -0.001141955 -0.00276374 -0.004474627 -0.006263373 -0.008132137 -0.01003685 -0.01197804
 -0.01386568 -0.01569116 -0.01739367 -0.01896955 -0.02043455 -0.02179122 -0.02307861 -0.02429446 -0.02544536 -0.02652595
 -0.02751753 -0.02842431 -0.02924306 -0.02998905 -0.03068407 -0.03134331 -0.03199275 -0.03263866 -0.03329601 -0.03395947
 -0.03463198 -0.03530045 -0.03596116 -0.03660324 -0.03722239 -0.03781812 -0.03838903 -0.03894245 -0.03947935 -0.03999999
 -0.04050445 -0.04097303 -0.04140399 -0.04176792 -0.04206599 -0.04228876 -0.04244187 -0.04254051 -0.04258867 -0.0426034
 -0.04258563 -0.04254353 -0.04247892 -0.04239612 -0.0422986 -0.04218934 -0.04207411 -0.04195478 -0.04184238 -0.0417399
 -0.04166108 -0.04160977 -0.0415948 -0.04161879 -0.04168141 -0.04178334 -0.04191704 -0.04208214 -0.04226898 -0.04247715
 -0.04269972 -0.04293584 -0.04317821 -0.04342369 -0.04365777 -0.04387639 -0.04406159 -0.04421398 -0.04432506 -0.04440119
 -0.04444631 -0.04446594 -0.04446624 -0.04444852 -0.04441469 -0.04436625 -0.04430319 -0.0442307 -0.04414955 -0.04406607
 -0.04398113 -0.0439005 -0.04382466 -0.04375995 -0.04370673 -0.04367188 -0.04365547 -0.0436606 -0.04368621 -0.04372796
 -0.04378378 -0.04384346 -0.04390639 -0.04396514 -0.04402236 -0.04407894 -0.04413792 -0.04420388 -0.04427646 -0.0443574
 -0.04444397 -0.04453529 -0.04462874 -0.04472378 -0.04481593 -0.0449048 -0.04498284 -0.04504891 -0.04509674 -0.04512531
 -0.04513443 -0.04512402 -0.04510019 -0.0450635 -0.04502298 -0.04497867 -0.04493621 -0.04489359 -0.04484728 -0.04479331
 -0.0447203 -0.04462555 -0.04449829 -0.04434082 -0.0441498 -0.04393378 -0.04369678 -0.04345118 -0.04320452 -0.04296598
 -0.04274203 -0.04253132 -0.04233592 -0.04214642 -0.0419614 -0.04177514 -0.04158621 -0.04140063 -0.04121861 -0.04105178
 -0.04090033 -0.04076925 -0.0406573 -0.04055887 -0.040473 -0.04039237 -0.0403187 -0.04025208 -0.04019547 -0.0401545
 -0.04012957 -0.04012382 -0.04013541 -0.0401635 -0.0402077 -0.04026752 -0.04034296 -0.04043474 -0.04053902 -0.0406555
 -0.04077811 -0.04090538 -0.04103633 -0.04117025 -0.04131331 -0.04146584 -0.04163258 -0.04181308 -0.0420009 -0.04219435
 -0.04237854 -0.04255347 -0.04270988 -0.04285175 -0.04298424 -0.0431113 -0.04324336 -0.04337908 -0.04352174 -0.0436669
 -0.0438114 -0.04395382 -0.04409194 -0.04422753 -0.04436134 -0.04449256 -0.04462208 -0.04474381 -0.04485708 -0.04495528
 -0.04503711 -0.04510484 -0.04515839 -0.04521 -0.04526006 -0.04531714 -0.04537934 -0.04543841 -0.04549144 -0.04552124
 -0.04552962 -0.04551097 -0.04547201 -0.04542241 -0.04536597 -0.04531327 -0.04525918 -0.04520476 -0.04513895 -0.04505578
 -0.04494729 -0.0448079 -0.04463825 -0.04443654 -0.04420941 -0.0439575 -0.04368756 -0.04340023 -0.04310177 -0.04279257
 -0.04247962 -0.04216303 -0.04184516 -0.04152516 -0.04119783 -0.04086338 -0.04051873 -0.04016718 -0.0398156 -0.03946673
 -0.03912943 -0.03880249 -0.03848781 -0.03818403 -0.03788987 -0.03760686 -0.03733537 -0.0370772 -0.03683335 -0.03660392
 -0.03638934 -0.03618841 -0.03600163 -0.0358234 -0.03565368 -0.0354824 -0.03530892 -0.03512575 -0.03493274 -0.03472735
 -0.03450953 -0.03427747 -0.03403132 -0.0337702 -0.03349554 -0.03321054 -0.03291643 -0.03261723 -0.0323124 -0.03200274
 -0.03168772 -0.03136669 -0.03104088 -0.03071016 -0.03037793 -0.03004489 -0.02971621 -0.02939375 -0.02907929 -0.02877455
 -0.02847178 -0.02817054 -0.02786179 -0.02754473 -0.02722158 -0.02689275 -0.02656654 -0.0262429 -0.02592463 -0.02561198
 -0.02530703 -0.02501081 -0.02472839 -0.02445716 -0.02419561 -0.0239388 -0.0236782 -0.02341563 -0.02314918 -0.02288309
 -0.02262251 -0.02235863 -0.02209123 -0.02180383 -0.02149045 -0.0211477 -0.02077232 -0.02037653 -0.01996098 -0.01953946
 -0.01911295 -0.01868944 -0.01826917 -0.01785597 -0.01744989 -0.01705324 -0.01666593 -0.01628926 -0.01592246 -0.01556398
 -0.0152136 -0.01486838 -0.01453339 -0.01421215 -0.01391413 -0.01364955 -0.01342221 -0.01323865 -0.01309471 -0.01299007
 -0.01292152 -0.0128893 -0.01288555 -0.012912 -0.01294103 -0.01297101 -0.01296662 -0.01292509 -0.01283435 -0.01269493
 -0.01252155 -0.01231577 -0.01209589 -0.01186174 -0.01162218 -0.01137609 -0.0111251 -0.01086789 -0.01060235 -0.01032871
 -0.01004524 -0.009755967 -0.009462805 -0.009172403 -0.008887887 -0.00861882 -0.008367972 -0.008149593 -0.007967948 -0.007833729
 -0.007750985 -0.007715878 -0.007729239 -0.007777943 -0.007861225 -0.007967496 -0.008096067 -0.008234719 -0.008382544 -0.008525896
 -0.008665995 -0.008799872 -0.008931088 -0.009068599 -0.009213157 -0.009371499 -0.009539952 -0.009716578 -0.009897826 -0.01007944
 -0.01026056 -0.01043853 -0.01061675 -0.01079463 -0.01098096 -0.01117779 -0.01139298 -0.01162892 -0.01188605 -0.01216466
 -0.01246455 -0.01278558 -0.01313303 -0.01350694 -0.01390808 -0.01433472 -0.01477462 -0.0152248 -0.01566627 -0.01609675
 -0.01649969 -0.01687571 -0.01721665 -0.01752857 -0.0178159 -0.01808422 -0.01834338 -0.01858587 -0.01881279 -0.0190065
 -0.01915803 -0.01926251 -0.01931321 -0.01932754 -0.01930613 -0.01927371 -0.01923304 -0.01920314 -0.01918548 -0.01919368
 -0.01922831 -0.01929853 -0.01940438 -0.01955081 -0.01973679 -0.01996197 -0.02022225 -0.02050733 -0.02081094 -0.02111532
 -0.02141934 -0.02171236 -0.02200091 -0.02228789 -0.02257688 -0.02287325 -0.02317053 -0.02346794 -0.02375714 -0.02403485
 -0.02429921 -0.02454887 -0.02478655 -0.02501221 -0.02523044 -0.02544154 -0.0256495 -0.02585442 -0.02605667 -0.02625628
 -0.02645336 -0.02664859 -0.02684574 -0.0270439 -0.02724404 -0.02744109 -0.02762627 -0.02779409 -0.02793249 -0.02804154
 -0.02811545 -0.02816101 -0.02817936 -0.02818139 -0.02817187 -0.02815902 -0.02814768 -0.02813494 -0.02812207 -0.02809842
 -0.02806235 -0.02801085 -0.02794322 -0.02786793 -0.02778542 -0.02770411 -0.0276242 -0.02755038 -0.02748352 -0.02743028
 -0.02739107 -0.02737162 -0.02736933 -0.02738225 -0.02740668 -0.02743653 -0.02746999 -0.02750337 -0.02753562 -0.02756538
 -0.02759107 -0.02761267 -0.02762518 -0.02762889 -0.02761124 -0.02757022 -0.02749363 -0.02737814 -0.02723165 -0.02705371
 -0.02687239 -0.02668891 -0.02652435 -0.02637717 -0.02624342 -0.02612015 -0.02599107 -0.02585643 -0.02570771 -0.02554844
 -0.02538138 -0.02521018 -0.02504139 -0.02487627 -0.02471866 -0.02456764 -0.0244239 -0.02428577 -0.02415321 -0.0240229
 -0.02389459 -0.02376213 -0.0236243 -0.02347633 -0.02331689 -0.02314883 -0.02297197 -0.02279686 -0.02262411 -0.02246567
 -0.02232152 -0.02219735 -0.02209109 -0.02199687 -0.02191139 -0.02182135 -0.02172616 -0.02161714 -0.02149824 -0.02137144
 -0.02124015 -0.02110952 -0.02097797 -0.02084686 -0.02071108 -0.02056886 -0.02041565 -0.02024908 -0.02006947 -0.01987509
 -0.01967585 -0.01947192 -0.01927988 -0.01910109 -0.01894558 -0.01881348 -0.0186991 -0.01860064 -0.01849985 -0.01839468
 -0.01826517 -0.01811196 -0.0179245 -0.01770945 -0.01747328 -0.01722672 -0.01698758 -0.01676275 -0.01656752 -0.0163977
 -0.01625761 -0.01613301 -0.01601949 -0.01590233 -0.01577477 -0.01563425 -0.01547766 -0.01531484 -0.01514693 -0.01497956
 -0.01481376 -0.01464108 -0.01446115 -0.01426616 -0.01405768 -0.01384636 -0.01363552 -0.01344738 -0.01328228 -0.0131548
 -0.01305863 -0.01298984 -0.01293742 -0.01288427 -0.01282219 -0.0127353 -0.01262517 -0.01248747 -0.01232772 -0.01214781
 -0.01195031 -0.01173474 -0.01151045 -0.01127681 -0.01105678 -0.01085353 -0.0106819 -0.01054445 -0.01042569 -0.01032449
 -0.01020778 -0.01007471 -0.009903229 -0.009696194 -0.009454658 -0.009184307 -0.008902673 -0.008614378 -0.008338666 -0.008074022
 -0.007827056 -0.007593116 -0.007368134 -0.007154177 -0.00694968 -0.006763017 -0.006598733 -0.006458626 -0.006346366 -0.006251611
 -0.006174272 -0.006097033 -0.006017894 -0.005921217 -0.005804983 -0.005670762 -0.005519011 -0.005373023 -0.00523359 -0.005119546
 -0.005026605 -0.00494354 -0.004865098 -0.004767129 -0.004651778 -0.004510778 -0.004350937 -0.004178501 -0.003999302 -0.003819816
 -0.003648874 -0.00349314 -0.003362915 -0.003266659 -0.003202442 -0.003174767 -0.003164094 -0.003168781 -0.003163139 -0.003143281
 -0.003093269 -0.003010756 -0.002899983 -0.002761423 -0.002616684 -0.002467098 -0.002334391 -0.002218087 -0.002128465 -0.002061734
 -0.002014589 -0.001976429 -0.001924992 -0.001847888 -0.00171195 -0.001526191 -0.001279383 -0.00100842 -0.0007357954 -0.0004880716
 -0.0002900354 -0.0001292923 -8.918621E-06 9.432742E-05 0.0001866744 0.0002731643 0.0003549754 0.0004360838 0.0005162081 0.000612542
 0.000725884 0.0008671397 0.001035421 0.001225311 0.001435475 0.001656581 0.001887728 0.002122039 0.002357369 0.00258703
 0.00280636 0.00300665 0.003181698 0.003320776 0.003423915 0.003483908 0.003516201 0.003524749 0.003528265 0.003535917
 0.003548787 0.003569456 0.003591049 0.003611649 0.003637899 0.003670034 0.003717168 0.003779604 0.003852133 0.003934239
 0.00401895 0.004105836 0.004190193 0.004269709 0.004332147 0.004380786 0.004413679 0.004442665 0.004488505 0.004548913
 0.004633661 0.004724212 0.004803354 0.004881463 0.004947481 0.005059811 0.005241688 0.005507234 0.005879592 0.006261063
 0.006638991 0.00695507 0.00719999 0.007397822 0.007549573 0.007684342 0.007802557 0.007919017 0.008031767 0.008140261
 0.008238649 0.008306196 0.008341554 0.0083278 0.008276052 0.00819664 0.008097067 0.007992906 0.007875954 0.007743721
 0.007593316 0.007419313 0.007233814 0.0070394 0.006846729 0.006657453 0.006485104 0.006330627 0.006215204 0.006142082
 0.006104473 0.006101741 0.006084951 0.006052062 0.005961921 0.005819254 0.005627128 0.00539405 0.005147719 0.004897937
 0.004678432 0.004498425 0.004392361 0.004348086 0.004373289 0.004430647 0.004492185 0.004541688 0.004557915 0.004558576
 0.004545786 0.004532647 0.004522441 0.004523622 0.004537154 0.004575987 0.004643057 0.00471792 0.004799494 0.004849991
 0.004872432 0.004890175 0.004910938 0.00499643 0.005137474 0.00533897 0.005580379 0.00581378 0.006035415 0.006215254
 0.006365119 0.006485187 0.00659099 0.006691174 0.00680667 0.006950694 0.007134791 0.007370325 0.007640833 0.007945945
 0.008262742 0.008586481 0.008913224 0.00924217 0.009572992 0.009905579 0.01022855 0.01054064 0.01082551 0.01107939
 0.01127295 0.0114025 0.01143371 0.01137911 0.01124566 0.01105774 0.01086226 0.01066036 0.01047501 0.01028908
 0.01008851 0.009888148 0.009686629 0.00951817 0.009402305 0.009325715 0.009295548 0.009256532 0.009199978 0.009096278
 0.008939409 0.008750728 0.008531238 0.008332754 0.008157345 0.00804858 0.008000149 0.008000644 0.008037597 0.008056083
 0.008061326 0.008033285 0.007994191 0.00797706 0.007980824 0.008024319 0.00807896 0.008125882 0.008153804 0.00814808
 0.00811973 0.008072569 0.008002328 0.007910085 0.007782696 0.007615591 0.007421571 0.007199907 0.006984768 0.006777993
 0.006604923 0.006464417 0.006350548 0.006256836 0.006141006 0.006000643 0.005796411 0.005548871 0.005281989 0.005026163
 0.00485056 0.004747051 0.004742969 0.004793147 0.004869782 0.004944535 0.004991155 0.005011011 0.004998787 0.004960535
 0.004895104 0.004816914 0.00472597 0.004650126 0.004592454 0.004565716 0.004570776</values></Ydata></AB><ScSm><Ydata ylabel="Single channel"><values byteorder="INTEL" format="FLOAT32" numvalues="1814"> 0.07624941 0.07626544 0.07635304 0.07653772 0.07678664 0.07702708 0.07719724 0.07728553 0.07731287 0.07728808
 0.07721806 0.07716078 0.07721218 0.07741028 0.07767688 0.07787354 0.07791491 0.0778445 0.07780702 0.07790829
 0.07807122 0.07806078 0.07770236 0.07708112 0.07648603 0.07614291 0.07607388 0.0762682 0.07682404 0.07767969
 0.0783127 0.07811604 0.07716243 0.07623608 0.07596055 0.07619972 0.07642786 0.07633696 0.0759317 0.07540606
 0.07519258 0.0758473 0.07750431 0.07942227 0.08024608 0.07886007 0.07518882 0.07045497 0.06672595 0.06580009
 0.06793778 0.07150668 0.07420747 0.07490561 0.07417092 0.07311386 0.07219514 0.07136934 0.07085123 0.07115494
 0.07238118 0.07373911 0.0739531 0.07235283 0.06967469 0.06754096 0.06698042 0.06778437 0.06937575 0.0714349
 0.07301861 0.07206615 0.06743117 0.06143665 0.05882775 0.06225805 0.06945924 0.07546189 0.0770129 0.07439075
 0.06995769 0.06620701 0.06482604 0.06623983 0.06953393 0.07321357 0.0761088 0.07742816 0.07656071 0.07360946
 0.06991016 0.06738256 0.06735141 0.07002845 0.07446909 0.07866015 0.08043589 0.0790769 0.07578625 0.07241973
 0.07026739 0.07005895 0.07214252 0.07612175 0.08083639 0.08503473 0.08788022 0.08903494 0.08873449 0.08763902
 0.08632928 0.08520964 0.08485694 0.08566264 0.08690362 0.08702254 0.08532515 0.08290836 0.08152914 0.08178749
 0.08265066 0.08270898 0.08160131 0.07977905 0.07710989 0.07285518 0.06736851 0.06254362 0.05991951 0.05950873
 0.06092677 0.06399161 0.06740092 0.06866386 0.06683709 0.06425263 0.06420261 0.06742834 0.07174892 0.0747175
 0.07587971 0.07659214 0.07827716 0.08096935 0.08313631 0.0828331 0.07963215 0.07570817 0.07430033 0.07653188
 0.08033175 0.08298356 0.08398789 0.08475371 0.08613083 0.08708867 0.08579031 0.08177786 0.07714394 0.0752416
 0.07776393 0.08304385 0.08725932 0.08726056 0.08269298 0.07607512 0.07083387 0.06893276 0.07035114 0.07439311
 0.08044507 0.08729074 0.09280597 0.09515467 0.09412982 0.09103099 0.08718184 0.08270796 0.07726243 0.0720816
 0.0702121 0.07362206 0.08068238 0.08753305 0.09152399 0.09252316 0.09140752 0.08842899 0.08347118 0.07763177
 0.07373357 0.07412946 0.07786547 0.08122601 0.08162417 0.07995817 0.07869218 0.07878805 0.07935225 0.0795261
 0.0797061 0.08086129 0.08314422 0.0855238 0.08678564 0.0866397 0.08576684 0.08502533 0.08467006 0.08416868
 0.08294614 0.08152819 0.08147773 0.08368795 0.08716068 0.09003326 0.091444 0.09184756 0.09178114 0.09091642
 0.08854101 0.08491471 0.08182103 0.08124436 0.08344933 0.08681896 0.08953588 0.09088434 0.09107132 0.09057106
 0.08980589 0.08900687 0.08828209 0.08791788 0.08831132 0.08940923 0.09057289 0.09122056 0.0913065 0.09103782
 0.0904623 0.08954692 0.08847326 0.08765137 0.08742982 0.08783508 0.08860581 0.0894262 0.09004581 0.09025243
 0.08994909 0.08929905 0.08862153 0.08810329 0.08774662 0.08757807 0.08770597 0.08812491 0.08862334 0.08896211
 0.08906227 0.08898023 0.08878061 0.08848938 0.08813448 0.08779185 0.08758398 0.08760121 0.08779563 0.08800338
 0.08812529 0.08822395 0.08837208 0.08848318 0.08840358 0.08812951 0.08782737 0.08765367 0.08762953 0.08767759
 0.08770434 0.08762054 0.08734171 0.08686024 0.08633786 0.08604595 0.08614939 0.08658396 0.0871589 0.08770032
 0.08808276 0.08824247 0.08822434 0.08813998 0.08803859 0.08787315 0.08761089 0.08733113 0.08719528 0.08732185
 0.08767746 0.08809633 0.08841894 0.08859131 0.08864175 0.08863541 0.0886604 0.08876652 0.08888863 0.08890527
 0.08879694 0.08868413 0.0886885 0.08879851 0.08888985 0.08886473 0.0887612 0.08871417 0.08880796 0.08899562
 0.08917391 0.08930024 0.08941124 0.08954622 0.08967341 0.08970284 0.08958772 0.08939943 0.08926245 0.08922344
 0.08923763 0.08927654 0.08937658 0.0895591 0.08976005 0.08988193 0.08989908 0.08987883 0.08989308 0.08993067
 0.08991693 0.08981018 0.08965264 0.08952583 0.08947869 0.08950233 0.08955165 0.08957867 0.08955577 0.08948348
 0.08938251 0.08927482 0.0891685 0.08906793 0.08900252 0.08902243 0.08913697 0.08926474 0.08928016 0.08912777
 0.0888796 0.08866799 0.08856215 0.0885166 0.08843815 0.08828758 0.08810406 0.08794586 0.08783464 0.08775678
 0.08769114 0.08762695 0.08757775 0.08758786 0.08769904 0.0878865 0.08804674 0.08808218 0.08799642 0.08788468
 0.08783603 0.08786671 0.08793776 0.08800952 0.08807923 0.08817808 0.08832234 0.0884685 0.08854879 0.08855708
 0.08856402 0.08864153 0.08880824 0.08904362 0.08930321 0.08951662 0.0896283 0.08966046 0.08969861 0.08980057
 0.08994906 0.09010042 0.09024501 0.09040146 0.09057835 0.09077036 0.09098568 0.09125148 0.09158295 0.09195463
 0.09230725 0.09258677 0.09278843 0.09297121 0.09321938 0.09357521 0.09400466 0.09442949 0.09479323 0.09509943
 0.09539064 0.09569412 0.09600072 0.09630443 0.09664046 0.09705138 0.0975242 0.09799609 0.09842441 0.09882274
 0.09922591 0.09964634 0.100075 0.1005093 0.1009673 0.101465 0.1019816 0.1024581 0.1028486 0.1031656
 0.103468 0.1038137 0.1042256 0.1046756 0.1050889 0.1053977 0.1056196 0.1058561 0.1061833 0.1065677
 0.1069243 0.1072379 0.1075785 0.1079968 0.1084524 0.1088641 0.1092032 0.1095129 0.1098469 0.1102053
 0.1105345 0.1107838 0.1109608 0.1111227 0.1113168 0.1115515 0.111832 0.1121897 0.1126393 0.113128
 0.1135659 0.1139016 0.1141443 0.1143316 0.1145038 0.1146915 0.1148981 0.1151039 0.115299 0.1154899
 0.1156656 0.1157999 0.1159069 0.1160517 0.1162805 0.1165764 0.1169065 0.1172731 0.1176805 0.1180909
 0.1184651 0.1188319 0.1192584 0.1197408 0.120177 0.1204738 0.1206427 0.1207574 0.1208648 0.120986
 0.1211691 0.1214712 0.1218877 0.1223496 0.1227952 0.1232112 0.123606 0.1239746 0.1242968 0.124553
 0.1247346 0.1248519 0.124938 0.1250439 0.1252191 0.1254804 0.1257906 0.1260789 0.1262874 0.1263908
 0.1263762 0.126238 0.1260134 0.1257887 0.125629 0.1255025 0.1253004 0.1249336 0.1243865 0.1236843
 0.1228434 0.1218764 0.1208287 0.1197907 0.1188679 0.1181428 0.1176666 0.1174811 0.1176259 0.1180981
 0.1188063 0.1195906 0.1202953 0.1208052 0.1210217 0.1208565 0.1202872 0.1193994 0.1183443 0.1172583
 0.1162243 0.1152732 0.1143935 0.1135653 0.1128296 0.1123256 0.1122434 0.1127383 0.1138833 0.1156585
 0.1179331 0.1204584 0.1229324 0.1251242 0.126956 0.1284765 0.1297787 0.1309504 0.1320616 0.1331432
 0.1341693 0.1350924 0.1359031 0.1366346 0.1373123 0.1379234 0.1384342 0.1388198 0.1390806 0.1392462
 0.1393575 0.1394322 0.1394616 0.1394507 0.1394374 0.1394515 0.1394644 0.1393934 0.1391512 0.1386963
 0.1380658 0.1373982 0.1369397 0.137002 0.137847 0.1395388 0.1418781 0.1444936 0.1470168 0.1491981
 0.1509265 0.1522101 0.1531487 0.1538789 0.1545091 0.1550961 0.1556629 0.1562161 0.1567519 0.1572625
 0.1577474 0.1582188 0.1586966 0.1591923 0.1596912 0.1601593 0.1605787 0.1609746 0.1613989 0.1618823
 0.1624033 0.1629096 0.1633749 0.1638234 0.1642847 0.1647385 0.1651356 0.1654684 0.1657879 0.1661517
 0.166581 0.1670592 0.167543 0.1679786 0.1683384 0.1686452 0.168946 0.1692644 0.1695936 0.1699241
 0.1702585 0.1706004 0.1709476 0.1713021 0.1716761 0.1720725 0.172464 0.1728071 0.1730843 0.1733252
 0.173579 0.1738719 0.1741928 0.1745115 0.1748125 0.175115 0.1754569 0.1758499 0.1762544 0.1766109
 0.1768937 0.1771285 0.1773608 0.1776196 0.1779094 0.1782208 0.1785384 0.1788475 0.1791441 0.1794406
 0.1797522 0.1800784 0.1804031 0.1807112 0.1810021 0.1812874 0.1815797 0.1818839 0.182199 0.1825294
 0.1828853 0.183264 0.183636 0.1839643 0.1842366 0.1844724 0.1847003 0.1849378 0.1851903 0.1854587
 0.1857436 0.1860421 0.1863444 0.1866375 0.1869147 0.1871801 0.1874446 0.1877192 0.18801 0.1883157
 0.1886316 0.1889566 0.189291 0.1896266 0.1899485 0.1902489 0.1905338 0.1908134 0.1910919 0.1913685
 0.1916417 0.1919118 0.1921828 0.1924605 0.1927465 0.1930353 0.193319 0.1935931 0.1938585 0.19412
 0.1943811 0.1946434 0.19491 0.1951869 0.1954762 0.195771 0.1960611 0.1963419 0.1966175 0.1968968
 0.1971856 0.1974806 0.1977717 0.1980512 0.1983202 0.1985864 0.1988577 0.1991346 0.1994095 0.1996754
 0.1999361 0.2002024 0.2004781 0.2007562 0.2010266 0.201287 0.2015459 0.2018151 0.2020966 0.2023816
 0.202665 0.2029514 0.2032441 0.2035382 0.2038275 0.20411 0.2043856 0.204658 0.2049336 0.2052148
 0.2054988 0.2057856 0.206077 0.206368 0.2066499 0.2069197 0.2071813 0.2074401 0.2076991 0.207955
 0.2082016 0.2084401 0.2086808 0.2089297 0.2091836 0.2094403 0.2097005 0.2099642 0.2102334 0.210511
 0.2107924 0.2110663 0.2113276 0.2115813 0.2118364 0.2121014 0.2123799 0.2126657 0.2129523 0.2132413
 0.2135312 0.21381 0.214072 0.2143273 0.2145875 0.214856 0.2151345 0.2154205 0.2157037 0.2159776
 0.216246 0.2165139 0.2167843 0.2170606 0.2173392 0.2176077 0.2178641 0.2181221 0.2183895 0.2186621
 0.2189349 0.2192049 0.2194669 0.2197216 0.2199763 0.2202341 0.2204959 0.2207671 0.2210485 0.2213317
 0.2216126 0.2218909 0.2221595 0.2224158 0.2226704 0.2229291 0.2231856 0.2234398 0.2236931 0.2239221
 0.2240672 0.2239866 0.2233273 0.221389 0.2171155 0.2093118 0.1971184 0.1805553 0.1607098 0.1393524
 0.118285 0.0988719 0.08191243 0.06775483 0.0564747 0.0479848 0.04210082 0.0386583 0.03764004 0.03930908
 0.04435167 0.0534697 0.06583947 0.07774611 0.08403087 0.08216827 0.07468346 0.06684846 0.06229848 0.06127859
 0.06222567 0.06381336 0.0656276 0.06791607 0.07109757 0.07528976 0.08028918 0.08608367 0.09310505 0.1016794
 0.1113611 0.1211148 0.1302061 0.1387771 0.1474994 0.1567618 0.1662636 0.1753179 0.1833991 0.1904018
 0.1965337 0.2020831 0.2072608 0.2121746 0.2168734 0.221341 0.2254082 0.2287261 0.2309302 0.231912
 0.2319507 0.2315644 0.2312071 0.2310865 0.2312126 0.2315405 0.232042 0.2327034 0.233512 0.2344415
 0.235444 0.2364681 0.2374821 0.2384704 0.2394174 0.2403086 0.2411347 0.2418887 0.24257 0.2431885
 0.2437553 0.2442733 0.2447465 0.2451873 0.2456085 0.2460176 0.2464198 0.2468139 0.2471887 0.2475301
 0.247832 0.2480984 0.2483398 0.2485693 0.2487951 0.2490191 0.2492451 0.2494822 0.2497336 0.2499897
 0.2502386 0.2504758 0.2507032 0.2509256 0.2511493 0.2513774 0.2516065 0.2518309 0.2520493 0.252266
 0.2524879 0.2527195 0.2529575 0.2531909 0.25341 0.2536148 0.2538136 0.2540161 0.2542275 0.2544466
 0.2546725 0.2549101 0.2551622 0.255421 0.2556779 0.2559328 0.2561857 0.2564296 0.2566621 0.256891
 0.2571159 0.2573208 0.2574964 0.2576608 0.257849 0.2580838 0.2583545 0.2586264 0.258875 0.2591043
 0.2593288 0.2595503 0.2597594 0.2599479 0.2601216 0.2603118 0.2605581 0.2608624 0.2611799 0.2614735
 0.261746 0.2620109 0.2622705 0.2625297 0.2627882 0.2630162 0.2631801 0.2633024 0.2634691 0.2637612
 0.2641745 0.2646129 0.2649761 0.2652503 0.2654955 0.2657688 0.2660866 0.2664093 0.2666218 0.2666143
 0.2664582 0.2664261 0.2667441 0.2673701 0.2680714 0.2686578 0.2690894 0.2694204 0.2697032 0.2699344
 0.2700598 0.2700412 0.2699463 0.269967 0.2702863 0.2708884 0.2715532 0.2720767 0.2724324 0.2726921
 0.2729053 0.2730911 0.273199 0.2730516 0.2725317 0.2719053 0.271747 0.2723846 0.2735316 0.2745937
 0.2752542 0.2756296 0.275934 0.2762133 0.2764162 0.2764457 0.276022 0.2748412 0.2731796 0.2720618
 0.2724103 0.2741109 0.276194 0.2778049 0.2787359 0.2792023 0.2794701 0.2796833 0.2797532 0.279363
 0.2783258 0.2770602 0.2764807 0.2771512 0.2786475 0.2800114 0.2807285 0.280995 0.2811952 0.2814725
 0.281638 0.2811286 0.2793255 0.2764718 0.2741311 0.2740887 0.2766033 0.2800924 0.2826989 0.2838843
 0.2842756 0.2843009 0.2835666 0.2815776 0.2784891 0.2750382 0.2723184 0.2716314 0.2736185 0.277185
 0.2801256 0.2812966 0.2815738 0.2824013 0.2840706 0.2857354 0.2865192 0.2861927 0.2850204 0.2832837
 0.2811505 0.2791215 0.2782939 0.2795843 0.2826139 0.2858461 0.288004 0.2890368 0.2894495 0.2888088
 0.2854462 0.2784677 0.2702653 0.2658519 0.2684322 0.2760446 0.2836647 0.2881483 0.2899516 0.2907573
 0.291223 0.2908076 0.2880971 0.2815806 0.2720338 0.2640088 0.2627527 0.2690181 0.2782113 0.2846789
 0.2855552 0.2810602 0.2734825 0.2664984 0.2636696 0.2662838 0.2727954 0.2803519 0.2865049 0.2898793
 0.2901595 0.2879573 0.2847641 0.2825848 0.2824891 0.283031 0.2813486 0.2767807 0.2719697 0.2689785
 0.266093 0.2609863 0.2558231 0.2558218 0.2624744 0.2710583 0.2759442 0.2762957 0.2750519 0.2735711
 0.2693159 0.2595248 0.246463 0.2374954 0.2386388 0.2483208 0.2587896 0.2636937 0.2631169 0.2613001
 0.260986 0.2606308 0.2565971 0.2479087 0.2386461 0.2345185 0.236801 0.2412006 0.2429411 0.2405809
 0.2343482 0.2245921 0.2144904 0.2110291 0.2191004 0.2355023 0.2514563 0.2598391 0.2577821 0.245086
 0.2251935 0.2072347 0.2015828 0.2105737 0.2256706 0.2353191 0.2341186 0.2237752 0.2081423 0.1905738
 0.1754552 0.1686884 0.1741492 0.189745 0.2075242 0.2176625 0.2138901 0.1983373 0.181884 0.1763288
 0.1836953 0.1948782 0.1998516 0.1967538 0.1904551 0.1862501 0.1867818 0.1916378 0.1978141 0.2025101
 0.2053615 0.2053665 0.1978859 0.1802557 0.1593057 0.1468771 0.1475094 0.1561131 0.1674617 0.1808654
 0.1940072 0.1997482 0.1941951 0.1841159 0.1811814 0.189576 0.2024074 0.2101104 0.2098952 0.2062478
 0.2039742 0.2030554 0.2010736 0.1988103 0.2004409 0.2077739 0.2170893 0.223294 0.2252313 0.2252113
 0.2251037 0.224931 0.2242 0.2227449 0.2206358 0.2183059 0.2164223 0.215129 0.2139125 0.2123737
 0.2102174 0.2061438 0.1981539 0.1864413 0.1751862 0.1692846 0.1692061 0.1713285 0.1732953 0.1753909
 0.1755527 0.1679609 0.1507201 0.1321588 0.1247695 0.1331524 0.1506012 0.1667264 0.1753485 0.1750045
 0.16592 0.1504148 0.1356077 0.1311598 0.1413669 0.1610424 0.1810961 0.1963547 0.2060894 0.2096954
 0.2059045 0.1960653 0.1853889 0.1799808 0.1831641 0.1940069 0.2075744 0.2161353 0.2129488 0.1990133
 0.1861141 0.1881079 0.2063033 0.2271903 0.2376181 0.238134 0.2375736 0.2393489 0.2397828 0.2377952
 0.2387532 0.2470774 0.2596906 0.2690421 0.2697473 0.2607077 0.2443421 0.2270587 0.2176047 0.2201018
 0.2294015 0.2367009 0.2380525 0.233848 0.223639 0.2083284 0.1956781 0.1956218 0.2087408 0.2249442
 0.2349527 0.2387546 0.2414058 0.2443437 0.2436814 0.2361333 0.2244916 0.2158938 0.2147576 0.2189191
 0.2233002 0.2252644 0.2246784 0.2209094 0.2132134 0.204051 0.1990991 0.2023463 0.212007 0.2222298
 0.2283596 0.2298675 0.2289402 0.2276684 0.2266249 0.2250597 0.2223616 0.2199469 0.2209728 0.2268972
 0.2350527 0.2413364 0.2448915 0.2483942 0.2538603 0.2598587 0.2632464 0.2626127 0.2596541 0.2577288
 0.259174 0.2634418 0.2674951 0.2683924 0.2660764 0.2636761 0.2646152 0.2693394 0.2752589 0.2796884
 0.2820433 0.2832751 0.2842782 0.2851285 0.2850497 0.2830171 0.2792419 0.2760413 0.2762063 0.2802327
 0.2858369 0.2902926 0.2926067 0.2933832 0.2933643 0.2926416 0.2910704 0.2889743 0.2871723 0.2863428
 0.2865402 0.2873611 0.2883808 0.2893402 0.2901137 0.2906829 0.291099 0.2913997 0.2916012 0.291758
 0.2919291 0.2920756 0.2921058 0.2920543 0.2921108 0.2923964 0.2927897 0.2930508 0.293043 0.292731
 0.2920365 0.2908576 0.2892378 0.2873688 0.2853786 0.2832472 0.281051 0.2792364 0.2784914 0.2792367
 0.2812404 0.2837582 0.2860345 0.2876763 0.2886642 0.2891642 0.2893753 0.289458 0.2895037 0.2895304
 0.2895122 0.2894245 0.2892709 0.2890729 0.2888508 0.2886245 0.2884241 0.2882746 0.2881667 0.2880528
 0.2878755 0.2875989 0.2872281 0.2868032 0.2863619 0.2858937 0.285335 0.2846181 0.283733 0.282746
 0.2817583 0.2808396 0.2799855 0.2791362 0.2782321 0.2772486 0.2761673 0.2749366 0.2735155 0.2719681
 0.2704638 0.2691408 0.2679958 0.2669216 0.2658101 0.2645975 0.2632614 0.2618207 0.2603239 0.2588132
 0.2573026 0.2557836 0.254234 0.2526253 0.2509376 0.2491694 0.2473267 0.2454129 0.2434359 0.2414117
 0.239337 0.237148 0.2347163 0.2318935 0.228559 0.2246377 0.2201154 0.215067 0.2096569 0.2040937
 0.1985826 0.1933067 0.1884176 0.1840291 0.1802271 0.1770808 0.174639 0.1729276 0.1719587 0.1717333
 0.1722303 0.1734006 0.1751671 0.1774206 0.180021 0.1828044 0.1855928 0.1882185 0.1905807 0.1926925
 0.1946551 0.1965629 0.1984265 0.2001885 0.2017994 0.2032528 0.2045427 0.2056257 0.2064603 0.2070622
 0.2074927 0.2078053 0.2080221 0.2081486 0.2081904 0.2081629 0.2080961 0.208029 0.2080012 0.2080474
 0.2081892 0.2084307 0.2087658 0.2091896 0.2096986 0.2102846 0.2109327 0.2116236 0.2123416 0.213085
 0.2138631 0.2146903 0.2155973 0.2166378 0.2178608 0.2192813 0.2208863 0.2226484 0.2245084 0.2263597
 0.2280671 0.2295126 0.2306346 0.2314381 0.2319632 0.2322421 0.232291 0.2321377 0.2318327 0.2314313
 0.2309761 0.2304949 0.2300069 0.2295325 0.2290862 0.2286563 0.2282114 0.2277429 0.2272789 0.2268453
 0.2264349 0.2260266 0.2256126 0.225198 0.2247893 0.2243886 0.2239934 0.2235972 0.2231882 0.222748
 0.2222588 0.2217101 0.2210868 0.22036 0.2195054 0.2185225 0.2174192 0.2161934 0.2148487 0.2134079
 0.2118967 0.2103271 0.2087049 0.207036 0.2053178 0.2035303 0.2016378 0.1996081 0.1974486 0.1952258
 0.1930357 0.1909547 0.1890168 0.1872158 0.1855177 0.1838898 0.1823249 0.18083 0.179403 0.1780379
 0.1767397 0.1755146 0.1743543 0.1732454 0.1721888 0.1712052 0.1703233 0.1695594 0.1689049 0.1683358
 0.1678333 0.1673906 0.1670143 0.1667287 0.166558 0.1664859 0.1664443 0.166354 0.1661744 0.1659205
 0.1656457 0.1654044 0.1652154 0.1650593 0.1649007 0.1647002 0.1644054 0.1639466 0.1632444 0.1622262
 0.1608568 0.1591631 0.1572305 0.155182 0.1531604 0.1512983 0.1496833 0.1483552 0.1473225 0.1465552
 0.1459747 0.1454965 0.1450919 0.1448031 0.1446948 0.1447731 0.1449342 0.1450217 0.144972 0.1448834
 0.1449252 0.1452014 0.1457013 0.146328 0.1469572 0.1474971 0.1479081 0.1481762 0.1483057 0.1483324
 0.1482925 0.1481776 0.1479599 0.1476502 0.1472951 0.1469274 0.1465393 0.1460871 0.1455263 0.1448552
 0.1441091 0.1433096 0.1424551 0.1415349 0.1405042 0.1393003 0.13797 0.1367451 0.135925 0.1356965
 0.136055 0.1368249 0.1377686 0.1387346 0.1396527 0.1403612 0.1406296 0.1405215 0.1406047 0.141553
 0.1434931 0.145857 0.1478915 0.1492047 0.1497996 0.1497808 0.1492149 0.1481691 0.1466755 0.1446916
 0.1422203 0.1393909 0.1363545 0.1332343 0.1302062 0.1274705 0.1251401 0.1232474 0.1217884 0.1207899
 0.1203667 0.120138 0.1182282 0.1122458 0.1029713 0.0960048 0.09706071 0.1055394 0.1149457 0.119761
 0.1198405 0.1181245 0.1166343 0.1156745 0.115146 0.1151938 0.1159501 0.1172769 0.1187744 0.1200153
 0.1208201 0.1212307 0.1212133 0.1204241 0.1181514 0.1135515 0.1063263 0.09733282 0.08829217 0.08077788
 0.07551339 0.07239405 0.07081981 0.07004471 0.06954423 0.06925212 0.0694607 0.07047646 0.07235885 0.07495153
 0.07805292 0.0814205 0.08466604 0.08738707 0.08947028 0.09109626 0.09240919 0.09334169 0.09377448 0.09370691
 0.09324192 0.09251447 0.0916597 0.09077634 0.08987074 0.08885889 0.08770056 0.08656114 0.08574257 0.08538695
 0.08534408 0.085384 0.08541553 0.08544885 0.08548363 0.08549995 0.08548658 0.0854749 0.08557442 0.08589636
 0.08639927 0.08689274 0.08721825 0.08736619 0.08742476 0.08744006 0.08730032 0.08682846 0.08608143 0.08539869
 0.08495627 0.0844503 0.0835038 0.08226236 0.08129986 0.08099191 0.08120006 0.08152113 0.08165139 0.08152446
 0.08128986 0.08123563 0.08158729 0.0822311</values></Ydata></ScSm><ScRf><Ydata ylabel="Single channel"><values byteorder="INTEL" format="FLOAT32" numvalues="1820"> 0.06072393 0.0608747 0.06096271 0.0609972 0.0610044 0.0610223 0.06109233 0.06123591 0.06143268 0.06162492
 0.06175584 0.06180931 0.06180445 0.06176028 0.06169447 0.06165508 0.06170869 0.06187403 0.06208557 0.062236
 0.06225805 0.06218483 0.06213513 0.06220175 0.06232794 0.06232281 0.06204008 0.06154304 0.06106211 0.06078111
 0.06072132 0.06087407 0.0613161 0.06199848 0.06250297 0.06233697 0.06155098 0.06077649 0.06052698 0.06070332
 0.06088159 0.06080673 0.06047837 0.06005365 0.05988255 0.06041226 0.06174809 0.06329149 0.06395334 0.06283766
 0.05988057 0.05605973 0.05303743 0.05226745 0.05396799 0.05682961 0.05900204 0.05957112 0.05899424 0.05816254
 0.05744064 0.05678248 0.05635458 0.05657434 0.05753488 0.058611 0.05878037 0.05749997 0.05535278 0.05363528
 0.05317586 0.05381465 0.05508973 0.05673754 0.05799858 0.05722641 0.05350608 0.04869579 0.04659711 0.04934423
 0.0551246 0.05994719 0.06119135 0.05908017 0.05552157 0.05252415 0.05143054 0.05256055 0.05517223 0.05807899
 0.06036203 0.06139904 0.06070349 0.05835505 0.05541489 0.05340824 0.05338793 0.05552452 0.0590689 0.06241621
 0.06383444 0.06274373 0.06010181 0.05739344 0.05565564 0.05547744 0.05713973 0.06032464 0.06410095 0.06746332
 0.06973834 0.07065254 0.07039696 0.06951108 0.06847018 0.0675932 0.06732313 0.0679611 0.06893604 0.06901777
 0.06765603 0.06571992 0.06460607 0.06479684 0.06547677 0.06552382 0.06464393 0.0631911 0.06105873 0.05765664
 0.05326425 0.04939447 0.04728366 0.04695 0.04809226 0.05056948 0.05333818 0.05439007 0.05294707 0.05086395
 0.05078636 0.0533294 0.05676114 0.05912323 0.06004731 0.06061758 0.06197136 0.06413142 0.06586584 0.06561811
 0.06305055 0.05990732 0.05878264 0.06057675 0.0636308 0.06576598 0.06657969 0.06720331 0.06832382 0.06911893
 0.06811596 0.0649448 0.06127613 0.05978554 0.06181948 0.06604473 0.06941545 0.06942348 0.06578603 0.06051179
 0.05633805 0.05483592 0.05599393 0.05926669 0.06417665 0.06975487 0.07428908 0.07628258 0.07554063 0.07309457
 0.07002309 0.06645062 0.06210148 0.05795888 0.05648021 0.05927969 0.06506699 0.07071865 0.07406286 0.0749682
 0.07413986 0.07178496 0.06780732 0.06310198 0.05998595 0.06040119 0.06357279 0.06644196 0.06686545 0.06557268
 0.06460001 0.06475423 0.06530369 0.065538 0.06578861 0.06686506 0.06889372 0.07100886 0.07218763 0.07217719
 0.07154279 0.07101296 0.07081723 0.07051418 0.06961554 0.06856095 0.06866677 0.07067724 0.07373364 0.07625717
 0.07753607 0.0779804 0.07805307 0.07745723 0.07556193 0.07257901 0.07004102 0.06966299 0.07168521 0.07472171
 0.07720129 0.07849897 0.07879245 0.07849266 0.07796343 0.07740785 0.07692982 0.07678181 0.07729678 0.07841042
 0.07955886 0.08024062 0.0804253 0.08029737 0.07989699 0.07919998 0.07838125 0.07781258 0.0777907 0.07831334
 0.07913409 0.07998188 0.08065323 0.08096546 0.08082198 0.08036155 0.0798799 0.07955854 0.07939648 0.07939947
 0.07965133 0.08014742 0.08070431 0.08111301 0.08130749 0.08134258 0.08127828 0.08113599 0.08093543 0.08074074
 0.08066215 0.08078128 0.08105284 0.08133284 0.0815464 0.08176179 0.08203495 0.08226049 0.08228102 0.08210112
 0.08189423 0.08181338 0.08186936 0.08198209 0.08207045 0.0820618 0.08187836 0.08150786 0.08110072 0.08091359
 0.08110377 0.08161659 0.08227871 0.08292156 0.08340803 0.08365956 0.08371436 0.08368679 0.08363406 0.08351757
 0.08330975 0.08309127 0.08302075 0.08321209 0.08363086 0.08411427 0.0845006 0.08472589 0.08481507 0.08484861
 0.0849354 0.08512645 0.0853332 0.08540995 0.08533712 0.08525369 0.08528943 0.08541974 0.08550943 0.08547287
 0.08537081 0.08534743 0.08548009 0.08571097 0.08593062 0.08609929 0.0862658 0.08647725 0.08668663 0.08677013
 0.08665945 0.08643956 0.08626875 0.08621265 0.08621991 0.08625419 0.08636126 0.08657207 0.08680931 0.08695142
 0.0869682 0.08694639 0.08697675 0.0870463 0.08706028 0.08695529 0.08676775 0.08659625 0.08651932 0.08654949
 0.08664034 0.08672103 0.0867365 0.08667557 0.08656885 0.08645651 0.08635993 0.08629434 0.0863018 0.0864362
 0.08668544 0.08692515 0.08699399 0.08683783 0.08656906 0.08636597 0.0863101 0.08632684 0.08627947 0.08610408
 0.08584685 0.08559498 0.0853999 0.08526154 0.08515583 0.0850668 0.0850101 0.0850305 0.08515125 0.08531058
 0.08537678 0.08526111 0.08500721 0.08474529 0.08457401 0.08450706 0.08450402 0.08451486 0.08451609 0.08453358
 0.08460494 0.08470246 0.08473793 0.08466838 0.0845539 0.08449361 0.08454737 0.08471975 0.0849544 0.08513431
 0.08515812 0.08504492 0.08492018 0.08488493 0.08493593 0.08501647 0.08509596 0.08517805 0.08526682 0.08536033
 0.08547213 0.08563396 0.08586499 0.08614108 0.08639967 0.08658175 0.0866808 0.08675741 0.08689833 0.08714773
 0.08747219 0.08779143 0.08804415 0.08823054 0.0883968 0.08858125 0.08878322 0.08899158 0.08922415 0.08951032
 0.08984163 0.09017274 0.09047281 0.09075031 0.09102651 0.09130971 0.09160088 0.09191121 0.09226586 0.09268031
 0.09312146 0.09350437 0.09375677 0.09389184 0.09400535 0.09420426 0.09453429 0.094943 0.0952997 0.09549527
 0.09555641 0.09562947 0.09582053 0.09608832 0.09633357 0.09655433 0.09684882 0.09727187 0.09774586 0.09813379
 0.09837314 0.09852074 0.09867679 0.09887852 0.0990735 0.09919685 0.0992587 0.09933169 0.09946176 0.09963451
 0.09983976 0.1001165 0.1004939 0.1009214 0.1013029 0.1015856 0.1017841 0.1019355 0.1020632 0.1021694
 0.1022382 0.102261 0.1022718 0.1023258 0.1024266 0.1025133 0.1025454 0.1025633 0.1026383 0.1027955
 0.1030187 0.1032946 0.1036073 0.1039131 0.1041784 0.1044402 0.1047708 0.1051618 0.1054942 0.1056627
 0.1056921 0.1056885 0.1057109 0.1057523 0.1058227 0.1059732 0.1062285 0.1065502 0.1068881 0.1072287
 0.1075801 0.1079328 0.1082484 0.1084769 0.1085856 0.1085864 0.1085408 0.1085358 0.1086431 0.1088819
 0.1092069 0.1095392 0.1098167 0.1100116 0.1101071 0.1100968 0.1100284 0.1100092 0.1101196 0.11032
 0.1104733 0.1104599 0.1102504 0.1098736 0.1093563 0.1087192 0.1080151 0.1073385 0.1067836 0.1063966
 0.1061809 0.1061465 0.1063361 0.1067765 0.1074115 0.1081139 0.1087659 0.1092937 0.109623 0.1096569
 0.1093449 0.1087478 0.1080048 0.1072478 0.1065551 0.1059453 0.1053811 0.1048176 0.1042905 0.1039531
 0.1040002 0.104553 0.1056006 0.1070083 0.1085582 0.1100194 0.1112405 0.1122057 0.1130019 0.1137235
 0.1144111 0.1150718 0.1157234 0.1163813 0.1170179 0.1175821 0.1180624 0.1184959 0.1189151 0.1193135
 0.1196668 0.1199588 0.1201931 0.1203971 0.1205973 0.1207743 0.1208672 0.1208438 0.1207429 0.1206261
 0.1205069 0.1203442 0.1200851 0.1197069 0.119249 0.1188337 0.1186467 0.1188606 0.1195385 0.1205946
 0.1218573 0.1231772 0.1244657 0.1256432 0.1266087 0.1272981 0.1277461 0.1280571 0.128326 0.1286013
 0.128897 0.1292066 0.1295114 0.1297964 0.1300657 0.130341 0.1306461 0.1309854 0.1313319 0.1316434
 0.131902 0.1321396 0.1324167 0.1327689 0.1331697 0.1335522 0.1338788 0.1341765 0.1344875 0.1347972
 0.1350489 0.1352241 0.1353747 0.1355711 0.1358489 0.1361997 0.1365769 0.1369097 0.137149 0.1373136
 0.1374698 0.1376649 0.1378966 0.138142 0.1383911 0.1386436 0.1388986 0.1391603 0.1394436 0.1397522
 0.1400544 0.1402981 0.140464 0.1405931 0.1407492 0.1409586 0.1411948 0.1414175 0.1416185 0.1418302
 0.1420906 0.1424 0.1427096 0.1429597 0.1431298 0.1432519 0.1433776 0.1435393 0.1437386 0.1439585
 0.1441789 0.1443865 0.1445815 0.1447771 0.1449867 0.1452086 0.145427 0.1456287 0.1458168 0.1460061
 0.1462069 0.1464169 0.1466324 0.146867 0.1471441 0.1474607 0.1477702 0.1480181 0.1481904 0.1483167
 0.1484341 0.1485637 0.1487138 0.1488867 0.1490777 0.1492778 0.149481 0.1496868 0.1498961 0.1501057
 0.1503116 0.1505149 0.1507222 0.1509366 0.1511548 0.151376 0.1516041 0.1518378 0.1520633 0.1522668
 0.1524485 0.1526229 0.152806 0.1530032 0.1532068 0.1534054 0.1535967 0.1537888 0.1539889 0.1541934
 0.1543928 0.1545821 0.1547669 0.1549576 0.1551573 0.1553587 0.1555537 0.1557432 0.1559332 0.1561263
 0.1563199 0.1565103 0.156697 0.1568836 0.157075 0.1572723 0.1574733 0.1576778 0.1578884 0.1581039
 0.1583188 0.1585279 0.1587299 0.1589264 0.1591201 0.1593129 0.1595055 0.1596994 0.1598961 0.1600958
 0.1602968 0.1604973 0.160694 0.1608856 0.1610785 0.1612834 0.1615014 0.1617224 0.1619389 0.1621533
 0.1623695 0.1625855 0.1627962 0.163 0.1632013 0.163408 0.163624 0.163846 0.1640669 0.1642799
 0.1644776 0.1646554 0.1648169 0.1649728 0.1651342 0.1653102 0.1655031 0.1657048 0.1659026 0.1660907
 0.1662712 0.1664499 0.1666358 0.1668368 0.1670503 0.1672642 0.1674698 0.1676693 0.1678687 0.1680716
 0.1682767 0.168481 0.1686865 0.1689 0.1691222 0.1693443 0.1695587 0.169765 0.1699651 0.1701618
 0.1703618 0.1705701 0.1707849 0.171003 0.1712218 0.1714366 0.1716473 0.1718597 0.172075 0.1722856
 0.1724893 0.1726928 0.1728992 0.1731071 0.1733179 0.1735302 0.1737366 0.1739355 0.174135 0.1743408
 0.1745516 0.1747662 0.1749832 0.1752014 0.1754239 0.1756514 0.175874 0.176085 0.1762911 0.1764984
 0.1767053 0.1769149 0.1771294 0.1773263 0.1774493 0.1773808 0.1768487 0.1753108 0.1719293 0.1657403
 0.1560508 0.1428824 0.1271078 0.1101321 0.0933807 0.07794116 0.06445866 0.05321218 0.04425358 0.03750713
 0.03282894 0.03009132 0.02927704 0.03059296 0.03459176 0.04184059 0.05168508 0.06116609 0.06617795 0.06471013
 0.05876641 0.05253498 0.04890598 0.04807834 0.0488172 0.05007603 0.05152742 0.05336304 0.05590918 0.05925616
 0.06324175 0.06785641 0.07344286 0.0802597 0.08795367 0.09570464 0.1029331 0.1097591 0.1167265 0.1241467
 0.1317678 0.1390195 0.1454673 0.1510321 0.1559034 0.160337 0.1645051 0.1684711 0.1722489 0.1758204
 0.1790629 0.1817096 0.1834737 0.1842676 0.1843111 0.1840127 0.1837339 0.1836424 0.1837473 0.1840124
 0.1844158 0.1849463 0.1855915 0.1863301 0.1871284 0.1879511 0.1887744 0.1895835 0.1903654 0.1911094
 0.1918055 0.1924398 0.1930027 0.1935001 0.1939468 0.1943562 0.1947422 0.1951199 0.195496 0.1958667
 0.1962242 0.196557 0.1968526 0.1971094 0.1973417 0.1975676 0.1977965 0.1980265 0.1982475 0.1984507
 0.1986404 0.1988322 0.1990364 0.199251 0.1994703 0.1996916 0.1999122 0.2001296 0.2003432 0.2005513
 0.2007499 0.2009373 0.2011158 0.2012887 0.2014612 0.2016402 0.2018299 0.2020272 0.2022243 0.2024146
 0.2025971 0.2027779 0.2029655 0.2031616 0.2033625 0.2035699 0.2037906 0.2040226 0.204253 0.2044712
 0.2046768 0.2048756 0.2050738 0.2052754 0.2054747 0.2056556 0.2058087 0.2059492 0.2061112 0.2063193
 0.2065628 0.2068062 0.2070242 0.2072202 0.2074119 0.2076095 0.2078101 0.208002 0.2081784 0.2083556
 0.2085646 0.2088122 0.2090721 0.2093211 0.2095617 0.2097996 0.2100326 0.2102659 0.2105043 0.2107251
 0.2108928 0.2110141 0.2111566 0.2113961 0.2117396 0.2121115 0.2124269 0.2126709 0.2128868 0.2131168
 0.2133791 0.2136558 0.2138635 0.213905 0.2138193 0.2138173 0.2140885 0.2146098 0.215196 0.2156909
 0.216061 0.2163498 0.2166001 0.2168119 0.2169468 0.2169753 0.2169439 0.2169916 0.2172556 0.2177307
 0.2182614 0.2186984 0.2190135 0.2192453 0.2194282 0.2195935 0.2197211 0.2196689 0.2193202 0.2188651
 0.2187601 0.2192812 0.220213 0.2210837 0.2216354 0.2219575 0.2222264 0.2224886 0.2227072 0.2227951
 0.2225082 0.2215872 0.2202548 0.2193554 0.219656 0.2210716 0.2228071 0.2241539 0.2249392 0.2253462
 0.2256034 0.2258295 0.2259426 0.2256748 0.2248731 0.2238802 0.2234388 0.2240071 0.2252483 0.2263938
 0.227026 0.2272934 0.2274989 0.2277648 0.2279531 0.22761 0.2262157 0.2239487 0.2220791 0.2220718
 0.2241497 0.2270329 0.2292125 0.2302468 0.2306405 0.2307391 0.2302165 0.2286589 0.2261866 0.2234063
 0.2212228 0.2207061 0.2223793 0.2253447 0.2277987 0.2288082 0.2290926 0.2298354 0.2312755 0.2327161
 0.2334314 0.2332287 0.2323297 0.2309747 0.2293033 0.2277216 0.2271253 0.2282657 0.2308334 0.2335695
 0.2354267 0.2363602 0.2367801 0.2363265 0.2336255 0.2279423 0.2212469 0.2176699 0.2198612 0.2262218
 0.232618 0.2364396 0.2380323 0.2387688 0.2392039 0.2389165 0.2367563 0.2314746 0.2236996 0.2171835
 0.2162635 0.2215615 0.2292719 0.2347137 0.2355195 0.2318785 0.2256911 0.2200018 0.2177569 0.2200238
 0.2255282 0.2319112 0.2371401 0.240069 0.2404291 0.2387202 0.2361801 0.2344868 0.2345386 0.2351249
 0.2338492 0.2301549 0.2262481 0.2238588 0.2215717 0.2174549 0.2133166 0.2135095 0.2192667 0.2266226
 0.2308665 0.2313169 0.2304515 0.229403 0.226022 0.2179681 0.207135 0.1997352 0.2008728 0.209246
 0.2183079 0.2226784 0.222422 0.2211286 0.2211268 0.22111 0.2179779 0.2108845 0.2033094 0.2001395
 0.202466 0.2066039 0.2084531 0.2067721 0.2017456 0.1936685 0.185292 0.1826743 0.1900758 0.204743
 0.2190549 0.2267924 0.2254138 0.2146967 0.1976351 0.1822844 0.1778469 0.1864228 0.2004483 0.209649
 0.2092002 0.2005976 0.1872601 0.172188 0.1593613 0.1541975 0.1603194 0.1758724 0.1935119 0.2040329
 0.2014669 0.1877578 0.1732177 0.1691081 0.1773587 0.1892061 0.1949988 0.1929531 0.1877816 0.1846472
 0.1861993 0.1920728 0.1992663 0.2049728 0.2088233 0.2097004 0.2027198 0.185093 0.163884 0.151349
 0.1522104 0.1612507 0.1731153 0.1871202 0.2008468 0.2068386 0.2010067 0.1903583 0.1870213 0.1953679
 0.2082817 0.2158701 0.2152537 0.2110889 0.2083813 0.2071623 0.2049733 0.2026182 0.2043677 0.2120612
 0.2218834 0.2286198 0.2310751 0.2315977 0.232098 0.2326042 0.2326029 0.231905 0.2305694 0.2290408
 0.2280143 0.2276463 0.2274099 0.2269008 0.2258054 0.2226639 0.2151847 0.2034606 0.1920185 0.1862299
 0.1866128 0.1891953 0.1914219 0.1936457 0.1936243 0.1849719 0.1655969 0.1446201 0.1357349 0.1439748
 0.1619685 0.1783422 0.1864302 0.1848433 0.1740683 0.1566724 0.1400172 0.1339516 0.1427765 0.161116
 0.179664 0.1932062 0.2012004 0.2033193 0.198468 0.1879604 0.1767924 0.1707777 0.173003 0.1824724
 0.1944439 0.2016555 0.1978811 0.1841255 0.1713466 0.1723701 0.1884325 0.2071067 0.2162658 0.2163583
 0.2154695 0.2167534 0.2168823 0.2148846 0.2156689 0.2232961 0.2350058 0.2439417 0.2451721 0.2376283
 0.2234586 0.2085207 0.2008587 0.2042169 0.2137154 0.2211045 0.2227184 0.2189809 0.2095419 0.1953305
 0.183714 0.1840609 0.1968866 0.2126352 0.2225375 0.2266003 0.2296218 0.2329446 0.2328321 0.226129
 0.215523 0.2078952 0.2075188 0.2123259 0.2174333 0.2202954 0.2207401 0.2180601 0.2114559 0.2033573
 0.199441 0.2036991 0.2142878 0.2252213 0.2316965 0.2330911 0.2315755 0.2292922 0.2269108 0.223792
 0.2194154 0.2152353 0.2143986 0.2183847 0.2246536 0.2292603 0.2313727 0.2335433 0.237697 0.2424801
 0.2449066 0.2436156 0.2401662 0.2376761 0.2383145 0.241579 0.2446767 0.2449141 0.2422608 0.2396171
 0.2401429 0.2442465 0.2495441 0.2535664 0.2557638 0.2569838 0.2580219 0.2589278 0.2589658 0.2571684
 0.253705 0.2506822 0.2506502 0.2540721 0.2588848 0.2626358 0.2644681 0.2649767 0.2648525 0.2641622
 0.2627525 0.2609055 0.259354 0.2586981 0.2589726 0.2598001 0.2607823 0.2616701 0.2623438 0.2627977
 0.2631016 0.2633059 0.2634203 0.2634809 0.2635378 0.2635623 0.2634795 0.2633324 0.2633099 0.2635355
 0.263901 0.264177 0.2642207 0.2639896 0.2634243 0.2624624 0.2611684 0.2597157 0.2581931 0.2565423
 0.2548022 0.253376 0.2529085 0.253797 0.2558227 0.2582871 0.2604921 0.262091 0.2630793 0.2636054
 0.2638351 0.263907 0.2639075 0.2638551 0.2637269 0.2635096 0.2632203 0.2628821 0.2625014 0.2620877
 0.2616833 0.2613431 0.2610758 0.2608231 0.2605072 0.2600905 0.2595896 0.2590477 0.2584963 0.2579277
 0.2572975 0.2565587 0.2556978 0.2547503 0.2537921 0.2529048 0.2521199 0.2513906 0.2506361 0.2498094
 0.2489005 0.2478931 0.2467742 0.2456038 0.244521 0.2436356 0.2429312 0.2422973 0.2416317 0.2408856
 0.2400413 0.2390988 0.2380819 0.2370254 0.2359449 0.2348298 0.2336556 0.2323954 0.2310337 0.2295802
 0.2280594 0.2264886 0.22488 0.2232512 0.221599 0.2198561 0.2178942 0.2155726 0.212778 0.2094353
 0.2055214 0.2010939 0.1963011 0.1913495 0.1864447 0.1817554 0.1774132 0.1735225 0.170163 0.1673967
 0.1652782 0.1638488 0.1631236 0.1630994 0.1637705 0.165118 0.16708 0.1695412 0.1723511 0.1753426
 0.178339 0.1811749 0.18375 0.1860777 0.1882563 0.1903628 0.1923796 0.1942334 0.1958779 0.1973117
 0.1985425 0.1995738 0.2004233 0.2011281 0.2017253 0.2022361 0.2026668 0.2030199 0.2033046 0.2035367
 0.2037354 0.2039219 0.2041126 0.204312 0.2045196 0.2047432 0.2049979 0.2052996 0.2056664 0.2061124
 0.2066264 0.2071721 0.2077233 0.2082848 0.208877 0.2095191 0.2102355 0.211061 0.2120268 0.2131434
 0.2143964 0.2157493 0.2171442 0.2185009 0.2197265 0.2207416 0.2215022 0.2220004 0.2222556 0.2223111
 0.2222227 0.2220337 0.2217627 0.2214153 0.2209943 0.2204997 0.219933 0.2193055 0.2186356 0.2179375
 0.2172199 0.2164944 0.2157774 0.2150821 0.2144122 0.213765 0.2131387 0.2125341 0.2119491 0.2113786
 0.210819 0.2102632 0.2096942 0.2090968 0.2084756 0.2078474 0.2072071 0.2065148 0.2057234 0.204813
 0.2037929 0.2026781 0.2014771 0.2001979 0.1988504 0.1974367 0.1959509 0.1943908 0.1927606 0.1910554
 0.1892512 0.1873228 0.1852809 0.1831969 0.1811805 0.1793209 0.1776383 0.1760867 0.1746053 0.1731704
 0.1717986 0.170508 0.1692899 0.1681263 0.167015 0.1659616 0.1649612 0.1640064 0.1631075 0.1622911
 0.1615808 0.1609783 0.1604602 0.1599977 0.1595827 0.159228 0.1589513 0.1587707 0.1587004 0.1587254
 0.1587886 0.1588221 0.1587876 0.1586865 0.1585479 0.158411 0.1583019 0.1582268 0.1581787 0.158131
 0.1580181 0.1577393 0.1571917 0.1563043 0.155064 0.1535206 0.1517623 0.1498963 0.1480535 0.1463709
 0.1449409 0.1437883 0.1428953 0.1422181 0.1416917 0.1412637 0.140932 0.140743 0.1407537 0.1409658
 0.1412664 0.1414762 0.141515 0.1414955 0.1416206 0.1420172 0.1426723 0.1434678 0.1442569 0.1449412
 0.145487 0.1458785 0.1461075 0.1462041 0.1462159 0.1461564 0.1460172 0.1458074 0.1455458 0.1452453
 0.1449136 0.1445372 0.14408 0.1435279 0.1429001 0.1421992 0.1414052 0.1405069 0.1394832 0.1383035
 0.1370333 0.135898 0.1351708 0.1350144 0.1354147 0.1362061 0.1371865 0.1382487 0.1393237 0.1401941
 0.1405782 0.140543 0.1406836 0.1416842 0.1436793 0.1461206 0.1482675 0.1497209 0.1504703 0.1506085
 0.1501883 0.1492593 0.1478348 0.1458667 0.1433799 0.1405332 0.1374844 0.1343514 0.1313178 0.1285938
 0.126288 0.1244254 0.1229961 0.1220164 0.1216053 0.1214033 0.1195201 0.113512 0.1041709 0.09721141
 0.09844121 0.1072137 0.1168964 0.1218785 0.1220252 0.1203384 0.1188729 0.1179181 0.1173598 0.1173612
 0.1180739 0.1193509 0.1207796 0.1219367 0.1226537 0.1229898 0.1229326 0.1221263 0.1198021 0.1150694
 0.1076414 0.09842842 0.08920889 0.08159062 0.07628726 0.07315443 0.07156719 0.07078004 0.07027207 0.06998242
 0.07021339 0.07126427 0.0731767 0.07580718 0.07898913 0.08248067 0.0858545 0.08867788 0.09083734 0.09253184
 0.0939313 0.09498222 0.09555236 0.09562076 0.0952853 0.09468083 0.09393555 0.09313601 0.09226512 0.0912146
 0.08995855 0.08871125 0.08780003 0.08735806 0.08724061 0.08724044 0.08725888 0.08726744 0.0872425 0.08717747
 0.08709727 0.0870627 0.08717406 0.0875053 0.08800393 0.0885044 0.0888555 0.08902171 0.08907601 0.08907034
 0.08888847 0.08834156 0.08749727 0.08672515 0.08622071 0.08566894 0.08465725 0.08331198 0.08224235 0.08188174
 0.08210079 0.08245336 0.08259875 0.08246331 0.08220156 0.08211531 0.08245108 0.08310351 0.08360606 0.08357444
</values></Ydata></ScRf><Data_Parameters_AB><parameter name="DPF">1</parameter><parameter name="NPT">3497</parameter><parameter name="FXV">3996</parameter><parameter name="LXV">500</parameter><parameter name="CSF">1</parameter><parameter name="MXY">0.0432049259543419</parameter><parameter name="MNY">-0.109113804996014</parameter><parameter name="DAT">31/05/2022</parameter><parameter name="TIM">13:43:48.548 (GMT+2)</parameter><parameter name="DXU">WN</parameter></Data_Parameters_AB><AB__Qtest><MainReport name="Quality Test Report"><Header><Line><Legend>Test result ok/not ok [1/0]: </Legend><Value>0</Value></Line><Line><Legend>Method file: </Legend><Value>C:\Users\Public\Documents\Bruker\OPUS_8.2.28\QT\IRBT_v3_default.QT</Value></Line></Header><Matrix><Line><Legend></Legend><Legend>min</Legend><Legend>max</Legend><Legend>measured</Legend></Line><Line><Value>Absorption (X-Range 1):</Value><Value>0.400000</Value><Value>2.000000</Value><Value>0.113033</Value></Line><Line><Value>Noise (X-Range 4):</Value><Value></Value><Value>0.000300</Value><Value>0.000061</Value></Line><Line><Value>Signal/Noise (X-Range 2):</Value><Value>200.000000</Value><Value></Value><Value>31.460964</Value></Line><Line><Value>Signal/Noise (X-Range 3):</Value><Value>40.000000</Value><Value></Value><Value>13.877016</Value></Line><Line><Value>Water vapour (X-Range 5):</Value><Value></Value><Value>0.000300</Value><Value>0.000046</Value></Line><Line><Value>Signal/Water (X-Range 2):</Value><Value>100.000000</Value><Value></Value><Value>42.070426</Value></Line><Line><Value>Signal/Water (X-Range 3):</Value><Value>20.000000</Value><Value></Value><Value>18.556710</Value></Line><Line><Value>Fringes (X-Range 6):</Value><Value></Value><Value>0.000100</Value><Value>0.000056</Value></Line></Matrix></MainReport></AB__Qtest><Data_Parameters_ScSm><parameter name="DPF">1</parameter><parameter name="NPT">1814</parameter><parameter name="FXV">3996.33169228125</parameter><parameter name="LXV">499.541461535156</parameter><parameter name="CSF">1</parameter><parameter name="MXY">0.293383210897446</parameter><parameter name="MNY">0.0376400426030159</parameter><parameter name="DAT">31/05/2022</parameter><parameter name="TIM">13:43:48.548 (GMT+2)</parameter><parameter name="DXU">WN</parameter></Data_Parameters_ScSm><Data_Parameters_ScRf><parameter name="DPF">1</parameter><parameter name="NPT">1820</parameter><parameter name="FXV">4004.04661832813</parameter><parameter name="LXV">495.683998511719</parameter><parameter name="CSF">1</parameter><parameter name="MXY">0.264976739883423</parameter><parameter name="MNY">0.0292770359665155</parameter><parameter name="DAT">31/05/2022</parameter><parameter name="TIM">13:43:22.882 (GMT+2)</parameter><parameter name="DXU">WN</parameter></Data_Parameters_ScRf><Optic_Parameters_Rf><parameter name="APR">0</parameter><parameter name="APT">Open</parameter><parameter name="BMS">KBr</parameter><parameter name="DTC">RT-DLaTGS_IR-Biotyper [Microplate reader]</parameter><parameter name="HPF">0</parameter><parameter name="LPF">10.0</parameter><parameter name="LPV">4000</parameter><parameter name="PGR">0</parameter><parameter name="RCH">Module port</parameter><parameter name="RDX">0</parameter><parameter name="SRC">MIR</parameter><parameter name="VEL">10.0</parameter><parameter name="SON">Off</parameter></Optic_Parameters_Rf><Acquisition_Parameters_Rf><parameter name="ADT">1</parameter><parameter name="AQM">DD</parameter><parameter name="CFE">0</parameter><parameter name="COR">0</parameter><parameter name="DEL">0</parameter><parameter name="DLY">0</parameter><parameter name="HFW">8000</parameter><parameter name="LFW">0</parameter><parameter name="NSR">32</parameter><parameter name="PLF">AB</parameter><parameter name="RES">6</parameter><parameter name="RGN">-1</parameter><parameter name="STR">0</parameter><parameter name="TCL">MakeCompatibleScalar (0, {WSV=1.000000, ARV=0});</parameter><parameter name="TDL">37</parameter><parameter name="RPO">0</parameter></Acquisition_Parameters_Rf><FT_-_Parameters_Rf><parameter name="APF">B3</parameter><parameter name="HFQ">500</parameter><parameter name="LFQ">4000</parameter><parameter name="NLI">0</parameter><parameter name="PHR">24</parameter><parameter name="PHZ">ML</parameter><parameter name="SPZ">NO</parameter><parameter name="ZFF">1</parameter></FT_-_Parameters_Rf><Optic_Parameters_><parameter name="APR">0</parameter><parameter name="APT">Open</parameter><parameter name="BMS">KBr</parameter><parameter name="CHN">Module port</parameter><parameter name="DTC">RT-DLaTGS_IR-Biotyper [Microplate reader]</parameter><parameter name="HPF">0</parameter><parameter name="LPF">10.0</parameter><parameter name="LPV">4000</parameter><parameter name="PGN">0</parameter><parameter name="RDX">0</parameter><parameter name="SRC">MIR</parameter><parameter name="VEL">10.0</parameter><parameter name="SON">Off</parameter></Optic_Parameters_><FT_-_Parameters_><parameter name="APF">B3</parameter><parameter name="HFQ">500</parameter><parameter name="LFQ">4000</parameter><parameter name="NLI">0</parameter><parameter name="PHR">24</parameter><parameter name="PHZ">ML</parameter><parameter name="SPZ">NO</parameter><parameter name="ZFF">1</parameter></FT_-_Parameters_><Acquisition_Parameters_><parameter name="ADT">1</parameter><parameter name="AQM">DD</parameter><parameter name="CFE">0</parameter><parameter name="COR">0</parameter><parameter name="DEL">0</parameter><parameter name="DLY">0</parameter><parameter name="HFW">8000</parameter><parameter name="LFW">0</parameter><parameter name="NSS">32</parameter><parameter name="PLF">AB</parameter><parameter name="RES">6</parameter><parameter name="SOT">0</parameter><parameter name="TCL">MakeCompatibleScalar (0, {WSV=1.000000, ARV=0});</parameter><parameter name="TDL">37</parameter><parameter name="SPO">0</parameter><parameter name="SGN">-1</parameter></Acquisition_Parameters_><Instrument_Parameters_Rf><parameter name="HFL">15800.168544</parameter><parameter name="LFL">0</parameter><parameter name="LWN">15800.168544</parameter><parameter name="ABP">32197</parameter><parameter name="SSP">1</parameter><parameter name="ARG">2</parameter><parameter name="ASG">2</parameter><parameter name="ASS">32</parameter><parameter name="GFW">16</parameter><parameter name="GBW">16</parameter><parameter name="BFW">0</parameter><parameter name="BBW">0</parameter><parameter name="PKA">7255</parameter><parameter name="PKL">4996</parameter><parameter name="PRA">7444</parameter><parameter name="PRL">5001</parameter><parameter name="P2A">1</parameter><parameter name="P2L">1</parameter><parameter name="P2R">1</parameter><parameter name="P2K">1</parameter><parameter name="DAQ">0</parameter><parameter name="AG2">1</parameter><parameter name="SSM">1</parameter><parameter name="RSN">25701</parameter><parameter name="CRR">0</parameter><parameter name="SRT">1654004602.883</parameter><parameter name="DUR">19.6379852294922</parameter><parameter name="TSC">28.9</parameter><parameter name="MVD">0.298220008611679</parameter><parameter name="AN1">0.225790361012458</parameter><parameter name="AN2">0</parameter><parameter name="VSN">2.485 Apr  4 2017</parameter><parameter name="SRN">0085</parameter><parameter name="CAM">0</parameter><parameter name="INS">IR-Biotyper</parameter><parameter name="FOC">69</parameter><parameter name="RDY">1</parameter><parameter name="ARS">32</parameter></Instrument_Parameters_Rf><Sample_Parameters_><parameter name="BLD"></parameter><parameter name="CNM">Admin</parameter><parameter name="CPY"></parameter><parameter name="DPM"></parameter><parameter name="EXP">IRBT_v3_32Scans.XPM</parameter><parameter name="LCT"></parameter><parameter name="SFM">Microplate, HTS-XT</parameter><parameter name="SNM">220531-1301_CGR32F (D_5)_F4_6821fe5d-ec31-4600-ad6f-7e277ae268b7.0</parameter><parameter name="XPP">C:\Users\Public\Documents\Bruker\OPUS_8.2.28\XPM</parameter><parameter name="IST">OK</parameter><parameter name="CPG">1252</parameter><parameter name="UID">10925969-152d-4293-a352-5be055d689dd</parameter></Sample_Parameters_><Instrument_Parameters_><parameter name="HFL">15800.168544</parameter><parameter name="LFL">0</parameter><parameter name="LWN">15800.168544</parameter><parameter name="ABP">32197</parameter><parameter name="SSP">1</parameter><parameter name="ASG">2</parameter><parameter name="ARG">2</parameter><parameter name="ASS">32</parameter><parameter name="GFW">16</parameter><parameter name="GBW">16</parameter><parameter name="BFW">0</parameter><parameter name="BBW">0</parameter><parameter name="PKA">8330</parameter><parameter name="PKL">4988</parameter><parameter name="PRA">8613</parameter><parameter name="PRL">4993</parameter><parameter name="P2A">1</parameter><parameter name="P2L">1</parameter><parameter name="P2R">1</parameter><parameter name="P2K">1</parameter><parameter name="DAQ">0</parameter><parameter name="AG2">1</parameter><parameter name="SSM">1</parameter><parameter name="RSN">13476</parameter><parameter name="CRR">0</parameter><parameter name="SRT">1654004628.548</parameter><parameter name="DUR">19.6379852294922</parameter><parameter name="TSC">28.9</parameter><parameter name="MVD">0.29996982216835</parameter><parameter name="AN1">0.225803899600481</parameter><parameter name="AN2">0</parameter><parameter name="VSN">2.485 Apr  4 2017</parameter><parameter name="SRN">0085</parameter><parameter name="CAM">0</parameter><parameter name="INS">IR-Biotyper</parameter><parameter name="FOC">69</parameter><parameter name="RDY">1</parameter></Instrument_Parameters_><History/></OPUSDataFile>
