<?xml version="1.0" encoding="UTF-8" ?>
<OPUSDataFile><AB><Ydata ylabel="Absorbance Units"><values byteorder="INTEL" format="FLOAT32" numvalues="3497"> -0.08783951 -0.08784335 -0.08785013 -0.08786046 -0.08786511 -0.08786361 -0.08784954 -0.08782307 -0.08778438 -0.08773482
 -0.08768217 -0.08762792 -0.08758166 -0.08754338 -0.08751802 -0.08750466 -0.08750366 -0.08751509 -0.08753951 -0.08757601
 -0.08762582 -0.08768217 -0.08774339 -0.08779848 -0.08784304 -0.08787051 -0.08787754 -0.08786671 -0.08783719 -0.08779775
 -0.08774886 -0.08770094 -0.0876546 -0.08761895 -0.08759412 -0.0875843 -0.08758895 -0.0876075 -0.08763881 -0.0876795
 -0.08772708 -0.08777507 -0.08781944 -0.08785051 -0.08786671 -0.08786092 -0.08783817 -0.08779882 -0.08775152 -0.08770117
 -0.08765267 -0.08760952 -0.08757088 -0.08753726 -0.08750654 -0.08747806 -0.08745361 -0.08743307 -0.08742183 -0.08742019
 -0.08742895 -0.08744729 -0.08746393 -0.08747804 -0.08747685 -0.08746403 -0.08744501 -0.0874258 -0.08742562 -0.08744232
 -0.08748427 -0.0875385 -0.08759391 -0.08763912 -0.08765899 -0.0876563 -0.08762635 -0.08758184 -0.08752643 -0.08746897
 -0.08741253 -0.08736059 -0.08731338 -0.08727828 -0.08725551 -0.08725792 -0.08728628 -0.08734814 -0.08744258 -0.08755974
 -0.0876954 -0.08781971 -0.08792805 -0.08798538 -0.08799547 -0.08794671 -0.08785237 -0.08772854 -0.08758738 -0.08744922
 -0.0873206 -0.08721361 -0.08712922 -0.08707217 -0.08703729 -0.087024 -0.08702657 -0.08704272 -0.08707321 -0.08711808
 -0.08717716 -0.08725136 -0.08732768 -0.0874055 -0.08746358 -0.08750176 -0.08751278 -0.08749956 -0.08747644 -0.08744664
 -0.08743092 -0.08742736 -0.08744386 -0.08747166 -0.08749954 -0.08752085 -0.08752047 -0.08750445 -0.08747187 -0.08743162
 -0.08738989 -0.08734651 -0.08730188 -0.0872585 -0.08721369 -0.08718815 -0.08718308 -0.0872289 -0.08733036 -0.08749151
 -0.08771358 -0.08790965 -0.08807313 -0.08807793 -0.08793862 -0.08768423 -0.08733959 -0.08701726 -0.08671998 -0.08651113
 -0.08638168 -0.08634874 -0.08639137 -0.08649702 -0.08663254 -0.08676711 -0.08687892 -0.08694192 -0.08696814 -0.0869536
 -0.08692375 -0.08688609 -0.08684832 -0.08681327 -0.08677962 -0.0867466 -0.08672463 -0.08671418 -0.08673242 -0.08677918
 -0.08685547 -0.08695739 -0.08706097 -0.08716139 -0.08722612 -0.08725668 -0.08723845 -0.08717986 -0.08708767 -0.08697188
 -0.08684538 -0.08671988 -0.08660784 -0.0865205 -0.08646867 -0.08645383 -0.0864822 -0.08653846 -0.08662272 -0.08670693
 -0.08678671 -0.08684032 -0.08686429 -0.08685481 -0.08681133 -0.08674002 -0.08664138 -0.08652314 -0.08638621 -0.0862398
 -0.08608575 -0.08593521 -0.08579126 -0.08566701 -0.08556486 -0.08549626 -0.0854581 -0.08545397 -0.08547162 -0.08550412
 -0.08553558 -0.08555412 -0.08555374 -0.08552687 -0.08548327 -0.08542251 -0.08536153 -0.08530306 -0.08525928 -0.08523203
 -0.08522522 -0.08523926 -0.08527292 -0.08532567 -0.08538973 -0.08546304 -0.08552802 -0.08558325 -0.08561184 -0.08561806
 -0.08560283 -0.08557416 -0.0855477 -0.08552539 -0.08551826 -0.08551819 -0.08552153 -0.08552304 -0.08551431 -0.08550924
 -0.08550899 -0.08553554 -0.08559806 -0.0856944 -0.08583017 -0.08596706 -0.08610269 -0.08619474 -0.08624031 -0.08621401
 -0.08611579 -0.0859412 -0.08569708 -0.08542587 -0.08513857 -0.08490321 -0.08472133 -0.08463708 -0.08463265 -0.08470528
 -0.08481471 -0.08490725 -0.08496367 -0.08493698 -0.08486331 -0.08474895 -0.08463205 -0.08453345 -0.0844584 -0.08441477
 -0.08438749 -0.08437555 -0.08436339 -0.08434878 -0.08432657 -0.08429612 -0.08426322 -0.08422853 -0.08420504 -0.08419303
 -0.0842032 -0.08423076 -0.08426494 -0.08429527 -0.08428479 -0.08423673 -0.08413304 -0.08399883 -0.0838607 -0.08373071
 -0.08363496 -0.0835558 -0.08349316 -0.08341946 -0.08332013 -0.08319173 -0.08302543 -0.0828502 -0.08266904 -0.08251022
 -0.08237854 -0.08227664 -0.08220542 -0.0821453 -0.0820952 -0.08203349 -0.08196148 -0.0818779 -0.08178562 -0.08169628
 -0.08161005 -0.08153264 -0.08146442 -0.08140825 -0.08136551 -0.08134082 -0.08132961 -0.08133246 -0.08133555 -0.08133173
 -0.08130807 -0.08125732 -0.08117378 -0.08105514 -0.08089518 -0.08069102 -0.08044833 -0.08016568 -0.07986904 -0.07955999
 -0.07925941 -0.07896775 -0.07868995 -0.07842647 -0.07818282 -0.07796046 -0.07777046 -0.07760973 -0.07747715 -0.0773655
 -0.0772588 -0.07715801 -0.07705582 -0.07696126 -0.07688467 -0.07681681 -0.0767622 -0.07668574 -0.07657011 -0.07640779
 -0.07618709 -0.07594091 -0.07567333 -0.07541104 -0.07515887 -0.07491884 -0.07469171 -0.07446505 -0.07423865 -0.07400864
 -0.0737771 -0.07355917 -0.07335491 -0.07317683 -0.07301449 -0.07284717 -0.07266279 -0.07242125 -0.07213826 -0.07181296
 -0.0714757 -0.07115648 -0.07086547 -0.07062078 -0.07041217 -0.07024236 -0.07008943 -0.06994854 -0.06980001 -0.06963875
 -0.06945788 -0.06925613 -0.06902934 -0.06877725 -0.0684927 -0.06817592 -0.06783237 -0.06746498 -0.06709937 -0.06673745
 -0.06640236 -0.06609116 -0.06580779 -0.06554843 -0.06530774 -0.06508332 -0.06487039 -0.0646663 -0.06446696 -0.0642712
 -0.0640771 -0.06388485 -0.06369666 -0.06350215 -0.06330219 -0.06307092 -0.06280252 -0.06248549 -0.06211403 -0.06172412
 -0.06131723 -0.06094429 -0.06060639 -0.06031419 -0.0600641 -0.05983265 -0.05961712 -0.05939255 -0.05916088 -0.05891377
 -0.05865642 -0.05839514 -0.05813302 -0.05787841 -0.05762758 -0.05738192 -0.05713156 -0.05687027 -0.05659272 -0.05629184
 -0.05597943 -0.05565559 -0.05534013 -0.05503777 -0.05475583 -0.0544972 -0.05424992 -0.05401366 -0.05376885 -0.05351492
 -0.05324352 -0.05295609 -0.05266103 -0.05235885 -0.05205707 -0.05175294 -0.05144161 -0.05112266 -0.05079056 -0.05045246
 -0.05011495 -0.04978587 -0.04947628 -0.04918586 -0.0489182 -0.04866926 -0.04843758 -0.04822227 -0.04802325 -0.04783798
 -0.04766756 -0.04749971 -0.04733411 -0.04715085 -0.04694852 -0.0467117 -0.04644021 -0.04613564 -0.04580056 -0.04545611
 -0.04510558 -0.04477572 -0.04446601 -0.04419036 -0.04394275 -0.04371874 -0.04351134 -0.04330841 -0.04310807 -0.04290373
 -0.04269739 -0.04248961 -0.04227841 -0.04206441 -0.04184028 -0.04160306 -0.04135207 -0.04108498 -0.04081386 -0.04053954
 -0.04027517 -0.04002198 -0.03978294 -0.03955803 -0.03934388 -0.03914033 -0.03894491 -0.03875738 -0.03857584 -0.03839913
 -0.03822351 -0.03804677 -0.03786309 -0.03767032 -0.03746212 -0.03724036 -0.03700257 -0.03675734 -0.03650887 -0.03626564
 -0.03603376 -0.03581234 -0.03560325 -0.03539968 -0.0352002 -0.03500248 -0.03480595 -0.03461093 -0.0344176 -0.03422081
 -0.03402024 -0.03380866 -0.03358673 -0.03335613 -0.03311969 -0.03289112 -0.032673 -0.03248136 -0.03231375 -0.03217506
 -0.03205616 -0.03194691 -0.031839 -0.03171869 -0.03158849 -0.031444 -0.03129606 -0.03114887 -0.03100885 -0.03088014
 -0.03075938 -0.03064743 -0.03053522 -0.03042204 -0.03029789 -0.03016181 -0.03001083 -0.0298451 -0.02967375 -0.02949739
 -0.02932637 -0.02915889 -0.02899164 -0.02882299 -0.02864433 -0.02845997 -0.0282735 -0.0280917 -0.02792699 -0.02777955
 -0.02765527 -0.02754857 -0.02745708 -0.02737764 -0.02730817 -0.02724744 -0.02719611 -0.02714662 -0.02709871 -0.02703925
 -0.02696655 -0.02687108 -0.02675166 -0.02660966 -0.0264454 -0.02627065 -0.02608671 -0.0259102 -0.02574192 -0.02559507
 -0.02546856 -0.02536663 -0.02528627 -0.02522402 -0.02517581 -0.02513549 -0.02509721 -0.02505398 -0.02499927 -0.02492526
 -0.02483333 -0.02471824 -0.02459875 -0.02447751 -0.02437948 -0.02431253 -0.02427882 -0.0242825 -0.02429405 -0.0243117
 -0.02430661 -0.02427803 -0.02423131 -0.02416915 -0.0241201 -0.02408403 -0.02407697 -0.02409291 -0.02412231 -0.02415869
 -0.02418311 -0.02419491 -0.02418342 -0.0241552 -0.02411209 -0.02406229 -0.02401304 -0.02396551 -0.02392362 -0.0238803
 -0.02383397 -0.02377969 -0.02371459 -0.02364582 -0.02357295 -0.02351149 -0.02346269 -0.02343632 -0.02343259 -0.02344709
 -0.02347877 -0.02351551 -0.02355758 -0.0235999 -0.02364399 -0.02369375 -0.02374616 -0.02379895 -0.02384342 -0.0238644
 -0.02386076 -0.02382063 -0.0237621 -0.02369116 -0.02363214 -0.02360037 -0.02360122 -0.02364369 -0.02370771 -0.02379237
 -0.02386982 -0.0239354 -0.02397713 -0.02399263 -0.02399673 -0.02399041 -0.02400273 -0.02403383 -0.02409846 -0.02419153
 -0.02429632 -0.02440613 -0.0244893 -0.02454704 -0.02456341 -0.02455046 -0.02451766 -0.02447891 -0.02445346 -0.02444444
 -0.02446294 -0.02449748 -0.02454692 -0.0245952 -0.02463609 -0.02466308 -0.02467292 -0.024668 -0.02464859 -0.02461393
 -0.02456418 -0.02449373 -0.02440244 -0.0242931 -0.02416759 -0.02404545 -0.02392963 -0.02384645 -0.02379533 -0.02379073
 -0.02382479 -0.02389024 -0.0239738 -0.02405291 -0.02411822 -0.02414849 -0.0241504 -0.02411735 -0.0240739 -0.02402761
 -0.02400677 -0.02402389 -0.02408859 -0.0242089 -0.02436472 -0.02455642 -0.02474805 -0.02493634 -0.02510074 -0.02524043
 -0.02536187 -0.02546603 -0.02556618 -0.02566091 -0.02574984 -0.02583063 -0.02589477 -0.02594294 -0.02597148 -0.02598447
 -0.02598456 -0.02598052 -0.02597937 -0.02599682 -0.02604549 -0.02613794 -0.02628727 -0.02648464 -0.02673464 -0.02700549
 -0.02729264 -0.02756279 -0.02780995 -0.02801853 -0.02818586 -0.02831813 -0.02841584 -0.02850327 -0.02858205 -0.02867982
 -0.02879452 -0.02893174 -0.02908397 -0.0292286 -0.02936254 -0.02946377 -0.02954371 -0.02960784 -0.02967312 -0.02976227
 -0.02987735 -0.03003216 -0.03020627 -0.03039619 -0.03057339 -0.03072632 -0.03084207 -0.0309117 -0.03095355 -0.03096594
 -0.03099176 -0.0310344 -0.03112884 -0.03127666 -0.03147395 -0.03171748 -0.03196977 -0.0322283 -0.03245873 -0.03266459
 -0.03283877 -0.03298741 -0.03312116 -0.03324263 -0.03336099 -0.03347523 -0.03358704 -0.03369692 -0.03380492 -0.03391426
 -0.03402665 -0.03414397 -0.03426825 -0.03439549 -0.03452555 -0.03465262 -0.03477521 -0.03489454 -0.03501023 -0.03512977
 -0.03525352 -0.03538494 -0.03552361 -0.03566533 -0.03580996 -0.03595448 -0.03609975 -0.03624779 -0.0363979 -0.03655029
 -0.03670214 -0.03684822 -0.03698932 -0.03712245 -0.03725477 -0.03739091 -0.03753524 -0.03769327 -0.03785859 -0.03803116
 -0.03820061 -0.03836354 -0.03851897 -0.03866552 -0.03881058 -0.03895476 -0.0391021 -0.03925281 -0.03940525 -0.03955939
 -0.03971436 -0.03987011 -0.04002665 -0.04018268 -0.04033387 -0.04047904 -0.04061209 -0.04073603 -0.04085161 -0.04096529
 -0.04108517 -0.04121318 -0.04135633 -0.04150435 -0.04165661 -0.04179395 -0.04190904 -0.04199112 -0.04203244 -0.04205044
 -0.04204333 -0.04205406 -0.04208618 -0.04217502 -0.04232248 -0.04252425 -0.04277716 -0.04304172 -0.04331415 -0.04355191
 -0.04375629 -0.04390676 -0.04401216 -0.04407947 -0.04412423 -0.04417352 -0.04423939 -0.0443498 -0.04449629 -0.04468701
 -0.04489269 -0.04510037 -0.04528858 -0.04544288 -0.04557068 -0.04567005 -0.04575667 -0.04583465 -0.04589825 -0.04594802
 -0.04596592 -0.04595103 -0.04590623 -0.04583407 -0.04576748 -0.04570989 -0.04569937 -0.04573401 -0.04583006 -0.04597765
 -0.04616405 -0.04637608 -0.04658604 -0.04678851 -0.04696388 -0.04712081 -0.04725861 -0.04738941 -0.04752178 -0.0476544
 -0.04779055 -0.0479184 -0.04803441 -0.04813716 -0.04822413 -0.04831057 -0.04839776 -0.04849712 -0.04860933 -0.04872249
 -0.048835 -0.04892165 -0.04898274 -0.04900546 -0.04899496 -0.04896187 -0.04891257 -0.04886777 -0.04882959 -0.04881136
 -0.04881068 -0.0488291 -0.04886632 -0.04892051 -0.0489986 -0.04910316 -0.04924181 -0.04942071 -0.04963175 -0.04987817
 -0.05012919 -0.05038193 -0.05060147 -0.05078306 -0.05091897 -0.05100846 -0.05107999 -0.05113582 -0.05121455 -0.05131499
 -0.05145157 -0.05161698 -0.05179354 -0.0519736 -0.05212872 -0.05225917 -0.05235017 -0.05241192 -0.05244896 -0.05247442
 -0.05250087 -0.05253406 -0.05258279 -0.05263961 -0.05270536 -0.05276589 -0.0528172 -0.05285307 -0.05286972 -0.0528816
 -0.05288868 -0.05291835 -0.0529722 -0.053063 -0.05318911 -0.05333023 -0.05348274 -0.05361215 -0.05372103 -0.05379803
 -0.05385314 -0.05390555 -0.05396072 -0.05403936 -0.05413437 -0.0542468 -0.05436557 -0.05448108 -0.05458953 -0.0546861
 -0.05477068 -0.05484368 -0.05489909 -0.05493638 -0.05494595 -0.05492537 -0.05487385 -0.05478981 -0.05469021 -0.05457582
 -0.05447813 -0.05439872 -0.05436706 -0.05438184 -0.05445178 -0.05457076 -0.05472245 -0.05489866 -0.05507185 -0.05523607
 -0.05536842 -0.05546846 -0.05552517 -0.05554533 -0.05552929 -0.05548818 -0.05542824 -0.05535679 -0.05527838 -0.05519466
 -0.05510609 -0.05501714 -0.05492804 -0.05484686 -0.05477532 -0.0547078 -0.05464427 -0.05455586 -0.05444111 -0.05427153
 -0.05405043 -0.05378271 -0.05347667 -0.05316688 -0.05285705 -0.05257612 -0.05231751 -0.05208363 -0.05186581 -0.05165303
 -0.05144451 -0.05123534 -0.05102866 -0.05082675 -0.05062524 -0.05042433 -0.05021434 -0.04999131 -0.04975693 -0.04950874
 -0.04926575 -0.04902926 -0.0488186 -0.04863512 -0.0484807 -0.04835485 -0.04824838 -0.04816198 -0.04809524 -0.0480507
 -0.0480399 -0.04806014 -0.04811474 -0.04818962 -0.04826444 -0.048322 -0.04833103 -0.04828973 -0.0481811 -0.04802535
 -0.04782702 -0.04761098 -0.04739014 -0.04717002 -0.0469575 -0.04673628 -0.0465051 -0.04624702 -0.04595904 -0.04564372
 -0.0453008 -0.04495248 -0.04460014 -0.04426884 -0.04395845 -0.04368097 -0.04343387 -0.04321426 -0.04301905 -0.04283874
 -0.04267229 -0.04251139 -0.04236234 -0.04222312 -0.04211887 -0.04206043 -0.04209737 -0.04225667 -0.04258643 -0.04311887
 -0.04384904 -0.04479508 -0.04587307 -0.04707988 -0.04828953 -0.04948923 -0.05058158 -0.05155924 -0.05239535 -0.05309166
 -0.05367767 -0.05415779 -0.0545752 -0.0549316 -0.0552559 -0.05554821 -0.05582239 -0.05608027 -0.05633121 -0.05657663
 -0.05682379 -0.05706736 -0.05730743 -0.05753224 -0.0577348 -0.05790813 -0.05804573 -0.05815369 -0.05823099 -0.05829103
 -0.05833619 -0.05837448 -0.05840765 -0.05843269 -0.05844965 -0.05844742 -0.05842567 -0.05837654 -0.05830242 -0.05821409
 -0.05811761 -0.05804293 -0.05799353 -0.05799668 -0.058045 -0.05814166 -0.05826868 -0.05840709 -0.05853772 -0.05863809
 -0.05869645 -0.05869852 -0.05864438 -0.05852849 -0.05836366 -0.05815055 -0.05790846 -0.05764045 -0.0573622 -0.05707518
 -0.05679408 -0.05651932 -0.05628821 -0.05610471 -0.05604217 -0.05610508 -0.05636634 -0.0568161 -0.05746311 -0.05827501
 -0.05917695 -0.06013153 -0.06103426 -0.06187286 -0.06258297 -0.06318792 -0.06368204 -0.06410231 -0.06447028 -0.06480676
 -0.06512804 -0.06543107 -0.06571923 -0.06598072 -0.06621315 -0.06641327 -0.06657956 -0.06672139 -0.06683911 -0.06694707
 -0.06704581 -0.06714498 -0.06724416 -0.06734499 -0.06744644 -0.06754559 -0.0676409 -0.06772693 -0.06780232 -0.0678614
 -0.06790574 -0.06793341 -0.06795106 -0.06796316 -0.06797685 -0.06799907 -0.06802859 -0.06806867 -0.06810775 -0.06814371
 -0.06816556 -0.06816973 -0.0681582 -0.0681297 -0.06809986 -0.06806957 -0.06805492 -0.06805614 -0.06807596 -0.06811284
 -0.06815641 -0.06820568 -0.06825032 -0.06829245 -0.06833201 -0.06837242 -0.06842067 -0.068477 -0.06854584 -0.06862269
 -0.06870648 -0.06878901 -0.06886617 -0.06892837 -0.0689706 -0.06898726 -0.06897359 -0.06893854 -0.0688806 -0.06882432
 -0.06877209 -0.06874497 -0.06874497 -0.06877036 -0.06882036 -0.06887716 -0.0689402 -0.06899679 -0.06904823 -0.06909364
 -0.06913369 -0.06916992 -0.06920184 -0.06922884 -0.06925157 -0.06927064 -0.0692867 -0.06930155 -0.06931226 -0.06931812
 -0.06931464 -0.06929898 -0.06927155 -0.06923045 -0.06918419 -0.06913322 -0.06908976 -0.06905535 -0.069038 -0.06903861
 -0.06905381 -0.06908301 -0.06911371 -0.06914534 -0.06916696 -0.06918012 -0.06918482 -0.06918441 -0.06918854 -0.06919822
 -0.06922171 -0.06925374 -0.06929211 -0.06932809 -0.06935156 -0.06936156 -0.06935126 -0.06933405 -0.06931285 -0.06930298
 -0.06931127 -0.06933767 -0.06938492 -0.06943917 -0.06949913 -0.06955416 -0.06960322 -0.06964638 -0.06968374 -0.06971819
 -0.06974956 -0.06977738 -0.0698015 -0.06982047 -0.0698353 -0.06984808 -0.06985988 -0.06987447 -0.0698902 -0.069907
 -0.06992166 -0.06993036 -0.06993371 -0.06992945 -0.06992425 -0.06992088 -0.0699223 -0.06993169 -0.06994107 -0.06994987
 -0.0699483 -0.06993421 -0.06991074 -0.06987767 -0.0698478 -0.06982157 -0.06980582 -0.06979948 -0.06979704 -0.06979708
 -0.06978998 -0.06977624 -0.06975164 -0.06971905 -0.06968139 -0.06964259 -0.06960906 -0.06958333 -0.06957053 -0.06956983
 -0.06958286 -0.0696059 -0.06963804 -0.06967523 -0.06971619 -0.06975815 -0.06980054 -0.0698408 -0.06987871 -0.06991062
 -0.06993626 -0.06995219 -0.0699584 -0.06995583 -0.0699452 -0.06993273 -0.06991908 -0.06991095 -0.06990765 -0.06991096
 -0.06991912 -0.06992967 -0.06994092 -0.06994937 -0.06995472 -0.06995451 -0.069952 -0.06994756 -0.06994738 -0.06995486
 -0.06997155 -0.07000075 -0.07003155 -0.07006358 -0.07007984 -0.07007752 -0.07005154 -0.07000067 -0.06993935 -0.06986854
 -0.06980944 -0.06976201 -0.06973584 -0.06972859 -0.0697347 -0.069752 -0.06977099 -0.06979193 -0.0698107 -0.06982866
 -0.06984635 -0.06986379 -0.06988145 -0.06989855 -0.06991427 -0.06992957 -0.06994448 -0.06996073 -0.06997949 -0.06999878
 -0.07001918 -0.07003371 -0.07004158 -0.07003739 -0.07002036 -0.06999504 -0.06996188 -0.06993331 -0.06990941 -0.06989706
 -0.06989411 -0.06989429 -0.06989543 -0.06988671 -0.06987025 -0.06984429 -0.06981368 -0.0697849 -0.06975984 -0.06974366
 -0.06973344 -0.06972888 -0.069727 -0.06972609 -0.06972533 -0.06972424 -0.06972211 -0.06971869 -0.06971373 -0.06970702
 -0.06969994 -0.06969256 -0.06968597 -0.06968012 -0.06967223 -0.06966213 -0.06964672 -0.06962706 -0.06960621 -0.06958605
 -0.06957439 -0.06957109 -0.06958084 -0.06959946 -0.06962368 -0.06964824 -0.06966636 -0.06967647 -0.06967475 -0.06966374
 -0.0696434 -0.06961718 -0.06958601 -0.06955288 -0.06951829 -0.06948562 -0.06945531 -0.06942997 -0.06940988 -0.06939537
 -0.06938644 -0.06938202 -0.06938203 -0.06938585 -0.06939287 -0.06940038 -0.06940674 -0.06940545 -0.06939574 -0.06937188
 -0.06933666 -0.0692907 -0.06923928 -0.06918781 -0.06913994 -0.06910011 -0.06906876 -0.06904741 -0.06903465 -0.06903077
 -0.06903242 -0.06903959 -0.06904574 -0.06905008 -0.06904716 -0.06903623 -0.06901957 -0.06899745 -0.06897835 -0.06896244
 -0.06895495 -0.06895477 -0.06895924 -0.06896728 -0.06897379 -0.06897936 -0.06898259 -0.0689849 -0.06898827 -0.06899227
 -0.06899782 -0.06900243 -0.06900465 -0.06900273 -0.06899499 -0.0689825 -0.06896495 -0.06894485 -0.0689228 -0.06889968
 -0.06887577 -0.06885085 -0.06882488 -0.06879797 -0.06877011 -0.06874098 -0.06871038 -0.06867594 -0.0686378 -0.0685949
 -0.06854893 -0.06850404 -0.06846282 -0.06843306 -0.06841513 -0.0684142 -0.06842585 -0.06844877 -0.0684751 -0.06849901
 -0.06851529 -0.06851877 -0.06851198 -0.0684936 -0.06847177 -0.06844809 -0.06842791 -0.06841262 -0.06840107 -0.06839342
 -0.06838498 -0.06837555 -0.06836234 -0.06834567 -0.06832729 -0.068308 -0.06829304 -0.06828234 -0.06827955 -0.06828165
 -0.06828476 -0.06828427 -0.06827088 -0.06824403 -0.0681975 -0.06813921 -0.06807099 -0.06800546 -0.0679495 -0.06790983
 -0.06789204 -0.06788985 -0.06790445 -0.06792022 -0.06793527 -0.06793731 -0.06792476 -0.06789725 -0.06785487 -0.06780689
 -0.06775405 -0.06770708 -0.06766616 -0.0676382 -0.06762229 -0.06761988 -0.06762826 -0.06764294 -0.06766026 -0.06767267
 -0.06767838 -0.06767204 -0.06765553 -0.06762773 -0.06759353 -0.06755452 -0.06751619 -0.06748103 -0.06745084 -0.06742721
 -0.06740601 -0.06738717 -0.06736453 -0.06733739 -0.0673048 -0.06726675 -0.06722829 -0.06718973 -0.06715629 -0.06712778
 -0.06710606 -0.06709047 -0.06708018 -0.06707395 -0.067069 -0.06706344 -0.06705298 -0.06703717 -0.06701282 -0.06698378
 -0.06695075 -0.06692078 -0.06689794 -0.06688526 -0.06688654 -0.06689368 -0.0669067 -0.06691185 -0.06690667 -0.06688621
 -0.06684924 -0.06680439 -0.06675207 -0.06670228 -0.06665493 -0.06661173 -0.06657272 -0.06653816 -0.06651001 -0.06649511
 -0.06649465 -0.06651615 -0.06655578 -0.06661217 -0.06667852 -0.06674626 -0.06681372 -0.06687415 -0.06693767 -0.06700525
 -0.06709423 -0.06721087 -0.06736569 -0.06756362 -0.06780131 -0.06808014 -0.06838632 -0.0687195 -0.069058 -0.0694005
 -0.06971397 -0.06999677 -0.07021871 -0.07038094 -0.07047503 -0.07050104 -0.0704565 -0.07033654 -0.07012334 -0.06982781
 -0.06944972 -0.069026 -0.06859583 -0.06818588 -0.06783044 -0.06753352 -0.06730516 -0.06714547 -0.06705593 -0.06703833
 -0.06709626 -0.0672139 -0.0673938 -0.06758597 -0.06778689 -0.06794845 -0.06806817 -0.06813242 -0.0681417 -0.06809651
 -0.06799909 -0.06785898 -0.06768324 -0.06749988 -0.06731576 -0.06716301 -0.06703695 -0.06694818 -0.06687945 -0.06681696
 -0.06674474 -0.06664314 -0.06651542 -0.06635312 -0.06618188 -0.0660078 -0.06585448 -0.0657311 -0.06563614 -0.0655727
 -0.06551921 -0.06547432 -0.06541634 -0.06534409 -0.06525045 -0.0651364 -0.06501149 -0.06487747 -0.06474978 -0.064628
 -0.06451955 -0.06442167 -0.06433152 -0.06424737 -0.06416443 -0.06408446 -0.06400699 -0.06393566 -0.06387334 -0.06382161
 -0.06378303 -0.06375435 -0.06373602 -0.06372053 -0.06370653 -0.06368689 -0.06365999 -0.06362435 -0.06357946 -0.06352896
 -0.06347304 -0.06341515 -0.06335541 -0.06329568 -0.06323656 -0.06318203 -0.06313331 -0.06309726 -0.06307355 -0.06306601
 -0.06307075 -0.06308425 -0.06310049 -0.06311125 -0.0631133 -0.06310037 -0.0630754 -0.06303736 -0.06299292 -0.06294436
 -0.06289575 -0.06284901 -0.06280288 -0.06275755 -0.06271049 -0.06266136 -0.06261012 -0.06255676 -0.0625027 -0.06244798
 -0.06239355 -0.06233937 -0.06228561 -0.06223254 -0.06218085 -0.06213154 -0.06208731 -0.06204873 -0.06201859 -0.06199514
 -0.06197805 -0.06196397 -0.06194998 -0.06193471 -0.06191634 -0.06189585 -0.06187356 -0.06184877 -0.06182154 -0.06179004
 -0.06175352 -0.06171442 -0.06167275 -0.06163312 -0.06159579 -0.06155974 -0.06152459 -0.0614848 -0.06144076 -0.06139148
 -0.06133865 -0.06128803 -0.06124038 -0.06120084 -0.06116818 -0.06114271 -0.06112293 -0.0611075 -0.06109463 -0.06108335
 -0.06106957 -0.06105144 -0.06102397 -0.06098415 -0.06093259 -0.0608676 -0.06079783 -0.06072384 -0.06065645 -0.06059696
 -0.0605497 -0.06051498 -0.06048981 -0.0604739 -0.06046245 -0.06045531 -0.06044942 -0.06044461 -0.06043872 -0.06043161
 -0.06042169 -0.06040929 -0.06039418 -0.06037677 -0.06035756 -0.06033659 -0.06031411 -0.06028995 -0.06026419 -0.06023625
 -0.06020621 -0.06017245 -0.06013447 -0.06009166 -0.06004335 -0.05999317 -0.05994116 -0.05989373 -0.05985124 -0.05981582
 -0.05978712 -0.05976027 -0.05973496 -0.05970617 -0.05967537 -0.05964511 -0.05961715 -0.05959799 -0.05958589 -0.05958176
 -0.05958115 -0.0595785 -0.05957292 -0.05956056 -0.05954618 -0.05953197 -0.05951937 -0.05951143 -0.05949942 -0.05948223
 -0.05945007 -0.05939987 -0.05933548 -0.05925601 -0.05917899 -0.05910538 -0.05905044 -0.059014 -0.05899654 -0.05899616
 -0.05900126 -0.05901045 -0.05901191 -0.05900649 -0.05899002 -0.05896457 -0.05893183 -0.05889329 -0.05885143 -0.05880682
 -0.05876031 -0.05871339 -0.05866657 -0.05862278 -0.05858304 -0.05855004 -0.05852506 -0.0585074 -0.05849767 -0.05849114
 -0.05848758 -0.05848109 -0.05847129 -0.05845497 -0.05843218 -0.05840325 -0.0583686 -0.05833083 -0.05829057 -0.05825155
 -0.05821408 -0.05818123 -0.05815183 -0.05812569 -0.05810059 -0.0580735 -0.05804374 -0.05800909 -0.05797179 -0.05793229
 -0.05789325 -0.05785623 -0.05782093 -0.0577879 -0.05775459 -0.05772046 -0.05768505 -0.05764797 -0.0576129 -0.05758003
 -0.05755434 -0.05753578 -0.05752427 -0.05751887 -0.05751343 -0.05750724 -0.05749392 -0.0574742 -0.05744646 -0.05741217
 -0.05737286 -0.05733023 -0.05728642 -0.05724404 -0.05720581 -0.05717392 -0.05715129 -0.05713537 -0.05712681 -0.0571189
 -0.0571101 -0.0570951 -0.05707229 -0.05704209 -0.05700406 -0.05696303 -0.05691921 -0.05687889 -0.05684226 -0.05681348
 -0.05679199 -0.05677669 -0.05676606 -0.05675361 -0.05673826 -0.05671338 -0.05668048 -0.05663834 -0.05659119 -0.05654369
 -0.05649885 -0.05646202 -0.05643034 -0.05640451 -0.05637833 -0.05634873 -0.05631499 -0.05627508 -0.05623643 -0.05620003
 -0.05617178 -0.05615303 -0.05613996 -0.0561325 -0.05612216 -0.05610877 -0.05608905 -0.0560637 -0.05603616 -0.0560068
 -0.05597936 -0.05595261 -0.0559253 -0.05589599 -0.05586084 -0.0558211 -0.05577593 -0.0557294 -0.05568486 -0.05564446
 -0.0556114 -0.05558256 -0.05555773 -0.05553283 -0.05550631 -0.05547794 -0.05544736 -0.05541568 -0.05538316 -0.05534862
 -0.05531199 -0.05527226 -0.0552295 -0.05518571 -0.05514091 -0.0550967 -0.05505224 -0.05500486 -0.05495422 -0.05489706
 -0.05483577 -0.05477259 -0.05471106 -0.05465706 -0.05461104 -0.05457647 -0.05454928 -0.05452822 -0.05450934 -0.05449047
 -0.05447065 -0.05444928 -0.05442605 -0.05440116 -0.05437208 -0.05433857 -0.05429867 -0.0542522 -0.05420097 -0.05414522
 -0.05408941 -0.05403395 -0.05398374 -0.05393906 -0.05390396 -0.05387783 -0.05386188 -0.05385366 -0.05385001 -0.05384718
 -0.0538392 -0.05382377 -0.05379589 -0.05375804 -0.05370894 -0.05365604 -0.05360173 -0.05355281 -0.05351249 -0.05348011
 -0.05345694 -0.05343523 -0.05341438 -0.05338711 -0.05335283 -0.05330982 -0.05325826 -0.05320203 -0.05314175 -0.05308404
 -0.0530288 -0.0529797 -0.05293494 -0.05289165 -0.05284833 -0.05280007 -0.05274867 -0.05269404 -0.05263913 -0.05258743
 -0.05253788 -0.0524915 -0.05244448 -0.05239477 -0.05234271 -0.05228704 -0.05223355 -0.05218311 -0.05213998 -0.05210517
 -0.05207646 -0.05205389 -0.05203002 -0.05200449 -0.05196991 -0.05192671 -0.05187418 -0.05181391 -0.05175194 -0.05168983
 -0.05163504 -0.05158775 -0.05155248 -0.05152679 -0.05151054 -0.05149792 -0.05148434 -0.05146366 -0.0514297 -0.0513833
 -0.05132178 -0.05125361 -0.05118042 -0.05110967 -0.05104345 -0.050983 -0.05092899 -0.05087832 -0.05083084 -0.05078365
 -0.05073672 -0.05068969 -0.05064287 -0.05059856 -0.05055673 -0.05051905 -0.05048418 -0.05044958 -0.05041353 -0.05037125
 -0.05032296 -0.05026664 -0.05020408 -0.05013587 -0.05006441 -0.04999074 -0.04991858 -0.04984951 -0.04978685 -0.04973265
 -0.04968467 -0.04964331 -0.04960296 -0.04956291 -0.04952013 -0.04947427 -0.04942619 -0.04937593 -0.04932465 -0.04927252
 -0.04922118 -0.049171 -0.04912499 -0.0490821 -0.04904189 -0.04900121 -0.04895369 -0.04889785 -0.04882766 -0.04874725
 -0.04865742 -0.04856465 -0.04847304 -0.04838722 -0.04831017 -0.04824398 -0.04819036 -0.04814744 -0.04811585 -0.04808877
 -0.04806564 -0.0480393 -0.04800911 -0.04797302 -0.04793111 -0.04788608 -0.04783792 -0.04778804 -0.04773559 -0.04767722
 -0.04761286 -0.04753959 -0.04746024 -0.04737878 -0.04729779 -0.04722322 -0.0471538 -0.04709042 -0.04703158 -0.04697614
 -0.0469247 -0.04687794 -0.04683366 -0.0467928 -0.04674613 -0.04669223 -0.04662302 -0.04653651 -0.04643697 -0.04632435
 -0.04621011 -0.04609467 -0.04598427 -0.04587862 -0.04577805 -0.04568246 -0.04559138 -0.04550521 -0.04542482 -0.04535063
 -0.04528427 -0.04522491 -0.04517308 -0.04512513 -0.04507837 -0.04502867 -0.04497201 -0.04490829 -0.04483599 -0.04475801
 -0.04467512 -0.04458836 -0.0444982 -0.044404 -0.04430542 -0.04420509 -0.04410307 -0.04400441 -0.04390922 -0.04381916
 -0.0437336 -0.04364815 -0.04356208 -0.04346914 -0.04337065 -0.04326666 -0.04315995 -0.04305675 -0.04295686 -0.04286375
 -0.04277321 -0.04268247 -0.04258828 -0.04248638 -0.04237999 -0.04226838 -0.04215917 -0.04205476 -0.04195905 -0.04187433
 -0.04179516 -0.04172218 -0.04163984 -0.041547 -0.04143217 -0.04129545 -0.04114868 -0.04099353 -0.0408506 -0.04071821
 -0.04060042 -0.04049243 -0.04038226 -0.04026695 -0.04013366 -0.03998508 -0.03981871 -0.03964017 -0.0394544 -0.03926399
 -0.03907298 -0.03887904 -0.03868255 -0.03847924 -0.03826709 -0.03804737 -0.03781899 -0.03759041 -0.03736269 -0.03714068
 -0.03692507 -0.03671279 -0.03650371 -0.03629477 -0.03608592 -0.03587619 -0.03566455 -0.03544577 -0.03521862 -0.03497521
 -0.03471881 -0.03445048 -0.03417813 -0.03391486 -0.03366125 -0.03342492 -0.03319694 -0.03297335 -0.03274826 -0.0325166
 -0.03228121 -0.03204137 -0.03180328 -0.03156962 -0.03133523 -0.03110198 -0.03084283 -0.03055594 -0.03021712 -0.02982647
 -0.02941055 -0.02897255 -0.02855502 -0.02815393 -0.02777233 -0.02740412 -0.02703205 -0.02665429 -0.0262594 -0.02584652
 -0.02541194 -0.02494907 -0.02445247 -0.02391033 -0.02331054 -0.02265503 -0.02193308 -0.0211841 -0.02041435 -0.0196721
 -0.01897203 -0.01832077 -0.01772337 -0.01715705 -0.01662089 -0.01608849 -0.01555823 -0.01499835 -0.01440701 -0.01374842
 -0.013031 -0.01226986 -0.01148769 -0.01077016 -0.01011153 -0.009548942 -0.009048214 -0.008573831 -0.008106248 -0.007608648
 -0.007087367 -0.00653355 -0.005964292 -0.005386216 -0.004808276 -0.004233895 -0.003671273 -0.003122038 -0.002595599 -0.002094558
 -0.001613223 -0.001151388 -0.000702053 -0.0002653431 0.000143965 0.0005248212 0.0008596621 0.001151439 0.001404772 0.001624561
 0.001828867 0.002018974 0.002207306 0.002390185 0.00256696 0.002735854 0.0028938 0.00304321 0.00318497 0.003320583
 0.003451456 0.003576436 0.003695698 0.003806896 0.003909463 0.004002326 0.004084915 0.004159875 0.004227178 0.004293125
 0.00435801 0.004426511 0.00449827 0.004571581 0.004645819 0.0047168 0.004784693 0.00484721 0.004906316 0.004964709
 0.005024825 0.005091507 0.005165764 0.005248124 0.00534606 0.005460416 0.005612363 0.005812502 0.006073713 0.006408614
 0.006792456 0.00722414 0.007669903 0.008122806 0.008581269 0.009043984 0.009525117 0.01002524 0.01055048 0.01110095
 0.01167987 0.01228766 0.01292973 0.01360377 0.01430635 0.01503307 0.01577159 0.01652282 0.01728131 0.01805344
 0.01884415 0.0196571 0.02049798 0.02136269 0.02225192 0.02315687 0.02407456 0.02500015 0.02593152 0.0268701
 0.02781689 0.02876408 0.02971204 0.03063597 0.03153462 0.03238865 0.03319809 0.0339597 0.03466963 0.03530859
 0.03586748 0.03630299 0.0366187 0.03679718 0.03685582 0.03681105 0.03668225 0.0364929 0.03626291 0.03601613
 0.0357543 0.03549637 0.03519116 0.03484126 0.03433155 0.03363172 0.03268968 0.03146911 0.03017815 0.02883074
 0.02760148 0.02649692 0.02545412 0.02446765 0.02345729 0.0224285 0.02137025 0.02028868 0.01920425 0.01810426
 0.01698234 0.01579626 0.01447263 0.01300215 0.01130733 0.009521176 0.007715036 0.005990956 0.004449956 0.003013299
 0.001675516 0.0003644497 -0.0009494603 -0.002234587 -0.003493694 -0.004664097 -0.005738199 -0.006716326 -0.00759885 -0.008439468
 -0.009240156 -0.01004259 -0.01084162 -0.01163311 -0.01240788 -0.01313209 -0.01380421 -0.01440084 -0.01493336 -0.01540691
 -0.01583764 -0.01624374 -0.0166384 -0.01703521 -0.01744643 -0.01788296 -0.01834602 -0.01884805 -0.01934107 -0.01982024
 -0.02022433 -0.02053668 -0.02078114 -0.02095643 -0.02111975 -0.02127379 -0.02144314 -0.02162587 -0.02180792 -0.02198665
 -0.02213896 -0.02226814 -0.02237426 -0.0224591 -0.02253028 -0.02257883 -0.02259477 -0.02256894 -0.02248333 -0.02234695
 -0.02215813 -0.02193478 -0.02168627 -0.0214217 -0.02114791 -0.02086112 -0.02056443 -0.02023749 -0.01988047 -0.01945402
 -0.01895406 -0.01835886 -0.01766776 -0.01694252 -0.01618944 -0.01550519 -0.014886 -0.01436097 -0.01392056 -0.01354691
 -0.0132366 -0.01297484 -0.01275779 -0.01257783 -0.01241937 -0.01226795 -0.01209621 -0.01187659 -0.01160159 -0.01124925
 -0.01086368 -0.0104556 -0.01005871 -0.009688656 -0.009329037 -0.008981037 -0.008615627 -0.008229492 -0.007814838 -0.007371258
 -0.006918739 -0.006458563 -0.006013356 -0.005580893 -0.005162039 -0.004750206 -0.004323871 -0.00387731 -0.003384087 -0.002849236
 -0.002266976 -0.001649435 -0.001009129 -0.0003505067 0.0003193629 0.0009983776 0.001685966 0.002372436 0.003053822 0.003725489
 0.004382753 0.00504079 0.005700363 0.006382219 0.007090152 0.007811525 0.008545625 0.009226957 0.00985169 0.01035246
 0.01073185 0.01097085 0.01107362 0.0110461 0.01088638 0.01059318 0.01016292 0.009586642 0.008869646 0.008009075
 0.007026683 0.005933668 0.004760785 0.003527162 0.002250753 0.0009434958 -0.000393796 -0.001762646 -0.003143883 -0.004540114
 -0.005892517 -0.007196037 -0.008404247 -0.009514446 -0.01053685 -0.01147372 -0.01235845 -0.01318979 -0.0139783 -0.01471814
 -0.0153928 -0.01600129 -0.01652987 -0.0169883 -0.01738396 -0.0177317 -0.01805027 -0.01835167 -0.01865133 -0.01895443
 -0.01926857 -0.01959173 -0.0199262 -0.02026301 -0.0206015 -0.02092873 -0.02124263 -0.02153422 -0.02180224 -0.02204454
 -0.02226092 -0.02244934 -0.02260963 -0.02273834 -0.02283619 -0.02290553 -0.02294783 -0.02297029 -0.0229722 -0.02295594
 -0.02291914 -0.02285837 -0.02277351 -0.02266139 -0.02252777 -0.02237344 -0.022212 -0.02204875 -0.02190111 -0.02177691
 -0.02168534 -0.02163155 -0.02161106 -0.0216243 -0.02166346 -0.02172757 -0.02181556 -0.02192731 -0.0220606 -0.02221451
 -0.02237626 -0.02254411 -0.02270093 -0.02284604 -0.02296757 -0.0230666 -0.02313916 -0.02318808 -0.02321581 -0.02322583
 -0.0232232 -0.0232097 -0.02318852 -0.02315967 -0.0231235 -0.02308149 -0.02303335 -0.02298414 -0.02293452 -0.02289116
 -0.02285534 -0.02283061 -0.02281785 -0.02281368 -0.02281797 -0.02282109 -0.02282277 -0.02281666 -0.02280395 -0.02278849
 -0.02277206 -0.02276375 -0.02276333 -0.02277533 -0.02279747 -0.0228279 -0.02286497 -0.02290565 -0.02295019 -0.0229978
 -0.02304905 -0.02310488 -0.02316267 -0.02322269 -0.02327842 -0.02332855 -0.023367 -0.02339202 -0.02340411 -0.02340269
 -0.0233948 -0.02338081 -0.02336728 -0.02335413 -0.02334142 -0.02332833 -0.02330968 -0.02328517 -0.02325054 -0.02320704
 -0.02315554 -0.02309739 -0.02303585 -0.0229701 -0.0229008 -0.022826 -0.02274381 -0.02265471 -0.02255805 -0.02245611
 -0.02234986 -0.02223976 -0.02212612 -0.02200885 -0.0218874 -0.02176616 -0.02164506 -0.0215333 -0.0214314 -0.02134737
 -0.0212812 -0.0212345 -0.02120584 -0.02118758 -0.02117726 -0.02116104 -0.02113878 -0.02110134 -0.02105422 -0.02100152
 -0.02095112 -0.02091544 -0.0208951 -0.02089771 -0.02091184 -0.02093423 -0.02095178 -0.02095652 -0.02095031 -0.02092966
 -0.02091173 -0.02089878 -0.02090438 -0.02093113 -0.02097463 -0.02103488 -0.02109671 -0.02115963 -0.0212138 -0.02125994
 -0.02129779 -0.02132835 -0.02135529 -0.02137884 -0.02140157 -0.02142299 -0.0214435 -0.02146245 -0.02147892 -0.02149351
 -0.02150586 -0.02151843 -0.02153224 -0.0215502 -0.02157414 -0.02160387 -0.02164077 -0.0216783 -0.02171637 -0.02174379
 -0.0217592 -0.02175723 -0.02173734 -0.02170738 -0.02166802 -0.02163162 -0.02159755 -0.02156791 -0.02154059 -0.02150841
 -0.02147017 -0.02141912 -0.02135525 -0.02127518 -0.0211803 -0.02106943 -0.02094858 -0.02082126 -0.02069552 -0.02057838
 -0.02046929 -0.0203718 -0.0202745 -0.02017539 -0.02006399 -0.01993748 -0.01979481 -0.01963523 -0.01946334 -0.01927938
 -0.01908736 -0.01888748 -0.01868293 -0.01847406 -0.0182649 -0.0180556 -0.01784953 -0.01764501 -0.01743986 -0.01723147
 -0.01701285 -0.01678604 -0.01654853 -0.01630942 -0.01607576 -0.01585348 -0.01565024 -0.01546027 -0.01528345 -0.01511244
 -0.01494385 -0.01478058 -0.01462232 -0.01447453 -0.01433835 -0.01421059 -0.01409122 -0.01397151 -0.01385095 -0.01372095
 -0.01358084 -0.01342156 -0.01324324 -0.01304039 -0.01281587 -0.01257369 -0.01231782 -0.01205723 -0.01179408 -0.01153424
 -0.01127955 -0.01103297 -0.01079719 -0.01057463 -0.01036671 -0.01017534 -0.009997737 -0.00983495 -0.009676948 -0.009523246
 -0.009358193 -0.009179699 -0.008980432 -0.008759489 -0.008527427 -0.008285019 -0.008047473 -0.007814313 -0.007588848 -0.007370506
 -0.007157678 -0.006952604 -0.006760576 -0.006583274 -0.006426893 -0.006290096 -0.00617381 -0.006076104 -0.005996654 -0.005930598
 -0.005876898 -0.005825016 -0.005770702 -0.005705892 -0.005626776 -0.005533215 -0.005424388 -0.005302657 -0.005168032 -0.005024173
 -0.004871268 -0.004714811 -0.004554708 -0.004388622 -0.004215695 -0.004026664 -0.00382422 -0.00361258 -0.003399091 -0.003206066
 -0.003037269 -0.002911612 -0.002824917 -0.002780401 -0.002770561 -0.002791031 -0.002832607 -0.00288972 -0.002952353 -0.003014341
 -0.003073272 -0.003126074 -0.003179224 -0.003233817 -0.003292424 -0.003356087 -0.003418719 -0.003479996 -0.003534612 -0.003582466
 -0.003622593 -0.003654955 -0.003678881 -0.003693996 -0.003698676 -0.003691926 -0.003670353 -0.003632972 -0.003574881 -0.003499796
 -0.003408298 -0.00331037 -0.003214578 -0.003129415 -0.003062627 -0.00301799 -0.002998177 -0.00300748 -0.003048219 -0.003119916
 -0.003224808 -0.003347975 -0.003488501 -0.003628812 -0.003767458 -0.003900276 -0.004027163 -0.004147892 -0.004261894 -0.004363413
 -0.004453632 -0.004533478 -0.004606731 -0.00468544 -0.004769382 -0.004864926 -0.004967408 -0.005072093 -0.005178964 -0.005284748
 -0.005395487 -0.005513825 -0.005644811 -0.0057912 -0.005955786 -0.00613969 -0.006345365 -0.006573746 -0.006824241 -0.007097323
 -0.007387729 -0.007695315 -0.008010312 -0.008331958 -0.008644934 -0.008948665 -0.009230362 -0.009492403 -0.009737434 -0.009969677
 -0.0102031 -0.01043805 -0.01068283 -0.01093311 -0.01118706 -0.01143944 -0.01168545 -0.01191971 -0.01213713 -0.01233605
 -0.01251262 -0.01267487 -0.01282336 -0.01296986 -0.01311747 -0.01326844 -0.01342394 -0.01357825 -0.01373097 -0.01388037
 -0.01402648 -0.01417157 -0.01431513 -0.01445475 -0.0145885 -0.01470676 -0.01480748 -0.01487895 -0.01492278 -0.01493444
 -0.01492189 -0.01489333 -0.01485648 -0.01482318 -0.01479161 -0.01476413 -0.01473729 -0.01470745 -0.0146836 -0.01466696
 -0.01466827 -0.01469203 -0.01472975 -0.01478219 -0.01482852 -0.01486721 -0.01488634 -0.01488562 -0.01486381 -0.01482171
 -0.01476402 -0.01469339 -0.01462377 -0.01455759 -0.01451151 -0.01448037 -0.01446455 -0.01445216 -0.01442621 -0.0143817
 -0.01430411 -0.01420486 -0.01408437 -0.01396218 -0.01384772 -0.01375051 -0.01367774 -0.01362067 -0.01357992 -0.01353963
 -0.01349752 -0.01344719 -0.0133878 -0.01332192 -0.01324961 -0.01317128 -0.01308697 -0.01299608 -0.01290046 -0.01280779
 -0.01272079 -0.01265183 -0.01260101 -0.01257506 -0.01257115 -0.012589 -0.01262373 -0.0126722 -0.01272599 -0.01278012
 -0.01282436 -0.0128532 -0.0128599 -0.01284074 -0.01279527 -0.0127218 -0.01262749 -0.01251215 -0.01239027 -0.01226281
 -0.01214288 -0.01203088 -0.01193019 -0.01184042 -0.01175997 -0.01168834 -0.01162369 -0.01156309 -0.01149765 -0.01142352
 -0.01132667 -0.01121074 -0.01107269 -0.01092323 -0.01077303 -0.0106249 -0.01048621 -0.01034842 -0.01020803 -0.01006414
 -0.009912767 -0.009769509 -0.009636716 -0.00952727 -0.009444575 -0.00938151 -0.009338161 -0.009298643 -0.00926237 -0.009222343
 -0.009178775 -0.009131369 -0.009079133 -0.009017196 -0.008944314 -0.008853029 -0.008745681 -0.008622524 -0.008488367 -0.008350231
 -0.008210826 -0.008074887 -0.007944764 -0.007822522 -0.007712387 -0.007618 -0.007536848 -0.007471337 -0.007406448 -0.007339383
 -0.007259749 -0.00716411 -0.00706406 -0.006959956 -0.006869092 -0.006791682 -0.006720058 -0.006651534 -0.006557059 -0.006437205
 -0.006276632 -0.006083722 -0.005874464 -0.005658636 -0.005464838 -0.00529528 -0.005166632 -0.00507319 -0.005016834 -0.004987081
 -0.004979567 -0.004979415 -0.004979805 -0.004967017 -0.004933658 -0.004880568 -0.004804787 -0.004721571 -0.004632814 -0.004547616
 -0.004467461 -0.004382952 -0.004293607 -0.004187997 -0.004067046 -0.003934619 -0.003792756 -0.003653626 -0.003517606 -0.003391819
 -0.003276352 -0.003173943 -0.003086643 -0.003019342 -0.002970999 -0.002946263 -0.002931098 -0.002921107 -0.002892622 -0.002831332
 -0.002731203 -0.002580984 -0.002411793 -0.002226071 -0.002062801 -0.001930193 -0.001828042 -0.00175834 -0.001686848 -0.001612139
 -0.001513261 -0.00139221 -0.001259859 -0.001119221 -0.0009906507 -0.0008750678 -0.0007866587 -0.000722928 -0.0006884764 -0.0006727671
 -0.0006646189 -0.0006499747 -0.0006075316 -0.0005390916 -0.0004342462 -0.000315992 -0.000191763 -8.203482E-05 1.787367E-06 6.402259E-05
 0.000100795 0.0001364198 0.0001732872 0.0002334102 0.0003194914 0.0004312183 0.0005681662 0.0007063512 0.0008441423 0.0009553821
 0.00104166 0.001095825 0.001123204 0.001135601 0.001139266 0.001153327 0.001180262 0.001234338 0.001308187 0.001401764
 0.001501225 0.001595403 0.001680502 0.001749877 0.001811575 0.001868263 0.001919638 0.00196758 0.002001165 0.002018244
 0.002018872 0.002002195 0.001982919 0.001961843 0.001955024 0.001963455 0.002003326 0.002074776 0.002189378 0.002342139
 0.002524519 0.002729327 0.002935612 0.00314322 0.003342862 0.003536779 0.003725638 0.003906086 0.004075303 0.004233276
 0.004378772 0.00451469 0.004644875 0.00475603 0.004847125 0.004899369 0.004906801 0.00488587 0.004835789 0.004803679
 0.004791761 0.004830943 0.004919693 0.005054531 0.005230486 0.005421927 0.00562258 0.005797689 0.005947241 0.006049753
 0.006119928 0.006168631 0.006213605 0.006281191 0.00636968 0.006491115 0.006622375 0.006757218 0.006870164 0.006949811
 0.006988057 0.006977103 0.006939194 0.006874006 0.006821814 0.006786545 0.0067866 0.006822684 0.006881829 0.006963351
 0.007056539 0.007160845 0.0072711 0.007380882 0.007464617 0.00752137 0.007529597 0.007509528 0.007482133 0.007464848
 0.007489273 0.007547162 0.007640318 0.007765989 0.00791767 0.008116771 0.008376467 0.008677602 0.009027176 0.009350901
 0.009634775 0.00986528 0.01003811 0.01018567 0.0103093 0.01041887 0.0105135 0.01058546 0.01063545 0.01066328
 0.01067113 0.01066564 0.0106493 0.01063113 0.01061153 0.01059931 0.01058135 0.01054875 0.0104857 0.01037039
 0.01021987 0.01003054 0.009843988 0.009676305 0.009542792 0.00945337 0.009391526 0.009356341 0.009333037 0.009320402
 0.009306355 0.009290147 0.009253535 0.009196867 0.009117245 0.009017759 0.008915331 0.008809319 0.008706994 0.008604766
 0.008495866 0.008383431 0.008270787 0.008157015 0.008046307 0.007924872 0.007778248 0.007616116 0.007431448 0.007266246
 0.007134604 0.007060442 0.007054766 0.007111616 0.007232847 0.007402284 0.007620451 0.007845583 0.008075361 0.008255498
 0.008386902 0.008463166 0.008489905 0.00849793 0.008484845 0.008457939 0.008413469 0.008341701 0.008252782 0.008156884
 0.008066942 0.008001778 0.007966279 0.007969739 0.008014053 0.008105564 0.008232434 0.008397159 0.008565435 0.008729772
 0.008865747 0.008966117 0.009039127 0.00908466 0.009114127 0.009128093 0.009126308 0.009109801 0.009091264 0.009072013
 0.009068727 0.009076594 0.009087006 0.009096866 0.00909173 0.009078855 0.009064347 0.009052082 0.009049938 0.009055594
 0.009067183 0.009091305 0.00913227 0.009189563 0.009269133 0.009344785 0.009410469 0.009451826 0.009461931 0.009466511
 0.009466897 0.009490225 0.009537954 0.009610176 0.009705665 0.009811239 0.009922903 0.01001217 0.01007389 0.01006953
 0.010009 0.009890497 0.009739071 0.009597344 0.009473245 0.009397884 0.009352691 0.009334038 0.0093231 0.009308004
 0.00928109 0.009235186 0.009175717 0.009098381 0.009034261 0.008987054 0.008985417 0.00903545 0.009108354 0.009202789
 0.009257729 0.009272917 0.009230652 0.009134082 0.008995967 0.00881171 0.008568441 0.008267252 0.007894083 0.007477807
 0.007053743 0.006659291 0.006354333 0.006147755 0.006074486 0.006102234 0.006232146 0.006401501 0.006588409 0.006747841
 0.006857222 0.006937457 0.006986395 0.007045703 0.007122551 0.007190176 0.007247386</values></Ydata></AB><ScSm><Ydata ylabel="Single channel"><values byteorder="INTEL" format="FLOAT32" numvalues="1814"> 0.07468804 0.07470119 0.07478364 0.07495497 0.07518212 0.07539722 0.075544 0.07561372 0.075628 0.0755959
 0.07552305 0.07546286 0.07550687 0.07569531 0.075958 0.07615946 0.07620516 0.0761247 0.07605885 0.076124
 0.07625966 0.07624173 0.07589455 0.07529186 0.0747098 0.07436961 0.07429694 0.07448308 0.07502255 0.07585283
 0.07646194 0.07625546 0.07530449 0.07437792 0.07408937 0.07431052 0.07453058 0.07444556 0.07405026 0.07352666
 0.07330105 0.07392636 0.07553534 0.07739675 0.07818563 0.0768227 0.07324196 0.06862912 0.06498644 0.06406309
 0.06612084 0.06957644 0.07219046 0.07285832 0.07213981 0.071118 0.07023264 0.06942739 0.06891012 0.06919199
 0.07037973 0.07170102 0.07190713 0.07034382 0.06773025 0.06564561 0.06508864 0.06585474 0.06738256 0.06936277
 0.07088205 0.06994113 0.06542678 0.05959389 0.05704994 0.06037055 0.06735093 0.07316558 0.07465965 0.0721077
 0.06780382 0.06416602 0.06282914 0.06420186 0.06739254 0.07095039 0.07374695 0.07502307 0.07418786 0.07133371
 0.06774691 0.06528621 0.06523956 0.06781623 0.07210283 0.07615012 0.07786153 0.07653999 0.0733473 0.07007571
 0.06797291 0.06775071 0.06975468 0.07360314 0.07816385 0.0822133 0.0849403 0.08602916 0.08572122 0.08465847
 0.08339386 0.08230595 0.0819467 0.08269931 0.08387452 0.08397382 0.08232684 0.07999042 0.07865752 0.07890317
 0.07972731 0.07976973 0.07868518 0.07691196 0.07432231 0.07020237 0.06489402 0.06022701 0.05768721 0.05728459
 0.05864606 0.06159733 0.06488492 0.06610601 0.06434654 0.06185086 0.06179121 0.0648817 0.06902054 0.07185279
 0.07294795 0.07362157 0.07524714 0.0778522 0.07994942 0.07965668 0.07656156 0.07276461 0.071392 0.07352704
 0.07717188 0.07970737 0.08065398 0.08137318 0.08268683 0.08360268 0.0823507 0.07848931 0.07403271 0.07220563
 0.07463134 0.07970048 0.0837393 0.08372941 0.07933805 0.07298271 0.06794661 0.06611101 0.06745945 0.07133078
 0.07714247 0.0837311 0.08905651 0.09134668 0.09038771 0.08741855 0.08371629 0.07941499 0.07418668 0.06921394
 0.06742114 0.07070647 0.07751191 0.08412428 0.08798563 0.0889626 0.08790004 0.08504341 0.08028105 0.07466979
 0.07092997 0.07132976 0.0749495 0.07820864 0.07861708 0.07704462 0.07586579 0.07600018 0.07657728 0.07676722
 0.07696015 0.07810183 0.08034558 0.08269347 0.08396326 0.0838649 0.08305411 0.08236721 0.08205795 0.08161128
 0.08046661 0.07913242 0.07912548 0.08131173 0.08472029 0.08754249 0.08894458 0.08937185 0.08934616 0.08854409
 0.08626932 0.08277544 0.07980219 0.07928547 0.08148551 0.08482584 0.08752908 0.08889031 0.08911058 0.08865841
 0.08795181 0.08721855 0.0865645 0.08626883 0.08671573 0.08784628 0.08903129 0.08970433 0.08982741 0.08960594
 0.08908314 0.08822455 0.08721279 0.08645568 0.08629358 0.08674568 0.0875534 0.08841309 0.08908533 0.08935771
 0.08912154 0.08852845 0.08789863 0.08743034 0.08713369 0.08703075 0.08721802 0.0876814 0.08821002 0.08857418
 0.08870584 0.08866481 0.08851129 0.08826734 0.08796231 0.08767358 0.08751905 0.08758088 0.08780874 0.08804722
 0.08820955 0.08836179 0.08856647 0.08872244 0.0886706 0.08841453 0.08813242 0.08798608 0.0879937 0.0880744
 0.08813623 0.08809143 0.08785027 0.08739772 0.08689649 0.08662723 0.0867627 0.08724005 0.08786698 0.08846755
 0.08891078 0.0891248 0.08915059 0.08910353 0.0890379 0.08890526 0.08866516 0.08839051 0.08824609 0.08836639
 0.08873879 0.08920594 0.08959369 0.08982219 0.08990766 0.08992641 0.08998445 0.09013522 0.09030147 0.09034994
 0.09026137 0.09016323 0.09017925 0.09029458 0.09038632 0.09036618 0.09028062 0.09026337 0.09039079 0.09060881
 0.09081209 0.09096283 0.09110825 0.09129395 0.09147781 0.09154658 0.09143911 0.09123754 0.09109055 0.09105676
 0.09108435 0.09113714 0.09125616 0.09146829 0.09170152 0.09184629 0.09187926 0.09188189 0.09193169 0.09200604
 0.09201465 0.09191077 0.09174365 0.09160662 0.09156035 0.0916044 0.09169337 0.09176621 0.09177646 0.09171478
 0.09160849 0.09149475 0.09139423 0.09131967 0.09130701 0.09140755 0.0916184 0.09183258 0.09189962 0.09175937
 0.09150584 0.09130192 0.0912292 0.09122835 0.09118263 0.09103904 0.09083888 0.09065321 0.09051852 0.09042864
 0.09035933 0.09029312 0.09024251 0.09025577 0.09037302 0.09055586 0.09068399 0.09065706 0.09049464 0.09031127
 0.09020394 0.09018835 0.09022529 0.09027272 0.09032066 0.09039754 0.09052616 0.09066536 0.09073375 0.09070791
 0.09065717 0.09066958 0.09078418 0.09099303 0.09124806 0.09145804 0.09154425 0.09152462 0.09150156 0.09155236
 0.09166686 0.09179798 0.09192931 0.09207153 0.09222636 0.09238688 0.09256488 0.09279127 0.09308328 0.09341826
 0.09373988 0.09399195 0.09416246 0.09430733 0.09451839 0.09484884 0.0952659 0.09568076 0.09602446 0.0962964
 0.09654557 0.09681031 0.09708744 0.09736671 0.09767403 0.09804866 0.09848364 0.09892304 0.09932268 0.09968843
 0.1000513 0.1004284 0.1008171 0.1012164 0.1016429 0.1021143 0.1026107 0.1030653 0.1034168 0.1036718
 0.1039052 0.1042034 0.1046059 0.1050721 0.1054954 0.1057851 0.1059642 0.1061562 0.1064491 0.106801
 0.1071162 0.1073872 0.1077066 0.1081397 0.108633 0.1090703 0.1093941 0.1096514 0.1099253 0.1102379
 0.1105298 0.1107352 0.1108658 0.1109971 0.1111828 0.1114183 0.1116986 0.1120579 0.1125141 0.1130068
 0.113438 0.1137592 0.1139901 0.1141719 0.1143354 0.1144957 0.1146481 0.114782 0.1149112 0.1150635
 0.1152297 0.1153628 0.115449 0.1155422 0.1157019 0.1159348 0.1162205 0.1165556 0.1169324 0.1173048
 0.1176317 0.1179468 0.118328 0.1187797 0.1191938 0.1194606 0.1195828 0.1196435 0.1197 0.1197678
 0.1198834 0.1201087 0.1204601 0.1208807 0.1213003 0.1216929 0.122066 0.1224203 0.1227332 0.1229704
 0.1231107 0.1231681 0.1231967 0.1232707 0.1234489 0.1237415 0.1240999 0.1244462 0.1247208 0.1248975
 0.124961 0.1249044 0.1247705 0.1246603 0.1246543 0.1247223 0.1247382 0.1245849 0.1242264 0.1236857
 0.1229926 0.1221745 0.1212842 0.1204109 0.1196533 0.1190821 0.1187317 0.1186299 0.118817 0.1193093
 0.12004 0.1208625 0.12162 0.1221938 0.1224856 0.1224092 0.1219411 0.121161 0.1202108 0.1192197
 0.1182731 0.1174074 0.1166061 0.1158371 0.1151413 0.1146774 0.1146522 0.1152072 0.1163663 0.1180452
 0.1200687 0.1221978 0.1241987 0.1259312 0.12738 0.1286054 0.1296749 0.130646 0.131575 0.1324919
 0.1333682 0.134147 0.1348121 0.1353999 0.1359462 0.1364495 0.1368862 0.1372359 0.1374996 0.137708
 0.1378969 0.1380612 0.1381565 0.1381615 0.1381099 0.1380411 0.1379389 0.1377359 0.1373675 0.136823
 0.13617 0.1355577 0.1352018 0.135338 0.1361325 0.1375832 0.1394996 0.1415971 0.1436183 0.1453818
 0.1467813 0.1477986 0.1485112 0.1490439 0.1494977 0.1499266 0.1503555 0.1507908 0.1512207 0.1516273
 0.1520059 0.1523741 0.1527608 0.1531806 0.1536098 0.1539991 0.154322 0.1546086 0.1549252 0.1553155
 0.1557613 0.1562034 0.1566059 0.1569899 0.1573875 0.157779 0.158111 0.1583713 0.1586121 0.1588947
 0.1592415 0.1596377 0.1600468 0.1604184 0.1607162 0.160951 0.1611722 0.1614217 0.1617059 0.1620108
 0.1623248 0.1626404 0.1629513 0.1632605 0.1635852 0.163932 0.1642696 0.1645445 0.164738 0.164895
 0.1650832 0.1653305 0.1656089 0.165876 0.1661222 0.166379 0.1666849 0.1670419 0.167404 0.1677113
 0.1679382 0.1681107 0.1682815 0.1684889 0.168738 0.1690111 0.1692854 0.1695456 0.1697888 0.1700231
 0.1702594 0.1705053 0.1707629 0.1710274 0.1712883 0.1715378 0.1717783 0.1720185 0.1722688 0.1725435
 0.1728558 0.1731952 0.1735191 0.1737834 0.1739811 0.1741422 0.1743034 0.1744876 0.1747016 0.1749402
 0.1751881 0.1754295 0.1756587 0.1758817 0.1761084 0.1763446 0.1765904 0.1768418 0.1770936 0.1773437
 0.1775968 0.1778616 0.1781376 0.1784078 0.1786526 0.1788697 0.1790769 0.1792953 0.1795331 0.1797822
 0.1800242 0.1802456 0.180451 0.1806588 0.1808831 0.1811231 0.1813672 0.1816038 0.1818286 0.1820472
 0.1822684 0.1824934 0.1827164 0.1829339 0.18315 0.1833686 0.18359 0.183814 0.1840425 0.1842782
 0.1845194 0.1847583 0.1849874 0.1852075 0.1854269 0.1856516 0.1858797 0.1861057 0.1863284 0.1865516
 0.1867787 0.1870071 0.1872298 0.1874448 0.1876577 0.187874 0.1880953 0.1883229 0.1885584 0.1887998
 0.1890428 0.1892832 0.1895171 0.1897426 0.1899619 0.190181 0.1904059 0.1906416 0.1908896 0.1911431
 0.191392 0.1916341 0.1918749 0.1921172 0.1923577 0.1925892 0.1928039 0.1929999 0.1931868 0.193377
 0.1935738 0.1937744 0.193978 0.1941849 0.1943941 0.1946043 0.1948114 0.1950117 0.195211 0.195423
 0.1956526 0.1958914 0.1961302 0.1963651 0.196592 0.1968106 0.1970266 0.1972456 0.1974689 0.1976971
 0.1979302 0.1981672 0.198411 0.1986644 0.1989182 0.199156 0.1993723 0.1995766 0.1997838 0.2000064
 0.2002435 0.2004779 0.2006952 0.2009033 0.2011181 0.2013424 0.2015715 0.2018039 0.2020375 0.2022683
 0.202495 0.2027162 0.2029329 0.2031563 0.2033954 0.2036388 0.2038704 0.204094 0.2043219 0.204554
 0.2047854 0.2050161 0.2052439 0.2054673 0.2056917 0.2059209 0.2061529 0.2063891 0.2066253 0.2068328
 0.2069531 0.2068569 0.2062221 0.2044082 0.2004447 0.1932256 0.1819476 0.1666185 0.1482404 0.1284596
 0.1089577 0.09100635 0.07534219 0.06227583 0.05186623 0.04402827 0.03859321 0.03541308 0.03447417 0.03601735
 0.04067183 0.04908264 0.06048955 0.07146506 0.07724915 0.07551213 0.06858535 0.06133565 0.05712245 0.05617991
 0.05706893 0.05855561 0.06024034 0.06234393 0.06526174 0.06911483 0.07371666 0.07904815 0.08550351 0.09338808
 0.1022983 0.111283 0.1196623 0.1275619 0.1356004 0.1441407 0.1529078 0.1612577 0.1686905 0.1751078
 0.1807193 0.1858107 0.1905779 0.1951048 0.1994244 0.2035233 0.2072532 0.2102936 0.2123033 0.2131795
 0.2131857 0.2128085 0.2124702 0.2123564 0.2124661 0.2127521 0.2131918 0.2137795 0.2145056 0.2153437
 0.2162476 0.2171696 0.2180789 0.2189588 0.2197993 0.2205958 0.221345 0.222036 0.2226592 0.2232209
 0.2237345 0.2242054 0.2246329 0.2250233 0.2253905 0.2257465 0.2260932 0.2264222 0.2267237 0.2269978
 0.2272513 0.227489 0.227715 0.2279364 0.2281563 0.2283684 0.2285678 0.2287602 0.2289553 0.2291574
 0.2293665 0.2295809 0.2297965 0.2300093 0.2302187 0.230424 0.2306225 0.2308124 0.2309967 0.2311795
 0.2313631 0.2315481 0.2317343 0.2319205 0.2321063 0.2322917 0.2324802 0.2326814 0.2329007 0.2331271
 0.2333449 0.2335566 0.2337771 0.2340044 0.2342183 0.2344112 0.2345985 0.2347983 0.2350157 0.2352442
 0.2354665 0.2356594 0.2358114 0.2359393 0.2360816 0.2362695 0.2364995 0.2367377 0.2369565 0.2371583
 0.2373589 0.2375615 0.2377569 0.2379356 0.2381009 0.2382791 0.2385041 0.2387746 0.2390483 0.2392924
 0.2395143 0.2397347 0.2399623 0.2402014 0.2404457 0.2406619 0.2408169 0.2409298 0.2410763 0.24133
 0.2416935 0.2420862 0.2424177 0.2426701 0.2428939 0.2431407 0.2434278 0.2437224 0.2439202 0.2439163
 0.2437707 0.2437327 0.2440119 0.2445695 0.2451902 0.2457032 0.2460815 0.2463816 0.2466498 0.2468771
 0.2470099 0.2470104 0.2469349 0.2469517 0.2472267 0.247755 0.2483484 0.2488238 0.2491473 0.2493743
 0.2495518 0.249707 0.2498007 0.2496698 0.2492007 0.2486305 0.2484812 0.2490542 0.2500917 0.2510529
 0.2516469 0.2519779 0.2522448 0.2524977 0.252694 0.2527354 0.2523453 0.2512347 0.2496665 0.2486027
 0.2489051 0.2504687 0.2523926 0.2538797 0.2547355 0.2551654 0.255424 0.2556433 0.2557313 0.255387
 0.2544376 0.2532741 0.2527436 0.2533663 0.2547509 0.2560131 0.2566747 0.2569125 0.2570846 0.2573341
 0.2574935 0.2570414 0.2554026 0.2527976 0.2506599 0.2506242 0.2529301 0.2561353 0.2585419 0.2596529
 0.2600384 0.260088 0.2594354 0.2576211 0.2547911 0.2516311 0.2491484 0.2485304 0.2503572 0.2536228
 0.25631 0.2573803 0.2576499 0.2584506 0.2600424 0.2616276 0.2623835 0.2620987 0.261029 0.2594427
 0.2574912 0.2556271 0.2548613 0.2560489 0.2588513 0.2618504 0.2638624 0.2648423 0.2652643 0.2647281
 0.261681 0.2552868 0.2477468 0.2436817 0.2460511 0.253062 0.2600982 0.2642636 0.2659701 0.2667601
 0.2672359 0.2668969 0.26444 0.2584728 0.2497088 0.242341 0.241206 0.2470005 0.2554954 0.2614872
 0.2623421 0.2582622 0.2513431 0.244952 0.2423619 0.2447725 0.2507809 0.257768 0.2634739 0.2666286
 0.2669422 0.2649774 0.2621045 0.2601686 0.260151 0.2607093 0.2591971 0.2550057 0.2505825 0.2478471
 0.2452317 0.2405893 0.2359054 0.2359848 0.2422 0.2501905 0.2547634 0.2551551 0.2540863 0.2528107
 0.2489748 0.2400101 0.2279975 0.2197588 0.2208917 0.2299623 0.2397865 0.2444616 0.2440509 0.2424835
 0.2423113 0.2421108 0.2384993 0.2305539 0.2220666 0.2183664 0.2206562 0.2249374 0.2267462 0.2247177
 0.2190427 0.2100421 0.2007094 0.1976174 0.2053755 0.2209887 0.2362058 0.2443105 0.2425814 0.2308133
 0.2122446 0.1955051 0.1904235 0.1992314 0.2138485 0.2233123 0.2224842 0.2129705 0.1984234 0.1820337
 0.1680029 0.1620208 0.167865 0.1835636 0.2014298 0.2118804 0.2087379 0.1940409 0.1784621 0.1736304
 0.1815542 0.193235 0.1987412 0.1962142 0.190478 0.1868153 0.1879066 0.1933616 0.2001459 0.2054264
 0.2088355 0.2093081 0.2020393 0.1842758 0.1630303 0.1504654 0.1512505 0.1601731 0.1718838 0.1856834
 0.1991804 0.2050111 0.1991484 0.1885391 0.185186 0.1934073 0.206147 0.2136088 0.2129457 0.2087628
 0.2060012 0.2046856 0.2023736 0.199827 0.2012325 0.2084142 0.217641 0.223789 0.2256808 0.2256301
 0.2255156 0.2253583 0.2246584 0.2232508 0.221207 0.2189536 0.2171517 0.2159517 0.2148605 0.2135001
 0.2115757 0.2077484 0.1999612 0.1883855 0.1772428 0.1714808 0.171567 0.1738361 0.175915 0.1780976
 0.1782819 0.1705519 0.1529862 0.1340589 0.1264783 0.1349135 0.152514 0.1686859 0.1771598 0.1765123
 0.1670483 0.1511416 0.1359294 0.1310623 0.1408107 0.1599694 0.1794516 0.1941106 0.2032671 0.206381
 0.2022384 0.1921914 0.1813801 0.1757823 0.1785951 0.1888332 0.2016417 0.209521 0.2059922 0.1920668
 0.1791408 0.1805877 0.1976907 0.2174606 0.2272353 0.227511 0.2267558 0.2282516 0.2284897 0.226442
 0.2272483 0.2351538 0.2472547 0.2563699 0.257355 0.2491126 0.2338868 0.2177693 0.2091382 0.2119384
 0.221178 0.2283467 0.229654 0.2255419 0.2156493 0.2008829 0.1887289 0.188756 0.2015159 0.2172688
 0.2270541 0.230849 0.2335235 0.2364583 0.2358961 0.2286684 0.2174958 0.2093061 0.2083792 0.212608
 0.2170739 0.2192443 0.2190006 0.2156909 0.2085359 0.199928 0.1954698 0.1991201 0.2091173 0.219648
 0.2260638 0.2277995 0.2269895 0.2256885 0.2244621 0.22258 0.2194711 0.2165836 0.2170711 0.2223846
 0.2299035 0.2356067 0.238666 0.2417044 0.2466805 0.2521818 0.2551389 0.254183 0.2509634 0.2487339
 0.2497631 0.2535362 0.2571262 0.2576838 0.2551451 0.2525393 0.2531946 0.2575616 0.2631453 0.2673404
 0.2695578 0.2706928 0.2716003 0.2723644 0.2722561 0.2702943 0.2666644 0.2635689 0.2636774 0.2674636
 0.2727323 0.2768693 0.2789425 0.2795624 0.2794628 0.2787352 0.2772294 0.2752367 0.273528 0.2727561
 0.2729852 0.2738274 0.2748536 0.2757894 0.276504 0.2769895 0.2773167 0.2775437 0.2776947 0.2778151
 0.2779487 0.2780514 0.2780332 0.2779269 0.2779181 0.2781408 0.2785044 0.278787 0.278834 0.2785799
 0.2779467 0.2768672 0.2754148 0.2737744 0.2720425 0.2701681 0.2682051 0.2665808 0.2659686 0.266786
 0.2688113 0.271321 0.273585 0.2752282 0.276226 0.2767208 0.2768956 0.2769201 0.2769015 0.2768561
 0.2767453 0.2765468 0.2762792 0.2759686 0.275622 0.2752514 0.2748986 0.2746056 0.2743645 0.2741147
 0.2737901 0.2733608 0.2728432 0.2722854 0.2717303 0.2711716 0.2705426 0.2697639 0.2688165 0.2677696
 0.266736 0.2657944 0.2649428 0.2641113 0.2632229 0.262246 0.2611814 0.26001 0.2587042 0.2573147
 0.2559929 0.254872 0.2539459 0.2530934 0.2521914 0.2511772 0.2500387 0.248794 0.2474795 0.2461328
 0.2447751 0.2434029 0.2419917 0.240513 0.238952 0.2373087 0.2355895 0.2338057 0.2319765 0.2301171
 0.2282104 0.2261852 0.2239251 0.2213042 0.2182178 0.21459 0.2103901 0.2056685 0.2005754 0.1953277
 0.1901485 0.1852176 0.1806553 0.1765446 0.1729691 0.1700203 0.1677704 0.1662527 0.1654685 0.1654021
 0.1660298 0.1673194 0.1692112 0.1715951 0.1743198 0.1772164 0.1801067 0.1828237 0.1852761 0.1874956
 0.1895924 0.1916484 0.1936541 0.19554 0.1972505 0.1987732 0.2001058 0.2012277 0.2021277 0.2028383
 0.2034195 0.2039157 0.2043411 0.2046927 0.2049695 0.2051815 0.2053482 0.2054923 0.2056475 0.2058589
 0.206151 0.2065034 0.2068828 0.2072921 0.2077616 0.2083059 0.2089081 0.2095396 0.2101823 0.210841
 0.2115396 0.2123071 0.2131743 0.214182 0.2153723 0.2167653 0.2183437 0.2200499 0.22179 0.2234549
 0.2249525 0.2262222 0.2272327 0.2279834 0.2284979 0.2288029 0.2289213 0.2288839 0.2287294 0.2284876
 0.2281725 0.227789 0.2273382 0.2268212 0.2262404 0.2255949 0.2248887 0.2241449 0.2233958 0.2226554
 0.221924 0.2212148 0.220548 0.2199217 0.2193142 0.2187092 0.218098 0.217472 0.2168316 0.2161918
 0.2155593 0.2149097 0.214195 0.2133762 0.2124472 0.2114218 0.2103023 0.2090773 0.207752 0.2063545
 0.2049055 0.2034011 0.2018294 0.2001891 0.198488 0.1967289 0.1948927 0.1929431 0.1908695 0.1887263
 0.1866104 0.1846047 0.1827459 0.1810279 0.1794219 0.1779026 0.1764605 0.1750843 0.173752 0.1724543
 0.1712073 0.1700249 0.1689007 0.1678331 0.1668437 0.1659599 0.1651925 0.1645315 0.1639524 0.1634282
 0.1629432 0.1624978 0.1621074 0.1618051 0.1616266 0.1615742 0.1615966 0.1616101 0.1615434 0.1613794
 0.1611655 0.1609667 0.1608049 0.1606564 0.1604982 0.160318 0.1600799 0.1597088 0.1591119 0.158205
 0.1569441 0.1553539 0.1535262 0.1515878 0.1496733 0.147903 0.1463622 0.145099 0.1441295 0.1434184
 0.1428782 0.1424279 0.1420548 0.1418047 0.1417278 0.1418248 0.1420096 0.1421415 0.1421481 0.1421125
 0.1422038 0.1425332 0.1430917 0.1437868 0.1445047 0.1451531 0.1456676 0.1460056 0.1461693 0.1462184
 0.1462132 0.146151 0.1459952 0.145741 0.1454165 0.14505 0.1446555 0.1442213 0.1437095 0.1430962
 0.1423938 0.1416176 0.1407696 0.1398507 0.1388408 0.1377 0.1364687 0.1353431 0.1345831 0.1343557
 0.1346614 0.135351 0.1362235 0.1371577 0.138089 0.1388328 0.1391279 0.1390333 0.1391447 0.1401593
 0.1421913 0.1446367 0.1467209 0.1480587 0.1486738 0.1486882 0.148172 0.1471769 0.1457126 0.1437306
 0.1412534 0.1384352 0.1354325 0.1323543 0.1293644 0.1266633 0.124366 0.1224976 0.1210505 0.1200649
 0.1196719 0.1194879 0.1176199 0.1116665 0.1024067 0.09543246 0.09644946 0.1048719 0.1142383 0.1190508
 0.1191542 0.1174675 0.1160057 0.1150772 0.1145785 0.1146411 0.1153909 0.1166934 0.1181531 0.119346
 0.1201027 0.1204802 0.1204524 0.1196699 0.1174095 0.1128178 0.1055941 0.09660082 0.0875688 0.08008005
 0.07486027 0.07179742 0.07027541 0.06953432 0.06905109 0.06877342 0.06900174 0.07003714 0.0719326 0.07453619
 0.07765639 0.08105438 0.08433706 0.08709589 0.08921625 0.09088113 0.09223729 0.09321941 0.09371185 0.09371913
 0.09334797 0.09273194 0.09199443 0.09120881 0.09035216 0.08932954 0.08811848 0.08691274 0.08602957 0.08561379
 0.08552089 0.0855281 0.08553578 0.085531 0.08550227 0.08544588 0.08537419 0.08532259 0.08538917 0.08568335
 0.08617596 0.08668159 0.08702772 0.08718924 0.08725512 0.08727668 0.08712889 0.08661053 0.08577941 0.08501367
 0.08452855 0.08401863 0.08307721 0.08184066 0.0809081 0.08067298 0.08096838 0.0813361 0.08144431 0.08124713
 0.08093439 0.08082214 0.08115212 0.08182424</values></Ydata></ScSm><ScRf><Ydata ylabel="Single channel"><values byteorder="INTEL" format="FLOAT32" numvalues="1820"> 0.06072111 0.06087686 0.06097322 0.06101025 0.06101158 0.0610212 0.06108616 0.06122679 0.06141927 0.0616079
 0.06174244 0.06181052 0.06182706 0.06179918 0.06173129 0.06166769 0.0616875 0.06183059 0.06204419 0.06221703
 0.06226745 0.06221408 0.0621672 0.06221978 0.06232284 0.06229565 0.06199941 0.06150085 0.06102927 0.06076292
 0.06071693 0.06088038 0.06133034 0.06201673 0.06252009 0.06235171 0.06156971 0.06080852 0.06057528 0.06076111
 0.06093814 0.06085534 0.06051857 0.06008789 0.05991282 0.06043885 0.06176939 0.06330413 0.06395487 0.0628318
 0.0598791 0.05607548 0.05307328 0.05231381 0.05401285 0.05686949 0.05904116 0.05961315 0.05903817 0.05820426
 0.05747477 0.05680401 0.05636263 0.05657448 0.05753573 0.05861808 0.05879365 0.05751716 0.05537431 0.05366418
 0.05321082 0.05384572 0.05510528 0.05673579 0.05798859 0.05721756 0.0534994 0.04868496 0.04657553 0.04931203
 0.05509162 0.0599281 0.06119456 0.05910004 0.05554254 0.05253335 0.05142743 0.05255529 0.05517624 0.0580981
 0.06039634 0.06144354 0.06074741 0.05838546 0.05542537 0.05340283 0.05337518 0.05550939 0.05905122 0.06239404
 0.0638072 0.0627142 0.06007623 0.05737778 0.05565089 0.05547949 0.05714478 0.06033325 0.06411487 0.06747999
 0.06975227 0.07066242 0.07040724 0.06952437 0.06848228 0.06759834 0.06732115 0.06795604 0.0689294 0.06900673
 0.06763817 0.06569811 0.06458727 0.06478541 0.06546903 0.06551087 0.06462116 0.06316413 0.06103934 0.05765361
 0.05327762 0.04941696 0.04730643 0.0469678 0.04810416 0.05057666 0.05334216 0.05439303 0.05295283 0.05087764
 0.05081166 0.0533643 0.05679748 0.05915215 0.06006459 0.06062285 0.06196579 0.06411947 0.06585635 0.06561887
 0.06306271 0.05992723 0.05880604 0.06059749 0.06363938 0.06575604 0.0665567 0.06718242 0.06831756 0.069128
 0.06813172 0.06495841 0.06128467 0.05979102 0.06182433 0.06604904 0.06941804 0.06942473 0.06578878 0.06051794
 0.05634478 0.05483744 0.05598787 0.05925602 0.06416386 0.06973857 0.07427001 0.07626949 0.07554454 0.0731177
 0.07005809 0.06648901 0.06213885 0.05799238 0.05650601 0.05929367 0.06506561 0.07069917 0.07402666 0.07492473
 0.07410444 0.0717694 0.06781247 0.06311961 0.060006 0.06041562 0.06357527 0.06643029 0.0668458 0.06555688
 0.06459507 0.06475702 0.0653081 0.0655439 0.06580038 0.06688389 0.06891572 0.07102959 0.07220599 0.07219544
 0.0715636 0.07103407 0.07082818 0.07050227 0.06957789 0.06850852 0.06861486 0.07063559 0.07370712 0.07624957
 0.07754669 0.07799892 0.07806448 0.0774537 0.07554854 0.07256861 0.07004513 0.06968565 0.07172142 0.07476046
 0.07723169 0.07851621 0.07879987 0.07849924 0.07797755 0.0774318 0.07695924 0.07681083 0.07732311 0.07843596
 0.07958603 0.0802684 0.08044851 0.08031118 0.07990282 0.07920501 0.07839052 0.0778237 0.07779768 0.07831446
 0.07913388 0.07998687 0.08066718 0.08098761 0.0808486 0.08038814 0.07990155 0.07957008 0.07939588 0.07939096
 0.07964164 0.08013771 0.08068862 0.08108586 0.08127007 0.08130075 0.08123765 0.08110064 0.08090889 0.08072522
 0.08065742 0.08078591 0.08106679 0.08135711 0.08158003 0.08180091 0.08207574 0.08230063 0.08231659 0.08212505
 0.08190237 0.08181173 0.08187182 0.08199961 0.08210343 0.08210281 0.08192004 0.08154764 0.08113901 0.08095039
 0.0811376 0.08164512 0.0822985 0.08292864 0.08340171 0.08364555 0.083702 0.08368261 0.08364002 0.08353437
 0.08333699 0.08312316 0.08304696 0.08322704 0.08364037 0.08412972 0.08452818 0.08476396 0.08485933 0.08489527
 0.08498064 0.08516692 0.08536731 0.0854362 0.08535191 0.0852543 0.08527973 0.08541059 0.08551142 0.08548862
 0.08539487 0.08537224 0.08550059 0.0857245 0.08593538 0.08609426 0.08625048 0.08645131 0.08665231 0.08673534
 0.08663544 0.08643348 0.08627865 0.08622989 0.08623629 0.08626799 0.0863777 0.08659736 0.08684376 0.08698897
 0.08700199 0.08697312 0.08699648 0.08706023 0.08706904 0.08695883 0.08676722 0.08659649 0.08652768 0.08656999
 0.0866681 0.08674384 0.08674391 0.08666684 0.0865522 0.08644201 0.08635522 0.08630446 0.08632705 0.08646876
 0.08671235 0.08693743 0.08699244 0.08683011 0.08656256 0.08636321 0.08630875 0.08632225 0.0862675 0.08608363
 0.08582273 0.08557729 0.08539665 0.08527125 0.0851697 0.0850762 0.0850085 0.08501387 0.08512522 0.08529466
 0.0853902 0.08530223 0.08505338 0.08477506 0.08458386 0.08450677 0.08450301 0.08451633 0.08451901 0.08453552
 0.08460445 0.08470148 0.08474117 0.0846789 0.08457037 0.08451241 0.08456568 0.08473554 0.084966 0.08514255
 0.08516745 0.0850604 0.08494294 0.0849105 0.08495758 0.08503146 0.08510923 0.08519894 0.0853011 0.08540629
 0.08552338 0.08568341 0.08590637 0.08617079 0.08641978 0.08659923 0.08670089 0.08677833 0.08691482 0.08715981
 0.08748735 0.08781663 0.08807752 0.08826404 0.08842511 0.08860407 0.0887997 0.08899784 0.08921911 0.08950011
 0.08983509 0.09017345 0.09047873 0.09076059 0.09104474 0.0913377 0.09163208 0.09193502 0.09227904 0.09269141
 0.09314217 0.09353803 0.09379617 0.0939258 0.09402557 0.09420726 0.09452119 0.0949201 0.0952778 0.09548516
 0.09556307 0.09565089 0.09585214 0.09612732 0.09637869 0.09660293 0.09689626 0.09731431 0.0977823 0.09816471
 0.09839845 0.09854123 0.09869699 0.09890466 0.09910721 0.09923308 0.09929115 0.0993588 0.09948598 0.09965714
 0.09985897 0.1001316 0.1005107 0.100952 0.1013569 0.1016622 0.1018723 0.1020222 0.1021392 0.1022294
 0.1022803 0.1022883 0.1022922 0.1023471 0.102452 0.1025421 0.1025739 0.1025846 0.1026452 0.1027883
 0.1030076 0.1032904 0.1036109 0.1039171 0.1041772 0.1044341 0.1047635 0.1051578 0.1054983 0.1056776
 0.1057164 0.1057171 0.105738 0.1057723 0.105833 0.1059774 0.1062343 0.1065615 0.1068993 0.1072306
 0.1075713 0.1079232 0.1082514 0.1084977 0.1086171 0.1086159 0.10856 0.1085446 0.1086465 0.1088855
 0.109214 0.1095499 0.1098305 0.1100293 0.1101279 0.1101133 0.1100286 0.1099883 0.1100873 0.1102922
 0.1104575 0.1104524 0.1102444 0.1098673 0.1093526 0.1087227 0.1080281 0.1073576 0.1067986 0.1063984
 0.1061715 0.1061411 0.1063507 0.1068144 0.107463 0.1081669 0.1088133 0.1093345 0.1096585 0.1096898
 0.1093773 0.1087816 0.1080419 0.1072892 0.1065978 0.1059815 0.1054042 0.104827 0.1042911 0.1039499
 0.1039982 0.1045584 0.1056186 0.107037 0.1085869 0.1100374 0.1112472 0.1122103 0.1130127 0.1137413
 0.1144334 0.1151005 0.1157635 0.1164338 0.1170751 0.1176305 0.1180911 0.118505 0.118915 0.1193159
 0.119674 0.1199625 0.120185 0.1203787 0.1205811 0.1207744 0.1208874 0.1208742 0.1207675 0.120635
 0.1205017 0.1203343 0.1200818 0.1197219 0.1192924 0.1189059 0.1187347 0.1189472 0.1196168 0.1206703
 0.1219368 0.1232573 0.1245371 0.1256997 0.1266502 0.1273263 0.127761 0.1280591 0.1283195 0.1285932
 0.1288924 0.1292078 0.129519 0.1298089 0.1300776 0.1303469 0.1306485 0.1309945 0.1313542 0.1316725
 0.1319254 0.1321516 0.1324211 0.1327705 0.1331679 0.1335453 0.1338694 0.1341694 0.1344837 0.1347942
 0.135046 0.1352244 0.1353799 0.135578 0.1358532 0.1362022 0.1365848 0.1369308 0.1371848 0.137357
 0.1375086 0.1376895 0.1379065 0.1381461 0.1383987 0.1386571 0.1389141 0.1391763 0.1394649 0.1397866
 0.1401047 0.140359 0.1405238 0.140641 0.1407825 0.1409842 0.1412208 0.1414436 0.1416355 0.1418309
 0.1420806 0.142393 0.1427127 0.1429667 0.14313 0.14324 0.1433545 0.1435069 0.1436988 0.1439156
 0.1441389 0.1443527 0.14455 0.1447392 0.1449364 0.1451487 0.1453692 0.1455885 0.1458066 0.1460285
 0.1462533 0.1464745 0.1466928 0.1469274 0.1472013 0.14751 0.147811 0.1480556 0.1482288 0.1483549
 0.1484702 0.1485999 0.1487547 0.1489334 0.149128 0.1493289 0.1495301 0.1497285 0.1499244 0.1501211
 0.1503231 0.1505325 0.1507477 0.1509624 0.151171 0.1513769 0.151593 0.1518265 0.1520679 0.1522982
 0.1525069 0.1527004 0.1528935 0.1530919 0.1532855 0.1534621 0.153625 0.1537913 0.1539718 0.1541632
 0.1543581 0.1545553 0.154758 0.1549654 0.1551701 0.1553652 0.1555547 0.1557496 0.1559535 0.1561583
 0.1563562 0.1565493 0.1567446 0.1569463 0.1571543 0.1573624 0.1575626 0.1577545 0.1579485 0.158153
 0.1583613 0.158558 0.158737 0.1589098 0.1590931 0.1592914 0.1594967 0.1597022 0.1599077 0.160113
 0.1603157 0.1605164 0.1607174 0.1609188 0.1611214 0.1613314 0.1615529 0.1617803 0.1620032 0.1622164
 0.1624216 0.1626246 0.1628315 0.1630456 0.1632657 0.1634873 0.1637041 0.163912 0.1641122 0.1643054
 0.1644866 0.1646512 0.1648069 0.1649687 0.1651434 0.1653278 0.1655178 0.165712 0.1659097 0.1661097
 0.1663091 0.1665079 0.1667113 0.1669237 0.1671365 0.167336 0.1675217 0.1677067 0.1679004 0.1681011
 0.1683025 0.1685008 0.1686978 0.1689001 0.1691114 0.1693279 0.1695449 0.1697612 0.1699773 0.1701961
 0.1704205 0.1706461 0.1708616 0.1710626 0.171255 0.1714462 0.1716422 0.1718512 0.1720739 0.1722974
 0.1725078 0.1727029 0.1728903 0.1730811 0.1732836 0.1734964 0.1737117 0.173929 0.1741518 0.1743757
 0.1745953 0.1748157 0.1750404 0.1752619 0.1754735 0.1756771 0.1758765 0.1760783 0.1762914 0.1765129
 0.176727 0.1769275 0.1771217 0.1773055 0.1774373 0.1773946 0.1768874 0.1753623 0.1719843 0.1657937
 0.156094 0.1429037 0.1271031 0.1101127 0.09336498 0.07793853 0.06446477 0.05321847 0.0442579 0.03751351
 0.03284154 0.03011251 0.02930875 0.03063396 0.03463346 0.04187065 0.05169812 0.06116846 0.06617939 0.06471145
 0.05875761 0.05250565 0.04885732 0.04802603 0.04878297 0.05007337 0.05155201 0.05339557 0.0559283 0.05925068
 0.06321445 0.0678202 0.07341242 0.0802417 0.08794363 0.09569488 0.1029227 0.1097529 0.1167267 0.1241507
 0.1317737 0.1390319 0.145496 0.1510855 0.1559789 0.1604145 0.1645558 0.168478 0.1722201 0.1757819
 0.179039 0.1817101 0.1834949 0.1843004 0.1843463 0.1840425 0.1837497 0.1836388 0.1837283 0.1839903
 0.1844035 0.1849515 0.1856183 0.1863813 0.1872046 0.1880472 0.1888802 0.189688 0.1904611 0.1911937
 0.1918777 0.1924991 0.1930528 0.1935522 0.194014 0.1944422 0.1948374 0.1952078 0.1955619 0.1959034
 0.1962355 0.196559 0.196866 0.1971463 0.1973973 0.1976233 0.1978319 0.1980351 0.1982451 0.1984673
 0.1986983 0.1989292 0.1991502 0.1993571 0.1995543 0.199748 0.1999402 0.2001315 0.2003238 0.2005172
 0.2007078 0.2008937 0.2010779 0.2012648 0.2014596 0.2016639 0.2018716 0.2020717 0.2022603 0.2024451
 0.2026367 0.2028376 0.203042 0.2032412 0.2034347 0.2036313 0.2038359 0.2040426 0.2042482 0.2044634
 0.2046968 0.2049358 0.2051599 0.2053629 0.2055501 0.2057219 0.2058749 0.2060196 0.2061834 0.2063903
 0.2066332 0.2068759 0.2070887 0.2072741 0.2074535 0.2076402 0.2078316 0.2080188 0.2081998 0.2083907
 0.2086158 0.208876 0.2091419 0.2093887 0.2096195 0.2098464 0.2100766 0.210318 0.210566 0.2107853
 0.210939 0.2110443 0.2111786 0.2114178 0.2117663 0.2121493 0.2124805 0.2127353 0.2129507 0.2131751
 0.2134368 0.2137178 0.213927 0.2139642 0.213871 0.2138591 0.2141155 0.2146189 0.2151924 0.2156858
 0.2160623 0.216359 0.2166195 0.2168489 0.2170033 0.2170371 0.2169888 0.2170121 0.2172669 0.2177547
 0.2183041 0.2187482 0.2190605 0.2192969 0.2194978 0.219676 0.2197893 0.2196985 0.2193119 0.2188399
 0.2187404 0.2192807 0.2202355 0.2211257 0.2216927 0.2220335 0.2223278 0.2226122 0.2228348 0.2229022
 0.2225782 0.2216175 0.2202556 0.2193421 0.2196424 0.2210676 0.22282 0.2241874 0.2249887 0.2253969
 0.2256362 0.2258331 0.2259226 0.2256508 0.2248623 0.2238863 0.2234556 0.2240296 0.2252762 0.2264272
 0.2270634 0.2273334 0.2275418 0.2278091 0.2279941 0.2276445 0.2262482 0.2239911 0.222143 0.222161
 0.2242597 0.2271509 0.2293204 0.23033 0.2306991 0.2307864 0.2302669 0.2287193 0.2262568 0.2234801
 0.221289 0.2207565 0.2224172 0.2253817 0.2278428 0.2288604 0.2291551 0.2299161 0.2313805 0.2328392
 0.2335557 0.2333392 0.2324237 0.2310583 0.2293809 0.2277909 0.2271822 0.2283088 0.2308618 0.2335798
 0.2354171 0.2363394 0.2367686 0.2363443 0.233676 0.2280105 0.221316 0.2177353 0.2199263 0.2262844
 0.2326685 0.2364719 0.238053 0.2387935 0.2392452 0.2389743 0.2368179 0.231523 0.2237246 0.2171842
 0.2162412 0.2215158 0.2292074 0.2346465 0.2354701 0.2318556 0.2256867 0.2200038 0.217762 0.2200363
 0.2255521 0.2319455 0.2371815 0.2401146 0.2404784 0.2387742 0.2362375 0.2345427 0.2345887 0.2351695
 0.2338924 0.230203 0.2263089 0.2239391 0.2216697 0.2175569 0.2134033 0.2135671 0.2192949 0.2266315
 0.2308678 0.2313174 0.2304546 0.2294103 0.226032 0.2179749 0.2071348 0.1997343 0.2008837 0.2092739
 0.2183442 0.2227109 0.2224493 0.2211606 0.2211734 0.221175 0.2180618 0.2109834 0.2034097 0.2002228
 0.202526 0.2066534 0.2085094 0.206836 0.2018022 0.1937038 0.1853044 0.1826694 0.1900584 0.2047183
 0.2190329 0.2267828 0.225417 0.214705 0.1976419 0.1822903 0.177856 0.1864393 0.2004768 0.2096952
 0.2092671 0.2006799 0.187346 0.1722668 0.1594283 0.1542507 0.1603552 0.1758901 0.1935214 0.2040506
 0.2015028 0.1878081 0.1732718 0.1691603 0.1774123 0.189267 0.1950669 0.193022 0.1878457 0.184707
 0.1862576 0.1921286 0.1993112 0.20499 0.2087947 0.2096225 0.2026122 0.1849862 0.1638006 0.1513006
 0.1522067 0.1612959 0.1731958 0.1872078 0.2009201 0.2068942 0.2010509 0.1903978 0.1870663 0.1954329
 0.2083742 0.2159823 0.2153695 0.2111947 0.2084665 0.2072175 0.2049946 0.2026132 0.2043525 0.2120519
 0.2218859 0.2286257 0.2310717 0.2315831 0.2320867 0.232612 0.2326311 0.231941 0.2306006 0.2290651
 0.2280396 0.2276819 0.2274584 0.2269564 0.2258574 0.2227028 0.2152098 0.2034845 0.192059 0.1862911
 0.1866764 0.1892329 0.1914182 0.193613 0.1935956 0.1849756 0.1656322 0.1446587 0.1357482 0.1439567
 0.1619334 0.1783097 0.1864146 0.1848483 0.1740882 0.1567006 0.1400529 0.1339981 0.142835 0.1611869
 0.1797499 0.1933084 0.2013133 0.2034291 0.1985573 0.1880162 0.176811 0.170764 0.1729677 0.1824317
 0.1944176 0.2016559 0.1979055 0.1841621 0.171389 0.1724203 0.1884936 0.207176 0.2163363 0.2164256
 0.2155373 0.2168297 0.2169678 0.214969 0.215741 0.2233556 0.2350614 0.2440021 0.2452417 0.2377084
 0.2235465 0.2086112 0.2009489 0.204309 0.2138098 0.2211916 0.2227841 0.2190222 0.2095715 0.1953605
 0.1837382 0.1840612 0.1968565 0.2125931 0.2225164 0.2266265 0.2297007 0.2330598 0.2329547 0.2262334
 0.2156019 0.2079629 0.2075964 0.2124211 0.2175329 0.2203794 0.2207989 0.2180989 0.211487 0.2033945
 0.1994989 0.2037855 0.2143934 0.2253233 0.2317806 0.2331664 0.2316621 0.2293943 0.2270089 0.2238609
 0.2194487 0.2152482 0.2144104 0.2184026 0.2246743 0.2292808 0.2313927 0.2335594 0.2377045 0.2424838
 0.2449263 0.2436733 0.2402655 0.2377958 0.2384249 0.2416667 0.2447516 0.2449928 0.2423464 0.2396987
 0.2402111 0.2443013 0.2495887 0.2536007 0.2557887 0.257006 0.258048 0.2589551 0.258984 0.2571715
 0.2536997 0.2506818 0.2506613 0.2540905 0.2589057 0.2626617 0.2645047 0.2650249 0.2649098 0.2642296
 0.2628307 0.2609858 0.2594211 0.258744 0.2590004 0.259814 0.2607845 0.2616712 0.2623626 0.2628415
 0.263155 0.2633487 0.2634519 0.2635162 0.2635854 0.2636166 0.2635309 0.2633748 0.2633393 0.2635515
 0.2639112 0.2641944 0.2642547 0.2640416 0.2634893 0.262531 0.261228 0.2597552 0.2582096 0.2565427
 0.2548001 0.2533857 0.2529396 0.2538513 0.2558927 0.2583588 0.2605516 0.2621316 0.2631063 0.2636288
 0.2638558 0.2639119 0.2638852 0.2638178 0.2637103 0.2635434 0.2632989 0.2629707 0.262573 0.2621483
 0.2617575 0.2614411 0.2611829 0.2609197 0.2605881 0.2601616 0.2596547 0.2591062 0.2585486 0.257975
 0.2573361 0.2565801 0.2557003 0.2547466 0.2538018 0.2529375 0.2521684 0.2514434 0.2506963 0.2498947
 0.2490204 0.2480294 0.2468909 0.2456766 0.2445548 0.2436571 0.2429695 0.2423679 0.2417271 0.2409786
 0.240105 0.2391298 0.2381024 0.2370577 0.2359898 0.2348737 0.2336937 0.2324384 0.2310901 0.2296394
 0.2280981 0.2264935 0.224861 0.2232319 0.2215971 0.2198756 0.2179321 0.2156277 0.2128489 0.2095123
 0.2055828 0.2011141 0.1962705 0.1912892 0.1863987 0.1817585 0.1774651 0.1735964 0.170237 0.1674702
 0.1653605 0.1639422 0.1632221 0.1631951 0.1638564 0.1651897 0.1671394 0.1695958 0.1724053 0.1753948
 0.1783922 0.1812438 0.1838481 0.1861966 0.1883647 0.1904297 0.1923969 0.1942195 0.1958654 0.1973309
 0.1986049 0.1996627 0.2005019 0.2011639 0.2017105 0.2021876 0.2026128 0.2029904 0.2033264 0.2036227
 0.2038707 0.2040668 0.2042307 0.2043972 0.2045904 0.2048141 0.205065 0.2053548 0.2057155 0.2061697
 0.2066965 0.2072455 0.2077891 0.2083423 0.2089325 0.2095759 0.2102899 0.2111065 0.2120611 0.2131731
 0.2144336 0.2158033 0.2172168 0.2185891 0.2198234 0.2208339 0.221576 0.2220581 0.2223213 0.2224102
 0.222355 0.222172 0.2218757 0.2214888 0.2210338 0.2205188 0.2199422 0.2193115 0.2186481 0.2179731
 0.2172936 0.2166068 0.2159141 0.2152245 0.2145439 0.2138695 0.2132009 0.2125487 0.2119274 0.2113429
 0.210789 0.2102466 0.2096893 0.2091039 0.2085048 0.2079093 0.2072985 0.2066172 0.2058171 0.2048868
 0.2038399 0.2026919 0.2014602 0.2001689 0.1988372 0.1974598 0.1960105 0.1944663 0.1928247 0.191093
 0.1892664 0.1873312 0.1853001 0.1832403 0.1812474 0.1793905 0.1776829 0.1760998 0.1746082 0.1731862
 0.1718297 0.1705438 0.1693276 0.1681707 0.1670655 0.1660136 0.1650196 0.1640848 0.16321 0.1624042
 0.1616859 0.1610657 0.1605298 0.1600533 0.1596283 0.1592642 0.1589732 0.1587747 0.1586935 0.1587248
 0.1588105 0.1588704 0.1588542 0.1587599 0.1586208 0.1584808 0.158372 0.1583077 0.1582812 0.1582532
 0.1581438 0.1578541 0.1572946 0.1564013 0.1551576 0.1536116 0.1518558 0.1499967 0.1481559 0.1464626
 0.1450133 0.1438507 0.142976 0.1423456 0.1418682 0.1414569 0.1410989 0.1408612 0.1408311 0.1410236
 0.1413195 0.1415319 0.1415853 0.1415987 0.1417638 0.142179 0.1428109 0.14355 0.1442814 0.1449361
 0.145485 0.1458941 0.146135 0.146235 0.1462547 0.1462197 0.1461204 0.1459519 0.1457141 0.1454049
 0.1450316 0.1446007 0.1441016 0.1435281 0.1428849 0.1421632 0.141354 0.1404657 0.139479 0.1383423
 0.1370963 0.1359544 0.1351963 0.1350081 0.1354014 0.136214 0.1372182 0.1382799 0.1393332 0.1401862
 0.1405729 0.1405551 0.1407193 0.1417492 0.143777 0.1462447 0.1484073 0.1498715 0.1506255 0.1507451
 0.1502766 0.149298 0.1478634 0.1459335 0.1434993 0.140679 0.1376189 0.1344555 0.1314001 0.1286758
 0.1263857 0.1245432 0.1231313 0.1221638 0.1217588 0.1215595 0.1196806 0.1136766 0.1043278 0.09733926
 0.09852509 0.1072599 0.1169307 0.1219247 0.1220822 0.1203827 0.1188914 0.1179332 0.1174122 0.1174685
 0.1182122 0.1194776 0.1208713 0.1220061 0.1227334 0.1230998 0.1230633 0.1222536 0.119915 0.1151767
 0.1077519 0.09852998 0.08927351 0.08159792 0.07624006 0.07307111 0.07146575 0.07067597 0.07018684 0.06994353
 0.070242 0.07136613 0.07334137 0.07600839 0.07918753 0.0826381 0.08595338 0.08872847 0.090868 0.09257206
 0.0939966 0.0950668 0.09563562 0.0956844 0.09532495 0.09470196 0.09394308 0.09313345 0.09226076 0.09122045
 0.08997973 0.08874325 0.08784214 0.08742411 0.08734727 0.08738472 0.08741584 0.08741552 0.08738822 0.08734907
 0.08731135 0.0873004 0.08739404 0.08767798 0.08812755 0.08859262 0.08892256 0.08908159 0.08914126 0.08914376
 0.08896416 0.08841971 0.08758976 0.08684056 0.08635102 0.08579665 0.08476956 0.08340243 0.08230556 0.0819177
 0.08212383 0.0824856 0.08264782 0.0825128 0.08223329 0.08213885 0.08250119 0.08320564 0.08375111 0.08372919
</values></Ydata></ScRf><Data_Parameters_AB><parameter name="DPF">1</parameter><parameter name="NPT">3497</parameter><parameter name="FXV">3996</parameter><parameter name="LXV">500</parameter><parameter name="CSF">1</parameter><parameter name="MXY">0.0368558168411255</parameter><parameter name="MNY">-0.0880779251456261</parameter><parameter name="DAT">31/05/2022</parameter><parameter name="TIM">13:45:37.865 (GMT+2)</parameter><parameter name="DXU">WN</parameter></Data_Parameters_AB><AB__Qtest><MainReport name="Quality Test Report"><Header><Line><Legend>Test result ok/not ok [1/0]: </Legend><Value>0</Value></Line><Line><Legend>Method file: </Legend><Value>C:\Users\Public\Documents\Bruker\OPUS_8.2.28\QT\IRBT_v3_default.QT</Value></Line></Header><Matrix><Line><Legend></Legend><Legend>min</Legend><Legend>max</Legend><Legend>measured</Legend></Line><Line><Value>Absorption (X-Range 1):</Value><Value>0.400000</Value><Value>2.000000</Value><Value>0.073457</Value></Line><Line><Value>Noise (X-Range 4):</Value><Value></Value><Value>0.000300</Value><Value>0.000046</Value></Line><Line><Value>Signal/Noise (X-Range 2):</Value><Value>200.000000</Value><Value></Value><Value>14.798691</Value></Line><Line><Value>Signal/Noise (X-Range 3):</Value><Value>40.000000</Value><Value></Value><Value>12.243174</Value></Line><Line><Value>Water vapour (X-Range 5):</Value><Value></Value><Value>0.000300</Value><Value>0.000022</Value></Line><Line><Value>Signal/Water (X-Range 2):</Value><Value>100.000000</Value><Value></Value><Value>31.131622</Value></Line><Line><Value>Signal/Water (X-Range 3):</Value><Value>20.000000</Value><Value></Value><Value>25.755648</Value></Line><Line><Value>Fringes (X-Range 6):</Value><Value></Value><Value>0.000100</Value><Value>0.000078</Value></Line></Matrix></MainReport></AB__Qtest><Data_Parameters_ScSm><parameter name="DPF">1</parameter><parameter name="NPT">1814</parameter><parameter name="FXV">3996.33169228125</parameter><parameter name="LXV">499.541461535156</parameter><parameter name="CSF">1</parameter><parameter name="MXY">0.279562383890152</parameter><parameter name="MNY">0.0344741716980934</parameter><parameter name="DAT">31/05/2022</parameter><parameter name="TIM">13:45:37.865 (GMT+2)</parameter><parameter name="DXU">WN</parameter></Data_Parameters_ScSm><Data_Parameters_ScRf><parameter name="DPF">1</parameter><parameter name="NPT">1820</parameter><parameter name="FXV">4004.04661832813</parameter><parameter name="LXV">495.683998511719</parameter><parameter name="CSF">1</parameter><parameter name="MXY">0.265024900436401</parameter><parameter name="MNY">0.0293087475001812</parameter><parameter name="DAT">31/05/2022</parameter><parameter name="TIM">13:45:12.332 (GMT+2)</parameter><parameter name="DXU">WN</parameter></Data_Parameters_ScRf><Optic_Parameters_Rf><parameter name="APR">0</parameter><parameter name="APT">Open</parameter><parameter name="BMS">KBr</parameter><parameter name="DTC">RT-DLaTGS_IR-Biotyper [Microplate reader]</parameter><parameter name="HPF">0</parameter><parameter name="LPF">10.0</parameter><parameter name="LPV">4000</parameter><parameter name="PGR">0</parameter><parameter name="RCH">Module port</parameter><parameter name="RDX">0</parameter><parameter name="SRC">MIR</parameter><parameter name="VEL">10.0</parameter><parameter name="SON">Off</parameter></Optic_Parameters_Rf><Acquisition_Parameters_Rf><parameter name="ADT">1</parameter><parameter name="AQM">DD</parameter><parameter name="CFE">0</parameter><parameter name="COR">0</parameter><parameter name="DEL">0</parameter><parameter name="DLY">0</parameter><parameter name="HFW">8000</parameter><parameter name="LFW">0</parameter><parameter name="NSR">32</parameter><parameter name="PLF">AB</parameter><parameter name="RES">6</parameter><parameter name="RGN">-1</parameter><parameter name="STR">0</parameter><parameter name="TCL">MakeCompatibleScalar (0, {WSV=1.000000, ARV=0});</parameter><parameter name="TDL">37</parameter><parameter name="RPO">0</parameter></Acquisition_Parameters_Rf><FT_-_Parameters_Rf><parameter name="APF">B3</parameter><parameter name="HFQ">500</parameter><parameter name="LFQ">4000</parameter><parameter name="NLI">0</parameter><parameter name="PHR">24</parameter><parameter name="PHZ">ML</parameter><parameter name="SPZ">NO</parameter><parameter name="ZFF">1</parameter></FT_-_Parameters_Rf><Optic_Parameters_><parameter name="APR">0</parameter><parameter name="APT">Open</parameter><parameter name="BMS">KBr</parameter><parameter name="CHN">Module port</parameter><parameter name="DTC">RT-DLaTGS_IR-Biotyper [Microplate reader]</parameter><parameter name="HPF">0</parameter><parameter name="LPF">10.0</parameter><parameter name="LPV">4000</parameter><parameter name="PGN">0</parameter><parameter name="RDX">0</parameter><parameter name="SRC">MIR</parameter><parameter name="VEL">10.0</parameter><parameter name="SON">Off</parameter></Optic_Parameters_><FT_-_Parameters_><parameter name="APF">B3</parameter><parameter name="HFQ">500</parameter><parameter name="LFQ">4000</parameter><parameter name="NLI">0</parameter><parameter name="PHR">24</parameter><parameter name="PHZ">ML</parameter><parameter name="SPZ">NO</parameter><parameter name="ZFF">1</parameter></FT_-_Parameters_><Acquisition_Parameters_><parameter name="ADT">1</parameter><parameter name="AQM">DD</parameter><parameter name="CFE">0</parameter><parameter name="COR">0</parameter><parameter name="DEL">0</parameter><parameter name="DLY">0</parameter><parameter name="HFW">8000</parameter><parameter name="LFW">0</parameter><parameter name="NSS">32</parameter><parameter name="PLF">AB</parameter><parameter name="RES">6</parameter><parameter name="SOT">0</parameter><parameter name="TCL">MakeCompatibleScalar (0, {WSV=1.000000, ARV=0});</parameter><parameter name="TDL">37</parameter><parameter name="SPO">0</parameter><parameter name="SGN">-1</parameter></Acquisition_Parameters_><Instrument_Parameters_Rf><parameter name="HFL">15800.168544</parameter><parameter name="LFL">0</parameter><parameter name="LWN">15800.168544</parameter><parameter name="ABP">32197</parameter><parameter name="SSP">1</parameter><parameter name="ARG">2</parameter><parameter name="ASG">2</parameter><parameter name="ASS">32</parameter><parameter name="GFW">16</parameter><parameter name="GBW">16</parameter><parameter name="BFW">0</parameter><parameter name="BBW">0</parameter><parameter name="PKA">7258</parameter><parameter name="PKL">4996</parameter><parameter name="PRA">7446</parameter><parameter name="PRL">5001</parameter><parameter name="P2A">1</parameter><parameter name="P2L">1</parameter><parameter name="P2R">1</parameter><parameter name="P2K">1</parameter><parameter name="DAQ">0</parameter><parameter name="AG2">1</parameter><parameter name="SSM">1</parameter><parameter name="RSN">25705</parameter><parameter name="CRR">0</parameter><parameter name="SRT">1654004712.332</parameter><parameter name="DUR">19.6379852294922</parameter><parameter name="TSC">28.9</parameter><parameter name="MVD">0.212907582521439</parameter><parameter name="AN1">0.225814072639234</parameter><parameter name="AN2">0</parameter><parameter name="VSN">2.485 Apr  4 2017</parameter><parameter name="SRN">0085</parameter><parameter name="CAM">0</parameter><parameter name="INS">IR-Biotyper</parameter><parameter name="FOC">69</parameter><parameter name="RDY">1</parameter><parameter name="ARS">32</parameter></Instrument_Parameters_Rf><Sample_Parameters_><parameter name="BLD"></parameter><parameter name="CNM">Admin</parameter><parameter name="CPY"></parameter><parameter name="DPM"></parameter><parameter name="EXP">IRBT_v3_32Scans.XPM</parameter><parameter name="LCT"></parameter><parameter name="SFM">Microplate, HTS-XT</parameter><parameter name="SNM">220531-1301_CGR32F (D_7)_H4_28e44fa4-ce10-4c6e-9c8d-63ddb5c385a4.0</parameter><parameter name="XPP">C:\Users\Public\Documents\Bruker\OPUS_8.2.28\XPM</parameter><parameter name="IST">OK</parameter><parameter name="CPG">1252</parameter><parameter name="UID">309a15f7-091c-49bf-89c2-63e373787891</parameter></Sample_Parameters_><Instrument_Parameters_><parameter name="HFL">15800.168544</parameter><parameter name="LFL">0</parameter><parameter name="LWN">15800.168544</parameter><parameter name="ABP">32197</parameter><parameter name="SSP">1</parameter><parameter name="ASG">2</parameter><parameter name="ARG">2</parameter><parameter name="ASS">32</parameter><parameter name="GFW">16</parameter><parameter name="GBW">16</parameter><parameter name="BFW">0</parameter><parameter name="BBW">0</parameter><parameter name="PKA">7964</parameter><parameter name="PKL">4988</parameter><parameter name="PRA">8273</parameter><parameter name="PRL">4993</parameter><parameter name="P2A">1</parameter><parameter name="P2L">1</parameter><parameter name="P2R">1</parameter><parameter name="P2K">1</parameter><parameter name="DAQ">0</parameter><parameter name="AG2">1</parameter><parameter name="SSM">1</parameter><parameter name="RSN">13478</parameter><parameter name="CRR">0</parameter><parameter name="SRT">1654004737.866</parameter><parameter name="DUR">19.6379852294922</parameter><parameter name="TSC">29</parameter><parameter name="MVD">0.20866072177887</parameter><parameter name="AN1">0.225796339143005</parameter><parameter name="AN2">0</parameter><parameter name="VSN">2.485 Apr  4 2017</parameter><parameter name="SRN">0085</parameter><parameter name="CAM">0</parameter><parameter name="INS">IR-Biotyper</parameter><parameter name="FOC">69</parameter><parameter name="RDY">1</parameter></Instrument_Parameters_><History/></OPUSDataFile>
