<?xml version="1.0" encoding="UTF-8" ?>
<OPUSDataFile><AB><Ydata ylabel="Absorbance Units"><values byteorder="INTEL" format="FLOAT32" numvalues="3497"> -0.06735521 -0.06733184 -0.06729337 -0.06723945 -0.06717445 -0.0670986 -0.06701808 -0.0669334 -0.06685204 -0.06677508
 -0.06671292 -0.06666584 -0.06664158 -0.06663693 -0.066649 -0.06667297 -0.0666991 -0.06672648 -0.06674973 -0.06677144
 -0.06679246 -0.06681322 -0.06683476 -0.06685492 -0.06687301 -0.06688812 -0.06690006 -0.06690761 -0.06691097 -0.06690595
 -0.06689227 -0.06686515 -0.06682431 -0.0667704 -0.06670415 -0.06663457 -0.06656303 -0.06650287 -0.06645378 -0.06642313
 -0.06640687 -0.06639959 -0.06639686 -0.06638755 -0.0663736 -0.06635156 -0.06632841 -0.0663095 -0.06629647 -0.06629378
 -0.06629318 -0.06629302 -0.06628504 -0.0662654 -0.06623765 -0.0662002 -0.06616981 -0.06614759 -0.06615141 -0.06618237
 -0.06624364 -0.06633367 -0.0664328 -0.06653781 -0.06661865 -0.0666756 -0.06669213 -0.06667414 -0.06662583 -0.06655637
 -0.06648159 -0.06641051 -0.06636123 -0.06633307 -0.0663362 -0.06635118 -0.06637263 -0.06637654 -0.06634924 -0.06629268
 -0.06620046 -0.06610303 -0.06600375 -0.06592964 -0.06588448 -0.06587352 -0.06589729 -0.0659468 -0.06602115 -0.06610681
 -0.06620205 -0.06629032 -0.06636914 -0.06641956 -0.06644283 -0.0664297 -0.06638935 -0.06633147 -0.06626742 -0.06621539
 -0.06617815 -0.06616782 -0.06617015 -0.06618391 -0.06618468 -0.06616053 -0.06610696 -0.06601538 -0.06591601 -0.06581096
 -0.06573637 -0.06569755 -0.06569771 -0.06573749 -0.06578593 -0.06584168 -0.06587808 -0.06589762 -0.06590256 -0.06589624
 -0.06589356 -0.06589273 -0.06589757 -0.06590349 -0.06590202 -0.06589688 -0.06588691 -0.06588265 -0.06589554 -0.06592145
 -0.0659657 -0.06600586 -0.06603298 -0.06603836 -0.06601314 -0.06598235 -0.06594693 -0.06594227 -0.06597351 -0.06604765
 -0.06616592 -0.06626745 -0.06634814 -0.06632783 -0.06621736 -0.06604607 -0.06582936 -0.06564385 -0.06548813 -0.06539834
 -0.0653636 -0.06538473 -0.06544352 -0.06552084 -0.06559775 -0.06565003 -0.06567589 -0.06566322 -0.0656324 -0.06558808
 -0.06554804 -0.06552013 -0.06550127 -0.06549299 -0.06548367 -0.06547181 -0.06545503 -0.06543298 -0.06541525 -0.0654023
 -0.06540319 -0.06541678 -0.0654409 -0.06547228 -0.06549738 -0.06551376 -0.06550751 -0.0654806 -0.06542861 -0.06535833
 -0.06527486 -0.06518731 -0.06510377 -0.06503344 -0.06498338 -0.06495975 -0.06496787 -0.06500459 -0.06507302 -0.06515364
 -0.06524549 -0.06531983 -0.06537327 -0.06538965 -0.06536757 -0.06531387 -0.06522971 -0.06513497 -0.06503094 -0.06493568
 -0.06484932 -0.06478256 -0.06473368 -0.06470516 -0.06469195 -0.0646878 -0.06468499 -0.06467122 -0.06464331 -0.0645918
 -0.06452543 -0.06444411 -0.06436456 -0.06429369 -0.06424077 -0.06421146 -0.0641996 -0.06420586 -0.0642177 -0.06423357
 -0.06424858 -0.0642623 -0.06427556 -0.06428827 -0.06429899 -0.0643073 -0.06430912 -0.06430531 -0.06429638 -0.06428485
 -0.06427757 -0.0642759 -0.06428593 -0.06430633 -0.06433808 -0.06437907 -0.06442698 -0.06448328 -0.0645474 -0.06462377
 -0.06471561 -0.06481919 -0.06493739 -0.06504898 -0.06515203 -0.06522084 -0.06525174 -0.06523679 -0.0651752 -0.06506754
 -0.06491456 -0.06472669 -0.06450874 -0.06429893 -0.0641019 -0.06395859 -0.06386538 -0.06383695 -0.06385954 -0.06391934
 -0.06399469 -0.06405004 -0.06408157 -0.0640669 -0.06403201 -0.06398625 -0.06394888 -0.06393446 -0.06393307 -0.06394815
 -0.06395108 -0.06393657 -0.06388916 -0.06380446 -0.06369961 -0.06357516 -0.06346098 -0.06335808 -0.06328455 -0.06323958
 -0.06322817 -0.06324594 -0.063281 -0.06332371 -0.06334037 -0.06333078 -0.06327268 -0.06318699 -0.06309189 -0.06300151
 -0.06293994 -0.06289496 -0.06287001 -0.06283803 -0.06278706 -0.06270621 -0.06258558 -0.06244616 -0.06228872 -0.06214137
 -0.06200842 -0.06189596 -0.06180511 -0.06171595 -0.06162742 -0.06151747 -0.06138899 -0.06125245 -0.06111221 -0.06099407
 -0.0608946 -0.06081823 -0.06075895 -0.06070781 -0.06066105 -0.06061194 -0.06055373 -0.06047893 -0.06038132 -0.0602518
 -0.06009973 -0.05992557 -0.05974317 -0.05956008 -0.05936554 -0.05915984 -0.05892489 -0.05865708 -0.05836317 -0.05804304
 -0.0577174 -0.0573871 -0.0570669 -0.05675702 -0.05646653 -0.05619463 -0.05594418 -0.05571166 -0.05548918 -0.05527395
 -0.05505662 -0.05483758 -0.05461609 -0.05438538 -0.05414256 -0.0538716 -0.05355648 -0.05320736 -0.05281761 -0.05242853
 -0.05205314 -0.05170601 -0.05139551 -0.05110139 -0.05082312 -0.05053447 -0.05023346 -0.0499088 -0.04956093 -0.04920213
 -0.04883431 -0.04847962 -0.04813506 -0.04780257 -0.04747203 -0.04711388 -0.0467281 -0.04629332 -0.0458335 -0.04537266
 -0.04492477 -0.0445166 -0.04413459 -0.0437799 -0.04343256 -0.04308417 -0.04272271 -0.04234204 -0.04194178 -0.04152005
 -0.0410841 -0.04063435 -0.04017871 -0.03971779 -0.03925537 -0.03879138 -0.03832335 -0.03785051 -0.03736574 -0.0368688
 -0.03635391 -0.03582359 -0.03528051 -0.03473014 -0.03418431 -0.03364583 -0.03312473 -0.03261731 -0.03212241 -0.03164064
 -0.0311702 -0.03071874 -0.03029262 -0.02988228 -0.02949143 -0.02908439 -0.02865413 -0.0281802 -0.02765537 -0.02711287
 -0.02655397 -0.02602536 -0.02552788 -0.0250675 -0.02464078 -0.02422395 -0.02381402 -0.02338496 -0.02293782 -0.02246
 -0.02195918 -0.02144334 -0.02092093 -0.02040914 -0.01990474 -0.0194142 -0.01892174 -0.01841844 -0.01789585 -0.01734374
 -0.01677743 -0.01619808 -0.01562499 -0.01506331 -0.01451678 -0.01398727 -0.01346658 -0.01295439 -0.0124403 -0.01192411
 -0.01140436 -0.01088192 -0.01036451 -0.009850478 -0.009338403 -0.008822242 -0.008282465 -0.007718764 -0.007116611 -0.006490787
 -0.005853352 -0.005221577 -0.004619396 -0.00404488 -0.003507127 -0.002988711 -0.002483363 -0.001981543 -0.001476583 -0.0009773301
 -0.0004841151 -7.560167E-06 0.0004493026 0.0008970639 0.001335648 0.001793104 0.002270374 0.002781724 0.003324477 0.003882742
 0.004453349 0.005012264 0.005561776 0.006095231 0.006618147 0.007138947 0.007659476 0.008187574 0.008717887 0.009250035
 0.009773192 0.01027959 0.01076453 0.01122025 0.01166127 0.01208785 0.01252467 0.01297794 0.01345572 0.01396147
 0.0144809 0.01501346 0.01554192 0.01606575 0.01657936 0.01708345 0.0175815 0.01807396 0.01856518 0.01905402
 0.01953995 0.02002079 0.02049139 0.02095193 0.02139966 0.02183777 0.02226854 0.02269384 0.02311547 0.02353464
 0.0239518 0.02436985 0.02479095 0.02521091 0.02563074 0.02603644 0.02642549 0.02679611 0.02714701 0.02750431
 0.02786934 0.02826948 0.02870254 0.02916252 0.02964327 0.03011217 0.03056772 0.03098629 0.03137528 0.03173719
 0.03208186 0.0324259 0.03277002 0.03312377 0.03347598 0.03382151 0.0341536 0.03446442 0.0347654 0.03505708
 0.03535591 0.03566672 0.03599083 0.0363296 0.03667619 0.03703002 0.03738994 0.03775582 0.03812582 0.03849919
 0.03886767 0.03923194 0.03959025 0.03994519 0.04030506 0.04066826 0.041037 0.04140504 0.04176394 0.04211091
 0.04243919 0.04275125 0.04304732 0.04332777 0.04359369 0.04384157 0.0440699 0.04427924 0.04446795 0.04464636
 0.04481463 0.04498984 0.04517319 0.04537935 0.04560884 0.0458657 0.04614897 0.0464527 0.04677464 0.04710209
 0.04743142 0.04774515 0.04804095 0.04830333 0.0485383 0.04874477 0.04893766 0.04913127 0.04933594 0.04956673
 0.04981492 0.05008401 0.05034974 0.05060523 0.05083324 0.05102592 0.05119371 0.05133485 0.051481 0.05163494
 0.05181101 0.05200897 0.05219911 0.05237825 0.05250138 0.05257251 0.05258362 0.05254863 0.05250522 0.05246487
 0.05247315 0.05252422 0.0526341 0.05277917 0.05294305 0.05310342 0.0532346 0.05334376 0.05342045 0.05350481
 0.05360684 0.05375934 0.05397738 0.05423944 0.05454947 0.05484056 0.05510779 0.05529899 0.05541258 0.05545672
 0.05543609 0.05539995 0.05534962 0.05531936 0.05530258 0.05529505 0.05529432 0.05528932 0.05529032 0.05530882
 0.05534957 0.05542862 0.05552481 0.05563148 0.05572074 0.05577249 0.05579104 0.05576792 0.05573875 0.05570966
 0.05570738 0.05573872 0.05579758 0.05588509 0.05597327 0.05606059 0.05611565 0.05613774 0.05610574 0.05602373
 0.05589701 0.05573769 0.05558404 0.05544998 0.0553868 0.05539229 0.05549404 0.05565948 0.05587295 0.05608489
 0.05625352 0.05635608 0.05636107 0.05630208 0.05617601 0.05604851 0.05593261 0.05587713 0.05589203 0.05599236
 0.05618093 0.05645133 0.05680292 0.05721026 0.05766878 0.05812535 0.05857198 0.05893864 0.05922335 0.05937674
 0.05941592 0.05934523 0.05920231 0.05904173 0.05889856 0.0588357 0.0588497 0.0589691 0.05914146 0.05935513
 0.05954386 0.05968162 0.0597351 0.05968723 0.05955513 0.05933536 0.05907756 0.05878515 0.05850269 0.05823226
 0.05799056 0.05777717 0.05759274 0.05743877 0.0573237 0.05724968 0.05723149 0.0572623 0.0573403 0.05744386
 0.05754491 0.05761299 0.05760713 0.05750526 0.05727303 0.05692206 0.0564389 0.05587908 0.05525194 0.05462787
 0.05402491 0.05348305 0.05301306 0.05261244 0.05228311 0.05199832 0.05175651 0.05151759 0.05127965 0.05100496
 0.05069859 0.05036373 0.05001416 0.04969991 0.0494226 0.04921968 0.04906214 0.04892609 0.04877591 0.04855736
 0.04827368 0.04789797 0.04748375 0.04704435 0.04664553 0.04631568 0.04608047 0.04596007 0.04590774 0.04592663
 0.04591498 0.04586474 0.04569201 0.04539293 0.04497095 0.04443347 0.04386328 0.04326865 0.04273934 0.04227156
 0.04190415 0.04161996 0.04140373 0.04123208 0.04106313 0.04088048 0.04064652 0.04036875 0.04003466 0.0396764
 0.03930506 0.03895143 0.03863119 0.03834925 0.0381123 0.03790266 0.03771962 0.03754117 0.0373655 0.03717429
 0.03696654 0.03672975 0.03646444 0.03617158 0.03585441 0.03553093 0.03520431 0.03489631 0.03460419 0.03433446
 0.03407826 0.03382501 0.03356712 0.03329164 0.03299688 0.03267659 0.03233451 0.03196929 0.03159089 0.03120048
 0.03081427 0.03043597 0.03007778 0.02974317 0.02942944 0.02913727 0.02885337 0.02857705 0.02829679 0.02801241
 0.0277181 0.02741418 0.02709881 0.02677329 0.02644046 0.0261026 0.02576632 0.02543282 0.02510718 0.02478884
 0.02447886 0.02417722 0.02388246 0.02360065 0.02333147 0.02309151 0.02288646 0.0227284 0.02262713 0.02255508
 0.02251561 0.02243443 0.02230554 0.02206539 0.0217106 0.02125609 0.02070872 0.02015623 0.01960606 0.01914888
 0.01877885 0.01853039 0.01837935 0.01829345 0.01823816 0.01814308 0.01799115 0.01772564 0.01737762 0.01694212
 0.01648442 0.01603951 0.0156423 0.01532184 0.01505102 0.01483016 0.01462349 0.014421 0.01423685 0.01406962
 0.01396304 0.01391938 0.0139457 0.0140373 0.01413816 0.0142396 0.01426057 0.01420193 0.01401735 0.01372689
 0.01334915 0.01291424 0.01248134 0.01206193 0.01169846 0.01137011 0.01107546 0.01079134 0.01049854 0.01020824
 0.009916951 0.00965206 0.009424138 0.009225483 0.009059982 0.008887834 0.008704306 0.008499525 0.008272734 0.008069288
 0.007891464 0.007784372 0.00774134 0.007748273 0.007792034 0.007816066 0.007818502 0.007762176 0.007663058 0.007529927
 0.007379007 0.007237975 0.007097926 0.0069684 0.006813456 0.006616994 0.006351251 0.005994251 0.005568918 0.005067883
 0.004564204 0.004066514 0.003642796 0.003303299 0.003051057 0.002886859 0.002745281 0.002622088 0.002442484 0.0022098
 0.001902185 0.001533914 0.001143613 0.0007440901 0.0003881694 7.290432E-05 -0.0001793211 -0.0003858729 -0.0005567057 -0.0007100184
 -0.0008641208 -0.001027315 -0.001210694 -0.001410018 -0.001628368 -0.001850665 -0.002074412 -0.002284422 -0.002475837 -0.00265506
 -0.002820438 -0.003005033 -0.003210664 -0.003461333 -0.003755132 -0.004070309 -0.004401813 -0.00470391 -0.004981436 -0.005223952
 -0.005447507 -0.005688556 -0.005951274 -0.006266627 -0.006611448 -0.006973507 -0.007325129 -0.007635399 -0.007904096 -0.00811829
 -0.008300654 -0.008457905 -0.008602455 -0.008741637 -0.008864689 -0.008971496 -0.009047215 -0.00908895 -0.009105014 -0.009095512
 -0.009101522 -0.009126029 -0.009221943 -0.009387589 -0.009643908 -0.009977643 -0.01035438 -0.01075578 -0.01111866 -0.0114361
 -0.01166457 -0.01181477 -0.01188023 -0.0118789 -0.01182314 -0.01172554 -0.0115966 -0.01144174 -0.01126457 -0.01107008
 -0.01085906 -0.01064075 -0.0104171 -0.01019264 -0.009969617 -0.009729679 -0.009472115 -0.009153297 -0.008771345 -0.008288576
 -0.007709129 -0.007037327 -0.006284664 -0.005495954 -0.004680065 -0.003883024 -0.003103197 -0.002359327 -0.001644401 -0.000956352
 -0.000292243 0.0003509858 0.0009749436 0.001578486 0.002173235 0.002761435 0.003360134 0.003976597 0.00460844 0.005260294
 0.005898008 0.006519855 0.007082712 0.007583771 0.008004601 0.008345971 0.008618676 0.008824313 0.008978599 0.009081091
 0.009135986 0.009147184 0.009121194 0.009074801 0.009036105 0.009027575 0.009089659 0.009227661 0.009465167 0.009780942
 0.01017178 0.01061076 0.01108517 0.01158521 0.01210526 0.01264593 0.01320742 0.01378461 0.01437746 0.01497638
 0.01558089 0.01617892 0.01676895 0.01732552 0.01784609 0.01829833 0.01868597 0.0190022 0.01926074 0.01949376
 0.01970923 0.01994509 0.02017705 0.02040651 0.02056286 0.02060248 0.02042665 0.01996899 0.01916236 0.01794939
 0.01636835 0.01439571 0.01219511 0.00977771 0.007361275 0.004969039 0.002761251 0.0007501456 -0.001022067 -0.002558159
 -0.003905789 -0.005071316 -0.006119949 -0.007053249 -0.007910255 -0.008692175 -0.00941893 -0.01009777 -0.01074983 -0.01138167
 -0.01201263 -0.01263633 -0.01325669 -0.01385735 -0.01442969 -0.01496316 -0.01545064 -0.01589132 -0.01628408 -0.01662762
 -0.01692227 -0.01716205 -0.01734669 -0.01746757 -0.01752417 -0.01750644 -0.01741473 -0.01725149 -0.01702282 -0.01676834
 -0.01650063 -0.0162916 -0.01614716 -0.01612428 -0.01620949 -0.01640986 -0.01669763 -0.01704362 -0.01742068 -0.01779713
 -0.01815355 -0.01847051 -0.01873734 -0.01894529 -0.01909112 -0.01917294 -0.01918701 -0.01913297 -0.01900287 -0.01879344
 -0.01852295 -0.01819065 -0.01789421 -0.01764328 -0.01761655 -0.01782273 -0.01842131 -0.01939039 -0.02074393 -0.02241993
 -0.02427156 -0.02623342 -0.02811508 -0.02989812 -0.03147283 -0.03287634 -0.03409967 -0.03519394 -0.03618966 -0.03711155
 -0.03797892 -0.03879223 -0.03955446 -0.04026609 -0.04092665 -0.04154325 -0.04211656 -0.04265224 -0.0431507 -0.04361463
 -0.04404432 -0.04444502 -0.04481784 -0.04517339 -0.04551277 -0.04584711 -0.04617472 -0.04649825 -0.04681218 -0.04710734
 -0.04738063 -0.04762088 -0.04783799 -0.04803281 -0.04822698 -0.04843407 -0.04866716 -0.04893984 -0.04923617 -0.04955883
 -0.04986981 -0.05016248 -0.05041081 -0.05060872 -0.05076806 -0.05088864 -0.05100622 -0.05112194 -0.05125644 -0.0514074
 -0.05156611 -0.05173189 -0.05189473 -0.05206135 -0.0522451 -0.05245121 -0.05270016 -0.05298131 -0.05329316 -0.05361411
 -0.05392377 -0.05421009 -0.0544575 -0.05467046 -0.05484649 -0.05499427 -0.05511487 -0.05521894 -0.05530661 -0.05539899
 -0.05549798 -0.0556251 -0.05578235 -0.05596879 -0.05618347 -0.05640423 -0.05663019 -0.056844 -0.05704731 -0.05723854
 -0.05741836 -0.05758827 -0.05774705 -0.05789194 -0.05802499 -0.0581464 -0.05826221 -0.0583787 -0.05849745 -0.05862334
 -0.05874871 -0.05887184 -0.05898509 -0.05908401 -0.05917414 -0.05925389 -0.059342 -0.05944028 -0.0595647 -0.05971687
 -0.05989402 -0.06009528 -0.06030032 -0.06050782 -0.06069737 -0.06087069 -0.06102344 -0.06115991 -0.06129006 -0.06141579
 -0.06154734 -0.06167943 -0.06181053 -0.06193234 -0.06203489 -0.06211905 -0.06217829 -0.06223039 -0.0622789 -0.06234749
 -0.06244492 -0.06257981 -0.06275779 -0.06296424 -0.06319927 -0.06343795 -0.06367853 -0.06390418 -0.0641145 -0.06430648
 -0.06448071 -0.0646406 -0.06478621 -0.06491905 -0.06503982 -0.06515012 -0.06525324 -0.06535567 -0.0654612 -0.06557846
 -0.06570675 -0.06584997 -0.06600167 -0.06615926 -0.06631672 -0.06647027 -0.06661869 -0.0667604 -0.06689796 -0.06703147
 -0.06716403 -0.06729606 -0.0674297 -0.06756521 -0.0677018 -0.06783927 -0.06797278 -0.06810175 -0.06821907 -0.06832509
 -0.06841649 -0.06849619 -0.0685698 -0.06864207 -0.06872499 -0.06882084 -0.06893925 -0.06907582 -0.06923109 -0.0693968
 -0.06956767 -0.06973901 -0.06990698 -0.07007199 -0.07023377 -0.0703917 -0.07054614 -0.07069306 -0.07083178 -0.07096137
 -0.07108144 -0.07120005 -0.0713177 -0.07144561 -0.07158339 -0.07173363 -0.07189369 -0.07205342 -0.07220987 -0.07234855
 -0.07247017 -0.07256754 -0.07264724 -0.07271376 -0.07277682 -0.07284728 -0.07293082 -0.07303614 -0.07315849 -0.07329953
 -0.07344743 -0.07359882 -0.07374623 -0.07388657 -0.07402297 -0.07415508 -0.07429004 -0.07442846 -0.07457242 -0.07472181
 -0.07487191 -0.07502211 -0.07516505 -0.07530051 -0.07542276 -0.0755337 -0.07563435 -0.07572991 -0.07583085 -0.07594138
 -0.07607356 -0.07622337 -0.07639392 -0.07657227 -0.07675152 -0.07692026 -0.07706997 -0.07720184 -0.07731274 -0.07741432
 -0.07750817 -0.07760462 -0.07770574 -0.07781236 -0.07792493 -0.07803723 -0.07814903 -0.07825614 -0.07835907 -0.0784603
 -0.07856092 -0.0786676 -0.07878049 -0.07890404 -0.0790363 -0.07917609 -0.07931992 -0.07946241 -0.0796012 -0.0797314
 -0.07985435 -0.0799687 -0.08007885 -0.08018676 -0.08029436 -0.08040344 -0.08051073 -0.08061603 -0.08071535 -0.08080764
 -0.08089533 -0.08097827 -0.08106447 -0.08115424 -0.0812527 -0.08135939 -0.08147217 -0.08159058 -0.08171107 -0.08183417
 -0.08195986 -0.08208816 -0.08221964 -0.0823527 -0.08248521 -0.08261619 -0.08274347 -0.08286795 -0.08298986 -0.08310916
 -0.08322649 -0.08333934 -0.08344677 -0.08354846 -0.08364361 -0.08373611 -0.08382633 -0.08391792 -0.08401128 -0.08410631
 -0.08420299 -0.08429991 -0.08439714 -0.08449456 -0.08459227 -0.0846908 -0.08478984 -0.08488891 -0.08498717 -0.08508275
 -0.08517491 -0.08526129 -0.08534312 -0.08541961 -0.08549565 -0.08557368 -0.08565931 -0.08575656 -0.08586537 -0.08598784
 -0.08611664 -0.08625111 -0.08638247 -0.08650928 -0.08662782 -0.08673752 -0.08684 -0.08693537 -0.08702634 -0.08711296
 -0.08719636 -0.0872767 -0.08735479 -0.08743151 -0.08750968 -0.08759079 -0.08767934 -0.08777583 -0.08788353 -0.08800048
 -0.0881269 -0.08825784 -0.08839053 -0.08851968 -0.08864155 -0.08875551 -0.08885954 -0.08895936 -0.08905543 -0.08915506
 -0.08925956 -0.08937095 -0.08948977 -0.08961131 -0.08973529 -0.08985396 -0.08996712 -0.09006959 -0.09016208 -0.09024483
 -0.09031937 -0.09039033 -0.09045905 -0.09053053 -0.0906051 -0.09068548 -0.090771 -0.0908621 -0.09095754 -0.09105661
 -0.09115817 -0.09126118 -0.09136628 -0.09147339 -0.09158355 -0.09169739 -0.09181289 -0.09193011 -0.0920449 -0.09215681
 -0.09226541 -0.09237076 -0.09247762 -0.09258601 -0.09269837 -0.09281359 -0.09292734 -0.09303858 -0.09314118 -0.09323638
 -0.09332316 -0.09340495 -0.0934862 -0.09356989 -0.09366126 -0.09375984 -0.09386796 -0.09398097 -0.09409794 -0.09421254
 -0.09432245 -0.09442375 -0.09451475 -0.09459602 -0.09466695 -0.09473275 -0.0947937 -0.09485576 -0.09491918 -0.09498598
 -0.09505589 -0.09512702 -0.09519949 -0.09527283 -0.09534759 -0.09542582 -0.09550649 -0.09558895 -0.09567069 -0.09574699
 -0.09581825 -0.09588179 -0.09594293 -0.09600441 -0.0960709 -0.09614635 -0.09622934 -0.09632083 -0.09641627 -0.0965147
 -0.09661365 -0.09671262 -0.0968105 -0.09690725 -0.09700029 -0.09708948 -0.09717217 -0.09724844 -0.09731838 -0.0973823
 -0.09744189 -0.09749717 -0.09754879 -0.0975973 -0.09764376 -0.09769 -0.09773897 -0.09779274 -0.09785489 -0.0979255
 -0.098006 -0.09809511 -0.09819287 -0.09829712 -0.09840786 -0.09852023 -0.09863383 -0.09874113 -0.09884091 -0.09892888
 -0.09900425 -0.09906992 -0.09912603 -0.09917954 -0.09923085 -0.09928668 -0.09934752 -0.09941939 -0.09950262 -0.09960155
 -0.09971596 -0.09984729 -0.09999555 -0.1001606 -0.1003446 -0.1005487 -0.1007773 -0.1010331 -0.1013232 -0.1016505
 -0.1020254 -0.1024519 -0.1029376 -0.1034872 -0.1040925 -0.104756 -0.1054425 -0.1061509 -0.1068286 -0.1074729
 -0.1080437 -0.1085416 -0.1089608 -0.1093026 -0.1095759 -0.1097704 -0.1098599 -0.1098269 -0.1096074 -0.1092248
 -0.1086695 -0.1080187 -0.1073506 -0.1067228 -0.1062076 -0.1058142 -0.1055668 -0.1054551 -0.105484 -0.1056266
 -0.1058865 -0.1061903 -0.1065325 -0.1068162 -0.1070289 -0.1071615 -0.1072136 -0.1072593 -0.1072997 -0.1073729
 -0.107471 -0.1075703 -0.1076632 -0.1077102 -0.1077142 -0.107659 -0.107558 -0.1074247 -0.1072708 -0.1071164
 -0.1069604 -0.1068093 -0.1066567 -0.1064989 -0.1063381 -0.1061726 -0.1060128 -0.1058609 -0.1057256 -0.1056089
 -0.105513 -0.1054389 -0.1053816 -0.1053408 -0.1053041 -0.1052709 -0.1052308 -0.1051853 -0.1051362 -0.1050863
 -0.1050456 -0.1050146 -0.1050001 -0.1049993 -0.1050112 -0.1050319 -0.1050572 -0.1050844 -0.10511 -0.1051336
 -0.1051537 -0.1051712 -0.1051863 -0.1051998 -0.1052117 -0.105224 -0.1052365 -0.1052533 -0.1052745 -0.1053028
 -0.1053382 -0.105378 -0.1054219 -0.105464 -0.1055045 -0.1055406 -0.1055735 -0.1056051 -0.1056374 -0.1056751
 -0.1057197 -0.105776 -0.1058427 -0.1059213 -0.1060064 -0.1060947 -0.1061808 -0.1062601 -0.1063326 -0.106397
 -0.1064562 -0.1065111 -0.1065621 -0.1066097 -0.1066523 -0.1066896 -0.1067231 -0.1067528 -0.1067833 -0.1068149
 -0.1068502 -0.1068888 -0.1069288 -0.1069694 -0.1070059 -0.1070385 -0.107064 -0.1070851 -0.1071041 -0.1071245
 -0.1071521 -0.1071862 -0.1072295 -0.107276 -0.1073235 -0.1073667 -0.1074019 -0.1074309 -0.1074525 -0.1074734
 -0.1074946 -0.1075211 -0.1075538 -0.107592 -0.107636 -0.1076819 -0.1077298 -0.1077764 -0.1078218 -0.1078648
 -0.1079053 -0.1079429 -0.1079774 -0.1080082 -0.1080357 -0.1080592 -0.1080806 -0.1081005 -0.1081224 -0.1081489
 -0.1081827 -0.108227 -0.1082803 -0.1083439 -0.1084106 -0.1084792 -0.1085436 -0.1086019 -0.1086554 -0.1087037
 -0.1087516 -0.1087994 -0.1088468 -0.1088935 -0.1089343 -0.1089694 -0.108997 -0.109019 -0.1090404 -0.1090627
 -0.1090926 -0.109129 -0.1091736 -0.1092229 -0.1092737 -0.1093233 -0.1093676 -0.1094078 -0.1094425 -0.1094765
 -0.1095111 -0.1095508 -0.1095973 -0.1096502 -0.1097102 -0.1097721 -0.1098356 -0.1098958 -0.1099526 -0.110005
 -0.110053 -0.1100977 -0.1101392 -0.1101776 -0.110213 -0.1102457 -0.1102765 -0.1103076 -0.1103395 -0.1103747
 -0.110412 -0.1104514 -0.1104906 -0.1105278 -0.1105617 -0.1105905 -0.1106158 -0.1106372 -0.1106585 -0.1106805
 -0.110708 -0.110742 -0.1107854 -0.1108387 -0.1108994 -0.1109673 -0.1110354 -0.1111037 -0.1111668 -0.111225
 -0.1112779 -0.111326 -0.1113711 -0.1114129 -0.1114514 -0.1114861 -0.1115155 -0.1115412 -0.1115636 -0.1115865
 -0.111613 -0.111645 -0.1116857 -0.1117316 -0.1117827 -0.1118328 -0.11188 -0.111921 -0.1119545 -0.1119824
 -0.1120044 -0.1120258 -0.1120469 -0.1120724 -0.1121023 -0.112138 -0.112179 -0.1122229 -0.1122693 -0.1123152
 -0.1123608 -0.1124052 -0.1124495 -0.1124948 -0.1125416 -0.1125915 -0.1126428 -0.1126956 -0.1127455 -0.1127903
 -0.1128267 -0.1128519 -0.1128694 -0.1128787 -0.1128887 -0.1129011 -0.1129206 -0.1129483 -0.1129812 -0.1130191
 -0.1130583 -0.1130987 -0.1131404 -0.1131832 -0.1132274 -0.1132724 -0.1133163 -0.1133594 -0.113401 -0.1134421
 -0.1134848 -0.1135283 -0.1135735 -0.1136181 -0.11366 -0.1136985 -0.113732 -0.1137632 -0.1137929 -0.1138245
 -0.1138597 -0.1138979 -0.1139397 -0.1139817 -0.1140236 -0.1140646 -0.1141045 -0.1141469 -0.1141919 -0.1142419
 -0.1142959 -0.1143493 -0.1144007 -0.1144421 -0.114474 -0.1144932 -0.1145039 -0.1145116 -0.1145209 -0.1145411
 -0.1145716 -0.1146167 -0.1146688 -0.1147251 -0.1147787 -0.1148248 -0.1148656 -0.1149 -0.1149347 -0.1149713
 -0.1150103 -0.1150526 -0.1150923 -0.1151291 -0.1151607 -0.1151874 -0.1152135 -0.1152394 -0.11527 -0.1153044
 -0.1153428 -0.1153841 -0.1154254 -0.1154664 -0.1155048 -0.1155417 -0.1155772 -0.1156134 -0.1156526 -0.1156954
 -0.1157434 -0.1157942 -0.1158476 -0.1159 -0.1159502 -0.1159961 -0.116037 -0.1160724 -0.1161021 -0.1161265
 -0.1161455 -0.1161601 -0.1161705 -0.1161789 -0.1161855 -0.1161936 -0.1162032 -0.1162163 -0.1162318 -0.1162479
 -0.1162638 -0.1162765 -0.1162878 -0.1162977 -0.1163105 -0.1163298 -0.1163577 -0.1163973 -0.1164459 -0.116504
 -0.1165657 -0.1166301 -0.1166892 -0.1167419 -0.116781 -0.1168054 -0.1168146 -0.1168084 -0.116794 -0.1167716
 -0.1167486 -0.1167249 -0.116703 -0.1166828 -0.1166652 -0.1166511 -0.116643 -0.1166414 -0.1166493 -0.1166655
 -0.1166901 -0.11672 -0.1167531 -0.1167856 -0.1168147 -0.1168384 -0.1168548 -0.1168647 -0.1168678 -0.1168665
 -0.1168613 -0.1168543 -0.1168459 -0.116837 -0.1168277 -0.1168181 -0.1168082 -0.1167978 -0.1167868 -0.1167743
 -0.1167603 -0.1167433 -0.1167241 -0.1167032 -0.1166835 -0.1166704 -0.1166668 -0.1166803 -0.1167076 -0.1167507
 -0.1167979 -0.1168434 -0.116876 -0.116888 -0.1168816 -0.1168542 -0.1168194 -0.1167791 -0.1167439 -0.1167159
 -0.1166952 -0.1166819 -0.1166694 -0.1166577 -0.1166431 -0.1166268 -0.1166139 -0.1166057 -0.1166103 -0.1166262
 -0.1166542 -0.1166899 -0.1167252 -0.1167568 -0.1167765 -0.1167849 -0.1167787 -0.1167627 -0.1167383 -0.1167111
 -0.1166841 -0.1166591 -0.116638 -0.1166174 -0.1165974 -0.1165732 -0.116544 -0.1165087 -0.116467 -0.1164213
 -0.1163719 -0.1163224 -0.116273 -0.1162272 -0.1161851 -0.116149 -0.1161184 -0.1160933 -0.1160732 -0.1160571
 -0.1160446 -0.1160352 -0.1160269 -0.1160184 -0.1160066 -0.115989 -0.115965 -0.1159331 -0.1158963 -0.1158551
 -0.1158128 -0.1157703 -0.1157282 -0.115687 -0.1156453 -0.115603 -0.115558 -0.1155106 -0.1154618 -0.1154124
 -0.1153694 -0.1153335 -0.1153121 -0.1153032 -0.1153064 -0.115316 -0.1153212 -0.1153175 -0.1152924 -0.1152497
 -0.1151872 -0.1151133 -0.1150333 -0.1149512 -0.114871 -0.114791 -0.1147111 -0.1146318 -0.1145522 -0.1144791
 -0.1144133 -0.1143595 -0.1143181 -0.1142846 -0.1142588 -0.1142334 -0.1142086 -0.114182 -0.1141528 -0.1141176
 -0.1140744 -0.1140151 -0.1139409 -0.1138492 -0.1137461 -0.1136383 -0.1135311 -0.1134313 -0.1133418 -0.1132665
 -0.1132061 -0.1131631 -0.1131316 -0.1131122 -0.1130911 -0.1130661 -0.1130261 -0.1129687 -0.1128943 -0.1128025
 -0.1127008 -0.1125898 -0.1124766 -0.1123615 -0.1122486 -0.1121374 -0.1120271 -0.1119172 -0.1118049 -0.1116915
 -0.1115777 -0.1114649 -0.1113563 -0.1112505 -0.1111473 -0.111046 -0.1109451 -0.1108476 -0.110755 -0.1106679
 -0.1105883 -0.1105084 -0.1104277 -0.1103362 -0.1102321 -0.1101136 -0.1099803 -0.1098401 -0.1096933 -0.1095468
 -0.1094 -0.10925 -0.1090952 -0.1089254 -0.108742 -0.1085428 -0.1083331 -0.1081227 -0.1079131 -0.1077117
 -0.1075143 -0.1073196 -0.1071252 -0.1069279 -0.1067316 -0.1065367 -0.1063488 -0.1061698 -0.1060021 -0.1058474
 -0.1057001 -0.1055611 -0.1054092 -0.105243 -0.1050385 -0.1047955 -0.104522 -0.1042208 -0.1039195 -0.1036172
 -0.103324 -0.1030359 -0.1027457 -0.1024517 -0.1021465 -0.1018305 -0.1015006 -0.1011594 -0.1008069 -0.1004491
 -0.1000908 -0.09973283 -0.09938086 -0.09901769 -0.09864078 -0.09822918 -0.09777512 -0.09728635 -0.09676129 -0.09622442
 -0.09567772 -0.09513073 -0.09458388 -0.09404162 -0.09350476 -0.09298475 -0.09247925 -0.09198663 -0.09149736 -0.09098225
 -0.09043457 -0.08982076 -0.08915545 -0.08844078 -0.08770318 -0.08697233 -0.08625483 -0.08556638 -0.08489759 -0.08424717
 -0.08360982 -0.08298331 -0.08236694 -0.08176399 -0.0811512 -0.08053136 -0.07983226 -0.07904857 -0.07812233 -0.0770542
 -0.07592381 -0.0747396 -0.07361839 -0.07254835 -0.07153428 -0.07055939 -0.06957357 -0.06857411 -0.06753235 -0.06644975
 -0.06532374 -0.06413519 -0.06287546 -0.06149521 -0.05995875 -0.05823376 -0.05627351 -0.05415889 -0.05188657 -0.04961738
 -0.04738846 -0.04527895 -0.04331012 -0.0414627 -0.03973865 -0.03808083 -0.03648503 -0.0348529 -0.03317438 -0.03130308
 -0.02925334 -0.02699119 -0.02458961 -0.02227028 -0.02004696 -0.0180803 -0.01628563 -0.01460505 -0.01297931 -0.01131713
 -0.009624494 -0.007876436 -0.006096058 -0.004292106 -0.002465789 -0.000612665 0.001235552 0.00307752 0.004858784 0.006566699
 0.008216995 0.009808913 0.011386 0.01294847 0.01445174 0.01588967 0.01717868 0.01832833 0.01933822 0.02022947
 0.02107273 0.02186731 0.02265351 0.02340233 0.02407788 0.02468956 0.02522407 0.02572437 0.0262256 0.02672346
 0.02723529 0.02770784 0.02812708 0.02845703 0.0286845 0.02880995 0.02883071 0.02876015 0.02859834 0.0283717
 0.02808179 0.02776315 0.02741512 0.0270455 0.02665019 0.02621146 0.02572951 0.02519139 0.02460935 0.02399791
 0.02338016 0.02279668 0.02226031 0.02180102 0.02141603 0.02110836 0.02088696 0.02075382 0.02072739 0.02081962
 0.02101514 0.0213168 0.02168395 0.02210961 0.0225822 0.02309912 0.02367778 0.0243189 0.02503429 0.02582273
 0.02667715 0.02759471 0.02855825 0.0295646 0.03059449 0.03164718 0.03270986 0.03378857 0.0348849 0.03600968
 0.03717398 0.03838705 0.03965978 0.04099323 0.04239316 0.04384809 0.04535666 0.04690431 0.04848767 0.050098
 0.05173529 0.05338037 0.05503273 0.05665621 0.05824918 0.0597963 0.06129862 0.06276887 0.06419782 0.06554988
 0.06680354 0.06786184 0.06873298 0.06937975 0.06983784 0.07014792 0.07032777 0.07041375 0.07040356 0.07030911
 0.070116 0.06983455 0.06939619 0.06879979 0.06789955 0.06664869 0.06502951 0.06299721 0.06089684 0.05875719
 0.05677449 0.0549554 0.05314377 0.05133265 0.04939264 0.04733748 0.04517394 0.04291563 0.04062302 0.03827039
 0.03585228 0.03328739 0.03043044 0.02728358 0.02371288 0.02000286 0.01632569 0.01286068 0.00980615 0.006979301
 0.004358466 0.001791161 -0.0007823551 -0.003320313 -0.005829716 -0.008215771 -0.01046695 -0.01258943 -0.01458393 -0.01652592
 -0.01841641 -0.02029378 -0.02214986 -0.02395988 -0.02571836 -0.02739063 -0.02898522 -0.03050189 -0.03195545 -0.03336803
 -0.03475066 -0.03611905 -0.03749196 -0.03887726 -0.04032345 -0.04185738 -0.04350978 -0.04533388 -0.04716666 -0.04899978
 -0.05058289 -0.05185349 -0.05286918 -0.05362182 -0.05431245 -0.05495054 -0.05563282 -0.05635432 -0.05708964 -0.05783078
 -0.05851763 -0.05915755 -0.05974613 -0.06028845 -0.06080349 -0.06126764 -0.06165665 -0.06193946 -0.06206482 -0.06204218
 -0.06185564 -0.06154268 -0.06111883 -0.06060843 -0.06002515 -0.05937305 -0.05866009 -0.05785936 -0.05697417 -0.05592827
 -0.05471436 -0.05328142 -0.05162797 -0.04989747 -0.04810604 -0.04649675 -0.04506197 -0.0438868 -0.0429454 -0.04219456
 -0.04161934 -0.04116855 -0.04082944 -0.0405694 -0.04035534 -0.04015116 -0.03989775 -0.03953467 -0.0390437 -0.03837492
 -0.03762698 -0.0368221 -0.03604329 -0.0353258 -0.03464597 -0.03400774 -0.03336127 -0.03270097 -0.03201462 -0.03130152
 -0.03059082 -0.02988368 -0.02920554 -0.02855049 -0.02790169 -0.02724596 -0.0265283 -0.02574285 -0.02484132 -0.02384448
 -0.02276298 -0.0216186 -0.02044988 -0.01923642 -0.01797901 -0.01664453 -0.0152079 -0.01367958 -0.01205017 -0.01036845
 -0.008646273 -0.006907003 -0.005160355 -0.00337818 -0.001557965 0.0003153605 0.002242362 0.004135989 0.005987048 0.007654121
 0.009136925 0.01036289 0.01133741 0.0120459 0.01248099 0.01261965 0.01245117 0.01194235 0.01110453 0.009929404
 0.00845493 0.006702708 0.004715876 0.002521949 0.0001481993 -0.002392566 -0.005075925 -0.007905013 -0.01080231 -0.01376648
 -0.01665776 -0.01946229 -0.02209138 -0.02453969 -0.02683512 -0.02898143 -0.03103777 -0.03299941 -0.03486945 -0.03663753
 -0.03826398 -0.03975372 -0.04109267 -0.04230426 -0.04341713 -0.04445738 -0.04546417 -0.04645604 -0.04746125 -0.04848267
 -0.04953413 -0.05059393 -0.05166118 -0.05270021 -0.05370126 -0.05464616 -0.0555281 -0.05635968 -0.05714105 -0.05789081
 -0.05861002 -0.059289 -0.05992526 -0.06048172 -0.06095823 -0.06133248 -0.06161205 -0.06181173 -0.0619392 -0.06202075
 -0.06205761 -0.06206388 -0.06203673 -0.06197732 -0.06188559 -0.06175834 -0.06160763 -0.0614341 -0.06126561 -0.06111024
 -0.06099675 -0.06093492 -0.06093469 -0.0610008 -0.06112283 -0.06130065 -0.06151934 -0.06177804 -0.06207212 -0.06240159
 -0.06276725 -0.0631668 -0.06358874 -0.06402627 -0.06444951 -0.06485207 -0.06520204 -0.06550145 -0.06573787 -0.06591982
 -0.06605283 -0.06614217 -0.06619436 -0.06621017 -0.06618992 -0.06614021 -0.06606098 -0.0659683 -0.06586505 -0.06576841
 -0.06568174 -0.06561445 -0.06556819 -0.06554282 -0.06553841 -0.06554889 -0.06557402 -0.065609 -0.06565439 -0.06571125
 -0.06578011 -0.06586406 -0.06596167 -0.06607173 -0.06619108 -0.06631393 -0.0664378 -0.06655682 -0.06667215 -0.06678157
 -0.06689094 -0.06700274 -0.06712196 -0.06725286 -0.06738998 -0.06753454 -0.06767139 -0.06779823 -0.06790435 -0.06798781
 -0.06805124 -0.06809466 -0.06812625 -0.06814601 -0.06815515 -0.06815274 -0.06813323 -0.06809628 -0.06803746 -0.06795768
 -0.06785721 -0.06773639 -0.06759641 -0.06743614 -0.06725449 -0.06705139 -0.06682549 -0.06658008 -0.06631588 -0.06603804
 -0.065748 -0.06545188 -0.06515034 -0.06485349 -0.06456222 -0.06429002 -0.06403841 -0.06381569 -0.0636225 -0.06345628
 -0.06331643 -0.0631936 -0.06308722 -0.0629889 -0.06289893 -0.06281355 -0.06273393 -0.06266085 -0.06259579 -0.06254134
 -0.06249927 -0.06247205 -0.06246289 -0.06247486 -0.06251112 -0.06257505 -0.06266519 -0.06278284 -0.06292132 -0.06307918
 -0.06325152 -0.06343711 -0.06363484 -0.0638447 -0.06406374 -0.06429185 -0.06452215 -0.06475436 -0.06498288 -0.06520792
 -0.06542834 -0.06564424 -0.06585557 -0.06606195 -0.06626246 -0.06645675 -0.06664377 -0.06682348 -0.06699561 -0.06715981
 -0.06731573 -0.0674632 -0.06760141 -0.06773271 -0.06785709 -0.06797961 -0.0681019 -0.06822604 -0.06835376 -0.06847759
 -0.06859739 -0.06870101 -0.06878763 -0.06885408 -0.06890078 -0.06893519 -0.06895757 -0.06897338 -0.0689816 -0.06898089
 -0.06897093 -0.06895002 -0.06891877 -0.06887849 -0.06882714 -0.06876408 -0.06868351 -0.06858111 -0.06845045 -0.06828675
 -0.06808597 -0.06784485 -0.06756411 -0.06724232 -0.06688589 -0.06649506 -0.06607927 -0.06563942 -0.06518334 -0.06471158
 -0.06422902 -0.06373595 -0.06323728 -0.06273369 -0.06223243 -0.06173385 -0.06124414 -0.06076116 -0.06028329 -0.05980656
 -0.05932191 -0.05883051 -0.05832771 -0.05782297 -0.05732269 -0.05683409 -0.05636521 -0.05591184 -0.05547469 -0.05504695
 -0.05462571 -0.05421299 -0.05380858 -0.05341599 -0.05303603 -0.05266549 -0.05230426 -0.05194687 -0.05159303 -0.05123828
 -0.05088144 -0.05051227 -0.05012898 -0.0497179 -0.04928043 -0.04881165 -0.04831767 -0.0478063 -0.04728453 -0.04676484
 -0.04624932 -0.04574591 -0.04524807 -0.04475536 -0.04425755 -0.0437493 -0.0432288 -0.04269279 -0.0421509 -0.04160409
 -0.0410617 -0.04052509 -0.0399975 -0.03947922 -0.03897312 -0.03847929 -0.03799994 -0.03753435 -0.0370786 -0.03663182
 -0.03618804 -0.0357477 -0.03530915 -0.03487269 -0.03443822 -0.03400566 -0.03357453 -0.03314572 -0.03272077 -0.03229723
 -0.03187534 -0.03144841 -0.03101304 -0.03056798 -0.0301112 -0.02964837 -0.02918061 -0.02870936 -0.02823524 -0.02775464
 -0.02726729 -0.02677309 -0.02627205 -0.02576494 -0.02525176 -0.02473157 -0.02420636 -0.02368253 -0.02316485 -0.02266891
 -0.02219895 -0.0217691 -0.02138338 -0.02105154 -0.02077852 -0.02057324 -0.02043385 -0.02036458 -0.02035228 -0.02039392
 -0.02047394 -0.02058826 -0.02072301 -0.02087646 -0.02103034 -0.02118276 -0.02131703 -0.02143173 -0.02152342 -0.02159211
 -0.02164009 -0.02166653 -0.02166598 -0.0216375 -0.02157331 -0.0214752 -0.02134358 -0.02118138 -0.02099409 -0.02078407
 -0.02055562 -0.02031279 -0.02005842 -0.01980222 -0.01954716 -0.0193133 -0.01910659 -0.01895351 -0.01886369 -0.01884858
 -0.01891503 -0.01904541 -0.01923953 -0.01947088 -0.0197375 -0.02002659 -0.02033764 -0.02066336 -0.02100284 -0.0213444
 -0.02168909 -0.02203425 -0.02238347 -0.02274692 -0.0231229 -0.02351513 -0.02391533 -0.02431342 -0.02470566 -0.02508249
 -0.02545162 -0.02581281 -0.02618118 -0.02656184 -0.02697021 -0.02741183 -0.02789509 -0.02842315 -0.02899518 -0.02961153
 -0.03027018 -0.03097103 -0.03171312 -0.03249584 -0.03330636 -0.03414183 -0.03497403 -0.03580075 -0.03659676 -0.03736329
 -0.03809066 -0.03878142 -0.03943588 -0.04005622 -0.04064577 -0.04120477 -0.04173604 -0.04223453 -0.04269873 -0.04312164
 -0.04349805 -0.0438313 -0.04411883 -0.04437697 -0.04460758 -0.04482811 -0.04504091 -0.04525657 -0.04547605 -0.04570427
 -0.04594135 -0.0461885 -0.04644569 -0.04671336 -0.04699152 -0.04728129 -0.047581 -0.04788747 -0.04819705 -0.04850051
 -0.04879739 -0.04908253 -0.04935888 -0.04962906 -0.0498901 -0.0501432 -0.05037739 -0.0505877 -0.05076864 -0.05091551
 -0.05103683 -0.05113218 -0.05121768 -0.05129482 -0.05137943 -0.05147286 -0.05158327 -0.05171047 -0.05184592 -0.05198716
 -0.0521102 -0.05221328 -0.05227434 -0.05229647 -0.0522752 -0.05221864 -0.05213965 -0.05204619 -0.05195547 -0.05186824
 -0.05179289 -0.0517224 -0.05165451 -0.05158401 -0.05150729 -0.05142482 -0.05133699 -0.05123994 -0.05113394 -0.05100926
 -0.05086409 -0.05069816 -0.05051091 -0.05031474 -0.05011018 -0.04990641 -0.04970353 -0.04950488 -0.0493128 -0.04913921
 -0.0489875 -0.04887585 -0.04880055 -0.04876594 -0.04875942 -0.0487664 -0.04877536 -0.04876876 -0.04874551 -0.04869822
 -0.04863459 -0.04855636 -0.04846949 -0.04837734 -0.04827715 -0.04816953 -0.04804753 -0.04791021 -0.04775431 -0.04757949
 -0.04738398 -0.04716764 -0.04692737 -0.04666393 -0.0463814 -0.04608271 -0.04578352 -0.04548591 -0.04520516 -0.04493909
 -0.04469125 -0.04445722 -0.04423271 -0.04401348 -0.04379443 -0.04357153 -0.04334056 -0.04309976 -0.04284655 -0.04258371
 -0.0423111 -0.04203335 -0.04175081 -0.04147005 -0.04119099 -0.04092762 -0.04068074 -0.04046739 -0.04028803 -0.04014606
 -0.04003916 -0.03994928 -0.03987291 -0.03978389 -0.03968137 -0.03954868 -0.0393884 -0.03919771 -0.03897946 -0.03873607
 -0.0384705 -0.03818482 -0.03788618 -0.03757817 -0.03727163 -0.03697287 -0.0366864 -0.03641685 -0.03615605 -0.03590424
 -0.03564698 -0.03538239 -0.03510034 -0.03479949 -0.0344824 -0.03414971 -0.0338219 -0.03350092 -0.03321474 -0.03296149
 -0.03275015 -0.03257136 -0.03240275 -0.03223467 -0.03203449 -0.03180391 -0.03152847 -0.03122181 -0.03089095 -0.03055051
 -0.03021302 -0.02988486 -0.02957233 -0.02927609 -0.0289966 -0.02873812 -0.02850113 -0.02829202 -0.02811305 -0.0279559
 -0.02782106 -0.0276792 -0.02752882 -0.02734108 -0.02711706 -0.0268537 -0.02655587 -0.02624507 -0.0259252 -0.02562024
 -0.02532875 -0.02506012 -0.02480934 -0.02457235 -0.0243476 -0.02413081 -0.02392569 -0.02373499 -0.0235565 -0.023393
 -0.02322957 -0.02306284 -0.02287839 -0.02267152 -0.02244066 -0.02218428 -0.02190928 -0.02161566 -0.02131735 -0.02101527
 -0.02073263 -0.02046943 -0.02023763 -0.02003151 -0.01982951 -0.01962554 -0.01938577 -0.01911677 -0.01881276 -0.01848993
 -0.01817051 -0.01786226 -0.017584 -0.01732888 -0.0170977 -0.01688381 -0.01668204 -0.01649715 -0.01632997 -0.01618346
 -0.01606208 -0.01594424 -0.01582952 -0.01568202 -0.01549793 -0.0152699 -0.0149982 -0.01471429 -0.01441968 -0.01414193
 -0.0138784 -0.01362845 -0.0133921 -0.01316787 -0.0129602 -0.01278046 -0.01262495 -0.012495 -0.01238109 -0.01227148
 -0.01216782 -0.01206747 -0.01197412 -0.01189331 -0.01180962 -0.01172022 -0.01160823 -0.0114662 -0.01130501 -0.01112409
 -0.01094426 -0.01076795 -0.01059357 -0.01042088 -0.01023442 -0.01003437 -0.009815983 -0.009581842 -0.009342206 -0.00909978
 -0.00886955 -0.008650037 -0.008447763 -0.008253981 -0.008059476 -0.007854802 -0.007625086 -0.007370692 -0.007085584 -0.00677824
 -0.006449461 -0.006112895 -0.005770745 -0.005443996 -0.005137952 -0.004864767 -0.004629681 -0.004413067 -0.004214543 -0.004001676
 -0.003773084 -0.003519015 -0.003240704 -0.002947591 -0.00264076 -0.002329431 -0.002015595 -0.001709225 -0.001414371 -0.001144732
 -0.0009024165 -0.000696703 -0.0005272108 -0.0003976192 -0.0003046539 -0.0002500522 -0.0002207236 -0.0002131265 -0.000208487 -0.0001993146
 -0.0001765629 -0.0001368195 -7.701304E-05 3.070909E-06 0.0001114722 0.0002494692 0.0004126775 0.0006006135 0.0007868916 0.0009710463
 0.001137957 0.001290651 0.001438772 0.001582244 0.001725988 0.001867835 0.002002734 0.002135951 0.002273339 0.00241922
 0.002580828 0.002758724 0.002948432 0.003174515 0.003442245 0.003793018 0.004256709 0.004788785 0.005397486 0.005961003
 0.006455119 0.006866388 0.007188574 0.007477141 0.007734442 0.007981409 0.008217026 0.008436333 0.008638876 0.008822694
 0.008983498 0.009108566 0.009188748 0.009195025 0.009128402 0.008973949 0.008746565 0.008453941 0.008116215 0.007746264
 0.007371362 0.007005766 0.006676144 0.006396493 0.006172469 0.006009562 0.005897213 0.005834907 0.005812567 0.005830151
 0.005866329 0.005919792 0.005952786 0.005964562 0.005933142 0.005862175 0.005760521 0.005631049 0.00548791 0.005331561
 0.00516785 0.005001423 0.004841768 0.004692757 0.004564087 0.004451122 0.004353336 0.004266859 0.004190645 0.004118153
 0.004048695 0.003968835 0.003871335 0.003771151 0.003665852 0.003601477 0.00358338 0.003620224 0.003712358 0.003819502
 0.003941491 0.004063753 0.004190554 0.004341092 0.004513246 0.004709145 0.004925966 0.005155837 0.005403663 0.005676271
 0.005970664 0.006289884 0.006618991 0.006947802 0.007265856 0.007567378 0.007838505 0.008076007 0.008257485 0.008372392
 0.008434014 0.008437387 0.00844334 0.008457527 0.008515279 0.008618463 0.00874359 0.008889748 0.009038391 0.009192453
 0.009363599 0.009546954 0.009734345 0.009913998 0.01005133 0.01014785 0.01018732 0.01018427 0.01014735 0.01009208
 0.0100306 0.009980246 0.009954344 0.009957924 0.01000209 0.01005717 0.01012111 0.01015292 0.01014365 0.01008596
 0.009976091 0.009847136 0.009700806 0.0095899 0.009516088 0.009518768 0.009590574 0.009713363 0.00987135 0.009995801
 0.01008665 0.01010272 0.01006856 0.01000666 0.009933787 0.009884051 0.009844275 0.009818712 0.009781928 0.009721505
 0.009620669 0.009467332 0.009268225 0.009017525 0.008754007 0.008482041 0.008237926 0.008028089 0.007835581 0.00765973
 0.007454401 0.007220093 0.00695098 0.006652556 0.006355213 0.006060586 0.005788258 0.005541163 0.005332908 0.00517262
 0.005086184 0.005064832 0.00511842 0.005206773 0.005304074 0.005374337 0.00538285 0.005344519 0.005247166 0.005154477
 0.005080365 0.005068334 0.005135827 0.005237566 0.005374472 0.005450143 0.005459156</values></Ydata></AB><ScSm><Ydata ylabel="Single channel"><values byteorder="INTEL" format="FLOAT32" numvalues="1814"> 0.07124361 0.07124215 0.07130367 0.07145103 0.07165675 0.07185757 0.0719998 0.07207389 0.07209587 0.0720682
 0.07199483 0.07193202 0.07197322 0.07215741 0.07241288 0.07260534 0.07264372 0.07255927 0.07248919 0.07254525
 0.07266945 0.0726476 0.07231088 0.07172912 0.07116841 0.07084339 0.07077827 0.07096012 0.07147498 0.07226356
 0.07284176 0.07264689 0.07174709 0.07087169 0.0706003 0.07080603 0.07100014 0.0708977 0.07050553 0.07000692
 0.06980577 0.07041734 0.07195936 0.07373445 0.07448205 0.07317368 0.06974708 0.06533629 0.06185476 0.06097256
 0.06293993 0.06624816 0.06876045 0.06941512 0.06873398 0.06774568 0.06687947 0.06609581 0.06559782 0.06586683
 0.06699726 0.06825059 0.06843836 0.06693963 0.06444236 0.0624543 0.06192905 0.06267045 0.06413946 0.06603695
 0.06749045 0.06659383 0.06228524 0.05671579 0.05428459 0.0574557 0.0641287 0.0696934 0.07112825 0.06868871
 0.06456721 0.06108005 0.05979375 0.06110057 0.0641499 0.06755519 0.07023317 0.07145162 0.0706441 0.0679037
 0.06446561 0.06210928 0.06206651 0.0645375 0.06864719 0.07252717 0.07416779 0.07290182 0.06984469 0.06671585
 0.06470957 0.064503 0.06642321 0.07010624 0.07447374 0.07835788 0.08097751 0.08201905 0.08170597 0.08066096
 0.07943424 0.07840267 0.07808729 0.07883369 0.07996812 0.0800584 0.07847123 0.07622232 0.07493399 0.07516193
 0.07595468 0.07600911 0.0749883 0.07330894 0.07085171 0.06693301 0.06187169 0.05741174 0.05497793 0.05458727
 0.05588546 0.05870473 0.06184626 0.06301154 0.06132338 0.0589274 0.05886211 0.06181639 0.06578176 0.06850286
 0.06956138 0.07020745 0.07175104 0.07422365 0.07621264 0.07592441 0.07296458 0.06933851 0.06803252 0.07008176
 0.0735774 0.07601587 0.0769373 0.07764138 0.07891223 0.07979856 0.07860468 0.07490616 0.07062878 0.0688585
 0.07115408 0.07598503 0.07984135 0.07983086 0.07562664 0.06953764 0.06470794 0.06294152 0.06422147 0.06790885
 0.073441 0.07970655 0.08476141 0.08691753 0.08597161 0.08310539 0.07954013 0.0754109 0.07040629 0.06564075
 0.06388476 0.06694651 0.07335855 0.07959957 0.08323392 0.08412539 0.08307303 0.08031569 0.07575609 0.07039721
 0.06680875 0.06713324 0.07050455 0.07354006 0.07388014 0.07233852 0.07115874 0.07121715 0.07169825 0.07181893
 0.07194257 0.0729538 0.07498984 0.07710867 0.0782046 0.07801624 0.07716524 0.07643511 0.07606609 0.07558584
 0.07447311 0.07318842 0.07312717 0.07508946 0.07817769 0.08071797 0.08193894 0.08225308 0.08214411 0.08131722
 0.07913449 0.07582957 0.07299993 0.07242447 0.07434493 0.07731621 0.07970718 0.08087011 0.0809886 0.08049319
 0.07976864 0.07902235 0.07834589 0.07798865 0.07829904 0.0792246 0.08019611 0.08070276 0.08071269 0.08041315
 0.0798451 0.07897978 0.07798088 0.07721079 0.07697111 0.07727826 0.07790213 0.07857309 0.07907868 0.07923036
 0.07893241 0.07832059 0.07767913 0.07718292 0.07683863 0.07666078 0.07672982 0.07703455 0.07739533 0.07761474
 0.07763583 0.07751608 0.07731076 0.07703205 0.0766945 0.07636364 0.07615032 0.07613318 0.07626623 0.07640568
 0.07646994 0.07651912 0.07661614 0.07667859 0.07656603 0.07627665 0.07596348 0.07576929 0.07571217 0.07572007
 0.07570745 0.07559487 0.07530926 0.07484584 0.07434838 0.07405584 0.07411286 0.07446343 0.07494138 0.07539425
 0.07570764 0.07581961 0.07576846 0.07565828 0.0755403 0.07537693 0.07513627 0.07487881 0.07473594 0.07480928
 0.07507871 0.07541075 0.07566826 0.07579707 0.07581586 0.07578333 0.07578191 0.07585701 0.07594829 0.07594535
 0.07582927 0.07570521 0.07568054 0.07574989 0.0758131 0.07578945 0.07570558 0.07566494 0.07573363 0.07587905
 0.07602622 0.07614174 0.07624456 0.07635162 0.07643017 0.07641345 0.07627903 0.07609929 0.07597848 0.07594655
 0.07595906 0.07599244 0.07607888 0.076235 0.07640553 0.07650934 0.07652508 0.07650794 0.07651809 0.07654775
 0.076536 0.07644992 0.07632733 0.07623558 0.07620749 0.07622422 0.07624452 0.07624029 0.07620963 0.07616384
 0.07610848 0.07603769 0.0759434 0.07583259 0.07574195 0.07572342 0.07579157 0.07588422 0.07589935 0.07578646
 0.07559508 0.07542501 0.07533064 0.07528006 0.07520573 0.07508156 0.07494016 0.07482603 0.07475331 0.07470663
 0.07466196 0.0746043 0.07454589 0.07453388 0.07461612 0.07478043 0.07494268 0.07501794 0.07500006 0.07495555
 0.07494884 0.0749932 0.07506564 0.07514501 0.07523367 0.0753513 0.07550117 0.07564348 0.07572744 0.0757558
 0.07578937 0.07588205 0.0760399 0.07624161 0.07645747 0.07664347 0.07676302 0.07683226 0.07691163 0.07703705
 0.07718642 0.07732647 0.07746461 0.07763215 0.07783452 0.0780469 0.0782567 0.0784858 0.07876187 0.0790787
 0.07939312 0.07965912 0.07986826 0.08006353 0.08031107 0.08064732 0.08104773 0.08144777 0.08179685 0.0820949
 0.08237714 0.08266723 0.08295852 0.08324739 0.0835637 0.08394197 0.08437227 0.08480708 0.08521436 0.08560082
 0.08598566 0.08637438 0.08676327 0.08715574 0.08756553 0.08800294 0.08845526 0.08888651 0.08926602 0.08959703
 0.0899135 0.0902539 0.09063838 0.0910525 0.09144451 0.0917616 0.09200971 0.09226011 0.0925725 0.09292558
 0.09325279 0.09353764 0.09383642 0.09420091 0.09461197 0.09500784 0.09535722 0.09568252 0.09601782 0.09636167
 0.09667407 0.09691697 0.09709719 0.09726468 0.09746717 0.09771872 0.09801871 0.09837615 0.09878924 0.0992173
 0.09960298 0.09991658 0.1001617 0.100356 0.1005291 0.1007196 0.1009454 0.101188 0.1014207 0.101631
 0.1018097 0.1019513 0.1020846 0.1022657 0.1025193 0.1028176 0.1031351 0.1034863 0.1038841 0.1042936
 0.1046717 0.1050361 0.1054444 0.1058999 0.1063214 0.1066295 0.1068285 0.106979 0.1071252 0.1072883
 0.1075041 0.1078129 0.1082107 0.1086467 0.1090744 0.1094818 0.1098722 0.1102382 0.1105599 0.1108207
 0.1110203 0.1111758 0.111315 0.1114714 0.1116765 0.111942 0.1122383 0.1125068 0.1126983 0.1127928
 0.1127807 0.1126552 0.1124419 0.1122121 0.1120277 0.1118678 0.1116374 0.1112509 0.1106917 0.1099902
 0.1091748 0.1082634 0.1072909 0.1063264 0.1054584 0.1047655 0.1043021 0.1041073 0.1042116 0.1046121
 0.1052368 0.1059495 0.1066018 0.1070721 0.1072616 0.1070955 0.1065626 0.1057418 0.1047663 0.1037595
 0.1028012 0.1019258 0.1011295 0.1003989 0.09976709 0.09934595 0.09929235 0.09974264 0.1007735 0.1023854
 0.104478 0.106836 0.1091835 0.1112965 0.1130863 0.1145862 0.115878 0.1170409 0.118138 0.1192007
 0.1202131 0.1211348 0.1219512 0.1226851 0.1233592 0.1239655 0.124475 0.1248637 0.1251296 0.1252977
 0.1254038 0.1254698 0.1255018 0.1255168 0.1255497 0.1256177 0.1256844 0.125672 0.125507 0.1251598
 0.1246646 0.1241362 0.1237852 0.1238931 0.124711 0.1263178 0.1285457 0.1310549 0.1334965 0.1356327
 0.1373607 0.1386855 0.1396878 0.1404821 0.1411695 0.141812 0.1424352 0.1430424 0.143628 0.1441874
 0.1447219 0.145238 0.1457487 0.1462677 0.1467942 0.1473079 0.1477912 0.1482552 0.1487335 0.1492472
 0.1497797 0.1502922 0.1507669 0.1512273 0.1517046 0.1521912 0.1526462 0.1530479 0.1534207 0.1538084
 0.1542388 0.154711 0.1551971 0.155654 0.1560539 0.1564081 0.1567536 0.1571162 0.1574948 0.1578763
 0.1582552 0.1586345 0.159018 0.1594096 0.1598149 0.1602322 0.1606384 0.1609985 0.161301 0.1615768
 0.1618714 0.1622027 0.1625528 0.1628956 0.1632261 0.1635652 0.1639401 0.1643533 0.1647722 0.1651542
 0.1654835 0.1657818 0.1660838 0.1664094 0.1667574 0.1671156 0.1674704 0.1678128 0.1681457 0.168483
 0.1688371 0.1692041 0.1695673 0.1699139 0.1702451 0.1705727 0.1709088 0.1712582 0.17162 0.1719952
 0.1723902 0.1728036 0.1732129 0.1735842 0.1738985 0.1741668 0.17442 0.1746878 0.1749844 0.1753067
 0.1756441 0.1759898 0.1763432 0.1767016 0.1770562 0.1773986 0.1777281 0.1780524 0.1783803 0.1787158
 0.1790611 0.1794215 0.1798011 0.1801921 0.1805749 0.1809322 0.1812633 0.181582 0.1819046 0.1822374
 0.1825752 0.1829098 0.1832399 0.1835694 0.1838996 0.1842276 0.1845521 0.1848752 0.1851991 0.1855258
 0.1858576 0.1861956 0.1865391 0.1868854 0.1872308 0.1875731 0.1879116 0.1882447 0.18857 0.1888888
 0.1892071 0.1895292 0.1898563 0.1901909 0.1905344 0.1908809 0.1912222 0.1915572 0.1918898 0.1922218
 0.1925522 0.1928816 0.1932127 0.1935491 0.1938912 0.1942335 0.1945674 0.1948898 0.1952072 0.1955304
 0.1958691 0.1962244 0.1965855 0.1969387 0.1972806 0.1976181 0.1979578 0.1983034 0.1986561 0.1990128
 0.1993667 0.1997149 0.2000585 0.2003976 0.2007303 0.2010548 0.2013692 0.2016761 0.2019858 0.2023069
 0.202635 0.2029612 0.2032828 0.2036019 0.2039212 0.2042446 0.2045741 0.2049069 0.2052417 0.2055806
 0.205923 0.2062654 0.2066077 0.2069497 0.2072872 0.2076212 0.2079596 0.2083052 0.2086538 0.2090042
 0.2093568 0.2097082 0.210056 0.2104031 0.2107516 0.211103 0.2114626 0.211831 0.2121983 0.2125544
 0.2128947 0.2132177 0.2135306 0.2138515 0.2141892 0.2145324 0.2148708 0.2152078 0.2155474 0.2158885
 0.216231 0.216571 0.2169025 0.2172314 0.217572 0.2179259 0.2182838 0.2186409 0.218992 0.2193282
 0.2196527 0.2199793 0.2203126 0.22065 0.2209958 0.22135 0.221703 0.2220498 0.2223869 0.22269
 0.2229025 0.2228872 0.2222973 0.2204378 0.2162531 0.208542 0.1964396 0.1799682 0.1602207 0.1389669
 0.1179987 0.09866953 0.08177429 0.0676634 0.05641714 0.04795124 0.04208296 0.0386521 0.03764945 0.03934326
 0.04441747 0.05356898 0.06597201 0.07791011 0.08421901 0.08236632 0.07487585 0.06702721 0.06247007 0.06146332
 0.06244751 0.06408761 0.06595704 0.06829607 0.07152149 0.07575284 0.08079329 0.08663985 0.09372807 0.1023782
 0.1121366 0.1219664 0.1311414 0.1398166 0.1486731 0.1580957 0.1677651 0.1769716 0.1851823 0.1923038
 0.1985604 0.2042442 0.2095541 0.2145846 0.2193855 0.2239552 0.2281365 0.2315746 0.2338876 0.2349568
 0.2350675 0.2347479 0.234454 0.2343911 0.234574 0.2349685 0.2355509 0.236301 0.2371948 0.238202
 0.2392815 0.2403902 0.2414962 0.2425748 0.2436032 0.2445689 0.2454704 0.2463053 0.2470692 0.247765
 0.2484027 0.2489923 0.249545 0.2500719 0.2505774 0.2510633 0.2515343 0.2519916 0.2524269 0.2528306
 0.2532004 0.2535386 0.2538515 0.2541527 0.2544587 0.2547765 0.2550999 0.2554192 0.255731 0.2560402
 0.2563527 0.2566658 0.2569722 0.2572722 0.2575735 0.2578783 0.2581802 0.2584761 0.2587712 0.2590706
 0.2593746 0.2596811 0.2599856 0.2602843 0.2605793 0.260878 0.2611827 0.2614876 0.2617844 0.2620685
 0.2623455 0.2626323 0.2629436 0.2632761 0.2636158 0.263956 0.2642958 0.2646311 0.2649601 0.2652884
 0.2656123 0.2659103 0.2661659 0.2663946 0.2666408 0.2669405 0.2672871 0.2676355 0.2679499 0.2682368
 0.2685231 0.2688189 0.2691124 0.2693889 0.2696502 0.2699269 0.2702584 0.270646 0.2710485 0.2714338
 0.2718035 0.2721622 0.2725052 0.2728398 0.2731735 0.2734781 0.2737163 0.2739098 0.2741507 0.2745276
 0.2750388 0.2755832 0.2760499 0.2764151 0.2767373 0.2770816 0.2774767 0.2778904 0.2782045 0.2782965
 0.2782292 0.2782798 0.2786841 0.2793983 0.2801779 0.2808315 0.2813369 0.2817635 0.2821586 0.2825028
 0.2827348 0.2828183 0.2828206 0.2829319 0.2833395 0.2840343 0.2847949 0.2854114 0.2858537 0.2861931
 0.2864814 0.2867437 0.2869346 0.2868691 0.2864148 0.2858393 0.285743 0.2864763 0.2877415 0.2889126
 0.2896595 0.2901153 0.2905133 0.2908998 0.2912129 0.2913416 0.2909797 0.2897983 0.2880917 0.2869582
 0.2873891 0.2892668 0.2915522 0.2933196 0.2943422 0.2948641 0.2951928 0.2954901 0.2956488 0.2953153
 0.294283 0.2929968 0.2924331 0.2931995 0.2948543 0.2963799 0.2972199 0.297572 0.2978424 0.2981883
 0.2984156 0.2979331 0.2960895 0.2931384 0.2907243 0.290729 0.293434 0.2971798 0.3000085 0.3013456
 0.3018468 0.301958 0.3012545 0.2992083 0.2959887 0.2923821 0.2895465 0.2888603 0.2910129 0.2948526
 0.2980353 0.2993348 0.2996802 0.3006155 0.3024538 0.304287 0.3051744 0.3048736 0.3036738 0.3018792
 0.2996653 0.2975587 0.2967266 0.2981507 0.3014328 0.3049346 0.3072919 0.3084514 0.3089539 0.308334
 0.3048021 0.2973975 0.2886754 0.2839966 0.2867942 0.2949807 0.3031871 0.308039 0.3100066 0.3108873
 0.311403 0.3109898 0.3081297 0.3011931 0.2910078 0.2824514 0.2811431 0.2878874 0.2977649 0.3047238
 0.3056983 0.3009265 0.2928583 0.2854244 0.2824334 0.2852645 0.2922664 0.3003878 0.3070062 0.3106443
 0.3109607 0.3086125 0.3052022 0.302882 0.3027994 0.3034029 0.3016193 0.2967349 0.2915836 0.2883819
 0.2852949 0.2798265 0.2742923 0.2742792 0.2813818 0.2905393 0.2957252 0.2960541 0.2946886 0.293092
 0.2885401 0.2780581 0.2640565 0.2544185 0.2555946 0.2659109 0.2770701 0.2822699 0.2816032 0.2796146
 0.2792318 0.2787886 0.274391 0.2650041 0.2549961 0.2504666 0.2527737 0.2573254 0.2590206 0.2563367
 0.2495392 0.2389995 0.228077 0.2241858 0.2325271 0.2497019 0.266387 0.2750257 0.2725953 0.2589168
 0.2376481 0.2184164 0.212136 0.2212562 0.2367913 0.2465903 0.2449888 0.2338111 0.217131 0.1984577
 0.1823276 0.1748311 0.1799477 0.1954823 0.2132219 0.2230884 0.2187068 0.2022983 0.1849659 0.1787064
 0.1855808 0.1963688 0.2009158 0.1973298 0.1905264 0.1858254 0.185846 0.190164 0.1958072 0.199995
 0.2023488 0.201907 0.1941687 0.1765514 0.1557442 0.1433305 0.1437378 0.1519499 0.1628068 0.1756203
 0.1881846 0.1936176 0.1881497 0.178325 0.1754481 0.1835851 0.1960665 0.2036158 0.2035147 0.2000986
 0.1980144 0.1972249 0.1953641 0.1931764 0.194715 0.2017501 0.2106833 0.2165665 0.218262 0.2180063
 0.2176264 0.2171695 0.2161813 0.2145117 0.2122178 0.2096917 0.2075526 0.2059365 0.2043735 0.2025103
 0.2000789 0.1958438 0.1879132 0.176478 0.1654951 0.1596005 0.1592602 0.1610647 0.1627699 0.164627
 0.1647145 0.1575953 0.1415131 0.1243056 0.1177107 0.12604 0.1429722 0.158713 0.1674084 0.1676122
 0.1594496 0.145088 0.1313997 0.1277809 0.138438 0.1583447 0.1786621 0.1943492 0.2046504 0.2088782
 0.2057051 0.1964406 0.1862726 0.1813258 0.1849867 0.1963875 0.2105944 0.2197758 0.2170425 0.203372
 0.1907813 0.1934307 0.2126327 0.2345116 0.2455886 0.2464777 0.2462908 0.2485056 0.2492806 0.2474929
 0.2487168 0.2575397 0.2707568 0.2805094 0.2811854 0.2716302 0.2543551 0.2360196 0.2257131 0.2277518
 0.2368713 0.2440106 0.2450972 0.2405397 0.2298862 0.2140392 0.2009151 0.2006753 0.2139256 0.2303436
 0.2404244 0.2441427 0.2466654 0.2494747 0.2486185 0.240743 0.2286756 0.2196726 0.2182241 0.2221069
 0.2261202 0.2275669 0.2263459 0.2218897 0.2135038 0.2036714 0.198067 0.200671 0.2097176 0.2194167
 0.2251931 0.226581 0.2257851 0.2248687 0.2243661 0.2235044 0.2216525 0.2201898 0.2222272 0.2291788
 0.2383316 0.2455488 0.2499802 0.2543339 0.2606233 0.2673567 0.2713213 0.2711014 0.2684813 0.2669513
 0.2689291 0.273821 0.2784448 0.2797316 0.2776262 0.2753859 0.2765685 0.2816355 0.2878998 0.2925808
 0.295077 0.2963737 0.2973968 0.2982365 0.2981112 0.2959772 0.2920641 0.2887934 0.2890899 0.2934862
 0.2995961 0.3045391 0.307226 0.3082466 0.3083637 0.3076788 0.3060492 0.3038261 0.3018935 0.3009973
 0.301219 0.3021332 0.3032708 0.3043339 0.305181 0.3058053 0.3062848 0.3066742 0.3069836 0.3072479
 0.307512 0.3077357 0.3078327 0.3078424 0.3079593 0.3083111 0.3087803 0.3091165 0.3091555 0.3088353
 0.3080737 0.3067947 0.3050762 0.3031208 0.3010324 0.2987543 0.2963542 0.2943231 0.2934276 0.2941445
 0.29623 0.2988728 0.3012539 0.3029616 0.3039884 0.3045093 0.3047211 0.304787 0.3048129 0.3048328
 0.3048308 0.3047882 0.3047088 0.3046021 0.3044652 0.3043031 0.3041542 0.304067 0.3040416 0.3040137
 0.3038972 0.3036427 0.3032632 0.3028169 0.3023563 0.3018772 0.3013116 0.3005791 0.2996536 0.2985912
 0.2974987 0.2964685 0.2955266 0.2946259 0.2936886 0.292653 0.2914727 0.2900916 0.2884766 0.2866997
 0.2849383 0.283344 0.2819249 0.280575 0.2791824 0.2776873 0.2760758 0.2743658 0.2725929 0.2707899
 0.2689736 0.267144 0.2652875 0.2633821 0.2614104 0.2593647 0.2572465 0.2550666 0.2528431 0.2505828
 0.2482541 0.2457732 0.2430202 0.2398714 0.2362182 0.2319741 0.2271048 0.2216787 0.2158788 0.209949
 0.2041217 0.1985782 0.1934462 0.1888201 0.1847862 0.1814246 0.1787925 0.1769167 0.1758046 0.17545
 0.1758316 0.1769131 0.1786284 0.1808616 0.1834512 0.1862152 0.1889682 0.1915451 0.1938543 0.1959239
 0.1978712 0.1998034 0.2017386 0.203616 0.2053703 0.2069733 0.2084047 0.2096246 0.2106103 0.2113948
 0.2120359 0.2125585 0.2129506 0.2132021 0.2133269 0.2133583 0.2133364 0.2133072 0.2133297 0.2134678
 0.2137571 0.2141835 0.2147107 0.2153202 0.2160138 0.2167944 0.2176575 0.218589 0.2195634 0.2205569
 0.2215679 0.2226263 0.2237888 0.2251249 0.2266897 0.2285056 0.2305631 0.2328157 0.2351627 0.2374621
 0.2395803 0.2414251 0.2429452 0.2441256 0.2449865 0.2455675 0.2459067 0.2460345 0.245982 0.2457916
 0.2455157 0.2451964 0.2448486 0.2444728 0.2440705 0.2436381 0.2431655 0.242659 0.2421409 0.2416149
 0.2410598 0.2404682 0.2398628 0.2392701 0.238702 0.2381606 0.2376359 0.2370959 0.2365014 0.235838
 0.2351273 0.2343934 0.2336168 0.2327379 0.2317127 0.2305457 0.2292568 0.2278456 0.2263091 0.2246677
 0.2229522 0.2211851 0.2193848 0.2175634 0.2157122 0.213796 0.2117646 0.209579 0.2072494 0.2048551
 0.2025072 0.2002845 0.1982057 0.1962477 0.1943777 0.1925782 0.1908517 0.1892012 0.1876197 0.186104
 0.1846611 0.183291 0.1819808 0.1807276 0.1795491 0.1784729 0.1775236 0.1767103 0.1760108 0.1753805
 0.1747886 0.174238 0.1737531 0.1733638 0.1730932 0.1729313 0.1728195 0.1726745 0.1724372 0.1721054
 0.1717268 0.1713594 0.1710377 0.17077 0.170544 0.1703114 0.1699813 0.1694508 0.168639 0.1674958
 0.1660088 0.1642152 0.1621966 0.1600622 0.1579447 0.1559829 0.1542794 0.1528792 0.151779 0.1509299
 0.1502452 0.1496519 0.1491444 0.148779 0.1486164 0.1486525 0.1487761 0.148821 0.1487153 0.1485672
 0.1485688 0.1488312 0.1493241 0.1499287 0.1505224 0.1510331 0.1514338 0.1516982 0.151806 0.1517847
 0.1516891 0.1515314 0.1512817 0.1509313 0.1505105 0.1500531 0.1495709 0.149047 0.1484473 0.1477568
 0.1469935 0.1461712 0.1452757 0.1442795 0.1431459 0.1418501 0.1404636 0.1392032 0.1383397 0.13805
 0.1383354 0.1390308 0.1399135 0.1408455 0.1417472 0.1424222 0.142611 0.1423873 0.1423611 0.1432368
 0.145135 0.1474629 0.149455 0.1507202 0.1512608 0.1511801 0.1505536 0.1494597 0.1479285 0.1459067
 0.1433931 0.1405191 0.137434 0.134257 0.1311706 0.12839 0.126032 0.1241117 0.1226044 0.1215383
 0.1210469 0.1207558 0.1187705 0.1126818 0.1032839 0.09621529 0.09721515 0.1056673 0.1150342 0.1197717
 0.119749 0.1179408 0.1163936 0.1154224 0.1149318 0.1150634 0.1159326 0.1173729 0.118956 0.120237
 0.1210366 0.1214102 0.1213402 0.1204986 0.1181921 0.1135879 0.1063798 0.09740469 0.08837396 0.08086722
 0.07561417 0.07250665 0.07093941 0.07016951 0.06968421 0.06942811 0.06968927 0.07075199 0.07265445 0.07524168
 0.07832953 0.08168139 0.08489551 0.08756034 0.08957681 0.09115109 0.09244388 0.09339073 0.09386392 0.09384315
 0.09341423 0.09271859 0.09191032 0.0910798 0.09019334 0.0891436 0.08791484 0.08671258 0.08585312 0.08547041
 0.08540499 0.08541867 0.08541113 0.08539306 0.08537781 0.08535815 0.08532279 0.08529415 0.08537424 0.08567642
 0.08616948 0.08666906 0.08701098 0.08717915 0.08726546 0.087319 0.08721426 0.08675237 0.08598694 0.08528268
 0.08484619 0.08437681 0.08347215 0.08225906 0.08132207 0.08105103 0.08129362 0.08162285 0.08173807 0.08159281
 0.08133754 0.08125007 0.08157182 0.08222556</values></Ydata></ScSm><ScRf><Ydata ylabel="Single channel"><values byteorder="INTEL" format="FLOAT32" numvalues="1820"> 0.06075656 0.06091108 0.06099609 0.06101795 0.06100792 0.06101353 0.06108087 0.0612274 0.0614264 0.06161952
 0.0617552 0.06182162 0.0618351 0.06180399 0.06173491 0.06167533 0.06170489 0.06185807 0.06207407 0.06223856
 0.06227564 0.06221446 0.06217206 0.06223948 0.06236018 0.06234714 0.0620594 0.06156338 0.06108829 0.06081377
 0.06075842 0.06091523 0.06136294 0.06204955 0.06255107 0.06237507 0.06157918 0.06080048 0.06055123 0.06072979
 0.06091298 0.06084479 0.06051869 0.06008849 0.05991182 0.06044621 0.06179496 0.0633455 0.06399968 0.06286924
 0.05990639 0.05609498 0.05308711 0.0523228 0.0540184 0.05687328 0.05904181 0.05960523 0.05901799 0.05817781
 0.05745723 0.05680854 0.05638944 0.05661192 0.05757026 0.05864152 0.05880365 0.05751621 0.05536914 0.05366185
 0.05321229 0.05384494 0.05509663 0.05672138 0.05797624 0.05721307 0.05350314 0.04869555 0.04659314 0.04933582
 0.05511525 0.05994108 0.06118985 0.05907986 0.05551575 0.05250787 0.05140644 0.05253987 0.05516835 0.05809928
 0.06040578 0.06145935 0.06076804 0.05840774 0.05544332 0.05341243 0.05338032 0.05552094 0.05907897 0.06243977
 0.06386368 0.06276906 0.06011821 0.05740304 0.05566482 0.05549236 0.05716451 0.06036118 0.06414647 0.06750812
 0.0697708 0.0706692 0.07040595 0.06952338 0.06849055 0.06762071 0.06735641 0.06799843 0.06897232 0.06904597
 0.06767336 0.06573148 0.06462122 0.06482083 0.06550553 0.0655478 0.06465701 0.06319454 0.06105773 0.05765636
 0.05326923 0.04940843 0.04730844 0.0469852 0.04813432 0.05060974 0.05336468 0.05439582 0.05293736 0.05085339
 0.05078722 0.05334188 0.05677439 0.05912574 0.0600365 0.06059974 0.0619553 0.06412439 0.06587227 0.06563719
 0.06307533 0.05993025 0.0588017 0.06059296 0.06364164 0.06576665 0.06657201 0.06719919 0.06833667 0.06915132
 0.0681562 0.06497636 0.06129086 0.05978786 0.06181887 0.06604657 0.06941861 0.06942444 0.06578392 0.06051017
 0.05634195 0.05484686 0.05600852 0.05928005 0.064186 0.06976011 0.07429227 0.07628708 0.07554919 0.07310756
 0.07003894 0.06646737 0.06211863 0.05797969 0.05651084 0.05932145 0.06510948 0.07074587 0.0740688 0.07496299
 0.07413876 0.07179411 0.06782257 0.06311794 0.06000085 0.06041288 0.06357493 0.06642892 0.06684051 0.06554839
 0.0645898 0.06476449 0.06533224 0.06557614 0.06582461 0.06689021 0.06890834 0.07102108 0.07220593 0.07220545
 0.07158102 0.07105786 0.07086045 0.07054505 0.06962904 0.06856145 0.0686633 0.07067864 0.07374835 0.07629132
 0.0775876 0.07803845 0.07810593 0.0774984 0.07558849 0.07258983 0.07003973 0.06965944 0.07169001 0.0747404
 0.07723313 0.07853897 0.07883461 0.07853404 0.0780053 0.07745276 0.07697961 0.07683869 0.07736234 0.07848211
 0.07963184 0.08031464 0.08050422 0.08038007 0.0799745 0.07926364 0.0784276 0.0778387 0.07779256 0.07829452
 0.07911135 0.07997742 0.0806815 0.08102612 0.08090021 0.08043425 0.07992807 0.07957926 0.07940239 0.07940523
 0.07966159 0.0801577 0.0807099 0.08111483 0.08131089 0.08135313 0.08129726 0.08115838 0.08095384 0.08075419
 0.08067915 0.08081026 0.08109079 0.08136721 0.08156902 0.08177707 0.08205348 0.08228748 0.08231223 0.0821292
 0.08191704 0.0818359 0.0818979 0.08201854 0.08211209 0.08210417 0.08191718 0.08154111 0.08113065 0.0809451
 0.08113882 0.08165164 0.08230802 0.08294098 0.08341628 0.08365873 0.08370999 0.08368486 0.0836374 0.08352613
 0.08332272 0.08310598 0.08303194 0.08321676 0.08363433 0.08412664 0.08452688 0.08476317 0.08485907 0.08489744
 0.08498549 0.08517083 0.0853672 0.08543557 0.08535995 0.08527961 0.08532488 0.0854696 0.08557117 0.0855362
 0.08542627 0.08539353 0.08552019 0.0857464 0.08595948 0.08612068 0.08628152 0.0864888 0.08669344 0.08677329
 0.08666563 0.08645811 0.08630362 0.08625971 0.08627275 0.08631012 0.08641997 0.08663096 0.08686328 0.08699714
 0.08700611 0.08697809 0.08700274 0.08706874 0.08708724 0.08699813 0.08683053 0.08666866 0.08658332 0.08659437
 0.08667019 0.08674778 0.08676777 0.08670968 0.08659917 0.08648002 0.08638312 0.08633044 0.08635953 0.08650989
 0.0867579 0.08698036 0.08702655 0.08685256 0.08657471 0.08636971 0.08631567 0.08633597 0.08629443 0.08612794
 0.08588217 0.08564276 0.08545787 0.08532277 0.08521184 0.08511464 0.08505389 0.08507566 0.08520123 0.08536954
 0.08544829 0.08534142 0.08508529 0.08481307 0.08463184 0.08455756 0.08454565 0.08454397 0.0845307 0.0845338
 0.0845938 0.08468761 0.08472782 0.08466569 0.08455599 0.08449987 0.08456153 0.08474417 0.08498571 0.08516659
 0.08518727 0.08506852 0.08493637 0.08489388 0.08494157 0.08502451 0.08510986 0.0851974 0.085289 0.08538325
 0.08549511 0.08565681 0.08588755 0.08616443 0.08642657 0.08661506 0.08672233 0.08680911 0.08696286 0.08722571
 0.08755933 0.08788032 0.088128 0.08830408 0.08845489 0.08861931 0.08880048 0.08899362 0.08922141 0.08951198
 0.08985001 0.09018359 0.0904815 0.09075694 0.09103485 0.09132224 0.09161559 0.09192426 0.09227778 0.09269851
 0.09315322 0.09354757 0.09380066 0.0939277 0.09403282 0.09422654 0.09455195 0.09495575 0.09531109 0.0955116
 0.09558058 0.09565866 0.09585153 0.09612314 0.09637652 0.09660307 0.09689291 0.09730347 0.09776878 0.09815878
 0.09840658 0.09856101 0.09871955 0.09892096 0.09911397 0.09923435 0.09929393 0.09936699 0.09949872 0.09967317
 0.09988169 0.1001683 0.1005648 0.1010151 0.1014111 0.1016926 0.1018771 0.102011 0.1021235 0.1022167
 0.1022753 0.1022953 0.1023118 0.1023723 0.1024725 0.102554 0.1025846 0.1026057 0.1026798 0.102828
 0.103042 0.1033187 0.1036433 0.1039645 0.10424 0.1045008 0.1048184 0.1051912 0.1055119 0.1056824
 0.1057269 0.1057432 0.1057797 0.1058207 0.105877 0.1060126 0.1062655 0.1065976 0.1069441 0.107279
 0.1076133 0.107952 0.1082682 0.1085091 0.1086285 0.1086286 0.1085755 0.1085672 0.1086784 0.1089214
 0.1092457 0.1095741 0.1098493 0.110045 0.1101426 0.1101309 0.1100517 0.1100135 0.1101088 0.11031
 0.1104777 0.11048 0.1102802 0.1099107 0.109404 0.1087804 0.1080869 0.1074104 0.1068399 0.1064267
 0.1061903 0.1061559 0.1063644 0.1068272 0.1074766 0.1081857 0.1088413 0.1093701 0.1096958 0.1097246
 0.1094124 0.1088227 0.1080889 0.107332 0.1066254 0.1059934 0.1054095 0.1048344 0.1043024 0.1039645
 0.1040165 0.1045783 0.1056344 0.1070456 0.1085953 0.1100581 0.1112859 0.1122588 0.1130549 0.1137651
 0.1144379 0.1150945 0.1157593 0.1164403 0.1170958 0.1176653 0.1181369 0.1185537 0.1189547 0.1193369
 0.1196755 0.1199542 0.1201807 0.1203883 0.1206057 0.1208085 0.1209251 0.1209136 0.1208101 0.1206809
 0.1205479 0.1203763 0.1201173 0.1197499 0.1193111 0.1189169 0.1187467 0.1189708 0.119654 0.1207146
 0.1219835 0.123308 0.1245917 0.1257525 0.1266972 0.1273702 0.1278066 0.1281054 0.1283588 0.1286166
 0.1288961 0.1291972 0.1295088 0.1298151 0.1301057 0.130386 0.1306805 0.1310131 0.1313713 0.1317042
 0.1319725 0.1322001 0.1324598 0.1328018 0.1332011 0.1335864 0.1339201 0.1342313 0.1345557 0.1348682
 0.1351104 0.1352753 0.1354246 0.1356255 0.1359037 0.1362486 0.1366219 0.1369608 0.1372165 0.1373996
 0.1375665 0.1377593 0.1379791 0.1382135 0.1384605 0.1387194 0.1389823 0.1392468 0.1395264 0.1398304
 0.1401334 0.1403835 0.1405523 0.1406693 0.1407975 0.1409754 0.1411912 0.141409 0.1416128 0.1418274
 0.1420929 0.1424152 0.1427431 0.1430062 0.1431759 0.143286 0.1433957 0.1435426 0.14373 0.1439438
 0.1441699 0.144397 0.1446164 0.1448274 0.145037 0.1452506 0.1454642 0.1456704 0.1458677 0.1460625
 0.1462623 0.1464724 0.1466979 0.1469482 0.1472314 0.1475367 0.1478266 0.1480592 0.1482218 0.1483378
 0.1484433 0.1485651 0.1487164 0.1488992 0.1491054 0.1493198 0.1495287 0.1497278 0.149924 0.1501292
 0.1503502 0.1505814 0.1508076 0.1510163 0.151212 0.1514155 0.1516416 0.1518815 0.1521102 0.1523108
 0.1524883 0.152664 0.1528578 0.1530712 0.1532823 0.1534667 0.1536246 0.1537812 0.1539592 0.1541591
 0.1543654 0.1545657 0.1547597 0.1549562 0.1551618 0.1553742 0.1555837 0.1557829 0.1559723 0.1561599
 0.1563536 0.1565524 0.1567478 0.1569372 0.1571291 0.1573323 0.1575449 0.1577592 0.1579699 0.1581749
 0.1583717 0.1585593 0.1587412 0.1589229 0.159107 0.1592936 0.159485 0.1596875 0.1599023 0.1601201
 0.1603287 0.1605257 0.1607177 0.160914 0.1611219 0.1613436 0.1615734 0.1618034 0.1620295 0.1622483
 0.1624544 0.1626485 0.1628415 0.163043 0.1632535 0.1634689 0.1636868 0.1639053 0.164121 0.1643277
 0.1645165 0.1646847 0.1648434 0.1650092 0.1651893 0.1653794 0.1655699 0.1657521 0.1659249 0.1660975
 0.1662818 0.1664827 0.1666979 0.1669216 0.1671451 0.1673612 0.1675696 0.1677724 0.1679686 0.1681586
 0.1683474 0.16854 0.1687383 0.168942 0.1691456 0.1693434 0.1695402 0.1697469 0.1699649 0.1701859
 0.1704041 0.1706175 0.1708253 0.1710303 0.1712363 0.1714421 0.1716466 0.1718559 0.1720741 0.1722946
 0.1725093 0.1727185 0.1729281 0.1731452 0.1733719 0.1735956 0.1738012 0.1739933 0.17419 0.174397
 0.1746088 0.1748254 0.1750464 0.1752645 0.1754798 0.1757021 0.1759321 0.1761613 0.1763855 0.1766023
 0.1768055 0.1769948 0.1771755 0.1773399 0.1774498 0.1773924 0.1768817 0.1753549 0.1719643 0.1657516
 0.1560342 0.1428394 0.1270441 0.1100594 0.0933104 0.07787219 0.06437788 0.05311242 0.04414736 0.03741642
 0.03276408 0.03004563 0.0292388 0.03055387 0.03454382 0.04177405 0.05159501 0.06105756 0.06606084 0.06459097
 0.0586485 0.05242511 0.04881592 0.04801554 0.04877453 0.05003499 0.05147344 0.05329497 0.05583276 0.05917405
 0.06315492 0.06777073 0.07336691 0.08019619 0.08789793 0.09565134 0.1028805 0.1097071 0.1166744 0.1240936
 0.1317121 0.1389609 0.1454118 0.1509925 0.1558868 0.1603314 0.1644857 0.1684233 0.1721821 0.1757581
 0.179022 0.1816918 0.1834717 0.1842772 0.1843364 0.1840595 0.1837947 0.1836946 0.1837712 0.1840087
 0.1844018 0.1849372 0.1855921 0.1863415 0.1871549 0.1879967 0.188835 0.1896465 0.1904165 0.1911427
 0.191828 0.1924636 0.1930341 0.1935394 0.1939979 0.1944293 0.194842 0.1952339 0.1955999 0.1959415
 0.1962678 0.196585 0.1968887 0.1971726 0.1974359 0.1976801 0.1979057 0.1981145 0.1983113 0.1985024
 0.1986949 0.1988927 0.1990923 0.1992907 0.199493 0.1997049 0.1999225 0.2001361 0.2003402 0.2005351
 0.200725 0.2009171 0.2011156 0.2013159 0.2015093 0.2016939 0.2018743 0.2020554 0.2022409 0.202435
 0.202639 0.2028472 0.2030489 0.2032364 0.2034156 0.2036057 0.203822 0.2040603 0.2043023 0.2045335
 0.2047482 0.2049472 0.2051404 0.205341 0.2055467 0.2057383 0.2059031 0.2060551 0.2062248 0.2064302
 0.2066592 0.2068821 0.2070831 0.2072746 0.207475 0.2076833 0.2078826 0.2080592 0.2082187 0.2083902
 0.208605 0.2088614 0.209125 0.2093743 0.2096205 0.2098757 0.2101308 0.2103759 0.2106071 0.210807
 0.2109529 0.211062 0.2112057 0.2114554 0.2118103 0.2121888 0.2125058 0.2127487 0.2129658 0.213202
 0.2134721 0.2137509 0.2139528 0.2139852 0.2138906 0.2138792 0.214141 0.214657 0.2152428 0.2157368
 0.2161007 0.216382 0.2166322 0.2168535 0.216998 0.2170264 0.2169883 0.2170386 0.2173247 0.2178321
 0.2183828 0.2188162 0.2191153 0.219339 0.219525 0.2196863 0.2197847 0.2196828 0.219287 0.2188075
 0.2187054 0.219248 0.2202056 0.2210948 0.2216571 0.2219913 0.2222801 0.2225641 0.2227925 0.2228681
 0.2225489 0.2215873 0.2202211 0.219306 0.2196128 0.2210528 0.2228199 0.2241939 0.2249959 0.2254098
 0.2256649 0.2258793 0.2259731 0.2256852 0.2248693 0.2238721 0.2234391 0.22403 0.2253027 0.2264778
 0.2271297 0.2274099 0.2276305 0.2279137 0.2281076 0.2277465 0.2263164 0.2240159 0.2221308 0.2221281
 0.224223 0.2271242 0.2293139 0.2303504 0.230746 0.230847 0.2303181 0.2287405 0.2262461 0.2234563
 0.2212756 0.2207616 0.2224318 0.2253931 0.2278474 0.2288623 0.2291568 0.2299143 0.2313703 0.2328233
 0.2335465 0.2333495 0.2324537 0.2310943 0.2294085 0.2278058 0.2271889 0.2283131 0.2308688 0.2335947
 0.2354438 0.236377 0.2368116 0.2363874 0.2337178 0.2280525 0.2213569 0.2177693 0.219948 0.2262945
 0.2326735 0.2364812 0.2380759 0.238835 0.2392993 0.2390262 0.2368565 0.2315504 0.223749 0.2172102
 0.2162707 0.2215557 0.2292669 0.2347242 0.2355477 0.2319117 0.2257145 0.2200128 0.2177644 0.2200361
 0.2255467 0.2319319 0.2371595 0.2400873 0.2404525 0.2387567 0.2362308 0.2345414 0.2345811 0.2351436
 0.2338445 0.2301428 0.2262538 0.223901 0.2216475 0.2175412 0.2133853 0.2135457 0.2192762 0.2266236
 0.2308729 0.2313294 0.2304639 0.2294114 0.2260251 0.2179633 0.207119 0.1997107 0.2008481 0.2092289
 0.2183013 0.2226844 0.2224477 0.2211828 0.2212098 0.2212072 0.2180646 0.2109378 0.2033202 0.2001168
 0.2024303 0.2065748 0.2084405 0.2067727 0.2017445 0.1936458 0.1852379 0.1826 0.1900071 0.2046993
 0.2190385 0.2267918 0.2254117 0.2146789 0.1976019 0.1822543 0.1778425 0.1864513 0.2005003 0.2097146
 0.2092762 0.2006762 0.1873218 0.1722147 0.1593531 0.1541699 0.1602853 0.1758325 0.193463 0.2039768
 0.2014088 0.1877014 0.173166 0.1690664 0.1773331 0.1891988 0.1950028 0.1929531 0.1877633 0.1846092
 0.1861529 0.1920299 0.1992295 0.2049383 0.2087884 0.2096652 0.2026832 0.1850508 0.1638309 0.1512849
 0.1521472 0.1612099 0.1731121 0.1871501 0.200891 0.2068822 0.2010503 0.1904162 0.1871089 0.1954879
 0.2084151 0.2159868 0.2153357 0.2111434 0.2084266 0.2072047 0.205001 0.2026175 0.2043384 0.2120139
 0.2218245 0.2285479 0.230994 0.2315245 0.2320522 0.2325904 0.2326093 0.2319148 0.2305703 0.22903
 0.2280033 0.2276571 0.2274576 0.2269786 0.2258886 0.2227293 0.2152255 0.2034856 0.1920396 0.1862488
 0.1866191 0.189178 0.1913832 0.193601 0.1935881 0.184945 0.1655696 0.1445866 0.135701 0.1439513
 0.1619586 0.1783373 0.1864141 0.1847988 0.173986 0.1565607 0.1399035 0.133867 0.1427356 0.1611138
 0.1796896 0.1932531 0.2012624 0.2033821 0.1985144 0.1879809 0.1767862 0.1707448 0.1729448 0.1824028
 0.1943894 0.2016338 0.1978832 0.1841282 0.1713391 0.1723599 0.1884269 0.2071005 0.2162528 0.2163467
 0.2154777 0.2167886 0.216928 0.2149106 0.2156562 0.2232529 0.2349594 0.2439129 0.245155 0.2375961
 0.2233898 0.208423 0.2007671 0.2041674 0.2137176 0.2211357 0.2227424 0.2189707 0.2094896 0.1952448
 0.1836115 0.183959 0.196799 0.2125726 0.2225111 0.2266193 0.2296825 0.2330264 0.2329086 0.2261902
 0.2155851 0.207984 0.2076402 0.2124549 0.2175356 0.2203594 0.2207812 0.2180981 0.2114962 0.2033974
 0.1994874 0.2037655 0.2143782 0.2253203 0.2317818 0.2331524 0.2316187 0.2293275 0.2269416 0.2238163
 0.2194346 0.2152574 0.2144309 0.2184239 0.2246857 0.2292746 0.2313725 0.2335395 0.2376947 0.2424771
 0.2449048 0.2436234 0.2401871 0.237703 0.2383416 0.2416145 0.2447403 0.2450195 0.2424015 0.2397682
 0.2402784 0.2443534 0.2496229 0.2536215 0.2557996 0.2570098 0.2580543 0.2589799 0.259035 0.2572357
 0.2537526 0.250712 0.2506823 0.2541257 0.2589636 0.2627314 0.2645704 0.2650753 0.2649343 0.2642154
 0.2627732 0.2608999 0.2593352 0.258681 0.2589669 0.2598045 0.2607889 0.2616759 0.262353 0.2628122
 0.2631148 0.2633137 0.2634348 0.2635244 0.2636229 0.2636807 0.2636086 0.2634509 0.2634071 0.2636117
 0.2639605 0.2642236 0.2642584 0.264024 0.2634593 0.2624978 0.2612032 0.2597509 0.2582299 0.2565821
 0.2548505 0.2534411 0.2529924 0.2538903 0.2559103 0.2583573 0.2605423 0.2621263 0.2631096 0.26364
 0.2638788 0.2639573 0.2639534 0.2638847 0.2637383 0.2635133 0.2632258 0.2628882 0.2625053 0.2620961
 0.2617058 0.2613789 0.2611161 0.2608644 0.2605529 0.2601404 0.2596397 0.2591013 0.2585648 0.2580143
 0.2573864 0.2566272 0.2557394 0.2547774 0.2538176 0.2529277 0.2521324 0.2513949 0.250647 0.2498429
 0.2489619 0.2479774 0.2468738 0.245712 0.2446298 0.2437369 0.243024 0.242389 0.2417245 0.240963
 0.2400811 0.2391002 0.2380712 0.2370265 0.2359551 0.2348327 0.2336512 0.2324053 0.231078 0.2296565
 0.2281476 0.226571 0.224953 0.2233199 0.2216679 0.2199261 0.2179631 0.2156342 0.212823 0.2094588
 0.2055288 0.2010971 0.1963105 0.1913726 0.1864891 0.1818232 0.1774925 0.1735938 0.1702185 0.1674467
 0.1653352 0.1639133 0.1631902 0.1631678 0.1638414 0.1651847 0.1671334 0.1695803 0.1723812 0.1753678
 0.1783659 0.1812191 0.1838267 0.1861846 0.1883727 0.1904671 0.1924622 0.1942947 0.1959228 0.1973485
 0.1985794 0.19961 0.2004474 0.2011315 0.2017159 0.2022342 0.2026875 0.2030636 0.2033638 0.203607
 0.2038171 0.2040129 0.2042062 0.2044035 0.204612 0.2048432 0.2051061 0.2054066 0.2057605 0.2061888
 0.2066896 0.2072316 0.2077887 0.2083628 0.2089713 0.2096303 0.2103607 0.2111922 0.2121552 0.2132665
 0.2145176 0.2158656 0.21724 0.2185612 0.2197544 0.2207564 0.2215216 0.2220317 0.2223041 0.222388
 0.2223363 0.222174 0.2218993 0.2215164 0.2210512 0.2205315 0.2199684 0.2193615 0.2187119 0.2180257
 0.2173134 0.2165908 0.2158732 0.2151692 0.2144832 0.2138228 0.2131944 0.2125922 0.2119979 0.2113996
 0.2108047 0.2102275 0.2096707 0.2091241 0.2085752 0.2080063 0.2073845 0.2066674 0.2058288 0.2048744
 0.2038286 0.2027064 0.2015055 0.2002243 0.198874 0.1974664 0.1959953 0.1944432 0.1928038 0.191084
 0.1892802 0.1873713 0.1853551 0.1832904 0.1812787 0.1794003 0.1776769 0.1760905 0.1746143 0.1732242
 0.1718979 0.1706164 0.1693702 0.1681673 0.1670272 0.1659608 0.1649621 0.1640252 0.1631596 0.1623804
 0.1616912 0.1610793 0.1605221 0.1600047 0.1595356 0.1591401 0.1588435 0.1586674 0.1586252 0.1586934
 0.1587985 0.1588541 0.1588148 0.1586978 0.1585604 0.1584525 0.158379 0.1583128 0.1582353 0.158138
 0.157985 0.1576966 0.1571752 0.1563415 0.155165 0.1536754 0.1519425 0.1500614 0.148168 0.1464279
 0.1449707 0.1438403 0.1430059 0.1423926 0.1419089 0.1414931 0.1411458 0.1409163 0.1408647 0.1410066
 0.1412563 0.1414607 0.1415435 0.1415901 0.1417577 0.1421421 0.1427428 0.1434864 0.1442566 0.1449479
 0.145505 0.1459043 0.1461352 0.1462199 0.1462073 0.1461346 0.1460149 0.145849 0.14563 0.1453588
 0.1450459 0.1446745 0.1441978 0.1436042 0.1429302 0.1421922 0.1413726 0.1404629 0.1394491 0.1382965
 0.137052 0.1359277 0.1352042 0.1350594 0.1354834 0.1362992 0.1372846 0.1383218 0.1393566 0.1402032
 0.1405956 0.1405855 0.1407463 0.1417599 0.1437685 0.1462238 0.1483802 0.1498383 0.1505846 0.1507036
 0.1502476 0.1492791 0.1478232 0.1458316 0.1433236 0.1404593 0.1374024 0.1342763 0.1312702 0.1285922
 0.1263329 0.124494 0.1230612 0.1220683 0.121647 0.121431 0.1195245 0.1135001 0.1041708 0.09724843
 0.09851764 0.1073124 0.1169951 0.1219549 0.1220599 0.1203261 0.1188348 0.117892 0.1173704 0.1174031
 0.1181246 0.1193946 0.1208154 0.1219731 0.1227006 0.1230472 0.1229846 0.1221573 0.1198248 0.1151243
 0.1077602 0.09860198 0.08939457 0.08174525 0.0763941 0.07322425 0.0716176 0.0708175 0.07029749 0.07000938
 0.07026841 0.07136707 0.07332477 0.07597885 0.07915579 0.08262017 0.08596323 0.08877379 0.09094913 0.09268098
 0.09411694 0.09517451 0.09570152 0.09568444 0.09525621 0.09458867 0.09382333 0.09303903 0.09220717 0.09120728
 0.08999459 0.08876995 0.08787203 0.08745814 0.08738508 0.08741692 0.08743043 0.08740556 0.08734864 0.08727518
 0.08721109 0.08720484 0.08734341 0.08769126 0.08818971 0.08867401 0.08900614 0.08916628 0.08922498 0.08921407
 0.0890079 0.08843243 0.08757015 0.0867824 0.08624899 0.08566092 0.084632 0.08330808 0.0822942 0.08200185
 0.08227347 0.08263841 0.08275229 0.08257084 0.08229107 0.0822273 0.08259733 0.08326275 0.0837523 0.08369222
</values></Ydata></ScRf><Data_Parameters_AB><parameter name="DPF">1</parameter><parameter name="NPT">3497</parameter><parameter name="FXV">3996</parameter><parameter name="LXV">500</parameter><parameter name="CSF">1</parameter><parameter name="MXY">0.0704137533903122</parameter><parameter name="MNY">-0.116888001561165</parameter><parameter name="DAT">31/05/2022</parameter><parameter name="TIM">13:58:16.812 (GMT+2)</parameter><parameter name="DXU">WN</parameter></Data_Parameters_AB><AB__Qtest><MainReport name="Quality Test Report"><Header><Line><Legend>Test result ok/not ok [1/0]: </Legend><Value>0</Value></Line><Line><Legend>Method file: </Legend><Value>C:\Users\Public\Documents\Bruker\OPUS_8.2.28\QT\IRBT_v3_default.QT</Value></Line></Header><Matrix><Line><Legend></Legend><Legend>min</Legend><Legend>max</Legend><Legend>measured</Legend></Line><Line><Value>Absorption (X-Range 1):</Value><Value>0.400000</Value><Value>2.000000</Value><Value>0.149598</Value></Line><Line><Value>Noise (X-Range 4):</Value><Value></Value><Value>0.000300</Value><Value>0.000039</Value></Line><Line><Value>Signal/Noise (X-Range 2):</Value><Value>200.000000</Value><Value></Value><Value>69.502175</Value></Line><Line><Value>Signal/Noise (X-Range 3):</Value><Value>40.000000</Value><Value></Value><Value>34.110177</Value></Line><Line><Value>Water vapour (X-Range 5):</Value><Value></Value><Value>0.000300</Value><Value>0.000052</Value></Line><Line><Value>Signal/Water (X-Range 2):</Value><Value>100.000000</Value><Value></Value><Value>53.210147</Value></Line><Line><Value>Signal/Water (X-Range 3):</Value><Value>20.000000</Value><Value></Value><Value>26.114399</Value></Line><Line><Value>Fringes (X-Range 6):</Value><Value></Value><Value>0.000100</Value><Value>0.000064</Value></Line></Matrix></MainReport></AB__Qtest><Data_Parameters_ScSm><parameter name="DPF">1</parameter><parameter name="NPT">1814</parameter><parameter name="FXV">3996.33169228125</parameter><parameter name="LXV">499.541461535156</parameter><parameter name="CSF">1</parameter><parameter name="MXY">0.311403006315231</parameter><parameter name="MNY">0.0376494452357292</parameter><parameter name="DAT">31/05/2022</parameter><parameter name="TIM">13:58:16.812 (GMT+2)</parameter><parameter name="DXU">WN</parameter></Data_Parameters_ScSm><Data_Parameters_ScRf><parameter name="DPF">1</parameter><parameter name="NPT">1820</parameter><parameter name="FXV">4004.04661832813</parameter><parameter name="LXV">495.683998511719</parameter><parameter name="CSF">1</parameter><parameter name="MXY">0.265075266361237</parameter><parameter name="MNY">0.0292387995868921</parameter><parameter name="DAT">31/05/2022</parameter><parameter name="TIM">13:57:50.960 (GMT+2)</parameter><parameter name="DXU">WN</parameter></Data_Parameters_ScRf><Optic_Parameters_Rf><parameter name="APR">0</parameter><parameter name="APT">Open</parameter><parameter name="BMS">KBr</parameter><parameter name="DTC">RT-DLaTGS_IR-Biotyper [Microplate reader]</parameter><parameter name="HPF">0</parameter><parameter name="LPF">10.0</parameter><parameter name="LPV">4000</parameter><parameter name="PGR">0</parameter><parameter name="RCH">Module port</parameter><parameter name="RDX">0</parameter><parameter name="SRC">MIR</parameter><parameter name="VEL">10.0</parameter><parameter name="SON">Off</parameter></Optic_Parameters_Rf><Acquisition_Parameters_Rf><parameter name="ADT">1</parameter><parameter name="AQM">DD</parameter><parameter name="CFE">0</parameter><parameter name="COR">0</parameter><parameter name="DEL">0</parameter><parameter name="DLY">0</parameter><parameter name="HFW">8000</parameter><parameter name="LFW">0</parameter><parameter name="NSR">32</parameter><parameter name="PLF">AB</parameter><parameter name="RES">6</parameter><parameter name="RGN">-1</parameter><parameter name="STR">0</parameter><parameter name="TCL">MakeCompatibleScalar (0, {WSV=1.000000, ARV=0});</parameter><parameter name="TDL">37</parameter><parameter name="RPO">0</parameter></Acquisition_Parameters_Rf><FT_-_Parameters_Rf><parameter name="APF">B3</parameter><parameter name="HFQ">500</parameter><parameter name="LFQ">4000</parameter><parameter name="NLI">0</parameter><parameter name="PHR">24</parameter><parameter name="PHZ">ML</parameter><parameter name="SPZ">NO</parameter><parameter name="ZFF">1</parameter></FT_-_Parameters_Rf><Optic_Parameters_><parameter name="APR">0</parameter><parameter name="APT">Open</parameter><parameter name="BMS">KBr</parameter><parameter name="CHN">Module port</parameter><parameter name="DTC">RT-DLaTGS_IR-Biotyper [Microplate reader]</parameter><parameter name="HPF">0</parameter><parameter name="LPF">10.0</parameter><parameter name="LPV">4000</parameter><parameter name="PGN">0</parameter><parameter name="RDX">0</parameter><parameter name="SRC">MIR</parameter><parameter name="VEL">10.0</parameter><parameter name="SON">Off</parameter></Optic_Parameters_><FT_-_Parameters_><parameter name="APF">B3</parameter><parameter name="HFQ">500</parameter><parameter name="LFQ">4000</parameter><parameter name="NLI">0</parameter><parameter name="PHR">24</parameter><parameter name="PHZ">ML</parameter><parameter name="SPZ">NO</parameter><parameter name="ZFF">1</parameter></FT_-_Parameters_><Acquisition_Parameters_><parameter name="ADT">1</parameter><parameter name="AQM">DD</parameter><parameter name="CFE">0</parameter><parameter name="COR">0</parameter><parameter name="DEL">0</parameter><parameter name="DLY">0</parameter><parameter name="HFW">8000</parameter><parameter name="LFW">0</parameter><parameter name="NSS">32</parameter><parameter name="PLF">AB</parameter><parameter name="RES">6</parameter><parameter name="SOT">0</parameter><parameter name="TCL">MakeCompatibleScalar (0, {WSV=1.000000, ARV=0});</parameter><parameter name="TDL">37</parameter><parameter name="SPO">0</parameter><parameter name="SGN">-1</parameter></Acquisition_Parameters_><Instrument_Parameters_Rf><parameter name="HFL">15800.168544</parameter><parameter name="LFL">0</parameter><parameter name="LWN">15800.168544</parameter><parameter name="ABP">32197</parameter><parameter name="SSP">1</parameter><parameter name="ARG">2</parameter><parameter name="ASG">2</parameter><parameter name="ASS">32</parameter><parameter name="GFW">16</parameter><parameter name="GBW">16</parameter><parameter name="BFW">0</parameter><parameter name="BBW">0</parameter><parameter name="PKA">7261</parameter><parameter name="PKL">4996</parameter><parameter name="PRA">7448</parameter><parameter name="PRL">5001</parameter><parameter name="P2A">1</parameter><parameter name="P2L">1</parameter><parameter name="P2R">1</parameter><parameter name="P2K">1</parameter><parameter name="DAQ">0</parameter><parameter name="AG2">1</parameter><parameter name="SSM">1</parameter><parameter name="RSN">25733</parameter><parameter name="CRR">0</parameter><parameter name="SRT">1654005470.96</parameter><parameter name="DUR">19.6379852294922</parameter><parameter name="TSC">29</parameter><parameter name="MVD">0.282001167535782</parameter><parameter name="AN1">0.225806958587741</parameter><parameter name="AN2">0</parameter><parameter name="VSN">2.485 Apr  4 2017</parameter><parameter name="SRN">0085</parameter><parameter name="CAM">0</parameter><parameter name="INS">IR-Biotyper</parameter><parameter name="FOC">69</parameter><parameter name="RDY">1</parameter><parameter name="ARS">32</parameter></Instrument_Parameters_Rf><Sample_Parameters_><parameter name="BLD"></parameter><parameter name="CNM">Admin</parameter><parameter name="CPY"></parameter><parameter name="DPM"></parameter><parameter name="EXP">IRBT_v3_32Scans.XPM</parameter><parameter name="LCT"></parameter><parameter name="SFM">Microplate, HTS-XT</parameter><parameter name="SNM">220531-1301_CGR32F (D_5)_F6_1a0a1cbb-a115-43d6-a488-917fe4a20192.0</parameter><parameter name="XPP">C:\Users\Public\Documents\Bruker\OPUS_8.2.28\XPM</parameter><parameter name="IST">OK</parameter><parameter name="CPG">1252</parameter><parameter name="UID">4de6beb4-366f-4302-abf7-33bf50f1ae1e</parameter></Sample_Parameters_><Instrument_Parameters_><parameter name="HFL">15800.168544</parameter><parameter name="LFL">0</parameter><parameter name="LWN">15800.168544</parameter><parameter name="ABP">32197</parameter><parameter name="SSP">1</parameter><parameter name="ASG">2</parameter><parameter name="ARG">2</parameter><parameter name="ASS">32</parameter><parameter name="GFW">16</parameter><parameter name="GBW">16</parameter><parameter name="BFW">0</parameter><parameter name="BBW">0</parameter><parameter name="PKA">8265</parameter><parameter name="PKL">4988</parameter><parameter name="PRA">8506</parameter><parameter name="PRL">4993</parameter><parameter name="P2A">1</parameter><parameter name="P2L">1</parameter><parameter name="P2R">1</parameter><parameter name="P2K">1</parameter><parameter name="DAQ">0</parameter><parameter name="AG2">1</parameter><parameter name="SSM">1</parameter><parameter name="RSN">13492</parameter><parameter name="CRR">0</parameter><parameter name="SRT">1654005496.812</parameter><parameter name="DUR">19.6389923095703</parameter><parameter name="TSC">29</parameter><parameter name="MVD">0.241775825619698</parameter><parameter name="AN1">0.225836653602313</parameter><parameter name="AN2">0</parameter><parameter name="VSN">2.485 Apr  4 2017</parameter><parameter name="SRN">0085</parameter><parameter name="CAM">0</parameter><parameter name="INS">IR-Biotyper</parameter><parameter name="FOC">69</parameter><parameter name="RDY">1</parameter></Instrument_Parameters_><History/></OPUSDataFile>
