<?xml version="1.0" encoding="UTF-8" ?>
<OPUSDataFile><AB><Ydata ylabel="Absorbance Units"><values byteorder="INTEL" format="FLOAT32" numvalues="3497"> -0.01100827 -0.01098954 -0.01100017 -0.01104161 -0.01109321 -0.01115391 -0.01120197 -0.01123754 -0.01125654 -0.01126071
 -0.01125833 -0.01124978 -0.01124053 -0.01123021 -0.01122014 -0.01121124 -0.01120584 -0.01120401 -0.01120799 -0.01121371
 -0.01121921 -0.01121986 -0.0112116 -0.01119616 -0.0111723 -0.0111466 -0.01112077 -0.0110976 -0.01107822 -0.01105987
 -0.01104218 -0.01102573 -0.01101056 -0.01100539 -0.0110104 -0.0110314 -0.01106615 -0.01110454 -0.01114398 -0.01116817
 -0.01118025 -0.0111781 -0.01116895 -0.01116515 -0.0111673 -0.01118325 -0.01120423 -0.01122545 -0.01124171 -0.01124699
 -0.01124656 -0.01124103 -0.01123504 -0.01123078 -0.01122557 -0.01121921 -0.01121 -0.01119748 -0.01118508 -0.01117298
 -0.01116264 -0.01115391 -0.01114463 -0.01113487 -0.01112409 -0.01111243 -0.01110045 -0.01108745 -0.01107141 -0.01105337
 -0.01103303 -0.01101461 -0.01100369 -0.01100043 -0.01100969 -0.01102078 -0.01103022 -0.01102618 -0.01100027 -0.01096022
 -0.01090329 -0.01085489 -0.01081889 -0.01081211 -0.01083785 -0.01088798 -0.01096227 -0.01103637 -0.01110901 -0.01115702
 -0.01118123 -0.01117373 -0.01113891 -0.01108752 -0.01102495 -0.01097 -0.01092415 -0.01089897 -0.01089192 -0.01090571
 -0.01093395 -0.01097481 -0.01101561 -0.01105022 -0.01106543 -0.0110528 -0.01101463 -0.01094703 -0.01087047 -0.01078729
 -0.01071603 -0.01065969 -0.01061673 -0.01058728 -0.0105603 -0.01053619 -0.01051809 -0.01050802 -0.01052148 -0.01055758
 -0.01062282 -0.01071148 -0.01081333 -0.01092268 -0.01102444 -0.0111184 -0.01119888 -0.01126593 -0.01131982 -0.011354
 -0.01136384 -0.01134886 -0.01130289 -0.01124919 -0.01119008 -0.01115692 -0.0111571 -0.01119738 -0.01128213 -0.01137411
 -0.01147168 -0.01150195 -0.01146518 -0.01134912 -0.01116674 -0.01100053 -0.01085105 -0.01076612 -0.01073323 -0.01074484
 -0.01079161 -0.01085501 -0.01092838 -0.01099822 -0.01105665 -0.01109317 -0.01110272 -0.0110764 -0.01102493 -0.01094742
 -0.01086646 -0.01078826 -0.01072484 -0.01068009 -0.0106525 -0.01064236 -0.01064756 -0.01066802 -0.01070146 -0.01074701
 -0.01079177 -0.01083307 -0.01084612 -0.01083094 -0.01077055 -0.0106748 -0.01055736 -0.01043243 -0.0103328 -0.01026082
 -0.01023562 -0.01024459 -0.01028474 -0.01034158 -0.01040535 -0.01047003 -0.01053012 -0.01058803 -0.01064412 -0.01069751
 -0.01075001 -0.01078614 -0.01080486 -0.01078881 -0.01073663 -0.0106556 -0.0105473 -0.01043921 -0.01033204 -0.01024379
 -0.01017328 -0.0101249 -0.01009882 -0.01009861 -0.0101223 -0.01017094 -0.01023483 -0.01030456 -0.01036717 -0.01040755
 -0.01042202 -0.01040145 -0.01035682 -0.01028841 -0.0102138 -0.01013706 -0.01007325 -0.01002625 -0.01000016 -0.009996675
 -0.01000666 -0.01002973 -0.01005223 -0.01007372 -0.01008582 -0.01008922 -0.01008388 -0.01007154 -0.01005867 -0.01004666
 -0.01004268 -0.01004609 -0.01005971 -0.01008065 -0.01010594 -0.01013506 -0.01016492 -0.01020118 -0.01024664 -0.01030427
 -0.01037938 -0.010458 -0.01053984 -0.01060053 -0.01063421 -0.01063597 -0.01060311 -0.01055432 -0.01049066 -0.01042169
 -0.0103478 -0.01027426 -0.01020351 -0.01015694 -0.01013402 -0.01014761 -0.01018788 -0.01023814 -0.01028462 -0.01029116
 -0.01026093 -0.01017476 -0.01006558 -0.009956316 -0.009867389 -0.009824347 -0.009809489 -0.009824555 -0.009839896 -0.009847057
 -0.009829957 -0.009781993 -0.009712771 -0.009621143 -0.009533932 -0.009452707 -0.009400717 -0.009378518 -0.009396442 -0.009452592
 -0.009541464 -0.009656347 -0.009768819 -0.009870787 -0.009921376 -0.009929674 -0.009888587 -0.009821347 -0.00975863 -0.009703463
 -0.009674041 -0.009650959 -0.009627911 -0.009588714 -0.009520605 -0.009434978 -0.009329018 -0.009232609 -0.009151755 -0.009099973
 -0.009081618 -0.009078086 -0.009088891 -0.009076686 -0.009040597 -0.008962888 -0.008849149 -0.008732016 -0.008616208 -0.008541632
 -0.008501429 -0.008497942 -0.008522499 -0.008560504 -0.008606266 -0.008648147 -0.008679288 -0.008689342 -0.008676221 -0.008632303
 -0.00857091 -0.008495798 -0.00841713 -0.008341702 -0.008257288 -0.008162236 -0.008049293 -0.007915658 -0.007778537 -0.007638735
 -0.00751653 -0.007412374 -0.007332745 -0.007276881 -0.007243004 -0.007229432 -0.007229045 -0.007239252 -0.007249153 -0.007258057
 -0.007259883 -0.007254388 -0.007242322 -0.007213174 -0.007159905 -0.007068321 -0.006919595 -0.006736188 -0.006516452 -0.006307988
 -0.006128299 -0.005985301 -0.005886526 -0.005807995 -0.005747745 -0.005687659 -0.005626047 -0.005564391 -0.005503246 -0.005456232
 -0.005422738 -0.005407173 -0.005403111 -0.005387618 -0.005351393 -0.005251262 -0.00509719 -0.004879392 -0.004631988 -0.004399908
 -0.004193605 -0.004044748 -0.003931938 -0.003851277 -0.003782981 -0.003715514 -0.003646777 -0.003573231 -0.003500105 -0.003429147
 -0.003355482 -0.003279503 -0.003188334 -0.003081034 -0.002950964 -0.002798419 -0.002631583 -0.002452166 -0.002277517 -0.002107789
 -0.001953319 -0.001812036 -0.001683347 -0.001565806 -0.001456664 -0.001354592 -0.001257315 -0.001162367 -0.00106571 -0.0009692808
 -0.000871632 -0.0007803497 -0.0007005145 -0.0006282057 -0.0005674926 -0.0004921584 -0.0003978676 -0.0002646981 -8.648164E-05 0.0001122599
 0.0003309061 0.0005256631 0.0006955357 0.0008295316 0.000930563 0.001016714 0.001090073 0.001169587 0.001254097 0.001350824
 0.001456007 0.001566319 0.001677597 0.001782109 0.001879952 0.001966268 0.002049541 0.002132353 0.00222612 0.002337791
 0.002468339 0.002621028 0.00278653 0.002964024 0.00314359 0.003324318 0.003495692 0.003656947 0.003798825 0.003921336
 0.004027577 0.004119818 0.004217638 0.004323199 0.004458066 0.004619191 0.004811467 0.005025415 0.005246264 0.005463863
 0.005657057 0.005824669 0.005955749 0.006060064 0.006139724 0.006206234 0.006265441 0.006323027 0.00638189 0.006444061
 0.006509919 0.006583296 0.006664448 0.006758905 0.006867219 0.006989617 0.007125749 0.007265732 0.007408622 0.007541522
 0.007665422 0.007777167 0.007879908 0.007981312 0.008082949 0.008192487 0.008307462 0.008428349 0.008550731 0.008670775
 0.008784973 0.008889788 0.008984054 0.009065839 0.009137332 0.009197702 0.009254324 0.009307411 0.009369512 0.009441799
 0.009537289 0.009657216 0.009805422 0.009981648 0.01017554 0.01038566 0.01059542 0.01080404 0.01099946 0.01118146
 0.01134334 0.01148485 0.01160146 0.01169568 0.01176734 0.01182397 0.01187203 0.01191883 0.01197223 0.01203176
 0.01210045 0.01217084 0.01224099 0.01230663 0.01236524 0.01242327 0.01248045 0.01255016 0.01263349 0.01273777
 0.01286296 0.01300143 0.01315163 0.01329678 0.01343635 0.01355859 0.01366508 0.01375412 0.01382805 0.01389031
 0.01394358 0.01399275 0.01404016 0.01409024 0.01414258 0.01419888 0.01425584 0.01431214 0.01436639 0.01441743
 0.01446691 0.01451488 0.01456304 0.01461148 0.01466237 0.01471578 0.01477632 0.01484419 0.01492233 0.01501022
 0.01510448 0.01520437 0.01530441 0.01540473 0.01550299 0.01559958 0.01569417 0.01578713 0.01587834 0.01596939
 0.01606198 0.01615644 0.01625489 0.01635218 0.0164474 0.01653276 0.01660483 0.01666276 0.01670454 0.01673885
 0.01676611 0.01679726 0.01683316 0.01688146 0.01694249 0.01701988 0.01711305 0.01721926 0.01733583 0.01744923
 0.01755592 0.01763712 0.01769347 0.01771467 0.01770972 0.01768479 0.01765404 0.01763372 0.01763252 0.01766413
 0.01772139 0.01780777 0.01790202 0.01799904 0.01807939 0.01813636 0.01816981 0.01817725 0.01817682 0.01816967
 0.01817222 0.01818493 0.01820587 0.01823378 0.01825545 0.01827116 0.01827437 0.01826821 0.01825858 0.01824876
 0.01824885 0.0182591 0.01828535 0.01832304 0.01837055 0.01842138 0.01846948 0.01851468 0.01855301 0.01859534
 0.01864392 0.01870914 0.01879612 0.01889518 0.01900782 0.01910511 0.0191849 0.01922499 0.0192248 0.01919051
 0.01912457 0.01905319 0.01897756 0.01891791 0.01887174 0.01884139 0.01882515 0.01881954 0.0188265 0.01884791
 0.01888389 0.01893793 0.01900117 0.01907029 0.01913253 0.01917966 0.01920937 0.01921693 0.01921396 0.01920177
 0.01919196 0.01918704 0.01918714 0.01919267 0.01919828 0.01920379 0.01920884 0.01921358 0.01921999 0.01922715
 0.0192316 0.01923205 0.01922189 0.01920234 0.01917183 0.01913437 0.01909442 0.01905702 0.01902893 0.01901314
 0.01901498 0.0190313 0.01906363 0.01910203 0.01914377 0.01918087 0.01920986 0.01923426 0.01925342 0.0192774
 0.01930714 0.01934683 0.0193966 0.01945273 0.01951482 0.01957751 0.01964036 0.01969877 0.01975198 0.0197952
 0.01982814 0.0198475 0.01985437 0.01984827 0.01983219 0.01980788 0.01978121 0.0197563 0.01973896 0.01973435
 0.01974025 0.01975883 0.01977859 0.0197974 0.01980672 0.01980429 0.01979255 0.01977149 0.01974447 0.01971154
 0.01966658 0.01960929 0.01953325 0.01944073 0.01933935 0.01923329 0.01914071 0.0190625 0.01901108 0.01898105
 0.01897119 0.01897209 0.0189741 0.01896886 0.01894705 0.01890559 0.01883933 0.01875286 0.01864514 0.01852736
 0.01840086 0.01827949 0.01816515 0.01806918 0.01799297 0.01793944 0.01790864 0.0178912 0.01788594 0.0178762
 0.01786207 0.01783438 0.01779623 0.01775302 0.01770705 0.01766781 0.01763118 0.01759602 0.01755532 0.01749931
 0.0174295 0.01734019 0.0172471 0.01715502 0.01708167 0.01703639 0.01701913 0.01703511 0.01706001 0.01709226
 0.01710227 0.01708664 0.01703721 0.01695371 0.01685478 0.01674181 0.01663709 0.01653945 0.01645447 0.0163796
 0.01630871 0.01624176 0.01617578 0.0161113 0.01604883 0.01598612 0.01592112 0.01585164 0.0157742 0.01569185
 0.01560422 0.01551799 0.01543516 0.01536122 0.01529805 0.01524727 0.01521005 0.01518125 0.01516093 0.01513763
 0.01511075 0.01507127 0.01501962 0.01495756 0.01488663 0.01481621 0.01474703 0.01468692 0.01463461 0.01459191
 0.01455543 0.0145216 0.01448541 0.01443972 0.0143826 0.0143081 0.01422371 0.01412963 0.01404027 0.01396161
 0.01389886 0.01385696 0.01382157 0.0137923 0.01374828 0.01368702 0.01360365 0.01349794 0.01338536 0.01326709
 0.01316213 0.0130701 0.01299905 0.01294685 0.01291102 0.01288892 0.01287409 0.01286308 0.01284828 0.01282573
 0.01278762 0.01273386 0.01265923 0.01257406 0.01247931 0.01239468 0.01232786 0.01228944 0.01228738 0.01230245
 0.01233541 0.01234812 0.01233652 0.01228309 0.01218689 0.01207012 0.01193501 0.01181629 0.01171296 0.01163811
 0.01158682 0.01154931 0.01152143 0.01148889 0.01144986 0.01139459 0.01132459 0.01123604 0.01113665 0.01103013
 0.01092541 0.01082977 0.01074187 0.01066437 0.01058744 0.01050787 0.01042623 0.01034 0.01026872 0.01021345
 0.01019721 0.01022128 0.0102894 0.01039944 0.01052669 0.01066623 0.01077667 0.01085588 0.01087153 0.0108312
 0.01073318 0.01059359 0.01043725 0.01027632 0.0101361 0.01001529 0.009922095 0.009848438 0.009791105 0.009747905
 0.00971718 0.00969921 0.00969543 0.009696691 0.009702674 0.009698818 0.009683188 0.009653637 0.009609962 0.009565298
 0.009520167 0.009485185 0.009459061 0.009439123 0.009424493 0.009409877 0.009397079 0.009388203 0.009383873 0.009387805
 0.009395024 0.009402439 0.009402576 0.009388295 0.009356082 0.009301199 0.009226281 0.009129866 0.009020815 0.008899093
 0.008782036 0.00867142 0.008587264 0.00853236 0.008510738 0.00852281 0.008544357 0.008573176 0.008572761 0.008543747
 0.008469163 0.008355984 0.008219159 0.008066901 0.007927209 0.007801651 0.007706871 0.007636873 0.007591986 0.007564009
 0.007546456 0.007534275 0.007522271 0.007511071 0.007499057 0.007491016 0.007488423 0.007491769 0.007502725 0.007510098
 0.007513374 0.007497562 0.007461736 0.007404969 0.007328418 0.007248554 0.007166464 0.007098196 0.007041324 0.006996189
 0.00695849 0.006917641 0.006871926 0.006813094 0.006742925 0.006659517 0.006567313 0.006467765 0.006369123 0.006274763
 0.006195819 0.006137435 0.00610535 0.006103725 0.006125167 0.006170585 0.00622195 0.006277933 0.006320622 0.006348895
 0.006352834 0.006332581 0.00628787 0.006220385 0.006139511 0.006048306 0.005962977 0.00588545 0.005829885 0.00579313
 0.005777487 0.005776055 0.00578121 0.005789381 0.005793923 0.005797777 0.005800541 0.005806155 0.00581644 0.005832072
 0.005853557 0.005880957 0.005914407 0.005953578 0.00599871 0.006045736 0.006094416 0.006142532 0.006190666 0.006247417
 0.006313815 0.006402261 0.006510225 0.006636197 0.006774156 0.006908039 0.007034894 0.007140871 0.007229945 0.007300257
 0.007359554 0.00741304 0.007467869 0.007529714 0.007601507 0.007687022 0.007780924 0.007883671 0.007984347 0.008080998
 0.008167625 0.008243022 0.008309297 0.008366531 0.008415371 0.008455521 0.008481722 0.00849426 0.008491442 0.008475782
 0.008455581 0.008433761 0.008422452 0.008421416 0.008436934 0.008464389 0.008501523 0.008542003 0.008579181 0.008611331
 0.008633903 0.008653601 0.008671329 0.00869544 0.00872912 0.008772925 0.008827779 0.008890146 0.008959358 0.009038178
 0.009126727 0.009229349 0.0093453 0.009463606 0.009581501 0.00967412 0.009741524 0.009768439 0.009761667 0.009730159
 0.009681185 0.00963372 0.00958539 0.009543609 0.009495977 0.009435415 0.009349855 0.009229325 0.009071213 0.008870227
 0.008635366 0.008365967 0.00808033 0.007780283 0.007487512 0.007204515 0.006945724 0.006712297 0.006505535 0.006325097
 0.006164738 0.006024265 0.005899711 0.005790957 0.005696605 0.005614109 0.005537372 0.005461504 0.005374536 0.005275056
 0.005154054 0.005019604 0.004873292 0.004729247 0.004596196 0.004482848 0.004396094 0.004333531 0.004296509 0.004278059
 0.004277191 0.004288887 0.004312614 0.004343922 0.004382522 0.004423839 0.004467827 0.004513836 0.004561976 0.004613683
 0.004667237 0.004717433 0.004760669 0.004784215 0.004787616 0.004762074 0.00471445 0.004647901 0.004573812 0.004502933
 0.004442786 0.004402465 0.004378884 0.004374725 0.004378117 0.004386653 0.004390033 0.004384975 0.004373317 0.00435435
 0.004337841 0.004324541 0.00431399 0.004305078 0.004276755 0.004227167 0.004131294 0.003992078 0.003805725 0.003581158
 0.003339314 0.003087974 0.002852055 0.002631469 0.002436887 0.002263402 0.002109766 0.001973541 0.001852616 0.001746859
 0.001657049 0.001577766 0.001509065 0.001439507 0.001366908 0.001284273 0.001189743 0.001089158 0.0009826028 0.0008834309
 0.0007921363 0.0007177704 0.0006596386 0.0006172893 0.0005893091 0.0005699207 0.0005579051 0.0005474944 0.0005372805 0.0005225957
 0.0005012571 0.0004684441 0.0004235191 0.0003629545 0.0002913166 0.0002085264 0.0001249958 4.39912E-05 -2.321966E-05 -7.236334E-05
 -9.92643E-05 -0.0001010788 -8.613514E-05 -5.406166E-05 -2.312902E-05 5.530579E-06 1.594285E-05 7.970321E-06 -1.941134E-05 -6.438889E-05
 -0.0001140818 -0.0001670964 -0.0002100559 -0.0002445707 -0.000267577 -0.0002825329 -0.0002944374 -0.0003056418 -0.0003214525 -0.0003421323
 -0.0003701332 -0.0004036854 -0.000443374 -0.0004840697 -0.0005246939 -0.0005576981 -0.0005803112 -0.0005899054 -0.0005842653 -0.0005715677
 -0.0005519205 -0.0005385648 -0.0005325063 -0.0005392185 -0.0005585297 -0.0005852171 -0.0006185574 -0.0006507563 -0.0006816234 -0.0007064011
 -0.0007250074 -0.0007346739 -0.0007357034 -0.0007264777 -0.0007098173 -0.0006875863 -0.0006654349 -0.0006490522 -0.0006421666 -0.0006498829
 -0.0006693813 -0.0007018009 -0.0007394336 -0.0007802174 -0.0008192191 -0.0008546311 -0.0008877271 -0.0009182931 -0.0009496638 -0.000982126
 -0.001015441 -0.001049518 -0.001082198 -0.00111335 -0.001141395 -0.001165695 -0.001182858 -0.001191942 -0.001187791 -0.001171887
 -0.001143294 -0.001107205 -0.001069844 -0.001035613 -0.001011549 -0.0009969543 -0.0009934473 -0.000999339 -0.001013487 -0.001038009
 -0.001073241 -0.001121336 -0.001183824 -0.00125475 -0.001334269 -0.001410188 -0.001481669 -0.001539763 -0.0015843 -0.001614329
 -0.001630488 -0.001637056 -0.001634947 -0.001630076 -0.001623469 -0.001621106 -0.001623278 -0.001634118 -0.001651301 -0.001674468
 -0.001698472 -0.001718738 -0.001730857 -0.001729805 -0.001716747 -0.001689593 -0.001655964 -0.001616822 -0.001582119 -0.001553989
 -0.001538464 -0.001536973 -0.001548214 -0.001572355 -0.001603053 -0.001639966 -0.001676737 -0.001713168 -0.001744895 -0.001771855
 -0.001791249 -0.00180346 -0.001807748 -0.001805392 -0.00179819 -0.00178796 -0.001777757 -0.001769066 -0.001764087 -0.001764316
 -0.001771529 -0.001785748 -0.00180834 -0.001835076 -0.001865851 -0.001892987 -0.001914939 -0.00192666 -0.001926881 -0.00191746
 -0.001898263 -0.001876099 -0.001851381 -0.001832127 -0.001818728 -0.001818269 -0.001830311 -0.001857458 -0.001897423 -0.001945709
 -0.00199883 -0.002047566 -0.002090638 -0.002121338 -0.002143141 -0.002156272 -0.002166114 -0.002176783 -0.002189688 -0.002207333
 -0.002226072 -0.002245261 -0.00226218 -0.002275774 -0.002287314 -0.002296901 -0.002305093 -0.002312034 -0.002315169 -0.002314449
 -0.002309489 -0.002300778 -0.002292651 -0.00228511 -0.002280832 -0.002278638 -0.002276095 -0.002273099 -0.00226748 -0.002261703
 -0.002258336 -0.002259102 -0.002267448 -0.002281288 -0.002300747 -0.002322182 -0.0023437 -0.002364128 -0.002382393 -0.002399914
 -0.002416954 -0.002433852 -0.002451067 -0.002464823 -0.002474954 -0.002476191 -0.002468445 -0.002452163 -0.002428347 -0.002405897
 -0.00238581 -0.002378038 -0.002381458 -0.002398338 -0.002426217 -0.002461059 -0.002501649 -0.002544777 -0.002589567 -0.002634973
 -0.002677632 -0.002715383 -0.002744739 -0.00276256 -0.002771234 -0.002769778 -0.002766017 -0.002761442 -0.002761221 -0.002766706
 -0.002775917 -0.002788978 -0.002799711 -0.002807837 -0.002808662 -0.002802426 -0.002788876 -0.002769168 -0.002748323 -0.002727789
 -0.002714899 -0.00270938 -0.002715038 -0.002728757 -0.002748273 -0.002769527 -0.002787519 -0.002800505 -0.002805337 -0.002803359
 -0.002793948 -0.002780465 -0.002763382 -0.002747249 -0.002732759 -0.002724958 -0.002724625 -0.002734826 -0.002756058 -0.002785875
 -0.002823989 -0.002861517 -0.002897798 -0.002922757 -0.002936843 -0.002936195 -0.002923086 -0.002902005 -0.002875561 -0.002851419
 -0.002830465 -0.002817798 -0.002811529 -0.002812245 -0.002816114 -0.00282103 -0.002823234 -0.002820059 -0.002811057 -0.002794842
 -0.00277517 -0.002752246 -0.00273124 -0.002712955 -0.002699944 -0.00269257 -0.002690098 -0.002692477 -0.002697959 -0.002706523
 -0.002717369 -0.002730461 -0.002745342 -0.002761692 -0.002778326 -0.002794905 -0.002809814 -0.002823821 -0.002837022 -0.002851089
 -0.002868332 -0.002887929 -0.002911174 -0.002932986 -0.002951438 -0.00296234 -0.00296316 -0.002955532 -0.002938992 -0.002917828
 -0.002892728 -0.002864892 -0.002834441 -0.002802238 -0.002768458 -0.002739548 -0.002716117 -0.002707071 -0.002711889 -0.002733536
 -0.002769338 -0.002813004 -0.00286141 -0.002904858 -0.002942071 -0.002966415 -0.002979782 -0.00298074 -0.002974285 -0.002962649
 -0.002952209 -0.002946678 -0.002949381 -0.002963189 -0.002984496 -0.003013829 -0.003042812 -0.003070378 -0.003090538 -0.003102516
 -0.003106776 -0.003103368 -0.003095453 -0.003083118 -0.003068132 -0.003050754 -0.003032914 -0.003015473 -0.00300226 -0.002993642
 -0.002992696 -0.002998187 -0.003009957 -0.003025854 -0.003043524 -0.00306184 -0.003079094 -0.003095588 -0.003111074 -0.003125933
 -0.003140652 -0.003153515 -0.003164454 -0.003170659 -0.003171416 -0.003167601 -0.003158962 -0.003151799 -0.003146409 -0.003147914
 -0.003155688 -0.003165537 -0.003175869 -0.003175694 -0.003165345 -0.003138656 -0.003100173 -0.003055936 -0.003011547 -0.002979286
 -0.002958451 -0.002955192 -0.002960032 -0.002968413 -0.002972107 -0.002963292 -0.00294819 -0.002925079 -0.002910363 -0.002908187
 -0.002925134 -0.002964431 -0.003013279 -0.003071347 -0.003119214 -0.003155986 -0.003172775 -0.003170259 -0.00315232 -0.003120161
 -0.00308196 -0.003038223 -0.002994637 -0.002951531 -0.00291202 -0.002877035 -0.002849381 -0.002829379 -0.002819037 -0.002816245
 -0.002820489 -0.002828712 -0.00283886 -0.002850718 -0.00286352 -0.00287889 -0.002897483 -0.002917998 -0.002940672 -0.002961277
 -0.002979405 -0.002993204 -0.003002607 -0.003009532 -0.003014263 -0.003020393 -0.003028251 -0.003041625 -0.003060281 -0.003086136
 -0.003117239 -0.003150369 -0.003183637 -0.003211314 -0.003236685 -0.003258898 -0.003287973 -0.003330462 -0.003394863 -0.003488732
 -0.003609903 -0.003760891 -0.003930824 -0.004118294 -0.004312044 -0.004511073 -0.004701401 -0.004882236 -0.005034747 -0.005157957
 -0.005239059 -0.005278753 -0.005281154 -0.005247102 -0.005184841 -0.005091085 -0.00495926 -0.00478593 -0.004553762 -0.004277993
 -0.003967625 -0.003655757 -0.00338305 -0.003165613 -0.003032526 -0.002973164 -0.002992361 -0.003067564 -0.003194729 -0.003345542
 -0.003514434 -0.003673198 -0.003815552 -0.003935744 -0.004031599 -0.004121733 -0.004206935 -0.004290333 -0.004370603 -0.004432085
 -0.004475044 -0.004492897 -0.004487562 -0.004462945 -0.004418435 -0.004353875 -0.0042699 -0.00416551 -0.004046865 -0.00391976
 -0.003790263 -0.003665283 -0.003546091 -0.003435025 -0.003332127 -0.003237597 -0.003152598 -0.003077873 -0.003011507 -0.00295349
 -0.002900654 -0.002852523 -0.002810091 -0.002773408 -0.002746214 -0.00272828 -0.002718181 -0.002714975 -0.002712095 -0.002709935
 -0.002705863 -0.002701927 -0.002702127 -0.002706422 -0.002717683 -0.002731947 -0.002745944 -0.002756629 -0.002759612 -0.002757034
 -0.002748716 -0.002737409 -0.002724847 -0.002708992 -0.002689648 -0.002664924 -0.002633612 -0.002602082 -0.002570522 -0.002548715
 -0.00253717 -0.002537657 -0.002549588 -0.002565981 -0.002586375 -0.002604621 -0.002620919 -0.002633182 -0.002640771 -0.002641331
 -0.002633946 -0.002614802 -0.00258723 -0.00255179 -0.002516612 -0.002488122 -0.002471575 -0.00247341 -0.002488068 -0.002516532
 -0.002546456 -0.002574945 -0.002594205 -0.002601919 -0.002599703 -0.002587261 -0.002570047 -0.002548345 -0.002525757 -0.002502277
 -0.002478652 -0.002454821 -0.002430623 -0.002406498 -0.002383703 -0.002363122 -0.002347796 -0.002337368 -0.002333367 -0.002333055
 -0.002334132 -0.002333932 -0.0023288 -0.002320244 -0.002307619 -0.002294442 -0.00228226 -0.002271574 -0.00226319 -0.002254568
 -0.002245252 -0.00223466 -0.002222512 -0.00221135 -0.002201302 -0.002195531 -0.00219412 -0.002199087 -0.002210102 -0.002226535
 -0.002247486 -0.002269436 -0.002291744 -0.002310928 -0.002327397 -0.002340586 -0.002350172 -0.00235618 -0.002356458 -0.002348833
 -0.002333554 -0.002308479 -0.00228079 -0.002251789 -0.002230678 -0.002220729 -0.002223361 -0.002240376 -0.002262758 -0.002290124
 -0.002310845 -0.00232424 -0.002325976 -0.002316536 -0.002301569 -0.002282019 -0.002266761 -0.002255446 -0.002252018 -0.002254486
 -0.002260127 -0.002267188 -0.002271265 -0.002272322 -0.00226817 -0.002260665 -0.002250233 -0.002239543 -0.002230031 -0.002223882
 -0.00222255 -0.00222573 -0.002234199 -0.00224403 -0.002254945 -0.002262035 -0.002264639 -0.002261485 -0.002252444 -0.002242099
 -0.002230842 -0.0022254 -0.002225586 -0.002233919 -0.002249316 -0.002269141 -0.0022926 -0.0023165 -0.002340519 -0.002363329
 -0.002383146 -0.00239799 -0.002404776 -0.002399945 -0.002383169 -0.002351908 -0.002311961 -0.00226386 -0.002216844 -0.002173259
 -0.002139591 -0.002117739 -0.002107505 -0.00210942 -0.002117714 -0.002132093 -0.002146255 -0.002160116 -0.002171482 -0.002180549
 -0.002187582 -0.002192356 -0.002194116 -0.002192641 -0.002186558 -0.002176936 -0.002164636 -0.002151494 -0.002140262 -0.002131301
 -0.002126178 -0.002123508 -0.002123102 -0.002123199 -0.002123084 -0.002121665 -0.00211851 -0.002113173 -0.002105447 -0.002095666
 -0.00208377 -0.00207106 -0.002057603 -0.002045029 -0.002033431 -0.00202451 -0.002018252 -0.002015497 -0.002015997 -0.002019216
 -0.002025053 -0.002032764 -0.002042929 -0.002056289 -0.002073097 -0.002094525 -0.002118845 -0.002145574 -0.002171536 -0.002194792
 -0.002213421 -0.002225869 -0.002232952 -0.002234255 -0.002232518 -0.002227867 -0.002224369 -0.002222465 -0.002224989 -0.002232186
 -0.002241758 -0.002253287 -0.002259573 -0.002260499 -0.002251158 -0.002232995 -0.002208565 -0.002179993 -0.002154078 -0.002131531
 -0.002117081 -0.002109411 -0.002109291 -0.002113813 -0.002121063 -0.00212816 -0.002132457 -0.002134207 -0.002132052 -0.002130558
 -0.002130522 -0.002136196 -0.002148912 -0.002167645 -0.002192778 -0.002218716 -0.00224518 -0.002265182 -0.002278388 -0.002278462
 -0.002265782 -0.002238839 -0.002199834 -0.002156055 -0.002110172 -0.002073294 -0.002045081 -0.002030967 -0.002027003 -0.002030617
 -0.002038314 -0.002045808 -0.002052772 -0.002057521 -0.002061747 -0.00206571 -0.002070915 -0.002077767 -0.002087461 -0.002100361
 -0.002116509 -0.002136122 -0.002157012 -0.002179092 -0.002198283 -0.002214435 -0.002224541 -0.00222898 -0.002228764 -0.002224578
 -0.002220029 -0.002214659 -0.002209508 -0.002202908 -0.002191749 -0.002176594 -0.002155458 -0.002133587 -0.002114278 -0.002103009
 -0.002105251 -0.002118892 -0.002146008 -0.002176754 -0.002209187 -0.00223453 -0.002250277 -0.002256044 -0.002251007 -0.002242176
 -0.002229925 -0.002221013 -0.00221541 -0.002212623 -0.002211859 -0.002207035 -0.002198208 -0.002181643 -0.00215954 -0.002135551
 -0.002111975 -0.002095375 -0.002084778 -0.002082566 -0.002084375 -0.002087319 -0.002087956 -0.002082679 -0.002072614 -0.002056647
 -0.002039452 -0.002021847 -0.002008494 -0.002000475 -0.001999825 -0.002007156 -0.002020475 -0.002039792 -0.002058393 -0.002075886
 -0.002084724 -0.002085259 -0.002075732 -0.002057988 -0.002038448 -0.002018757 -0.002007229 -0.002002665 -0.002007443 -0.002017973
 -0.002030792 -0.002042901 -0.002050072 -0.002052212 -0.002047719 -0.002038542 -0.002025011 -0.002009077 -0.001991197 -0.001973321
 -0.001955704 -0.001940734 -0.00192869 -0.001921379 -0.001918975 -0.001920969 -0.001927275 -0.001936064 -0.00194733 -0.001960418
 -0.001975055 -0.001990201 -0.002004656 -0.002014726 -0.002019423 -0.002014655 -0.002001666 -0.001979917 -0.001952145 -0.001920261
 -0.001887189 -0.001854593 -0.001826492 -0.001804719 -0.001792651 -0.001792684 -0.001800853 -0.001817861 -0.001832619 -0.001843854
 -0.001844472 -0.001833681 -0.001816757 -0.001794262 -0.001778104 -0.001768118 -0.001769365 -0.001779589 -0.001792244 -0.001805092
 -0.001807791 -0.0018018 -0.001783716 -0.001759132 -0.001733636 -0.001712154 -0.001702345 -0.00170231 -0.001714453 -0.001731135
 -0.001750136 -0.001764233 -0.001770653 -0.001766643 -0.001750494 -0.001726354 -0.001693888 -0.001663625 -0.001636232 -0.001620747
 -0.001617178 -0.001623888 -0.001639751 -0.001655199 -0.001669982 -0.001677559 -0.001679392 -0.001676143 -0.001669185 -0.001661797
 -0.001653603 -0.001645698 -0.00163669 -0.001625646 -0.001611696 -0.001593604 -0.00157254 -0.001548095 -0.001523912 -0.001500708
 -0.001482311 -0.001469766 -0.001463995 -0.001465479 -0.001471747 -0.001482732 -0.001494022 -0.001505415 -0.001513283 -0.001517745
 -0.001517972 -0.001514348 -0.001508118 -0.001499422 -0.001489221 -0.001477607 -0.001464823 -0.001451921 -0.001440325 -0.001430962
 -0.001426156 -0.001423092 -0.001421647 -0.00141598 -0.001403022 -0.001381185 -0.001347707 -0.001311112 -0.001271751 -0.001242153
 -0.001224325 -0.001221721 -0.001235019 -0.001256083 -0.001284392 -0.001309417 -0.001330942 -0.001342586 -0.001344582 -0.001334001
 -0.001312182 -0.001280678 -0.001242218 -0.001203157 -0.001164161 -0.001129448 -0.001096631 -0.001064425 -0.001032576 -0.0009994978
 -0.0009691498 -0.0009429342 -0.00092353 -0.000913034 -0.000907505 -0.0009069905 -0.0009048714 -0.0009000516 -0.0008912153 -0.0008780502
 -0.000864554 -0.0008508904 -0.0008400155 -0.0008317279 -0.0008257747 -0.0008217042 -0.0008171904 -0.0008123931 -0.0008062564 -0.0007998885
 -0.000795241 -0.0007923563 -0.0007930321 -0.0007942268 -0.0007940839 -0.0007891429 -0.0007757692 -0.000755198 -0.0007264075 -0.0006938307
 -0.0006586292 -0.0006235942 -0.0005892285 -0.0005585235 -0.0005316124 -0.0005137214 -0.0005053229 -0.0005080536 -0.0005217069 -0.0005396357
 -0.000560831 -0.0005737914 -0.0005782695 -0.0005661964 -0.0005397962 -0.0005008688 -0.0004524999 -0.0004019838 -0.0003500723 -0.0003010067
 -0.0002539835 -0.0002093391 -0.0001673974 -0.0001279312 -9.308805E-05 -6.374096E-05 -4.148456E-05 -2.751368E-05 -2.004472E-05 -1.979459E-05
 -1.954476E-05 -1.9123E-05 -6.378973E-06 1.974607E-05 6.441445E-05 0.0001273643 0.0001964232 0.0002706268 0.0003356941 0.0003930918
 0.0004418156 0.0004843045 0.0005276956 0.0005720562 0.0006216888 0.0006736982 0.0007259338 0.0007758371 0.0008195147 0.0008577576
 0.0008887451 0.0009178928 0.0009458482 0.0009821643 0.001029892 0.001095376 0.001181936 0.001282692 0.001397861 0.001514599
 0.001631854 0.00174358 0.001849551 0.001948069 0.002038965 0.002119307 0.002189831 0.002251108 0.0023066 0.002366191
 0.002434031 0.002524874 0.002636157 0.002772891 0.002924591 0.003082972 0.003240133 0.003388056 0.003523935 0.003644598
 0.003749288 0.003836206 0.003909925 0.003969398 0.00402895 0.004089206 0.004171696 0.004278419 0.004418133 0.004590472
 0.00477206 0.004961429 0.005134438 0.005293809 0.005440001 0.005576039 0.005711111 0.005846624 0.005988858 0.006140457
 0.00630621 0.006492277 0.006704895 0.006952788 0.007244996 0.007581815 0.007971965 0.008387575 0.0088256 0.009245787
 0.009637054 0.009988088 0.01029404 0.01057013 0.01081672 0.01105458 0.01128499 0.01153376 0.01180311 0.01212763
 0.01250308 0.01293419 0.01340154 0.01384428 0.01425815 0.01459808 0.01488666 0.01513686 0.01536934 0.01561095
 0.01586843 0.01615644 0.01646831 0.0168064 0.01715612 0.0175148 0.01786495 0.01820169 0.01851871 0.01881302
 0.01909738 0.01937275 0.01964621 0.01991756 0.02016716 0.02039387 0.02057663 0.02071971 0.02083129 0.0209196
 0.02101561 0.02112098 0.02125931 0.02141485 0.02157374 0.0217261 0.02185197 0.02196283 0.02206175 0.02215491
 0.02224891 0.02233506 0.02241212 0.02247201 0.02251184 0.02253282 0.0225343 0.02252223 0.02249687 0.02246596
 0.02242989 0.02239454 0.02235984 0.0223271 0.02229631 0.02226766 0.02224234 0.02222358 0.02221374 0.02221958
 0.02224206 0.02228656 0.02234992 0.02243091 0.02252677 0.02263433 0.0227552 0.0228902 0.02303766 0.02319906
 0.02336387 0.0235299 0.02369061 0.02384375 0.02399575 0.02414669 0.02430705 0.02447734 0.02466463 0.02486895
 0.02509381 0.02533835 0.02560088 0.02587913 0.02616481 0.026457 0.02674854 0.02704275 0.02734132 0.02764762
 0.02796753 0.02829723 0.02863752 0.02897889 0.02931645 0.0296459 0.02996307 0.03027479 0.0305811 0.03089268
 0.03121195 0.03153787 0.03187121 0.03219735 0.03251561 0.03281515 0.03309662 0.03336339 0.03361566 0.03385738
 0.03408575 0.03429306 0.03447875 0.03463749 0.03477079 0.03488035 0.03496256 0.03501436 0.03503291 0.03501383
 0.03496088 0.03487705 0.03475665 0.0346029 0.03438887 0.03410651 0.03375133 0.03331406 0.03286584 0.0324126
 0.03199497 0.03161427 0.03123539 0.03085672 0.03044891 0.03001481 0.02955446 0.0290709 0.0285758 0.02806577
 0.02754143 0.02699284 0.02640062 0.02577125 0.02509271 0.02440939 0.02375345 0.0231426 0.02260361 0.02210213
 0.02163121 0.02116774 0.02070212 0.02024105 0.01978373 0.01934231 0.01891835 0.01850902 0.01811416 0.01772609
 0.01734542 0.01697622 0.01661993 0.01628748 0.01597715 0.01568978 0.01542142 0.01516325 0.01491421 0.01466891
 0.01442747 0.01418955 0.01395079 0.01371012 0.01345679 0.01318422 0.01288878 0.01255992 0.01223477 0.01191693
 0.01165402 0.01145894 0.01131343 0.01121842 0.01113173 0.01105137 0.01095862 0.01085441 0.01074332 0.01062678
 0.01051553 0.01040826 0.01030548 0.01020682 0.01010954 0.01001933 0.009943102 0.00988729 0.009863854 0.009868558
 0.00990416 0.00995866 0.01002661 0.01010003 0.01017383 0.01024921 0.01032366 0.01041031 0.01050923 0.0106437
 0.01081616 0.01103832 0.01131058 0.01160234 0.01191083 0.01219192 0.0124485 0.01267411 0.01287381 0.01306286
 0.0132403 0.01341147 0.0135738 0.01372275 0.01386473 0.01400282 0.01414916 0.01431766 0.01450251 0.01470921
 0.01491185 0.01509909 0.01526938 0.01541722 0.01556401 0.01571285 0.01587461 0.01605153 0.01623402 0.01642163
 0.01659963 0.01676842 0.0169278 0.01708011 0.01723828 0.01740409 0.01759143 0.0177984 0.01802889 0.01827673
 0.01853273 0.01879574 0.01905883 0.01932932 0.01961157 0.01990797 0.02022388 0.02054824 0.02087915 0.02120406
 0.02151834 0.02182218 0.02211459 0.02240093 0.02268244 0.0229506 0.02320496 0.02342187 0.02360081 0.02372812
 0.02380592 0.02384014 0.02383183 0.02378859 0.02370796 0.02358839 0.02342634 0.02321485 0.02295344 0.02263753
 0.02227195 0.02185781 0.02140279 0.02091077 0.02038823 0.0198374 0.01926571 0.01867291 0.01807746 0.01748045
 0.0169095 0.01636776 0.01586722 0.01540866 0.01497974 0.01457952 0.01419193 0.01381815 0.01345655 0.01310994
 0.01278829 0.01249116 0.01222388 0.01198133 0.01175791 0.0115486 0.01134494 0.01114627 0.01094898 0.01075503
 0.01056524 0.01037856 0.01019554 0.01001171 0.009825702 0.009636658 0.009443435 0.009252492 0.009063952 0.008888445
 0.008726566 0.008587291 0.008470436 0.008376239 0.008303059 0.008241244 0.008189588 0.008138034 0.008087983 0.008037194
 0.007988815 0.007946666 0.007913968 0.007896177 0.007894081 0.007911717 0.00794319 0.00798873 0.008034735 0.008077178
 0.008102776 0.008106465 0.008086405 0.00804022 0.007979061 0.007903328 0.007828304 0.007754882 0.007689752 0.007632392
 0.00757686 0.007522278 0.007459601 0.007390196 0.007313282 0.007232697 0.007157093 0.007089528 0.007039725 0.007006667
 0.006993962 0.006996686 0.007013095 0.007036065 0.007062327 0.007083352 0.007095585 0.00709242 0.007070551 0.007032005
 0.006975187 0.006913826 0.006848583 0.006797365 0.006761256 0.006748998 0.00675982 0.006785044 0.006822115 0.006850676
 0.00686968 0.006863125 0.00683463 0.006783599 0.006717099 0.006647017 0.006577188 0.006518578 0.006466603 0.006422518
 0.00637718 0.006324729 0.006263458 0.006189032 0.006112433 0.006034854 0.005969316 0.005919132 0.005884888 0.005867765
 0.005855953 0.005848845 0.005834561 0.005813055 0.005781428 0.005740851 0.005696792 0.005650918 0.005612082 0.005581548
 0.005567031 0.005568376 0.00558975 0.005627756 0.005681237 0.005743607 0.005809581 0.005873349 0.005929036 0.005978344
 0.006019087 0.006060505 0.006104665 0.006157837 0.006222688 0.006292675 0.006368124 0.006433585 0.006488141 0.006521764
 0.006534816 0.006531274 0.0065128 0.006492252 0.006470148 0.006456188 0.006447769 0.006443799 0.006440537 0.006430496
 0.006412992 0.006383264 0.006344828 0.006298454 0.006248952 0.006199195 0.006152389 0.006110705 0.006074415 0.006044526
 0.006017759 0.005994099 0.005968031 0.005938923 0.005903701 0.005862104 0.005815676 0.005764544 0.005711016 0.005654978
 0.005596598 0.00553595 0.005473119 0.005408898 0.005345123 0.005282948 0.005225271 0.005172562 0.005126797 0.005087189
 0.005054355 0.005025443 0.004999429 0.004972675 0.004943075 0.004910421 0.004873296 0.004837473 0.004803457 0.0047778
 0.004761655 0.004754105 0.004755238 0.004757828 0.004761708 0.00476322 0.004763166 0.004765424 0.004770383 0.00478211
 0.004799317 0.004820485 0.004845069 0.004870479 0.004899258 0.004933234 0.004975265 0.005029323 0.00509386 0.005170374
 0.005252277 0.005337825 0.005420068 0.005496269 0.005565177 0.005625079 0.005683974 0.00574209 0.005811329 0.005892512
 0.005990578 0.00610514 0.006229387 0.006362414 0.006494203 0.00662559 0.00675411 0.006882095 0.007014877 0.007152688
 0.007299622 0.007451703 0.007606182 0.007758228 0.007902187 0.00803726 0.008160936 0.008275425 0.008381338 0.008479192
 0.008569189 0.008651611 0.008725806 0.00879724 0.00886606 0.008941114 0.009023014 0.009115883 0.009219578 0.009331471
 0.009450869 0.00957199 0.009693991 0.009810274 0.009920835 0.01002123 0.01011457 0.01020326 0.01029292 0.01039189
 0.01050273 0.01063221 0.01077514 0.01093239 0.01109175 0.01124952 0.01139283 0.01151691 0.01161685 0.0116895
 0.01174406 0.01178025 0.0118167 0.01185451 0.01191127 0.01198742 0.01209118 0.01222119 0.01237279 0.01254278
 0.01271554 0.01288942 0.01305099 0.0132031 0.01334495 0.01347888 0.01360934 0.01373224 0.01384536 0.01394584
 0.01402904 0.01410208 0.01416642 0.01422932 0.01429446 0.01435852 0.0144213 0.01448028 0.01453421 0.01459293
 0.01465694 0.01473654 0.01483168 0.01494002 0.01506089 0.01518778 0.01532175 0.0154644 0.01561589 0.01577971
 0.0159499 0.0161189 0.01627694 0.01640754 0.01650751 0.01656538 0.01659111 0.01658575 0.01656426 0.01653409
 0.0165005 0.01646784 0.01642986 0.01638572 0.0163324 0.01626842 0.01620392 0.01613926 0.01609119 0.01606014
 0.01605375 0.0160703 0.01610124 0.01614395 0.01618276 0.01621723 0.01623769 0.01624637 0.01624272 0.01622956
 0.01620987 0.01618688 0.01616421 0.01614469 0.01613246 0.0161238 0.01612006 0.01610955 0.01608898 0.01605145
 0.01599337 0.01592388 0.01584291 0.01576628 0.01569515 0.01563726 0.01559261 0.01555911 0.01553574 0.01551433
 0.01549311 0.01545976 0.0154142 0.01534808 0.01526649 0.01517434 0.01507792 0.01498916 0.01490648 0.0148349
 0.0147641 0.01468938 0.01460227 0.01449652 0.01437423 0.01423346 0.01408408 0.0139278 0.01377089 0.01361512
 0.01345499 0.01329038 0.0131103 0.01291454 0.01270112 0.01247124 0.01223389 0.01198946 0.0117449 0.01149864
 0.01124921 0.01099651 0.0107383 0.01047847 0.01022066 0.009969509 0.009731235 0.009506188 0.009297631 0.009100227
 0.008913499 0.00872889 0.008543943 0.008352365 0.008151849 0.007943602 0.007726736 0.007510952 0.007296692 0.007097039
 0.00691248 0.006750915 0.006611542 0.006491832 0.006390258 0.006298452 0.006216406 0.006139704 0.006069309 0.006006123
 0.005947978 0.005893586 0.005837431 0.005773657 0.005699656 0.005610369 0.005511253 0.005402008 0.005293345 0.00518778
 0.005095492 0.005019273 0.004962604 0.004927031 0.004905673 0.004898345 0.004893356 0.004890312 0.004883757 0.004874208
 0.004863902 0.004852693 0.004841399 0.004828731 0.004810697 0.004788009 0.004759057 0.004727845 0.004699379 0.004675832
 0.004662743 0.004655201 0.004653051 0.004647114 0.004632633 0.004606431 0.004564656 0.004516306 0.004461371 0.004414812
 0.004378534 0.004362277 0.00436716 0.004392106 0.004436654 0.004488159 0.004544867 0.004586291 0.004611862 0.004606219
 0.004573921 0.004518771 0.004448388 0.004380485 0.004317244 0.004270676 0.004235419 0.004210489 0.004191403 0.004173912
 0.004159127 0.004146713 0.004137345 0.004131583 0.004127594 0.004124609 0.004124517 0.004127099 0.004138004 0.00415779
 0.004186429 0.004223745 0.004263184 0.00430504 0.004348496 0.004395415 0.004455024 0.004526658 0.004615717 0.00471456
 0.004811732 0.004898063 0.004953694 0.004980644 0.004969766 0.004938002 0.004892215 0.004850704 0.004825084 0.004818927
 0.004837836 0.004870513 0.004915997 0.004962503 0.005007877 0.005049948 0.005088192 0.005127078 0.005166807 0.005211069
 0.005259837 0.005314398 0.005374575 0.005440917 0.005511974 0.005584732 0.005655677 0.005716124 0.005764282 0.005792203
 0.005804907 0.005802677 0.005795565 0.005790322 0.005793621 0.005811612 0.005841407 0.005885061 0.005930783 0.00597708
 0.006011365 0.006030868 0.006036413 0.006027098 0.006023041 0.006025301 0.006055731 0.006113116 0.00619684 0.006302119
 0.006405789 0.006504824 0.006576709 0.006624575 0.006642886 0.006638655 0.006619093 0.006590486 0.006561086 0.006535939
 0.006520272 0.006518563 0.006534684 0.00656862 0.006623065 0.006687762 0.006762593 0.00682971 0.006886689 0.006921769
 0.006933365 0.006924852 0.006896653 0.006863225 0.006825676 0.006800172 0.006786853 0.006795834 0.006824759 0.006872893
 0.00693542 0.007001984 0.007069667 0.007128678 0.007181716 0.007226905 0.007270506 0.00731593 0.007368637 0.007432579
 0.00750852 0.007599309 0.007695842 0.007798368 0.007889026 0.007965354 0.008015632 0.008037998 0.008041188 0.008025886
 0.008013452 0.008004106 0.008009394 0.008026361 0.008046654 0.008067345 0.008073093 0.00806753 0.008048176 0.008026207
 0.008016671 0.008027757 0.008076984 0.008155732 0.008267876 0.008388981 0.008509745 0.008608178 0.008672955 0.008702997
 0.008693291 0.008664415 0.008617646 0.008577151 0.008545516 0.008528212 0.008525215 0.008521792 0.008517655 0.008502829
 0.00848087 0.008464372 0.008456873 0.008478574 0.008524647 0.008597155 0.008684145 0.008768569 0.008843332 0.008891917
 0.008921464 0.008929314 0.008931938 0.008937518 0.008953445 0.008987416 0.009024854 0.009065686 0.009086543 0.009083025
 0.009049854 0.008985163 0.008908499 0.008820981 0.00874928 0.008694033 0.008672087 0.008681786 0.008725101 0.008797372
 0.008885982 0.008985288 0.009076379 0.009158433 0.009220708 0.009268583 0.009303321 0.009330759 0.009355884 0.009380626
 0.009407084 0.00943595 0.009466969 0.009504613 0.009549166 0.009608057 0.009683011 0.009773708 0.00988116 0.009987067
 0.01009041 0.0101671 0.01021786 0.01024019 0.01023875 0.01023686 0.0102369 0.01026102 0.01030332 0.01036301
 0.01043106 0.01049236 0.0105447 0.01057798 0.01059952 0.01061022 0.01062066 0.0106371 0.01066287 0.01070228
 0.01074697 0.01079644 0.01084006 0.01087578 0.01090117 0.01091571 0.01092122 0.01091775 0.01090418 0.01088081
 0.01084938 0.01081203 0.01078042 0.01075727 0.0107581 0.01078266 0.01084007 0.01092337 0.01102851 0.01114231
 0.01124909 0.01134136 0.01140547 0.01145055 0.01147424 0.01149866 0.0115309 0.01158535 0.01166857 0.01177489
 0.01190447 0.01205128 0.01221522 0.01238649 0.01256427 0.01271687 0.01284216 0.01290356 0.01290448 0.01284182
 0.0127253 0.01258518 0.01242826 0.01228534 0.01215576 0.01205373 0.01197074 0.01190438 0.01184302 0.01177597
 0.01170081 0.01161098 0.01151732 0.01142108 0.01133572 0.01126467 0.01121579 0.01119121 0.01119137 0.01121732
 0.01125546 0.01130493 0.01133602 0.01134728 0.01131108 0.01123018 0.01110201 0.01093633 0.01076176 0.01059116
 0.01046947 0.01039781 0.01040494 0.01046587 0.01056908 0.01067968 0.01076523 0.01081476 0.01081047 0.01076634
 0.0106826 0.01057556 0.01044896 0.01031378 0.0101721 0.01003039 0.009889171 0.009755133 0.009628821 0.009537044
 0.009482019 0.009501992 0.00959211 0.009749842 0.00995944 0.01016405 0.01035762 0.01049184 0.01058533 0.01064417
 0.01069118 0.01075817 0.01084491 0.01096703 0.01109988 0.01123653 0.01135151 0.01143126 0.0114751 0.01147592
 0.01146386 0.01144101 0.01144314 0.01147502 0.01153987 0.01163788 0.01173292 0.01182231 0.01186159 0.01185241
 0.01177724 0.01164737 0.01148828 0.01131785 0.01119137 0.01111439 0.01112835 0.01120788 0.01134697 0.01150382
 0.0116435 0.01174374 0.01178042 0.01175842 0.01167175 0.01153967 0.01136207 0.01117415 0.01097944 0.01081796
 0.01069481 0.01062019 0.01059476 0.01059556 0.01062155 0.01065344 0.0106925 0.0107381 0.01078873 0.01084084
 0.01088766 0.01091111 0.010908 0.01086188 0.01078187 0.01066876 0.01054068 0.0104132 0.01029349 0.01019399
 0.01009853 0.0100033 0.009897912 0.009773614 0.009657896 0.009552857 0.009489587 0.009474264 0.009480461 0.009506971
 0.009489422 0.009427869 0.009303584 0.009126251 0.008942953 0.008762243 0.00864193 0.00857743 0.00859257 0.008664561
 0.008772913 0.00888306 0.00894674 0.008946792 0.008843697 0.008669325 0.008420128 0.008163222 0.00792271 0.007741451
 0.00764138 0.007603301 0.007631242 0.007672936 0.007723272 0.007752704 0.007759325</values></Ydata></AB><ScSm><Ydata ylabel="Single channel"><values byteorder="INTEL" format="FLOAT32" numvalues="1814"> 0.06253779 0.0625347 0.06260329 0.06275742 0.0629631 0.06315745 0.0632887 0.0633477 0.06335574 0.06332662
 0.06326823 0.06322294 0.06326341 0.06342179 0.06363949 0.06380302 0.06383425 0.06376246 0.06371085 0.06377684
 0.06390223 0.06389114 0.06359589 0.06308414 0.06259155 0.06230358 0.06224178 0.06240046 0.06285931 0.06356528
 0.06408852 0.06392793 0.06313741 0.06235801 0.06210582 0.06227572 0.06244057 0.06235058 0.06201104 0.06157844
 0.06140195 0.06193496 0.06329046 0.06486553 0.06555103 0.06442875 0.06142888 0.05754559 0.05447006 0.05368055
 0.05540175 0.05830815 0.06052037 0.06110338 0.06051509 0.05965967 0.05891125 0.05822793 0.05778237 0.0579993
 0.05897237 0.06006695 0.06024592 0.05895635 0.05678705 0.05505252 0.05459039 0.05523159 0.05650663 0.05816238
 0.05944478 0.05867954 0.05491482 0.05001894 0.04785827 0.05062388 0.05649386 0.06141416 0.06270653 0.06057819
 0.05695666 0.05388601 0.05274662 0.05388218 0.05654612 0.05952541 0.06187459 0.06295267 0.06225728 0.059861
 0.05684175 0.0547617 0.05470713 0.05686144 0.0604652 0.06388229 0.06534168 0.06424445 0.06156355 0.058813
 0.05704681 0.05685891 0.05853545 0.06176142 0.0655968 0.06901957 0.07134278 0.07228661 0.07204095 0.07114621
 0.07007977 0.06916851 0.06887408 0.06951471 0.07051245 0.07060775 0.06923066 0.06726277 0.06612892 0.06632306
 0.06701519 0.06706291 0.0661679 0.06469288 0.06253146 0.05908062 0.05461747 0.05067723 0.04852168 0.04817441
 0.04932872 0.05184181 0.0546589 0.05574024 0.05428436 0.05216469 0.0520732 0.05465011 0.05814435 0.06055848
 0.06150286 0.06207107 0.0634244 0.06559938 0.06735528 0.06711188 0.06451677 0.0613291 0.06018071 0.06199497
 0.06509532 0.06726386 0.06807986 0.06869013 0.0698042 0.0706005 0.06958362 0.06636203 0.06261503 0.06105946
 0.06308157 0.06734809 0.07077235 0.07079909 0.06712569 0.06177688 0.05752721 0.05597936 0.05712865 0.06041732
 0.06535495 0.07096517 0.07552682 0.07753191 0.07677998 0.07430477 0.07119025 0.06756386 0.06315243 0.05894814
 0.05742577 0.06021279 0.06601214 0.0716774 0.07502022 0.07591143 0.0750659 0.07269088 0.06867981 0.06392108
 0.06074172 0.06110509 0.06424754 0.06710009 0.06750253 0.066181 0.06518032 0.0653111 0.06583621 0.0660394
 0.06625231 0.06728842 0.06927758 0.07135518 0.07249881 0.07245693 0.07179378 0.07123174 0.0709957 0.07064889
 0.06971005 0.06861469 0.06866799 0.07061492 0.07361329 0.0760975 0.07734981 0.07776314 0.07779302 0.07715426
 0.07523358 0.07224465 0.06969924 0.06928768 0.07124467 0.0741992 0.07659808 0.07782659 0.07806771 0.07773423
 0.07718293 0.07660154 0.07608104 0.07587203 0.07631528 0.07735788 0.07844505 0.07907832 0.07922558 0.07907018
 0.07865216 0.07794225 0.07710309 0.07649501 0.07641342 0.07686624 0.07762161 0.07841848 0.07905541 0.07934633
 0.07918806 0.07870927 0.07819636 0.07783062 0.07761951 0.07757384 0.07777405 0.07821213 0.07870746 0.07905616
 0.07919621 0.07918781 0.07909524 0.07893635 0.07872089 0.07850588 0.07840196 0.0784934 0.07873431 0.07897641
 0.07914121 0.07929922 0.07951665 0.07970095 0.07969943 0.07950746 0.07928319 0.07917424 0.07920109 0.07929553
 0.07937593 0.07935984 0.07916453 0.07878083 0.0783601 0.07815185 0.07830451 0.07876152 0.07935666 0.07993282
 0.08036219 0.08056967 0.08059325 0.08054723 0.08048904 0.08037701 0.08017483 0.07995015 0.07985107 0.079992
 0.08035271 0.08078921 0.08115043 0.08137056 0.08146372 0.08149444 0.08155759 0.08170438 0.08186483 0.08191456
 0.08183692 0.08175576 0.08178751 0.08190902 0.08199415 0.08196072 0.08186387 0.08183843 0.0819549 0.08215529
 0.08233614 0.08246377 0.08258741 0.08275266 0.08292009 0.08298376 0.08288769 0.082708 0.082579 0.08254889
 0.08256474 0.08259309 0.0826783 0.08285381 0.08305711 0.08318374 0.08320584 0.08319649 0.08323278 0.08330125
 0.08331662 0.08322166 0.08304774 0.08288269 0.08280034 0.08281901 0.08290099 0.08297732 0.08298823 0.08291994
 0.08280762 0.08269779 0.08261133 0.08255488 0.0825606 0.08267747 0.08289608 0.08310196 0.08314738 0.08298658
 0.08272687 0.08253147 0.08247145 0.08247617 0.08242155 0.08225179 0.08201192 0.08178416 0.08161653 0.08150695
 0.08142954 0.08136591 0.08132669 0.08135083 0.08146495 0.08162611 0.08172324 0.08166788 0.08148199 0.08127455
 0.0811387 0.08109195 0.08109768 0.08111154 0.08111768 0.08114322 0.0812199 0.08131896 0.08136085 0.08131081
 0.08122814 0.08120322 0.08128277 0.08145995 0.08168219 0.08185523 0.08189905 0.08182991 0.08175209 0.08175075
 0.08182254 0.08191822 0.08201312 0.08211364 0.08222464 0.08234306 0.08247858 0.08265648 0.08289181 0.08316569
 0.08342826 0.0836291 0.08375837 0.08386634 0.08403115 0.08429344 0.08462189 0.08494426 0.08520916 0.08541963
 0.08561388 0.08581948 0.08603381 0.08625253 0.08649956 0.08680359 0.08715204 0.08749622 0.08780432 0.08808739
 0.08837239 0.08867062 0.08897843 0.08929823 0.08964986 0.09005295 0.09048819 0.090886 0.09117675 0.09135792
 0.09150466 0.09171544 0.09204224 0.09244599 0.09281027 0.09303398 0.09313776 0.09325241 0.09347618 0.09377303
 0.09404553 0.0942778 0.09455146 0.09492473 0.09534615 0.09570785 0.09595895 0.09614594 0.0963488 0.09659138
 0.09682077 0.0969757 0.09706328 0.09714939 0.09728032 0.0974512 0.0976605 0.09794796 0.09833872 0.0987782
 0.09916586 0.09944433 0.0996278 0.09976068 0.09987828 0.09999344 0.1000952 0.100171 0.1002385 0.1003311
 0.1004438 0.1005306 0.1005746 0.1006226 0.1007315 0.1009129 0.1011522 0.1014439 0.101773 0.1020917
 0.1023622 0.1026179 0.1029325 0.1033128 0.1036612 0.1038765 0.103962 0.1039981 0.1040375 0.1040866
 0.1041712 0.1043506 0.104647 0.1050083 0.105364 0.1056916 0.1060099 0.1063312 0.1066336 0.1068723
 0.1070117 0.1070542 0.1070481 0.1070692 0.1071855 0.1074209 0.1077381 0.1080634 0.1083343 0.1085198
 0.108601 0.1085714 0.1084768 0.1084206 0.108482 0.1086267 0.1087259 0.1086657 0.1084165 0.1080071
 0.1074684 0.1068238 0.1061193 0.1054344 0.1048522 0.1044225 0.1041635 0.1041014 0.1042852 0.1047351
 0.1053825 0.1060899 0.1067337 0.1072392 0.1075378 0.1075438 0.1072142 0.1066091 0.1058614 0.1050963
 0.1043862 0.1037484 0.1031562 0.1025821 0.1020694 0.1017612 0.1018351 0.1024025 0.1034579 0.1048826
 0.1064769 0.1080186 0.1093479 0.1104268 0.1113199 0.1121142 0.1128598 0.1135775 0.114287 0.1149961
 0.115676 0.1162825 0.1168049 0.1172696 0.1176992 0.118091 0.1184305 0.1187078 0.1189278 0.1191174
 0.1193032 0.1194683 0.1195573 0.1195442 0.1194696 0.1193899 0.1193082 0.119173 0.1189304 0.118567
 0.1181309 0.1177401 0.1175698 0.117794 0.1184954 0.1196096 0.1209646 0.1223857 0.1237581 0.1249989
 0.1260206 0.1267655 0.1272628 0.1276149 0.1279255 0.1282509 0.1286003 0.1289558 0.1292936 0.1296022
 0.1298894 0.1301788 0.1304986 0.130862 0.1312451 0.1315955 0.13188 0.1321227 0.1323883 0.1327224
 0.1331099 0.1334947 0.1338427 0.1341731 0.1345132 0.1348419 0.1351092 0.1353062 0.1354839 0.1357031
 0.1359912 0.1363388 0.1367063 0.1370361 0.1372903 0.1374849 0.1376715 0.1378861 0.1381257 0.1383708
 0.1386126 0.1388543 0.139101 0.1393618 0.1396532 0.1399799 0.1403091 0.1405833 0.1407761 0.1409229
 0.1410873 0.1413004 0.1415393 0.1417611 0.1419539 0.1421541 0.1424126 0.1427361 0.1430694 0.1433415
 0.1435265 0.1436579 0.1437895 0.1439551 0.1441571 0.14438 0.1446064 0.1448259 0.1450382 0.1452506
 0.1454694 0.1456939 0.145918 0.1461362 0.1463475 0.1465549 0.1467642 0.1469805 0.147209 0.1474587
 0.1477386 0.1480395 0.1483267 0.1485635 0.1487432 0.1488902 0.1490332 0.1491868 0.1493545 0.1495357
 0.1497276 0.1499271 0.1501328 0.1503454 0.1505649 0.150788 0.1510085 0.1512224 0.1514331 0.1516488
 0.1518753 0.1521143 0.1523634 0.1526132 0.1528462 0.1530495 0.1532288 0.153405 0.1535949 0.1537973
 0.1539984 0.1541886 0.1543724 0.154562 0.154765 0.1549785 0.1551932 0.1554012 0.1555994 0.1557903
 0.1559808 0.1561767 0.1563794 0.156587 0.1567978 0.1570116 0.1572261 0.157435 0.157634 0.1578268
 0.1580209 0.1582188 0.1584186 0.1586213 0.1588304 0.159045 0.1592587 0.1594653 0.1596626 0.1598539
 0.160047 0.16025 0.1604638 0.1606809 0.1608905 0.1610877 0.1612795 0.1614791 0.1616901 0.161904
 0.1621131 0.162321 0.1625327 0.1627468 0.1629592 0.163168 0.1633735 0.1635796 0.1637918 0.1640117
 0.1642352 0.1644592 0.1646817 0.1648983 0.1651054 0.1653033 0.1654938 0.1656808 0.1658709 0.1660662
 0.1662582 0.166439 0.166612 0.1667859 0.1669637 0.1671445 0.1673291 0.1675217 0.1677284 0.1679515
 0.168183 0.168409 0.1686219 0.1688224 0.1690177 0.1692193 0.1694349 0.1696571 0.1698707 0.1700704
 0.1702622 0.1704546 0.1706544 0.1708645 0.1710813 0.1713013 0.1715262 0.1717553 0.1719809 0.1721987
 0.1724123 0.1726236 0.1728327 0.1730434 0.1732579 0.1734702 0.1736738 0.1738689 0.1740612 0.1742605
 0.1744728 0.1746874 0.1748891 0.1750861 0.1753027 0.1755442 0.1757915 0.1760265 0.1762431 0.1764435
 0.1766392 0.1768412 0.1770465 0.1772488 0.1774526 0.1776622 0.1778739 0.1780878 0.1783029 0.1784975
 0.1786209 0.1785614 0.1780443 0.1765227 0.1731632 0.1670122 0.1573719 0.1442393 0.1284666 0.1114613
 0.09466408 0.07917066 0.06562578 0.0543109 0.04528637 0.03848288 0.03375746 0.03098608 0.03016265 0.03150158
 0.03554817 0.04285476 0.05275791 0.06229133 0.06733356 0.06585832 0.05987426 0.05359743 0.04994822 0.04913727
 0.04991791 0.05121893 0.05269393 0.05453363 0.05707633 0.06042217 0.06441051 0.0690321 0.07463371 0.08147638
 0.08920223 0.09698252 0.1042317 0.1110674 0.1180339 0.1254463 0.1330609 0.1403158 0.14678 0.1523683
 0.1572562 0.1616851 0.1658229 0.1697398 0.1734591 0.1769719 0.1801685 0.1827962 0.1845701 0.1853888
 0.1854544 0.1851657 0.1848803 0.1847674 0.1848486 0.1851059 0.1855245 0.1860807 0.1867418 0.1874784
 0.1882647 0.1890763 0.1898921 0.1906885 0.1914414 0.1921413 0.1927974 0.1934172 0.1939934 0.1945149
 0.1949818 0.1954058 0.195802 0.1961787 0.1965348 0.1968707 0.1971942 0.1975116 0.1978175 0.1981024
 0.1983618 0.1985968 0.1988126 0.1990188 0.199223 0.1994266 0.1996325 0.1998479 0.2000739 0.2002987
 0.2005083 0.2007011 0.2008868 0.2010768 0.2012749 0.2014765 0.2016751 0.201871 0.202068 0.2022658
 0.2024615 0.2026558 0.2028518 0.2030484 0.2032397 0.2034232 0.2036055 0.2037995 0.2040105 0.2042266
 0.2044308 0.2046226 0.2048162 0.20502 0.2052302 0.2054428 0.2056558 0.2058668 0.2060766 0.2062893
 0.206498 0.2066827 0.2068339 0.2069713 0.2071295 0.2073286 0.2075587 0.2077908 0.208004 0.2082014
 0.2083973 0.2085971 0.2087933 0.2089758 0.2091466 0.20933 0.2095586 0.2098348 0.2101225 0.2103882
 0.2106305 0.2108611 0.2110871 0.211318 0.2115571 0.2117804 0.211951 0.2120714 0.212204 0.2124252
 0.2127527 0.213123 0.213452 0.2137126 0.2139395 0.2141789 0.2144555 0.2147475 0.2149622 0.2149995
 0.2149016 0.2148798 0.215124 0.2156197 0.2161929 0.2166881 0.2170627 0.2173532 0.2176049 0.2178242
 0.217973 0.2180162 0.2179963 0.2180561 0.2183384 0.2188343 0.2193756 0.2198058 0.2201034 0.2203213
 0.2205001 0.2206649 0.2207851 0.2207151 0.2203443 0.2198731 0.2197653 0.2202976 0.2212479 0.2221347
 0.2226951 0.2230205 0.2232913 0.2235556 0.2237735 0.2238533 0.2235486 0.222604 0.2212507 0.2203398
 0.2206403 0.2220672 0.2238227 0.2251915 0.2259906 0.2263961 0.2266362 0.2268393 0.2269377 0.2266711
 0.2258778 0.2248852 0.2244311 0.2249826 0.2262142 0.2273612 0.2280024 0.2282809 0.2284961 0.228765
 0.2289432 0.2285784 0.2271649 0.2248942 0.2230367 0.2230493 0.2251461 0.2280331 0.2301872 0.2311706
 0.2315151 0.2315929 0.2310827 0.2295567 0.227118 0.2243611 0.2221861 0.2216662 0.2233336 0.2262963
 0.2287466 0.2297434 0.2300074 0.2307353 0.2321759 0.2336266 0.2343485 0.2341439 0.2332383 0.2318735
 0.2301864 0.228581 0.2279572 0.2290738 0.2316274 0.2343575 0.2362105 0.2371409 0.237565 0.2371285
 0.2344552 0.228801 0.2221237 0.2185428 0.2207054 0.2270209 0.2333675 0.2371435 0.2387013 0.239424
 0.2398713 0.2396123 0.2374781 0.2322057 0.224418 0.2178677 0.2168988 0.2221467 0.2298197 0.2352439
 0.2360529 0.2324325 0.2262696 0.2205904 0.2183324 0.2205719 0.2260505 0.2324167 0.2376332 0.2405451
 0.2408849 0.2391645 0.2366262 0.2349341 0.2349685 0.2355206 0.2342128 0.2305053 0.226608 0.2242462
 0.2219922 0.2178939 0.213737 0.2138689 0.2195442 0.226831 0.2310336 0.2314589 0.2305684 0.2294961
 0.2261074 0.2180678 0.2072536 0.1998446 0.2009252 0.2092096 0.2181881 0.2225032 0.2222128 0.2208891
 0.2208537 0.2208098 0.2176706 0.2105835 0.2029928 0.1997509 0.2019552 0.2059624 0.2077099 0.2059656
 0.2009092 0.1928201 0.1844133 0.1816938 0.1888957 0.2033004 0.2173637 0.2249328 0.2235003 0.2128531
 0.1959442 0.1807088 0.1762088 0.1845149 0.1981899 0.2071293 0.2065807 0.1979957 0.1847186 0.169701
 0.156867 0.1515337 0.1572341 0.1721393 0.1890803 0.1990973 0.1963895 0.1828397 0.1684458 0.1641341
 0.171808 0.1830175 0.1884212 0.1862602 0.181059 0.1777892 0.1789985 0.1843422 0.1909541 0.1961452
 0.1995626 0.2001758 0.1933763 0.1765113 0.1562681 0.1442841 0.1450551 0.1536137 0.1648337 0.1780443
 0.1909823 0.1966242 0.1911023 0.181031 0.1778837 0.18581 0.198075 0.2052941 0.2047183 0.2007487
 0.1981302 0.1968998 0.1947277 0.1923669 0.1938597 0.2009628 0.2100818 0.2162823 0.2184212 0.2187092
 0.2189475 0.2191614 0.2188724 0.2179148 0.2163533 0.2146094 0.2133403 0.212701 0.2122009 0.211451
 0.2101443 0.206933 0.1997279 0.1886449 0.1778664 0.1723374 0.1725359 0.1748073 0.1767991 0.1788379
 0.1788559 0.1709558 0.1531969 0.1339968 0.126011 0.1339045 0.1508754 0.1664003 0.1742793 0.1731683
 0.1634572 0.1475129 0.1322467 0.1269464 0.135695 0.1534511 0.1714446 0.1847329 0.1927529 0.1951324
 0.190798 0.1810034 0.1705337 0.1649752 0.1673221 0.1766526 0.18842 0.1956142 0.1921961 0.1791101
 0.1669454 0.1681197 0.1838363 0.2020619 0.2110535 0.2112562 0.2105147 0.2118809 0.2121085 0.2102372
 0.2110284 0.2184371 0.2297955 0.2384446 0.2395835 0.2321653 0.2182706 0.203582 0.1959101 0.1989112
 0.2078844 0.2148427 0.2162243 0.2124415 0.2031725 0.1893099 0.1779374 0.1780798 0.1902484 0.2052496
 0.2146356 0.2184054 0.2211689 0.2242115 0.2239405 0.2173333 0.2069792 0.1994779 0.1989125 0.2032815
 0.2078928 0.2103172 0.210429 0.2076018 0.2010929 0.1931974 0.189286 0.1931442 0.2030409 0.2133295
 0.2194869 0.2209453 0.2197673 0.2179691 0.2161562 0.2136889 0.2100445 0.206589 0.2063125 0.2106223
 0.2170851 0.2219216 0.2243344 0.2267727 0.2310838 0.235967 0.2385577 0.237551 0.234444 0.232241
 0.2330546 0.2364257 0.2396547 0.2401022 0.2377016 0.2352533 0.23584 0.2398826 0.2450787 0.2490279
 0.2511908 0.252388 0.2533897 0.2542448 0.2542503 0.2524881 0.249141 0.2462602 0.2463143 0.2497389
 0.2545202 0.2582733 0.2601623 0.2607514 0.2606907 0.2600318 0.2586316 0.2567886 0.2552453 0.2546044
 0.2548979 0.2557395 0.2567214 0.257596 0.2582587 0.2587212 0.2590579 0.2593131 0.2594884 0.2596135
 0.2597367 0.2598339 0.2598331 0.2597669 0.259805 0.2600625 0.260442 0.2607319 0.2607986 0.2605975
 0.2600612 0.2591174 0.2578203 0.2563422 0.254786 0.2531137 0.2513671 0.2499255 0.2494092 0.2502187
 0.2521634 0.2545702 0.2567423 0.258315 0.2592706 0.2597648 0.2599849 0.2600814 0.26013 0.2601289
 0.260043 0.2598595 0.2596007 0.2592958 0.2589608 0.258616 0.2583035 0.2580628 0.2578854 0.2577095
 0.2574621 0.257105 0.2566496 0.256144 0.2556326 0.255111 0.2545212 0.2538017 0.2529447 0.2520059
 0.2510688 0.2501973 0.2494015 0.2486368 0.2478438 0.2469861 0.2460404 0.2449741 0.2437798 0.2425396
 0.2414027 0.2404637 0.2396831 0.2389445 0.2381572 0.2372835 0.2363089 0.235236 0.2340932 0.2329148
 0.231711 0.2304722 0.2291892 0.2278533 0.2264497 0.2249669 0.2234051 0.221774 0.2200929 0.2183897
 0.2166679 0.214864 0.212849 0.2104782 0.2076346 0.2042438 0.2002913 0.195849 0.1910765 0.1861769
 0.1813401 0.1767129 0.1724088 0.1685273 0.16516 0.1623805 0.1602406 0.1587759 0.1580102 0.1579495
 0.1585772 0.1598527 0.1617047 0.1640227 0.1666607 0.1694555 0.1722455 0.1748873 0.1772884 0.1794494
 0.1814589 0.183407 0.1852986 0.1870639 0.1886441 0.1900352 0.1912531 0.1922947 0.1931521 0.1938415
 0.1944039 0.1948798 0.1952896 0.1956377 0.19593 0.1961816 0.1964046 0.196604 0.1967911 0.1969886
 0.1972147 0.1974702 0.1977513 0.1980676 0.1984436 0.1989024 0.1994448 0.2000437 0.2006641 0.2012921
 0.2019435 0.2026519 0.2034561 0.2043921 0.2054827 0.2067302 0.2081184 0.2096141 0.2111601 0.2126735
 0.2140626 0.2152551 0.2162143 0.2169332 0.2174227 0.2177117 0.217844 0.21786 0.2177787 0.2176026
 0.2173343 0.2169808 0.2165517 0.2160601 0.215519 0.2149313 0.2142968 0.2136357 0.2129912 0.212395
 0.2118369 0.2112797 0.2106997 0.2101064 0.2095239 0.2089615 0.2084105 0.2078623 0.2073206 0.2067905
 0.2062626 0.205709 0.2050935 0.2043905 0.2035969 0.2027234 0.2017691 0.2007116 0.1995284 0.1982233
 0.1968293 0.1953853 0.1939085 0.1923861 0.1907942 0.1891197 0.1873534 0.185479 0.1834988 0.1814723
 0.1794989 0.1776525 0.1759453 0.1743507 0.1728391 0.1713901 0.169992 0.1686465 0.1673718 0.1661935
 0.1651191 0.1641203 0.1631529 0.1622006 0.1612886 0.1604553 0.1597206 0.1590794 0.1585116 0.1579996
 0.1575418 0.1571493 0.1568407 0.1566415 0.1565704 0.1566032 0.1566651 0.1566757 0.1566007 0.1564621
 0.1563085 0.1561754 0.1560672 0.1559754 0.1558976 0.155818 0.1556775 0.1553841 0.1548454 0.1539885
 0.1527806 0.1512547 0.1495045 0.1476536 0.145833 0.1441624 0.1427229 0.1415501 0.1406455 0.1399725
 0.1394562 0.1390309 0.1386904 0.1384816 0.1384552 0.138606 0.1388343 0.1389945 0.1390293 0.139036
 0.1391754 0.1395452 0.1401415 0.1408808 0.1416352 0.1422891 0.1427813 0.1430993 0.1432691 0.1433475
 0.1433789 0.1433559 0.1432535 0.1430744 0.1428341 0.1425357 0.1421767 0.141748 0.1412346 0.1406395
 0.1399811 0.1392537 0.1384388 0.1375391 0.1365473 0.1354316 0.1342385 0.1331674 0.1324736 0.1323143
 0.1326851 0.133438 0.1343744 0.1353716 0.1363584 0.1371532 0.1375153 0.1375087 0.1376818 0.1386726
 0.1406034 0.1429494 0.1450033 0.1463802 0.1470627 0.1471384 0.1466705 0.1457249 0.1443271 0.1424323
 0.140049 0.1373048 0.1343372 0.1312703 0.1283074 0.1256673 0.1234486 0.12166 0.1202884 0.1193551
 0.1189669 0.1187547 0.1168814 0.110993 0.1018623 0.09502128 0.09610856 0.1045246 0.1138549 0.1186505
 0.1187653 0.117106 0.115676 0.1147712 0.1142808 0.1143399 0.115074 0.1163413 0.1177565 0.1189192
 0.1196642 0.1200323 0.1199857 0.1191726 0.1168781 0.1122758 0.1050862 0.09615187 0.0871664 0.07970598
 0.07451418 0.07148253 0.06998365 0.06924999 0.06875971 0.06847419 0.06871122 0.06976165 0.07163975 0.07417734
 0.0772149 0.0805559 0.08381897 0.08657729 0.08869204 0.09034295 0.09170036 0.09271519 0.0932513 0.09328116
 0.09290464 0.09226742 0.09150755 0.09071821 0.0898896 0.08891036 0.08772639 0.08652023 0.08562202 0.08519472
 0.08510728 0.08514054 0.0851872 0.08522445 0.08523116 0.08519064 0.08511516 0.085065 0.08515622 0.08547902
 0.0859765 0.08646536 0.08679134 0.08693433 0.08698158 0.08699372 0.08686288 0.08639613 0.08563755 0.08493598
 0.08448687 0.08398321 0.08301491 0.08170959 0.08067733 0.08034684 0.08058651 0.08095817 0.08112542 0.0810024
 0.08073317 0.08063513 0.08098513 0.08168526</values></Ydata></ScSm><ScRf><Ydata ylabel="Single channel"><values byteorder="INTEL" format="FLOAT32" numvalues="1820"> 0.06069256 0.06085104 0.06094526 0.06097676 0.06097079 0.06097183 0.06102806 0.06116278 0.06135345 0.06154089
 0.06167065 0.06173085 0.06174125 0.0617138 0.06165555 0.06161045 0.06165282 0.06181379 0.06203289 0.06219765
 0.06223292 0.06216675 0.0621151 0.06217068 0.06228231 0.06226722 0.06198128 0.06148266 0.06099753 0.06071172
 0.0606506 0.06080671 0.06125509 0.06194494 0.06245819 0.06230498 0.06153701 0.06078 0.06053727 0.06070631
 0.0608717 0.06078918 0.06046007 0.06003559 0.05986229 0.06038985 0.06172621 0.06327087 0.06393203 0.06281788
 0.05987448 0.05608275 0.05309206 0.05233616 0.054026 0.05686398 0.05901587 0.05957354 0.05899274 0.05816394
 0.05745169 0.05680541 0.05638462 0.05660409 0.05755986 0.0586308 0.05879723 0.05751781 0.05537524 0.05366062
 0.05319274 0.05380664 0.05504853 0.05667346 0.0579363 0.05718885 0.05350071 0.04871228 0.04661496 0.04934503
 0.05510334 0.0599152 0.06116676 0.0590725 0.0555251 0.05252578 0.0514232 0.05254841 0.05516458 0.05808197
 0.06037666 0.0614232 0.06073315 0.05838533 0.05544303 0.05343442 0.0534101 0.055534 0.05905566 0.0623799
 0.06378682 0.06269914 0.06006797 0.05737185 0.05564548 0.0554748 0.05713664 0.06031373 0.06408019 0.06743346
 0.06969854 0.07060255 0.07034182 0.06945917 0.06842689 0.06755801 0.06729221 0.06793123 0.06890734 0.06899408
 0.06764233 0.06571826 0.06461346 0.06480659 0.06548263 0.06552406 0.06464174 0.06319161 0.06106681 0.05767742
 0.05330235 0.04945076 0.04735412 0.04702815 0.04817051 0.05064012 0.05339831 0.0544469 0.05301365 0.05094697
 0.0508799 0.05342167 0.05684565 0.0592021 0.06012514 0.06069422 0.06204174 0.06419127 0.06591605 0.06566314
 0.06309392 0.05994905 0.05882059 0.06060912 0.06365688 0.06578521 0.06659186 0.06721057 0.06833163 0.0691342
 0.06814431 0.06498799 0.06132863 0.05983317 0.06184579 0.06604316 0.0693965 0.06940957 0.06579757 0.06055462
 0.05640165 0.05490261 0.05604922 0.05930165 0.06418569 0.06973775 0.07425483 0.07624613 0.07551275 0.07307615
 0.0700103 0.06644475 0.06211209 0.05799509 0.05653788 0.05933848 0.06510292 0.07072072 0.07403944 0.07493946
 0.07412434 0.07179024 0.0678313 0.06314044 0.0600362 0.06045862 0.06362975 0.06649399 0.06691536 0.06562513
 0.0646539 0.06480432 0.06534824 0.06558159 0.06583694 0.06691886 0.06894909 0.07106249 0.07224034 0.07223226
 0.07160167 0.07107161 0.07086608 0.07054424 0.06962708 0.06856413 0.06867145 0.07068487 0.07374164 0.07626632
 0.07754801 0.07799135 0.0780568 0.07745402 0.07555978 0.07258523 0.07005487 0.06967758 0.07169501 0.07472689
 0.077204 0.07849778 0.07878433 0.07848126 0.07796126 0.07742713 0.07697159 0.07683484 0.07734548 0.07844351
 0.07957229 0.08023565 0.08040643 0.08027278 0.07987787 0.07919511 0.07838913 0.07781969 0.07777995 0.07827749
 0.07908244 0.07993436 0.0806272 0.08096613 0.08084079 0.08038007 0.07987752 0.07952361 0.07933474 0.0793308
 0.07959687 0.08011863 0.08070046 0.08112462 0.08132179 0.08135039 0.0812782 0.08113196 0.08093055 0.08073427
 0.08065206 0.0807673 0.08103678 0.08131666 0.08153097 0.08174711 0.08202209 0.08225249 0.08227974 0.08210225
 0.08188817 0.0817942 0.0818425 0.08196034 0.08206192 0.08206284 0.08187868 0.0815015 0.08109072 0.08090629
 0.08109978 0.08160937 0.0822615 0.0828932 0.08337218 0.08362213 0.08368301 0.08366936 0.08363436 0.08353321
 0.08333381 0.08311415 0.08303368 0.08321388 0.08363129 0.08412571 0.08452588 0.08475712 0.08484343 0.08487101
 0.08495251 0.08513886 0.08534087 0.08541268 0.08533494 0.08524863 0.08528636 0.08542284 0.08551779 0.08548156
 0.08537693 0.08535281 0.08548662 0.08571438 0.085921 0.08606942 0.08621883 0.08642526 0.08664157 0.08673698
 0.08663729 0.08642653 0.0862637 0.08621341 0.08622204 0.08625244 0.08635266 0.08655848 0.08679648 0.0869448
 0.08696996 0.08695598 0.08699228 0.08706571 0.08708388 0.08698652 0.08680733 0.08663522 0.08654274 0.08654888
 0.08661965 0.0866908 0.08670513 0.08664693 0.08654501 0.08644111 0.0863587 0.08631149 0.08633626 0.08648184
 0.08673453 0.08697086 0.08703232 0.08686849 0.08659215 0.08637781 0.0863066 0.08631109 0.08626097 0.08608957
 0.08583721 0.08559084 0.08540264 0.08526649 0.08515181 0.08504599 0.08497395 0.08498479 0.0851026 0.08527051
 0.08536071 0.08527525 0.08503966 0.08477631 0.08459295 0.08451618 0.08450986 0.08452116 0.08452222 0.08453551
 0.08459853 0.08468758 0.08471689 0.08464125 0.08452105 0.08446304 0.08453156 0.08472182 0.08496292 0.08513588
 0.08515117 0.0850381 0.0849202 0.08488959 0.08493838 0.08501315 0.08508798 0.08516689 0.08525194 0.08534172
 0.08545174 0.085613 0.08584274 0.08611792 0.08637899 0.08656756 0.08667491 0.08676007 0.08690949 0.08716574
 0.08749178 0.08780514 0.08804822 0.08822953 0.08840103 0.08859697 0.08880512 0.0890059 0.08921999 0.0894877
 0.08980973 0.09014174 0.09044854 0.09073512 0.091021 0.09130964 0.09159446 0.09188651 0.09222427 0.09263894
 0.09309764 0.09350011 0.09376078 0.09389313 0.09400035 0.094193 0.09451552 0.09491464 0.09526177 0.09545153
 0.09551308 0.09559116 0.09578751 0.09605764 0.0963016 0.09651808 0.09680863 0.09723546 0.09772516 0.09813255
 0.09837954 0.09851684 0.0986549 0.09884584 0.09904322 0.09917861 0.09925616 0.0993427 0.09947804 0.09964535
 0.09984092 0.1001153 0.1005024 0.1009444 0.1013345 0.1016164 0.1018066 0.1019442 0.1020545 0.1021441
 0.1022029 0.102226 0.1022471 0.1023179 0.1024363 0.1025356 0.1025685 0.1025702 0.1026142 0.1027394
 0.1029463 0.1032265 0.1035544 0.1038732 0.1041435 0.104403 0.1047274 0.1051144 0.1054521 0.1056368
 0.1056861 0.1056949 0.1057161 0.1057453 0.1058006 0.1059414 0.1061955 0.1065201 0.1068569 0.1071904
 0.1075345 0.1078857 0.1082052 0.1084384 0.1085494 0.1085502 0.1085058 0.1085062 0.1086206 0.1088625
 0.109186 0.1095174 0.1097978 0.1099969 0.110096 0.1100878 0.1100156 0.1099826 0.1100773 0.1102748
 0.1104413 0.1104434 0.1102372 0.1098525 0.1093308 0.1087066 0.1080318 0.1073829 0.1068349 0.1064325
 0.1061954 0.1061511 0.1063453 0.1067982 0.1074483 0.1081674 0.1088347 0.1093691 0.1096907 0.1097073
 0.1093807 0.1087808 0.1080446 0.1072971 0.1066144 0.1060164 0.1054654 0.1049117 0.1043887 0.1040539
 0.1041072 0.1046666 0.1057119 0.1071038 0.1086302 0.1100701 0.1112779 0.1122366 0.1130274 0.1137415
 0.1144249 0.1150952 0.1157699 0.1164488 0.1170882 0.1176353 0.1180874 0.118491 0.118883 0.1192611
 0.1196043 0.1198969 0.1201394 0.1203543 0.1205676 0.1207627 0.1208767 0.1208689 0.1207728 0.1206543
 0.1205362 0.1203814 0.1201351 0.1197717 0.1193279 0.1189238 0.1187448 0.1189649 0.119647 0.1207019
 0.1219537 0.1232508 0.1245073 0.1256531 0.1265981 0.1272812 0.1277312 0.128045 0.128314 0.1285866
 0.1288771 0.1291815 0.1294853 0.1297763 0.1300557 0.1303394 0.1306488 0.13099 0.1313352 0.1316374
 0.1318771 0.1320941 0.1323597 0.1327113 0.133114 0.1334945 0.1338179 0.1341176 0.1344357 0.1347537
 0.1350139 0.1351998 0.135359 0.1355539 0.1358187 0.1361541 0.1365248 0.1368648 0.1371217 0.1373051
 0.1374721 0.1376676 0.1378945 0.1381368 0.1383866 0.1386416 0.1388955 0.1391484 0.1394184 0.1397197
 0.1400264 0.1402808 0.1404529 0.1405783 0.1407229 0.14092 0.1411513 0.1413801 0.1415931 0.1418154
 0.1420858 0.1424085 0.1427301 0.1429771 0.1431214 0.1432029 0.1432897 0.1434261 0.1436157 0.1438378
 0.1440671 0.1442853 0.1444874 0.1446837 0.1448909 0.1451182 0.1453601 0.1456017 0.1458287 0.1460356
 0.146229 0.1464213 0.1466255 0.1468563 0.1471259 0.1474256 0.1477175 0.1479596 0.1481403 0.1482802
 0.1484069 0.1485404 0.1486943 0.1488751 0.1490782 0.1492923 0.1495059 0.1497111 0.1499054 0.1500933
 0.1502825 0.1504781 0.15068 0.1508869 0.1511003 0.1513256 0.1515645 0.1518065 0.152034 0.1522366
 0.1524202 0.1526005 0.1527913 0.1529946 0.1531985 0.1533887 0.153564 0.1537389 0.1539263 0.1541262
 0.1543281 0.1545237 0.1547145 0.1549093 0.1551139 0.1553223 0.1555234 0.1557131 0.1558962 0.1560782
 0.1562607 0.1564444 0.1566318 0.1568244 0.1570197 0.1572124 0.1574024 0.1575985 0.1578102 0.1580362
 0.1582627 0.1584735 0.1586622 0.1588377 0.1590185 0.1592186 0.1594387 0.1596662 0.1598836 0.1600787
 0.1602542 0.1604265 0.1606111 0.1608123 0.161027 0.1612511 0.1614773 0.1616966 0.161906 0.1621107
 0.1623185 0.1625354 0.1627624 0.1629934 0.1632208 0.163442 0.1636572 0.1638633 0.1640575 0.164242
 0.1644208 0.1645967 0.1647721 0.1649495 0.1651285 0.165309 0.1654934 0.1656847 0.1658836 0.1660874
 0.1662878 0.1664772 0.1666589 0.166846 0.1670466 0.1672575 0.1674709 0.1676784 0.1678744 0.168063
 0.1682557 0.1684568 0.1686603 0.1688605 0.1690597 0.1692634 0.1694749 0.169691 0.169904 0.1701119
 0.1703216 0.1705362 0.1707486 0.1709542 0.1711588 0.1713682 0.1715816 0.1717944 0.1720023 0.1722059
 0.1724143 0.1726346 0.1728596 0.1730775 0.1732877 0.1734959 0.1737045 0.1739157 0.1741294 0.1743391
 0.1745421 0.1747479 0.1749631 0.1751847 0.1754118 0.175646 0.1758786 0.1760979 0.1763056 0.1765092
 0.1767112 0.176913 0.1771119 0.1772878 0.1773966 0.1773297 0.176812 0.1752947 0.1719452 0.1658158
 0.1562215 0.1431682 0.1274983 0.1105959 0.09388615 0.07846582 0.06498732 0.05373566 0.04477158 0.03802487
 0.03334922 0.03061511 0.02981303 0.03115872 0.03520181 0.04249605 0.05237366 0.06186587 0.06686242 0.06535912
 0.05937694 0.05311948 0.04948133 0.04865943 0.04941517 0.05069291 0.05215273 0.05398276 0.05651905 0.05986211
 0.06384989 0.06846853 0.07406001 0.08088309 0.08858147 0.09633227 0.1035547 0.1103639 0.117296 0.1246648
 0.1322334 0.1394456 0.1458679 0.1514127 0.1562613 0.1606617 0.1647802 0.1686826 0.1723944 0.1759095
 0.1791106 0.181732 0.1834873 0.1842855 0.1843372 0.184043 0.183763 0.1836703 0.18378 0.184055
 0.1844662 0.1849959 0.1856317 0.1863586 0.1871501 0.1879745 0.188805 0.1896169 0.1903859 0.1911
 0.1917629 0.1923809 0.1929536 0.193478 0.1939534 0.1943852 0.1947869 0.1951699 0.1955343 0.1958767
 0.1962 0.196507 0.1967941 0.1970582 0.197301 0.1975249 0.1977367 0.1979513 0.1981772 0.1984031
 0.1986143 0.1988137 0.1990161 0.1992284 0.1994439 0.1996517 0.199847 0.2000354 0.2002267 0.2004251
 0.2006279 0.2008322 0.2010356 0.2012325 0.2014196 0.2016039 0.2017971 0.2020001 0.2021998 0.2023827
 0.2025517 0.2027246 0.2029129 0.2031088 0.203302 0.2035016 0.2037252 0.2039708 0.2042173 0.2044471
 0.2046576 0.2048555 0.2050519 0.205255 0.2054579 0.2056421 0.2058003 0.2059487 0.2061154 0.2063172
 0.2065464 0.2067779 0.2069934 0.2071972 0.207403 0.207614 0.2078198 0.2080075 0.2081777 0.2083556
 0.2085745 0.2088352 0.2091002 0.2093401 0.2095611 0.2097803 0.2100044 0.2102379 0.210477 0.2106927
 0.2108526 0.2109713 0.2111184 0.2113639 0.211712 0.2120904 0.2124156 0.2126682 0.2128907 0.2131307
 0.2134046 0.2136823 0.2138726 0.2138858 0.2137763 0.2137651 0.2140423 0.2145783 0.2151784 0.2156791
 0.2160464 0.2163285 0.2165747 0.2167887 0.2169295 0.2169597 0.2169211 0.21696 0.2172255 0.2177137
 0.2182553 0.2186883 0.2189903 0.2192203 0.2194193 0.2195987 0.2197121 0.2196153 0.2192168 0.2187342
 0.2186314 0.2191718 0.2201229 0.2210069 0.2215726 0.2219164 0.2222093 0.2224851 0.2227021 0.2227795
 0.2224832 0.221559 0.2202282 0.219328 0.2196197 0.2210221 0.222753 0.2241138 0.2249247 0.2253476
 0.2255936 0.2257874 0.2258728 0.2256025 0.2248191 0.2238453 0.2234109 0.2239767 0.2252142 0.2263586
 0.2269911 0.2272574 0.2274573 0.2277103 0.2278811 0.2275278 0.2261458 0.2239176 0.2220986 0.2221297
 0.2242162 0.2270755 0.2292109 0.2302004 0.2305646 0.2306525 0.2301362 0.2286039 0.2261784 0.2234548
 0.2213117 0.2207992 0.2224465 0.2253801 0.2278166 0.2288267 0.2291212 0.2298726 0.2313123 0.2327434
 0.2334476 0.2332403 0.2323441 0.2309926 0.2293204 0.2277336 0.2271314 0.2282686 0.2308356 0.2335682
 0.2354132 0.2363296 0.2367409 0.2363009 0.2336398 0.2280134 0.2213701 0.2178137 0.2199793 0.226278
 0.2326071 0.2363872 0.2379757 0.2387352 0.2391981 0.2389267 0.2367709 0.2314925 0.2237251 0.2172132
 0.2162818 0.2215531 0.2292399 0.2346838 0.2355244 0.2319368 0.2257967 0.2201306 0.2178826 0.2201297
 0.2256106 0.2319734 0.2371847 0.2400961 0.2404421 0.2387286 0.2361939 0.2345071 0.2345584 0.2351407
 0.2338713 0.2302034 0.2263367 0.2239856 0.2217222 0.2176099 0.2134534 0.2136066 0.2193189 0.2266499
 0.2308984 0.2313681 0.2305165 0.229472 0.2260962 0.2180579 0.207247 0.1998625 0.2009973 0.2093517
 0.2183931 0.2227562 0.2225091 0.2212338 0.2212485 0.221245 0.2181289 0.2110558 0.2034954 0.2003243
 0.2026373 0.2067647 0.208617 0.2069491 0.2019334 0.1938526 0.1854547 0.1828037 0.190172 0.2048177
 0.2191253 0.2268721 0.2255114 0.2148263 0.1978178 0.1825251 0.1781126 0.1866625 0.2006406 0.2098201
 0.2093904 0.2008204 0.1875008 0.1724322 0.1596109 0.1544569 0.1605749 0.1760959 0.1936879 0.2041752
 0.2016084 0.1879245 0.1734124 0.1693158 0.1775644 0.1894087 0.1952091 0.1931835 0.1880372 0.1849216
 0.1864738 0.1923245 0.1994834 0.2051577 0.2089813 0.2098347 0.2028428 0.1852308 0.1640626 0.1515811
 0.1524966 0.1615793 0.1734555 0.187433 0.2011179 0.2070927 0.2012773 0.1906491 0.1873055 0.1956216
 0.2085055 0.2160798 0.2154619 0.211299 0.2085937 0.2073794 0.2051946 0.2028321 0.204553 0.212203
 0.2219835 0.2286904 0.2311277 0.2316412 0.232142 0.2326518 0.2326444 0.2319283 0.2305761 0.2290475
 0.2280379 0.2276929 0.2274767 0.226983 0.2259011 0.2227762 0.2153223 0.2036301 0.1922128 0.1864292
 0.1868033 0.1893827 0.1916211 0.1938618 0.1938531 0.1852114 0.1658459 0.1448699 0.1359752 0.144207
 0.1622051 0.1785925 0.186692 0.1851088 0.1743364 0.1569543 0.1403287 0.1342973 0.1431463 0.1614992
 0.1800602 0.1936165 0.2016151 0.2037204 0.1988451 0.1883186 0.1771443 0.1711304 0.1733536 0.1828152
 0.1947827 0.202006 0.1982597 0.1845311 0.1717492 0.1727239 0.1887113 0.207328 0.2164734 0.2165824
 0.2157122 0.217008 0.2171447 0.2151402 0.2158875 0.223457 0.2351218 0.244047 0.2452936 0.2377809
 0.2236552 0.2087678 0.2011386 0.2044937 0.2139653 0.2213298 0.2229324 0.2191935 0.2097649 0.1955756
 0.1839698 0.1842847 0.197037 0.2127142 0.2225914 0.226678 0.2297353 0.2330711 0.2329492 0.2262419
 0.2156561 0.2080632 0.2077132 0.2125269 0.2176262 0.2204759 0.2209155 0.2182497 0.2116812 0.2036225
 0.1997224 0.2039566 0.214489 0.2253593 0.2317923 0.2331807 0.2316909 0.229448 0.2271043 0.2240115
 0.2196479 0.2154672 0.2146151 0.2185759 0.2248223 0.2294187 0.2315259 0.2336796 0.2378004 0.2425545
 0.2449832 0.2437316 0.2403345 0.2378767 0.2385157 0.2417653 0.2448581 0.2451125 0.2424888 0.2398649
 0.2403806 0.2444419 0.2496807 0.2536486 0.2558097 0.2570174 0.2580644 0.2589877 0.2590361 0.2572391
 0.2537758 0.2507594 0.2507339 0.2541538 0.2589558 0.262695 0.2645232 0.2650393 0.2649302 0.2642548
 0.2628544 0.2610094 0.2594495 0.2587691 0.2590029 0.2597867 0.2607439 0.2616414 0.2623535 0.2628466
 0.2631627 0.2633508 0.2634468 0.2635091 0.2635821 0.2636157 0.2635274 0.2633735 0.2633561 0.2635959
 0.2639698 0.2642386 0.2642607 0.2640043 0.2634228 0.2624619 0.261184 0.2597536 0.2582514 0.2566173
 0.2548931 0.2534837 0.253033 0.2539362 0.2559699 0.2584302 0.2606177 0.2621896 0.2631478 0.2636452
 0.2638519 0.2639097 0.2639031 0.2638449 0.2637107 0.2634902 0.2631992 0.262855 0.2624672 0.2620589
 0.2616775 0.2613638 0.2611103 0.2608595 0.2605457 0.260135 0.2596384 0.2590966 0.2585443 0.257975
 0.2573418 0.2565966 0.2557302 0.2547848 0.2538379 0.2529621 0.252175 0.2514279 0.2506564 0.249831
 0.2489393 0.2479468 0.2468304 0.245656 0.2445703 0.2436843 0.2429819 0.2423543 0.2416963 0.24095
 0.2400972 0.2391515 0.2381483 0.237111 0.2360323 0.2348958 0.2336957 0.2324247 0.2310692 0.2296279
 0.2281176 0.2265553 0.2249557 0.2233351 0.2216846 0.2199325 0.2179562 0.2156289 0.2128437 0.2095149
 0.2056001 0.2011456 0.1963057 0.1913048 0.1863686 0.1816746 0.1773489 0.1734834 0.1701478 0.1673998
 0.1652944 0.1638756 0.1631633 0.1631581 0.1638532 0.1652186 0.1671789 0.1696172 0.1723956 0.1753598
 0.178341 0.181183 0.1837921 0.1861713 0.1883921 0.1905119 0.1925139 0.1943381 0.1959527 0.1973678
 0.1985922 0.1996183 0.2004533 0.2011411 0.2017362 0.2022653 0.2027223 0.203095 0.20339 0.2036317
 0.2038439 0.204041 0.2042295 0.2044119 0.2045928 0.2047863 0.2050144 0.2053007 0.2056672 0.2061224
 0.2066453 0.2071955 0.2077506 0.2083216 0.2089297 0.2095888 0.210317 0.2111511 0.2121309 0.2132702
 0.2145435 0.215898 0.2172712 0.2185929 0.2197806 0.2207581 0.2214867 0.221972 0.2222435 0.2223371
 0.2222882 0.2221201 0.2218384 0.221447 0.2209659 0.2204262 0.2198513 0.2192494 0.2186179 0.2179516
 0.2172501 0.2165269 0.2158082 0.2151152 0.2144463 0.2137856 0.21313 0.2124968 0.2118992 0.2113268
 0.210761 0.2101964 0.209637 0.2090813 0.2085194 0.2079358 0.2073039 0.2065901 0.2057713 0.2048495
 0.2038379 0.2027397 0.2015493 0.2002682 0.1989073 0.197472 0.1959574 0.1943627 0.1926987 0.1909731
 0.189171 0.1872647 0.185256 0.1832057 0.1812117 0.1793509 0.1776431 0.1760613 0.1745672 0.1731397
 0.1717798 0.1704924 0.1692719 0.1681104 0.1670083 0.1659654 0.164973 0.1640259 0.1631361 0.1623254
 0.1616101 0.1609901 0.1604499 0.1599738 0.1595596 0.1592125 0.1589372 0.1587493 0.1586739 0.1587058
 0.1587838 0.1588252 0.1587797 0.158652 0.1584919 0.1583605 0.1582891 0.158266 0.1582567 0.1582147
 0.1580752 0.15776 0.1571938 0.1563169 0.1551057 0.1535951 0.1518665 0.1500218 0.1481794 0.1464654
 0.1449803 0.1437795 0.142876 0.1422287 0.1417465 0.1413492 0.1410308 0.1408487 0.1408642 0.1410751
 0.1413695 0.141578 0.1416278 0.1416274 0.1417641 0.1421498 0.1427699 0.1435217 0.1442768 0.1449438
 0.145486 0.1458851 0.1461314 0.1462477 0.146272 0.1462204 0.1460964 0.1459103 0.1456619 0.1453449
 0.1449731 0.1445608 0.1440893 0.1435328 0.1428859 0.142147 0.1413209 0.1404238 0.1394331 0.1382892
 0.1370329 0.1358894 0.1351485 0.1349887 0.1354059 0.1362319 0.1372401 0.1382918 0.1393192 0.1401468
 0.1405338 0.1405476 0.1407544 0.1418156 0.1438572 0.1463223 0.1484595 0.1498722 0.1505715 0.1506736
 0.1502377 0.1493066 0.1478926 0.1459578 0.1435279 0.1407408 0.1377281 0.1346042 0.1315743 0.1288651
 0.1265775 0.124724 0.1233046 0.1223574 0.1219993 0.1218413 0.1199727 0.113957 0.1045938 0.09758615
 0.09874113 0.1074502 0.1171262 0.1221531 0.1223384 0.1206348 0.1191075 0.1180968 0.1175219 0.117535
 0.1182562 0.1195212 0.1209262 0.1220699 0.1227986 0.1231646 0.1231302 0.12232 0.1199701 0.1152082
 0.1077565 0.0985205 0.08927794 0.08165038 0.07636845 0.07328445 0.07174214 0.07096188 0.07041962 0.07008336
 0.07028241 0.07131821 0.07322071 0.07584079 0.07901471 0.08250517 0.08588853 0.08873533 0.09093362 0.0926784
 0.09412477 0.09519602 0.09574661 0.09577045 0.09539837 0.09478271 0.09403735 0.09322487 0.09232584 0.09125301
 0.08999991 0.08878262 0.08791902 0.0875283 0.08744486 0.08744086 0.08742002 0.08738594 0.08734675 0.08729386
 0.08722486 0.087188 0.08730055 0.08765009 0.08816275 0.08863833 0.08892474 0.08902204 0.08903157 0.08900517
 0.08882365 0.08830839 0.08752622 0.08681552 0.08633335 0.08575576 0.08470014 0.08333871 0.08230461 0.08200757
 0.08226429 0.08259481 0.08267318 0.08246631 0.08215999 0.08206928 0.08244191 0.08315712 0.08371236 0.08368358
</values></Ydata></ScRf><Data_Parameters_AB><parameter name="DPF">1</parameter><parameter name="NPT">3497</parameter><parameter name="FXV">3996</parameter><parameter name="LXV">500</parameter><parameter name="CSF">1</parameter><parameter name="MXY">0.0350329130887985</parameter><parameter name="MNY">-0.0115019474178553</parameter><parameter name="DAT">31/05/2022</parameter><parameter name="TIM">12:04:03.249 (GMT+2)</parameter><parameter name="DXU">WN</parameter></Data_Parameters_AB><AB__Qtest><MainReport name="Quality Test Report"><Header><Line><Legend>Test result ok/not ok [1/0]: </Legend><Value>0</Value></Line><Line><Legend>Method file: </Legend><Value>C:\Users\Public\Documents\Bruker\OPUS_8.2.28\QT\IRBT_v3_default.QT</Value></Line></Header><Matrix><Line><Legend></Legend><Legend>min</Legend><Legend>max</Legend><Legend>measured</Legend></Line><Line><Value>Absorption (X-Range 1):</Value><Value>0.400000</Value><Value>2.000000</Value><Value>0.029027</Value></Line><Line><Value>Noise (X-Range 4):</Value><Value></Value><Value>0.000300</Value><Value>0.000057</Value></Line><Line><Value>Signal/Noise (X-Range 2):</Value><Value>200.000000</Value><Value></Value><Value>7.653668</Value></Line><Line><Value>Signal/Noise (X-Range 3):</Value><Value>40.000000</Value><Value></Value><Value>7.286862</Value></Line><Line><Value>Water vapour (X-Range 5):</Value><Value></Value><Value>0.000300</Value><Value>0.000021</Value></Line><Line><Value>Signal/Water (X-Range 2):</Value><Value>100.000000</Value><Value></Value><Value>20.343120</Value></Line><Line><Value>Signal/Water (X-Range 3):</Value><Value>20.000000</Value><Value></Value><Value>19.368166</Value></Line><Line><Value>Fringes (X-Range 6):</Value><Value></Value><Value>0.000100</Value><Value>0.000058</Value></Line></Matrix></MainReport></AB__Qtest><Data_Parameters_ScSm><parameter name="DPF">1</parameter><parameter name="NPT">1814</parameter><parameter name="FXV">3996.33169228125</parameter><parameter name="LXV">499.541461535156</parameter><parameter name="CSF">1</parameter><parameter name="MXY">0.260798633098602</parameter><parameter name="MNY">0.0301626548171043</parameter><parameter name="DAT">31/05/2022</parameter><parameter name="TIM">12:04:03.249 (GMT+2)</parameter><parameter name="DXU">WN</parameter></Data_Parameters_ScSm><Data_Parameters_ScRf><parameter name="DPF">1</parameter><parameter name="NPT">1820</parameter><parameter name="FXV">4004.04661832813</parameter><parameter name="LXV">495.683998511719</parameter><parameter name="CSF">1</parameter><parameter name="MXY">0.265039324760437</parameter><parameter name="MNY">0.0298130288720131</parameter><parameter name="DAT">31/05/2022</parameter><parameter name="TIM">12:03:36.164 (GMT+2)</parameter><parameter name="DXU">WN</parameter></Data_Parameters_ScRf><Optic_Parameters_Rf><parameter name="APR">0</parameter><parameter name="APT">Open</parameter><parameter name="BMS">KBr</parameter><parameter name="DTC">RT-DLaTGS_IR-Biotyper [Microplate reader]</parameter><parameter name="HPF">0</parameter><parameter name="LPF">10.0</parameter><parameter name="LPV">4000</parameter><parameter name="PGR">0</parameter><parameter name="RCH">Module port</parameter><parameter name="RDX">0</parameter><parameter name="SRC">MIR</parameter><parameter name="VEL">10.0</parameter><parameter name="SON">Off</parameter></Optic_Parameters_Rf><Acquisition_Parameters_Rf><parameter name="ADT">1</parameter><parameter name="AQM">DD</parameter><parameter name="CFE">0</parameter><parameter name="COR">0</parameter><parameter name="DEL">0</parameter><parameter name="DLY">0</parameter><parameter name="HFW">8000</parameter><parameter name="LFW">0</parameter><parameter name="NSR">32</parameter><parameter name="PLF">AB</parameter><parameter name="RES">6</parameter><parameter name="RGN">-1</parameter><parameter name="STR">0</parameter><parameter name="TCL">MakeCompatibleScalar (0, {WSV=1.000000, ARV=0});</parameter><parameter name="TDL">37</parameter><parameter name="RPO">0</parameter></Acquisition_Parameters_Rf><FT_-_Parameters_Rf><parameter name="APF">B3</parameter><parameter name="HFQ">500</parameter><parameter name="LFQ">4000</parameter><parameter name="NLI">0</parameter><parameter name="PHR">24</parameter><parameter name="PHZ">ML</parameter><parameter name="SPZ">NO</parameter><parameter name="ZFF">1</parameter></FT_-_Parameters_Rf><Optic_Parameters_><parameter name="APR">0</parameter><parameter name="APT">Open</parameter><parameter name="BMS">KBr</parameter><parameter name="CHN">Module port</parameter><parameter name="DTC">RT-DLaTGS_IR-Biotyper [Microplate reader]</parameter><parameter name="HPF">0</parameter><parameter name="LPF">10.0</parameter><parameter name="LPV">4000</parameter><parameter name="PGN">0</parameter><parameter name="RDX">0</parameter><parameter name="SRC">MIR</parameter><parameter name="VEL">10.0</parameter><parameter name="SON">Off</parameter></Optic_Parameters_><FT_-_Parameters_><parameter name="APF">B3</parameter><parameter name="HFQ">500</parameter><parameter name="LFQ">4000</parameter><parameter name="NLI">0</parameter><parameter name="PHR">24</parameter><parameter name="PHZ">ML</parameter><parameter name="SPZ">NO</parameter><parameter name="ZFF">1</parameter></FT_-_Parameters_><Acquisition_Parameters_><parameter name="ADT">1</parameter><parameter name="AQM">DD</parameter><parameter name="CFE">0</parameter><parameter name="COR">0</parameter><parameter name="DEL">0</parameter><parameter name="DLY">0</parameter><parameter name="HFW">8000</parameter><parameter name="LFW">0</parameter><parameter name="NSS">32</parameter><parameter name="PLF">AB</parameter><parameter name="RES">6</parameter><parameter name="SOT">0</parameter><parameter name="TCL">MakeCompatibleScalar (0, {WSV=1.000000, ARV=0});</parameter><parameter name="TDL">37</parameter><parameter name="SPO">0</parameter><parameter name="SGN">-1</parameter></Acquisition_Parameters_><Instrument_Parameters_Rf><parameter name="HFL">15800.168544</parameter><parameter name="LFL">0</parameter><parameter name="LWN">15800.168544</parameter><parameter name="ABP">32197</parameter><parameter name="SSP">1</parameter><parameter name="ARG">2</parameter><parameter name="ASG">2</parameter><parameter name="ASS">32</parameter><parameter name="GFW">16</parameter><parameter name="GBW">16</parameter><parameter name="BFW">0</parameter><parameter name="BBW">0</parameter><parameter name="PKA">7264</parameter><parameter name="PKL">4996</parameter><parameter name="PRA">7447</parameter><parameter name="PRL">5001</parameter><parameter name="P2A">1</parameter><parameter name="P2L">1</parameter><parameter name="P2R">1</parameter><parameter name="P2K">1</parameter><parameter name="DAQ">0</parameter><parameter name="AG2">1</parameter><parameter name="SSM">1</parameter><parameter name="RSN">25535</parameter><parameter name="CRR">0</parameter><parameter name="SRT">1653998616.165</parameter><parameter name="DUR">19.6379852294922</parameter><parameter name="TSC">28.9</parameter><parameter name="MVD">0.215420946478844</parameter><parameter name="AN1">0.225811164307889</parameter><parameter name="AN2">0</parameter><parameter name="VSN">2.485 Apr  4 2017</parameter><parameter name="SRN">0085</parameter><parameter name="CAM">0</parameter><parameter name="INS">IR-Biotyper</parameter><parameter name="FOC">69</parameter><parameter name="RDY">1</parameter><parameter name="ARS">32</parameter></Instrument_Parameters_Rf><Sample_Parameters_><parameter name="BLD"></parameter><parameter name="CNM">Admin</parameter><parameter name="CPY"></parameter><parameter name="DPM"></parameter><parameter name="EXP">IRBT_v3_32Scans.XPM</parameter><parameter name="LCT"></parameter><parameter name="SFM">Microplate, HTS-XT</parameter><parameter name="SNM">220531-1021(v.3)_CGR32F (D_1)_E12_d0cee3af-2f82-4374-85fb-a3ffe1451caf.0</parameter><parameter name="XPP">C:\Users\Public\Documents\Bruker\OPUS_8.2.28\XPM</parameter><parameter name="IST">OK</parameter><parameter name="CPG">1252</parameter><parameter name="UID">c0344b97-1dac-4612-8483-c0a23ed7975f</parameter></Sample_Parameters_><Instrument_Parameters_><parameter name="HFL">15800.168544</parameter><parameter name="LFL">0</parameter><parameter name="LWN">15800.168544</parameter><parameter name="ABP">32197</parameter><parameter name="SSP">1</parameter><parameter name="ASG">2</parameter><parameter name="ARG">2</parameter><parameter name="ASS">32</parameter><parameter name="GFW">16</parameter><parameter name="GBW">16</parameter><parameter name="BFW">0</parameter><parameter name="BBW">0</parameter><parameter name="PKA">7176</parameter><parameter name="PKL">4988</parameter><parameter name="PRA">7398</parameter><parameter name="PRL">5002</parameter><parameter name="P2A">1</parameter><parameter name="P2L">1</parameter><parameter name="P2R">1</parameter><parameter name="P2K">1</parameter><parameter name="DAQ">0</parameter><parameter name="AG2">1</parameter><parameter name="SSM">1</parameter><parameter name="RSN">13393</parameter><parameter name="CRR">0</parameter><parameter name="SRT">1653998643.249</parameter><parameter name="DUR">19.6379852294922</parameter><parameter name="TSC">28.9</parameter><parameter name="MVD">0.212854623794556</parameter><parameter name="AN1">0.225815381099205</parameter><parameter name="AN2">0</parameter><parameter name="VSN">2.485 Apr  4 2017</parameter><parameter name="SRN">0085</parameter><parameter name="CAM">0</parameter><parameter name="INS">IR-Biotyper</parameter><parameter name="FOC">69</parameter><parameter name="RDY">1</parameter></Instrument_Parameters_><History/></OPUSDataFile>
