<?xml version="1.0" encoding="UTF-8" ?>
<OPUSDataFile><AB><Ydata ylabel="Absorbance Units"><values byteorder="INTEL" format="FLOAT32" numvalues="3497"> -0.0899028 -0.08992165 -0.08993509 -0.08994363 -0.08993925 -0.08992156 -0.08989188 -0.08985157 -0.08981818 -0.08979291
 -0.08979365 -0.08981649 -0.08985867 -0.08991281 -0.08995877 -0.08999596 -0.09001172 -0.09001578 -0.09001416 -0.09001501
 -0.0900288 -0.09005215 -0.09008721 -0.09012532 -0.09016344 -0.09019746 -0.09022561 -0.09024728 -0.09026204 -0.0902703
 -0.09027181 -0.09027071 -0.0902672 -0.09026736 -0.09027138 -0.09028289 -0.09030219 -0.09033261 -0.09037466 -0.09043298
 -0.09050553 -0.09059168 -0.09068482 -0.09077477 -0.09085444 -0.09091063 -0.09094357 -0.09094673 -0.09093061 -0.09089737
 -0.09086189 -0.09083069 -0.0908104 -0.09080582 -0.09080786 -0.09081624 -0.09081888 -0.09081376 -0.09080493 -0.09079249
 -0.09079283 -0.09080604 -0.09083834 -0.0908871 -0.09093948 -0.09099372 -0.09103559 -0.09106774 -0.09108935 -0.09110346
 -0.09111536 -0.09112508 -0.09113477 -0.09114359 -0.09115111 -0.09115817 -0.09116502 -0.0911726 -0.09118152 -0.09119121
 -0.09120131 -0.09121292 -0.09122537 -0.09124587 -0.09127468 -0.09132276 -0.09139077 -0.0914848 -0.09160411 -0.09174112
 -0.0918923 -0.09203334 -0.0921595 -0.09223847 -0.0922728 -0.09224815 -0.09217981 -0.09208512 -0.09198061 -0.091894
 -0.0918288 -0.09180088 -0.09179516 -0.09181017 -0.09182345 -0.09182325 -0.09180892 -0.09177405 -0.0917451 -0.09172571
 -0.09173423 -0.09177487 -0.09183007 -0.0918991 -0.09194947 -0.09198144 -0.09199151 -0.09198464 -0.09199089 -0.09201246
 -0.09207683 -0.09217516 -0.09230327 -0.09244347 -0.09256238 -0.09265321 -0.09268893 -0.09268751 -0.09265352 -0.09260613
 -0.09256007 -0.09251561 -0.09247554 -0.09243952 -0.09240447 -0.09238955 -0.09239603 -0.09245043 -0.09255761 -0.09271139
 -0.09291235 -0.09306785 -0.09317281 -0.09312364 -0.09293731 -0.09267151 -0.09234743 -0.09207947 -0.09186507 -0.09175611
 -0.0917389 -0.09181856 -0.09196883 -0.09216698 -0.09237468 -0.09255332 -0.09267943 -0.09272124 -0.09270133 -0.09261535
 -0.09251118 -0.09240213 -0.09231073 -0.09224501 -0.09219782 -0.09216922 -0.09215187 -0.0921452 -0.09215538 -0.09218281
 -0.09223605 -0.09231343 -0.09241007 -0.09252041 -0.09262171 -0.0927083 -0.09275284 -0.09275741 -0.09270982 -0.09262326
 -0.09250654 -0.0923768 -0.09225043 -0.0921401 -0.09205735 -0.09200826 -0.09199841 -0.09202688 -0.09209684 -0.09219366
 -0.09231798 -0.09243891 -0.09255421 -0.09262997 -0.09266386 -0.09264282 -0.092568 -0.09245688 -0.0923124 -0.09216265
 -0.09200849 -0.09186771 -0.09174062 -0.09163652 -0.09155637 -0.09150743 -0.09148619 -0.09149396 -0.09151906 -0.0915532
 -0.09158479 -0.09160263 -0.09160925 -0.09160137 -0.09159065 -0.09158026 -0.09157464 -0.09157544 -0.09158102 -0.09159105
 -0.09160875 -0.0916343 -0.09167008 -0.09171537 -0.09175852 -0.09179772 -0.09181333 -0.09180747 -0.09177595 -0.09172645
 -0.09167626 -0.09163139 -0.091612 -0.0916157 -0.09164975 -0.0917037 -0.09177091 -0.09184423 -0.09191445 -0.09199038
 -0.09207267 -0.09217264 -0.09229739 -0.09243276 -0.09258016 -0.09270632 -0.09280713 -0.09286869 -0.0928899 -0.09286392
 -0.09279002 -0.09265015 -0.09244891 -0.09220503 -0.09193189 -0.09169327 -0.091497 -0.09140086 -0.09139276 -0.09148855
 -0.09164457 -0.09181461 -0.09196212 -0.09202737 -0.09203521 -0.09197921 -0.09190208 -0.09182414 -0.09175397 -0.09170195
 -0.0916457 -0.09158291 -0.09149443 -0.09137592 -0.09123962 -0.09108566 -0.09094533 -0.09082004 -0.09073595 -0.09069255
 -0.09070231 -0.09075808 -0.09084351 -0.09094022 -0.09098877 -0.09098417 -0.09087891 -0.0907063 -0.09048821 -0.09025517
 -0.0900471 -0.08986109 -0.08970989 -0.08957279 -0.08944278 -0.08931066 -0.08917009 -0.08903047 -0.08889297 -0.08876278
 -0.08864185 -0.08851813 -0.08839104 -0.08824496 -0.08808026 -0.08790469 -0.08772126 -0.08755796 -0.0874121 -0.08728831
 -0.08717999 -0.08706906 -0.08695814 -0.08684174 -0.08672934 -0.0866329 -0.08655284 -0.08649953 -0.0864518 -0.08640427
 -0.08632459 -0.08619714 -0.08600642 -0.08574285 -0.08541164 -0.08500983 -0.08456036 -0.08406409 -0.08355423 -0.08303306
 -0.08252242 -0.08202309 -0.08154687 -0.0810948 -0.0806815 -0.08030627 -0.07997659 -0.07968573 -0.07941903 -0.07917184
 -0.07892604 -0.07868737 -0.07845891 -0.07823708 -0.07802927 -0.07780051 -0.07753169 -0.07719807 -0.07677343 -0.07629573
 -0.07576831 -0.07523458 -0.07470562 -0.0741901 -0.07369066 -0.07320508 -0.07273317 -0.07227952 -0.07184467 -0.07144034
 -0.07106657 -0.0707325 -0.07043191 -0.07014887 -0.06986611 -0.06952588 -0.0691226 -0.06860536 -0.06801315 -0.06737291
 -0.06672617 -0.06612556 -0.06557516 -0.06509577 -0.06466987 -0.06429891 -0.06395059 -0.06361824 -0.06326797 -0.06289044
 -0.06247872 -0.06202964 -0.0615572 -0.06106238 -0.06054749 -0.06001217 -0.05944505 -0.05884751 -0.05822328 -0.05757796
 -0.05693716 -0.05630566 -0.05571036 -0.05515134 -0.05464445 -0.05417912 -0.0537525 -0.05334191 -0.0529254 -0.05248919
 -0.05201323 -0.05151132 -0.0509843 -0.05044644 -0.04990679 -0.04934876 -0.04877108 -0.04815521 -0.047495 -0.04682035
 -0.0461321 -0.04548392 -0.04487712 -0.04432782 -0.0438321 -0.04336702 -0.04292782 -0.04248119 -0.04202699 -0.04154522
 -0.0410441 -0.04052892 -0.04000967 -0.03950476 -0.03901138 -0.03853842 -0.03806489 -0.03758182 -0.03706763 -0.03650592
 -0.03590531 -0.03525992 -0.03460624 -0.03394973 -0.03332083 -0.03272537 -0.03216602 -0.03164409 -0.03113674 -0.03064282
 -0.03013989 -0.02962867 -0.02910582 -0.02857162 -0.02802706 -0.02746834 -0.02688347 -0.0262732 -0.02562874 -0.02496466
 -0.02429528 -0.02363687 -0.02301268 -0.02242173 -0.02187289 -0.02135187 -0.02085447 -0.0203702 -0.01989406 -0.01942575
 -0.01896461 -0.01851107 -0.01806632 -0.01761824 -0.01716651 -0.01668765 -0.01618085 -0.01563354 -0.01504836 -0.01444076
 -0.01381566 -0.0132039 -0.01260663 -0.01204474 -0.0115127 -0.01101092 -0.01053063 -0.01005944 -0.009593341 -0.009121975
 -0.008651474 -0.008182808 -0.007721561 -0.007274278 -0.006828107 -0.00638276 -0.005916162 -0.005421703 -0.004899164 -0.004345335
 -0.003787346 -0.00322671 -0.002690791 -0.002180366 -0.00170183 -0.00125355 -0.000824841 -0.0004138619 -6.551853E-06 0.0003972946
 0.0008057007 0.001217545 0.001634482 0.002055134 0.002479165 0.002902959 0.003324098 0.003736368 0.004133077 0.00451743
 0.004885525 0.00525653 0.00563589 0.006035536 0.006462539 0.006897772 0.007340806 0.007763803 0.008163902 0.008541555
 0.008897439 0.009256091 0.009618074 0.00999985 0.01039796 0.01080613 0.01121878 0.01161618 0.0119956 0.01234014
 0.01265528 0.01293958 0.01320447 0.01346088 0.01371513 0.01397545 0.01424128 0.01451314 0.01479445 0.01508629
 0.01539178 0.015714 0.01603966 0.01636853 0.01667876 0.01696821 0.01723334 0.01747452 0.01771058 0.0179427
 0.01818996 0.01845098 0.01872999 0.01902377 0.01932514 0.01963151 0.01993398 0.02023222 0.02052218 0.02080401
 0.02107731 0.02133945 0.02158859 0.02182272 0.0220389 0.02224253 0.02243378 0.02262158 0.02280833 0.02299643
 0.02318685 0.02337682 0.02356614 0.02375448 0.02394188 0.02412978 0.02431799 0.02450554 0.02469187 0.02487418
 0.02505144 0.02521913 0.0253766 0.02551925 0.02564995 0.02576962 0.02588441 0.02600132 0.02612239 0.02625307
 0.02638659 0.02652241 0.02664984 0.02676508 0.02686264 0.02693912 0.02700212 0.02705093 0.02710498 0.02716597
 0.02724361 0.02733769 0.02742652 0.02750756 0.02754574 0.02754413 0.02749591 0.02741245 0.02732461 0.02724124
 0.02719855 0.02719127 0.02723072 0.02729927 0.02738432 0.02746975 0.02753771 0.02759018 0.0276192 0.0276478
 0.02768125 0.02773911 0.02783059 0.02794086 0.02807243 0.02817983 0.02825958 0.02827886 0.02823683 0.02814603
 0.02801006 0.02786976 0.02772533 0.02760059 0.02748978 0.02738524 0.02728697 0.02718744 0.02709859 0.02703613
 0.02700482 0.02702251 0.02706661 0.02713077 0.02718339 0.02720359 0.02718944 0.0271307 0.02705707 0.02697294
 0.02690283 0.02685273 0.02681832 0.02680059 0.0267771 0.02674675 0.02669059 0.02660926 0.02650047 0.02636805
 0.02622874 0.02608781 0.02597109 0.02587991 0.02583203 0.02581973 0.02584237 0.02588375 0.02592846 0.02596099
 0.02596329 0.0259361 0.02587092 0.02578904 0.02569387 0.02560993 0.02554383 0.02550626 0.02549957 0.02552845
 0.02559315 0.02570401 0.02586135 0.02606564 0.02631323 0.02656967 0.02682677 0.02702338 0.027157 0.02718196
 0.02711365 0.02695605 0.02674148 0.02651754 0.02631248 0.02617857 0.0261118 0.02613455 0.02620419 0.02631084
 0.0264016 0.0264559 0.02644573 0.02635754 0.02620156 0.02597455 0.02571353 0.02542069 0.02513535 0.02485941
 0.02461313 0.02439568 0.0242057 0.02404163 0.02389495 0.0237652 0.02364728 0.02353981 0.02343933 0.02333978
 0.02323339 0.02310774 0.02294877 0.0227428 0.02247375 0.02214108 0.02173461 0.02128016 0.02077913 0.02027531
 0.01977773 0.01932142 0.01891409 0.01856342 0.01827201 0.01801932 0.0178041 0.01758812 0.01736984 0.01711712
 0.01683403 0.01652308 0.01619371 0.01588039 0.01558384 0.01532782 0.0150952 0.01487201 0.0146388 0.01436492
 0.01405441 0.01369351 0.01331449 0.0129262 0.01256712 0.01225439 0.01200141 0.01182008 0.01167951 0.01158095
 0.01146296 0.01132034 0.01110835 0.01082497 0.01047761 0.01006991 0.009645307 0.009206193 0.00878852 0.008389949
 0.008021555 0.007680338 0.007365376 0.007073893 0.006802887 0.006545877 0.006295828 0.006045253 0.005785504 0.005515858
 0.005232351 0.004941561 0.004645045 0.004347306 0.00405059 0.003751713 0.003450886 0.003141814 0.002823759 0.002495652
 0.002157464 0.001814719 0.001467747 0.001122262 0.0007779164 0.000435579 9.500993E-05 -0.0002448983 -0.0005823975 -0.0009146816
 -0.001238748 -0.001547646 -0.00184259 -0.0021195 -0.002388915 -0.002655677 -0.002933425 -0.003231999 -0.003553038 -0.003901919
 -0.004264763 -0.004639595 -0.005013834 -0.005384209 -0.005752812 -0.00611929 -0.006490882 -0.006867896 -0.007247214 -0.007628019
 -0.00799935 -0.008361032 -0.008706112 -0.009035914 -0.009350695 -0.009652959 -0.009947795 -0.01023868 -0.01053326 -0.01083374
 -0.01114677 -0.01146881 -0.01180183 -0.01213376 -0.01246108 -0.01276674 -0.01304328 -0.0132829 -0.01347815 -0.01365048
 -0.01379804 -0.01397219 -0.01417711 -0.01445659 -0.01481299 -0.0152386 -0.0157286 -0.01622248 -0.01671419 -0.01713572
 -0.01749103 -0.01775231 -0.01793885 -0.01807664 -0.01819262 -0.01834234 -0.01853832 -0.01882352 -0.01917513 -0.01959739
 -0.02004174 -0.02048305 -0.02089223 -0.02124686 -0.02156428 -0.02184279 -0.02211138 -0.02237803 -0.02263149 -0.02287353
 -0.02305868 -0.02318458 -0.02323251 -0.0232067 -0.02315377 -0.02308341 -0.0230774 -0.02313705 -0.02331606 -0.02359671
 -0.02396968 -0.02440553 -0.02485179 -0.02529208 -0.02568195 -0.02603513 -0.02634498 -0.02663692 -0.02692677 -0.02721586
 -0.02751186 -0.02779434 -0.02805747 -0.02829876 -0.02851427 -0.02872769 -0.02894153 -0.02916451 -0.02939722 -0.02961264
 -0.02980943 -0.02996109 -0.03007127 -0.03014756 -0.03019593 -0.03024264 -0.03028832 -0.03034789 -0.03041847 -0.03050066
 -0.03059529 -0.03070109 -0.03082646 -0.03097519 -0.03116128 -0.03139366 -0.03167946 -0.03202841 -0.03241995 -0.03285664
 -0.03328828 -0.03370838 -0.0340722 -0.03437243 -0.03461419 -0.03479733 -0.03497768 -0.03515835 -0.03539675 -0.0356889
 -0.03604368 -0.03644818 -0.03686141 -0.03727287 -0.03763443 -0.03794953 -0.03819916 -0.0383992 -0.03855878 -0.03869607
 -0.03882772 -0.03896681 -0.03912606 -0.03930663 -0.03951504 -0.03973448 -0.03996376 -0.04017909 -0.04037457 -0.04054927
 -0.04070053 -0.04085939 -0.0410275 -0.041232 -0.04147151 -0.0417323 -0.04200972 -0.04226591 -0.04250348 -0.04270881
 -0.04289409 -0.04308317 -0.04328239 -0.04351777 -0.04377733 -0.04406025 -0.04434596 -0.04461678 -0.04486245 -0.04507075
 -0.04524528 -0.04538466 -0.04549382 -0.04557426 -0.04562635 -0.04564964 -0.04564917 -0.04562407 -0.04559601 -0.04556605
 -0.04557016 -0.04560977 -0.04571374 -0.04587878 -0.04610172 -0.04637304 -0.04665705 -0.04694482 -0.04719539 -0.04740865
 -0.0475644 -0.04767036 -0.04772733 -0.04774368 -0.04772609 -0.04768116 -0.04761311 -0.04752977 -0.04743348 -0.0473357
 -0.04723909 -0.04715486 -0.04708632 -0.04703286 -0.04699652 -0.04695266 -0.04690017 -0.04679722 -0.04664266 -0.04641054
 -0.04610549 -0.04574244 -0.04532972 -0.04490726 -0.04447762 -0.04406838 -0.04367494 -0.04330089 -0.04294389 -0.04260081
 -0.04227569 -0.04197161 -0.04168902 -0.04143211 -0.04118876 -0.04095677 -0.04072047 -0.04047351 -0.04021635 -0.03994515
 -0.03968473 -0.03943599 -0.03923434 -0.03908198 -0.03899919 -0.03898533 -0.03903266 -0.03913835 -0.03928044 -0.03945758
 -0.03965442 -0.03986865 -0.04009046 -0.04030957 -0.04050602 -0.04066645 -0.04076392 -0.04080047 -0.0407637 -0.04067599
 -0.04054597 -0.04039301 -0.04023046 -0.04005188 -0.03986056 -0.03963489 -0.03937085 -0.03905918 -0.038697 -0.03829827
 -0.0378634 -0.03742397 -0.0369825 -0.03658191 -0.03622506 -0.0359536 -0.03576591 -0.03568096 -0.03568918 -0.03577727
 -0.03593444 -0.03613342 -0.03637508 -0.03664456 -0.03696137 -0.03733194 -0.0377879 -0.03834812 -0.03903652 -0.03987181
 -0.0408443 -0.04196355 -0.04317204 -0.04446752 -0.04576219 -0.0470476 -0.04824929 -0.04936174 -0.0503603 -0.05124621
 -0.05204117 -0.0527482 -0.05339873 -0.05399198 -0.05454094 -0.05504413 -0.05550181 -0.05591896 -0.0563028 -0.05666209
 -0.057012 -0.05735323 -0.0576941 -0.05802425 -0.05834056 -0.05863271 -0.05889497 -0.05912538 -0.05932168 -0.05948748
 -0.05962307 -0.05973167 -0.05981403 -0.05986822 -0.05989433 -0.05988171 -0.05983019 -0.05973312 -0.05959503 -0.05944081
 -0.05928158 -0.05917568 -0.05912843 -0.05918923 -0.05934254 -0.05958952 -0.05989786 -0.06022998 -0.06055721 -0.06084156
 -0.06107088 -0.06122601 -0.06131033 -0.06131825 -0.0612665 -0.06115513 -0.06101454 -0.06084777 -0.06069212 -0.06055122
 -0.06045806 -0.06041475 -0.06045297 -0.06057504 -0.06082317 -0.06119889 -0.06173909 -0.06243355 -0.06326924 -0.0642176
 -0.06520022 -0.06618956 -0.06709383 -0.06791746 -0.0686213 -0.06924194 -0.0697971 -0.07031846 -0.0708349 -0.07134522
 -0.07185886 -0.07235503 -0.0728295 -0.07326829 -0.07366744 -0.07402483 -0.0743394 -0.07461522 -0.07485234 -0.07506127
 -0.07524288 -0.0754134 -0.07557371 -0.07573825 -0.07590684 -0.0760872 -0.07627682 -0.07647461 -0.07667454 -0.07686583
 -0.07704227 -0.07718965 -0.07731076 -0.0773997 -0.07747193 -0.07753365 -0.07760155 -0.07768612 -0.07778788 -0.07791205
 -0.07804025 -0.0781708 -0.07828333 -0.07837421 -0.07844283 -0.07848844 -0.07853195 -0.07857433 -0.07863459 -0.07871111
 -0.07880101 -0.07890154 -0.07899816 -0.07909337 -0.07918507 -0.07927998 -0.07939126 -0.07951895 -0.07967183 -0.0798379
 -0.08001135 -0.08017684 -0.08032276 -0.08044214 -0.08052758 -0.08058412 -0.08060962 -0.08062012 -0.08061671 -0.08062184
 -0.08063821 -0.08068132 -0.0807528 -0.08084846 -0.08096749 -0.08109172 -0.08122048 -0.08134004 -0.08145155 -0.08155273
 -0.08164418 -0.08172676 -0.08179962 -0.08186118 -0.08191186 -0.08195099 -0.08198085 -0.08200337 -0.08201984 -0.08203164
 -0.08203921 -0.08204185 -0.08204466 -0.08204748 -0.0820616 -0.08208891 -0.08213903 -0.08221428 -0.08231024 -0.0824272
 -0.08254473 -0.08266173 -0.08275644 -0.08282994 -0.08287916 -0.08290866 -0.08293667 -0.08296607 -0.08301638 -0.08308258
 -0.08316621 -0.08325664 -0.08333995 -0.08341029 -0.08345494 -0.08348008 -0.08348361 -0.08347992 -0.08347392 -0.08347849
 -0.08349859 -0.08354025 -0.08360626 -0.08369365 -0.08380339 -0.08392219 -0.08404945 -0.08416642 -0.08427237 -0.0843548
 -0.08441486 -0.0844552 -0.08447866 -0.08449887 -0.08451775 -0.08454823 -0.08458912 -0.08464514 -0.08471176 -0.08478539
 -0.0848612 -0.08493274 -0.08499964 -0.08505854 -0.08511466 -0.08516951 -0.08522689 -0.08528928 -0.08535323 -0.08541878
 -0.08548065 -0.0855377 -0.08559168 -0.08564249 -0.0856966 -0.08575409 -0.08581527 -0.08587894 -0.08593537 -0.08598354
 -0.08601283 -0.08602515 -0.08601919 -0.08600027 -0.08597755 -0.08595616 -0.0859473 -0.08595209 -0.08597651 -0.08601674
 -0.08607285 -0.08613856 -0.08621167 -0.0862859 -0.08635904 -0.08642713 -0.08648863 -0.08654438 -0.08659394 -0.0866425
 -0.0866904 -0.08674232 -0.08679833 -0.08685775 -0.08692019 -0.08698181 -0.08704279 -0.08710185 -0.08715951 -0.08721719
 -0.08727407 -0.08732969 -0.087382 -0.08742756 -0.08746638 -0.08749631 -0.08752096 -0.08754206 -0.08756229 -0.08758415
 -0.08760525 -0.08762565 -0.08764159 -0.08765177 -0.08765753 -0.08765842 -0.08766086 -0.08766527 -0.0876772 -0.08769675
 -0.08772455 -0.08776008 -0.08779947 -0.08784209 -0.08788276 -0.08792165 -0.08795621 -0.08798765 -0.08801731 -0.0880458
 -0.08807495 -0.08810379 -0.08813174 -0.08815883 -0.08818403 -0.08821069 -0.08823984 -0.0882749 -0.08831799 -0.08836664
 -0.08842164 -0.08847435 -0.08852389 -0.08856243 -0.08858911 -0.08860435 -0.08860841 -0.0886106 -0.08861157 -0.0886216
 -0.08863974 -0.08866768 -0.08870265 -0.08873717 -0.08876981 -0.08879286 -0.08880938 -0.08881944 -0.08882871 -0.08884327
 -0.08886504 -0.08889876 -0.08893884 -0.08898463 -0.0890285 -0.08906714 -0.08909983 -0.08912526 -0.08914817 -0.08916943
 -0.08918847 -0.08920558 -0.08921283 -0.08920999 -0.08919504 -0.08916926 -0.08914353 -0.08911908 -0.08910862 -0.08911006
 -0.08912431 -0.08914752 -0.0891719 -0.08919618 -0.08921485 -0.0892292 -0.08923861 -0.08924407 -0.08924567 -0.08924546
 -0.08924341 -0.08924504 -0.08925192 -0.08926853 -0.08929716 -0.08933307 -0.0893767 -0.0894163 -0.08945091 -0.08947426
 -0.08948627 -0.08949159 -0.08949079 -0.08949152 -0.0894931 -0.08949632 -0.08949979 -0.08949909 -0.08949495 -0.08948601
 -0.08947533 -0.08946694 -0.08946227 -0.08946511 -0.08947288 -0.08948539 -0.0894988 -0.08951092 -0.08952078 -0.08952745
 -0.0895318 -0.08953409 -0.08953368 -0.08953054 -0.08952383 -0.08951341 -0.08950075 -0.08948594 -0.08947085 -0.08945531
 -0.08943826 -0.08941978 -0.08939902 -0.08937762 -0.08935978 -0.08934766 -0.08934869 -0.08936156 -0.08938922 -0.08942504
 -0.08946429 -0.0894993 -0.08952249 -0.08953264 -0.08952545 -0.08950907 -0.08948443 -0.08946177 -0.08944392 -0.08943415
 -0.08943383 -0.0894386 -0.08944833 -0.08945728 -0.08946519 -0.08946797 -0.08946557 -0.08945544 -0.08943839 -0.08941624
 -0.0893913 -0.08937158 -0.08935872 -0.0893611 -0.08937605 -0.08940439 -0.08943992 -0.08947697 -0.08951031 -0.08953415
 -0.08954747 -0.08954771 -0.08953774 -0.08951714 -0.0894924 -0.08946433 -0.08944071 -0.08942293 -0.08941427 -0.08941546
 -0.08942102 -0.0894306 -0.08943482 -0.08943369 -0.08942368 -0.08940596 -0.08938455 -0.08936059 -0.08933973 -0.08932247
 -0.08931227 -0.08930977 -0.08931795 -0.08933537 -0.08936357 -0.08939521 -0.0894267 -0.08944918 -0.08945597 -0.08944824
 -0.08942295 -0.08939252 -0.08935916 -0.08933214 -0.08931401 -0.08930129 -0.08929411 -0.08928439 -0.08927178 -0.08925443
 -0.08923274 -0.08921033 -0.08918743 -0.08916692 -0.08914865 -0.0891334 -0.08912128 -0.089113 -0.08910824 -0.08910715
 -0.08910843 -0.08911079 -0.08911322 -0.0891142 -0.08911471 -0.08911502 -0.08911551 -0.08911717 -0.08911611 -0.08911201
 -0.0890995 -0.0890771 -0.08904714 -0.08900928 -0.08897389 -0.08894148 -0.08891922 -0.08890666 -0.08890132 -0.08890247
 -0.08890499 -0.088909 -0.08891267 -0.08891532 -0.08891512 -0.08890997 -0.08889521 -0.08887139 -0.08883583 -0.08879431
 -0.08874969 -0.08870798 -0.08867387 -0.08864675 -0.08862824 -0.08861288 -0.08859941 -0.08858577 -0.08857096 -0.08855922
 -0.08855089 -0.08854859 -0.08855237 -0.08855656 -0.0885608 -0.08855835 -0.08855065 -0.08854143 -0.08853366 -0.08853942
 -0.08855949 -0.08860225 -0.08866519 -0.08874764 -0.08884853 -0.08896474 -0.0891013 -0.08925902 -0.08944849 -0.08967461
 -0.08994651 -0.0902693 -0.09064329 -0.09107043 -0.09154375 -0.09206329 -0.092618 -0.09320806 -0.09380789 -0.09441573
 -0.09497125 -0.09546978 -0.0958363 -0.09607299 -0.09615026 -0.09607816 -0.09587745 -0.09554864 -0.09509689 -0.09453512
 -0.09386944 -0.09315597 -0.09245431 -0.09181231 -0.09128966 -0.09088971 -0.09063254 -0.09049827 -0.09048802 -0.09056818
 -0.09073758 -0.09093596 -0.09115747 -0.09133248 -0.09145255 -0.09150044 -0.09147526 -0.09140878 -0.09130266 -0.09118448
 -0.09105455 -0.09092876 -0.09080643 -0.09069504 -0.09059083 -0.09048987 -0.09038702 -0.09027261 -0.09014338 -0.08999155
 -0.0898179 -0.08961824 -0.0894023 -0.08917145 -0.08894297 -0.08872348 -0.08852252 -0.08834489 -0.08818667 -0.08804822
 -0.08792322 -0.08781113 -0.08770825 -0.08761434 -0.08752261 -0.08743263 -0.08733664 -0.0872355 -0.08712964 -0.08702107
 -0.08691739 -0.08681876 -0.08673009 -0.08664852 -0.08657195 -0.08649745 -0.08642035 -0.08634096 -0.08625719 -0.08617277
 -0.08608888 -0.08600926 -0.08593609 -0.08586876 -0.08580804 -0.08574978 -0.08569337 -0.08563647 -0.08557855 -0.08552194
 -0.08546675 -0.08541762 -0.08537477 -0.08534255 -0.08532061 -0.08531004 -0.08530891 -0.08531152 -0.08531518 -0.08531024
 -0.0852967 -0.08526918 -0.08523162 -0.0851861 -0.08513683 -0.08508793 -0.08504118 -0.08499853 -0.08496071 -0.08492861
 -0.08490143 -0.08487971 -0.08485933 -0.08484004 -0.08481634 -0.08478755 -0.08475243 -0.08471091 -0.08466613 -0.08461829
 -0.08457074 -0.08452325 -0.08447605 -0.08442874 -0.08437975 -0.08432944 -0.08427758 -0.08422528 -0.08417442 -0.08412532
 -0.08407956 -0.08403549 -0.08399212 -0.08394888 -0.08390421 -0.08386184 -0.0838224 -0.08379057 -0.08376846 -0.08375427
 -0.08374895 -0.08374317 -0.08373626 -0.08371925 -0.08369161 -0.08365314 -0.08360443 -0.08355349 -0.083501 -0.08345556
 -0.08341644 -0.08338611 -0.08336255 -0.08334233 -0.08332381 -0.08330272 -0.0832786 -0.08324911 -0.08321501 -0.08317577
 -0.08313334 -0.08308818 -0.08304329 -0.08299962 -0.08296022 -0.08292604 -0.0828986 -0.08287854 -0.0828645 -0.08285666
 -0.08285022 -0.08284491 -0.08283425 -0.08281818 -0.08279414 -0.0827631 -0.08272933 -0.08269411 -0.08266477 -0.08264077
 -0.08262536 -0.08261538 -0.08260736 -0.08259796 -0.08258126 -0.08255786 -0.0825252 -0.08248851 -0.08244971 -0.08241355
 -0.08238295 -0.08235724 -0.08233736 -0.08231889 -0.08230129 -0.08228119 -0.08225813 -0.08223137 -0.08220087 -0.08216786
 -0.08213257 -0.08209822 -0.082065 -0.08203604 -0.08201089 -0.08198983 -0.08197171 -0.08195379 -0.08193555 -0.08191447
 -0.08189154 -0.08186667 -0.08184162 -0.08181778 -0.0817964 -0.08177881 -0.08176462 -0.08175418 -0.08174618 -0.08174023
 -0.0817361 -0.0817337 -0.0817332 -0.08173481 -0.08173607 -0.08173688 -0.08173157 -0.08172002 -0.08169858 -0.08166825
 -0.08163292 -0.08159444 -0.08156218 -0.08153622 -0.08152266 -0.08151775 -0.08151852 -0.08152013 -0.08151471 -0.08150242
 -0.08147942 -0.08145168 -0.0814217 -0.08139302 -0.08136879 -0.08134494 -0.08132111 -0.08129317 -0.08125957 -0.08122399
 -0.08118641 -0.08115357 -0.08112594 -0.08110426 -0.08108819 -0.08107284 -0.08105801 -0.08103974 -0.08101849 -0.08099384
 -0.08096644 -0.08093739 -0.08090796 -0.08088046 -0.08085664 -0.08083981 -0.08083004 -0.08082943 -0.08083444 -0.0808444
 -0.0808536 -0.08085966 -0.08085907 -0.08084991 -0.08083356 -0.08080964 -0.08078233 -0.08075209 -0.08072151 -0.08069082
 -0.08065888 -0.08062565 -0.0805892 -0.08055004 -0.08051024 -0.08047102 -0.08043852 -0.08041292 -0.08039879 -0.08039339
 -0.08039466 -0.08039858 -0.08039922 -0.0803948 -0.08038116 -0.08036042 -0.08033232 -0.08030026 -0.08026542 -0.08023047
 -0.08019616 -0.08016492 -0.0801372 -0.08011521 -0.08009939 -0.08008903 -0.08008417 -0.08007958 -0.08007493 -0.0800642
 -0.08004761 -0.08002338 -0.0799925 -0.07995787 -0.07992034 -0.07988358 -0.07984793 -0.07981561 -0.07978673 -0.07976244
 -0.07974225 -0.07972632 -0.07971336 -0.07970238 -0.07969347 -0.07968604 -0.0796821 -0.07968257 -0.07968644 -0.07969451
 -0.07969969 -0.07970149 -0.07969231 -0.07967155 -0.07963999 -0.07959805 -0.07955395 -0.07950818 -0.07946839 -0.07943394
 -0.07940672 -0.0793851 -0.07936583 -0.0793478 -0.07932711 -0.07930448 -0.07927898 -0.07925234 -0.07922632 -0.07920023
 -0.07917505 -0.07914674 -0.07911371 -0.07907409 -0.07902615 -0.07897405 -0.07891781 -0.07886427 -0.07881433 -0.07877081
 -0.078734 -0.07870252 -0.07867628 -0.07865373 -0.07863488 -0.07861944 -0.0786069 -0.07859541 -0.07858375 -0.0785677
 -0.07854685 -0.07851791 -0.07848267 -0.07844164 -0.07839753 -0.07835272 -0.07830931 -0.07826892 -0.07823358 -0.07820442
 -0.07818289 -0.07817036 -0.07816352 -0.07816289 -0.07815933 -0.07815204 -0.07813274 -0.07810078 -0.0780547 -0.07799472
 -0.07792455 -0.07784478 -0.07776096 -0.07767406 -0.07759092 -0.07751232 -0.07744433 -0.07738584 -0.07733823 -0.0772986
 -0.0772638 -0.07723196 -0.07719976 -0.07716841 -0.07713757 -0.07710903 -0.0770843 -0.07706099 -0.07703944 -0.07701374
 -0.07698279 -0.07694323 -0.07689424 -0.07683744 -0.07677279 -0.07670403 -0.07663135 -0.07655874 -0.07648651 -0.07641907
 -0.07635619 -0.07629959 -0.07624801 -0.07619855 -0.07615092 -0.07610235 -0.07605533 -0.07601196 -0.07597416 -0.0759458
 -0.07592306 -0.07590602 -0.07588662 -0.07586139 -0.07582574 -0.07577685 -0.07571734 -0.0756468 -0.07557119 -0.0754911
 -0.07541123 -0.07533194 -0.07525589 -0.07518329 -0.07511777 -0.07505964 -0.07501336 -0.07497811 -0.07495361 -0.07493719
 -0.07492162 -0.07490469 -0.07487836 -0.0748433 -0.074797 -0.0747409 -0.07467532 -0.07460184 -0.07452016 -0.07443625
 -0.07435142 -0.07427458 -0.07420944 -0.07415696 -0.07411963 -0.07408494 -0.07405224 -0.07400573 -0.07394405 -0.07386438
 -0.07376727 -0.07366651 -0.07356337 -0.07347482 -0.07339976 -0.07334342 -0.07330206 -0.07326801 -0.07323878 -0.07320558
 -0.07316914 -0.07312711 -0.07308016 -0.07302863 -0.07297132 -0.07290705 -0.07283698 -0.07276063 -0.07268216 -0.07260309
 -0.07252383 -0.07244518 -0.07236316 -0.07227714 -0.07218674 -0.07209169 -0.07199847 -0.0719075 -0.07182711 -0.07175723
 -0.07170167 -0.07165895 -0.07162549 -0.07159846 -0.07156841 -0.07153296 -0.07148229 -0.07141797 -0.07133684 -0.07124455
 -0.07114522 -0.07104269 -0.07094122 -0.07084034 -0.07074118 -0.07064122 -0.07053987 -0.07043546 -0.07032703 -0.07021718
 -0.07010561 -0.06999955 -0.0698994 -0.0698132 -0.0697412 -0.06968656 -0.0696482 -0.06961987 -0.06959867 -0.06956856
 -0.06952789 -0.06946185 -0.06937516 -0.06926893 -0.06915034 -0.06903036 -0.06891085 -0.06879764 -0.0686898 -0.06858799
 -0.06849249 -0.06840419 -0.0683206 -0.06824229 -0.06816152 -0.06807697 -0.06798255 -0.06787683 -0.06776201 -0.06763804
 -0.06751039 -0.06737931 -0.0672488 -0.06711898 -0.06699288 -0.06687022 -0.06675162 -0.06663627 -0.06652198 -0.06640871
 -0.06629527 -0.06618218 -0.06607024 -0.06595828 -0.06584565 -0.06573091 -0.0656122 -0.06549136 -0.06536837 -0.06524632
 -0.06512646 -0.06500915 -0.06489483 -0.06478196 -0.06467029 -0.06456 -0.06445106 -0.0643451 -0.064242 -0.06413853
 -0.06403317 -0.06391206 -0.0637735 -0.06359976 -0.06339563 -0.06316353 -0.06291373 -0.0626691 -0.06243204 -0.06221773
 -0.0620181 -0.06183077 -0.06164891 -0.06146503 -0.0612838 -0.06110429 -0.06093621 -0.06078378 -0.06064617 -0.0605266
 -0.06040546 -0.06028243 -0.0601242 -0.05992789 -0.05967876 -0.0593775 -0.05905681 -0.05871958 -0.0584068 -0.05811455
 -0.05784807 -0.05759846 -0.05734253 -0.05707431 -0.05676876 -0.05643018 -0.05605085 -0.05564587 -0.05522621 -0.05480533
 -0.05439837 -0.05400142 -0.05362045 -0.05323294 -0.05283282 -0.05240557 -0.05194345 -0.05146434 -0.0509687 -0.05048021
 -0.05000114 -0.04953437 -0.04908013 -0.04864111 -0.04821862 -0.04782716 -0.04746521 -0.04713617 -0.04683164 -0.04652928
 -0.04622092 -0.04587606 -0.04550032 -0.04508544 -0.04464843 -0.04420424 -0.04376056 -0.04332874 -0.04290495 -0.04249014
 -0.04208023 -0.04167427 -0.04126943 -0.04086768 -0.04045077 -0.04002027 -0.03952514 -0.03896148 -0.03829037 -0.03751237
 -0.03668604 -0.0358173 -0.03498927 -0.03419353 -0.03343331 -0.03269718 -0.03195076 -0.03119282 -0.03040493 -0.02958871
 -0.02874413 -0.02785735 -0.02692274 -0.0259046 -0.02477611 -0.02351813 -0.02209722 -0.02058047 -0.01896944 -0.01738008
 -0.01584149 -0.01439838 -0.01306477 -0.01181734 -0.01065631 -0.009542148 -0.008472097 -0.007385768 -0.006276746 -0.005052826
 -0.003722594 -0.002262032 -0.0007175754 0.000771209 0.002194701 0.003449295 0.004589066 0.005650211 0.006671702 0.007712374
 0.00877021 0.009862482 0.01097581 0.01210593 0.0132513 0.0144153 0.01557438 0.01672752 0.0178349 0.01888823
 0.01988963 0.02083807 0.02175356 0.022636 0.02345777 0.02421529 0.02486053 0.02539719 0.02581694 0.02612864
 0.02635412 0.02650161 0.02659678 0.02664815 0.02667852 0.02669279 0.02670298 0.02671384 0.02673161 0.02676023
 0.02680683 0.02685765 0.02691307 0.02694595 0.02695038 0.02690926 0.02681791 0.02668091 0.02649704 0.02629721
 0.02608302 0.02588611 0.02570479 0.02553492 0.02537257 0.02519516 0.02500285 0.02478207 0.02454053 0.0242845
 0.02402925 0.02379875 0.02360612 0.02347189 0.0234073 0.0234214 0.02353684 0.02376691 0.02412459 0.02462506
 0.02523337 0.02594713 0.02672158 0.02754692 0.02842572 0.02935648 0.03036405 0.03144936 0.03261838 0.03387
 0.03519471 0.0365921 0.03805596 0.03958574 0.04117665 0.04282805 0.04453541 0.04630076 0.04812643 0.05001048
 0.05195508 0.0539479 0.0559822 0.0580448 0.06012673 0.06222426 0.06433388 0.06645737 0.06859628 0.07074258
 0.07289877 0.07502791 0.07712818 0.07915001 0.08109146 0.08294859 0.08472548 0.08647025 0.0881761 0.089841
 0.09143859 0.09287535 0.09415077 0.09521246 0.09608564 0.09679282 0.09733415 0.09771881 0.09794118 0.09799476
 0.09789399 0.09765793 0.09724323 0.09666616 0.09576086 0.09448409 0.09276658 0.09055087 0.08819889 0.0857371
 0.08343243 0.08129442 0.0791802 0.07708083 0.07485002 0.07250106 0.07003126 0.06745382 0.06482469 0.06211385
 0.05930312 0.05631093 0.0529737 0.04933079 0.04526717 0.04113859 0.0371866 0.03359218 0.03058433 0.02791982
 0.02556507 0.02331305 0.02109151 0.01889822 0.01671795 0.01462147 0.01261668 0.01069946 0.008869199 0.007061332
 0.005275602 0.003483782 0.001696572 -4.378119E-05 -0.001727071 -0.003293477 -0.004749569 -0.006077193 -0.007295014 -0.008421813
 -0.009477065 -0.01048453 -0.01146796 -0.01244523 -0.01345343 -0.01451779 -0.01565282 -0.01689395 -0.01812454 -0.0193345
 -0.02036837 -0.02118471 -0.02183861 -0.02232682 -0.02278256 -0.02321207 -0.02366751 -0.02414498 -0.02461643 -0.02507771
 -0.02548941 -0.02585816 -0.02618754 -0.02648075 -0.02675211 -0.02698804 -0.02717462 -0.02729806 -0.02733317 -0.02728858
 -0.02716058 -0.02696611 -0.02671433 -0.02641066 -0.0260602 -0.02565892 -0.02520951 -0.02469289 -0.02411101 -0.02341103
 -0.02258828 -0.0216 -0.02044471 -0.01920905 -0.01790413 -0.01669328 -0.01557232 -0.014603 -0.01376933 -0.01304778
 -0.01243239 -0.01190081 -0.01144701 -0.01106066 -0.01071353 -0.01038052 -0.01001225 -0.009558409 -0.00900818 -0.008324242
 -0.007583634 -0.006806476 -0.006045727 -0.00532699 -0.004620952 -0.0039284 -0.003207149 -0.002452172 -0.001655012 -0.0008151915
 4.1117E-05 0.0009128067 0.001776293 0.002636388 0.003505166 0.004393775 0.005347979 0.006371988 0.007505273 0.008727856
 0.0100264 0.01138061 0.01275455 0.01416337 0.01560576 0.01710182 0.01866994 0.02029041 0.02196547 0.02365308
 0.02533987 0.02701979 0.02868562 0.03037722 0.03209908 0.03386332 0.03567041 0.03741934 0.03910055 0.04056381
 0.04181007 0.04276985 0.04344888 0.04383631 0.04392221 0.04367951 0.04309529 0.04212845 0.04079676 0.03909089
 0.0370705 0.0347694 0.0322595 0.02958697 0.02679439 0.02390674 0.02094239 0.01790024 0.01484316 0.01177035
 0.008813072 0.005984153 0.003368556 0.0009713633 -0.001244656 -0.003284479 -0.005225389 -0.007063882 -0.008820608 -0.01048314
 -0.01201495 -0.01341578 -0.01466061 -0.0157703 -0.01676434 -0.01766893 -0.01852107 -0.01933642 -0.02014032 -0.0209337
 -0.02172499 -0.02250577 -0.02327506 -0.02402448 -0.02475149 -0.0254527 -0.02612703 -0.02677497 -0.02739674 -0.02798922
 -0.02855226 -0.02907041 -0.02954248 -0.02994829 -0.03028852 -0.03055693 -0.03075568 -0.03089037 -0.03095988 -0.03096434
 -0.03090205 -0.03076782 -0.03056776 -0.03030307 -0.02999057 -0.0296396 -0.02927573 -0.02891096 -0.02857689 -0.02828573
 -0.02806509 -0.0279242 -0.02787722 -0.02792883 -0.02807754 -0.02832491 -0.02865121 -0.02905548 -0.02950038 -0.02998351
 -0.03046474 -0.03094253 -0.0313878 -0.03179968 -0.03215922 -0.03246712 -0.03271405 -0.03290528 -0.03304433 -0.03313842
 -0.033198 -0.03322513 -0.03322541 -0.03319686 -0.03313855 -0.03305348 -0.03294064 -0.03281114 -0.03266654 -0.03252025
 -0.03237428 -0.03223999 -0.03211863 -0.03201849 -0.03194011 -0.03188618 -0.03185627 -0.03184508 -0.03185131 -0.03186432
 -0.03188336 -0.03189906 -0.03191354 -0.03192615 -0.03194178 -0.03196831 -0.03200911 -0.03207251 -0.03215577 -0.03226027
 -0.03238008 -0.03251257 -0.03265276 -0.03279893 -0.03294507 -0.03309019 -0.03322574 -0.03335013 -0.0334584 -0.03354963
 -0.03362499 -0.0336845 -0.03372912 -0.03375867 -0.03377027 -0.03376395 -0.03373808 -0.03369329 -0.03363148 -0.03355248
 -0.03345729 -0.03334444 -0.03321139 -0.03305834 -0.03288317 -0.03269076 -0.03248332 -0.03226798 -0.0320494 -0.03183147
 -0.03161693 -0.03140644 -0.03120007 -0.03100103 -0.03080923 -0.030632 -0.03047007 -0.03032901 -0.03020925 -0.0301096
 -0.03002969 -0.02996321 -0.02990964 -0.02986231 -0.02982145 -0.02978396 -0.02975125 -0.0297252 -0.02970695 -0.02969978
 -0.02970293 -0.02971691 -0.02974039 -0.02977191 -0.02981232 -0.02986133 -0.02992121 -0.02999289 -0.03007745 -0.0301754
 -0.03028687 -0.03041207 -0.03055011 -0.03070115 -0.03086134 -0.0310305 -0.03120258 -0.0313773 -0.03154929 -0.03171856
 -0.03188229 -0.03204101 -0.03219508 -0.03234543 -0.03249479 -0.03264323 -0.03279287 -0.03294136 -0.03308697 -0.03322696
 -0.03335799 -0.03347998 -0.03359141 -0.03369493 -0.03379099 -0.03388275 -0.03397102 -0.03405848 -0.034146 -0.03423322
 -0.03432053 -0.03440285 -0.03447996 -0.03454436 -0.03459577 -0.03462885 -0.03464399 -0.03464101 -0.0346211 -0.03458901
 -0.03454516 -0.03449384 -0.03443283 -0.03436039 -0.03427409 -0.03416914 -0.03404772 -0.03390993 -0.03375819 -0.03359601
 -0.03341702 -0.03322072 -0.03299672 -0.03274058 -0.03245404 -0.03213483 -0.03179989 -0.03145041 -0.03110381 -0.03076136
 -0.03042865 -0.03010531 -0.02978511 -0.02946694 -0.02913997 -0.02880442 -0.02845465 -0.02809327 -0.02772384 -0.02734927
 -0.02697627 -0.02660661 -0.02624472 -0.02589264 -0.02555379 -0.02522836 -0.02491888 -0.02461936 -0.02432889 -0.02403892
 -0.02374617 -0.0234497 -0.02314806 -0.02284748 -0.02254855 -0.02225538 -0.0219684 -0.02168441 -0.02140293 -0.0211152
 -0.02082072 -0.02051124 -0.02018794 -0.01985047 -0.0195016 -0.01914893 -0.01879315 -0.01844005 -0.0180863 -0.01773074
 -0.01736848 -0.01699505 -0.01660677 -0.01619921 -0.01577445 -0.01532968 -0.01487864 -0.01442309 -0.01398099 -0.01355693
 -0.01315432 -0.01277497 -0.01240753 -0.01205131 -0.01170085 -0.01135626 -0.01102167 -0.01069644 -0.01037803 -0.01006505
 -0.009749131 -0.009432198 -0.00911524 -0.008800211 -0.008492913 -0.008189407 -0.007887253 -0.007582386 -0.00726841 -0.00694973
 -0.006626351 -0.006305349 -0.005990703 -0.005682302 -0.00538191 -0.00508294 -0.004784628 -0.004480917 -0.004170811 -0.003853195
 -0.003527875 -0.003197166 -0.002861145 -0.002521011 -0.002176884 -0.001829606 -0.001480297 -0.00113377 -0.000791567 -0.0004599702
 -0.0001405009 0.0001629974 0.0004447826 0.0006982181 0.0009125964 0.001075665 0.001182729 0.001224859 0.001210724 0.001139985
 0.00102789 0.0008772567 0.0007051597 0.0005133974 0.0003251051 0.000142532 -1.192988E-05 -0.0001364778 -0.000222755 -0.0002707801
 -0.0002831179 -0.0002601163 -0.0002046185 -0.0001178289 -5.089384E-06 0.0001301425 0.0002760887 0.0004296007 0.0005794939 0.0007241706
 0.0008582019 0.0009778689 0.001079492 0.001156088 0.001202915 0.001213775 0.001184476 0.001113854 0.0009995783 0.0008479846
 0.0006588753 0.0004442114 0.0002050813 -4.753243E-05 -0.0003129004 -0.0005809932 -0.0008510725 -0.001109075 -0.001354377 -0.001574623
 -0.001771633 -0.001946282 -0.002101231 -0.002244778 -0.002377017 -0.002500846 -0.002618614 -0.002731381 -0.002850426 -0.002984193
 -0.003147312 -0.00335112 -0.003604414 -0.003913606 -0.004282285 -0.004712668 -0.005206181 -0.005763961 -0.006383027 -0.007063853
 -0.007796985 -0.008582153 -0.009401161 -0.01025266 -0.01111032 -0.01197258 -0.01281498 -0.01363745 -0.01442699 -0.01518372
 -0.01590137 -0.01657975 -0.01721413 -0.0178085 -0.01836518 -0.01889061 -0.01939333 -0.01987131 -0.02032749 -0.02075271
 -0.02114213 -0.02149619 -0.02181168 -0.02210247 -0.0223702 -0.02262857 -0.0228797 -0.02312946 -0.02337857 -0.0236262
 -0.02387193 -0.02410555 -0.02432584 -0.02451781 -0.02468237 -0.02481442 -0.02491809 -0.0250024 -0.02507059 -0.02513397
 -0.02519156 -0.02524788 -0.0252976 -0.02533824 -0.02536297 -0.02536545 -0.02534624 -0.0253008 -0.02524463 -0.02517976
 -0.02512626 -0.02508959 -0.02507448 -0.02508387 -0.02510103 -0.02512535 -0.02513209 -0.02512039 -0.025077 -0.02500395
 -0.0249111 -0.02480216 -0.02470032 -0.02460406 -0.02452344 -0.02444955 -0.02436945 -0.0242772 -0.02415631 -0.02401377
 -0.02384807 -0.02367331 -0.02349883 -0.02333149 -0.02317887 -0.02303407 -0.02289866 -0.02275543 -0.02260168 -0.02242228
 -0.02221411 -0.02197697 -0.02171003 -0.0214304 -0.02113927 -0.02086181 -0.02059963 -0.02037719 -0.02019515 -0.02007031
 -0.02000061 -0.01999002 -0.02003345 -0.02012404 -0.02025465 -0.02041521 -0.02059387 -0.02077893 -0.02095317 -0.02110275
 -0.02121499 -0.02127875 -0.02129728 -0.02126719 -0.02120402 -0.02110967 -0.02099975 -0.02087693 -0.0207465 -0.02060952
 -0.02045637 -0.02028644 -0.02008481 -0.01985262 -0.01959153 -0.01930647 -0.01902144 -0.01873925 -0.01848286 -0.01824673
 -0.01803228 -0.01782936 -0.01762368 -0.01741079 -0.01717873 -0.01693491 -0.01667835 -0.01642425 -0.01617972 -0.01595273
 -0.01574961 -0.01556142 -0.01538809 -0.01521669 -0.01504447 -0.01487351 -0.01470337 -0.01454705 -0.01440494 -0.01428178
 -0.01417626 -0.01407916 -0.01398864 -0.01389121 -0.01378651 -0.0136661 -0.0135315 -0.01338139 -0.01321818 -0.01304466
 -0.01286276 -0.01267464 -0.01248366 -0.01229174 -0.01210432 -0.01192528 -0.01175408 -0.01159322 -0.01143183 -0.01126819
 -0.01109364 -0.01090595 -0.01070942 -0.01050417 -0.01029503 -0.01008197 -0.009858987 -0.009625979 -0.009377972 -0.009118112
 -0.008858208 -0.008602477 -0.008371223 -0.008162911 -0.007986459 -0.007832699 -0.007693916 -0.007558509 -0.007412003 -0.007248462
 -0.007057803 -0.006844533 -0.006606317 -0.0063559 -0.00609598 -0.005839569 -0.00559021 -0.005353419 -0.005131086 -0.004918774
 -0.004716439 -0.004516645 -0.004319111 -0.00412102 -0.003922532 -0.003723965 -0.003525522 -0.003327447 -0.003131482 -0.002942325
 -0.002763079 -0.002603742 -0.002462543 -0.002343856 -0.002237425 -0.002136135 -0.002027612 -0.001901006 -0.001750135 -0.001567777
 -0.001358488 -0.001119392 -0.0008689386 -0.0006084624 -0.0003645354 -0.0001411767 4.640966E-05 0.0001958636 0.0003159133 0.0004073462
 0.00049522 0.0005814172 0.0006940357 0.0008330802 0.001015887 0.001236321 0.001487312 0.001757065 0.002017236 0.002261342
 0.002464596 0.002635263 0.002769363 0.002885938 0.002995608 0.003116232 0.003260475 0.00343175 0.00363724 0.003859412
 0.004097679 0.004325904 0.004539974 0.004727082 0.004885346 0.005018312 0.005126216 0.005217131 0.005291848 0.005360399
 0.005424386 0.005497323 0.005579859 0.005681092 0.005800718 0.005942137 0.006105604 0.006295099 0.006504281 0.006732115
 0.00696092 0.007178448 0.007371609 0.007527929 0.007653952 0.007747155 0.007824505 0.007888471 0.007955672 0.008028577
 0.008119727 0.008231131 0.00835546 0.00849206 0.008613584 0.008720993 0.008810964 0.008891208 0.009001503 0.009143751
 0.00935 0.00960563 0.009896231 0.0102055 0.01050115 0.01077958 0.01102429 0.01123946 0.01142206 0.01158039
 0.01171541 0.01184225 0.01196493 0.01209887 0.01224878 0.01242023 0.012616 0.01282656 0.01305222 0.01326814
 0.01347311 0.01364633 0.01378967 0.01391429 0.01402457 0.01415149 0.01429216 0.01445512 0.01463172 0.01480491
 0.01497506 0.01513405 0.01528836 0.01544433 0.01559878 0.01575306 0.01589812 0.01602867 0.01614343 0.01623983
 0.01632284 0.01639184 0.01645843 0.01652277 0.01660652 0.01671194 0.01684803 0.01701492 0.0171898 0.01737094
 0.0175304 0.01767047 0.01778749 0.01788752 0.01798609 0.01809213 0.0182331 0.01841292 0.01865686 0.01894315
 0.01926312 0.01958333 0.01986867 0.0201272 0.0203414 0.02057418 0.02084794 0.0211856 0.02161074 0.02204024
 0.02246317 0.02283474 0.02314699 0.02343223 0.02369188 0.0239575 0.02422891 0.02451543 0.02481386 0.02511501
 0.02541109 0.02567378 0.02589315 0.02603409 0.02608995 0.02603506 0.02586838 0.02557302 0.02517054 0.02465879
 0.02409898 0.02351606 0.02297156 0.02249759 0.02210145 0.02179397 0.0215495 0.02136497 0.0212284 0.02113919
 0.02107981 0.021049 0.02099916 0.02092897 0.02080493 0.02063369 0.0204331 0.02021231 0.02001204 0.01983461
 0.01970763 0.01962273 0.01958508 0.01956875 0.01955073 0.01950292 0.01938919 0.01922246 0.01899287 0.01874377
 0.01848905 0.01825355 0.01804412 0.01788135 0.01776773 0.01773108 0.01777698 0.01787671 0.01802862 0.01815256
 0.01824932 0.01830164 0.01832019 0.01836064 0.01842095 0.01852621 0.01866207 0.01880408 0.01895201 0.01909303
 0.01923547 0.01938711 0.01954368 0.019706 0.01986452 0.02001355 0.02015063 0.02027246 0.02038413 0.02048445
 0.02058873 0.02069951 0.02082577 0.02097071 0.02110396 0.02122395 0.02128733 0.0212959 0.02125804 0.0211806
 0.02110954 0.02104331 0.02100056 0.02097639 0.02096534 0.02097255 0.0210055 0.02106411 0.02115587 0.02126462
 0.02138117 0.02149143 0.02158747 0.02165467 0.02168936 0.02166741 0.02157841 0.0214301 0.02121652 0.02099543
 0.02077185 0.020585 0.0204371 0.02031199 0.02020919 0.02011717 0.02003984 0.01999837 0.01998913 0.02001472
 0.0200603 0.02009053 0.02010018 0.02006056 0.01998525 0.01987683 0.01975286 0.01963054 0.01951104 0.01940486
 0.01928842 0.0191558 0.01898741 0.01877113 0.01853275 0.01827075 0.01803876 0.01784281 0.01770321 0.01762129
 0.01757399 0.01755974 0.01755383 0.01755515 0.01754626 0.01752403 0.01746626 0.01737501 0.01724086 0.01707534
 0.01689327 0.01670272 0.01651906 0.01634415 0.01618324 0.01603962 0.01591735 0.01581411 0.01572995 0.01566199
 0.01560704 0.01557866 0.01557964 0.01561251 0.01568039 0.01574056 0.01579075</values></Ydata></AB><ScSm><Ydata ylabel="Single channel"><values byteorder="INTEL" format="FLOAT32" numvalues="1814"> 0.0750979 0.07510152 0.07517033 0.07533319 0.0755621 0.07578989 0.07595649 0.07604487 0.07606877 0.07603718
 0.07596301 0.07590514 0.07595412 0.07614736 0.07641476 0.07662281 0.07667866 0.07661355 0.07656839 0.0766559
 0.07680891 0.07679778 0.07644616 0.07583307 0.07524301 0.07490277 0.07483741 0.07503462 0.07558712 0.07643162
 0.07705303 0.0768533 0.07590419 0.0749795 0.07469621 0.0749242 0.07514793 0.0750607 0.07465966 0.07413349
 0.0739164 0.07456614 0.07621317 0.07811481 0.07892878 0.07756141 0.07394583 0.06928423 0.06560487 0.06467687
 0.06676341 0.07026458 0.07291893 0.07360872 0.07289401 0.07186553 0.07097055 0.0701573 0.06963669 0.06992241
 0.07112233 0.07246059 0.07267918 0.0711145 0.06848578 0.06638309 0.06581661 0.06658626 0.06813258 0.07014644
 0.07170156 0.07076982 0.06621989 0.06032933 0.05775736 0.06111123 0.06816656 0.07404842 0.07556736 0.07299813
 0.06865557 0.06497927 0.06361955 0.0649952 0.06821705 0.07182616 0.07467561 0.07598332 0.07514261 0.07225011
 0.06861582 0.06612542 0.06608319 0.06870268 0.07305993 0.0771744 0.07891145 0.07756238 0.07431563 0.07100114
 0.06888528 0.06867931 0.07072279 0.07462762 0.07925362 0.08336785 0.08614706 0.08726285 0.08695252 0.08586757
 0.08457664 0.08347304 0.08312023 0.08390215 0.08511171 0.08522428 0.08355889 0.08118737 0.07982872 0.08007143
 0.08090611 0.08095387 0.07986289 0.078077 0.07546541 0.07130003 0.06592331 0.06119096 0.0586144 0.05820835
 0.05959497 0.0625933 0.06592675 0.06715649 0.06535928 0.06281884 0.06275868 0.06590361 0.07011674 0.07300237
 0.07411795 0.07479495 0.0764281 0.07905167 0.08116442 0.08086172 0.07772525 0.07388156 0.07249488 0.07465847
 0.0783444 0.08089802 0.08183745 0.08255037 0.08387595 0.08480619 0.08353675 0.07961053 0.07506797 0.07318424
 0.07561168 0.08072087 0.08478698 0.0847533 0.08028816 0.07384069 0.06872709 0.06684113 0.06816122 0.07201909
 0.07782663 0.08440685 0.08970012 0.09192762 0.09088859 0.08783822 0.08405751 0.07967804 0.07437328 0.06932789
 0.06746208 0.07066721 0.0773834 0.08390196 0.08767162 0.08856417 0.08742839 0.08451551 0.07971813 0.07408227
 0.07029854 0.07061148 0.07411458 0.0772684 0.0776073 0.07598362 0.07473768 0.07477935 0.07525941 0.07536893
 0.07548964 0.07653718 0.07864772 0.08084089 0.08197223 0.081775 0.08089347 0.08013238 0.07973054 0.07919353
 0.07798716 0.07660413 0.07650526 0.07852184 0.08171318 0.08433417 0.0855846 0.08589719 0.08577557 0.0849103
 0.08263516 0.07919353 0.07624893 0.07564943 0.0776396 0.08071386 0.08318276 0.08438158 0.08450246 0.08398733
 0.08323026 0.08244355 0.08172227 0.08133022 0.08163773 0.08259566 0.0836103 0.08414401 0.08415893 0.08384901
 0.08325654 0.08234995 0.08130056 0.08049098 0.08023927 0.08056085 0.08121341 0.08191653 0.08244905 0.0826121
 0.08230558 0.0816737 0.08101162 0.08049534 0.08012913 0.07993491 0.08000655 0.08033695 0.08073653 0.08099301
 0.08103839 0.08092494 0.08071105 0.08042163 0.08008525 0.07976829 0.07956803 0.07955079 0.07967283 0.07980341
 0.07987353 0.0799477 0.08008103 0.0801744 0.08007543 0.07978562 0.07946986 0.07927769 0.07922632 0.07924184
 0.07923792 0.07913379 0.07885566 0.07840165 0.07792017 0.07765159 0.07773794 0.07812147 0.07863842 0.0791369
 0.07949492 0.07964057 0.07961087 0.07951605 0.07940936 0.07924825 0.0789988 0.07873039 0.07859118 0.0786959
 0.07902296 0.07942238 0.07973783 0.07990617 0.07994986 0.07993944 0.07997075 0.08009414 0.08023981 0.0802829
 0.08020066 0.08010501 0.08010792 0.08020134 0.0802818 0.08027082 0.08020235 0.08018833 0.08029707 0.08048671
 0.08066896 0.08080925 0.08094162 0.08109905 0.08124696 0.08129848 0.08121103 0.08105521 0.08095042 0.08094069
 0.08098244 0.0810457 0.08116099 0.0813485 0.08155353 0.0816907 0.08173741 0.08175471 0.08180809 0.08188441
 0.08190866 0.08183712 0.08170824 0.08160043 0.08156411 0.08159775 0.08166453 0.08171888 0.08172975 0.08169293
 0.08162536 0.08154598 0.08146255 0.08138272 0.08133988 0.08138634 0.08153237 0.08169772 0.08175832 0.08165862
 0.08146585 0.08130252 0.08123134 0.08121192 0.08116224 0.08104625 0.08089624 0.08076523 0.08067765 0.08062407
 0.08058392 0.0805476 0.0805331 0.08058628 0.0807412 0.08096227 0.08114478 0.08120206 0.08114732 0.08106993
 0.0810433 0.08107841 0.08115028 0.08123615 0.08133394 0.08146312 0.08163454 0.08181012 0.08192384 0.08196028
 0.08198047 0.08205742 0.08221881 0.0824535 0.08272326 0.08295752 0.08309189 0.08313853 0.08318272 0.08329225
 0.08345894 0.08363953 0.08381787 0.08400521 0.08420637 0.08441712 0.08464831 0.08492805 0.08527195 0.08565696
 0.08602676 0.08632732 0.08655166 0.08675735 0.08702882 0.08740834 0.08786085 0.0883068 0.08868831 0.08900832
 0.08931176 0.08963279 0.08996895 0.09031207 0.09068345 0.09111123 0.09158291 0.09205137 0.092488 0.09290545
 0.09332854 0.09376536 0.09421025 0.0946615 0.09513038 0.09562957 0.09614584 0.09663174 0.09704265 0.09738334
 0.09770778 0.09807739 0.09852043 0.09900958 0.09946644 0.09981824 0.1000774 0.1003419 0.1006891 0.1010917
 0.1014716 0.1018154 0.1021873 0.1026326 0.103112 0.10355 0.1039197 0.1042586 0.1046138 0.1049872
 0.1053353 0.1056174 0.1058407 0.1060524 0.1062909 0.106563 0.106876 0.1072596 0.1077259 0.1082239
 0.1086699 0.1090195 0.109288 0.1095142 0.1097311 0.1099584 0.1101944 0.1104226 0.1106389 0.110853
 0.1110591 0.1112367 0.1113972 0.1115922 0.1118558 0.1121712 0.1125149 0.1128961 0.1133221 0.1137578
 0.1141642 0.1145628 0.1150106 0.1155038 0.1159497 0.1162615 0.1164483 0.1165811 0.1167079 0.1168487
 0.1170467 0.1173579 0.1177837 0.1182582 0.1187137 0.1191312 0.1195236 0.119895 0.120229 0.1205003
 0.1206932 0.1208166 0.1209077 0.1210238 0.1212193 0.1215136 0.1218692 0.1222127 0.122485 0.1226625
 0.1227348 0.1226954 0.1225757 0.1224597 0.1224179 0.1224243 0.1223636 0.1221304 0.1217017 0.1211137
 0.1203999 0.1195787 0.1186893 0.1178138 0.117053 0.1164859 0.1161604 0.1161157 0.1163895 0.1169785
 0.1177956 0.1186868 0.1194984 0.1201143 0.1204369 0.1203824 0.1199298 0.1191574 0.118204 0.1171991
 0.1162299 0.1153414 0.1145403 0.1138238 0.1132442 0.1129434 0.1131019 0.1138466 0.1151945 0.1170451
 0.1192 0.1214101 0.1234584 0.1252357 0.1267483 0.1280597 0.1292322 0.1303164 0.1313591 0.1323811
 0.1333534 0.1342266 0.1349872 0.1356641 0.1362842 0.1368417 0.1373122 0.1376761 0.1379339 0.1381133
 0.1382553 0.1383809 0.1384821 0.1385543 0.1386155 0.1386737 0.1386887 0.1385846 0.1382973 0.1378196
 0.1372292 0.1366991 0.1364702 0.1367773 0.1377517 0.1393502 0.1413659 0.1435234 0.1455856 0.147398
 0.1488797 0.150018 0.1508725 0.1515457 0.1521288 0.1526718 0.1531939 0.1537018 0.1541964 0.1546756
 0.1551396 0.1555956 0.1560582 0.156535 0.1570085 0.157443 0.1578236 0.1581824 0.1585768 0.1590379
 0.1595416 0.1600355 0.1604935 0.1609355 0.161384 0.1618196 0.1622026 0.162531 0.1628489 0.1632009
 0.1636014 0.1640401 0.1644877 0.1648998 0.1652452 0.1655377 0.1658226 0.1661332 0.1664692 0.1668146
 0.1671581 0.1674945 0.1678204 0.1681437 0.1684892 0.1688729 0.1692694 0.1696227 0.1699018 0.1701333
 0.1703709 0.1706454 0.1709479 0.1712512 0.1715413 0.1718359 0.1721686 0.1725489 0.1729398 0.173286
 0.1735649 0.1738022 0.1740411 0.174305 0.1745904 0.1748837 0.1751777 0.1754716 0.1757652 0.1760573
 0.1763489 0.1766429 0.1769406 0.1772389 0.1775326 0.1778216 0.1781128 0.1784135 0.1787273 0.1790589
 0.1794151 0.1797885 0.1801471 0.1804538 0.1806982 0.1809021 0.1810974 0.1813058 0.1815358 0.181789
 0.182063 0.182353 0.1826527 0.1829554 0.1832553 0.1835474 0.1838279 0.1840971 0.1843622 0.1846346
 0.1849224 0.1852278 0.1855455 0.185859 0.1861483 0.1864071 0.1866507 0.1869023 0.1871732 0.1874553
 0.1877305 0.1879868 0.1882288 0.1884724 0.1887297 0.1889992 0.1892695 0.1895284 0.1897715 0.1900076
 0.1902526 0.1905169 0.1907962 0.1910776 0.1913497 0.1916102 0.1918639 0.1921159 0.1923677 0.1926194
 0.1928735 0.1931313 0.1933891 0.1936427 0.1938947 0.1941504 0.1944098 0.1946673 0.1949188 0.1951661
 0.1954109 0.1956515 0.1958907 0.1961406 0.1964087 0.196682 0.1969408 0.1971834 0.1974243 0.1976745
 0.1979351 0.198204 0.1984762 0.1987432 0.1990013 0.1992556 0.1995116 0.1997715 0.2000342 0.2002969
 0.2005569 0.2008158 0.2010758 0.2013334 0.2015835 0.2018265 0.2020662 0.2023034 0.2025353 0.202757
 0.2029678 0.2031763 0.2033934 0.2036192 0.2038474 0.2040788 0.2043177 0.2045603 0.2048026 0.2050505
 0.205311 0.2055818 0.2058537 0.2061168 0.2063649 0.2066011 0.2068359 0.2070767 0.2073251 0.207581
 0.2078403 0.2080953 0.2083443 0.2085919 0.2088392 0.2090856 0.2093364 0.2095952 0.2098559 0.2101133
 0.2103698 0.2106249 0.2108733 0.2111145 0.2113505 0.2115824 0.2118166 0.2120611 0.212311 0.2125562
 0.2127989 0.2130475 0.213304 0.2135665 0.2138304 0.2140852 0.2143268 0.2145664 0.2148134 0.2150633
 0.2153148 0.2155721 0.2158295 0.2160774 0.2163179 0.2165565 0.2167927 0.2170287 0.2172637 0.217474
 0.2176039 0.2175171 0.2168698 0.2149816 0.2108293 0.2032525 0.1914118 0.1753203 0.1560328 0.1352766
 0.1148103 0.09595989 0.07949416 0.0657448 0.05478617 0.04653641 0.04081444 0.03745706 0.03645059 0.0380576
 0.04294583 0.05179028 0.06378634 0.07533167 0.0814251 0.07961328 0.07233828 0.0647146 0.06028009 0.05928317
 0.06020613 0.06175305 0.06351647 0.06573562 0.06881425 0.07286245 0.07768335 0.08327196 0.0900543 0.09834889
 0.1077212 0.1171645 0.1259667 0.1342679 0.1427215 0.1517036 0.1609194 0.1696966 0.17752 0.1842863
 0.1902033 0.1955586 0.2005573 0.2052968 0.2098196 0.2141134 0.2180228 0.2212143 0.2233342 0.2242765
 0.2243099 0.2239276 0.2235594 0.2234072 0.2234958 0.2237932 0.224269 0.2249001 0.2256701 0.2265556
 0.2275102 0.228483 0.229445 0.2303821 0.2312753 0.232106 0.232868 0.2335649 0.2342036 0.2347918
 0.2353339 0.2358329 0.236297 0.2367353 0.2371464 0.2375258 0.2378789 0.2382144 0.2385313 0.2388234
 0.2390895 0.2393325 0.2395573 0.2397747 0.2399961 0.2402238 0.2404527 0.2406801 0.240908 0.2411384
 0.2413689 0.241593 0.2418076 0.2420203 0.2422407 0.2424649 0.2426796 0.242882 0.243083 0.2432915
 0.2435073 0.243727 0.2439457 0.2441567 0.2443584 0.2445581 0.2447632 0.2449722 0.2451766 0.245372
 0.2455682 0.2457869 0.2460406 0.2463143 0.2465821 0.2468348 0.24708 0.2473228 0.2475619 0.2477954
 0.2480148 0.2482059 0.2483668 0.2485206 0.2487024 0.2489322 0.2491958 0.2494532 0.2496764 0.2498746
 0.2500755 0.2502897 0.2505053 0.2507048 0.2508863 0.2510762 0.2513109 0.2515944 0.2518919 0.2521776
 0.2524571 0.2527353 0.253002 0.2532582 0.2535122 0.2537435 0.2539144 0.254034 0.2541832 0.2544529
 0.2548534 0.2552941 0.2556676 0.2559467 0.2561815 0.2564303 0.2567216 0.2570324 0.2572564 0.2572731
 0.2571301 0.2570851 0.257373 0.2579691 0.2586472 0.2592135 0.2596298 0.2599561 0.2602458 0.2604924
 0.2606415 0.2606546 0.260591 0.2606258 0.2609315 0.2614993 0.2621296 0.2626348 0.2629865 0.2632422
 0.2634414 0.2636041 0.2636902 0.2635354 0.2630274 0.26242 0.2622645 0.2628761 0.2639772 0.2649946
 0.2656263 0.2659907 0.266298 0.266587 0.2668001 0.2668392 0.2664321 0.2652818 0.2636523 0.2625418
 0.2628599 0.2645056 0.2665298 0.2680842 0.2689613 0.2693854 0.2696343 0.2698509 0.2699367 0.2695718
 0.2685709 0.2673399 0.2667652 0.267395 0.268825 0.2701336 0.2708222 0.2710742 0.2712572 0.2715127
 0.2716664 0.2711803 0.2694553 0.2667167 0.2644653 0.2644227 0.2668432 0.270203 0.2727091 0.2738437
 0.2742211 0.2742651 0.2735946 0.2717178 0.2687702 0.2654565 0.2628303 0.2621473 0.2640324 0.2674429
 0.270264 0.2713963 0.2716818 0.2725068 0.2741425 0.2757615 0.2765171 0.2761984 0.2750719 0.2734083
 0.2713574 0.269393 0.2685797 0.2698183 0.2727545 0.275898 0.2779994 0.2790024 0.2794038 0.2787984
 0.2755722 0.2688436 0.2609067 0.2566084 0.2590682 0.2664123 0.2737871 0.2781382 0.2798915 0.2806696
 0.2811122 0.2807024 0.2780812 0.2717944 0.2625896 0.2548564 0.2536582 0.2597215 0.268608 0.2748552
 0.2756975 0.2713519 0.2640304 0.2572817 0.2545463 0.2570718 0.263366 0.2706704 0.2766165 0.2798758
 0.2801427 0.2780076 0.2749137 0.2728049 0.2727187 0.2732534 0.2716325 0.2672108 0.2625476 0.2596509
 0.2568748 0.251963 0.2469855 0.2469681 0.2533568 0.261608 0.2662994 0.2666259 0.2654266 0.2640184
 0.2599497 0.2505307 0.2379133 0.2291958 0.2302139 0.2394897 0.2495551 0.254259 0.2536494 0.2518024
 0.251377 0.2509152 0.2469307 0.2384758 0.2294641 0.2253916 0.2274984 0.231661 0.2332867 0.2309993
 0.2250308 0.2157095 0.2060641 0.2027904 0.2105922 0.2264006 0.2417764 0.2498619 0.2478898 0.235663
 0.2164891 0.1991535 0.1936477 0.2022333 0.216702 0.2259336 0.2247327 0.2147516 0.1997066 0.1828175
 0.1682837 0.1617681 0.1669998 0.181975 0.1990521 0.2087924 0.2051816 0.1902731 0.1745125 0.1692252
 0.1763576 0.1871698 0.1920286 0.1891353 0.1831588 0.1791829 0.1797534 0.184487 0.1905067 0.1951216
 0.1979769 0.1980933 0.1909842 0.1740825 0.1539996 0.1421824 0.1430065 0.1515324 0.1626987 0.1758391
 0.1886959 0.1943211 0.1889174 0.1790583 0.1761027 0.1841424 0.19649 0.2038457 0.2034933 0.1997904
 0.197406 0.1963193 0.1941678 0.1916749 0.1928567 0.1994659 0.2079304 0.2133466 0.2145982 0.2139096
 0.213083 0.2121436 0.2106221 0.2083679 0.2054583 0.2023164 0.1995911 0.1974422 0.1954118 0.1931434
 0.1903853 0.1859916 0.1781891 0.1671445 0.156555 0.1507577 0.1501791 0.1516163 0.1529852 0.1545596
 0.154551 0.1478302 0.132721 0.1165887 0.1104791 0.1184483 0.1345488 0.1495676 0.157992 0.1584402
 0.1509976 0.1376791 0.1249641 0.1217377 0.1319701 0.1508677 0.1700296 0.184699 0.1942246 0.1980178
 0.1948513 0.1859699 0.1762751 0.1715334 0.1748998 0.1855015 0.1986479 0.2069655 0.204016 0.1907617
 0.1784957 0.1805013 0.1980414 0.2181692 0.2282705 0.2288578 0.2283926 0.2301401 0.2305754 0.2286814
 0.2296452 0.2377451 0.2500382 0.2592498 0.2601563 0.2516448 0.2360054 0.2194015 0.2102678 0.2125788
 0.2213662 0.2281451 0.2291397 0.2247917 0.2147309 0.19983 0.1875036 0.1872535 0.1996315 0.2149604
 0.2243305 0.2277046 0.2299089 0.2323369 0.23132 0.223755 0.2122949 0.203701 0.2021491 0.2055769
 0.2091671 0.2104321 0.2092866 0.2051977 0.1975002 0.1884715 0.1833659 0.185898 0.1944684 0.2037291
 0.2094333 0.2111362 0.2108712 0.2105288 0.2105536 0.2101588 0.2087111 0.2075069 0.2095021 0.2160577
 0.2246357 0.2313501 0.2354158 0.2394034 0.2452188 0.2514484 0.2550514 0.2546824 0.252005 0.25029
 0.2518241 0.2560964 0.2601615 0.2611415 0.2589593 0.2566618 0.2576047 0.2622363 0.2680175 0.2722923
 0.2744553 0.2754276 0.276112 0.2766425 0.2763321 0.2742378 0.2705887 0.2676308 0.2680438 0.2722585
 0.2779999 0.2825734 0.2849924 0.2858481 0.2858797 0.2851891 0.283639 0.2815486 0.279725 0.2788395
 0.278955 0.2796924 0.2806496 0.2815685 0.2823017 0.2828081 0.2831396 0.2833627 0.2835285 0.2837067
 0.2839442 0.2841806 0.2843074 0.2843466 0.2844758 0.2848135 0.2852469 0.2855432 0.2855613 0.2852643
 0.2845873 0.2834484 0.2818968 0.2801132 0.2782128 0.276168 0.2740452 0.2722772 0.271547 0.2722846
 0.2742712 0.2767695 0.2790325 0.2806814 0.2817007 0.2822391 0.2824719 0.2825572 0.2826033 0.2826384
 0.2826277 0.2825361 0.2823704 0.2821638 0.2819414 0.2817215 0.2815357 0.2814134 0.2813418 0.2812586
 0.2810932 0.2808107 0.2804271 0.2799897 0.2795327 0.2790406 0.2784573 0.2777313 0.2768531 0.2758642
 0.274841 0.2738625 0.272961 0.2720942 0.2711807 0.2701646 0.269026 0.2677364 0.2662703 0.2646911
 0.2631672 0.2618435 0.2607189 0.2596776 0.2586019 0.2574224 0.2561097 0.254674 0.2531624 0.2516254
 0.2500846 0.2485324 0.2469454 0.2452945 0.2435588 0.2417372 0.2398417 0.2378868 0.235888 0.2338596
 0.2317881 0.2295994 0.2271664 0.224355 0.2210569 0.2171923 0.2127287 0.2077337 0.2023876 0.1969236
 0.1915552 0.1864509 0.1817372 0.1775045 0.1738233 0.1707622 0.1683819 0.1667175 0.1657767 0.1655539
 0.1660362 0.1671922 0.1689505 0.1711901 0.1737548 0.1764773 0.1791918 0.1817529 0.1840784 0.1861845
 0.1881597 0.1900835 0.1919651 0.1937606 0.1954346 0.1969787 0.1983705 0.1995558 0.2004983 0.2012225
 0.2017834 0.2022188 0.2025488 0.2027973 0.2029907 0.2031477 0.2032886 0.2034456 0.2036576 0.2039542
 0.2043427 0.2048073 0.2053249 0.2058784 0.2064599 0.2070684 0.2077027 0.2083531 0.2090106 0.2096922
 0.2104435 0.2113139 0.2123471 0.2135947 0.2151102 0.2169129 0.218965 0.2211791 0.22344 0.2256262
 0.2276259 0.2293506 0.230752 0.2318345 0.2326362 0.2331952 0.2335417 0.2337086 0.2337272 0.2336183
 0.2334013 0.2330954 0.2327027 0.2322101 0.2316159 0.2309424 0.2302204 0.2294783 0.2287362 0.2280001
 0.227267 0.2265428 0.2258454 0.2251862 0.2245574 0.2239357 0.2233002 0.2226469 0.221985 0.2213124
 0.2206075 0.2198455 0.2190099 0.218084 0.2170499 0.2158979 0.2146243 0.2132269 0.2117151 0.2101205
 0.2084869 0.2068511 0.205229 0.2036138 0.201989 0.2003325 0.1985977 0.1967141 0.1946469 0.1924561
 0.1902685 0.1881889 0.1862502 0.1844294 0.1826895 0.181015 0.1794182 0.1779095 0.1764726 0.1750807
 0.1737292 0.1724356 0.1712182 0.1700831 0.1690288 0.168062 0.1672026 0.1664645 0.1658319 0.1652708
 0.1647596 0.1642979 0.1638975 0.1635801 0.1633673 0.1632495 0.163174 0.1630733 0.1629047 0.1626678
 0.1623958 0.1621232 0.1618603 0.1616046 0.1613634 0.1611324 0.1608554 0.1604281 0.1597403 0.1587147
 0.157333 0.1556442 0.1537402 0.1517288 0.1497326 0.1478832 0.1462826 0.1449767 0.1439661 0.1432106
 0.1426288 0.1421362 0.1417064 0.1413836 0.1412318 0.1412587 0.1413731 0.1414405 0.1414107 0.1413738
 0.141471 0.1417747 0.1422626 0.1428558 0.1434616 0.1440083 0.1444561 0.1447764 0.1449485 0.1449816
 0.144908 0.1447512 0.1445279 0.1442605 0.1439578 0.1436022 0.143174 0.1426628 0.1420598 0.1413691
 0.140612 0.1397991 0.138926 0.1379891 0.1369609 0.13579 0.1345089 0.1333226 0.1325163 0.1322715
 0.1325731 0.1332447 0.1340783 0.1349601 0.1358276 0.1365005 0.1367372 0.136605 0.1366632 0.1375579
 0.1394062 0.1416724 0.1436453 0.1449383 0.1455348 0.1455351 0.1450137 0.1440262 0.1425828 0.1406421
 0.1382217 0.1354446 0.1324427 0.129342 0.1263416 0.1236519 0.1213742 0.1195266 0.1180996 0.1171133
 0.1166649 0.1163745 0.1144304 0.108535 0.09945922 0.09262685 0.09356573 0.1016942 0.1107245 0.115311
 0.1153104 0.1135703 0.1120518 0.1110587 0.1105191 0.1106087 0.1114728 0.1129481 0.1145841 0.1159177
 0.1167682 0.117192 0.1171705 0.116386 0.1141744 0.1097362 0.1027756 0.09410139 0.0853705 0.07811476
 0.07305051 0.07008436 0.06862357 0.06792054 0.06745455 0.06717581 0.06739139 0.06840645 0.07026882 0.07281366
 0.07583942 0.0791125 0.08225974 0.08489212 0.08690383 0.08848226 0.08977906 0.09072646 0.09119512 0.09117758
 0.09078331 0.09015891 0.08943522 0.08867837 0.08785185 0.08685632 0.08567637 0.08450926 0.08366317 0.08327091
 0.08318537 0.08319137 0.08320014 0.08320375 0.08318615 0.08314185 0.08309595 0.08309329 0.08321293 0.08353273
 0.08402166 0.08452645 0.08490318 0.08512354 0.08524802 0.08530148 0.08516353 0.08466893 0.0838986 0.08320591
 0.08276467 0.08226387 0.08132209 0.08008841 0.07915395 0.07890938 0.07919945 0.07957894 0.07972181 0.07957846
 0.07932355 0.07925138 0.07958831 0.08023469</values></Ydata></ScSm><ScRf><Ydata ylabel="Single channel"><values byteorder="INTEL" format="FLOAT32" numvalues="1820"> 0.06076758 0.06092763 0.06102609 0.06106187 0.06105658 0.06105463 0.06110872 0.06124579 0.06144207 0.06163412
 0.06176473 0.06182286 0.06183124 0.06180308 0.06174297 0.06169107 0.061721 0.06186791 0.0620778 0.06224296
 0.06228779 0.06223559 0.06219773 0.0622637 0.06237698 0.06234902 0.0620386 0.06151801 0.06102719 0.0607526
 0.06070872 0.06087624 0.06132551 0.06200887 0.06251436 0.06235506 0.06158146 0.06081904 0.06057501 0.06075048
 0.06092733 0.06085373 0.06052611 0.06009759 0.05991971 0.06044396 0.06177616 0.06331354 0.06396432 0.06283697
 0.05987685 0.05606565 0.05305824 0.05229688 0.05399664 0.05685372 0.05902143 0.05958461 0.05900233 0.05817094
 0.05745468 0.05679979 0.05636842 0.05658362 0.05754624 0.05862949 0.05880115 0.05751263 0.05535334 0.05362929
 0.05316766 0.05379896 0.05505944 0.05669663 0.05796115 0.05720399 0.05350035 0.04870106 0.04660491 0.04934667
 0.05511824 0.05993465 0.06117754 0.05906589 0.0555018 0.05249333 0.05139035 0.05252248 0.05515143 0.05808563
 0.06039762 0.06145685 0.06076952 0.05841125 0.055447 0.05341328 0.05337478 0.05550784 0.05906072 0.06241997
 0.06384492 0.06275308 0.06010628 0.05739475 0.0556577 0.05548353 0.05715191 0.06034417 0.064128 0.06749612
 0.06977361 0.07068765 0.070431 0.06954192 0.06849223 0.06760103 0.067318 0.06795081 0.06892705 0.06901029
 0.0676488 0.06571777 0.0646185 0.06482759 0.06551689 0.0655573 0.06466106 0.06319545 0.061062 0.05766916
 0.05329047 0.04943397 0.04733237 0.04700045 0.04813566 0.05060033 0.0533573 0.05440222 0.05295532 0.05086727
 0.0507825 0.05331782 0.05674241 0.05909739 0.06001491 0.06058147 0.06193686 0.06410533 0.06585442 0.06562267
 0.06306468 0.05992168 0.05879363 0.06058735 0.06364264 0.06577501 0.06658199 0.06720106 0.06832262 0.06912211
 0.06812452 0.06496005 0.06129768 0.05980724 0.06183185 0.06604308 0.06940405 0.06941168 0.06578052 0.06051166
 0.05633603 0.05482589 0.05597797 0.05925335 0.06417192 0.06975769 0.07429641 0.07629491 0.07556075 0.07312275
 0.07005443 0.06647584 0.06211207 0.05795419 0.05646791 0.05926635 0.06505094 0.07069547 0.07403539 0.07494564
 0.07412732 0.07177763 0.06779615 0.06308301 0.05996292 0.0603804 0.0635577 0.06643274 0.06686036 0.06556772
 0.06458959 0.06473588 0.06528177 0.06552063 0.06578185 0.06687063 0.06890999 0.07103091 0.07220779 0.07218844
 0.07154282 0.07100359 0.07080011 0.07048902 0.0695834 0.06852725 0.0686391 0.0706612 0.07373133 0.07626697
 0.07755147 0.07799153 0.07805239 0.07744288 0.07553501 0.07254127 0.06999769 0.06962444 0.07166123 0.07471389
 0.0772018 0.0784972 0.0787836 0.0784812 0.07795779 0.07741167 0.07693984 0.07679427 0.0773123 0.07843138
 0.07958484 0.08026861 0.08045214 0.08031979 0.07991061 0.07920068 0.07836777 0.07778721 0.07775757 0.07827749
 0.07910164 0.07995986 0.08064722 0.08097591 0.08084255 0.08038141 0.07988986 0.07955693 0.07938909 0.07939237
 0.07964386 0.08013374 0.08068099 0.08108307 0.08127664 0.0813141 0.08125204 0.08111082 0.08091228 0.08072439
 0.08065946 0.08079503 0.08107653 0.08135357 0.08155539 0.08176297 0.08204301 0.08228858 0.08232759 0.08214872
 0.08192311 0.08181769 0.08186004 0.08197612 0.08207963 0.08208896 0.08191843 0.08155106 0.08113836 0.08094302
 0.08112629 0.08163151 0.08228291 0.08291484 0.08339567 0.08364803 0.08370722 0.08368638 0.08364494 0.08354467
 0.08335206 0.08313869 0.08306085 0.08324102 0.08365615 0.08414559 0.08454008 0.08476949 0.08485988 0.08489358
 0.08497655 0.08515792 0.08535468 0.08542885 0.08536085 0.08528283 0.08532016 0.08544926 0.08553682 0.08549729
 0.08539253 0.08536968 0.08550654 0.0857411 0.08595887 0.08611958 0.08627614 0.08647992 0.08668534 0.08676827
 0.08666014 0.08644515 0.08627911 0.08622494 0.08623099 0.08626269 0.08636785 0.08657912 0.08682038 0.08696986
 0.0869959 0.08698352 0.0870215 0.08709451 0.08710752 0.08700088 0.08681491 0.08664681 0.08657031 0.08659606
 0.08667973 0.0867526 0.08676049 0.08669434 0.08658759 0.08648045 0.0863913 0.08633278 0.08634707 0.08648815
 0.08674023 0.08697258 0.08702188 0.08684133 0.08655381 0.08634107 0.08628151 0.08629937 0.08626038 0.08609869
 0.08585271 0.08560459 0.08540822 0.0852681 0.08516168 0.08507261 0.08501543 0.08503383 0.08515318 0.08531772
 0.08539816 0.08529842 0.08505195 0.0847873 0.08460921 0.08453602 0.08452757 0.08453368 0.08453102 0.08454382
 0.08460853 0.08469968 0.0847315 0.08465959 0.08454199 0.08447947 0.0845343 0.08470947 0.08494605 0.08512892
 0.08516043 0.08505809 0.08493964 0.08489972 0.08493772 0.08500808 0.08508985 0.08518538 0.0852894 0.08539437
 0.08551548 0.08568487 0.08591634 0.08618217 0.08642472 0.08659355 0.0866859 0.08676042 0.08690131 0.08715357
 0.08748768 0.08782516 0.08809845 0.08829616 0.08845872 0.08862941 0.08881564 0.08900894 0.08922566 0.08949567
 0.08981426 0.09014016 0.09044465 0.09073499 0.09102772 0.09132494 0.0916228 0.09193106 0.09227723 0.09268226
 0.09311792 0.09349912 0.09374917 0.09387918 0.09398897 0.09419024 0.09452775 0.09494467 0.0953086 0.09551074
 0.09557517 0.095645 0.09582909 0.09609345 0.09634168 0.09656817 0.09686767 0.09729577 0.09777634 0.09817061
 0.09841147 0.09855165 0.09869288 0.09888172 0.09907656 0.09921427 0.09929533 0.09937973 0.09950715 0.09966654
 0.09985785 0.1001295 0.1005126 0.1009521 0.1013471 0.1016431 0.1018531 0.1020117 0.1021391 0.1022366
 0.1022924 0.1023077 0.1023225 0.1023854 0.1024881 0.1025664 0.1025843 0.1025856 0.1026407 0.1027787
 0.1029923 0.1032734 0.1036011 0.1039224 0.1041961 0.1044556 0.1047742 0.1051508 0.1054759 0.1056492
 0.1056913 0.1056988 0.1057237 0.1057592 0.1058212 0.1059684 0.1062301 0.106565 0.1069133 0.1072538
 0.1075972 0.1079423 0.1082545 0.108479 0.1085775 0.1085638 0.1085081 0.1085032 0.1086171 0.1088632
 0.1091961 0.1095396 0.1098306 0.1100353 0.1101328 0.1101171 0.1100387 0.1100099 0.1101158 0.1103171
 0.1104714 0.1104564 0.1102469 0.1098771 0.1093727 0.1087484 0.1080516 0.1073733 0.1068066 0.1064027
 0.1061755 0.1061439 0.106349 0.1068073 0.1074537 0.1081609 0.1088155 0.1093438 0.1096663 0.109684
 0.1093529 0.1087452 0.1080055 0.1072601 0.1065762 0.1059662 0.1053979 0.1048333 0.1043079 0.1039696
 0.104012 0.1045607 0.1056075 0.1070152 0.1085627 0.1100195 0.1112381 0.1122054 0.1130036 0.1137196
 0.1143935 0.1150431 0.1156982 0.1163751 0.1170377 0.1176236 0.1181135 0.1185439 0.1189521 0.1193382
 0.1196784 0.1199532 0.1201649 0.1203477 0.120541 0.1207331 0.1208543 0.120852 0.1207534 0.1206268
 0.1205004 0.1203409 0.1200964 0.1197433 0.1193157 0.1189247 0.1187448 0.1189469 0.1196015 0.1206341
 0.1218831 0.1232028 0.1244982 0.125679 0.1266385 0.1273158 0.1277525 0.1280576 0.1283265 0.1286063
 0.1289096 0.1292305 0.1295524 0.1298579 0.1301392 0.1304065 0.1306881 0.1310095 0.1313583 0.1316845
 0.1319502 0.1321772 0.1324328 0.1327654 0.1331571 0.1335426 0.1338806 0.1341912 0.1345081 0.1348149
 0.1350614 0.1352387 0.1354009 0.1356117 0.1358981 0.1362486 0.1366204 0.13695 0.1371934 0.1373659
 0.1375249 0.1377135 0.1379344 0.1381739 0.1384246 0.138682 0.1389396 0.139201 0.1394852 0.1397991
 0.1401075 0.1403522 0.1405121 0.1406323 0.1407813 0.1409865 0.1412177 0.1414299 0.1416143 0.1418092
 0.1420611 0.1423745 0.1426985 0.1429678 0.1431539 0.1432803 0.1433982 0.1435489 0.1437437 0.1439675
 0.1441968 0.1444146 0.1446162 0.1448084 0.1450035 0.1452079 0.1454166 0.1456212 0.1458207 0.1460212
 0.1462267 0.1464363 0.1466533 0.1468934 0.1471748 0.1474905 0.1477991 0.1480519 0.1482316 0.1483594
 0.1484713 0.1485948 0.1487433 0.1489176 0.1491098 0.1493104 0.1495148 0.149722 0.1499288 0.1501297
 0.1503233 0.1505153 0.1507137 0.1509225 0.1511432 0.15138 0.1516332 0.1518882 0.1521209 0.1523193
 0.1524952 0.1526726 0.1528672 0.1530755 0.1532805 0.1534701 0.1536488 0.1538301 0.1540188 0.1542084
 0.154392 0.1545705 0.1547507 0.1549392 0.1551375 0.1553413 0.1555464 0.1557529 0.1559615 0.1561673
 0.1563616 0.1565419 0.1567157 0.1568949 0.1570842 0.1572796 0.1574785 0.1576869 0.1579086 0.1581334
 0.1583457 0.1585412 0.1587289 0.1589187 0.1591127 0.159308 0.1595033 0.1597 0.1598973 0.16009
 0.160277 0.1604652 0.1606607 0.1608633 0.161073 0.1612941 0.1615228 0.1617447 0.1619511 0.1621487
 0.1623489 0.1625559 0.1627684 0.1629848 0.1632038 0.163425 0.1636479 0.1638708 0.1640897 0.1642976
 0.1644866 0.1646562 0.1648175 0.1649847 0.1651635 0.1653506 0.1655391 0.165723 0.1659022 0.1660852
 0.1662811 0.1664902 0.1667051 0.1669178 0.1671223 0.1673187 0.1675136 0.167713 0.1679172 0.1681253
 0.1683363 0.1685446 0.1687463 0.1689485 0.1691603 0.16938 0.1696 0.1698153 0.1700208 0.1702113
 0.1703928 0.1705824 0.1707929 0.1710223 0.171255 0.1714762 0.1716848 0.171891 0.1720992 0.1723052
 0.1725103 0.1727194 0.1729276 0.1731272 0.173323 0.1735249 0.1737336 0.1739467 0.1741664 0.1743918
 0.1746167 0.1748363 0.1750482 0.1752521 0.1754543 0.1756618 0.1758741 0.1760915 0.1763177 0.1765462
 0.1767637 0.1769702 0.1771726 0.1773552 0.1774672 0.1773942 0.1768634 0.1753286 0.1719479 0.1657567
 0.156062 0.1428834 0.1270933 0.1101033 0.09334524 0.07790264 0.06441061 0.05314665 0.04417275 0.0374217
 0.03274845 0.03002061 0.02921873 0.03054617 0.03454939 0.04179316 0.05162801 0.06110074 0.06610633 0.06463183
 0.05868141 0.05244846 0.04882988 0.04802648 0.04879566 0.05007751 0.05153558 0.05336137 0.05588582 0.05920568
 0.06316853 0.06777503 0.07337002 0.08020408 0.08791516 0.09568053 0.10292 0.1097487 0.1167058 0.1241058
 0.131708 0.1389536 0.145414 0.1510071 0.1559097 0.1603593 0.1645184 0.1684599 0.1722173 0.1757859
 0.1790413 0.1817061 0.1834822 0.1842756 0.184306 0.1839894 0.1836954 0.1835974 0.1837089 0.1839927
 0.1844174 0.1849616 0.1856129 0.186358 0.1871676 0.1880022 0.1888333 0.1896445 0.1904199 0.1911462
 0.1918181 0.1924348 0.1929995 0.1935214 0.194006 0.1944494 0.1948499 0.1952168 0.1955635 0.1959004
 0.1962324 0.1965541 0.1968508 0.1971143 0.1973508 0.1975713 0.1977848 0.198 0.1982225 0.1984478
 0.1986658 0.1988708 0.1990665 0.1992625 0.1994671 0.1996785 0.1998866 0.200085 0.2002778 0.2004709
 0.2006662 0.2008643 0.2010643 0.2012629 0.2014592 0.2016573 0.2018593 0.2020611 0.2022592 0.2024542
 0.2026474 0.2028375 0.2030232 0.2032049 0.20339 0.2035918 0.2038167 0.2040524 0.2042793 0.2044906
 0.2046926 0.2048938 0.2051025 0.205322 0.2055378 0.2057213 0.205862 0.2059882 0.206147 0.2063605
 0.206606 0.2068417 0.2070497 0.207245 0.2074451 0.2076482 0.2078428 0.2080224 0.2081921 0.2083743
 0.2085962 0.2088551 0.2091144 0.2093499 0.2095729 0.2098001 0.2100314 0.2102666 0.2105055 0.2107264
 0.2108995 0.211035 0.2111955 0.2114453 0.2117861 0.2121496 0.2124617 0.2127094 0.2129325 0.2131722
 0.2134461 0.2137298 0.2139308 0.2139501 0.2138363 0.2138141 0.2140814 0.2146121 0.2152106 0.2157109
 0.2160786 0.2163642 0.2166152 0.2168265 0.2169495 0.2169538 0.2169008 0.2169498 0.217243 0.217759
 0.2183182 0.2187616 0.2190726 0.2193068 0.2194982 0.2196592 0.2197567 0.2196618 0.2192858 0.218833
 0.218751 0.219297 0.2202418 0.2211097 0.2216498 0.2219656 0.2222409 0.2225144 0.2227345 0.2228109
 0.222509 0.2215748 0.2202249 0.2192993 0.2195741 0.2209806 0.2227297 0.2241062 0.2249251 0.2253594
 0.2256294 0.2258537 0.2259588 0.2256853 0.2248773 0.2238708 0.2234122 0.2239721 0.2252194 0.2263801
 0.2270296 0.2273134 0.2275312 0.2277991 0.2279769 0.2276172 0.2262101 0.2239367 0.2220641 0.2220564
 0.2241401 0.2270336 0.2292202 0.2302544 0.2306457 0.2307427 0.2302169 0.2286569 0.2261931 0.2234356
 0.2212756 0.2207684 0.2224374 0.2253928 0.2278332 0.2288264 0.2291035 0.229863 0.2313396 0.2328104
 0.2335284 0.2333065 0.2323868 0.2310175 0.2293299 0.2277245 0.227104 0.2282293 0.230794 0.2335363
 0.2354054 0.2363533 0.236788 0.2363491 0.2336613 0.2279855 0.2212881 0.2176994 0.2198712 0.2262055
 0.2325719 0.2363724 0.2379703 0.2387468 0.2392403 0.2389961 0.2368404 0.2315281 0.2237107 0.2171596
 0.2162153 0.2214954 0.2291959 0.2346419 0.2354649 0.231843 0.2256669 0.2199836 0.2177476 0.2200284
 0.2255461 0.2319349 0.2371599 0.2400782 0.2404285 0.2387161 0.2361768 0.2344834 0.2345338 0.2351216
 0.2338506 0.2301607 0.226256 0.2238678 0.2215764 0.2174426 0.2132764 0.2134473 0.2192059 0.2265864
 0.2308612 0.2313339 0.2304805 0.2294367 0.2260504 0.2179774 0.2071193 0.1997074 0.2008571 0.2092574
 0.2183385 0.222706 0.2224335 0.2211333 0.2211456 0.221152 0.2180302 0.2109238 0.2033208 0.2001241
 0.2024368 0.2065789 0.2084484 0.2067926 0.2017782 0.1936882 0.1852799 0.1826311 0.1900174 0.2046848
 0.2190023 0.226742 0.2253584 0.2146298 0.1975557 0.1821989 0.1777654 0.1863533 0.2003973 0.2096254
 0.2092113 0.2006358 0.1872993 0.1722018 0.1593442 0.1541644 0.1602852 0.1758392 0.1934767 0.2039974
 0.2014346 0.187727 0.1731841 0.1690726 0.1773303 0.1891943 0.1950031 0.1929612 0.1877794 0.1846314
 0.1861771 0.1920514 0.1992426 0.2049312 0.2087437 0.2095715 0.2025487 0.184902 0.1636965 0.151181
 0.1520718 0.1611455 0.1730372 0.1870521 0.2007718 0.2067521 0.2009172 0.1902795 0.186965 0.1953415
 0.208287 0.2159027 0.2153048 0.2111471 0.2084323 0.2071914 0.2049704 0.2025836 0.20431 0.2119904
 0.2218039 0.2285309 0.2309812 0.2315141 0.2320418 0.232577 0.2325891 0.231888 0.230544 0.2290111
 0.2279883 0.2276337 0.2274171 0.2269229 0.2258274 0.2226727 0.21518 0.2034529 0.1920171 0.1862328
 0.1866118 0.1891897 0.1914209 0.193655 0.1936362 0.1849714 0.1655726 0.1445692 0.1356636 0.143896
 0.1618954 0.1782822 0.1863844 0.1848083 0.1740382 0.1566405 0.139978 0.1339021 0.1427219 0.1610745
 0.1796592 0.1932468 0.2012695 0.203385 0.1985028 0.1879541 0.1767495 0.1707066 0.1729095 0.1823679
 0.1943521 0.2015968 0.1978524 0.184107 0.171328 0.1723586 0.1884362 0.2071236 0.2162916 0.2163933
 0.215513 0.2167972 0.2169138 0.214894 0.2156542 0.223264 0.2349706 0.2439188 0.2451682 0.2376367
 0.2234649 0.2085166 0.2008492 0.2042138 0.213724 0.2211172 0.2227212 0.218964 0.2095022 0.1952664
 0.1836233 0.1839513 0.1967835 0.2125702 0.2225271 0.2266365 0.229681 0.2330028 0.2328726 0.2261457
 0.2155223 0.2078933 0.2075318 0.2123586 0.2174771 0.2203387 0.2207774 0.21809 0.211474 0.2033583
 0.1994286 0.2036857 0.2142833 0.225227 0.2317122 0.2331206 0.2316193 0.2293394 0.2269453 0.2238062
 0.2194131 0.2152219 0.2143735 0.2183453 0.2246032 0.229207 0.2313203 0.2334882 0.2376369 0.2424229
 0.244869 0.2436114 0.2401962 0.2377287 0.2383762 0.2416449 0.2447506 0.2449978 0.2423464 0.2396921
 0.2401998 0.2442858 0.2495732 0.2535967 0.2558061 0.2570418 0.258089 0.2589912 0.2590113 0.2571853
 0.25369 0.2506386 0.2505825 0.2539866 0.258796 0.2625659 0.2644346 0.2649799 0.2648758 0.2641851
 0.2627632 0.2609051 0.2593501 0.2586944 0.2589661 0.2597876 0.260767 0.2616584 0.2623366 0.2627872
 0.263078 0.2632682 0.2633818 0.2634615 0.263552 0.2636131 0.2635599 0.2634295 0.263407 0.263614
 0.2639453 0.2641839 0.2642053 0.2639782 0.2634384 0.2625083 0.2612389 0.2597981 0.2582774 0.2566279
 0.2548966 0.2534823 0.2530147 0.253882 0.2558705 0.2582953 0.2604721 0.2620607 0.2630522 0.2635795
 0.2637983 0.2638559 0.2638575 0.2638282 0.2637299 0.2635263 0.2632232 0.2628541 0.2624509 0.2620438
 0.2616741 0.2613749 0.2611327 0.260883 0.2605571 0.2601301 0.2596282 0.2590983 0.2585663 0.25801
 0.2573708 0.2566014 0.255704 0.2547323 0.2537677 0.2528823 0.2520951 0.2513589 0.2506045 0.2497912
 0.2488975 0.2478897 0.2467566 0.2455795 0.244513 0.2436583 0.2429799 0.2423587 0.2416975 0.2409525
 0.2401053 0.2391548 0.2381274 0.2370572 0.2359543 0.2348086 0.2336105 0.2323515 0.231016 0.2295918
 0.2280826 0.2265078 0.2248985 0.2232823 0.2216442 0.2198974 0.217909 0.2155553 0.2127453 0.2094105
 0.2055137 0.2010908 0.1962818 0.1913049 0.1863849 0.1816961 0.1773598 0.1734712 0.1701128 0.1673514
 0.1652424 0.1638296 0.1631339 0.1631482 0.163851 0.165212 0.1671718 0.1696219 0.1724119 0.1753744
 0.1783438 0.181173 0.1837709 0.1861407 0.1883586 0.1904818 0.1924856 0.1943041 0.1959108 0.1973232
 0.1985509 0.19958 0.2004137 0.2010927 0.2016696 0.2021767 0.2026224 0.2030069 0.203333 0.2036048
 0.203828 0.2040156 0.20419 0.2043762 0.2045907 0.2048385 0.2051158 0.2054242 0.2057799 0.2062017
 0.206686 0.2072079 0.2077509 0.2083212 0.2089315 0.2095885 0.210307 0.2111246 0.2120872 0.2132154
 0.2144855 0.2158418 0.217218 0.2185411 0.2197303 0.2207163 0.2214637 0.2219696 0.2222515 0.2223463
 0.2223027 0.2221552 0.2219092 0.2215579 0.2211076 0.2205783 0.2199914 0.2193606 0.2186911 0.2179838
 0.2172445 0.2164933 0.215761 0.2150722 0.2144267 0.2138015 0.2131741 0.2125442 0.2119317 0.2113571
 0.2108214 0.210302 0.2097673 0.2092026 0.2086171 0.2080189 0.2073849 0.2066657 0.2058231 0.2048564
 0.2037922 0.2026552 0.201455 0.2001925 0.1988665 0.1974711 0.1959952 0.1944305 0.1927807 0.191055
 0.1892488 0.1873414 0.1853319 0.1832764 0.1812702 0.1793869 0.1776484 0.1760455 0.1745618 0.1731761
 0.1718634 0.170602 0.16938 0.1682004 0.1670781 0.1660224 0.1650253 0.1640767 0.1631857 0.1623761
 0.1616663 0.1610542 0.1605195 0.1600423 0.1596205 0.1592652 0.1589886 0.1588063 0.1587332 0.1587528
 0.1588039 0.1588197 0.1587727 0.1586745 0.1585533 0.1584374 0.1583437 0.158274 0.1582174 0.1581421
 0.1579843 0.1576603 0.1570919 0.1562216 0.1550281 0.1535401 0.1518281 0.1499892 0.1481496 0.1464486
 0.1449912 0.1438235 0.1429454 0.1423104 0.1418255 0.141406 0.1410438 0.1408076 0.1407758 0.1409533
 0.1412275 0.1414315 0.1414956 0.1415191 0.1416729 0.1420628 0.1426851 0.1434477 0.1442162 0.1448851
 0.1454166 0.1458129 0.1460854 0.1462545 0.1463324 0.1463102 0.1461866 0.1459875 0.1457314 0.145414
 0.1450324 0.1445878 0.1440758 0.1435029 0.1428794 0.1421846 0.1413885 0.1404911 0.1394851 0.1383395
 0.1371019 0.1359727 0.1352155 0.1350168 0.1354064 0.1362376 0.137274 0.1383528 0.1393848 0.1401829
 0.1405087 0.1404516 0.1406078 0.1416519 0.1436966 0.1461637 0.1482962 0.1497076 0.1504158 0.1505312
 0.150106 0.1491873 0.1477941 0.14588 0.1434492 0.1406252 0.137551 0.1343718 0.1313177 0.128615
 0.1263455 0.1245011 0.1230721 0.1221009 0.1217227 0.1215641 0.1197038 0.1136753 0.1042721 0.0972348
 0.09840408 0.1071487 0.1168265 0.121809 0.1219557 0.1202732 0.1188208 0.1178888 0.1173617 0.117396
 0.1181308 0.1194119 0.1208358 0.1219967 0.12273 0.1230769 0.1230049 0.1221603 0.1198005 0.1150607
 0.10766 0.09849331 0.08931506 0.08171491 0.07640654 0.07326002 0.071658 0.07084574 0.07029774 0.06997573
 0.07021426 0.07131591 0.07328904 0.07595274 0.07912907 0.08259043 0.08593158 0.08873728 0.09090228 0.09261948
 0.09403741 0.09508012 0.09561463 0.09564438 0.09529009 0.0946825 0.09392838 0.09310563 0.09221081 0.09115389
 0.08991574 0.08870951 0.08786053 0.08749291 0.08743633 0.08744975 0.08742005 0.08734274 0.0872405 0.08713591
 0.08704691 0.08701393 0.08713283 0.08748274 0.08800142 0.08850658 0.08885506 0.0890377 0.08912435 0.08912361
 0.08889298 0.08827756 0.08740078 0.08664616 0.08617896 0.08565684 0.08466846 0.08335374 0.08232484 0.08200231
 0.08223816 0.08257583 0.08268162 0.08250377 0.0822217 0.0821488 0.08252092 0.08320968 0.08373426 0.08371185
</values></Ydata></ScRf><Data_Parameters_AB><parameter name="DPF">1</parameter><parameter name="NPT">3497</parameter><parameter name="FXV">3996</parameter><parameter name="LXV">500</parameter><parameter name="CSF">1</parameter><parameter name="MXY">0.0979947596788406</parameter><parameter name="MNY">-0.0961502566933632</parameter><parameter name="DAT">31/05/2022</parameter><parameter name="TIM">13:54:41.015 (GMT+2)</parameter><parameter name="DXU">WN</parameter></Data_Parameters_AB><AB__Qtest><MainReport name="Quality Test Report"><Header><Line><Legend>Test result ok/not ok [1/0]: </Legend><Value>0</Value></Line><Line><Legend>Method file: </Legend><Value>C:\Users\Public\Documents\Bruker\OPUS_8.2.28\QT\IRBT_v3_default.QT</Value></Line></Header><Matrix><Line><Legend></Legend><Legend>min</Legend><Legend>max</Legend><Legend>measured</Legend></Line><Line><Value>Absorption (X-Range 1):</Value><Value>0.400000</Value><Value>2.000000</Value><Value>0.125318</Value></Line><Line><Value>Noise (X-Range 4):</Value><Value></Value><Value>0.000300</Value><Value>0.000051</Value></Line><Line><Value>Signal/Noise (X-Range 2):</Value><Value>200.000000</Value><Value></Value><Value>38.657879</Value></Line><Line><Value>Signal/Noise (X-Range 3):</Value><Value>40.000000</Value><Value></Value><Value>25.062335</Value></Line><Line><Value>Water vapour (X-Range 5):</Value><Value></Value><Value>0.000300</Value><Value>0.000064</Value></Line><Line><Value>Signal/Water (X-Range 2):</Value><Value>100.000000</Value><Value></Value><Value>30.578173</Value></Line><Line><Value>Signal/Water (X-Range 3):</Value><Value>20.000000</Value><Value></Value><Value>19.824171</Value></Line><Line><Value>Fringes (X-Range 6):</Value><Value></Value><Value>0.000100</Value><Value>0.000064</Value></Line></Matrix></MainReport></AB__Qtest><Data_Parameters_ScSm><parameter name="DPF">1</parameter><parameter name="NPT">1814</parameter><parameter name="FXV">3996.33169228125</parameter><parameter name="LXV">499.541461535156</parameter><parameter name="CSF">1</parameter><parameter name="MXY">0.285879701375961</parameter><parameter name="MNY">0.0364505872130394</parameter><parameter name="DAT">31/05/2022</parameter><parameter name="TIM">13:54:41.015 (GMT+2)</parameter><parameter name="DXU">WN</parameter></Data_Parameters_ScSm><Data_Parameters_ScRf><parameter name="DPF">1</parameter><parameter name="NPT">1820</parameter><parameter name="FXV">4004.04661832813</parameter><parameter name="LXV">495.683998511719</parameter><parameter name="CSF">1</parameter><parameter name="MXY">0.264979869127274</parameter><parameter name="MNY">0.0292187258601189</parameter><parameter name="DAT">31/05/2022</parameter><parameter name="TIM">13:54:14.434 (GMT+2)</parameter><parameter name="DXU">WN</parameter></Data_Parameters_ScRf><Optic_Parameters_Rf><parameter name="APR">0</parameter><parameter name="APT">Open</parameter><parameter name="BMS">KBr</parameter><parameter name="DTC">RT-DLaTGS_IR-Biotyper [Microplate reader]</parameter><parameter name="HPF">0</parameter><parameter name="LPF">10.0</parameter><parameter name="LPV">4000</parameter><parameter name="PGR">0</parameter><parameter name="RCH">Module port</parameter><parameter name="RDX">0</parameter><parameter name="SRC">MIR</parameter><parameter name="VEL">10.0</parameter><parameter name="SON">Off</parameter></Optic_Parameters_Rf><Acquisition_Parameters_Rf><parameter name="ADT">1</parameter><parameter name="AQM">DD</parameter><parameter name="CFE">0</parameter><parameter name="COR">0</parameter><parameter name="DEL">0</parameter><parameter name="DLY">0</parameter><parameter name="HFW">8000</parameter><parameter name="LFW">0</parameter><parameter name="NSR">32</parameter><parameter name="PLF">AB</parameter><parameter name="RES">6</parameter><parameter name="RGN">-1</parameter><parameter name="STR">0</parameter><parameter name="TCL">MakeCompatibleScalar (0, {WSV=1.000000, ARV=0});</parameter><parameter name="TDL">37</parameter><parameter name="RPO">0</parameter></Acquisition_Parameters_Rf><FT_-_Parameters_Rf><parameter name="APF">B3</parameter><parameter name="HFQ">500</parameter><parameter name="LFQ">4000</parameter><parameter name="NLI">0</parameter><parameter name="PHR">24</parameter><parameter name="PHZ">ML</parameter><parameter name="SPZ">NO</parameter><parameter name="ZFF">1</parameter></FT_-_Parameters_Rf><Optic_Parameters_><parameter name="APR">0</parameter><parameter name="APT">Open</parameter><parameter name="BMS">KBr</parameter><parameter name="CHN">Module port</parameter><parameter name="DTC">RT-DLaTGS_IR-Biotyper [Microplate reader]</parameter><parameter name="HPF">0</parameter><parameter name="LPF">10.0</parameter><parameter name="LPV">4000</parameter><parameter name="PGN">0</parameter><parameter name="RDX">0</parameter><parameter name="SRC">MIR</parameter><parameter name="VEL">10.0</parameter><parameter name="SON">Off</parameter></Optic_Parameters_><FT_-_Parameters_><parameter name="APF">B3</parameter><parameter name="HFQ">500</parameter><parameter name="LFQ">4000</parameter><parameter name="NLI">0</parameter><parameter name="PHR">24</parameter><parameter name="PHZ">ML</parameter><parameter name="SPZ">NO</parameter><parameter name="ZFF">1</parameter></FT_-_Parameters_><Acquisition_Parameters_><parameter name="ADT">1</parameter><parameter name="AQM">DD</parameter><parameter name="CFE">0</parameter><parameter name="COR">0</parameter><parameter name="DEL">0</parameter><parameter name="DLY">0</parameter><parameter name="HFW">8000</parameter><parameter name="LFW">0</parameter><parameter name="NSS">32</parameter><parameter name="PLF">AB</parameter><parameter name="RES">6</parameter><parameter name="SOT">0</parameter><parameter name="TCL">MakeCompatibleScalar (0, {WSV=1.000000, ARV=0});</parameter><parameter name="TDL">37</parameter><parameter name="SPO">0</parameter><parameter name="SGN">-1</parameter></Acquisition_Parameters_><Instrument_Parameters_Rf><parameter name="HFL">15800.168544</parameter><parameter name="LFL">0</parameter><parameter name="LWN">15800.168544</parameter><parameter name="ABP">32197</parameter><parameter name="SSP">1</parameter><parameter name="ARG">2</parameter><parameter name="ASG">2</parameter><parameter name="ASS">32</parameter><parameter name="GFW">16</parameter><parameter name="GBW">16</parameter><parameter name="BFW">0</parameter><parameter name="BBW">0</parameter><parameter name="PKA">7260</parameter><parameter name="PKL">4996</parameter><parameter name="PRA">7444</parameter><parameter name="PRL">5001</parameter><parameter name="P2A">1</parameter><parameter name="P2L">1</parameter><parameter name="P2R">1</parameter><parameter name="P2K">1</parameter><parameter name="DAQ">0</parameter><parameter name="AG2">1</parameter><parameter name="SSM">1</parameter><parameter name="RSN">25725</parameter><parameter name="CRR">0</parameter><parameter name="SRT">1654005254.435</parameter><parameter name="DUR">19.6379852294922</parameter><parameter name="TSC">29</parameter><parameter name="MVD">0.317191451787949</parameter><parameter name="AN1">0.22581525409657</parameter><parameter name="AN2">0</parameter><parameter name="VSN">2.485 Apr  4 2017</parameter><parameter name="SRN">0085</parameter><parameter name="CAM">0</parameter><parameter name="INS">IR-Biotyper</parameter><parameter name="FOC">69</parameter><parameter name="RDY">1</parameter><parameter name="ARS">32</parameter></Instrument_Parameters_Rf><Sample_Parameters_><parameter name="BLD"></parameter><parameter name="CNM">Admin</parameter><parameter name="CPY"></parameter><parameter name="DPM"></parameter><parameter name="EXP">IRBT_v3_32Scans.XPM</parameter><parameter name="LCT"></parameter><parameter name="SFM">Microplate, HTS-XT</parameter><parameter name="SNM">220531-1301_CGR32F (D_2)_B6_82c00dd6-be41-442a-ad71-0102fc3acc47.0</parameter><parameter name="XPP">C:\Users\Public\Documents\Bruker\OPUS_8.2.28\XPM</parameter><parameter name="IST">OK</parameter><parameter name="CPG">1252</parameter><parameter name="UID">957b0ef9-02f0-4f96-950e-bfab3eeea78e</parameter></Sample_Parameters_><Instrument_Parameters_><parameter name="HFL">15800.168544</parameter><parameter name="LFL">0</parameter><parameter name="LWN">15800.168544</parameter><parameter name="ABP">32197</parameter><parameter name="SSP">1</parameter><parameter name="ASG">2</parameter><parameter name="ARG">2</parameter><parameter name="ASS">32</parameter><parameter name="GFW">16</parameter><parameter name="GBW">16</parameter><parameter name="BFW">0</parameter><parameter name="BBW">0</parameter><parameter name="PKA">8048</parameter><parameter name="PKL">4988</parameter><parameter name="PRA">8340</parameter><parameter name="PRL">4993</parameter><parameter name="P2A">1</parameter><parameter name="P2L">1</parameter><parameter name="P2R">1</parameter><parameter name="P2K">1</parameter><parameter name="DAQ">0</parameter><parameter name="AG2">1</parameter><parameter name="SSM">1</parameter><parameter name="RSN">13488</parameter><parameter name="CRR">0</parameter><parameter name="SRT">1654005281.015</parameter><parameter name="DUR">19.6379852294922</parameter><parameter name="TSC">29</parameter><parameter name="MVD">0.286889791488647</parameter><parameter name="AN1">0.225824246791812</parameter><parameter name="AN2">0</parameter><parameter name="VSN">2.485 Apr  4 2017</parameter><parameter name="SRN">0085</parameter><parameter name="CAM">0</parameter><parameter name="INS">IR-Biotyper</parameter><parameter name="FOC">69</parameter><parameter name="RDY">1</parameter></Instrument_Parameters_><History/></OPUSDataFile>
