<?xml version="1.0" encoding="UTF-8" ?>
<OPUSDataFile><AB><Ydata ylabel="Absorbance Units"><values byteorder="INTEL" format="FLOAT32" numvalues="3497"> -0.08767667 -0.08769991 -0.08772072 -0.08773943 -0.08775064 -0.0877541 -0.08775793 -0.08776286 -0.08778083 -0.08781099
 -0.08785555 -0.08791116 -0.08796731 -0.08802173 -0.08806223 -0.08809277 -0.08811231 -0.08813068 -0.08815898 -0.0882027
 -0.08827295 -0.08836031 -0.08846523 -0.08856975 -0.08866644 -0.08874828 -0.08881003 -0.08886208 -0.08890476 -0.08895136
 -0.08900375 -0.08906204 -0.08912632 -0.08918394 -0.0892344 -0.08926691 -0.08928333 -0.08928799 -0.08928521 -0.0892928
 -0.08931302 -0.08936211 -0.08943459 -0.08953151 -0.0896396 -0.08974502 -0.0898362 -0.08989698 -0.0899307 -0.0899312
 -0.08991767 -0.08989535 -0.08988007 -0.08987877 -0.08988801 -0.08990882 -0.08993116 -0.0899531 -0.089983 -0.09002121
 -0.09008985 -0.09018866 -0.0903212 -0.09048226 -0.09064204 -0.09079642 -0.09091246 -0.09099479 -0.09103674 -0.09104738
 -0.09103861 -0.09101686 -0.0909943 -0.09097305 -0.09095973 -0.09095066 -0.0909467 -0.09094004 -0.09092689 -0.09090675
 -0.0908764 -0.09085034 -0.09082943 -0.09083246 -0.09086157 -0.0909261 -0.09102673 -0.09116167 -0.09132995 -0.09151979
 -0.09172754 -0.09192663 -0.0921113 -0.09224416 -0.09232726 -0.09234167 -0.09230494 -0.09223567 -0.09215376 -0.09209049
 -0.09205414 -0.09206529 -0.09211235 -0.09219965 -0.09229615 -0.09239183 -0.09246247 -0.09249634 -0.09250188 -0.09247649
 -0.09244791 -0.09241904 -0.09240426 -0.09240465 -0.09241464 -0.09243412 -0.09245925 -0.09249186 -0.09254196 -0.0926103
 -0.09270714 -0.0928271 -0.09296449 -0.09310862 -0.09323788 -0.0933485 -0.09342398 -0.09347539 -0.09350625 -0.09352625
 -0.09354373 -0.09355657 -0.09356432 -0.09357045 -0.0935722 -0.09359221 -0.09363303 -0.09371827 -0.09385301 -0.09402253
 -0.09422687 -0.09437307 -0.09445744 -0.09439864 -0.09421394 -0.09397537 -0.09369939 -0.09348968 -0.09334043 -0.09329031
 -0.09332443 -0.0934395 -0.0936104 -0.09380998 -0.09400948 -0.09417349 -0.09429649 -0.0943594 -0.0943891 -0.09439114
 -0.09438899 -0.09439283 -0.0943988 -0.09440791 -0.09441288 -0.09441188 -0.09441587 -0.09442532 -0.09445862 -0.09451579
 -0.09460062 -0.09471051 -0.09483103 -0.09495947 -0.0950783 -0.09518612 -0.09527163 -0.09533243 -0.0953582 -0.09535088
 -0.09530421 -0.09523483 -0.09515098 -0.09507658 -0.09502761 -0.09501773 -0.0950586 -0.09514377 -0.09527694 -0.09543338
 -0.095611 -0.09578035 -0.09593823 -0.09606397 -0.09615607 -0.09620628 -0.09621505 -0.09618877 -0.09612909 -0.09604977
 -0.09595195 -0.09584639 -0.09573501 -0.09562693 -0.09552593 -0.09544282 -0.09537945 -0.0953437 -0.09533162 -0.09534363
 -0.09537229 -0.09541339 -0.09546219 -0.09551585 -0.0955722 -0.09563015 -0.09568869 -0.09574682 -0.09580929 -0.09587619
 -0.09595596 -0.09604926 -0.0961529 -0.09626569 -0.0963668 -0.09645472 -0.09650685 -0.09652726 -0.09651799 -0.09648769
 -0.09646041 -0.09643944 -0.09644378 -0.09646721 -0.09651103 -0.09656495 -0.09661877 -0.09667204 -0.09671767 -0.0967724
 -0.09684087 -0.09693751 -0.09707128 -0.09722771 -0.09740881 -0.097578 -0.09773097 -0.0978504 -0.09793485 -0.09797981
 -0.09798467 -0.09793558 -0.09783558 -0.09769573 -0.09752598 -0.0973721 -0.09724038 -0.09717303 -0.09716415 -0.09722896
 -0.0973421 -0.0974808 -0.09761783 -0.09771553 -0.0977812 -0.09780403 -0.09781257 -0.09781706 -0.09783265 -0.0978697
 -0.09791248 -0.09796251 -0.09798502 -0.09797489 -0.09792501 -0.0978338 -0.09774113 -0.09764947 -0.09760626 -0.09760977
 -0.0976746 -0.09778984 -0.09792288 -0.0980576 -0.09812947 -0.09814351 -0.09807039 -0.09794381 -0.09779646 -0.0976477
 -0.09753073 -0.09743622 -0.09736961 -0.09731312 -0.09725886 -0.0972027 -0.09713972 -0.09708161 -0.09702974 -0.09699331
 -0.09697458 -0.09696701 -0.09697064 -0.09696437 -0.09694729 -0.09690081 -0.09682748 -0.09673634 -0.09663159 -0.09653647
 -0.0964498 -0.09637961 -0.09632437 -0.09628423 -0.09626015 -0.09625491 -0.09626458 -0.09629002 -0.09631684 -0.0963381
 -0.09633873 -0.096311 -0.09624618 -0.09614135 -0.09598669 -0.09577873 -0.09551992 -0.09520806 -0.09487082 -0.09450976
 -0.09415177 -0.09379774 -0.09346054 -0.09314159 -0.09285731 -0.09261016 -0.0924224 -0.09228883 -0.09221058 -0.09217276
 -0.092148 -0.09212712 -0.09208649 -0.09202514 -0.09193825 -0.09181396 -0.09164421 -0.09141961 -0.09112635 -0.09079482
 -0.09042785 -0.09006541 -0.08971739 -0.08939459 -0.0891009 -0.0888229 -0.08856012 -0.08829452 -0.08802599 -0.0877545
 -0.08748195 -0.08722525 -0.08698151 -0.08675215 -0.08652341 -0.08625626 -0.08594587 -0.08555368 -0.08511189 -0.0846447
 -0.08418433 -0.08377465 -0.08341212 -0.08311126 -0.08284739 -0.08261549 -0.08238809 -0.08215512 -0.08190623 -0.08163583
 -0.08135521 -0.08106541 -0.0807723 -0.0804769 -0.08016197 -0.07982654 -0.07945053 -0.0790365 -0.0785939 -0.07812836
 -0.07766997 -0.07721966 -0.07679661 -0.07639606 -0.07601919 -0.07565787 -0.07530288 -0.07494573 -0.07457315 -0.07418834
 -0.07378571 -0.07338364 -0.07299012 -0.07261202 -0.07225832 -0.07190298 -0.07154369 -0.0711508 -0.07071707 -0.07026105
 -0.06978261 -0.06933257 -0.0689123 -0.06854089 -0.06821405 -0.06790734 -0.06761535 -0.06730051 -0.06696372 -0.06658527
 -0.0661754 -0.06574349 -0.06530044 -0.06486697 -0.06444217 -0.06403622 -0.06363338 -0.06322773 -0.06280328 -0.06234764
 -0.06186898 -0.06136291 -0.06086042 -0.06036607 -0.05990688 -0.0594881 -0.05911161 -0.05877877 -0.05846207 -0.05815966
 -0.05783364 -0.05748345 -0.05708691 -0.05664666 -0.05616122 -0.05563533 -0.05507895 -0.05450128 -0.05392235 -0.05335446
 -0.05282404 -0.05233283 -0.05189579 -0.05149761 -0.0511342 -0.05078828 -0.05045017 -0.05011442 -0.04977688 -0.04943943
 -0.04910218 -0.04876482 -0.0484278 -0.04808561 -0.04773799 -0.04737765 -0.04700436 -0.04661509 -0.04621053 -0.04579494
 -0.04536926 -0.04494026 -0.04450754 -0.0440737 -0.04363744 -0.04319691 -0.04275268 -0.0423032 -0.04185381 -0.04140753
 -0.04097291 -0.04055731 -0.04016248 -0.03979418 -0.03943872 -0.0390948 -0.03874335 -0.03837923 -0.03799788 -0.03759703
 -0.03718703 -0.03676845 -0.03635018 -0.03593253 -0.03551863 -0.03510902 -0.03470925 -0.03432059 -0.03395236 -0.0336042
 -0.03328118 -0.03297933 -0.03269448 -0.03242002 -0.032145 -0.03186566 -0.03157313 -0.0312708 -0.03095765 -0.03063957
 -0.03032024 -0.02999812 -0.02967391 -0.02934322 -0.02900374 -0.0286626 -0.02831961 -0.02798936 -0.02767329 -0.02737269
 -0.0270871 -0.02679939 -0.02650885 -0.02620058 -0.02587757 -0.02554492 -0.02520768 -0.02488403 -0.02457516 -0.02429339
 -0.02403416 -0.02379671 -0.02357542 -0.02336473 -0.02316062 -0.02296001 -0.02275663 -0.02254778 -0.02232593 -0.02208665
 -0.02183336 -0.02156394 -0.02129582 -0.0210308 -0.02078337 -0.02055523 -0.02034476 -0.02015155 -0.0199625 -0.01977615
 -0.01957439 -0.0193558 -0.01910232 -0.01881697 -0.01849591 -0.01815065 -0.01780128 -0.01745987 -0.01715428 -0.01688332
 -0.016659 -0.01646683 -0.01630102 -0.01614913 -0.01600248 -0.01586059 -0.01572109 -0.01558816 -0.01546321 -0.01534367
 -0.01523005 -0.01511352 -0.01499343 -0.01486397 -0.0147249 -0.01457518 -0.01441439 -0.01423799 -0.01404572 -0.01383175
 -0.01360045 -0.01335969 -0.01311863 -0.012901 -0.01270948 -0.01256255 -0.01244587 -0.01235509 -0.01226804 -0.01216577
 -0.01204382 -0.0118896 -0.011728 -0.01156239 -0.01142178 -0.01131618 -0.01124226 -0.01120363 -0.01116693 -0.01112949
 -0.01107348 -0.01099894 -0.01093156 -0.01087381 -0.01086175 -0.01089103 -0.01096194 -0.01106334 -0.01116126 -0.01124867
 -0.0112924 -0.01129716 -0.01125267 -0.01117423 -0.01107141 -0.01096195 -0.01086278 -0.01077745 -0.01071672 -0.0106597
 -0.01060373 -0.01052331 -0.01040884 -0.01026749 -0.01009509 -0.00993748 -0.009797671 -0.00971799 -0.009699724 -0.009738535
 -0.0098303 -0.009932389 -0.01004349 -0.0101325 -0.0102065 -0.0102724 -0.01033429 -0.01040834 -0.01048429 -0.01055421
 -0.01060872 -0.01062913 -0.01063072 -0.01061427 -0.01060768 -0.01062858 -0.01067796 -0.01076583 -0.01085877 -0.01095177
 -0.01101641 -0.01104515 -0.01104879 -0.01102627 -0.01101578 -0.01101916 -0.01106734 -0.01115898 -0.01129461 -0.01146822
 -0.01165138 -0.01183696 -0.01198674 -0.01209978 -0.01215225 -0.01215528 -0.01211083 -0.01204114 -0.01196758 -0.01191176
 -0.01189789 -0.01192837 -0.01201595 -0.01213543 -0.0122849 -0.01242712 -0.01255383 -0.01263987 -0.01267973 -0.01266796
 -0.01260328 -0.01249077 -0.01233084 -0.0121366 -0.01191066 -0.01168223 -0.011457 -0.0112797 -0.01115341 -0.01111556
 -0.01115608 -0.01127772 -0.01145442 -0.01165118 -0.01184199 -0.01198286 -0.01207361 -0.01209284 -0.01207429 -0.0120242
 -0.01198774 -0.01198152 -0.01203218 -0.01215131 -0.01233467 -0.01258585 -0.01287501 -0.01320093 -0.01352271 -0.01383821
 -0.01411366 -0.01434901 -0.01453077 -0.01466173 -0.01474838 -0.01479465 -0.01481546 -0.01481519 -0.01480819 -0.01480279
 -0.01481405 -0.01485762 -0.0149541 -0.01511711 -0.01536727 -0.01569507 -0.01610873 -0.01656759 -0.01706395 -0.01754907
 -0.01801003 -0.01842066 -0.01877356 -0.01907215 -0.01931505 -0.0195254 -0.01970453 -0.01988665 -0.02007307 -0.02029194
 -0.02053922 -0.02081063 -0.02109685 -0.02136304 -0.02160833 -0.02180831 -0.02198037 -0.02213789 -0.02230273 -0.02250651
 -0.02275128 -0.02305519 -0.02339116 -0.02375552 -0.02410649 -0.02442905 -0.02469637 -0.02489465 -0.02504042 -0.02512934
 -0.02522022 -0.02531705 -0.02547703 -0.02570288 -0.02600417 -0.02637716 -0.02678422 -0.02722023 -0.02763794 -0.02803684
 -0.02838915 -0.02869987 -0.02896446 -0.02919309 -0.02939746 -0.02959056 -0.0297908 -0.03000536 -0.03024772 -0.03051151
 -0.03079939 -0.03109529 -0.03139481 -0.03168416 -0.03195829 -0.03221581 -0.03245455 -0.03268611 -0.03291104 -0.03314325
 -0.03338343 -0.03363609 -0.03390057 -0.03417088 -0.03444609 -0.03471826 -0.03498683 -0.03524577 -0.03549493 -0.03572997
 -0.03595367 -0.03616631 -0.03637646 -0.03659267 -0.03682344 -0.03708005 -0.03735916 -0.0376652 -0.03798128 -0.038303
 -0.03861567 -0.03891294 -0.03919924 -0.039473 -0.03975141 -0.04003619 -0.04033485 -0.04064773 -0.04096375 -0.04128196
 -0.04158703 -0.04188 -0.04215817 -0.04242462 -0.04268832 -0.04295141 -0.04322347 -0.04350432 -0.04379861 -0.04410325
 -0.04441864 -0.04473568 -0.04505079 -0.04534683 -0.04561564 -0.04584013 -0.0460094 -0.04612809 -0.04618913 -0.04623491
 -0.04626719 -0.04634866 -0.04648572 -0.04671481 -0.04703793 -0.04743306 -0.04789543 -0.04836092 -0.04882511 -0.04922805
 -0.04957365 -0.0498398 -0.0500411 -0.05019666 -0.05032663 -0.05047167 -0.05064341 -0.05087541 -0.05115471 -0.05148794
 -0.05184168 -0.05219999 -0.05254072 -0.05284813 -0.05313195 -0.05339109 -0.05364049 -0.05388605 -0.05410676 -0.05430296
 -0.05442836 -0.05448053 -0.05444921 -0.05433953 -0.05421195 -0.05407612 -0.05402188 -0.05404725 -0.05419912 -0.05445582
 -0.05479371 -0.05518576 -0.0555748 -0.05595426 -0.0562893 -0.05659936 -0.05688873 -0.0571735 -0.05746981 -0.05776162
 -0.05804925 -0.05830617 -0.05852115 -0.05870483 -0.05885353 -0.05901038 -0.05918023 -0.05937862 -0.05960662 -0.05982728
 -0.06003845 -0.06020002 -0.06031644 -0.0603928 -0.06043724 -0.06048308 -0.06053049 -0.06059799 -0.06067813 -0.06076568
 -0.0608579 -0.06094588 -0.06104069 -0.06114428 -0.0612785 -0.0614554 -0.06168979 -0.06199522 -0.06235417 -0.06277153
 -0.06319331 -0.0636135 -0.06397796 -0.06427865 -0.06451205 -0.06467748 -0.06482763 -0.06496567 -0.06514916 -0.06537418
 -0.0656493 -0.06596255 -0.06627498 -0.06657963 -0.06683689 -0.06705523 -0.06722808 -0.06737295 -0.06750757 -0.06764393
 -0.06779902 -0.06797228 -0.0681705 -0.06838054 -0.06860176 -0.0688118 -0.06900515 -0.0691655 -0.06928618 -0.06938322
 -0.06945519 -0.06955025 -0.06967107 -0.06985335 -0.07009526 -0.07037909 -0.07069848 -0.07100292 -0.07129401 -0.07154747
 -0.07177631 -0.07200124 -0.07222899 -0.07248578 -0.07275718 -0.07303939 -0.07331078 -0.07354954 -0.07375317 -0.07391057
 -0.074039 -0.07414298 -0.07423367 -0.07431719 -0.07438519 -0.07443715 -0.07446513 -0.07446664 -0.07445894 -0.07444274
 -0.07445671 -0.07450233 -0.07460975 -0.07477564 -0.07499684 -0.0752644 -0.07554495 -0.07582956 -0.07607938 -0.07629176
 -0.07644325 -0.07653955 -0.07657675 -0.07656553 -0.0765121 -0.07642805 -0.07632052 -0.0761998 -0.07607017 -0.07594234
 -0.07581907 -0.07571083 -0.0756206 -0.07554882 -0.07549757 -0.07544327 -0.07538486 -0.07527946 -0.07512547 -0.07489023
 -0.0745775 -0.07419255 -0.07374433 -0.07326874 -0.0727724 -0.07229046 -0.07182264 -0.07138421 -0.07097263 -0.07059004
 -0.07023596 -0.06991154 -0.06961346 -0.06934315 -0.06908683 -0.0688415 -0.06858882 -0.06832229 -0.06803698 -0.06772843
 -0.06741577 -0.06709922 -0.06681067 -0.06655208 -0.06634481 -0.06618868 -0.06608311 -0.06602643 -0.06600739 -0.06602567
 -0.06607546 -0.06615461 -0.06625888 -0.06637646 -0.06648842 -0.06657699 -0.06661128 -0.06658739 -0.06648613 -0.06632826
 -0.06611765 -0.06588127 -0.06563279 -0.06537852 -0.06512535 -0.064859 -0.06457833 -0.06426953 -0.06393033 -0.06356017
 -0.06315869 -0.06274002 -0.06230554 -0.06187953 -0.06146277 -0.06107464 -0.0607105 -0.06036527 -0.06002877 -0.05967162
 -0.05928947 -0.05885397 -0.05838554 -0.05788317 -0.05740962 -0.05699902 -0.05675509 -0.05673883 -0.05704349 -0.05773201
 -0.05879979 -0.06028096 -0.06202954 -0.06404108 -0.06609105 -0.06815733 -0.07005879 -0.07178204 -0.07326657 -0.07451494
 -0.07556953 -0.07643828 -0.07719438 -0.07784069 -0.07842674 -0.07895133 -0.07943448 -0.07987829 -0.08029396 -0.08068701
 -0.08106928 -0.08144185 -0.08181141 -0.08217101 -0.08251889 -0.08284797 -0.08315439 -0.08343676 -0.08369402 -0.08392624
 -0.08413405 -0.08431235 -0.08446123 -0.08456968 -0.08463705 -0.08465277 -0.0846173 -0.08453585 -0.08441338 -0.08428485
 -0.0841581 -0.08408452 -0.08406462 -0.08412998 -0.08426694 -0.08446857 -0.08471473 -0.08497816 -0.08524425 -0.0854917
 -0.08571257 -0.08589786 -0.08603978 -0.0861351 -0.0861719 -0.08614857 -0.08604584 -0.08586113 -0.08557241 -0.08517455
 -0.08467788 -0.0840809 -0.08348235 -0.08289256 -0.0825026 -0.08232295 -0.08253165 -0.08310711 -0.08407516 -0.08537129
 -0.08684793 -0.08843771 -0.0899451 -0.09135389 -0.09255378 -0.09358802 -0.0944519 -0.09520357 -0.09587909 -0.09650652
 -0.09710941 -0.09768254 -0.09823 -0.09873747 -0.09920243 -0.09961823 -0.09998312 -0.1003018 -0.1005742 -0.100813
 -0.1010191 -0.1012087 -0.1013827 -0.1015566 -0.1017307 -0.1019157 -0.1021087 -0.1023097 -0.1025117 -0.1027023
 -0.1028761 -0.1030186 -0.1031355 -0.1032231 -0.1032991 -0.1033721 -0.1034578 -0.1035673 -0.1036977 -0.1038534
 -0.1040127 -0.1041727 -0.1043153 -0.1044366 -0.104542 -0.1046315 -0.1047257 -0.1048252 -0.1049369 -0.1050586
 -0.1051747 -0.1052842 -0.1053723 -0.1054443 -0.1055065 -0.105566 -0.1056406 -0.1057297 -0.1058419 -0.1059689
 -0.1061072 -0.1062477 -0.1063843 -0.1065096 -0.1066194 -0.1067091 -0.1067748 -0.1068234 -0.1068531 -0.1068864
 -0.1069254 -0.1069922 -0.1070888 -0.1072147 -0.1073688 -0.1075284 -0.1076922 -0.1078381 -0.1079675 -0.1080739
 -0.1081598 -0.1082291 -0.1082835 -0.1083277 -0.1083634 -0.1083944 -0.1084226 -0.1084512 -0.1084795 -0.1085085
 -0.1085352 -0.1085579 -0.1085768 -0.1085899 -0.1086066 -0.1086274 -0.1086652 -0.1087223 -0.1088007 -0.1089013
 -0.1090091 -0.1091234 -0.1092251 -0.1093148 -0.1093866 -0.1094428 -0.1094902 -0.1095298 -0.1095685 -0.1096047
 -0.109639 -0.10967 -0.1096951 -0.1097154 -0.1097297 -0.1097433 -0.109758 -0.1097829 -0.1098226 -0.1098818
 -0.1099647 -0.1100629 -0.1101771 -0.1102901 -0.1104 -0.1104964 -0.1105782 -0.1106491 -0.1107097 -0.1107712
 -0.1108337 -0.1109048 -0.1109831 -0.1110676 -0.1111564 -0.1112432 -0.111328 -0.111407 -0.1114825 -0.1115566
 -0.1116297 -0.1117044 -0.1117767 -0.1118447 -0.111905 -0.1119545 -0.1119963 -0.1120301 -0.1120622 -0.1120942
 -0.112129 -0.1121672 -0.1122089 -0.112254 -0.1123032 -0.1123565 -0.1124129 -0.1124716 -0.1125268 -0.1125777
 -0.1126176 -0.1126485 -0.1126715 -0.1126909 -0.1127156 -0.1127479 -0.112796 -0.1128564 -0.11293 -0.1130104
 -0.1130938 -0.1131763 -0.1132548 -0.1133303 -0.1134022 -0.1134731 -0.1135436 -0.1136144 -0.1136861 -0.1137569
 -0.1138268 -0.1138925 -0.1139539 -0.1140094 -0.1140591 -0.1141041 -0.1141445 -0.1141813 -0.1142144 -0.1142431
 -0.114269 -0.1142935 -0.1143197 -0.1143529 -0.1143933 -0.1144447 -0.1145014 -0.1145611 -0.1146184 -0.1146688
 -0.1147147 -0.1147549 -0.1147963 -0.1148405 -0.1148889 -0.1149424 -0.1149953 -0.1150474 -0.1150931 -0.1151323
 -0.1151644 -0.1151898 -0.1152109 -0.1152282 -0.115245 -0.1152622 -0.1152834 -0.1153097 -0.1153449 -0.115389
 -0.1154446 -0.1155098 -0.1155849 -0.1156647 -0.115747 -0.1158247 -0.1158941 -0.1159515 -0.1159939 -0.1160261
 -0.1160477 -0.1160697 -0.1160933 -0.1161264 -0.11617 -0.1162231 -0.1162855 -0.1163499 -0.116416 -0.1164766
 -0.1165318 -0.1165776 -0.1166148 -0.1166435 -0.1166649 -0.1166811 -0.116693 -0.1167024 -0.11671 -0.1167168
 -0.1167243 -0.116734 -0.1167466 -0.1167637 -0.1167821 -0.1168017 -0.1168161 -0.1168235 -0.1168229 -0.1168133
 -0.1168042 -0.1167961 -0.1168011 -0.1168196 -0.1168531 -0.1169008 -0.1169531 -0.1170092 -0.1170602 -0.1171072
 -0.1171495 -0.1171887 -0.1172288 -0.1172695 -0.1173126 -0.1173555 -0.1173963 -0.1174317 -0.1174584 -0.1174758
 -0.1174816 -0.1174811 -0.1174746 -0.1174704 -0.1174705 -0.1174783 -0.1174948 -0.1175154 -0.1175399 -0.1175629
 -0.1175841 -0.1176046 -0.1176246 -0.1176479 -0.1176739 -0.117702 -0.1177308 -0.1177554 -0.1177748 -0.1177847
 -0.1177863 -0.1177787 -0.117765 -0.1177478 -0.1177304 -0.1177159 -0.1177059 -0.1177023 -0.1177043 -0.1177124
 -0.1177249 -0.1177419 -0.1177608 -0.1177817 -0.1178007 -0.1178176 -0.117831 -0.1178408 -0.1178505 -0.1178605
 -0.117876 -0.1178969 -0.1179247 -0.1179584 -0.1179956 -0.1180352 -0.1180742 -0.118112 -0.1181467 -0.1181773
 -0.1182022 -0.1182211 -0.1182328 -0.118239 -0.1182398 -0.1182386 -0.1182368 -0.1182365 -0.1182388 -0.1182424
 -0.1182473 -0.1182522 -0.1182571 -0.118264 -0.118273 -0.118287 -0.1183056 -0.1183276 -0.1183526 -0.1183774
 -0.1184021 -0.1184255 -0.1184471 -0.1184654 -0.1184794 -0.1184859 -0.118487 -0.1184819 -0.1184772 -0.1184775
 -0.1184865 -0.1185092 -0.1185391 -0.1185763 -0.1186096 -0.1186358 -0.1186513 -0.1186542 -0.1186512 -0.1186425
 -0.1186355 -0.1186306 -0.1186285 -0.1186288 -0.1186278 -0.1186255 -0.1186199 -0.118612 -0.118604 -0.1185968
 -0.1185938 -0.1185946 -0.1186007 -0.1186104 -0.1186228 -0.1186353 -0.118646 -0.1186535 -0.1186563 -0.1186551
 -0.1186495 -0.1186412 -0.1186304 -0.1186178 -0.1186032 -0.1185877 -0.1185711 -0.118558 -0.1185485 -0.1185481
 -0.1185565 -0.1185743 -0.1186006 -0.1186303 -0.1186622 -0.1186897 -0.1187126 -0.1187268 -0.1187335 -0.1187323
 -0.118726 -0.1187175 -0.1187094 -0.1187052 -0.1187042 -0.1187078 -0.118712 -0.1187156 -0.1187156 -0.118711
 -0.1187023 -0.1186893 -0.1186742 -0.1186573 -0.1186396 -0.1186212 -0.1186029 -0.1185848 -0.1185688 -0.118555
 -0.1185453 -0.1185389 -0.1185353 -0.1185335 -0.1185306 -0.1185266 -0.1185196 -0.1185101 -0.1184981 -0.1184832
 -0.1184653 -0.118443 -0.1184153 -0.1183829 -0.1183447 -0.1183052 -0.1182649 -0.1182288 -0.1181981 -0.1181748
 -0.1181595 -0.1181495 -0.1181448 -0.1181411 -0.1181384 -0.1181358 -0.1181342 -0.1181381 -0.118149 -0.1181739
 -0.1182129 -0.1182705 -0.1183453 -0.1184375 -0.1185449 -0.1186648 -0.1187969 -0.1189386 -0.1190958 -0.1192679
 -0.1194696 -0.1197046 -0.1199878 -0.1203245 -0.120716 -0.1211654 -0.1216519 -0.1221751 -0.1226997 -0.1232238
 -0.1237081 -0.1241505 -0.1245146 -0.124798 -0.1249696 -0.1250285 -0.1249537 -0.1247493 -0.1244073 -0.12395
 -0.1233992 -0.1227978 -0.1221979 -0.1216334 -0.1211463 -0.1207496 -0.1204595 -0.1202817 -0.1202237 -0.1202783
 -0.1204536 -0.1206941 -0.1210001 -0.1212639 -0.1214748 -0.1215772 -0.1215686 -0.1214938 -0.121357 -0.1212201
 -0.1210821 -0.1209701 -0.1208772 -0.1207963 -0.1207197 -0.1206251 -0.1205129 -0.1203719 -0.1202102 -0.120033
 -0.1198451 -0.1196526 -0.1194539 -0.1192489 -0.1190393 -0.1188243 -0.1186111 -0.1184008 -0.118201 -0.1180128
 -0.1178418 -0.1176886 -0.1175551 -0.1174412 -0.117341 -0.1172538 -0.1171695 -0.1170883 -0.1170059 -0.1169231
 -0.1168417 -0.1167614 -0.1166833 -0.1166063 -0.1165289 -0.116452 -0.1163752 -0.1163004 -0.1162299 -0.1161622
 -0.1160981 -0.1160323 -0.1159629 -0.1158869 -0.115802 -0.1157141 -0.1156231 -0.1155392 -0.1154636 -0.1153988
 -0.1153449 -0.1152932 -0.1152434 -0.1151877 -0.1151274 -0.1150661 -0.1150059 -0.1149569 -0.1149186 -0.1148961
 -0.1148854 -0.1148833 -0.1148853 -0.1148853 -0.1148814 -0.1148696 -0.1148506 -0.1148232 -0.1147898 -0.1147507
 -0.1147087 -0.1146646 -0.11462 -0.1145754 -0.1145309 -0.1144864 -0.1144409 -0.1143942 -0.114346 -0.1142964
 -0.1142471 -0.1141978 -0.1141486 -0.1140987 -0.1140446 -0.1139865 -0.1139219 -0.1138545 -0.1137883 -0.1137271
 -0.1136776 -0.1136381 -0.1136105 -0.1135895 -0.1135726 -0.1135561 -0.1135378 -0.1135159 -0.1134901 -0.1134568
 -0.1134154 -0.1133647 -0.1133041 -0.1132395 -0.1131714 -0.1131096 -0.1130542 -0.1130097 -0.1129749 -0.1129455
 -0.1129198 -0.1128896 -0.1128546 -0.1128092 -0.1127557 -0.1126943 -0.1126292 -0.1125653 -0.1125056 -0.1124551
 -0.1124116 -0.1123767 -0.1123431 -0.1123087 -0.1122674 -0.1122161 -0.1121589 -0.1120949 -0.1120362 -0.111984
 -0.1119463 -0.1119236 -0.1119104 -0.1119057 -0.1118975 -0.1118857 -0.1118644 -0.1118347 -0.1117987 -0.1117571
 -0.1117123 -0.1116643 -0.1116131 -0.1115602 -0.1115065 -0.1114555 -0.1114108 -0.1113729 -0.1113445 -0.1113191
 -0.1112957 -0.1112662 -0.1112276 -0.1111803 -0.1111227 -0.1110658 -0.1110103 -0.110967 -0.1109364 -0.1109178
 -0.1109105 -0.1109037 -0.1108969 -0.1108803 -0.1108556 -0.1108228 -0.1107845 -0.110748 -0.1107145 -0.1106899
 -0.1106718 -0.1106606 -0.1106507 -0.1106381 -0.1106183 -0.1105872 -0.110545 -0.1104898 -0.1104275 -0.1103586
 -0.1102918 -0.1102285 -0.1101755 -0.1101338 -0.1101053 -0.1100901 -0.1100836 -0.1100851 -0.1100852 -0.1100832
 -0.1100694 -0.1100448 -0.110006 -0.109956 -0.1098999 -0.1098405 -0.1097856 -0.1097354 -0.1096939 -0.1096589
 -0.1096299 -0.1096044 -0.1095809 -0.1095579 -0.1095346 -0.1095102 -0.1094847 -0.1094576 -0.1094292 -0.1093977
 -0.1093633 -0.1093221 -0.1092739 -0.1092165 -0.10915 -0.1090781 -0.1090018 -0.1089296 -0.1088619 -0.1088055
 -0.1087586 -0.1087212 -0.1086903 -0.1086612 -0.1086327 -0.108601 -0.1085682 -0.1085343 -0.1085023 -0.1084742
 -0.1084503 -0.1084318 -0.1084163 -0.1084037 -0.1083907 -0.108377 -0.108359 -0.1083365 -0.1083065 -0.1082688
 -0.1082236 -0.1081712 -0.1081151 -0.1080556 -0.107997 -0.1079394 -0.1078858 -0.1078362 -0.1077927 -0.1077545
 -0.1077218 -0.1076918 -0.1076619 -0.1076293 -0.1075902 -0.107545 -0.1074922 -0.1074358 -0.1073767 -0.1073197
 -0.1072662 -0.1072183 -0.1071768 -0.1071405 -0.1071096 -0.1070802 -0.1070521 -0.1070212 -0.1069875 -0.1069502
 -0.1069098 -0.106869 -0.1068276 -0.1067866 -0.1067448 -0.1066991 -0.1066493 -0.1065931 -0.1065332 -0.1064717
 -0.1064117 -0.1063573 -0.1063071 -0.1062621 -0.1062186 -0.1061748 -0.1061292 -0.1060807 -0.1060314 -0.1059813
 -0.1059332 -0.1058875 -0.1058458 -0.1058083 -0.1057741 -0.105743 -0.105711 -0.1056779 -0.10564 -0.1055979
 -0.1055518 -0.1055027 -0.1054533 -0.105404 -0.1053564 -0.1053099 -0.1052647 -0.1052208 -0.1051779 -0.1051366
 -0.1050973 -0.1050595 -0.1050238 -0.104988 -0.1049519 -0.1049121 -0.1048677 -0.1048174 -0.1047605 -0.104701
 -0.1046388 -0.1045788 -0.1045208 -0.1044644 -0.1044092 -0.1043519 -0.1042929 -0.104232 -0.1041704 -0.1041108
 -0.1040531 -0.1039985 -0.1039454 -0.1038922 -0.1038378 -0.1037803 -0.1037202 -0.103657 -0.1035928 -0.1035281
 -0.1034649 -0.103404 -0.1033448 -0.1032876 -0.1032302 -0.1031725 -0.1031131 -0.1030519 -0.1029881 -0.1029213
 -0.1028496 -0.1027733 -0.1026932 -0.1026103 -0.1025301 -0.1024527 -0.1023824 -0.102317 -0.1022546 -0.1021933
 -0.1021289 -0.1020629 -0.1019948 -0.1019269 -0.1018613 -0.1017966 -0.1017334 -0.1016676 -0.1015978 -0.1015233
 -0.1014428 -0.1013623 -0.1012819 -0.1012088 -0.1011434 -0.1010856 -0.1010348 -0.1009832 -0.1009303 -0.1008689
 -0.1008 -0.1007225 -0.100638 -0.1005497 -0.1004597 -0.1003727 -0.100291 -0.1002203 -0.1001597 -0.1001124
 -0.1000707 -0.100032 -0.09998635 -0.0999281 -0.09985599 -0.09976689 -0.09967031 -0.09956682 -0.09946852 -0.09937701
 -0.09929854 -0.09923381 -0.09917949 -0.09913508 -0.09909024 -0.09904466 -0.09899065 -0.09892941 -0.09886172 -0.09878895
 -0.09871552 -0.09864099 -0.098567 -0.0984915 -0.09841234 -0.0983283 -0.09823667 -0.09813984 -0.09803752 -0.0979354
 -0.09783584 -0.09774243 -0.09765753 -0.0975783 -0.09750513 -0.09743159 -0.09735695 -0.09727705 -0.09719152 -0.0970995
 -0.097001 -0.0968966 -0.09678672 -0.09667464 -0.09656125 -0.09645227 -0.09634803 -0.09625269 -0.09616532 -0.09608641
 -0.09601438 -0.09594798 -0.09588436 -0.09582128 -0.09575453 -0.09568077 -0.09559782 -0.09550332 -0.09539919 -0.09528515
 -0.09516496 -0.09503906 -0.09491125 -0.09478179 -0.09465557 -0.09453294 -0.09441803 -0.09431092 -0.09421252 -0.09412281
 -0.09404189 -0.09396996 -0.09390864 -0.09385665 -0.0938127 -0.09377199 -0.09372518 -0.0936681 -0.09358949 -0.0934934
 -0.09337824 -0.09325267 -0.09312245 -0.09299068 -0.09286097 -0.09273035 -0.09259802 -0.09246457 -0.09232899 -0.09219903
 -0.09207554 -0.09196406 -0.09186525 -0.09177528 -0.0916939 -0.09161501 -0.09153873 -0.09146387 -0.09139012 -0.09131628
 -0.09124032 -0.09115548 -0.09106115 -0.09095198 -0.0908307 -0.09069867 -0.09055841 -0.09041218 -0.09026331 -0.09011325
 -0.0899687 -0.08983286 -0.08971009 -0.08960406 -0.0895079 -0.08942224 -0.08933188 -0.08923502 -0.08912132 -0.08898965
 -0.08884203 -0.08867884 -0.08851002 -0.08833635 -0.08816855 -0.0880067 -0.08785734 -0.08771916 -0.08759263 -0.08747452
 -0.08735972 -0.08724343 -0.08711687 -0.08697778 -0.08681854 -0.0866465 -0.08646165 -0.08627929 -0.08610673 -0.08595156
 -0.08581976 -0.0857031 -0.08560198 -0.08550187 -0.0854008 -0.08529139 -0.0851727 -0.08504774 -0.08491667 -0.08478317
 -0.08464634 -0.08450065 -0.0843444 -0.08416565 -0.08396641 -0.08374463 -0.08350703 -0.08326603 -0.08302587 -0.08279863
 -0.08258235 -0.08238026 -0.0821869 -0.08199995 -0.08181424 -0.08162648 -0.08143555 -0.08123974 -0.08104268 -0.08084494
 -0.08064899 -0.080456 -0.08025919 -0.08005832 -0.0798427 -0.0796122 -0.07936917 -0.0791145 -0.07885729 -0.07859668
 -0.07833321 -0.07806598 -0.07779197 -0.07751263 -0.07722996 -0.07694379 -0.07665533 -0.07636232 -0.07606193 -0.07575622
 -0.07544535 -0.07513244 -0.07482176 -0.07450347 -0.07417694 -0.07382631 -0.07344555 -0.07304201 -0.072614 -0.07218833
 -0.07176714 -0.07136288 -0.07097567 -0.07059843 -0.07023006 -0.06985839 -0.06948243 -0.06909148 -0.06868461 -0.06825251
 -0.06779719 -0.06731604 -0.06681712 -0.06631023 -0.06580241 -0.06530542 -0.06481814 -0.0643435 -0.06387838 -0.06342148
 -0.06297279 -0.06253234 -0.06209939 -0.06167606 -0.06124781 -0.06081571 -0.06034136 -0.05982177 -0.0592295 -0.0585649
 -0.0578682 -0.05714305 -0.05644278 -0.05576126 -0.05509648 -0.05444169 -0.05377422 -0.05309497 -0.05239592 -0.05167779
 -0.05094279 -0.05017821 -0.04937828 -0.04851458 -0.04756609 -0.04651522 -0.04533582 -0.0440736 -0.04272643 -0.04138676
 -0.04007582 -0.03883982 -0.03769152 -0.03661576 -0.03561348 -0.0346454 -0.03370896 -0.03274789 -0.03175789 -0.03066872
 -0.02948993 -0.02821862 -0.02689077 -0.02562472 -0.02442174 -0.02335357 -0.02237495 -0.02144825 -0.0205454 -0.01961952
 -0.01867443 -0.01769916 -0.01670119 -0.01568354 -0.01464302 -0.01357366 -0.01250037 -0.01142354 -0.01038768 -0.009401688
 -0.008466587 -0.007584064 -0.006728885 -0.00590065 -0.005111756 -0.004364904 -0.003693896 -0.003095126 -0.002569533 -0.002109376
 -0.001688798 -0.001309001 -0.0009581756 -0.0006450822 -0.000382461 -0.0001621643 1.505977E-05 0.0001705094 0.0003198681 0.0004728751
 0.0006421609 0.0008142419 0.0009899503 0.001145064 0.001274539 0.001362299 0.001404837 0.001398711 0.001342542 0.001252161
 0.001128601 0.0009998089 0.0008655254 0.0007341853 0.0006032467 0.0004626354 0.0003143026 0.0001557974 -2.159001E-06 -0.0001397426
 -0.0002448506 -0.0002881529 -0.0002726344 -0.0001894849 -4.77617E-05 0.0001443064 0.0003960957 0.0007086102 0.001095658 0.001567119
 0.002106083 0.002712625 0.00335921 0.004040192 0.004755272 0.005503596 0.006295094 0.007130029 0.008005401 0.00892076
 0.009870241 0.0108542 0.01187252 0.01292368 0.01400263 0.01510803 0.01623226 0.01738102 0.01855856 0.01977232
 0.02103332 0.02234029 0.02369734 0.02509623 0.02653435 0.02800432 0.02950319 0.03102668 0.03257465 0.03413785
 0.03571779 0.03728333 0.03883328 0.04031941 0.04173935 0.04306113 0.04428424 0.04539581 0.04638996 0.04722985
 0.04790856 0.04837732 0.04865003 0.04872929 0.04863903 0.04841511 0.04807631 0.04765137 0.04716209 0.04663616
 0.04607291 0.04549728 0.04483075 0.04407319 0.04306336 0.04175147 0.04010776 0.03808507 0.03602302 0.0339492
 0.03206815 0.03038704 0.02876285 0.02718916 0.02554722 0.02385043 0.02211024 0.02033843 0.018592 0.0168438
 0.01508438 0.01322975 0.01113812 0.008782822 0.006010179 0.003054372 3.203929E-05 -0.002861867 -0.005445971 -0.007840277
 -0.01004664 -0.01218398 -0.01429811 -0.01634876 -0.01834061 -0.02019067 -0.02188861 -0.02344198 -0.02485156 -0.02618933
 -0.0274571 -0.02870037 -0.02991306 -0.03108637 -0.03221423 -0.03326998 -0.03425692 -0.03516741 -0.03601154 -0.03680032
 -0.03754447 -0.03825692 -0.03895199 -0.03963944 -0.04034384 -0.04108172 -0.04186159 -0.04270801 -0.04353581 -0.04433676
 -0.04500179 -0.04550122 -0.04587844 -0.0461316 -0.04635596 -0.04655599 -0.04676735 -0.04698758 -0.04719941 -0.04740051
 -0.04756824 -0.04770634 -0.04781798 -0.04790198 -0.04796182 -0.04798336 -0.04794643 -0.04783979 -0.04763844 -0.04735397
 -0.04698448 -0.04655027 -0.04606176 -0.04552981 -0.0449611 -0.0443576 -0.04372352 -0.04304396 -0.0423209 -0.04151041
 -0.04060815 -0.03958726 -0.03844703 -0.03727247 -0.03607238 -0.03498144 -0.03399488 -0.03315561 -0.03245107 -0.03186068
 -0.03137854 -0.03098568 -0.03067017 -0.03041433 -0.03018402 -0.02994417 -0.0296446 -0.02922875 -0.02869545 -0.02800772
 -0.0272619 -0.0264855 -0.02574139 -0.02506018 -0.02440879 -0.02378861 -0.02314944 -0.02248558 -0.02178246 -0.02103928
 -0.02028283 -0.0195147 -0.01876458 -0.01802804 -0.01729833 -0.01656414 -0.01578211 -0.01494735 -0.0140197 -0.01301944
 -0.011958 -0.01086193 -0.009770979 -0.008681967 -0.007607205 -0.006531706 -0.005446973 -0.004356886 -0.003258674 -0.002167725
 -0.001088115 -2.486399E-05 0.001020655 0.002048385 0.003060054 0.004028648 0.004952606 0.005761123 0.006450043 0.006947673
 0.007254677 0.007339192 0.007202555 0.006833333 0.00622999 0.005380484 0.004290675 0.002957387 0.001406748 -0.0003418904
 -0.002242874 -0.004259417 -0.006348437 -0.008475455 -0.01062746 -0.01279125 -0.01497146 -0.01717472 -0.01936229 -0.02153706
 -0.02360274 -0.02554988 -0.02731988 -0.02890921 -0.03035025 -0.03164667 -0.03285584 -0.03397582 -0.03502498 -0.03599666
 -0.03687443 -0.03766006 -0.03834505 -0.03894492 -0.03947821 -0.03996498 -0.04043491 -0.04089984 -0.04138094 -0.04187372
 -0.04238405 -0.04289498 -0.04340215 -0.04389088 -0.04435562 -0.04479483 -0.04520644 -0.0456 -0.0459764 -0.04634146
 -0.04669556 -0.04702421 -0.04732563 -0.0475716 -0.04776263 -0.04788626 -0.04794708 -0.04795533 -0.04791369 -0.04783355
 -0.04771537 -0.04756332 -0.04738152 -0.04717442 -0.04695041 -0.04671557 -0.04648156 -0.04625385 -0.04604851 -0.0458713
 -0.04573807 -0.04565423 -0.04562619 -0.04565658 -0.0457418 -0.04588227 -0.0460678 -0.04629787 -0.04655538 -0.04683893
 -0.04712618 -0.04741534 -0.04768467 -0.04793264 -0.04814184 -0.04831253 -0.04843518 -0.04851462 -0.04855356 -0.04855897
 -0.04854063 -0.04850067 -0.04844507 -0.04837017 -0.04827455 -0.0481587 -0.04801997 -0.04787033 -0.04771065 -0.04755896
 -0.04741827 -0.04730077 -0.04720861 -0.04714023 -0.0470957 -0.04706145 -0.0470367 -0.04700705 -0.04697313 -0.04693112
 -0.04688308 -0.04683434 -0.04678676 -0.04674749 -0.0467173 -0.04670103 -0.04669772 -0.04670903 -0.04673091 -0.04676114
 -0.04679506 -0.04682877 -0.04686261 -0.04689536 -0.04693038 -0.04696913 -0.04700941 -0.04705204 -0.04708741 -0.04711494
 -0.04712364 -0.04711283 -0.04707668 -0.04701537 -0.04693022 -0.04682237 -0.04669927 -0.04656227 -0.04642076 -0.04627426
 -0.0461272 -0.04597637 -0.04581838 -0.04565034 -0.04546637 -0.04526854 -0.04505498 -0.04483341 -0.04460688 -0.04438366
 -0.04416771 -0.04396323 -0.04377229 -0.04359513 -0.04343237 -0.04328158 -0.04314284 -0.04301073 -0.04288494 -0.04275979
 -0.04263531 -0.04251099 -0.04238774 -0.04227098 -0.04216154 -0.04206556 -0.04198271 -0.04191534 -0.04186248 -0.04182337
 -0.04179757 -0.0417842 -0.04178327 -0.04179508 -0.04181771 -0.04185117 -0.04189026 -0.04193337 -0.04197531 -0.04201391
 -0.04204897 -0.04207949 -0.0421108 -0.04214313 -0.04218308 -0.04223107 -0.04229029 -0.04236056 -0.04243939 -0.04252597
 -0.04261391 -0.04270278 -0.0427874 -0.04286828 -0.04294424 -0.04301545 -0.04308214 -0.04314299 -0.04319659 -0.04324172
 -0.0432764 -0.04330178 -0.04331696 -0.04332706 -0.04333296 -0.04334244 -0.0433581 -0.04338292 -0.04341903 -0.04345815
 -0.04350003 -0.04353269 -0.04355527 -0.04356665 -0.04356719 -0.04356434 -0.04355762 -0.04354768 -0.04353271 -0.04350532
 -0.04346573 -0.04341067 -0.04334122 -0.04325893 -0.04316138 -0.04304648 -0.04291143 -0.04275166 -0.0425706 -0.04236802
 -0.04215059 -0.0419218 -0.04168199 -0.04143263 -0.0411689 -0.04088977 -0.04059464 -0.0402828 -0.0399613 -0.03963053
 -0.03929736 -0.03896174 -0.03862311 -0.03828105 -0.03793181 -0.03757638 -0.03721678 -0.03685407 -0.03649284 -0.03613145
 -0.03576866 -0.03540388 -0.03503374 -0.0346647 -0.03430043 -0.03394817 -0.03361511 -0.03329803 -0.03299847 -0.03270766
 -0.03242237 -0.03214281 -0.03186772 -0.03160432 -0.03135354 -0.03111735 -0.03089608 -0.03068264 -0.03047643 -0.03026612
 -0.03005089 -0.02981934 -0.02957134 -0.02929986 -0.02900608 -0.0286892 -0.02835102 -0.02799355 -0.02762036 -0.02723543
 -0.02684498 -0.02645567 -0.02607143 -0.0256974 -0.02533148 -0.02497385 -0.02462285 -0.02427738 -0.0239402 -0.02361187
 -0.02329281 -0.02298326 -0.02268146 -0.02238723 -0.02210397 -0.02183167 -0.02157145 -0.02132153 -0.02106909 -0.02081324
 -0.02054125 -0.02025856 -0.01997242 -0.01968929 -0.01942641 -0.01918137 -0.01895992 -0.0187528 -0.01855385 -0.01835632
 -0.01815385 -0.01794533 -0.01772892 -0.01750478 -0.01727348 -0.01703079 -0.01677651 -0.01650392 -0.01621166 -0.01590202
 -0.01557492 -0.01524035 -0.01489826 -0.01454709 -0.01418529 -0.01379849 -0.01338917 -0.01295708 -0.01251195 -0.0120787
 -0.01166697 -0.01130619 -0.01100016 -0.01076635 -0.01060255 -0.0105155 -0.01049278 -0.01053236 -0.01061174 -0.01072173
 -0.01084542 -0.01097524 -0.01110831 -0.01124339 -0.0113779 -0.01151236 -0.0116342 -0.01174271 -0.01182468 -0.01187976
 -0.01190323 -0.0118957 -0.01185911 -0.01179495 -0.01170987 -0.01160591 -0.01149183 -0.01136905 -0.0112438 -0.01111768
 -0.01099462 -0.01087724 -0.01076894 -0.01067198 -0.01058758 -0.01052083 -0.01047203 -0.01045351 -0.01046885 -0.01052642
 -0.01063056 -0.01077026 -0.01094588 -0.0111354 -0.01133732 -0.01153696 -0.01173375 -0.01191907 -0.01209256 -0.01224616
 -0.01238162 -0.01250056 -0.01260777 -0.01271747 -0.01283222 -0.01296399 -0.01311177 -0.01327798 -0.01346445 -0.01367192
 -0.01390737 -0.01417456 -0.01448086 -0.01483038 -0.01522695 -0.01567339 -0.01616666 -0.01670792 -0.01728556 -0.01789912
 -0.01853197 -0.0191831 -0.01983505 -0.0204869 -0.02112176 -0.02173941 -0.02232976 -0.02289422 -0.02343367 -0.02394884
 -0.02444295 -0.02491415 -0.02535977 -0.02577984 -0.02617217 -0.0265405 -0.02688801 -0.0272157 -0.02752583 -0.02781587
 -0.02808406 -0.02833345 -0.02856342 -0.02878255 -0.02899267 -0.02919786 -0.02939916 -0.02959512 -0.02978575 -0.02996947
 -0.03014611 -0.03031211 -0.03046679 -0.03060318 -0.03072083 -0.03081404 -0.03088311 -0.03092548 -0.0309426 -0.03093467
 -0.03090647 -0.0308638 -0.03081205 -0.03075928 -0.03070509 -0.03065201 -0.03059686 -0.03053745 -0.0304773 -0.03041643
 -0.03036101 -0.03031316 -0.03027058 -0.03023372 -0.03019506 -0.03015404 -0.03010669 -0.03005284 -0.02999046 -0.02991936
 -0.02983676 -0.02974282 -0.02963684 -0.029519 -0.02938949 -0.02924807 -0.02909346 -0.02892796 -0.02875278 -0.02857381
 -0.02839677 -0.02822624 -0.02806723 -0.02792037 -0.02778783 -0.02766641 -0.027557 -0.02744991 -0.02734422 -0.02722741
 -0.02709721 -0.02695126 -0.02678876 -0.02662145 -0.02645009 -0.02629013 -0.02614233 -0.02601977 -0.02592247 -0.02585901
 -0.02582587 -0.02581917 -0.02583145 -0.02584573 -0.02585853 -0.02585636 -0.02584351 -0.02581966 -0.0257878 -0.02575159
 -0.0257063 -0.02565106 -0.02558068 -0.02549279 -0.02538754 -0.02526455 -0.02512484 -0.02496848 -0.02479612 -0.02460759
 -0.02440899 -0.02420089 -0.02399679 -0.02379718 -0.02361337 -0.02344296 -0.02328184 -0.02312559 -0.02295736 -0.02277886
 -0.02258235 -0.02237925 -0.02218296 -0.02199966 -0.02184507 -0.02170505 -0.02157741 -0.02144132 -0.02128372 -0.02110465
 -0.02089832 -0.02068402 -0.02046476 -0.02025463 -0.02005649 -0.01987114 -0.01969884 -0.01953959 -0.01939346 -0.01926374
 -0.01914965 -0.01904687 -0.01895231 -0.01884903 -0.01873505 -0.01859358 -0.01842961 -0.01824322 -0.01804464 -0.01784922
 -0.01766092 -0.01749195 -0.01733366 -0.01718474 -0.01703475 -0.01687658 -0.01671213 -0.01653879 -0.01636829 -0.01620289
 -0.01604944 -0.01591004 -0.01577941 -0.01565757 -0.01553375 -0.01540751 -0.01527325 -0.01513133 -0.014983 -0.01482839
 -0.01466877 -0.01450381 -0.01433246 -0.01415609 -0.01397664 -0.0137963 -0.01362014 -0.0134459 -0.01327455 -0.01309937
 -0.01291594 -0.01272018 -0.01250747 -0.01228269 -0.01204466 -0.0118063 -0.01156898 -0.01134874 -0.01114785 -0.01097718
 -0.01083826 -0.01072686 -0.01064234 -0.01056364 -0.01048908 -0.01039381 -0.01027871 -0.01013325 -0.009962634 -0.00977681
 -0.009580714 -0.009390376 -0.009205113 -0.009031315 -0.008865187 -0.008704877 -0.008548464 -0.008395204 -0.008240123 -0.008082669
 -0.007911487 -0.007722102 -0.007510514 -0.007272098 -0.00702476 -0.006768677 -0.006533451 -0.006321659 -0.006149889 -0.006018483
 -0.005918016 -0.005846078 -0.005775392 -0.005705372 -0.005616715 -0.005515053 -0.005407499 -0.005299647 -0.005210179 -0.005132215
 -0.00506624 -0.004997929 -0.004910519 -0.004802538 -0.004664389 -0.004510192 -0.004344065 -0.004177605 -0.004016578 -0.003861651
 -0.003713996 -0.003572176 -0.003435955 -0.003305886 -0.003181941 -0.00306583 -0.002957608 -0.002857782 -0.002765752 -0.002675784
 -0.002587185 -0.002492145 -0.002393163 -0.002293712 -0.002196935 -0.002113929 -0.002039005 -0.001970315 -0.001897431 -0.00180598
 -0.001699122 -0.001570646 -0.001439207 -0.001311756 -0.001203332 -0.001122472 -0.001066974 -0.001040502 -0.001022838 -0.001013575
 -0.0009801401 -0.0009198924 -0.0008077029 -0.0006427252 -0.0004302658 -0.0001732168 9.755845E-05 0.0003794119 0.0006422858 0.0008871328
 0.001100206 0.001286066 0.001446934 0.001588772 0.001721535 0.001848422 0.00197587 0.002106569 0.002242329 0.002391475
 0.002559511 0.002747713 0.002962582 0.003179689 0.00339694 0.003582155 0.003728423 0.003833912 0.003896479 0.003944683
 0.003980061 0.00403554 0.004112306 0.004236022 0.004404107 0.004620713 0.004875019 0.005135422 0.005391793 0.005602348
 0.005774977 0.005899858 0.005997267 0.006086434 0.006176428 0.006282892 0.006397581 0.006521527 0.006642133 0.006754693
 0.006854155 0.006937193 0.007010465 0.007074255 0.007136552 0.007198616 0.007254134 0.007302936 0.007344658 0.00738248
 0.007451793 0.007554506 0.007725149 0.0079508 0.008208646 0.008483833 0.008726809 0.00894582 0.009128949 0.009295808
 0.009463039 0.009643702 0.009847395 0.0100982 0.01040924 0.0108011 0.01130091 0.01183528 0.01240067 0.01288648
 0.013266 0.01356065 0.01376786 0.01395182 0.01411524 0.01426582 0.01440093 0.01449384 0.01454314 0.01452729
 0.01444844 0.01429818 0.01408877 0.01383745 0.01356855 0.01333071 0.01312813 0.0129941 0.01289172 0.01280557
 0.01270222 0.01255307 0.01237064 0.01214853 0.01192299 0.0117006 0.01151019 0.01135728 0.01125624 0.01120991
 0.0112084 0.01125107 0.01130492 0.01136812 0.01141044 0.01143083 0.01140906 0.01134287 0.01121016 0.0110181
 0.01076323 0.01047497 0.01019765 0.00995192 0.009788978 0.009678653 0.009620635 0.009566764 0.009487655 0.009371373
 0.009200697 0.009005612 0.008783378 0.008598248 0.008457942 0.008422039 0.008500463 0.008666771 0.008919448 0.009163824
 0.009398501 0.009576653 0.009706507 0.009811418 0.009895335 0.009983636 0.0100752 0.01017958 0.01029508 0.01042682
 0.01056277 0.01069139 0.01080483 0.01088563 0.01095797 0.01102765 0.01112214 0.01125872 0.0114236 0.01161916
 0.01181651 0.01201122 0.01218875 0.01234882 0.01245901 0.01251754 0.01248328 0.01235986 0.01217532 0.01194282
 0.01175556 0.01161413 0.01157537 0.01161942 0.01173038 0.0118869 0.01204915 0.01220203 0.01231303 0.01237841
 0.01237961 0.01233732 0.01225584 0.01215834 0.01205791 0.01194968 0.01183376 0.0117088 0.01157 0.01145598
 0.01136932 0.011349 0.01139711 0.01150253 0.0116616 0.01182602 0.01199188 0.0121103 0.01218465 0.01219587
 0.01216021 0.01210607 0.01204531 0.01201848 0.01200466 0.01200047 0.01197254 0.01188596 0.01174755 0.01154337
 0.01131686 0.0110802 0.01086588 0.01068384 0.01055243 0.01047527 0.01046885 0.01053715 0.01066057 0.01083818
 0.01099822 0.01113713 0.01118757 0.0111544 0.01102797 0.01082279 0.01058165 0.01032124 0.01010488 0.009932769
 0.009841178 0.009801872 0.00979853 0.009802792 0.009782407 0.009738083 0.009659483 0.009560997 0.009444566 0.009325689
 0.009204353 0.00911491 0.009062829 0.009073592 0.009154345 0.009251608 0.009362672</values></Ydata></AB><ScSm><Ydata ylabel="Single channel"><values byteorder="INTEL" format="FLOAT32" numvalues="1814"> 0.07468943 0.0746959 0.07477541 0.07495728 0.07521164 0.07546321 0.07564412 0.07573968 0.07577303 0.07575699
 0.07569951 0.07565447 0.07571136 0.07590656 0.07616948 0.07637212 0.07643053 0.0763773 0.07634422 0.07643475
 0.07658292 0.07656994 0.07622919 0.07563813 0.07506885 0.07473673 0.07466798 0.07486235 0.07542163 0.07627989
 0.07691345 0.07672161 0.07578228 0.0748753 0.07461511 0.07486236 0.07509498 0.07500897 0.07461013 0.07409216
 0.07388455 0.07453632 0.07617693 0.07807255 0.07888845 0.07752897 0.07392123 0.06926715 0.06560014 0.06469238
 0.06680343 0.07032624 0.07299472 0.07369249 0.07298365 0.07195911 0.07106285 0.07024348 0.06971853 0.07000773
 0.07121848 0.07257016 0.07280022 0.07124297 0.06861952 0.06652583 0.06597741 0.06677276 0.0683444 0.07037516
 0.07193477 0.07099362 0.06642099 0.06050396 0.05792249 0.06130122 0.06840973 0.07434455 0.07588975 0.0733153
 0.06895047 0.06525512 0.06389597 0.06529713 0.0685598 0.07220698 0.07507931 0.07639344 0.0755466 0.07263941
 0.06898862 0.06649213 0.06646557 0.0691227 0.07352576 0.07767613 0.07943035 0.07808421 0.07483605 0.07152272
 0.06941535 0.06923162 0.07131563 0.07527497 0.07995725 0.0841171 0.08692306 0.08804455 0.08772603 0.08663367
 0.08534697 0.08425882 0.08392827 0.084738 0.08597627 0.08610567 0.08443627 0.08204882 0.08068311 0.08093971
 0.08180152 0.08187106 0.08078399 0.07898198 0.07633442 0.07211395 0.06667376 0.06188905 0.05928316 0.0588721
 0.06028314 0.06334059 0.06674728 0.06802084 0.06621835 0.06365669 0.06361023 0.06681676 0.07110654 0.07404789
 0.07519618 0.07590774 0.07759601 0.08028737 0.08245292 0.08216106 0.07899082 0.07510303 0.07371205 0.07592998
 0.07969849 0.08232181 0.0833106 0.08407324 0.08545832 0.08643544 0.08516555 0.08118467 0.07657705 0.07468556
 0.07719585 0.08244534 0.08663259 0.0866324 0.08209603 0.07552142 0.07030886 0.06841366 0.06982329 0.07384787
 0.07987388 0.0866909 0.0921873 0.0945336 0.09351778 0.09043192 0.08659883 0.08214835 0.07673147 0.07156818
 0.06968444 0.07304645 0.0800492 0.08686063 0.09083843 0.09184006 0.09073262 0.0877685 0.08283503 0.07702435
 0.07314163 0.07352525 0.07722808 0.08055943 0.08095033 0.07929432 0.07803881 0.07813589 0.07869407 0.07886004
 0.07903139 0.0801748 0.08244377 0.08481308 0.08607264 0.08592856 0.08505246 0.08429641 0.0839188 0.08339979
 0.08217591 0.0807703 0.08072829 0.08292702 0.08636915 0.08920635 0.09058936 0.09097457 0.09089439 0.09001994
 0.08764538 0.08403242 0.0809503 0.08036233 0.08252794 0.08584687 0.08852372 0.08985439 0.09004529 0.08956012
 0.08880459 0.08799823 0.08725307 0.08686884 0.08724935 0.08833592 0.08948179 0.09010468 0.09016513 0.08987677
 0.08929104 0.08837706 0.08731635 0.08651283 0.08630222 0.08669911 0.08744165 0.08822693 0.08882174 0.08902305
 0.08872964 0.08809266 0.08742329 0.08690951 0.08655734 0.08639018 0.08650637 0.08689515 0.08735286 0.08765699
 0.08774135 0.0876637 0.08748127 0.08721145 0.08687626 0.08654764 0.08634338 0.08634937 0.08651905 0.08669922
 0.08680413 0.08690083 0.08705409 0.08716564 0.0870773 0.08679047 0.08647972 0.08630468 0.08628227 0.08632907
 0.08634959 0.08625708 0.08597062 0.08548509 0.0849627 0.08467123 0.0847695 0.08519238 0.08575869 0.08630748
 0.08671561 0.08690761 0.08691429 0.0868434 0.08674976 0.08659187 0.08633651 0.08605862 0.08591687 0.08603309
 0.08638258 0.08680592 0.08713982 0.08732022 0.08737141 0.08736528 0.08739846 0.08752154 0.08766365 0.08769846
 0.08760549 0.08750568 0.08752003 0.08763642 0.08773305 0.0877172 0.08762939 0.08760083 0.08770967 0.08790789
 0.08809887 0.0882488 0.08839698 0.08857483 0.08873624 0.08878196 0.08866864 0.0884793 0.08834615 0.08831568
 0.08834212 0.08840135 0.08853472 0.0887606 0.08900432 0.08916 0.08920301 0.08920774 0.08925116 0.08932234
 0.08934429 0.0892726 0.08914618 0.08904383 0.08901574 0.08905869 0.08913282 0.08919033 0.08920052 0.08916201
 0.08909521 0.08902091 0.08894551 0.08887479 0.08884282 0.08890336 0.08906497 0.08924194 0.08930404 0.0891932
 0.08898209 0.08880697 0.08874093 0.08873722 0.08869488 0.08856771 0.08839853 0.08825821 0.08817559 0.08812939
 0.08808554 0.08803111 0.08798921 0.08801331 0.0881456 0.08835655 0.08853891 0.08859466 0.08852793 0.08843181
 0.08839172 0.08842495 0.08849972 0.088581 0.08866306 0.08877505 0.08893891 0.08911477 0.08922514 0.08924986
 0.08925948 0.08933993 0.08952174 0.08978364 0.09007057 0.09029985 0.09041075 0.09043351 0.0904697 0.09058616
 0.09076059 0.09094013 0.09111261 0.09129856 0.0915048 0.09172128 0.09195465 0.09223454 0.09257883 0.09296329
 0.09332956 0.09362401 0.09384131 0.09404066 0.09430926 0.09469271 0.09515685 0.09561971 0.09602025 0.09635921
 0.09667926 0.09701104 0.09735021 0.09769219 0.09806636 0.09850597 0.09899464 0.0994769 0.09992091 0.1003441
 0.1007775 0.10123 0.1016901 0.1021518 0.1026297 0.1031451 0.1036874 0.1042004 0.1046282 0.1049727
 0.1052954 0.1056681 0.1061251 0.1066352 0.1071069 0.1074566 0.107701 0.1079549 0.1083071 0.1087246
 0.1091134 0.1094516 0.1098132 0.1102606 0.1107611 0.1112276 0.1116173 0.1119657 0.1123308 0.1127222
 0.1130888 0.1133754 0.1135851 0.1137767 0.1140036 0.1142777 0.1146026 0.1150052 0.1154973 0.1160268
 0.1165057 0.1168835 0.1171679 0.1173918 0.1175913 0.1178003 0.1180322 0.1182727 0.1185071 0.1187344
 0.1189435 0.1191128 0.119255 0.1194268 0.1196703 0.1199765 0.1203276 0.1207351 0.1212002 0.1216723
 0.1220983 0.1225008 0.1229499 0.1234501 0.1239064 0.1242294 0.1244321 0.1245889 0.124742 0.1249017
 0.1251077 0.1254212 0.1258517 0.1263392 0.126818 0.1272667 0.1276926 0.1280969 0.1284636 0.1287682
 0.1289937 0.129147 0.1292643 0.1294013 0.1296106 0.1299103 0.1302624 0.1305948 0.1308526 0.1310182
 0.1310828 0.1310344 0.1308992 0.1307619 0.1306969 0.130679 0.130592 0.1303296 0.129865 0.1292279
 0.1284495 0.1275543 0.126589 0.1256377 0.1247989 0.1241508 0.1237425 0.1236167 0.1238184 0.1243554
 0.1251453 0.1260272 0.1268344 0.1274404 0.1277411 0.1276482 0.1271416 0.1263083 0.125298 0.1242448
 0.1232332 0.1222976 0.1214229 0.1205772 0.1197918 0.1192074 0.1190209 0.1193911 0.1203976 0.1220441
 0.1242388 0.1267642 0.1293166 0.1316288 0.1335772 0.1351824 0.1365336 0.1377293 0.1388523 0.1399408
 0.1409707 0.1418945 0.1427056 0.1434421 0.1441337 0.1447697 0.1453179 0.1457511 0.1460645 0.1462863
 0.1464609 0.146607 0.14671 0.1467649 0.1468005 0.1468385 0.1468467 0.1467471 0.1464633 0.1459611
 0.1452734 0.1445244 0.1439479 0.1438634 0.1445688 0.1461716 0.1484906 0.1511357 0.1537066 0.1559348
 0.1577049 0.1590229 0.1599846 0.1607262 0.1613613 0.1619528 0.1625261 0.163087 0.1636297 0.1641492
 0.1646501 0.1651454 0.1656478 0.1661594 0.1666622 0.1671271 0.1675448 0.1679477 0.1683899 0.1689002
 0.1694525 0.1699892 0.1704785 0.1709413 0.1714092 0.1718688 0.1722755 0.1726191 0.1729458 0.1733128
 0.1737464 0.1742361 0.17474 0.1751995 0.175579 0.1758971 0.1762047 0.1765363 0.1768932 0.1772626
 0.177635 0.1780038 0.1783641 0.1787214 0.179096 0.1795014 0.1799147 0.1802855 0.1805837 0.1808338
 0.1810906 0.1813867 0.1817096 0.1820253 0.1823205 0.1826221 0.1829738 0.1833871 0.1838187 0.1842028
 0.1845066 0.1847522 0.18499 0.1852595 0.1855712 0.1859121 0.1862589 0.1865925 0.1869091 0.1872199
 0.1875362 0.187857 0.1881751 0.188488 0.1887989 0.1891119 0.1894288 0.1897493 0.1900748 0.1904164
 0.1907912 0.191198 0.1915996 0.1919476 0.1922253 0.1924579 0.1926836 0.1929279 0.1932 0.1934965
 0.193805 0.1941122 0.1944149 0.1947195 0.1950306 0.1953445 0.1956559 0.1959657 0.1962782 0.1965933
 0.1969084 0.1972274 0.1975568 0.1978927 0.1982194 0.1985237 0.1988067 0.1990815 0.199362 0.1996525
 0.1999447 0.2002294 0.2005095 0.2007958 0.2010882 0.2013753 0.2016515 0.2019258 0.2022091 0.2025013
 0.2027953 0.2030879 0.2033826 0.2036814 0.2039785 0.2042664 0.2045449 0.2048204 0.2050967 0.2053715
 0.2056417 0.20591 0.2061843 0.2064715 0.2067693 0.2070664 0.2073542 0.2076353 0.2079169 0.208202
 0.208488 0.2087715 0.2090511 0.2093301 0.2096119 0.2098936 0.2101696 0.2104421 0.2107189 0.211004
 0.2112965 0.211596 0.2118973 0.2121894 0.212465 0.2127293 0.212994 0.2132685 0.2135562 0.2138529
 0.2141509 0.2144471 0.2147431 0.215038 0.2153264 0.2156015 0.2158596 0.2161032 0.2163419 0.216584
 0.2168309 0.2170822 0.2173371 0.2175925 0.2178482 0.2181127 0.2183909 0.2186735 0.2189495 0.2192193
 0.2194872 0.2197562 0.2200316 0.2203172 0.2206071 0.2208924 0.2211721 0.2214498 0.2217272 0.2220051
 0.2222831 0.2225595 0.2228351 0.2231115 0.2233858 0.2236573 0.2239334 0.2242182 0.2245051 0.2247882
 0.2250666 0.2253357 0.2255926 0.2258485 0.2261168 0.2263977 0.226685 0.2269738 0.2272559 0.227526
 0.2277926 0.2280665 0.2283475 0.2286316 0.2289152 0.2291914 0.2294584 0.2297267 0.230003 0.2302829
 0.2305648 0.2308487 0.2311234 0.2313796 0.2316262 0.2318738 0.2321222 0.2323737 0.2326279 0.2328569
 0.2329944 0.2328909 0.2321841 0.2301541 0.2257029 0.2175769 0.2048753 0.187626 0.1669715 0.1447558
 0.1228462 0.1026577 0.08502279 0.07030496 0.05858053 0.04975568 0.0436375 0.04005549 0.03899388 0.04072969
 0.04597852 0.0554654 0.06832212 0.08067898 0.0871807 0.08521896 0.07742736 0.06928066 0.06455011 0.0634912
 0.0644829 0.06614478 0.06803986 0.07041909 0.07371377 0.07804754 0.08321689 0.08921763 0.09649786 0.1053872
 0.115416 0.1255112 0.1349195 0.1437988 0.1528562 0.1624969 0.1723958 0.1818162 0.1901972 0.197436
 0.2037697 0.2095125 0.2148769 0.2199551 0.2247889 0.2293746 0.2335582 0.2369835 0.2392576 0.2402519
 0.2402559 0.2398174 0.2394126 0.2392559 0.2393599 0.239684 0.2401964 0.2408686 0.2416746 0.2425907
 0.2435813 0.2446037 0.2456279 0.2466352 0.2476021 0.2485036 0.2493265 0.2500727 0.2507524 0.2513775
 0.2519546 0.252485 0.2529707 0.2534144 0.2538194 0.2541961 0.2545624 0.2549254 0.2552728 0.2555881
 0.2558673 0.2561163 0.2563462 0.2565729 0.2568069 0.2570435 0.2572706 0.2574874 0.2577071 0.2579432
 0.2581936 0.2584394 0.2586621 0.2588622 0.259056 0.2592555 0.2594607 0.2596714 0.2598901 0.2601112
 0.2603233 0.2605239 0.2607241 0.2609355 0.2611581 0.2613808 0.2615941 0.2618016 0.2620143 0.2622355
 0.262461 0.2626923 0.2629335 0.2631764 0.2634064 0.2636243 0.2638443 0.2640749 0.2643163 0.2645636
 0.2647996 0.2649982 0.2651525 0.265292 0.2654607 0.2656806 0.2659348 0.2661866 0.2664142 0.2666256
 0.2668356 0.2670414 0.2672279 0.267388 0.2675348 0.267706 0.2679403 0.268234 0.2685393 0.2688213
 0.269086 0.2693477 0.2696074 0.269869 0.2701326 0.2703652 0.2705252 0.2706304 0.2707734 0.271048
 0.271457 0.2718973 0.2722543 0.272505 0.2727113 0.2729393 0.2732172 0.2735164 0.2737256 0.2737219
 0.2735575 0.2735015 0.2737939 0.2744018 0.2750852 0.2756498 0.2760671 0.2764011 0.2766976 0.2769399
 0.2770692 0.2770467 0.2769358 0.2769246 0.277201 0.2777613 0.2783967 0.2789059 0.2792531 0.2794954
 0.279677 0.2798257 0.2799043 0.2797372 0.2791951 0.2785343 0.278337 0.2789491 0.2800881 0.2811442
 0.2817867 0.2821375 0.2824243 0.2826951 0.2828897 0.2828988 0.282428 0.2811649 0.2793995 0.2781958
 0.278513 0.2802369 0.2823626 0.2839952 0.2849135 0.2853471 0.2855838 0.2857745 0.285821 0.2853935
 0.2842991 0.2829631 0.2823188 0.2829497 0.2844359 0.2858051 0.2865236 0.286777 0.2869528 0.2872049
 0.2873474 0.2868035 0.2849371 0.2819971 0.2795829 0.2795144 0.2820525 0.2855834 0.2882178 0.2894125
 0.289811 0.2898462 0.2891017 0.2870577 0.2838716 0.2803071 0.2774896 0.2767462 0.2787267 0.2823137
 0.2852609 0.2864086 0.2866592 0.2874899 0.2891883 0.2908731 0.2916413 0.2912676 0.2900371 0.288241
 0.28604 0.2839347 0.2830482 0.2843287 0.2873958 0.2906731 0.2928472 0.2938662 0.2942539 0.2935753
 0.2901303 0.283007 0.2746395 0.2701261 0.2727254 0.2804449 0.2881783 0.2927228 0.294529 0.2953016
 0.2957194 0.2952491 0.2924624 0.2858229 0.2761147 0.2679571 0.2666726 0.2730184 0.2823259 0.2888558
 0.2897039 0.2851008 0.2773752 0.2702577 0.2673604 0.2699926 0.2765862 0.2842368 0.2904481 0.2938293
 0.2940764 0.2918162 0.2885517 0.2863076 0.286171 0.2866819 0.2849393 0.2802723 0.2753626 0.2723056
 0.2693666 0.2641866 0.2589539 0.2589454 0.2656604 0.2743108 0.279206 0.2795163 0.2782272 0.2767085
 0.2723793 0.2624345 0.2491665 0.2400429 0.2411706 0.2509608 0.2615513 0.2664973 0.2658855 0.264021
 0.2636843 0.2633079 0.2592061 0.250394 0.2410049 0.2368145 0.2391115 0.2435576 0.2453265 0.2429513
 0.236643 0.2267458 0.2164856 0.212945 0.221078 0.237645 0.2537678 0.2622436 0.2601691 0.2473378
 0.2272275 0.2090754 0.2033823 0.2125145 0.2278267 0.237618 0.236426 0.2259942 0.2102386 0.1925566
 0.1773807 0.1706856 0.1764078 0.1924358 0.2106942 0.2211789 0.2174913 0.2017983 0.1852041 0.1797537
 0.1875055 0.1991462 0.2044244 0.2014361 0.1951577 0.1910055 0.1916995 0.1968367 0.2033463 0.2083525
 0.211467 0.2116195 0.2039921 0.1858428 0.1642593 0.1514915 0.1522191 0.1611669 0.1729311 0.1867974
 0.200361 0.2062323 0.2003856 0.1898195 0.1865974 0.1950461 0.2080532 0.2157486 0.2152506 0.211176
 0.2084823 0.207181 0.2048107 0.2021524 0.2034405 0.21051 0.2195828 0.2254906 0.2270679 0.2266697
 0.2261959 0.2256652 0.224574 0.2227529 0.2202676 0.2175466 0.2152602 0.2135641 0.2119628 0.2100757
 0.2076229 0.203328 0.1952339 0.1835593 0.172448 0.1667226 0.1668191 0.1691363 0.1713345 0.1736794
 0.174093 0.1667731 0.1498471 0.1316399 0.1246256 0.1333933 0.1512288 0.1677221 0.176659 0.1765311
 0.1675262 0.1519877 0.1371644 0.1328937 0.1435465 0.1638457 0.1845418 0.2003523 0.2104918 0.2143011
 0.2104835 0.200446 0.1895389 0.1840057 0.1872312 0.1982466 0.2119942 0.2205734 0.2171198 0.2026797
 0.1892855 0.1910565 0.209326 0.230354 0.2407709 0.2411236 0.2403704 0.2419674 0.2421912 0.2399616
 0.2407294 0.2489794 0.2616091 0.2709947 0.2716967 0.2625932 0.2461088 0.2286984 0.2191775 0.221685
 0.2310015 0.2382331 0.2394152 0.2349931 0.2245656 0.2090432 0.1961896 0.1959516 0.2089146 0.2249726
 0.234825 0.2384424 0.2408692 0.2435508 0.2426342 0.2348647 0.2230279 0.2142239 0.2128448 0.2167435
 0.2208898 0.222689 0.2220263 0.2182719 0.2106832 0.2017183 0.1970478 0.2006645 0.210809 0.2216611
 0.2285667 0.2309502 0.2309215 0.2304933 0.230174 0.2291664 0.2268506 0.2246972 0.2259514 0.2321106
 0.2404588 0.2468275 0.2503726 0.2538477 0.2593071 0.2652746 0.2685448 0.2677034 0.2644983 0.2623471
 0.2636247 0.2677846 0.2717497 0.2725217 0.270025 0.2674319 0.2682279 0.2728726 0.2787299 0.2830601
 0.2852665 0.2863282 0.2871728 0.2878963 0.2877291 0.285645 0.2818545 0.2786864 0.2789431 0.2830988
 0.2888142 0.2933159 0.2956067 0.2963168 0.2962116 0.2953905 0.2937098 0.2914963 0.2895768 0.2886446
 0.2887717 0.2895614 0.2905723 0.2915113 0.292225 0.2926944 0.2929944 0.2931919 0.2933222 0.2934415
 0.2935897 0.2937013 0.2936732 0.2935527 0.2935461 0.293779 0.2941236 0.2943321 0.2942613 0.2938746
 0.2931014 0.2918559 0.2901946 0.2883129 0.286333 0.2842231 0.2820485 0.2802536 0.2795359 0.2803242
 0.2823774 0.2849308 0.2872233 0.2888758 0.2898763 0.2903751 0.2905529 0.2905781 0.2905641 0.2905346
 0.2904479 0.2902657 0.2899935 0.2896663 0.2893167 0.2889719 0.2886662 0.2884273 0.2882419 0.2880502
 0.2877821 0.2873989 0.2869086 0.2863532 0.2857758 0.2851811 0.2845195 0.2837229 0.2827682 0.2817076
 0.2806345 0.2796199 0.2786719 0.2777434 0.2767727 0.275719 0.274554 0.273237 0.2717475 0.2701579
 0.268628 0.2672848 0.2661254 0.2650485 0.2639418 0.2627263 0.2613703 0.2598957 0.2583588 0.2568029
 0.2552372 0.2536487 0.2520187 0.2503308 0.2485797 0.2467714 0.2449114 0.2429981 0.2410322 0.2390163
 0.2369297 0.2347004 0.2322111 0.2293389 0.225984 0.2220735 0.2175787 0.2125578 0.207172 0.2016452
 0.1962023 0.1910285 0.1862523 0.1819588 0.1782238 0.1751311 0.1727504 0.1711114 0.1702101 0.1700336
 0.1705698 0.1717914 0.1736267 0.1759488 0.1785991 0.1814095 0.184203 0.1868113 0.1891409 0.1912254
 0.1931883 0.1951385 0.1970939 0.1989935 0.2007671 0.2023773 0.2038004 0.2050002 0.2059545 0.2066883
 0.2072574 0.207706 0.2080568 0.2083259 0.2085301 0.2086847 0.2088058 0.2089175 0.2090575 0.2092688
 0.2095731 0.2099559 0.2103911 0.210872 0.2114102 0.212014 0.2126788 0.2133917 0.214144 0.2149429
 0.2158112 0.2167765 0.2178737 0.2191525 0.2206585 0.2224019 0.2243466 0.2264172 0.2285098 0.2305112
 0.232323 0.2338724 0.2351177 0.2360587 0.2367293 0.2371664 0.2373948 0.2374392 0.2373339 0.2371148
 0.2368093 0.2364287 0.2359671 0.2354144 0.2347704 0.2340409 0.2332394 0.2324022 0.2315766 0.230784
 0.2300153 0.2292647 0.2285421 0.227851 0.2271789 0.2265076 0.225821 0.2251089 0.2243759 0.2236363
 0.2228941 0.2221309 0.2213105 0.2203975 0.2193772 0.2182565 0.2170402 0.2157207 0.2142968 0.2127881
 0.2112213 0.2096139 0.2079709 0.2062842 0.2045367 0.2027113 0.2007855 0.1987305 0.1965455 0.194296
 0.1920884 0.1900029 0.1880613 0.1862446 0.1845229 0.1828752 0.1812972 0.1797898 0.1783493 0.1769746
 0.1756672 0.1744191 0.1732161 0.1720608 0.170977 0.169992 0.1691245 0.1683799 0.1677421 0.1671772
 0.1666567 0.1661768 0.1657623 0.1654547 0.1652781 0.1652037 0.1651598 0.1650793 0.164929 0.1647103
 0.1644545 0.164207 0.1639926 0.1638041 0.1636232 0.163425 0.1631524 0.1627108 0.162 0.1609533
 0.1595598 0.1578648 0.1559529 0.1539354 0.1519455 0.1501118 0.1485191 0.1472059 0.1461845 0.1454265
 0.1448455 0.1443485 0.1439169 0.1436147 0.1435134 0.1436035 0.1437621 0.1438298 0.1437575 0.1436639
 0.1437296 0.1440543 0.1446176 0.1453196 0.1460323 0.1466479 0.147108 0.147397 0.147533 0.1475637
 0.1475302 0.1474301 0.1472417 0.1469657 0.1466177 0.1462111 0.145765 0.1452943 0.1447825 0.1441906
 0.1434891 0.1426707 0.141758 0.1407863 0.1397418 0.1385612 0.1372628 0.1360431 0.135185 0.1348847
 0.1351601 0.1358595 0.136765 0.1377338 0.1386792 0.1394036 0.1396515 0.1394994 0.1395493 0.1404915
 0.1424431 0.1448225 0.1468721 0.1481944 0.1487884 0.1487715 0.1482311 0.1472316 0.1457744 0.1437933
 0.1412985 0.1384428 0.1353882 0.1322543 0.129218 0.1264867 0.1241664 0.1222618 0.1207521 0.1196829
 0.1191998 0.1189296 0.1169874 0.1109829 0.1016958 0.09469564 0.09566049 0.1040023 0.1132851 0.1180359
 0.1181052 0.1164078 0.114961 0.1140806 0.1136569 0.1137952 0.1145956 0.1159284 0.1174295 0.118691
 0.1195169 0.1199224 0.1198686 0.1190305 0.1167226 0.1121238 0.1049533 0.09606844 0.08716225 0.07976827
 0.07459177 0.07154094 0.07003288 0.06932051 0.06886981 0.06861493 0.06885237 0.06988159 0.07175104 0.07431133
 0.07738322 0.08073191 0.08395018 0.08662112 0.08865234 0.09026274 0.09161052 0.09260879 0.09311182 0.09310842
 0.0927127 0.09208586 0.09137468 0.09063846 0.08980958 0.08877114 0.08753204 0.08633192 0.08549322 0.08512555
 0.08505239 0.08505078 0.08504529 0.08504606 0.08504172 0.08500546 0.08493075 0.08486193 0.08491965 0.08521561
 0.08570223 0.08618999 0.08653314 0.08673117 0.086858 0.08692299 0.08677972 0.08624266 0.08539084 0.08460508
 0.08410177 0.0835917 0.0826766 0.081469 0.08053388 0.08026239 0.08052185 0.08088974 0.08104171 0.08090959
 0.0806492 0.08055146 0.08085617 0.08148658</values></Ydata></ScSm><ScRf><Ydata ylabel="Single channel"><values byteorder="INTEL" format="FLOAT32" numvalues="1820"> 0.06075228 0.0609116 0.061009 0.06104338 0.06103666 0.06103574 0.06109591 0.0612432 0.06144931 0.06164704
 0.06178042 0.06184348 0.06186133 0.0618431 0.0617864 0.0617284 0.06174614 0.06187995 0.06207763 0.06223051
 0.0622635 0.06220293 0.06216225 0.06223063 0.06235129 0.062336 0.06204094 0.0615316 0.06104171 0.06075831
 0.06070355 0.06086691 0.06132143 0.06201366 0.06252216 0.06235472 0.06156483 0.06078639 0.06053388 0.06070972
 0.06089242 0.06082708 0.06050957 0.06009257 0.0599255 0.06045818 0.06179673 0.06333892 0.06399152 0.06286077
 0.05989196 0.05607074 0.05305865 0.05230194 0.05401306 0.05688082 0.05905231 0.0596098 0.05901276 0.05816166
 0.05743003 0.05677372 0.05635593 0.05658977 0.05756374 0.05864782 0.05881677 0.05752973 0.05537643 0.0536585
 0.0532012 0.05383631 0.05509958 0.05673488 0.05799037 0.05721915 0.05350172 0.04869465 0.04660065 0.04935416
 0.05514124 0.05996877 0.061214 0.05909865 0.05553075 0.0525204 0.05141481 0.05254191 0.0551662 0.0580988
 0.06040971 0.06146368 0.06076722 0.05840153 0.05543541 0.05340318 0.0533654 0.05549717 0.05904763 0.06240296
 0.0638221 0.06272557 0.06007983 0.05737561 0.05564735 0.05547779 0.05714466 0.06033164 0.0641109 0.06747909
 0.06976205 0.07068465 0.07043634 0.06955329 0.06850692 0.06761716 0.06733453 0.06796628 0.06893838 0.06901371
 0.06764281 0.06570465 0.06460322 0.06481548 0.06551226 0.06556345 0.06467876 0.06322093 0.06108838 0.0576911
 0.05330629 0.04944221 0.04732933 0.04698385 0.04810872 0.05056933 0.05332712 0.05437746 0.05294329 0.05087407
 0.05080562 0.05334685 0.05676737 0.05911344 0.06002016 0.06057659 0.06192776 0.06409987 0.06585375 0.06562099
 0.06306019 0.0599214 0.05880288 0.06060044 0.06365017 0.06577653 0.06658518 0.06721111 0.06833698 0.0691333
 0.06812324 0.06493892 0.06125846 0.05976366 0.06179998 0.06602846 0.0694005 0.06940982 0.06577455 0.06049998
 0.05632083 0.05481224 0.05597067 0.05925351 0.06417713 0.06976489 0.07430421 0.07630348 0.07556841 0.0731229
 0.07003962 0.06644674 0.06207933 0.05792857 0.05645151 0.05925504 0.06504062 0.07068248 0.07401589 0.07492031
 0.07410518 0.07177056 0.06781051 0.06311833 0.06001554 0.06044348 0.06361865 0.0664776 0.06688537 0.06558441
 0.06461404 0.06477243 0.06531911 0.06554367 0.06578445 0.06685737 0.06888972 0.07101176 0.07219705 0.07219394
 0.07157088 0.07105387 0.07086211 0.07054553 0.0696201 0.0685409 0.06863731 0.07065415 0.07372391 0.07625896
 0.07754367 0.07798831 0.0780579 0.0774577 0.07555833 0.07257383 0.07004026 0.0696745 0.07171229 0.07475747
 0.07723056 0.07850876 0.07878345 0.07848084 0.0779683 0.07743721 0.07697616 0.07683226 0.07734378 0.07845289
 0.07959653 0.08027086 0.0804452 0.08030815 0.07990471 0.07920951 0.07838862 0.07780617 0.07776281 0.07827032
 0.07909348 0.07996087 0.08066083 0.08100218 0.08088149 0.08043098 0.07994284 0.07960284 0.07942149 0.07941511
 0.07966934 0.08017302 0.08073503 0.08114324 0.0813328 0.0813614 0.08129208 0.08114834 0.08094965 0.08075822
 0.08068433 0.08081155 0.08109275 0.08137553 0.08157848 0.08177526 0.08203597 0.08226347 0.08229455 0.08212118
 0.0819103 0.08181988 0.08187193 0.08199392 0.08210179 0.08211143 0.08193384 0.08155354 0.08112571 0.08091523
 0.08108725 0.08159225 0.08225767 0.08291085 0.08340922 0.08367158 0.0837376 0.08372325 0.08368415 0.08357793
 0.08337399 0.08315045 0.08306475 0.08323629 0.0836449 0.08413941 0.08455332 0.08480428 0.08490314 0.08493056
 0.08500431 0.08518304 0.08538125 0.08545314 0.08537842 0.0852965 0.08533713 0.08547144 0.08555729 0.0855068
 0.0853871 0.08535179 0.0854818 0.08571547 0.08593749 0.08610665 0.08627547 0.08649464 0.08671607 0.08681136
 0.08670852 0.08649197 0.08632081 0.08626124 0.08626276 0.08629173 0.08639818 0.08661425 0.08685698 0.08699724
 0.08700532 0.08697683 0.08700873 0.08708453 0.08710296 0.0869993 0.08681257 0.0866425 0.08656754 0.0866009
 0.0866956 0.0867769 0.08678535 0.08671027 0.08658922 0.08647208 0.08638619 0.08634287 0.08637178 0.08651476
 0.08675744 0.0869825 0.08703673 0.08686858 0.08658822 0.08637278 0.08630706 0.08632061 0.08627561 0.08610174
 0.085841 0.08558314 0.08538532 0.08525066 0.08515534 0.08508129 0.08503825 0.08506379 0.08518085 0.08533625
 0.08540548 0.08529694 0.08504699 0.08478537 0.08461662 0.08455653 0.08455844 0.08456495 0.08455229 0.08455352
 0.0846152 0.08471384 0.08475815 0.08469763 0.08458756 0.08452886 0.08458556 0.08476172 0.08499658 0.08517204
 0.085191 0.08507553 0.08494832 0.08490615 0.08494765 0.08502424 0.08511072 0.08520611 0.08530338 0.08539501
 0.08549973 0.08565693 0.08588545 0.08615513 0.08640212 0.08657363 0.08666915 0.08674958 0.08690006 0.08716511
 0.08751029 0.08784891 0.08811281 0.08830249 0.08847047 0.08865772 0.08885869 0.08905745 0.08927514 0.0895495
 0.08987609 0.09020585 0.09050247 0.09077375 0.09104444 0.09132475 0.09161472 0.09192716 0.09229337 0.0927317
 0.09320053 0.09360035 0.09385177 0.09397336 0.09407037 0.09425376 0.09456855 0.09496421 0.09531663 0.09551954
 0.09559149 0.0956671 0.09585097 0.09611037 0.09635125 0.09657015 0.09686693 0.09730293 0.09779943 0.09820671
 0.09845224 0.0985965 0.09874952 0.09895177 0.09914705 0.09926841 0.09932914 0.09940428 0.09953448 0.0996969
 0.09988179 0.1001405 0.1005139 0.1009508 0.101346 0.1016405 0.101847 0.1020003 0.1021209 0.1022129
 0.1022688 0.1022887 0.1023063 0.1023679 0.1024689 0.1025481 0.1025704 0.1025802 0.1026499 0.1028065
 0.1030357 0.1033226 0.1036458 0.103956 0.1042194 0.104477 0.1048045 0.1051936 0.1055231 0.1056877
 0.1057147 0.1057106 0.1057294 0.1057581 0.1058078 0.1059423 0.1062003 0.106542 0.1068981 0.1072382
 0.1075741 0.1079132 0.1082268 0.1084606 0.1085748 0.1085806 0.1085432 0.1085495 0.1086672 0.1089123
 0.1092399 0.1095732 0.1098522 0.1100496 0.1101468 0.1101329 0.1100513 0.1100115 0.1101041 0.1103006
 0.1104669 0.1104765 0.1102896 0.1099282 0.1094181 0.1087837 0.1080794 0.1073963 0.106825 0.1064168
 0.1061869 0.1061541 0.1063578 0.1068144 0.1074592 0.1081622 0.1088073 0.1093246 0.1096439 0.1096712
 0.1093572 0.1087644 0.1080316 0.1072862 0.1066015 0.1059945 0.1054311 0.1048687 0.1043431 0.1040066
 0.1040538 0.1046045 0.1056456 0.1070423 0.1085811 0.1100375 0.1112626 0.1122361 0.1130356 0.1137513
 0.1144295 0.1150873 0.1157464 0.1164169 0.1170643 0.1176341 0.1181148 0.1185448 0.1189581 0.1193496
 0.1196938 0.1199738 0.1201969 0.1203962 0.1206005 0.120787 0.1208897 0.1208747 0.1207817 0.1206707
 0.120551 0.1203787 0.1201047 0.1197155 0.1192587 0.1188568 0.118688 0.1189156 0.1195987 0.1206546
 0.1219168 0.1232384 0.1245301 0.1257117 0.1266804 0.1273665 0.1277993 0.1280855 0.1283311 0.1285949
 0.1288932 0.1292173 0.129545 0.1298554 0.1301413 0.130416 0.1307078 0.1310362 0.1313848 0.1317059
 0.1319672 0.1321933 0.1324497 0.13278 0.1331595 0.1335219 0.1338355 0.1341333 0.1344548 0.134779
 0.135048 0.1352453 0.1354174 0.135625 0.1359018 0.1362472 0.1366216 0.136954 0.1371915 0.1373488
 0.1374907 0.1376687 0.1378911 0.1381425 0.1384086 0.1386779 0.138941 0.1392019 0.1394804 0.139787
 0.1400935 0.1403453 0.140516 0.1406411 0.1407843 0.1409771 0.1412018 0.1414238 0.1416328 0.1418529
 0.1421173 0.1424266 0.1427327 0.1429763 0.1431406 0.1432628 0.1433949 0.1435639 0.1437651 0.14398
 0.1441926 0.1443961 0.1445917 0.1447849 0.144982 0.145188 0.1454034 0.1456234 0.1458424 0.1460591
 0.1462744 0.1464875 0.1467011 0.1469313 0.1471988 0.147499 0.1477896 0.1480222 0.1481858 0.1483103
 0.1484331 0.148574 0.1487369 0.1489179 0.1491095 0.1493051 0.1495045 0.1497112 0.1499277 0.1501512
 0.1503735 0.1505869 0.1507909 0.1509935 0.1512026 0.1514201 0.1516426 0.1518648 0.1520811 0.1522879
 0.1524871 0.1526855 0.1528889 0.1530948 0.1532913 0.1534681 0.1536301 0.1537944 0.1539735 0.1541659
 0.1543619 0.1545544 0.1547411 0.1549228 0.1551028 0.1552882 0.1554863 0.1556983 0.155916 0.1561302
 0.1563382 0.1565412 0.1567402 0.1569377 0.15714 0.157351 0.1575647 0.1577714 0.1579674 0.1581559
 0.158342 0.1585282 0.1587148 0.158902 0.1590932 0.1592931 0.1595037 0.1597205 0.1599343 0.1601375
 0.1603312 0.1605238 0.1607204 0.1609196 0.1611224 0.1613357 0.1615621 0.1617926 0.1620153 0.162226
 0.1624291 0.1626319 0.162839 0.1630505 0.1632657 0.163484 0.1637019 0.1639121 0.1641085 0.1642899
 0.1644586 0.1646204 0.1647861 0.1649635 0.1651515 0.1653438 0.1655362 0.1657271 0.165918 0.1661126
 0.1663111 0.1665085 0.1667004 0.1668894 0.1670818 0.1672839 0.1674973 0.167712 0.1679141 0.1681045
 0.1682995 0.1685086 0.1687254 0.1689405 0.1691523 0.1693643 0.1695795 0.1697953 0.1700046 0.1702051
 0.1704057 0.1706153 0.1708325 0.1710527 0.1712729 0.1714887 0.1716962 0.1718977 0.1720961 0.1722912
 0.1724862 0.1726873 0.1728946 0.1731032 0.1733125 0.1735231 0.1737341 0.1739482 0.1741682 0.1743884
 0.1746046 0.1748229 0.1750471 0.175271 0.1754912 0.1757092 0.1759211 0.1761226 0.1763208 0.1765247
 0.1767368 0.1769584 0.1771827 0.1773805 0.1774973 0.1774228 0.1768866 0.1753411 0.1719426 0.1657265
 0.1560044 0.1428059 0.1270144 0.1100426 0.09331146 0.07789065 0.06441088 0.05315432 0.04418823 0.03744536
 0.03277661 0.03004696 0.02923974 0.03056376 0.03456604 0.04180568 0.05162986 0.06108972 0.06608663 0.06460768
 0.05865272 0.05241399 0.04879236 0.04799205 0.0487685 0.0500554 0.05151182 0.05333169 0.05585313 0.05917695
 0.0631476 0.06775983 0.07335635 0.08019017 0.08790213 0.09566953 0.1029102 0.109739 0.1166976 0.1241029
 0.1317113 0.1389582 0.1454137 0.1509998 0.1558963 0.1603393 0.1644919 0.1684326 0.1721992 0.1757816
 0.179047 0.1817176 0.1835028 0.1843139 0.184366 0.1840632 0.1837648 0.1836443 0.1837256 0.1839865
 0.1844039 0.1849526 0.1856079 0.1863483 0.1871463 0.1879708 0.1887993 0.189615 0.1904006 0.1911422
 0.1918318 0.1924601 0.1930214 0.1935239 0.1939827 0.1944078 0.1948056 0.1951844 0.1955484 0.1958965
 0.196227 0.1965388 0.1968302 0.197103 0.1973626 0.1976104 0.1978423 0.198059 0.1982701 0.198485
 0.1987064 0.1989287 0.1991428 0.1993462 0.1995458 0.1997463 0.1999431 0.2001332 0.2003247 0.2005254
 0.2007309 0.2009313 0.201125 0.2013188 0.2015191 0.2017249 0.2019277 0.2021191 0.2023 0.2024794
 0.2026654 0.202859 0.2030549 0.2032451 0.2034294 0.2036227 0.2038414 0.2040814 0.2043213 0.2045459
 0.2047533 0.2049469 0.2051345 0.2053289 0.2055326 0.2057294 0.2059024 0.2060584 0.2062245 0.2064205
 0.2066394 0.2068568 0.2070575 0.2072485 0.2074444 0.2076491 0.2078545 0.2080481 0.2082254 0.2084045
 0.2086177 0.208873 0.2091407 0.2093911 0.2096221 0.2098425 0.2100568 0.2102744 0.2105017 0.2107182
 0.2108912 0.211028 0.2111935 0.2114553 0.211812 0.2121848 0.2124928 0.2127279 0.2129402 0.2131734
 0.2134398 0.2137123 0.2139055 0.2139299 0.2138334 0.2138273 0.2140952 0.2146102 0.2151909 0.2156886
 0.2160734 0.2163854 0.2166603 0.2168927 0.2170407 0.2170709 0.2170276 0.2170551 0.2173024 0.2177739
 0.218312 0.2187581 0.2190784 0.2193142 0.2195001 0.219658 0.2197576 0.2196613 0.2192718 0.2187969
 0.2186969 0.2192376 0.2201897 0.2210746 0.2216376 0.2219739 0.2222571 0.2225232 0.2227296 0.2227948
 0.2224869 0.221555 0.220223 0.2193302 0.2196369 0.2210566 0.2227996 0.2241631 0.2249697 0.2253902
 0.2256443 0.2258569 0.2259591 0.2256893 0.2248891 0.223896 0.2234565 0.2240354 0.2252911 0.2264412
 0.2270631 0.2273179 0.2275256 0.2278089 0.2280124 0.2276656 0.2262498 0.2239598 0.2220832 0.2220905
 0.224197 0.227106 0.2292922 0.2303092 0.2306738 0.2307492 0.2302177 0.2286623 0.2261988 0.2234328
 0.2212672 0.2207665 0.2224474 0.2254078 0.2278456 0.2288373 0.2291145 0.229866 0.2313247 0.2327849
 0.2335165 0.2333264 0.2324336 0.231071 0.2293726 0.2277497 0.2271165 0.2282427 0.2308229 0.2335856
 0.235467 0.2364143 0.2368391 0.2363881 0.2336904 0.2280081 0.2213079 0.2177221 0.2199029 0.2262478
 0.2326218 0.2364267 0.2380255 0.238792 0.2392591 0.2389838 0.2368151 0.2315179 0.2237278 0.2171909
 0.2162374 0.2214976 0.2291875 0.234642 0.2354856 0.2318795 0.2257004 0.2199946 0.2177326 0.220005
 0.2255391 0.2319546 0.2371945 0.2401061 0.2404371 0.2387118 0.2361809 0.234516 0.2345957 0.2351888
 0.2338926 0.2301662 0.2262374 0.2238437 0.221556 0.2174277 0.213268 0.2134449 0.219206 0.2265856
 0.2308561 0.231316 0.2304398 0.2293742 0.2259822 0.2179222 0.2070831 0.1996802 0.2008231 0.2092098
 0.2182902 0.2226814 0.2224442 0.2211639 0.2211674 0.2211489 0.2180054 0.2108873 0.2032801 0.2000867
 0.202409 0.2065564 0.2084161 0.2067384 0.201707 0.1936174 0.1852244 0.1825936 0.1899952 0.2046802
 0.2190241 0.2267965 0.2254413 0.2147283 0.197656 0.1822914 0.1778453 0.186423 0.2004639 0.2096913
 0.2092665 0.2006654 0.187299 0.172179 0.159307 0.1541166 0.1602346 0.1758001 0.1934585 0.2039959
 0.2014397 0.1877323 0.1731867 0.1690696 0.1773198 0.1891774 0.1949803 0.1929292 0.1877348 0.1845788
 0.186131 0.192026 0.1992417 0.2049503 0.2087795 0.2096249 0.2026187 0.1849833 0.1637852 0.1512743
 0.1521626 0.1612264 0.1731107 0.1871326 0.2008714 0.2068683 0.2010362 0.1903891 0.1870589 0.1954134
 0.2083231 0.2158881 0.215239 0.2110544 0.2083516 0.2071532 0.2049798 0.2026226 0.2043562 0.2120331
 0.2218451 0.2285753 0.2310277 0.2315573 0.2320791 0.2326095 0.2326152 0.2318994 0.2305344 0.2289874
 0.2279675 0.227631 0.2274393 0.2269712 0.2258953 0.2227405 0.215223 0.2034617 0.1920053 0.1862206
 0.1866043 0.1891747 0.1913888 0.1936153 0.1936103 0.1849698 0.1655852 0.1445799 0.1356693 0.1439067
 0.1619181 0.1783119 0.1864105 0.1848235 0.1740392 0.1566264 0.1399544 0.1338826 0.1427182 0.1610861
 0.1796758 0.1932589 0.2012737 0.2033828 0.1985012 0.1879638 0.1767776 0.1707525 0.1729699 0.1824408
 0.1944317 0.2016689 0.1979003 0.1841227 0.1713163 0.172331 0.1884012 0.207084 0.2162502 0.2163575
 0.2154893 0.2167815 0.216893 0.2148621 0.2156217 0.2232507 0.2349885 0.2439636 0.2452244 0.2376871
 0.223498 0.2085297 0.2008492 0.204216 0.2137439 0.2211571 0.2227637 0.2189839 0.2094906 0.195242
 0.183615 0.1839685 0.1968066 0.212572 0.2225006 0.2265996 0.229658 0.2330037 0.2328903 0.2261706
 0.2155556 0.2079438 0.2075998 0.2124285 0.2175282 0.2203607 0.2207766 0.2180828 0.2114777 0.2033845
 0.1994825 0.2037669 0.2143847 0.2253328 0.231802 0.2331796 0.231648 0.2293524 0.2269614 0.2238349
 0.21945 0.2152565 0.2144005 0.2183668 0.2246235 0.2292303 0.231353 0.233537 0.2377003 0.24249
 0.2449278 0.2436545 0.2402184 0.2377253 0.2383515 0.2416193 0.2447509 0.2450365 0.2424126 0.2397649
 0.2402673 0.2443463 0.2496208 0.2536163 0.255785 0.2569831 0.2580098 0.2589122 0.2589507 0.2571568
 0.2537019 0.2506921 0.2506703 0.2540903 0.2588904 0.2626322 0.2644702 0.2649937 0.2648764 0.2641764
 0.2627478 0.2608865 0.2593313 0.2586766 0.2589471 0.2597598 0.2607208 0.2615951 0.2622748 0.2627503
 0.2630752 0.2632916 0.263419 0.2635066 0.2636024 0.263663 0.2635986 0.263445 0.2633915 0.2635716
 0.2638946 0.2641512 0.2642096 0.2640187 0.2634937 0.2625481 0.2612436 0.2597698 0.2582347 0.2565885
 0.2548657 0.2534552 0.2529873 0.2538573 0.2558605 0.2583171 0.2605376 0.2621652 0.2631743 0.263695
 0.2638933 0.2639245 0.2638925 0.2638241 0.2636955 0.2634858 0.2632024 0.262866 0.2624921 0.2620987
 0.2617228 0.2614036 0.2611407 0.2608826 0.2605664 0.2601624 0.2596833 0.2591652 0.2586343 0.2580757
 0.257436 0.2566699 0.255781 0.2548192 0.2538555 0.2529539 0.252137 0.2513688 0.2505917 0.2497763
 0.2489078 0.2479427 0.2468454 0.2456771 0.2445915 0.2437056 0.2430041 0.2423816 0.2417363 0.2410018
 0.2401433 0.239172 0.2381421 0.2370971 0.2360276 0.2348998 0.2336985 0.2324263 0.2310801 0.2296533
 0.2281475 0.2265746 0.2249571 0.2233187 0.2216523 0.2198895 0.2179119 0.2155877 0.2127995 0.209462
 0.2055469 0.2011102 0.1962992 0.1913248 0.1864034 0.1817081 0.1773637 0.1734722 0.1701224 0.1673813
 0.1652911 0.1638784 0.1631588 0.1631379 0.1638114 0.1651563 0.1671118 0.1695677 0.1723711 0.1753496
 0.178336 0.1811866 0.1838053 0.1861768 0.1883626 0.1904312 0.1923891 0.1941965 0.1958284 0.197285
 0.1985535 0.1996056 0.2004405 0.2011048 0.2016616 0.2021504 0.2025804 0.2029504 0.2032628 0.203522
 0.2037336 0.2039129 0.2040851 0.2042681 0.2044662 0.2046812 0.204924 0.2052141 0.2055788 0.2060386
 0.2065828 0.2071711 0.207771 0.2083826 0.2090201 0.2096922 0.2104131 0.2112187 0.2121549 0.2132496
 0.2144958 0.2158521 0.2172495 0.2185988 0.2198072 0.2208031 0.2215549 0.2220669 0.2223632 0.2224747
 0.2224295 0.2222461 0.2219408 0.2215384 0.2210661 0.2205381 0.2199558 0.219323 0.21865 0.2179458
 0.2172189 0.216485 0.2157671 0.2150801 0.2144203 0.2137769 0.2131478 0.212539 0.2119514 0.2113758
 0.2108009 0.210222 0.2096443 0.2090808 0.2085362 0.2079859 0.2073781 0.2066642 0.2058255 0.2048735
 0.2038302 0.2027098 0.2015157 0.2002471 0.198903 0.1974781 0.195966 0.1943717 0.1927137 0.1910004
 0.1892091 0.1873056 0.1852957 0.18325 0.1812692 0.1794269 0.1777415 0.1761855 0.174711 0.1732841
 0.1719096 0.1706131 0.169397 0.1682328 0.1670996 0.1660088 0.1649842 0.1640348 0.1631584 0.1623601
 0.1616548 0.1610477 0.1605206 0.1600493 0.1596304 0.1592816 0.1590211 0.1588613 0.1588073 0.1588411
 0.1589118 0.1589558 0.158926 0.1588132 0.1586536 0.1585041 0.1583964 0.1583221 0.1582623 0.1581932
 0.1580557 0.1577505 0.1571821 0.1562971 0.155093 0.1536073 0.151904 0.1500697 0.148221 0.1464898
 0.1449857 0.1437756 0.142882 0.1422627 0.1418121 0.141432 0.1411084 0.1409084 0.1409104 0.1411211
 0.1414268 0.1416509 0.1417103 0.1417024 0.1418163 0.1421819 0.1428002 0.1435619 0.1443187 0.1449701
 0.1454875 0.145867 0.1461093 0.1462432 0.1463052 0.1462939 0.146187 0.1459833 0.1456981 0.1453517
 0.1449712 0.1445657 0.1441063 0.1435622 0.1429264 0.1421932 0.1413594 0.1404368 0.1394113 0.1382432
 0.136988 0.1358689 0.1351614 0.1350273 0.1354523 0.1362707 0.1372699 0.1383217 0.1393509 0.1401666
 0.1405248 0.1405054 0.1406861 0.1417249 0.1437356 0.1461632 0.148283 0.1497249 0.1504878 0.1506423
 0.1502197 0.1492793 0.1478604 0.1459221 0.1434685 0.1406369 0.1375837 0.1344374 0.1313866 0.1286377
 0.1263017 0.1244195 0.1229987 0.1220551 0.1216855 0.1215034 0.1196112 0.1135843 0.1042359 0.09727915
 0.09850742 0.1072738 0.1169598 0.1219543 0.1220982 0.1203725 0.1188424 0.1178323 0.1172581 0.1172868
 0.1180498 0.1193736 0.1208333 0.1220112 0.1227437 0.1230809 0.1230008 0.1221608 0.1198233 0.1151135
 0.1077245 0.09852874 0.08928505 0.08161654 0.07627363 0.07313587 0.07156499 0.07078173 0.07025594 0.06995825
 0.07022521 0.07135002 0.07333347 0.07599711 0.07917041 0.08262982 0.08596627 0.0887543 0.09088457 0.09256724
 0.09398216 0.09506696 0.09566572 0.09574316 0.09540081 0.09477824 0.09399943 0.09315229 0.09223966 0.09118091
 0.08996391 0.08879253 0.08796471 0.08757978 0.08747077 0.08742929 0.08737807 0.08732778 0.08729322 0.08727369
 0.08725455 0.08724624 0.08733778 0.08763397 0.08811165 0.08860557 0.08895242 0.08911318 0.08915973 0.08913572
 0.08892164 0.08834533 0.08749942 0.08675804 0.08629252 0.08576094 0.08475241 0.08342083 0.08239454 0.08209431
 0.08236016 0.0827253 0.08284929 0.08267152 0.08236435 0.08224937 0.08258836 0.08327329 0.08381172 0.08378831
</values></Ydata></ScRf><Data_Parameters_AB><parameter name="DPF">1</parameter><parameter name="NPT">3497</parameter><parameter name="FXV">3996</parameter><parameter name="LXV">500</parameter><parameter name="CSF">1</parameter><parameter name="MXY">0.0487292855978012</parameter><parameter name="MNY">-0.125028476119041</parameter><parameter name="DAT">31/05/2022</parameter><parameter name="TIM">13:59:11.226 (GMT+2)</parameter><parameter name="DXU">WN</parameter></Data_Parameters_AB><AB__Qtest><MainReport name="Quality Test Report"><Header><Line><Legend>Test result ok/not ok [1/0]: </Legend><Value>0</Value></Line><Line><Legend>Method file: </Legend><Value>C:\Users\Public\Documents\Bruker\OPUS_8.2.28\QT\IRBT_v3_default.QT</Value></Line></Header><Matrix><Line><Legend></Legend><Legend>min</Legend><Legend>max</Legend><Legend>measured</Legend></Line><Line><Value>Absorption (X-Range 1):</Value><Value>0.400000</Value><Value>2.000000</Value><Value>0.124591</Value></Line><Line><Value>Noise (X-Range 4):</Value><Value></Value><Value>0.000300</Value><Value>0.000037</Value></Line><Line><Value>Signal/Noise (X-Range 2):</Value><Value>200.000000</Value><Value></Value><Value>37.590333</Value></Line><Line><Value>Signal/Noise (X-Range 3):</Value><Value>40.000000</Value><Value></Value><Value>28.086996</Value></Line><Line><Value>Water vapour (X-Range 5):</Value><Value></Value><Value>0.000300</Value><Value>0.000062</Value></Line><Line><Value>Signal/Water (X-Range 2):</Value><Value>100.000000</Value><Value></Value><Value>22.752462</Value></Line><Line><Value>Signal/Water (X-Range 3):</Value><Value>20.000000</Value><Value></Value><Value>17.000337</Value></Line><Line><Value>Fringes (X-Range 6):</Value><Value></Value><Value>0.000100</Value><Value>0.000070</Value></Line></Matrix></MainReport></AB__Qtest><Data_Parameters_ScSm><parameter name="DPF">1</parameter><parameter name="NPT">1814</parameter><parameter name="FXV">3996.33169228125</parameter><parameter name="LXV">499.541461535156</parameter><parameter name="CSF">1</parameter><parameter name="MXY">0.296316802501678</parameter><parameter name="MNY">0.0389938838779926</parameter><parameter name="DAT">31/05/2022</parameter><parameter name="TIM">13:59:11.226 (GMT+2)</parameter><parameter name="DXU">WN</parameter></Data_Parameters_ScSm><Data_Parameters_ScRf><parameter name="DPF">1</parameter><parameter name="NPT">1820</parameter><parameter name="FXV">4004.04661832813</parameter><parameter name="LXV">495.683998511719</parameter><parameter name="CSF">1</parameter><parameter name="MXY">0.264993667602539</parameter><parameter name="MNY">0.0292397420853376</parameter><parameter name="DAT">31/05/2022</parameter><parameter name="TIM">13:58:45.375 (GMT+2)</parameter><parameter name="DXU">WN</parameter></Data_Parameters_ScRf><Optic_Parameters_Rf><parameter name="APR">0</parameter><parameter name="APT">Open</parameter><parameter name="BMS">KBr</parameter><parameter name="DTC">RT-DLaTGS_IR-Biotyper [Microplate reader]</parameter><parameter name="HPF">0</parameter><parameter name="LPF">10.0</parameter><parameter name="LPV">4000</parameter><parameter name="PGR">0</parameter><parameter name="RCH">Module port</parameter><parameter name="RDX">0</parameter><parameter name="SRC">MIR</parameter><parameter name="VEL">10.0</parameter><parameter name="SON">Off</parameter></Optic_Parameters_Rf><Acquisition_Parameters_Rf><parameter name="ADT">1</parameter><parameter name="AQM">DD</parameter><parameter name="CFE">0</parameter><parameter name="COR">0</parameter><parameter name="DEL">0</parameter><parameter name="DLY">0</parameter><parameter name="HFW">8000</parameter><parameter name="LFW">0</parameter><parameter name="NSR">32</parameter><parameter name="PLF">AB</parameter><parameter name="RES">6</parameter><parameter name="RGN">-1</parameter><parameter name="STR">0</parameter><parameter name="TCL">MakeCompatibleScalar (0, {WSV=1.000000, ARV=0});</parameter><parameter name="TDL">37</parameter><parameter name="RPO">0</parameter></Acquisition_Parameters_Rf><FT_-_Parameters_Rf><parameter name="APF">B3</parameter><parameter name="HFQ">500</parameter><parameter name="LFQ">4000</parameter><parameter name="NLI">0</parameter><parameter name="PHR">24</parameter><parameter name="PHZ">ML</parameter><parameter name="SPZ">NO</parameter><parameter name="ZFF">1</parameter></FT_-_Parameters_Rf><Optic_Parameters_><parameter name="APR">0</parameter><parameter name="APT">Open</parameter><parameter name="BMS">KBr</parameter><parameter name="CHN">Module port</parameter><parameter name="DTC">RT-DLaTGS_IR-Biotyper [Microplate reader]</parameter><parameter name="HPF">0</parameter><parameter name="LPF">10.0</parameter><parameter name="LPV">4000</parameter><parameter name="PGN">0</parameter><parameter name="RDX">0</parameter><parameter name="SRC">MIR</parameter><parameter name="VEL">10.0</parameter><parameter name="SON">Off</parameter></Optic_Parameters_><FT_-_Parameters_><parameter name="APF">B3</parameter><parameter name="HFQ">500</parameter><parameter name="LFQ">4000</parameter><parameter name="NLI">0</parameter><parameter name="PHR">24</parameter><parameter name="PHZ">ML</parameter><parameter name="SPZ">NO</parameter><parameter name="ZFF">1</parameter></FT_-_Parameters_><Acquisition_Parameters_><parameter name="ADT">1</parameter><parameter name="AQM">DD</parameter><parameter name="CFE">0</parameter><parameter name="COR">0</parameter><parameter name="DEL">0</parameter><parameter name="DLY">0</parameter><parameter name="HFW">8000</parameter><parameter name="LFW">0</parameter><parameter name="NSS">32</parameter><parameter name="PLF">AB</parameter><parameter name="RES">6</parameter><parameter name="SOT">0</parameter><parameter name="TCL">MakeCompatibleScalar (0, {WSV=1.000000, ARV=0});</parameter><parameter name="TDL">37</parameter><parameter name="SPO">0</parameter><parameter name="SGN">-1</parameter></Acquisition_Parameters_><Instrument_Parameters_Rf><parameter name="HFL">15800.168544</parameter><parameter name="LFL">0</parameter><parameter name="LWN">15800.168544</parameter><parameter name="ABP">32197</parameter><parameter name="SSP">1</parameter><parameter name="ARG">2</parameter><parameter name="ASG">2</parameter><parameter name="ASS">32</parameter><parameter name="GFW">16</parameter><parameter name="GBW">16</parameter><parameter name="BFW">0</parameter><parameter name="BBW">0</parameter><parameter name="PKA">7260</parameter><parameter name="PKL">4996</parameter><parameter name="PRA">7447</parameter><parameter name="PRL">5001</parameter><parameter name="P2A">1</parameter><parameter name="P2L">1</parameter><parameter name="P2R">1</parameter><parameter name="P2K">1</parameter><parameter name="DAQ">0</parameter><parameter name="AG2">1</parameter><parameter name="SSM">1</parameter><parameter name="RSN">25735</parameter><parameter name="CRR">0</parameter><parameter name="SRT">1654005525.375</parameter><parameter name="DUR">19.6379852294922</parameter><parameter name="TSC">29</parameter><parameter name="MVD">0.209130197763443</parameter><parameter name="AN1">0.225803315668628</parameter><parameter name="AN2">0</parameter><parameter name="VSN">2.485 Apr  4 2017</parameter><parameter name="SRN">0085</parameter><parameter name="CAM">0</parameter><parameter name="INS">IR-Biotyper</parameter><parameter name="FOC">69</parameter><parameter name="RDY">1</parameter><parameter name="ARS">32</parameter></Instrument_Parameters_Rf><Sample_Parameters_><parameter name="BLD"></parameter><parameter name="CNM">Admin</parameter><parameter name="CPY"></parameter><parameter name="DPM"></parameter><parameter name="EXP">IRBT_v3_32Scans.XPM</parameter><parameter name="LCT"></parameter><parameter name="SFM">Microplate, HTS-XT</parameter><parameter name="SNM">220531-1301_CGR32F (D_6)_G6_ac2c8120-dd8e-4ca1-b3ca-c798deff4f49.0</parameter><parameter name="XPP">C:\Users\Public\Documents\Bruker\OPUS_8.2.28\XPM</parameter><parameter name="IST">OK</parameter><parameter name="CPG">1252</parameter><parameter name="UID">88f4decd-e8fd-4877-af4a-2044a870831f</parameter></Sample_Parameters_><Instrument_Parameters_><parameter name="HFL">15800.168544</parameter><parameter name="LFL">0</parameter><parameter name="LWN">15800.168544</parameter><parameter name="ABP">32197</parameter><parameter name="SSP">1</parameter><parameter name="ASG">2</parameter><parameter name="ARG">2</parameter><parameter name="ASS">32</parameter><parameter name="GFW">16</parameter><parameter name="GBW">16</parameter><parameter name="BFW">0</parameter><parameter name="BBW">0</parameter><parameter name="PKA">8478</parameter><parameter name="PKL">4988</parameter><parameter name="PRA">8719</parameter><parameter name="PRL">4993</parameter><parameter name="P2A">1</parameter><parameter name="P2L">1</parameter><parameter name="P2R">1</parameter><parameter name="P2K">1</parameter><parameter name="DAQ">0</parameter><parameter name="AG2">1</parameter><parameter name="SSM">1</parameter><parameter name="RSN">13493</parameter><parameter name="CRR">0</parameter><parameter name="SRT">1654005551.227</parameter><parameter name="DUR">19.6379852294922</parameter><parameter name="TSC">29</parameter><parameter name="MVD">0.223856389522552</parameter><parameter name="AN1">0.22583240539002</parameter><parameter name="AN2">0</parameter><parameter name="VSN">2.485 Apr  4 2017</parameter><parameter name="SRN">0085</parameter><parameter name="CAM">0</parameter><parameter name="INS">IR-Biotyper</parameter><parameter name="FOC">69</parameter><parameter name="RDY">1</parameter></Instrument_Parameters_><History/></OPUSDataFile>
