<?xml version="1.0" encoding="UTF-8" ?>
<OPUSDataFile><AB><Ydata ylabel="Absorbance Units"><values byteorder="INTEL" format="FLOAT32" numvalues="3497"> -0.07022667 -0.07023729 -0.0702437 -0.070246 -0.07024338 -0.07023578 -0.0702157 -0.07018331 -0.07013785 -0.07008168
 -0.07002835 -0.06997969 -0.06995095 -0.06993852 -0.06994288 -0.06995696 -0.06996884 -0.06997604 -0.06996942 -0.06995427
 -0.06993102 -0.06990679 -0.06988595 -0.06987114 -0.06986501 -0.06986504 -0.06987137 -0.06988025 -0.06989102 -0.06990217
 -0.06991345 -0.0699252 -0.06993745 -0.06994971 -0.06996188 -0.06997236 -0.06998134 -0.0699893 -0.06999626 -0.07000317
 -0.07000846 -0.07000893 -0.07000317 -0.06998611 -0.06996109 -0.06992893 -0.06989568 -0.06986719 -0.06984426 -0.06983021
 -0.06981909 -0.06980923 -0.06979699 -0.06978011 -0.06976302 -0.06974564 -0.06973548 -0.06973349 -0.06974187 -0.06976081
 -0.06978373 -0.06980983 -0.06982671 -0.06983419 -0.06982417 -0.06979879 -0.06976113 -0.06971396 -0.06966527 -0.06961681
 -0.06957441 -0.06954031 -0.06951959 -0.06951254 -0.06952311 -0.06954361 -0.06957261 -0.0695977 -0.06961311 -0.06961495
 -0.06959955 -0.06957536 -0.0695428 -0.06951191 -0.06948371 -0.06946462 -0.06945504 -0.069461 -0.06948253 -0.06952224
 -0.0695781 -0.06964009 -0.06970392 -0.0697474 -0.0697706 -0.06975964 -0.06972416 -0.06967278 -0.06961679 -0.06957372
 -0.06954681 -0.06954746 -0.06956492 -0.06959964 -0.06962989 -0.06964657 -0.06964023 -0.06960307 -0.06955283 -0.06949002
 -0.06943935 -0.06940425 -0.06938852 -0.06939263 -0.06940208 -0.06941657 -0.06942843 -0.06943906 -0.06945417 -0.06947364
 -0.06950101 -0.0695331 -0.06956377 -0.06959099 -0.06960715 -0.0696156 -0.06961739 -0.06961516 -0.06961357 -0.06960659
 -0.06959177 -0.06956566 -0.06952252 -0.0694783 -0.06943363 -0.06941411 -0.0694251 -0.06947654 -0.06957237 -0.06968704
 -0.06981967 -0.06989954 -0.06992518 -0.0698569 -0.06970719 -0.06953923 -0.06936017 -0.06923292 -0.06914913 -0.06912091
 -0.06913479 -0.06917609 -0.06922776 -0.06926325 -0.06927424 -0.06923852 -0.06917663 -0.06908923 -0.06901211 -0.06896372
 -0.0689467 -0.06897075 -0.06900112 -0.06903348 -0.06904087 -0.06901839 -0.06897183 -0.06890109 -0.06883027 -0.06876016
 -0.06870632 -0.06866767 -0.06864506 -0.06863686 -0.06863797 -0.06864631 -0.06865487 -0.06866087 -0.06865496 -0.06863982
 -0.06861282 -0.06858352 -0.0685591 -0.06854581 -0.06855138 -0.06857013 -0.06860314 -0.06863814 -0.06867155 -0.06869811
 -0.06871532 -0.0687296 -0.06874175 -0.06875254 -0.06876228 -0.06875516 -0.06873058 -0.06867567 -0.06859248 -0.0684875
 -0.06836446 -0.06824069 -0.06811905 -0.06801527 -0.06793036 -0.06787432 -0.06784353 -0.06783974 -0.0678527 -0.06787566
 -0.06789724 -0.06790762 -0.06790592 -0.06788753 -0.06786293 -0.06783395 -0.06780894 -0.06779045 -0.06777687 -0.06776833
 -0.06776268 -0.06775973 -0.06776379 -0.06777496 -0.06779607 -0.06782542 -0.06785271 -0.06787598 -0.06787992 -0.0678688
 -0.06784398 -0.06781454 -0.067798 -0.06779768 -0.06782714 -0.06787891 -0.06795226 -0.068037 -0.06812564 -0.06821691
 -0.06830835 -0.06840209 -0.06850055 -0.06859305 -0.06867974 -0.0687404 -0.06877298 -0.06876253 -0.068708 -0.06859831
 -0.06843411 -0.06822335 -0.06797237 -0.067729 -0.06749863 -0.06733069 -0.06722038 -0.06718348 -0.06720557 -0.06727181
 -0.06736135 -0.06744052 -0.06750238 -0.06752462 -0.06752378 -0.06750356 -0.06747758 -0.06745493 -0.06743151 -0.06740966
 -0.0673749 -0.06732451 -0.06725127 -0.06715272 -0.06704111 -0.0669168 -0.06680223 -0.06669845 -0.06662391 -0.06657894
 -0.06657625 -0.06661278 -0.0666879 -0.06678845 -0.06688103 -0.06695242 -0.06695638 -0.0669065 -0.0667972 -0.06665541
 -0.0665041 -0.06635668 -0.06622984 -0.06612001 -0.06603047 -0.06595174 -0.0658812 -0.06581535 -0.06575301 -0.06569409
 -0.06563897 -0.06558166 -0.06552184 -0.06545077 -0.0653686 -0.06527906 -0.06518392 -0.06509957 -0.06502426 -0.06496025
 -0.06490319 -0.06484078 -0.06477479 -0.0647011 -0.06462714 -0.06456079 -0.06450713 -0.06447569 -0.06446086 -0.06446514
 -0.06447149 -0.06447542 -0.06445684 -0.06440987 -0.06431897 -0.06417884 -0.06399135 -0.06375416 -0.06349339 -0.06321037
 -0.06293509 -0.06266858 -0.06242731 -0.06221104 -0.0620265 -0.06187233 -0.0617479 -0.06164933 -0.06156622 -0.06149486
 -0.06142254 -0.06135054 -0.06127564 -0.06119905 -0.06112388 -0.06104067 -0.06094548 -0.06082802 -0.06067924 -0.06050984
 -0.06031948 -0.06012606 -0.05993376 -0.05974796 -0.05957044 -0.05939568 -0.05922348 -0.05904663 -0.05886522 -0.05868203
 -0.05849867 -0.0583296 -0.05817426 -0.05804113 -0.05792159 -0.0577979 -0.05765966 -0.05747386 -0.05724977 -0.05698244
 -0.05669258 -0.05639857 -0.05610972 -0.05583742 -0.05558343 -0.05535172 -0.05513914 -0.0549473 -0.05476405 -0.05458802
 -0.05440585 -0.05421538 -0.05401332 -0.05379917 -0.05357608 -0.05334413 -0.05310468 -0.05285745 -0.05260044 -0.0523343
 -0.05205957 -0.05177974 -0.05150405 -0.05123693 -0.05099285 -0.05076928 -0.05057221 -0.05038789 -0.0502057 -0.05001621
 -0.04980627 -0.049587 -0.04935919 -0.04913644 -0.04892658 -0.04871858 -0.04851343 -0.04828757 -0.04803643 -0.04776404
 -0.04746958 -0.04718516 -0.04691181 -0.04666677 -0.04644762 -0.04624338 -0.04605085 -0.0458492 -0.04563969 -0.04541322
 -0.04517696 -0.04494014 -0.04470889 -0.04449754 -0.04430211 -0.04412732 -0.04395736 -0.04378473 -0.04359423 -0.04337431
 -0.04313021 -0.04285843 -0.04257958 -0.04229743 -0.0420241 -0.04176252 -0.04150828 -0.04126146 -0.04101108 -0.04075683
 -0.04049475 -0.04022565 -0.03995456 -0.03968164 -0.03941052 -0.03914011 -0.03886782 -0.03859597 -0.03832639 -0.03806493
 -0.03782147 -0.03759602 -0.03739487 -0.03720758 -0.03702991 -0.03685173 -0.03666605 -0.03647354 -0.03627163 -0.03606956
 -0.03586886 -0.03567568 -0.03549198 -0.03531052 -0.03513128 -0.03493729 -0.03472799 -0.03449444 -0.03423861 -0.03397264
 -0.03369947 -0.03344031 -0.03319304 -0.03296425 -0.03274665 -0.03252849 -0.03230618 -0.03206727 -0.03181873 -0.03156075
 -0.03130613 -0.03106364 -0.03083999 -0.03064225 -0.03046473 -0.03030876 -0.03016086 -0.03001934 -0.02986998 -0.02971105
 -0.0295306 -0.02932744 -0.02909778 -0.02884196 -0.02857213 -0.02829041 -0.02802005 -0.02776203 -0.02753424 -0.02733396
 -0.02716382 -0.0270181 -0.02688757 -0.02676605 -0.02664112 -0.02650969 -0.02636375 -0.02620477 -0.02603105 -0.02584588
 -0.02565018 -0.02544686 -0.02523586 -0.02502437 -0.02481268 -0.02461358 -0.0244291 -0.02426481 -0.02412191 -0.02398656
 -0.0238577 -0.02370977 -0.02354268 -0.02334293 -0.02311512 -0.02287219 -0.02262086 -0.0223888 -0.02217668 -0.02200163
 -0.02185432 -0.02172992 -0.02161748 -0.021503 -0.02138552 -0.02125897 -0.02112959 -0.02099941 -0.02087079 -0.02074533
 -0.02062159 -0.02049912 -0.02037935 -0.02026244 -0.02014941 -0.02004058 -0.01993075 -0.0198196 -0.0197001 -0.01957223
 -0.01943342 -0.01928375 -0.01912231 -0.0189489 -0.01876212 -0.01856264 -0.01835024 -0.01812791 -0.01789843 -0.01766796
 -0.01744151 -0.01722954 -0.01703987 -0.01688131 -0.0167619 -0.01667742 -0.01663131 -0.01660351 -0.01659175 -0.01657314
 -0.01654408 -0.01649294 -0.0164182 -0.01632147 -0.01620298 -0.01607137 -0.01592713 -0.01577803 -0.01562427 -0.01547062
 -0.01531788 -0.01517041 -0.01503014 -0.0149032 -0.01479043 -0.01469716 -0.01461868 -0.01455445 -0.01449334 -0.01442802
 -0.01434974 -0.01425058 -0.01413472 -0.01400005 -0.01386035 -0.01371853 -0.0135817 -0.01345161 -0.01332723 -0.01320824
 -0.01310146 -0.01300743 -0.01294272 -0.01290686 -0.01290361 -0.01292873 -0.0129636 -0.01300475 -0.01303082 -0.01304332
 -0.01303523 -0.01300891 -0.01296552 -0.0129049 -0.01282691 -0.01273267 -0.01262239 -0.01249876 -0.01236339 -0.01221663
 -0.01205803 -0.01189158 -0.01171533 -0.01154933 -0.0113945 -0.01128016 -0.01120917 -0.01119318 -0.01123211 -0.01130224
 -0.01140021 -0.01148339 -0.01155179 -0.01158107 -0.01157779 -0.01154989 -0.0115021 -0.01145036 -0.01139038 -0.01132193
 -0.0112427 -0.01114576 -0.01104435 -0.01094401 -0.01086012 -0.01080565 -0.01077204 -0.01076312 -0.01075074 -0.01072852
 -0.01068254 -0.01060753 -0.01051995 -0.01041999 -0.01033634 -0.01027034 -0.01023958 -0.01024321 -0.01028068 -0.0103485
 -0.01043041 -0.0105209 -0.01059446 -0.0106473 -0.01065707 -0.01062835 -0.01055467 -0.01045196 -0.01033158 -0.01021336
 -0.01011577 -0.01004641 -0.01001739 -0.01001486 -0.01003962 -0.0100663 -0.01008985 -0.0100911 -0.01006633 -0.01000815
 -0.009915527 -0.009786741 -0.009621785 -0.00942396 -0.009195139 -0.008953425 -0.008704151 -0.008483658 -0.008296545 -0.008179717
 -0.008126883 -0.008148096 -0.008221208 -0.008320501 -0.008421217 -0.008484703 -0.008508586 -0.008472223 -0.008404686 -0.008311073
 -0.008229596 -0.008175367 -0.008165739 -0.008210428 -0.008296729 -0.008426274 -0.008568191 -0.008720343 -0.008854299 -0.008968747
 -0.009053576 -0.00911017 -0.009148994 -0.009172429 -0.009199036 -0.00922815 -0.00926841 -0.009315532 -0.009363456 -0.009411315
 -0.009451391 -0.009495108 -0.0095485 -0.00963023 -0.009757671 -0.009934996 -0.01017449 -0.01045236 -0.01076682 -0.01108228
 -0.01138996 -0.01167002 -0.01191704 -0.01213292 -0.01231686 -0.0124805 -0.01262448 -0.01276179 -0.01289286 -0.01302784
 -0.0131651 -0.013302 -0.01343523 -0.01355067 -0.01365082 -0.01373062 -0.01380281 -0.0138838 -0.01398525 -0.01412953
 -0.01431014 -0.01453476 -0.01477677 -0.01502791 -0.01525721 -0.01545144 -0.01559647 -0.01568295 -0.01572764 -0.01572821
 -0.01572972 -0.01573531 -0.01578841 -0.01589107 -0.01604882 -0.01625838 -0.01648481 -0.01672439 -0.01693737 -0.01712655
 -0.01727915 -0.01740228 -0.01750598 -0.01759405 -0.01767741 -0.01775536 -0.01783081 -0.01790353 -0.0179731 -0.01804321
 -0.01811485 -0.01819363 -0.01828193 -0.01838215 -0.01849603 -0.01862 -0.01875428 -0.01889131 -0.01903041 -0.01916666
 -0.01929982 -0.01943052 -0.0195589 -0.0196871 -0.01981487 -0.01994169 -0.02006754 -0.0201917 -0.0203151 -0.02043972
 -0.02056565 -0.02069469 -0.02082442 -0.0209526 -0.02107831 -0.02119882 -0.02131872 -0.02143929 -0.02156542 -0.02170034
 -0.02184113 -0.02198849 -0.02213466 -0.02227825 -0.02241669 -0.02254926 -0.02268067 -0.02281115 -0.02294552 -0.02308382
 -0.02322771 -0.02337702 -0.02353185 -0.02369174 -0.02385571 -0.02402217 -0.02418762 -0.02434948 -0.02450207 -0.02464423
 -0.02477192 -0.02488683 -0.02498913 -0.02507981 -0.02516088 -0.02522713 -0.02527717 -0.02530668 -0.02531124 -0.02530651
 -0.0252912 -0.02530353 -0.02534679 -0.02545121 -0.02561839 -0.02583844 -0.02610777 -0.02638005 -0.02665109 -0.02687168
 -0.02704431 -0.02714763 -0.02719476 -0.02720167 -0.02718781 -0.0271921 -0.02722362 -0.02731353 -0.02744363 -0.0276155
 -0.02779364 -0.02795772 -0.02809294 -0.02818373 -0.02825245 -0.02830072 -0.02835365 -0.02841872 -0.02848397 -0.02855054
 -0.0285817 -0.02857556 -0.02851977 -0.0284174 -0.02830321 -0.02818304 -0.02811012 -0.0280837 -0.02813274 -0.02824552
 -0.02841177 -0.02861469 -0.02882213 -0.02902539 -0.02919951 -0.0293512 -0.02947651 -0.02958716 -0.0296906 -0.02978617
 -0.02987674 -0.02995313 -0.03001165 -0.03005693 -0.03008751 -0.03012209 -0.03016296 -0.03021394 -0.03027533 -0.03032586
 -0.03036478 -0.03037556 -0.03036168 -0.03033524 -0.03030031 -0.03027943 -0.03027014 -0.0302786 -0.03029905 -0.03032353
 -0.03035168 -0.03037809 -0.03040973 -0.03044904 -0.03050556 -0.03058496 -0.03069339 -0.03083694 -0.03100696 -0.03120663
 -0.03140464 -0.03159828 -0.03174999 -0.03185455 -0.03190506 -0.03190079 -0.03188048 -0.03184724 -0.03185372 -0.03189867
 -0.03200385 -0.03216046 -0.03234992 -0.03256207 -0.03276316 -0.03294896 -0.03309602 -0.03320846 -0.03327949 -0.03332197
 -0.03334133 -0.03335566 -0.0333769 -0.03341349 -0.03347505 -0.03354697 -0.0336296 -0.03369746 -0.03374479 -0.0337673
 -0.03376204 -0.03375682 -0.03375305 -0.03377971 -0.03383617 -0.03391961 -0.03402647 -0.03413184 -0.03423689 -0.03433125
 -0.03442149 -0.03452062 -0.03462772 -0.03475095 -0.03487685 -0.03499234 -0.03508925 -0.03515206 -0.03519353 -0.03521528
 -0.0352331 -0.03525756 -0.03527898 -0.03529982 -0.03529355 -0.03525447 -0.03517698 -0.03505762 -0.03492693 -0.03478637
 -0.03467988 -0.03460864 -0.03459876 -0.03464685 -0.03474727 -0.03489225 -0.03505135 -0.03521693 -0.03535425 -0.03546254
 -0.03552305 -0.03554332 -0.03552411 -0.03547475 -0.03540333 -0.03531485 -0.03521417 -0.0351034 -0.03498363 -0.03485886
 -0.03472973 -0.03460195 -0.03447706 -0.03435535 -0.03423807 -0.03411087 -0.03397309 -0.03379792 -0.03358437 -0.03331203
 -0.03298375 -0.03260547 -0.03218425 -0.03174958 -0.03130627 -0.03088275 -0.03047575 -0.03009424 -0.02972872 -0.0293715
 -0.02901492 -0.02864893 -0.02827381 -0.02788609 -0.02749111 -0.02709093 -0.0266861 -0.02627838 -0.0258603 -0.02543038
 -0.02498624 -0.02452603 -0.02406745 -0.02361128 -0.02318955 -0.0228036 -0.02247837 -0.02221288 -0.0220139 -0.02187863
 -0.02180232 -0.02177856 -0.02179314 -0.02183143 -0.02186489 -0.02187544 -0.02182827 -0.02171953 -0.02152974 -0.02127679
 -0.02096414 -0.02061199 -0.02023176 -0.01982336 -0.01939092 -0.01892018 -0.01840871 -0.01785027 -0.01724301 -0.01659554
 -0.01590816 -0.0151948 -0.01445621 -0.01370581 -0.0129443 -0.01218334 -0.01142236 -0.01066588 -0.009911928 -0.009155897
 -0.008400867 -0.007642895 -0.00690519 -0.006200324 -0.005588927 -0.005109514 -0.004857338 -0.004892532 -0.005291647 -0.006113393
 -0.007331163 -0.008973331 -0.01087565 -0.01302926 -0.01520211 -0.01737029 -0.01935534 -0.02114384 -0.02268163 -0.02397141
 -0.02505884 -0.02595148 -0.02672139 -0.02737147 -0.02795012 -0.02845788 -0.02891819 -0.02933585 -0.02972837 -0.03010309
 -0.03047749 -0.03085066 -0.03123112 -0.0316045 -0.03196633 -0.03230003 -0.03259636 -0.03285262 -0.03306427 -0.03324318
 -0.03339041 -0.0335181 -0.03362851 -0.03371987 -0.03379243 -0.03382998 -0.0338319 -0.03378525 -0.03369279 -0.03356539
 -0.03340996 -0.03326002 -0.03311955 -0.03301873 -0.03295083 -0.03292096 -0.03291284 -0.0329107 -0.03289551 -0.0328472
 -0.03274971 -0.03258824 -0.0323545 -0.03204107 -0.03164835 -0.03117533 -0.03062229 -0.02998954 -0.02927241 -0.02846765
 -0.02760005 -0.02666895 -0.02579164 -0.0249797 -0.02444763 -0.0242062 -0.02444841 -0.02514882 -0.02632791 -0.02791281
 -0.02973402 -0.03171219 -0.0336232 -0.03543573 -0.03701127 -0.03837817 -0.03950871 -0.04045608 -0.04124366 -0.04191222
 -0.04248362 -0.04298038 -0.04341185 -0.04379333 -0.04412852 -0.04442861 -0.04469522 -0.044935 -0.04514841 -0.04534156
 -0.04551492 -0.04567705 -0.04582827 -0.04597546 -0.04611782 -0.04625607 -0.04638853 -0.04651097 -0.04662252 -0.04671897
 -0.04680208 -0.04687132 -0.04693158 -0.04698613 -0.04704111 -0.04710157 -0.04716962 -0.0472491 -0.04733266 -0.04742064
 -0.04749828 -0.04756281 -0.04760484 -0.04762185 -0.04762164 -0.04760429 -0.04758912 -0.0475768 -0.04757962 -0.04759628
 -0.04762291 -0.04765819 -0.04769377 -0.04773137 -0.04777116 -0.04781588 -0.04787196 -0.04793763 -0.04801469 -0.0480966
 -0.04817849 -0.04825464 -0.04831975 -0.04837244 -0.04841047 -0.04843562 -0.04844717 -0.04845078 -0.04844631 -0.0484453
 -0.04844888 -0.04846752 -0.04850225 -0.04855197 -0.04861619 -0.04868348 -0.04875312 -0.0488145 -0.0488678 -0.04890825
 -0.04893604 -0.04894855 -0.04894753 -0.0489335 -0.04891211 -0.04889028 -0.04887377 -0.04887183 -0.04888194 -0.04890747
 -0.04893679 -0.04896588 -0.04898593 -0.04899184 -0.04898827 -0.04897401 -0.04896276 -0.04895622 -0.04896164 -0.04897994
 -0.04900445 -0.0490347 -0.04905999 -0.04908078 -0.04909557 -0.04910604 -0.04911904 -0.04913478 -0.049158 -0.04918629
 -0.04921768 -0.049249 -0.04927503 -0.04929456 -0.04930377 -0.04930553 -0.04929946 -0.04929212 -0.04928593 -0.04928667
 -0.04929721 -0.04931691 -0.04934668 -0.04938124 -0.0494201 -0.04945913 -0.04949795 -0.04953653 -0.04957493 -0.04961525
 -0.04965745 -0.04970261 -0.04974995 -0.04979705 -0.04984259 -0.04988138 -0.04991325 -0.04993481 -0.04994819 -0.04995457
 -0.04995651 -0.0499566 -0.04995693 -0.04995947 -0.04996551 -0.0499764 -0.04999128 -0.0500111 -0.05003013 -0.05004787
 -0.05005689 -0.0500558 -0.05004433 -0.05002206 -0.04999839 -0.04997385 -0.04995954 -0.04995508 -0.04996292 -0.04998099
 -0.05000128 -0.0500224 -0.05003516 -0.050042 -0.05004254 -0.05004135 -0.05004543 -0.05005497 -0.05007408 -0.05009721
 -0.05012175 -0.05014447 -0.05016173 -0.05017868 -0.05019561 -0.05021961 -0.05025308 -0.05029421 -0.05034397 -0.05039074
 -0.05043381 -0.05046219 -0.05047565 -0.05047385 -0.0504581 -0.05043894 -0.05041758 -0.05040554 -0.05040183 -0.05040983
 -0.05042724 -0.05045085 -0.0504797 -0.05051086 -0.05054475 -0.05058107 -0.05061929 -0.05065954 -0.05069948 -0.0507383
 -0.05077359 -0.05080457 -0.05082943 -0.05084765 -0.05085824 -0.05086074 -0.05085735 -0.0508481 -0.05083833 -0.05082824
 -0.05082146 -0.05081762 -0.05081503 -0.05081362 -0.05081154 -0.0508104 -0.05081396 -0.05082333 -0.0508438 -0.05087207
 -0.05090654 -0.050942 -0.05097165 -0.05099634 -0.05101318 -0.05102907 -0.05104751 -0.05106911 -0.05109686 -0.05111954
 -0.05113547 -0.05113547 -0.0511168 -0.05108751 -0.05104754 -0.05101588 -0.05099326 -0.05098988 -0.05100442 -0.05102995
 -0.05106433 -0.05109342 -0.05111759 -0.05112979 -0.05113341 -0.05113177 -0.05112803 -0.05112884 -0.05113316 -0.05114328
 -0.05115455 -0.05116447 -0.05116995 -0.05116812 -0.05116115 -0.05114874 -0.05113498 -0.05112073 -0.05110816 -0.05109768
 -0.05109011 -0.05108556 -0.05108477 -0.05108773 -0.05109345 -0.05110173 -0.05110995 -0.05111864 -0.0511288 -0.05114144
 -0.05116092 -0.05118576 -0.05121619 -0.05124744 -0.05127238 -0.05128908 -0.05129126 -0.0512845 -0.05126984 -0.05125476
 -0.05124393 -0.0512379 -0.05123869 -0.05124107 -0.05124404 -0.05124519 -0.05124369 -0.05124218 -0.05124079 -0.05124221
 -0.05124649 -0.05125232 -0.05125923 -0.05126252 -0.05126204 -0.0512541 -0.05124008 -0.05122155 -0.05120126 -0.05118581
 -0.05117648 -0.05117885 -0.05119021 -0.05121078 -0.05123507 -0.05125934 -0.05128026 -0.05129486 -0.05130371 -0.05130618
 -0.05130423 -0.05129825 -0.05128911 -0.05127688 -0.05126303 -0.05124761 -0.05123364 -0.05122126 -0.051212 -0.05120558
 -0.05119974 -0.05119437 -0.05118734 -0.05117954 -0.05117262 -0.05116719 -0.05116599 -0.05116762 -0.05117135 -0.0511757
 -0.05117799 -0.05118028 -0.0511827 -0.05118876 -0.05120095 -0.05121824 -0.05124191 -0.05126505 -0.05128631 -0.05130123
 -0.05130831 -0.05131188 -0.05131197 -0.05131667 -0.05132626 -0.05134192 -0.05136285 -0.05138149 -0.05139721 -0.05140239
 -0.05139819 -0.05138406 -0.05136194 -0.05133581 -0.0513065 -0.05127696 -0.05124726 -0.05121805 -0.05119075 -0.0511659
 -0.0511466 -0.05113451 -0.05113129 -0.05113886 -0.05115291 -0.05117372 -0.05119244 -0.0512077 -0.05121513 -0.05121383
 -0.05120989 -0.05120366 -0.05120498 -0.05121354 -0.05123062 -0.05125441 -0.0512765 -0.05129562 -0.05130293 -0.05129928
 -0.05128168 -0.05125281 -0.05121458 -0.05117138 -0.05112762 -0.05108861 -0.05105943 -0.05104297 -0.05104307 -0.05105597
 -0.05108266 -0.05111298 -0.05114533 -0.05116988 -0.05118466 -0.05118715 -0.05117666 -0.05115846 -0.05113282 -0.05110627
 -0.05107886 -0.05105308 -0.05102891 -0.05100739 -0.05098907 -0.05097634 -0.05096952 -0.05097101 -0.05097925 -0.05099374
 -0.0510109 -0.05102716 -0.05103917 -0.05104304 -0.05103848 -0.05102335 -0.0510023 -0.05097589 -0.0509502 -0.05092682
 -0.05090871 -0.05089677 -0.05088995 -0.05088833 -0.05088922 -0.05089244 -0.05089352 -0.05089213 -0.05088273 -0.05086563
 -0.05083887 -0.0508044 -0.05076722 -0.05072949 -0.05069891 -0.05067499 -0.05066115 -0.05065389 -0.05065079 -0.05064915
 -0.0506454 -0.05064123 -0.05063622 -0.05063347 -0.05063489 -0.05063786 -0.05064296 -0.05064261 -0.0506354 -0.0506193
 -0.05059357 -0.05056576 -0.05053624 -0.05051182 -0.05049219 -0.05047602 -0.05046294 -0.05044981 -0.05043793 -0.05042966
 -0.05042692 -0.05043502 -0.0504552 -0.05049135 -0.05054468 -0.05061772 -0.0507116 -0.05082838 -0.05096686 -0.05112731
 -0.05130716 -0.0515052 -0.05172154 -0.05195536 -0.05221134 -0.05249055 -0.05279271 -0.05311894 -0.05345131 -0.05378865
 -0.05409088 -0.05435548 -0.05454054 -0.05464707 -0.05465765 -0.05457679 -0.05440925 -0.05416068 -0.05383958 -0.05346572
 -0.05306778 -0.05267548 -0.05233507 -0.05205224 -0.05184981 -0.05171068 -0.05163281 -0.05159826 -0.05159994 -0.051629
 -0.0516823 -0.05175551 -0.05184922 -0.05194761 -0.05205051 -0.05212519 -0.05217 -0.05216768 -0.0521208 -0.05205377
 -0.0519712 -0.05191449 -0.05187873 -0.05187284 -0.05188165 -0.05187311 -0.05184232 -0.05176268 -0.05164892 -0.05150634
 -0.0513501 -0.05119509 -0.05104387 -0.05090149 -0.05076753 -0.05064198 -0.05052811 -0.05042684 -0.05033954 -0.05026719
 -0.050205 -0.05015291 -0.05010246 -0.05005317 -0.04999575 -0.04993024 -0.04985385 -0.04976819 -0.04968059 -0.04959259
 -0.04951403 -0.04944365 -0.04938397 -0.04933188 -0.04928307 -0.04923682 -0.04918987 -0.04914492 -0.04910311 -0.04906615
 -0.04903615 -0.04901025 -0.0489883 -0.04896602 -0.04894165 -0.04891666 -0.04889053 -0.04886946 -0.04885428 -0.04884487
 -0.04884124 -0.04883255 -0.04881836 -0.0487891 -0.0487465 -0.04869519 -0.04863786 -0.04858726 -0.04854232 -0.04850778
 -0.04847921 -0.0484508 -0.04842169 -0.04838709 -0.04835245 -0.0483202 -0.0482953 -0.0482825 -0.04827852 -0.04828465
 -0.04829095 -0.04829546 -0.04829023 -0.04827308 -0.04824487 -0.04820497 -0.04816275 -0.04811871 -0.04808418 -0.04805922
 -0.04804803 -0.04804901 -0.04805543 -0.048065 -0.0480657 -0.04805768 -0.04803438 -0.04799928 -0.04795479 -0.04790461
 -0.04785408 -0.04780462 -0.04775921 -0.0477175 -0.04768032 -0.04764616 -0.0476149 -0.0475843 -0.04755351 -0.04752275
 -0.04749143 -0.04746409 -0.04744107 -0.04742642 -0.04742039 -0.04742112 -0.04742828 -0.04743648 -0.04744571 -0.04745312
 -0.04745916 -0.04746411 -0.04746789 -0.04747069 -0.04747163 -0.04746965 -0.04746332 -0.04745075 -0.04743066 -0.04740116
 -0.04736263 -0.04731396 -0.04725882 -0.0471974 -0.04713651 -0.04707744 -0.04702711 -0.04698712 -0.04695963 -0.04694546
 -0.04693911 -0.04694031 -0.04693961 -0.04693682 -0.04692693 -0.04691086 -0.04689159 -0.04687027 -0.04685285 -0.0468392
 -0.0468326 -0.04683085 -0.04683231 -0.04683366 -0.04683041 -0.04682068 -0.04680061 -0.04677272 -0.0467365 -0.04669764
 -0.04665806 -0.04662183 -0.04659062 -0.0465649 -0.04654518 -0.04652973 -0.04651854 -0.04650853 -0.04649952 -0.04648849
 -0.04647546 -0.04646012 -0.04644286 -0.04642636 -0.04641034 -0.04639544 -0.04638057 -0.0463628 -0.04634278 -0.0463193
 -0.04629599 -0.04627673 -0.04626375 -0.04626173 -0.04626613 -0.04627694 -0.04628556 -0.04628804 -0.04628197 -0.04626479
 -0.04624302 -0.04621721 -0.04619372 -0.04617366 -0.04615523 -0.04613838 -0.04611805 -0.04609426 -0.04606655 -0.04603553
 -0.04600508 -0.04597537 -0.04594925 -0.04592614 -0.04590616 -0.04588842 -0.04587149 -0.04585474 -0.04583654 -0.04581756
 -0.04579753 -0.04577801 -0.04576022 -0.04574358 -0.04572872 -0.04571236 -0.04569349 -0.04567126 -0.04564475 -0.04561862
 -0.04559317 -0.04557356 -0.04556016 -0.04555239 -0.04555003 -0.04554896 -0.0455492 -0.04554883 -0.04554823 -0.04554831
 -0.04554855 -0.04554866 -0.0455467 -0.04553913 -0.04552491 -0.04550051 -0.04546838 -0.04542845 -0.04538602 -0.04534357
 -0.04530634 -0.04527685 -0.04525827 -0.04525234 -0.04525826 -0.0452771 -0.04530071 -0.04532883 -0.04534879 -0.04535978
 -0.04535462 -0.04533361 -0.04530086 -0.04525751 -0.0452132 -0.04516825 -0.04512914 -0.04509498 -0.045067 -0.04504405
 -0.04502464 -0.04500806 -0.04499257 -0.04497876 -0.04496632 -0.04495648 -0.04495019 -0.044947 -0.0449474 -0.04494894
 -0.04495107 -0.04495199 -0.04495125 -0.04494821 -0.04494276 -0.04493462 -0.04492373 -0.04491118 -0.04489712 -0.04488478
 -0.04487402 -0.04486612 -0.04485964 -0.0448498 -0.04483521 -0.04480895 -0.04477301 -0.04472642 -0.04467485 -0.0446246
 -0.04458029 -0.04454894 -0.04452938 -0.04452424 -0.04452644 -0.04453448 -0.04454 -0.04454033 -0.0445311 -0.04451058
 -0.0444809 -0.04444167 -0.04440044 -0.04435764 -0.04432125 -0.04429144 -0.04427138 -0.0442605 -0.04425662 -0.04425879
 -0.04426242 -0.04426631 -0.0442652 -0.04425816 -0.04424033 -0.04421373 -0.0441776 -0.04413787 -0.04409884 -0.04406636
 -0.04404593 -0.04403735 -0.04404306 -0.04405634 -0.04407645 -0.04409495 -0.04411008 -0.04411751 -0.04411618 -0.04410868
 -0.04409505 -0.04408095 -0.04406646 -0.04405273 -0.04403919 -0.04402195 -0.04400121 -0.04397521 -0.04394563 -0.04391615
 -0.0438877 -0.04386429 -0.04384424 -0.04382747 -0.04381123 -0.04379303 -0.04377144 -0.04374457 -0.04371326 -0.0436769
 -0.04363872 -0.04359918 -0.04356239 -0.04352932 -0.04350145 -0.04347934 -0.04346 -0.0434433 -0.04342567 -0.04340718
 -0.04338882 -0.0433711 -0.04335851 -0.0433505 -0.04334809 -0.04334875 -0.04334643 -0.04333893 -0.04331835 -0.043287
 -0.04324312 -0.04319366 -0.04314368 -0.04309948 -0.04306738 -0.04304641 -0.04303943 -0.04303673 -0.04303676 -0.04302918
 -0.04301089 -0.04298267 -0.04294343 -0.04290488 -0.04286779 -0.04283988 -0.04282089 -0.04280446 -0.04278966 -0.04276599
 -0.04273494 -0.04269658 -0.04265397 -0.04261591 -0.04258286 -0.04256063 -0.04254613 -0.04253829 -0.04253281 -0.04252573
 -0.04251365 -0.04249287 -0.04246374 -0.0424245 -0.04238064 -0.04233303 -0.04228751 -0.04224571 -0.04220822 -0.04217558
 -0.04214419 -0.04211385 -0.04208179 -0.04204801 -0.04201311 -0.04197749 -0.04194457 -0.0419148 -0.04189229 -0.04187637
 -0.0418679 -0.04186464 -0.04186306 -0.04186096 -0.04185383 -0.04184114 -0.04182066 -0.04179316 -0.04175807 -0.04171769
 -0.04167219 -0.04162606 -0.04158023 -0.04153968 -0.0415059 -0.04147911 -0.04146004 -0.04144237 -0.04142578 -0.04140339
 -0.04137518 -0.04134182 -0.04130403 -0.04126792 -0.04123322 -0.04120241 -0.04117401 -0.04114465 -0.04111451 -0.04108166
 -0.04104846 -0.04101785 -0.04098972 -0.0409661 -0.04094283 -0.04091764 -0.04088849 -0.04085321 -0.0408143 -0.04077232
 -0.04072807 -0.04068232 -0.04063152 -0.04057508 -0.04051305 -0.04044519 -0.04037935 -0.04031603 -0.04026553 -0.04022782
 -0.04020787 -0.04020419 -0.04021374 -0.04023348 -0.04025405 -0.04027193 -0.04027554 -0.04026461 -0.04023248 -0.04018495
 -0.04012394 -0.04005749 -0.03999103 -0.03993011 -0.03987903 -0.03983764 -0.03980774 -0.03978294 -0.03976259 -0.03973986
 -0.03971346 -0.03968354 -0.03964987 -0.03961758 -0.03958682 -0.03956036 -0.03953766 -0.03951612 -0.03949476 -0.0394677
 -0.03943476 -0.03939191 -0.03934063 -0.03928176 -0.03921704 -0.03914919 -0.03907914 -0.03900789 -0.03893826 -0.03887168
 -0.03881236 -0.03876328 -0.03872347 -0.03869479 -0.03866769 -0.03864092 -0.03860535 -0.03855906 -0.03850346 -0.03843834
 -0.03837169 -0.03830384 -0.03824001 -0.03818003 -0.03812487 -0.03807414 -0.03802678 -0.03798235 -0.03793911 -0.03789666
 -0.03785369 -0.0378092 -0.03776144 -0.03770937 -0.03765048 -0.03758726 -0.03751952 -0.0374531 -0.03739091 -0.03733505
 -0.03728766 -0.03724442 -0.03720496 -0.03716488 -0.03712349 -0.03707938 -0.0370325 -0.03697947 -0.03692006 -0.03684876
 -0.03676594 -0.03667151 -0.03656738 -0.03646195 -0.03635676 -0.03626126 -0.03617407 -0.0360976 -0.0360284 -0.0359633
 -0.03589818 -0.03582805 -0.03575042 -0.035661 -0.03556324 -0.03545624 -0.03534892 -0.03524362 -0.03514749 -0.03506338
 -0.03498865 -0.03492466 -0.03485468 -0.03477773 -0.03467672 -0.03455158 -0.03441127 -0.03425811 -0.03411709 -0.03398725
 -0.03387874 -0.03378612 -0.03369941 -0.03361294 -0.03350985 -0.03338972 -0.03324311 -0.03307699 -0.03289365 -0.03270222
 -0.03251032 -0.03232017 -0.03213683 -0.03195088 -0.03176109 -0.03155664 -0.03133349 -0.0310959 -0.03084331 -0.03058648
 -0.03032651 -0.03006226 -0.02979367 -0.02951691 -0.02923305 -0.02895016 -0.02866944 -0.02840212 -0.02814552 -0.0278978
 -0.0276553 -0.02740749 -0.02715855 -0.02690839 -0.02666589 -0.02644172 -0.02623495 -0.02605051 -0.02587743 -0.02571257
 -0.0255452 -0.02537103 -0.02518559 -0.02498783 -0.02477257 -0.02454022 -0.02427462 -0.0239743 -0.02363189 -0.02324805
 -0.02285496 -0.0224541 -0.02207456 -0.02171098 -0.02135262 -0.02099494 -0.02061751 -0.0202222 -0.01980346 -0.01936341
 -0.01890658 -0.01842315 -0.01791117 -0.01734346 -0.01670215 -0.01596554 -0.01510732 -0.01416574 -0.01313559 -0.01210808
 -0.01110304 -0.01017095 -0.009325176 -0.008551615 -0.007851465 -0.007183025 -0.006543706 -0.005878575 -0.005183999 -0.004397775
 -0.003528323 -0.002573091 -0.001563155 -0.0005999099 0.0003138585 0.001113298 0.001835542 0.00250756 0.003156933 0.003823767
 0.004513174 0.005241529 0.006003397 0.006801642 0.007624671 0.008473914 0.009318466 0.01015289 0.01095007 0.01170293
 0.01242295 0.01311035 0.01378116 0.01443532 0.01504858 0.01561895 0.01611523 0.01654189 0.01690479 0.01720905
 0.01747623 0.01770171 0.01788504 0.01802371 0.0181077 0.01815417 0.01817627 0.01818836 0.01820713 0.01822997
 0.01826121 0.01829036 0.01831479 0.01832759 0.01832656 0.01830984 0.01827718 0.01822525 0.01815393 0.01805688
 0.01793396 0.01778741 0.01761846 0.01744066 0.01725415 0.01706718 0.01687771 0.0166835 0.01648316 0.01627162
 0.01605122 0.01582255 0.01558961 0.01535654 0.01512631 0.0149002 0.01468677 0.01448751 0.01431988 0.01419013
 0.01410834 0.01407974 0.0140964 0.01415819 0.01425575 0.01438813 0.01455285 0.01474979 0.01497851 0.01523917
 0.01553284 0.01585986 0.01622322 0.01662185 0.01705452 0.01751888 0.01800871 0.01852416 0.0190614 0.0196252
 0.02021796 0.0208469 0.02151757 0.02223548 0.02300502 0.02382739 0.02470385 0.02563471 0.02662054 0.02766032
 0.02875602 0.02988915 0.0310599 0.03222453 0.03338048 0.03447413 0.03550122 0.03640116 0.03716749 0.03773052
 0.03809538 0.03823416 0.0381728 0.03795105 0.03759551 0.03715968 0.03666762 0.03615992 0.03566088 0.03520309
 0.03478741 0.0344297 0.03409585 0.0337833 0.03343911 0.03304714 0.03259545 0.03207161 0.03155439 0.03105042
 0.03060008 0.03020468 0.02982574 0.02946246 0.0290925 0.02872061 0.02836059 0.02801642 0.02771241 0.02743987
 0.02720516 0.02696436 0.02667031 0.02624265 0.02556173 0.02463442 0.02340042 0.02198162 0.02043238 0.01880312
 0.01712266 0.0154087 0.01365793 0.01195155 0.0102983 0.00877876 0.007403838 0.006167142 0.005068135 0.004049651
 0.003110333 0.002216385 0.001370733 0.0005730516 -0.000176868 -0.0008787206 -0.001537268 -0.002162932 -0.002759273 -0.003335856
 -0.00389528 -0.004441943 -0.004982849 -0.005520019 -0.006073303 -0.006651416 -0.007274961 -0.007965703 -0.008674123 -0.009403293
 -0.01004674 -0.01058152 -0.01100486 -0.01131097 -0.01156956 -0.01178393 -0.01200082 -0.0122196 -0.01244877 -0.01268482
 -0.01291346 -0.01313257 -0.01332888 -0.01349984 -0.0136352 -0.01372875 -0.01376579 -0.01374452 -0.01365497 -0.01350546
 -0.01329832 -0.01304276 -0.012744 -0.01240782 -0.01203787 -0.01163488 -0.01120332 -0.01072145 -0.01019043 -0.009559465
 -0.008822503 -0.007965398 -0.006988142 -0.006003636 -0.005020374 -0.004178616 -0.003470171 -0.002921584 -0.002518655 -0.00222695
 -0.002040709 -0.001932909 -0.001896626 -0.001913959 -0.00196814 -0.002039965 -0.002100923 -0.00212435 -0.002091032 -0.001974487
 -0.00180568 -0.001586301 -0.001358898 -0.001137887 -0.0009253605 -0.0007251368 -0.000520803 -0.000310847 -8.880388E-05 0.0001456545
 0.0003832807 0.0006235585 0.0008566246 0.001084135 0.001309452 0.001536382 0.001780435 0.002042382 0.002334665 0.002648532
 0.002975848 0.003308605 0.003630736 0.003951096 0.004269021 0.004600567 0.004955559 0.005337929 0.005753214 0.006192354
 0.006654291 0.007131231 0.007621881 0.008121901 0.008631641 0.009135442 0.009632405 0.01009122 0.01051045 0.01086372
 0.01115123 0.01136153 0.01149348 0.01153763 0.01149134 0.01134287 0.01109302 0.01073531 0.01027877 0.009728125
 0.009099405 0.00840506 0.007659805 0.006875431 0.00605619 0.005205834 0.004325765 0.003413036 0.002490452 0.001557852
 0.0006595862 -0.0001996779 -0.0009968762 -0.001730581 -0.002414475 -0.003049506 -0.003652475 -0.004221397 -0.004752789 -0.005244439
 -0.005684452 -0.006077223 -0.006424653 -0.006737649 -0.007033446 -0.007323071 -0.007626016 -0.007946551 -0.00829639 -0.008668431
 -0.009064523 -0.009468167 -0.009874759 -0.01026857 -0.01064419 -0.01099665 -0.01132329 -0.01163179 -0.01192233 -0.01220629
 -0.01248434 -0.01275568 -0.01301899 -0.01325627 -0.01346626 -0.01363117 -0.01375371 -0.01383348 -0.0138752 -0.01388987
 -0.01388052 -0.01385722 -0.01382046 -0.01377468 -0.01371917 -0.01365386 -0.01358094 -0.01349987 -0.01341871 -0.0133396
 -0.01327117 -0.01321623 -0.01317818 -0.01315806 -0.01315656 -0.01317385 -0.01321008 -0.01326529 -0.01333583 -0.01342115
 -0.01351284 -0.01361019 -0.01370492 -0.01379616 -0.01387681 -0.0139454 -0.01399478 -0.01402442 -0.01402937 -0.01401247
 -0.01397381 -0.01391987 -0.01385435 -0.01378655 -0.01372189 -0.01366837 -0.01363108 -0.01360999 -0.01360704 -0.01361507
 -0.01363309 -0.01365679 -0.0136854 -0.01372042 -0.01376193 -0.01380832 -0.01385902 -0.01390525 -0.01394668 -0.01397605
 -0.01399523 -0.01400669 -0.0140135 -0.01402446 -0.01404102 -0.01407034 -0.01411045 -0.01416268 -0.01422227 -0.01428663
 -0.01434977 -0.01440815 -0.01445652 -0.01449182 -0.01451272 -0.01451733 -0.01451109 -0.01449403 -0.01447522 -0.01445579
 -0.01443933 -0.01442616 -0.01441162 -0.01439549 -0.01437317 -0.01434513 -0.01431231 -0.01427492 -0.01423483 -0.01419061
 -0.01413965 -0.01408084 -0.01401067 -0.01393007 -0.0138386 -0.01373782 -0.01362905 -0.01351285 -0.0133899 -0.01326032
 -0.01312398 -0.0129823 -0.01283526 -0.01268573 -0.01253383 -0.01238405 -0.01223663 -0.01209799 -0.01196851 -0.01185334
 -0.01175241 -0.01166572 -0.01159256 -0.01152799 -0.01147197 -0.01142131 -0.01137742 -0.01134237 -0.01131684 -0.01130386
 -0.01130097 -0.01130675 -0.01131816 -0.01133167 -0.01134739 -0.0113636 -0.01138412 -0.01140953 -0.01144495 -0.01149165
 -0.01155406 -0.01163365 -0.01172928 -0.01184162 -0.01196086 -0.01208649 -0.01220725 -0.01232307 -0.01243121 -0.0125326
 -0.01263211 -0.01273003 -0.01283023 -0.01293215 -0.01303598 -0.01314188 -0.01325008 -0.01336129 -0.01347728 -0.013596
 -0.01371772 -0.013836 -0.01394736 -0.01404691 -0.0141301 -0.01420255 -0.01426331 -0.0143261 -0.01439369 -0.01447174
 -0.01456225 -0.01465372 -0.01474566 -0.0148213 -0.01488037 -0.01491725 -0.01493325 -0.01493452 -0.01492218 -0.014904
 -0.01487961 -0.01485194 -0.01482013 -0.01478367 -0.01474275 -0.01469729 -0.01464793 -0.01459618 -0.01453901 -0.01447674
 -0.01440085 -0.01430864 -0.0141918 -0.01404716 -0.01387231 -0.01366569 -0.01343124 -0.01316865 -0.01288776 -0.01258906
 -0.01228799 -0.01198525 -0.01169385 -0.01141308 -0.01114466 -0.01088685 -0.01063336 -0.01038383 -0.01013394 -0.009884705
 -0.009636149 -0.009388694 -0.009143152 -0.00889888 -0.008655579 -0.008412767 -0.008169056 -0.007928019 -0.007689123 -0.007462325
 -0.007250089 -0.007060067 -0.006895451 -0.006749773 -0.006623364 -0.006501938 -0.006384548 -0.006264518 -0.006141788 -0.006016214
 -0.005887243 -0.005750532 -0.005605748 -0.005448259 -0.005280248 -0.005105463 -0.004924928 -0.004743663 -0.004557789 -0.004364982
 -0.004160405 -0.003938028 -0.003698525 -0.003438906 -0.003166978 -0.002883626 -0.002601492 -0.002323919 -0.00206071 -0.001815157
 -0.001585409 -0.001372328 -0.001165084 -0.000963085 -0.0007561789 -0.0005438335 -0.000316552 -7.412738E-05 0.0001915429 0.0004768551
 0.0007741352 0.001074308 0.001349431 0.0015936 0.001780067 0.001916024 0.00199618 0.002039315 0.002058011 0.002072211
 0.002098597 0.002143694 0.002217016 0.00230649 0.00241099 0.002517991 0.002623209 0.002732186 0.002844505 0.002972475
 0.003117038 0.003279391 0.003459415 0.003654283 0.003863843 0.004087611 0.004322515 0.004556883 0.004785185 0.004984839
 0.005157081 0.005291427 0.005397244 0.00548302 0.00555385 0.005619567 0.005674315 0.00571903 0.005741982 0.005739063
 0.005699983 0.005619527 0.005499687 0.005337403 0.005154022 0.004950589 0.004754999 0.004569306 0.004407588 0.004270036
 0.00415742 0.004069454 0.004004983 0.003963428 0.003942456 0.003940304 0.003951299 0.003973495 0.004001205 0.004031975
 0.00406085 0.004084994 0.004099521 0.004105269 0.004101064 0.004089358 0.004071945 0.004046028 0.004011164 0.003964904
 0.003905807 0.003839258 0.003766063 0.003686846 0.003601997 0.003499465 0.003379091 0.003238326 0.003079624 0.002921731
 0.002765264 0.002624818 0.002494828 0.002367162 0.002237568 0.002092604 0.001935072 0.001762935 0.001580204 0.001390301
 0.001194419 0.0009937845 0.0007904508 0.0005848582 0.0003812399 0.0001807339 -1.299671E-05 -0.0001985208 -0.0003773011 -0.0005484692
 -0.0007231423 -0.0009018661 -0.001099211 -0.001315413 -0.001552189 -0.001808158 -0.002072274 -0.002345188 -0.002623277 -0.002909532
 -0.003211789 -0.003528966 -0.003863969 -0.004211459 -0.004564715 -0.004922344 -0.00527987 -0.005640114 -0.006004924 -0.006371801
 -0.006741946 -0.007105408 -0.007459522 -0.007797366 -0.008116139 -0.008419314 -0.008706563 -0.008986052 -0.009258493 -0.009524792
 -0.009784678 -0.01003023 -0.01026119 -0.01047168 -0.01066258 -0.01083512 -0.01098925 -0.01112544 -0.01124331 -0.01134088
 -0.01142176 -0.01148929 -0.0115483 -0.01160594 -0.01166 -0.01171172 -0.01175646 -0.01179071 -0.01181893 -0.01184054
 -0.01186547 -0.01189561 -0.01193706 -0.01199066 -0.01206127 -0.01214938 -0.01225715 -0.01238409 -0.01251698 -0.01265342
 -0.01276697 -0.0128577 -0.01291005 -0.01292958 -0.01292326 -0.01289783 -0.01286996 -0.01284267 -0.01282793 -0.01282309
 -0.01283129 -0.0128447 -0.01285976 -0.01286882 -0.01286678 -0.01285306 -0.01282567 -0.0127894 -0.01274474 -0.01269621
 -0.01264448 -0.01259173 -0.01253818 -0.01248402 -0.01242929 -0.01237471 -0.01232098 -0.01227434 -0.01223558 -0.01221283
 -0.01220392 -0.0122074 -0.01221939 -0.01223024 -0.01224105 -0.01224845 -0.01225699 -0.01227152 -0.01228968 -0.01231318
 -0.01233296 -0.01234475 -0.01234505 -0.01233071 -0.01230685 -0.01227395 -0.01223659 -0.01219572 -0.01215103 -0.01210262
 -0.01204773 -0.01198633 -0.01191869 -0.0118456 -0.01177389 -0.01170408 -0.01164358 -0.01158931 -0.01153719 -0.0114817
 -0.01140841 -0.01131793 -0.01120234 -0.01107183 -0.0109323 -0.0107951 -0.01067039 -0.01056116 -0.01047263 -0.0103991
 -0.01034075 -0.01028832 -0.01024023 -0.01018859 -0.01013217 -0.01006668 -0.009991601 -0.009906298 -0.00981082 -0.009707773
 -0.009597398 -0.009483096 -0.009364609 -0.009242182 -0.009116066 -0.008985791 -0.008854873 -0.008729821 -0.008614271 -0.008518247
 -0.008437018 -0.008371719 -0.008310911 -0.008246551 -0.008173713 -0.008086733 -0.007989989 -0.00788371 -0.007771715 -0.00765445
 -0.007536438 -0.007417418 -0.007309678 -0.007214204 -0.007139166 -0.007084481 -0.007038681 -0.007000402 -0.006951129 -0.006892835
 -0.006824494 -0.006750416 -0.00668459 -0.006625969 -0.006581146 -0.006542298 -0.00650119 -0.006451608 -0.006383058 -0.006297026
 -0.0061905 -0.006069142 -0.005934268 -0.005792337 -0.005644928 -0.005499627 -0.005358367 -0.005225363 -0.005102115 -0.004983563
 -0.004869354 -0.004756246 -0.004644498 -0.004548322 -0.004468794 -0.004424366 -0.004410794 -0.004419303 -0.004440882 -0.004441489
 -0.00442035 -0.004355097 -0.004260394 -0.004146118 -0.004029448 -0.003934492 -0.003860326 -0.003818468 -0.003787104 -0.003759808
 -0.003716371 -0.00364595 -0.003552201 -0.003432124 -0.003304025 -0.003170551 -0.003039306 -0.002911534 -0.00278147 -0.002648907
 -0.002510516 -0.002366771 -0.002220714 -0.002073294 -0.001929983 -0.001792752 -0.001671098 -0.001564919 -0.001480909 -0.001411961
 -0.001351014 -0.001291295 -0.001220737 -0.00114437 -0.001061158 -0.000979287 -0.0009042962 -0.000833599 -0.0007674758 -0.0007029753
 -0.0006380158 -0.0005805267 -0.0005314982 -0.0004956947 -0.0004741666 -0.0004572733 -0.0004444587 -0.000422462 -0.0003909939 -0.0003418883
 -0.0002759844 -0.0001918049 -9.282941E-05 1.112333E-05 0.0001168426 0.0002102814 0.0002968571 0.0003773918 0.0004604135 0.0005580601
 0.0006656821 0.0007859491 0.0009060075 0.001018662 0.001122182 0.001213507 0.001298192 0.001377825 0.001450858 0.001517242
 0.0015753 0.001624386 0.001673777 0.001724002 0.001787499 0.001864359 0.001960188 0.002074283 0.002206171 0.002355067
 0.002517969 0.002695215 0.002886729 0.003091341 0.00331048 0.003533787 0.003752538 0.003954792 0.004124842 0.004272427
 0.004395332 0.004515252 0.004643849 0.004771659 0.004902991 0.004999706 0.005054867 0.005060492 0.005013274 0.004951181
 0.004876131 0.004826137 0.004801396 0.004817132 0.004872221 0.004970752 0.005108781 0.005278836 0.005471209 0.005662562
 0.005843217 0.005987264 0.006094096 0.006150629 0.006168527 0.006148912 0.006112583 0.006068992 0.006035644 0.006021452
 0.006030579 0.006066351 0.006124269 0.006205364 0.006295633 0.00639518 0.006470386 0.006519601 0.006516457 0.006464493
 0.006391197 0.006304105 0.006260862 0.006257818 0.006315194 0.00642138 0.006558858 0.006724231 0.006905938 0.007100575
 0.007303077 0.007503139 0.00768925 0.007864014 0.0080233 0.008181359 0.008347359 0.008506048 0.008657642 0.008775408
 0.008851426 0.008905399 0.008937784 0.008975389 0.009019447 0.009075709 0.009144411 0.009231066 0.009335011 0.00945957
 0.009596457 0.009720173 0.009823584 0.009873372 0.009880223 0.009844618 0.009781491 0.009710414 0.009630105 0.009545371
 0.009453852 0.009353287 0.009250807 0.00914933 0.00904921 0.008950911 0.008854073 0.008756937 0.008675247 0.008610304
 0.008573092 0.008564061 0.008573005 0.008599499 0.008635833 0.008682158 0.008738535 0.008799267 0.008845787 0.008871831
 0.008849544 0.008788417 0.008690195 0.008566706 0.008435804 0.008290852 0.008129194 0.007955631 0.00776738 0.00758668
 0.007425024 0.007276156 0.007141202 0.007008026 0.006869864 0.006764068 0.006693144 0.006692218 0.006762796 0.006870703
 0.007013159 0.007144317 0.007268503 0.007388604 0.007506906 0.007635797 0.007767324 0.007889381 0.007995097 0.008065945
 0.008105725 0.008106868 0.008089116 0.008060475 0.008050635 0.008080171 0.008154354 0.008285724 0.008443393 0.008622146
 0.008799563 0.008969889 0.009135959 0.009298963 0.009439046 0.009555069 0.009602683 0.009583537 0.009500901 0.009365939
 0.009244651 0.009143483 0.009122523 0.009173756 0.009312809 0.009518665 0.00977214 0.01003688 0.01026757 0.01043458
 0.010492 0.01045765 0.01032035 0.01013308 0.009911635 0.009695239 0.009496587 0.009334066 0.00921274 0.009138185
 0.009112779 0.009116633 0.009148735 0.00917955 0.009209479 0.009236124 0.009261425 0.009296878 0.009340124 0.009387752
 0.009439186 0.009491552 0.009544869 0.009602728 0.009651439 0.009677541 0.00966953 0.009607328 0.009509305 0.009377153
 0.009237037 0.009101456 0.008973917 0.008857077 0.008752786 0.008661534 0.008587161 0.008532213 0.008465049 0.008384041
 0.008252994 0.008074981 0.007881025 0.00767763 0.007524998 0.00741352 0.007342484 0.007296193 0.007230529 0.007153785
 0.00705647 0.006959205 0.006886736 0.006837799 0.006823016 0.006825433 0.006837513 0.00685163 0.006861316 0.00687264
 0.006884989 0.00690966 0.00694926 0.007004709 0.00707768 0.007145791 0.007207851</values></Ydata></AB><ScSm><Ydata ylabel="Single channel"><values byteorder="INTEL" format="FLOAT32" numvalues="1814"> 0.07169138 0.0716993 0.0717749 0.07194094 0.07216521 0.07237783 0.07252061 0.07258517 0.0725949 0.07256012
 0.07248619 0.07242459 0.07246426 0.07264377 0.07289378 0.07308313 0.07312417 0.07305031 0.0729968 0.07306866
 0.07320078 0.07317719 0.07283347 0.07224487 0.07167955 0.07135224 0.07128821 0.07147601 0.07200094 0.07279959
 0.07338101 0.07317679 0.07225738 0.07136376 0.07108702 0.07130097 0.07150843 0.07141642 0.07102914 0.07053012
 0.07032473 0.07093252 0.07247733 0.07426322 0.07502168 0.0737115 0.07026456 0.06582298 0.06231745 0.0614316
 0.06341511 0.06674512 0.06926978 0.06992564 0.06924538 0.06826584 0.06741118 0.06663119 0.06612616 0.06638546
 0.06751391 0.06877655 0.06897834 0.06748731 0.06498656 0.06298839 0.06245232 0.06318341 0.0646444 0.06654264
 0.0680064 0.06711444 0.06278683 0.05717936 0.05472218 0.05790704 0.0646283 0.07024276 0.07169911 0.06924777
 0.06509672 0.06158302 0.06028726 0.06160334 0.06467158 0.06809487 0.070785 0.07200785 0.07119392 0.06843618
 0.0649779 0.0626096 0.06256762 0.06504874 0.06917237 0.07306487 0.07471012 0.07343566 0.07035935 0.06721152
 0.06519879 0.06500366 0.06694868 0.07065897 0.07504594 0.07893875 0.08156142 0.08260821 0.08230622 0.08127367
 0.08005106 0.07900967 0.07867765 0.07941487 0.08055319 0.08065128 0.0790651 0.07681148 0.07552209 0.07575612
 0.07655473 0.07660584 0.07557188 0.07387517 0.07139753 0.06745051 0.0623539 0.05786242 0.05540922 0.05501011
 0.05631036 0.05914813 0.06232275 0.06351657 0.06183366 0.05942361 0.0593475 0.06231076 0.06630062 0.06904484
 0.07011353 0.07075973 0.0723047 0.07478666 0.07678816 0.07650338 0.07353203 0.06989007 0.06858227 0.07064755
 0.07415901 0.07659523 0.077501 0.07819696 0.07948118 0.08039708 0.07923117 0.07554536 0.07126897 0.0695053
 0.07182531 0.076692 0.08057579 0.08056837 0.07634267 0.0702249 0.06538096 0.06362475 0.0649365 0.06867585
 0.07428451 0.08064741 0.08580031 0.08803037 0.08712377 0.08427041 0.08070406 0.07656005 0.07152352 0.06672955
 0.06499535 0.0681592 0.07473101 0.08113381 0.08489251 0.08586681 0.08486477 0.08212091 0.07752711 0.07210699
 0.06849694 0.06889735 0.07241823 0.07558554 0.07597923 0.07444179 0.07328375 0.07340735 0.07397267 0.07417262
 0.07438083 0.07550903 0.07770088 0.07998792 0.08122897 0.08114774 0.08037744 0.07972072 0.07942034 0.07898543
 0.0778847 0.07661314 0.07663053 0.07876484 0.08207306 0.08480835 0.08617 0.08659531 0.08659308 0.08584729
 0.08367315 0.08030477 0.07742494 0.07691874 0.07905151 0.08230169 0.084943 0.08628441 0.08651507 0.08608755
 0.08541 0.0847095 0.08409439 0.08383591 0.08430086 0.08542337 0.08658749 0.0872453 0.0873671 0.08715875
 0.08666428 0.0858492 0.08488899 0.0841769 0.08403987 0.08449373 0.08528587 0.08612176 0.08677261 0.08703851
 0.08681805 0.08625732 0.08566359 0.08522627 0.08495162 0.08485721 0.0850369 0.08548351 0.08600046 0.08636783
 0.08651634 0.08649965 0.08637426 0.08615936 0.08587787 0.08560133 0.08544894 0.08550908 0.08573531 0.08597268
 0.08613493 0.08628793 0.08649231 0.0866472 0.08659786 0.08635107 0.08608171 0.08594456 0.08595252 0.08602466
 0.08607486 0.08602479 0.08579166 0.08535886 0.08487882 0.08462016 0.08475153 0.0852166 0.08583186 0.0864221
 0.08685059 0.08704406 0.0870501 0.0869909 0.0869212 0.08678851 0.08654961 0.08627868 0.08614272 0.08627325
 0.08664688 0.08709593 0.08744878 0.08764166 0.08770661 0.08772245 0.08778524 0.08793701 0.08809499 0.08812527
 0.08801055 0.08788466 0.0878807 0.08798779 0.0880767 0.08805036 0.08795401 0.08792542 0.08804114 0.08824261
 0.08842118 0.08853874 0.0886434 0.08878519 0.08893298 0.0889856 0.08888444 0.08869991 0.08856254 0.08852033
 0.08852443 0.08854733 0.08863421 0.08881257 0.08901439 0.08913442 0.08914571 0.08912127 0.08913806 0.0891825
 0.08917101 0.08905453 0.0888772 0.08873065 0.08867316 0.08869758 0.08875392 0.08878785 0.08876833 0.08869637
 0.08859447 0.08848482 0.08837634 0.0882801 0.08823572 0.08829597 0.08845904 0.08862589 0.08866029 0.08850971
 0.08825912 0.08805352 0.08796585 0.08794342 0.0878795 0.08772247 0.08750837 0.08730541 0.08715233 0.08704642
 0.08696547 0.08689404 0.08684638 0.08687001 0.08700205 0.08720256 0.08735189 0.0873481 0.08720568 0.08703674
 0.08694267 0.08694424 0.08700013 0.08705978 0.08710678 0.08717111 0.08728457 0.08741636 0.08748975 0.08747832
 0.0874455 0.08747467 0.08759984 0.08780714 0.0880473 0.08823667 0.08830615 0.08827576 0.08824348 0.08828472
 0.08839272 0.0885215 0.08864781 0.08877461 0.0889043 0.08903827 0.08919512 0.08940661 0.0896877 0.09001328
 0.09032549 0.09056821 0.09073097 0.0908696 0.09107263 0.09138991 0.09178914 0.09218462 0.09250939 0.09276296
 0.09299333 0.09323774 0.0934926 0.09374851 0.09403202 0.0943817 0.09479132 0.09521021 0.09560046 0.09596628
 0.09632725 0.09668891 0.09704807 0.09741336 0.0978107 0.0982603 0.09873892 0.09917611 0.0995096 0.09974693
 0.09996242 0.1002389 0.1006125 0.1010444 0.1014332 0.1016898 0.1018315 0.1019782 0.1022247 0.1025441
 0.1028487 0.1031214 0.103433 0.1038355 0.1042831 0.10468 0.1049814 0.105228 0.1054875 0.105776
 0.1060411 0.1062259 0.1063391 0.1064472 0.1066014 0.1068025 0.1070482 0.1073688 0.1077814 0.1082332
 0.1086342 0.1089365 0.1091547 0.1093254 0.1094777 0.1096273 0.1097697 0.1098909 0.1099976 0.1101146
 0.1102401 0.1103411 0.1104109 0.1104975 0.1106505 0.1108726 0.1111455 0.1114677 0.1118316 0.1121937
 0.1125156 0.1128258 0.1131904 0.1136082 0.1139809 0.1142158 0.1143257 0.1143908 0.1144595 0.1145378
 0.1146512 0.1148515 0.1151559 0.1155237 0.1159022 0.1162672 0.1166154 0.1169416 0.1172291 0.1174514
 0.117588 0.1176478 0.117676 0.1177368 0.1178847 0.1181371 0.1184579 0.1187744 0.1190239 0.1191785
 0.1192246 0.1191543 0.1190016 0.1188577 0.118799 0.1187976 0.1187342 0.1185032 0.1180797 0.1174897
 0.1167558 0.1158965 0.11496 0.1140313 0.1131998 0.1125283 0.1120573 0.1118319 0.111907 0.112302
 0.112949 0.1137015 0.1144009 0.1149188 0.1151474 0.1150007 0.1144618 0.1136122 0.112588 0.1115111
 0.1104589 0.1094619 0.1085042 0.1075587 0.1066646 0.1059671 0.1056619 0.1059056 0.1067763 0.1082735
 0.1102986 0.1126307 0.1149749 0.1170828 0.1188491 0.1203008 0.1215205 0.122594 0.1235947 0.1245598
 0.1254705 0.1262836 0.1269907 0.1276252 0.1282147 0.1287528 0.1292148 0.1295812 0.1298524 0.1300547
 0.1302179 0.1303371 0.1303779 0.1303303 0.1302306 0.1301104 0.1299432 0.1296554 0.1291812 0.1285008
 0.1276575 0.1267745 0.1260747 0.1258672 0.126445 0.1279181 0.1301124 0.1326466 0.135123 0.1372642
 0.1389377 0.1401377 0.140963 0.1415641 0.1420697 0.1425478 0.1430188 0.1434812 0.1439262 0.1443458
 0.1447384 0.1451136 0.1454938 0.1458977 0.1463141 0.1467039 0.1470429 0.1473562 0.1476984 0.1480999
 0.1485372 0.1489567 0.149332 0.1496892 0.1500624 0.1504359 0.1507606 0.1510225 0.151266 0.151548
 0.1518932 0.1522901 0.1526987 0.1530642 0.1533518 0.1535774 0.1537928 0.1540389 0.1543208 0.1546207
 0.1549221 0.1552187 0.1555118 0.1558093 0.1561249 0.1564615 0.1567896 0.1570597 0.1572516 0.1574032
 0.1575787 0.1578107 0.1580794 0.1583431 0.158585 0.1588304 0.1591199 0.15946 0.1598052 0.1600952
 0.1603084 0.160476 0.1606478 0.1608554 0.1611015 0.1613713 0.1616432 0.1618992 0.1621357 0.162366
 0.162607 0.1628621 0.1631213 0.1633725 0.1636108 0.1638388 0.1640629 0.1642911 0.1645331 0.1648041
 0.1651163 0.1654581 0.1657895 0.1660675 0.1662793 0.1664442 0.166594 0.1667561 0.1669472 0.1671692
 0.1674094 0.1676515 0.167888 0.1681212 0.1683566 0.1685971 0.1688427 0.1690933 0.1693494 0.1696107
 0.169875 0.170141 0.170407 0.1706665 0.1709085 0.171128 0.1713334 0.1715423 0.1717686 0.172012
 0.1722571 0.1724875 0.1727041 0.172924 0.1731598 0.1734038 0.1736367 0.1738485 0.1740466 0.1742465
 0.1744577 0.1746801 0.1749084 0.1751384 0.1753691 0.1756011 0.1758333 0.1760625 0.1762857 0.1765042
 0.1767215 0.176939 0.1771572 0.1773797 0.1776111 0.1778502 0.178091 0.1783265 0.1785519 0.178768
 0.178983 0.179205 0.1794335 0.1796628 0.1798894 0.1801133 0.1803351 0.1805561 0.1807784 0.1810035
 0.1812344 0.1814749 0.1817233 0.1819718 0.1822142 0.1824501 0.1826821 0.1829142 0.1831496 0.1833882
 0.183628 0.1838699 0.1841136 0.1843526 0.1845802 0.1847965 0.1850046 0.1852066 0.1854055 0.1856052
 0.1858081 0.1860138 0.18622 0.1864257 0.1866357 0.1868589 0.1870928 0.1873226 0.187541 0.1877574
 0.1879802 0.1882055 0.1884281 0.1886492 0.1888715 0.189096 0.1893205 0.1895413 0.1897604 0.189989
 0.1902333 0.1904856 0.1907351 0.1909779 0.1912123 0.1914371 0.1916576 0.1918806 0.1921095 0.192347
 0.1925923 0.1928338 0.1930617 0.1932823 0.1935054 0.1937289 0.1939504 0.1941769 0.1944124 0.1946509
 0.1948856 0.1951118 0.1953279 0.1955418 0.1957645 0.1959967 0.1962328 0.1964704 0.1967045 0.1969277
 0.1971456 0.1973717 0.1976084 0.1978483 0.1980882 0.1983245 0.1985538 0.1987818 0.1990097 0.1992099
 0.1993251 0.1992342 0.1986333 0.1969059 0.1931107 0.186176 0.1753291 0.1605866 0.1429195 0.1239056
 0.1051461 0.08785449 0.07274529 0.06013162 0.05008061 0.04251233 0.03726099 0.03418088 0.03326009 0.03473617
 0.03922014 0.04733601 0.05835372 0.06897002 0.07458647 0.07293874 0.06626514 0.0592677 0.05520006 0.0542888
 0.05513968 0.0565692 0.05820819 0.06026922 0.06310901 0.066824 0.07124334 0.07637511 0.08261412 0.09024795
 0.09887102 0.1075532 0.1156365 0.1232506 0.1310035 0.1392494 0.1477191 0.1557882 0.162977 0.169193
 0.1746363 0.1795764 0.1841958 0.1885721 0.1927405 0.1966976 0.2003083 0.2032625 0.2052241 0.2060909
 0.2061177 0.20577 0.205444 0.2053145 0.2053941 0.2056586 0.2060939 0.2066838 0.2074043 0.2082253
 0.2091093 0.2100182 0.2109252 0.2118085 0.2126455 0.2134215 0.2141361 0.2147936 0.2153965 0.2159478
 0.2164501 0.2169039 0.2173165 0.2177038 0.2180809 0.2184543 0.2188237 0.2191826 0.2195185 0.2198217
 0.2200906 0.2203291 0.2205435 0.2207424 0.2209357 0.2211314 0.2213344 0.2215453 0.2217593 0.2219711
 0.2221799 0.2223876 0.2225955 0.2228071 0.2230266 0.2232497 0.2234628 0.2236585 0.2238451 0.2240372
 0.2242407 0.2244506 0.2246588 0.2248603 0.2250548 0.2252458 0.2254377 0.2256329 0.2258293 0.2260233
 0.2262213 0.2264393 0.2266822 0.2269311 0.227164 0.2273799 0.2275896 0.2277962 0.2279994 0.2282034
 0.2284056 0.2285913 0.2287534 0.2289085 0.2290859 0.2293013 0.2295434 0.229781 0.2299924 0.2301839
 0.2303777 0.2305845 0.2307951 0.2309929 0.2311757 0.2313705 0.2316113 0.2318907 0.2321605 0.2323917
 0.2326043 0.2328293 0.2330767 0.2333456 0.2336211 0.2338582 0.2340145 0.2341121 0.2342418 0.2344907
 0.2348617 0.2352673 0.2356117 0.2358755 0.2361069 0.2363549 0.236638 0.2369316 0.2371419 0.2371674
 0.2370564 0.2370409 0.2373246 0.2378769 0.2384921 0.2390013 0.2393755 0.239671 0.2399379 0.2401708
 0.240317 0.2403341 0.2402716 0.2402939 0.2405703 0.2411028 0.2417077 0.2422009 0.2425438 0.2427865
 0.2429734 0.2431333 0.2432332 0.2431173 0.2426737 0.2421302 0.2419972 0.2425736 0.2436095 0.2445716
 0.2451707 0.2455119 0.2457971 0.2460747 0.2462962 0.2463629 0.24601 0.2449558 0.2434493 0.2424242
 0.2427272 0.2442652 0.2461627 0.2476394 0.248502 0.2489453 0.2492108 0.2494259 0.2495101 0.2491832
 0.2482791 0.2471656 0.2466532 0.2472512 0.2485977 0.249848 0.2505333 0.2508038 0.2509895 0.2512333
 0.251394 0.2509787 0.2494209 0.2469162 0.2448509 0.2448228 0.2470755 0.2502073 0.2525623 0.2536563
 0.254048 0.2541195 0.2535136 0.25178 0.2490545 0.2459952 0.2435806 0.2429796 0.244775 0.2479911
 0.2506521 0.2517368 0.2520392 0.2528558 0.2544342 0.2559943 0.2567385 0.2564665 0.2554314 0.2538977
 0.2520152 0.2502242 0.2495073 0.2506978 0.2534661 0.2564257 0.2584133 0.2593797 0.2597942 0.25928
 0.2563277 0.2501117 0.2427706 0.2388213 0.2411691 0.248069 0.2550028 0.2591246 0.260823 0.2616003
 0.2620551 0.2617185 0.2593271 0.2535123 0.2449613 0.2377782 0.2367033 0.2424164 0.2507649 0.2566435
 0.2574716 0.2534561 0.2466675 0.240423 0.2379332 0.240358 0.2463034 0.2531992 0.2588393 0.2619796
 0.2623211 0.2603992 0.2575599 0.2556347 0.2556112 0.2561828 0.2547437 0.2506821 0.2463917 0.2437516
 0.2412129 0.2366635 0.2320675 0.2321672 0.2383178 0.2462189 0.2507466 0.2511452 0.2500991 0.248851
 0.2450899 0.2362886 0.2244919 0.2164037 0.2175237 0.2264443 0.2361128 0.240732 0.2403581 0.2388406
 0.2386783 0.2384672 0.2348827 0.2270274 0.218644 0.2149794 0.2172105 0.2213943 0.2231374 0.2211059
 0.2154995 0.2066366 0.1974524 0.1944035 0.202028 0.2173977 0.2324126 0.240462 0.2388397 0.2273123
 0.2090604 0.1925965 0.1876115 0.1962991 0.2106944 0.2200053 0.2191809 0.2098036 0.1954584 0.1792734
 0.1653737 0.1593466 0.1648994 0.1801034 0.1974379 0.2075299 0.2043354 0.1898396 0.1744656 0.1695711
 0.1771244 0.1883531 0.1935732 0.1909677 0.185227 0.1814825 0.1823344 0.1874148 0.1937988 0.1987429
 0.2018808 0.2021906 0.1950547 0.1778306 0.1572895 0.1451682 0.1459681 0.1546446 0.1660219 0.1794275
 0.192561 0.1983076 0.1927623 0.1826338 0.1795405 0.1876764 0.2002132 0.2076511 0.2072267 0.2034189
 0.2010318 0.2000735 0.1981537 0.1960284 0.1978022 0.2052447 0.2146719 0.2210463 0.2232178 0.2234641
 0.2236329 0.2237462 0.2233101 0.2221526 0.2203337 0.2182714 0.2166217 0.2155317 0.2144965 0.2131142
 0.2110725 0.2070518 0.19906 0.187353 0.1762142 0.1706021 0.1709488 0.1735326 0.1759182 0.1783414
 0.1786618 0.1709507 0.1532823 0.1341212 0.1261707 0.1341174 0.151148 0.166707 0.174557 0.1733279
 0.1634131 0.1472321 0.1318072 0.12657 0.1357158 0.1542338 0.1732947 0.1878153 0.1970198 0.2003126
 0.1964966 0.1868738 0.1764222 0.1709673 0.1736757 0.1836509 0.1961928 0.2039821 0.2006755 0.1872393
 0.1747852 0.1763611 0.1932093 0.2126306 0.2222519 0.2225732 0.2218977 0.2234449 0.2237616 0.2218088
 0.2226076 0.2303336 0.2421557 0.2510263 0.2518864 0.2436627 0.2285691 0.2125791 0.2039019 0.2064318
 0.2153445 0.2223592 0.2237615 0.2199362 0.2104803 0.1962512 0.184559 0.1847638 0.1974168 0.213003
 0.2227627 0.2266759 0.2295068 0.2325931 0.2322318 0.2253084 0.2145114 0.2066786 0.2060424 0.2105288
 0.2152627 0.2177014 0.2176945 0.2145945 0.2076523 0.1992667 0.1950072 0.1987891 0.2088289 0.2193213
 0.225636 0.2272082 0.2261542 0.2245204 0.2228973 0.2206056 0.2171101 0.2138397 0.2138925 0.2187048
 0.2257235 0.2310055 0.2337184 0.236419 0.2410452 0.2462523 0.2490593 0.2481193 0.2450193 0.2429118
 0.2439877 0.2477256 0.2512659 0.2518449 0.2494239 0.246968 0.2477122 0.2520731 0.2576027 0.2617648
 0.2640017 0.2651982 0.2661813 0.2670091 0.2669431 0.2650148 0.2614164 0.2583193 0.2583449 0.2619632
 0.2670372 0.2710226 0.2730133 0.2735981 0.2734754 0.2727205 0.2711954 0.2692161 0.2675622 0.2668662
 0.2671607 0.2680439 0.2690946 0.2700512 0.2707861 0.2712889 0.2716303 0.2718705 0.2720362 0.2721734
 0.2723219 0.2724291 0.2724015 0.27228 0.2722611 0.2724753 0.2728163 0.2730553 0.2730551 0.2727789
 0.2721616 0.2711218 0.2697078 0.2680936 0.2663819 0.264529 0.2625835 0.2609569 0.2603097 0.2610579
 0.2629905 0.2653951 0.2675486 0.2690862 0.2700075 0.2704797 0.270685 0.2707615 0.2707835 0.2707615
 0.2706773 0.2705287 0.270339 0.2701246 0.2698792 0.2696046 0.2693402 0.2691352 0.2689919 0.2688559
 0.2686616 0.2683771 0.2680122 0.2675964 0.2671491 0.2666601 0.2660902 0.265395 0.2645602 0.2636218
 0.2626555 0.261736 0.2608907 0.2600832 0.259249 0.2583447 0.257349 0.2562265 0.2549466 0.2535606
 0.2522113 0.251022 0.249997 0.2490477 0.2480774 0.2470198 0.245843 0.244558 0.2432126 0.2418528
 0.2404922 0.2391171 0.2377068 0.2362449 0.2347196 0.2331209 0.2314442 0.2296992 0.2279114 0.2261039
 0.2242662 0.2223256 0.2201503 0.2175921 0.2145349 0.2109128 0.2067177 0.2020211 0.1969834 0.1918157
 0.1867198 0.1818533 0.1773309 0.1732471 0.1696985 0.1667817 0.1645693 0.1630917 0.162341 0.1622883
 0.1629057 0.1641692 0.1660278 0.1683709 0.1710382 0.1738552 0.1766533 0.1792896 0.1816909 0.1838809
 0.1859404 0.1879274 0.1898366 0.1916261 0.1932715 0.1947778 0.1961409 0.1973267 0.1983082 0.1991025
 0.1997503 0.2002777 0.2006969 0.2010281 0.2013009 0.2015405 0.20176 0.2019655 0.2021704 0.202401
 0.202676 0.202991 0.203339 0.2037358 0.2042084 0.2047673 0.2054003 0.2060839 0.2067971 0.2075345
 0.2083076 0.2091336 0.2100342 0.2110414 0.2121875 0.2134859 0.2149302 0.2164961 0.2181272 0.2197344
 0.2212278 0.2225424 0.2236401 0.2245079 0.2251607 0.2256306 0.2259454 0.2261173 0.2261494 0.2260516
 0.2258469 0.2255584 0.2251977 0.2247699 0.2242781 0.2237155 0.2230769 0.2223864 0.2216917 0.2210206
 0.2203698 0.2197361 0.2191324 0.2185682 0.2180369 0.217524 0.2170125 0.216485 0.2159303 0.2153518
 0.2147633 0.2141681 0.2135331 0.2127953 0.2119122 0.2108958 0.2097845 0.2085961 0.2073262 0.2059723
 0.2045413 0.2030432 0.2014851 0.1998655 0.1981758 0.1964081 0.1945529 0.1925943 0.1905357 0.1884315
 0.1863714 0.184429 0.1826298 0.1809553 0.1793685 0.1778451 0.1763863 0.1749969 0.1736659 0.1723833
 0.1711576 0.1700017 0.1689137 0.1678854 0.1669174 0.1660237 0.165225 0.164532 0.16393 0.1633917
 0.1629053 0.1624823 0.162144 0.161912 0.1617949 0.1617682 0.1617717 0.1617381 0.1616248 0.1614346
 0.1612128 0.1610138 0.160859 0.1607376 0.1606329 0.1605165 0.1603221 0.1599553 0.1593302 0.1583876
 0.1571018 0.1554961 0.1536487 0.1516807 0.1497375 0.1479601 0.146449 0.14525 0.1443552 0.1436976
 0.1431721 0.1427061 0.1423117 0.1420546 0.1419853 0.1420893 0.1422673 0.1423814 0.142372 0.1423297
 0.142422 0.1427585 0.1433288 0.1440281 0.1447225 0.145319 0.1457868 0.1461222 0.1463267 0.1464205
 0.1464312 0.1463631 0.1462124 0.1459963 0.1457348 0.1454254 0.145056 0.1446133 0.1440787 0.143442
 0.1427115 0.1418969 0.1410057 0.1400454 0.1389909 0.1377953 0.1365077 0.1353443 0.1345783 0.1343714
 0.1347053 0.1354081 0.1362615 0.1371428 0.1380078 0.1387035 0.1389873 0.1389081 0.1390346 0.1400488
 0.1420735 0.1445246 0.1466377 0.1480206 0.1486816 0.1487313 0.1482403 0.1472724 0.1458495 0.14392
 0.1414838 0.1386718 0.1356388 0.1325182 0.129505 0.1268154 0.1245554 0.1227239 0.1212848 0.1202641
 0.1198018 0.1195443 0.1176329 0.1116862 0.1024822 0.09559489 0.09670173 0.1051863 0.1145732 0.1193809
 0.1194815 0.1177958 0.1163149 0.1153393 0.114791 0.1148289 0.1155756 0.1168778 0.1183358 0.1195342
 0.1203034 0.1206865 0.1206456 0.1198309 0.1175279 0.1129 0.1056664 0.09669599 0.08769961 0.08022815
 0.07499605 0.07190396 0.07034792 0.06956861 0.06904786 0.06874909 0.06898062 0.07003328 0.07194822 0.07457179
 0.07770801 0.0811044 0.08436478 0.08710308 0.08923134 0.09093195 0.09232509 0.09332316 0.09380923 0.09379639
 0.09339776 0.09275694 0.09201255 0.0912397 0.09039171 0.08934665 0.08808447 0.08682891 0.08592389 0.08551925
 0.08546105 0.08551194 0.0855552 0.08556603 0.08553697 0.08548047 0.08542085 0.08539083 0.08547311 0.085759
 0.08621418 0.08667216 0.08699053 0.0871534 0.08722803 0.08724341 0.08708491 0.08658542 0.08582032 0.08514599
 0.08473286 0.08424208 0.08326668 0.08196857 0.08097132 0.08067615 0.08092114 0.08126605 0.08139601 0.08125556
 0.08100373 0.08093448 0.08128767 0.08196909</values></Ydata></ScSm><ScRf><Ydata ylabel="Single channel"><values byteorder="INTEL" format="FLOAT32" numvalues="1820"> 0.06073112 0.06088561 0.06097305 0.06099731 0.06098805 0.06099206 0.06105588 0.06119948 0.06139881 0.06159429
 0.06172919 0.06178886 0.06179425 0.06176209 0.06170214 0.06165621 0.0616951 0.06184918 0.06206021 0.06221848
 0.06225029 0.06218405 0.0621352 0.06219382 0.06230428 0.06228263 0.06199105 0.06149597 0.06102367 0.06075209
 0.06070109 0.06086387 0.06131539 0.06199985 0.0624953 0.06231645 0.06152686 0.06076376 0.060534 0.06072809
 0.0609179 0.06084972 0.0605235 0.06009433 0.05991201 0.06042673 0.06174733 0.06327762 0.06393144 0.06281734
 0.05987436 0.05607651 0.05307541 0.0523143 0.05400983 0.05685966 0.05901963 0.05957635 0.05898815 0.05815116
 0.05743304 0.05678333 0.05636124 0.05658177 0.05754021 0.0586134 0.05878049 0.05750209 0.05536436 0.05365926
 0.05320266 0.05382639 0.05507562 0.05670366 0.05796068 0.05719601 0.05348574 0.04868273 0.04658554 0.04932591
 0.05509336 0.05990487 0.06114718 0.05904412 0.05549891 0.05251426 0.05142839 0.05256025 0.05517235 0.05808605
 0.06038713 0.06144861 0.06077239 0.05842886 0.05547913 0.05345561 0.05341816 0.05553923 0.05906748 0.06239681
 0.06379893 0.06270136 0.0600663 0.05737459 0.05565348 0.05548514 0.05715171 0.06034014 0.06412007 0.06748255
 0.06975289 0.07066111 0.07040125 0.06951109 0.06846359 0.06757891 0.06730318 0.06793919 0.06891561 0.06900023
 0.0676399 0.065704 0.06459443 0.06479657 0.0654877 0.06553352 0.06463726 0.06316403 0.06102132 0.05762435
 0.05324742 0.04939418 0.04729433 0.0469655 0.04810964 0.05058821 0.05335775 0.05441013 0.05296814 0.05088551
 0.05080437 0.05333823 0.0567592 0.05911453 0.06003633 0.06060432 0.06195454 0.06411554 0.0658612 0.06563079
 0.06307378 0.05992525 0.05878353 0.06056119 0.06360708 0.06574042 0.06655346 0.06717692 0.06830131 0.06910738
 0.06812216 0.06497079 0.06131505 0.05982239 0.06184031 0.06604785 0.0694126 0.069429 0.06580508 0.0605382
 0.05636119 0.05484812 0.05599335 0.05925649 0.06416312 0.06974514 0.07428864 0.07629353 0.07556155 0.07312126
 0.07005024 0.06647459 0.06212243 0.05797883 0.05649801 0.05928896 0.06506042 0.07069452 0.07402804 0.0749353
 0.07412029 0.0717818 0.0678138 0.06310748 0.05998363 0.06039019 0.06355518 0.06642093 0.06684563 0.06555876
 0.06459354 0.06475371 0.06530806 0.06554685 0.0657984 0.06686956 0.06889144 0.0710068 0.07219495 0.07219705
 0.07157212 0.07104576 0.07084519 0.07052799 0.06961002 0.06853755 0.06863005 0.07063231 0.07368773 0.0762191
 0.07751037 0.07796489 0.07804355 0.0774517 0.07555827 0.07257209 0.07002533 0.06963776 0.0716553 0.07469408
 0.07718074 0.07848614 0.078785 0.07848899 0.07796547 0.07741901 0.07694973 0.07680348 0.07730973 0.07840692
 0.0795382 0.08020933 0.08039321 0.08027241 0.07988237 0.07919511 0.07838234 0.07781185 0.07777849 0.07828539
 0.07909708 0.07995061 0.08064219 0.08098158 0.08086091 0.080407 0.07990843 0.07955141 0.07935232 0.07933614
 0.07959349 0.08011027 0.08068742 0.08110666 0.08130165 0.08133112 0.08125949 0.08111202 0.08091101 0.08072142
 0.08065315 0.08078466 0.08106384 0.08134055 0.08154213 0.08174738 0.08202171 0.0822591 0.08229196 0.08211509
 0.08190176 0.08181331 0.08186729 0.08198318 0.08207659 0.08207327 0.08189319 0.08151974 0.08110166 0.08090025
 0.08107907 0.08158572 0.08224611 0.08289207 0.08338826 0.0836557 0.08372748 0.0837108 0.08365953 0.08353734
 0.08331956 0.08308657 0.08299856 0.08317675 0.08359355 0.08408377 0.08447783 0.08470865 0.08480351 0.08484238
 0.08492965 0.08511597 0.08532014 0.08540267 0.0853405 0.08526286 0.0852939 0.08541245 0.08549166 0.08545148
 0.08535172 0.08533128 0.08546358 0.08569174 0.08590924 0.0860766 0.08623971 0.08644392 0.08664437 0.08672149
 0.08660994 0.08639551 0.08623534 0.08619238 0.08621214 0.08625618 0.08636928 0.08658125 0.08681419 0.08694974
 0.08696499 0.08695184 0.08699709 0.08707725 0.08709067 0.08697684 0.08678006 0.08660351 0.08652484 0.08655407
 0.08664362 0.08672291 0.08673711 0.0866747 0.08656587 0.08645191 0.0863573 0.0862995 0.0863187 0.08646338
 0.08671728 0.08695537 0.08701709 0.08684869 0.08656403 0.08634514 0.08627796 0.08629003 0.08624329 0.08606941
 0.08581067 0.08555572 0.08536277 0.08523615 0.08514647 0.08506557 0.08500195 0.08500701 0.08512039 0.08529139
 0.08538146 0.0852823 0.08502492 0.08474694 0.08456394 0.0844962 0.08449553 0.08450359 0.08449791 0.08451024
 0.08458088 0.08468036 0.08471687 0.08464499 0.08452615 0.08446305 0.08451612 0.08468616 0.0849157 0.08509299
 0.08512118 0.08501606 0.08489672 0.08486331 0.08491725 0.08500548 0.0850964 0.08519008 0.08528811 0.0853885
 0.08550413 0.08566288 0.08588113 0.08613999 0.08638763 0.08657023 0.08667659 0.08676045 0.08690655 0.08716074
 0.08749117 0.08781858 0.08808092 0.08827431 0.08843996 0.08861467 0.08880062 0.08899107 0.08920817 0.08948497
 0.0898141 0.09014746 0.09045041 0.09073076 0.09101267 0.09130511 0.09160464 0.09191844 0.09227517 0.09269769
 0.09315243 0.09354374 0.09378962 0.09390508 0.09399658 0.09418041 0.09450442 0.09491263 0.09526972 0.09546414
 0.09552303 0.0955952 0.09578994 0.09606754 0.09632561 0.09655534 0.09685041 0.09726797 0.09773683 0.09812404
 0.0983656 0.09851375 0.09866669 0.09886485 0.09906033 0.09918859 0.09925616 0.09933233 0.09946168 0.09963082
 0.0998342 0.1001164 0.1005052 0.1009407 0.1013203 0.101595 0.1017865 0.1019325 0.1020535 0.1021523
 0.1022166 0.1022399 0.1022555 0.1023187 0.1024344 0.1025398 0.1025859 0.1026006 0.1026494 0.1027681
 0.1029629 0.1032354 0.1035646 0.1038876 0.1041561 0.1044071 0.1047242 0.1051116 0.105456 0.105648
 0.1057021 0.1057133 0.1057337 0.105757 0.105803 0.1059377 0.1061932 0.1065227 0.1068607 0.1071908
 0.1075332 0.1078896 0.1082189 0.108458 0.1085652 0.108556 0.1085038 0.1085028 0.108621 0.1088703
 0.1092042 0.1095467 0.1098358 0.1100412 0.1101447 0.1101384 0.1100669 0.1100381 0.11014 0.1103395
 0.1104962 0.1104835 0.1102708 0.1098938 0.1093869 0.1087701 0.1080838 0.1074062 0.1068278 0.1064102
 0.1061771 0.1061448 0.1063449 0.106791 0.1074249 0.1081264 0.1087815 0.1093118 0.109635 0.1096544
 0.109329 0.1087305 0.107999 0.1072558 0.1065675 0.105951 0.1053785 0.1048137 0.1042914 0.1039575
 0.1040024 0.1045479 0.1055863 0.106987 0.1085355 0.1100021 0.1112324 0.1122054 0.1130031 0.1137194
 0.1144008 0.1150642 0.1157314 0.1164111 0.1170634 0.1176267 0.1180872 0.1184921 0.1188892 0.1192795
 0.1196303 0.1199117 0.1201255 0.1203113 0.1205079 0.1206971 0.120811 0.1208094 0.120726 0.120619
 0.1205012 0.1203348 0.1200743 0.1197028 0.1192588 0.1188584 0.1186811 0.1188998 0.1195832 0.1206493
 0.1219217 0.1232405 0.1245118 0.1256626 0.1266036 0.1272761 0.1277134 0.1280184 0.128287 0.1285671
 0.1288693 0.1291851 0.1294976 0.1297925 0.1300681 0.1303386 0.1306286 0.1309538 0.1312957 0.1316085
 0.1318654 0.1320967 0.1323681 0.1327183 0.1331186 0.1335009 0.1338286 0.134129 0.1344413 0.1347501
 0.1350039 0.1351905 0.1353608 0.1355767 0.135865 0.1362139 0.136581 0.1369042 0.1371402 0.1373042
 0.1374551 0.1376418 0.1378747 0.1381405 0.1384211 0.138698 0.1389577 0.1392069 0.1394728 0.139771
 0.1400719 0.1403161 0.1404766 0.1405943 0.1407378 0.1409377 0.141168 0.1413869 0.1415831 0.1417879
 0.1420427 0.1423504 0.1426611 0.1429119 0.1430831 0.1432082 0.1433369 0.1434974 0.1436901 0.1439009
 0.1441141 0.1443205 0.1445206 0.1447234 0.144938 0.145163 0.1453862 0.1455976 0.1457999 0.1460043
 0.1462176 0.1464359 0.1466551 0.1468865 0.1471513 0.1474502 0.1477459 0.1479892 0.148164 0.1482953
 0.1484174 0.1485492 0.1486966 0.1488625 0.1490492 0.1492555 0.1494747 0.1496956 0.149909 0.1501136
 0.1503144 0.1505157 0.1507188 0.1509245 0.1511344 0.1513512 0.1515766 0.151806 0.1520269 0.1522286
 0.1524142 0.1526012 0.1528034 0.1530148 0.1532156 0.1533966 0.1535706 0.1537548 0.1539512 0.1541504
 0.1543489 0.1545501 0.1547516 0.1549441 0.1551238 0.1552996 0.1554853 0.1556853 0.1558925 0.1560968
 0.1562958 0.1564938 0.1566946 0.1568976 0.1571003 0.1573006 0.1574976 0.1576936 0.1578939 0.1581004
 0.1583059 0.1584989 0.1586774 0.1588549 0.1590475 0.1592552 0.1594648 0.1596679 0.1598676 0.1600675
 0.1602652 0.1604588 0.1606518 0.1608519 0.161066 0.1612938 0.161523 0.1617386 0.161938 0.162131
 0.1623281 0.1625332 0.1627471 0.162968 0.1631919 0.1634158 0.1636373 0.1638538 0.1640617 0.1642582
 0.1644427 0.1646193 0.1647944 0.1649691 0.1651393 0.165305 0.1654738 0.1656513 0.1658369 0.1660282
 0.1662216 0.1664141 0.1666097 0.1668164 0.1670352 0.1672574 0.1674763 0.1676896 0.1678941 0.1680869
 0.1682717 0.1684575 0.1686528 0.1688595 0.1690706 0.1692783 0.1694854 0.1697015 0.1699283 0.1701591
 0.1703866 0.1706031 0.1708034 0.1709939 0.1711891 0.1713939 0.1716042 0.1718189 0.1720378 0.1722551
 0.1724666 0.1726746 0.1728796 0.1730794 0.173277 0.1734777 0.1736831 0.1738933 0.1741084 0.1743238
 0.1745353 0.1747447 0.1749543 0.1751653 0.1753843 0.1756146 0.1758458 0.1760672 0.1762825 0.1764959
 0.1767033 0.1769048 0.1771049 0.1772897 0.1774118 0.1773533 0.1768342 0.1753072 0.1719375 0.1657662
 0.1560976 0.1429432 0.1271703 0.1101901 0.09343784 0.07800137 0.06451835 0.05326448 0.04429758 0.03754804
 0.03287154 0.03013856 0.02933442 0.03066671 0.03467986 0.04192981 0.05176111 0.06122594 0.06623039 0.0647648
 0.05882427 0.05259099 0.04896051 0.04814312 0.04890638 0.05019137 0.05165476 0.05348289 0.05600855 0.05933162
 0.0632975 0.0679032 0.07349566 0.08033051 0.08804445 0.09580633 0.1030311 0.10984 0.1167831 0.12418
 0.1317842 0.1390278 0.1454786 0.151059 0.1559508 0.1603907 0.1645374 0.1684633 0.1722058 0.1757608
 0.178999 0.1816433 0.1834084 0.1842159 0.1842851 0.1840121 0.1837457 0.1836533 0.1837528 0.1840134
 0.1844109 0.184934 0.185577 0.186327 0.1871502 0.187999 0.188832 0.189624 0.1903664 0.1910659
 0.1917319 0.1923614 0.1929443 0.1934759 0.193957 0.1943905 0.1947869 0.1951604 0.1955175 0.1958578
 0.1961838 0.1964978 0.1967935 0.1970617 0.1973013 0.197519 0.1977255 0.197933 0.1981512 0.1983804
 0.1986126 0.1988354 0.1990402 0.1992306 0.1994209 0.1996205 0.1998254 0.2000284 0.2002285 0.2004275
 0.2006245 0.200821 0.2010217 0.2012286 0.2014382 0.201644 0.2018414 0.202031 0.2022174 0.202404
 0.2025909 0.2027799 0.2029737 0.2031692 0.2033619 0.2035571 0.2037665 0.2039903 0.2042158 0.2044324
 0.2046393 0.2048411 0.2050453 0.2052562 0.2054652 0.2056541 0.2058169 0.2059719 0.2061484 0.2063605
 0.2065943 0.2068223 0.2070306 0.207227 0.2074239 0.2076225 0.2078151 0.2079934 0.2081584 0.2083337
 0.2085517 0.2088138 0.209083 0.2093294 0.2095587 0.2097858 0.2100119 0.2102367 0.2104608 0.2106652
 0.2108243 0.2109505 0.211109 0.2113666 0.2117242 0.2121066 0.2124309 0.2126795 0.212893 0.213116
 0.2133696 0.2136354 0.2138305 0.2138636 0.2137764 0.2137728 0.2140354 0.2145463 0.2151324 0.2156391
 0.2160222 0.2163141 0.2165574 0.2167608 0.2168947 0.2169312 0.2169118 0.2169718 0.2172501 0.2177429
 0.2182886 0.2187305 0.2190451 0.2192867 0.2194926 0.2196725 0.2197784 0.2196662 0.2192466 0.2187425
 0.2186238 0.2191569 0.2201068 0.2209898 0.2215509 0.2218873 0.2221734 0.2224455 0.222662 0.2227418
 0.2224508 0.2215337 0.2202092 0.2193132 0.2196089 0.2210174 0.2227525 0.224106 0.2248955 0.2252971
 0.2255432 0.2257649 0.2258882 0.2256399 0.2248492 0.2238467 0.2233849 0.2239462 0.2252035 0.2263722
 0.2270136 0.2272749 0.227473 0.2277356 0.2279163 0.2275576 0.2261517 0.2238899 0.2220407 0.2220551
 0.224145 0.2270274 0.2291978 0.230222 0.230612 0.230713 0.2301936 0.2286374 0.2261674 0.2233912
 0.2212082 0.2206856 0.2223528 0.2253199 0.2277825 0.2288014 0.2290962 0.2298566 0.2313201 0.2327763
 0.2334891 0.233272 0.2323613 0.2310001 0.2293172 0.2277112 0.2270857 0.228206 0.2307695 0.2335127
 0.2353821 0.2363323 0.2367751 0.236347 0.2336632 0.22798 0.2212702 0.2176756 0.2198549 0.2262089
 0.2325981 0.2364083 0.2379884 0.2387203 0.2391637 0.2388914 0.2367406 0.2314563 0.223671 0.2171427
 0.2162076 0.2214874 0.2291854 0.2346316 0.2354554 0.2318309 0.2256503 0.2199662 0.2177338 0.2200153
 0.2255246 0.2319008 0.2371208 0.2400459 0.2404043 0.2386895 0.2361394 0.2344377 0.2344862 0.2350733
 0.2338012 0.2301143 0.226218 0.2238414 0.221569 0.2174688 0.2133418 0.2135329 0.2192773 0.2266196
 0.2308536 0.231296 0.2304273 0.2293862 0.2260224 0.217986 0.2071642 0.1997713 0.2009149 0.2092929
 0.2183562 0.222724 0.2224638 0.2211707 0.2211747 0.2211629 0.2180237 0.2109048 0.2032917 0.2000846
 0.2023875 0.2065243 0.2083989 0.2067605 0.2017689 0.1936937 0.1852857 0.1826261 0.1899964 0.2046472
 0.2189564 0.2267067 0.2253547 0.2146701 0.1976418 0.1823219 0.1779011 0.1864675 0.2004683 0.2096611
 0.2092374 0.2006699 0.1873405 0.1722383 0.1593636 0.1541596 0.1602596 0.1758053 0.1934456 0.2039714
 0.2014114 0.1877043 0.1731591 0.1690443 0.1773031 0.1891739 0.1949865 0.1929412 0.1877586 0.1846225
 0.1861878 0.1920785 0.1992842 0.2049941 0.2088338 0.2096857 0.2026801 0.1850451 0.1638442 0.1513226
 0.1521992 0.1612583 0.1731378 0.1871431 0.2008603 0.2068507 0.201035 0.1904099 0.1870837 0.1954179
 0.2083013 0.2158585 0.2152275 0.2110692 0.2083783 0.2071716 0.2049823 0.2026141 0.2043415 0.2120106
 0.2218124 0.2285343 0.2309803 0.2314999 0.2320059 0.2325259 0.2325415 0.2318561 0.2305218 0.2289835
 0.2279499 0.2275971 0.2274017 0.2269376 0.2258619 0.2227077 0.2152052 0.2034733 0.1920423 0.1862654
 0.1866452 0.1892101 0.1914134 0.1936158 0.1935842 0.184941 0.1655889 0.1446297 0.1357452 0.1439776
 0.1619712 0.178353 0.1864444 0.1848466 0.1740547 0.156654 0.1400145 0.1339754 0.142823 0.1611792
 0.1797463 0.1933115 0.201324 0.2034487 0.1985916 0.1880702 0.1768797 0.1708322 0.1730212 0.182466
 0.1944367 0.2016688 0.1979213 0.1841834 0.1714041 0.1724086 0.1884434 0.207098 0.2162549 0.216356
 0.2154755 0.2167656 0.2169012 0.214904 0.2156734 0.2232764 0.2349732 0.2439179 0.2451658 0.237629
 0.223453 0.2085092 0.2008505 0.2042172 0.2137224 0.2211138 0.2227247 0.2189784 0.2095281 0.1953049
 0.1836688 0.1839821 0.1967737 0.2125157 0.2224527 0.2265732 0.2296402 0.2329755 0.23285 0.2261364
 0.2155455 0.2079574 0.2076218 0.2124454 0.2175347 0.2203555 0.2207614 0.218067 0.2114733 0.2033908
 0.1994784 0.2037257 0.2142966 0.2252125 0.2316764 0.2330704 0.2315637 0.2292898 0.2269097 0.2237838
 0.2194001 0.2152209 0.2143928 0.2183883 0.2246612 0.2292649 0.2313669 0.2335213 0.2376611 0.2424443
 0.2448901 0.2436287 0.2402013 0.2377141 0.2383408 0.2415944 0.2446937 0.2449403 0.2422864 0.2396222
 0.2401176 0.2442019 0.2494999 0.2535317 0.2557334 0.2569502 0.2579813 0.2588767 0.2588997 0.2570879
 0.2536168 0.2505914 0.2505557 0.2539712 0.2587804 0.2625359 0.2643799 0.264903 0.2647931 0.2641166
 0.2627174 0.2608702 0.2593052 0.2586319 0.2588962 0.2597184 0.2606888 0.2615583 0.2622218 0.2626836
 0.2630044 0.2632198 0.2633387 0.2634059 0.2634749 0.2635145 0.2634513 0.2633308 0.2633317 0.2635608
 0.2639069 0.2641575 0.2641892 0.2639647 0.2634177 0.2624766 0.261196 0.2597438 0.2582138 0.2565604
 0.2548294 0.2534167 0.2529578 0.2538494 0.2558746 0.2583311 0.2605146 0.2620794 0.2630301 0.2635239
 0.2637323 0.2637965 0.263801 0.2637588 0.2636433 0.2634396 0.2631592 0.2628203 0.2624372 0.2620354
 0.2616591 0.2613456 0.2610887 0.2608348 0.2605191 0.2601075 0.2596152 0.2590891 0.2585638 0.2580196
 0.2573885 0.2566144 0.255706 0.2547319 0.2537763 0.252898 0.2521064 0.25136 0.2505972 0.2497758
 0.2488728 0.2478614 0.2467325 0.2455564 0.2444781 0.2436094 0.242934 0.2423351 0.2416933 0.2409414
 0.2400607 0.2390707 0.2380174 0.2369442 0.2358657 0.2347699 0.2336289 0.2324055 0.2310715 0.2296279
 0.2280963 0.2265 0.2248659 0.2232248 0.2215727 0.2198297 0.2178566 0.2155152 0.2127042 0.2093585
 0.2054519 0.2010283 0.1962272 0.1912609 0.1863483 0.1816637 0.1773358 0.173468 0.1701401 0.1674047
 0.1652991 0.1638591 0.1631166 0.1630878 0.1637648 0.1651116 0.1670597 0.169504 0.1723002 0.175277
 0.1782622 0.1811088 0.1837212 0.1860855 0.1882678 0.1903455 0.1923312 0.1941758 0.1958308 0.1972786
 0.1985148 0.1995383 0.200368 0.2010468 0.2016194 0.2021102 0.2025265 0.2028772 0.2031792 0.203445
 0.2036762 0.2038772 0.2040659 0.2042646 0.2044876 0.2047383 0.2050102 0.2053011 0.205636 0.2060563
 0.2065712 0.2071399 0.207716 0.2082922 0.2088894 0.20953 0.2102409 0.2110628 0.2120351 0.2131688
 0.2144383 0.2157939 0.2171758 0.218513 0.2197203 0.2207197 0.2214713 0.2219798 0.2222708 0.2223734
 0.2223202 0.2221439 0.2218635 0.2214847 0.2210165 0.2204803 0.219901 0.2192937 0.2186595 0.217991
 0.2172842 0.2165512 0.215821 0.2151208 0.2144564 0.2138179 0.2131996 0.2125978 0.2119975 0.2113822
 0.2107605 0.2101606 0.2095959 0.2090518 0.208506 0.207937 0.2073106 0.2065826 0.2057304 0.2047704
 0.203732 0.2026242 0.2014386 0.2001716 0.1988278 0.1974063 0.1959023 0.1943198 0.1926677 0.1909425
 0.1891253 0.187203 0.1851953 0.1831634 0.1811878 0.1793323 0.1776214 0.1760405 0.1745524 0.1731235
 0.1717462 0.1704347 0.1692013 0.168044 0.166952 0.1659119 0.1649115 0.1639493 0.1630398 0.1622086
 0.1614825 0.1608728 0.1603619 0.1599189 0.1595315 0.1592095 0.1589623 0.1587968 0.1587264 0.1587479
 0.1588149 0.1588576 0.1588289 0.158724 0.1585719 0.1584162 0.1582928 0.1582132 0.1581608 0.1580889
 0.1579262 0.1575967 0.1570343 0.1561832 0.1550095 0.1535251 0.1517951 0.1499329 0.1480873 0.1464007
 0.1449567 0.1437826 0.1428862 0.1422446 0.1417769 0.1413883 0.141051 0.1408197 0.1407716 0.1409224
 0.1411744 0.1413707 0.141442 0.1414835 0.1416651 0.1420923 0.1427476 0.1435147 0.1442545 0.1448877
 0.1454015 0.1457895 0.1460413 0.1461776 0.1462292 0.1461918 0.146056 0.1458498 0.1456089 0.1453406
 0.1450325 0.1446572 0.1441795 0.1435944 0.1429282 0.1421882 0.1413639 0.1404572 0.1394481 0.1382888
 0.1370272 0.1358908 0.1351674 0.1350262 0.1354488 0.1362599 0.1372403 0.138264 0.1392667 0.1400689
 0.1404316 0.1404313 0.1406355 0.141692 0.1437131 0.1461478 0.1482682 0.149699 0.150453 0.150627
 0.1502528 0.1493539 0.1479358 0.1459615 0.1434654 0.1406091 0.1375579 0.1344412 0.1314389 0.1287355
 0.1264164 0.1245133 0.1230472 0.1220609 0.1216753 0.1215157 0.1196799 0.1137214 0.1044233 0.09747627
 0.09866774 0.1073606 0.1169604 0.1218928 0.1220324 0.1203647 0.1189216 0.1179811 0.1174321 0.1174442
 0.1181682 0.1194532 0.120889 0.1220585 0.1227905 0.1231303 0.1230547 0.1222179 0.1198818 0.1151838
 0.1078319 0.09869154 0.08949091 0.08182594 0.0764429 0.07323696 0.07159308 0.0707502 0.07017854 0.06983441
 0.07005009 0.07113947 0.07312821 0.07583691 0.07906818 0.08257184 0.08593383 0.08874415 0.09090909 0.09263296
 0.0940709 0.09514589 0.09571663 0.09577556 0.09543575 0.09482719 0.09406082 0.09322066 0.09231243 0.09125748
 0.09004074 0.08886011 0.08801232 0.08760533 0.08748588 0.08745314 0.0874237 0.08739027 0.0873504 0.08730327
 0.08725379 0.08723333 0.08733344 0.0876451 0.08813101 0.08862003 0.08894941 0.08908536 0.08910833 0.08907139
 0.08886456 0.08831994 0.08751623 0.08679538 0.08630885 0.08573394 0.08469595 0.08335532 0.08231454 0.0819789
 0.08220556 0.08255324 0.08268995 0.08255105 0.0823009 0.08224578 0.0826304 0.08334605 0.08391456 0.08392248
</values></Ydata></ScRf><Data_Parameters_AB><parameter name="DPF">1</parameter><parameter name="NPT">3497</parameter><parameter name="FXV">3996</parameter><parameter name="LXV">500</parameter><parameter name="CSF">1</parameter><parameter name="MXY">0.0382341630756855</parameter><parameter name="MNY">-0.0702459961175919</parameter><parameter name="DAT">31/05/2022</parameter><parameter name="TIM">13:32:57.950 (GMT+2)</parameter><parameter name="DXU">WN</parameter></Data_Parameters_AB><AB__Qtest><MainReport name="Quality Test Report"><Header><Line><Legend>Test result ok/not ok [1/0]: </Legend><Value>0</Value></Line><Line><Legend>Method file: </Legend><Value>C:\Users\Public\Documents\Bruker\OPUS_8.2.28\QT\IRBT_v3_default.QT</Value></Line></Header><Matrix><Line><Legend></Legend><Legend>min</Legend><Legend>max</Legend><Legend>measured</Legend></Line><Line><Value>Absorption (X-Range 1):</Value><Value>0.400000</Value><Value>2.000000</Value><Value>0.063687</Value></Line><Line><Value>Noise (X-Range 4):</Value><Value></Value><Value>0.000300</Value><Value>0.000057</Value></Line><Line><Value>Signal/Noise (X-Range 2):</Value><Value>200.000000</Value><Value></Value><Value>20.588095</Value></Line><Line><Value>Signal/Noise (X-Range 3):</Value><Value>40.000000</Value><Value></Value><Value>11.421659</Value></Line><Line><Value>Water vapour (X-Range 5):</Value><Value></Value><Value>0.000300</Value><Value>0.000034</Value></Line><Line><Value>Signal/Water (X-Range 2):</Value><Value>100.000000</Value><Value></Value><Value>34.828272</Value></Line><Line><Value>Signal/Water (X-Range 3):</Value><Value>20.000000</Value><Value></Value><Value>19.321683</Value></Line><Line><Value>Fringes (X-Range 6):</Value><Value></Value><Value>0.000100</Value><Value>0.000065</Value></Line></Matrix></MainReport></AB__Qtest><Data_Parameters_ScSm><parameter name="DPF">1</parameter><parameter name="NPT">1814</parameter><parameter name="FXV">3996.33169228125</parameter><parameter name="LXV">499.541461535156</parameter><parameter name="CSF">1</parameter><parameter name="MXY">0.273598074913025</parameter><parameter name="MNY">0.0332600921392441</parameter><parameter name="DAT">31/05/2022</parameter><parameter name="TIM">13:32:57.950 (GMT+2)</parameter><parameter name="DXU">WN</parameter></Data_Parameters_ScSm><Data_Parameters_ScRf><parameter name="DPF">1</parameter><parameter name="NPT">1820</parameter><parameter name="FXV">4004.04661832813</parameter><parameter name="LXV">495.683998511719</parameter><parameter name="CSF">1</parameter><parameter name="MXY">0.264903038740158</parameter><parameter name="MNY">0.0293344166129827</parameter><parameter name="DAT">31/05/2022</parameter><parameter name="TIM">13:32:33.141 (GMT+2)</parameter><parameter name="DXU">WN</parameter></Data_Parameters_ScRf><Optic_Parameters_Rf><parameter name="APR">0</parameter><parameter name="APT">Open</parameter><parameter name="BMS">KBr</parameter><parameter name="DTC">RT-DLaTGS_IR-Biotyper [Microplate reader]</parameter><parameter name="HPF">0</parameter><parameter name="LPF">10.0</parameter><parameter name="LPV">4000</parameter><parameter name="PGR">0</parameter><parameter name="RCH">Module port</parameter><parameter name="RDX">0</parameter><parameter name="SRC">MIR</parameter><parameter name="VEL">10.0</parameter><parameter name="SON">Off</parameter></Optic_Parameters_Rf><Acquisition_Parameters_Rf><parameter name="ADT">1</parameter><parameter name="AQM">DD</parameter><parameter name="CFE">0</parameter><parameter name="COR">0</parameter><parameter name="DEL">0</parameter><parameter name="DLY">0</parameter><parameter name="HFW">8000</parameter><parameter name="LFW">0</parameter><parameter name="NSR">32</parameter><parameter name="PLF">AB</parameter><parameter name="RES">6</parameter><parameter name="RGN">-1</parameter><parameter name="STR">0</parameter><parameter name="TCL">MakeCompatibleScalar (0, {WSV=1.000000, ARV=0});</parameter><parameter name="TDL">37</parameter><parameter name="RPO">0</parameter></Acquisition_Parameters_Rf><FT_-_Parameters_Rf><parameter name="APF">B3</parameter><parameter name="HFQ">500</parameter><parameter name="LFQ">4000</parameter><parameter name="NLI">0</parameter><parameter name="PHR">24</parameter><parameter name="PHZ">ML</parameter><parameter name="SPZ">NO</parameter><parameter name="ZFF">1</parameter></FT_-_Parameters_Rf><Optic_Parameters_><parameter name="APR">0</parameter><parameter name="APT">Open</parameter><parameter name="BMS">KBr</parameter><parameter name="CHN">Module port</parameter><parameter name="DTC">RT-DLaTGS_IR-Biotyper [Microplate reader]</parameter><parameter name="HPF">0</parameter><parameter name="LPF">10.0</parameter><parameter name="LPV">4000</parameter><parameter name="PGN">0</parameter><parameter name="RDX">0</parameter><parameter name="SRC">MIR</parameter><parameter name="VEL">10.0</parameter><parameter name="SON">Off</parameter></Optic_Parameters_><FT_-_Parameters_><parameter name="APF">B3</parameter><parameter name="HFQ">500</parameter><parameter name="LFQ">4000</parameter><parameter name="NLI">0</parameter><parameter name="PHR">24</parameter><parameter name="PHZ">ML</parameter><parameter name="SPZ">NO</parameter><parameter name="ZFF">1</parameter></FT_-_Parameters_><Acquisition_Parameters_><parameter name="ADT">1</parameter><parameter name="AQM">DD</parameter><parameter name="CFE">0</parameter><parameter name="COR">0</parameter><parameter name="DEL">0</parameter><parameter name="DLY">0</parameter><parameter name="HFW">8000</parameter><parameter name="LFW">0</parameter><parameter name="NSS">32</parameter><parameter name="PLF">AB</parameter><parameter name="RES">6</parameter><parameter name="SOT">0</parameter><parameter name="TCL">MakeCompatibleScalar (0, {WSV=1.000000, ARV=0});</parameter><parameter name="TDL">37</parameter><parameter name="SPO">0</parameter><parameter name="SGN">-1</parameter></Acquisition_Parameters_><Instrument_Parameters_Rf><parameter name="HFL">15800.168544</parameter><parameter name="LFL">0</parameter><parameter name="LWN">15800.168544</parameter><parameter name="ABP">32197</parameter><parameter name="SSP">1</parameter><parameter name="ARG">2</parameter><parameter name="ASG">2</parameter><parameter name="ASS">32</parameter><parameter name="GFW">16</parameter><parameter name="GBW">16</parameter><parameter name="BFW">0</parameter><parameter name="BBW">0</parameter><parameter name="PKA">7262</parameter><parameter name="PKL">4996</parameter><parameter name="PRA">7446</parameter><parameter name="PRL">5001</parameter><parameter name="P2A">1</parameter><parameter name="P2L">1</parameter><parameter name="P2R">1</parameter><parameter name="P2K">1</parameter><parameter name="DAQ">0</parameter><parameter name="AG2">1</parameter><parameter name="SSM">1</parameter><parameter name="RSN">25677</parameter><parameter name="CRR">0</parameter><parameter name="SRT">1654003953.142</parameter><parameter name="DUR">19.6379852294922</parameter><parameter name="TSC">28.9</parameter><parameter name="MVD">0.364519625902176</parameter><parameter name="AN1">0.225811343018868</parameter><parameter name="AN2">0</parameter><parameter name="VSN">2.485 Apr  4 2017</parameter><parameter name="SRN">0085</parameter><parameter name="CAM">0</parameter><parameter name="INS">IR-Biotyper</parameter><parameter name="FOC">69</parameter><parameter name="RDY">1</parameter><parameter name="ARS">32</parameter></Instrument_Parameters_Rf><Sample_Parameters_><parameter name="BLD"></parameter><parameter name="CNM">Admin</parameter><parameter name="CPY"></parameter><parameter name="DPM"></parameter><parameter name="EXP">IRBT_v3_32Scans.XPM</parameter><parameter name="LCT"></parameter><parameter name="SFM">Microplate, HTS-XT</parameter><parameter name="SNM">220531-1301_CGR32F (D_7)_H2_ad587cc7-adff-4626-b6fd-afecca942e82.0</parameter><parameter name="XPP">C:\Users\Public\Documents\Bruker\OPUS_8.2.28\XPM</parameter><parameter name="IST">OK</parameter><parameter name="CPG">1252</parameter><parameter name="UID">5eece4c7-d0b6-479f-bdd1-7baf3b705328</parameter></Sample_Parameters_><Instrument_Parameters_><parameter name="HFL">15800.168544</parameter><parameter name="LFL">0</parameter><parameter name="LWN">15800.168544</parameter><parameter name="ABP">32197</parameter><parameter name="SSP">1</parameter><parameter name="ASG">2</parameter><parameter name="ARG">2</parameter><parameter name="ASS">32</parameter><parameter name="GFW">16</parameter><parameter name="GBW">16</parameter><parameter name="BFW">0</parameter><parameter name="BBW">0</parameter><parameter name="PKA">7728</parameter><parameter name="PKL">4988</parameter><parameter name="PRA">8040</parameter><parameter name="PRL">4993</parameter><parameter name="P2A">1</parameter><parameter name="P2L">1</parameter><parameter name="P2R">1</parameter><parameter name="P2K">1</parameter><parameter name="DAQ">0</parameter><parameter name="AG2">1</parameter><parameter name="SSM">1</parameter><parameter name="RSN">13464</parameter><parameter name="CRR">0</parameter><parameter name="SRT">1654003977.95</parameter><parameter name="DUR">19.6379852294922</parameter><parameter name="TSC">28.9</parameter><parameter name="MVD">0.562918424606323</parameter><parameter name="AN1">0.225818670900983</parameter><parameter name="AN2">0</parameter><parameter name="VSN">2.485 Apr  4 2017</parameter><parameter name="SRN">0085</parameter><parameter name="CAM">0</parameter><parameter name="INS">IR-Biotyper</parameter><parameter name="FOC">69</parameter><parameter name="RDY">1</parameter></Instrument_Parameters_><History/></OPUSDataFile>
