<?xml version="1.0" encoding="UTF-8" ?>
<OPUSDataFile><AB><Ydata ylabel="Absorbance Units"><values byteorder="INTEL" format="FLOAT32" numvalues="3497"> 0.01007845 0.00998936 0.009902969 0.009818868 0.009742487 0.009674121 0.009626565 0.009599358 0.009590704 0.009598144
 0.009605339 0.009612874 0.009613266 0.009610565 0.009612438 0.009617082 0.009627408 0.009634085 0.009626316 0.009601985
 0.00955221 0.009490318 0.009420603 0.009354939 0.009301227 0.009253663 0.0092132 0.009168243 0.009116116 0.009057187
 0.008990766 0.008925479 0.008861769 0.008804937 0.008754887 0.008712228 0.008675783 0.008640138 0.00860212 0.008547348
 0.008474316 0.008369192 0.008240173 0.00809129 0.007938675 0.00780327 0.007692112 0.007621821 0.007579013 0.007562203
 0.007554787 0.007547091 0.007543952 0.007542963 0.007561319 0.007603829 0.007663636 0.007742702 0.007801687 0.007838491
 0.007818457 0.007742774 0.007618361 0.0074511 0.007280963 0.007109331 0.00696385 0.006838673 0.006733248 0.006642859
 0.006559084 0.006480557 0.006402514 0.00632482 0.006243546 0.006167043 0.006095774 0.00604776 0.006031518 0.006051074
 0.006114021 0.006191953 0.006283984 0.006348137 0.006380312 0.006350647 0.006257199 0.006090583 0.005852734 0.005564015
 0.005233992 0.004928845 0.004660928 0.004518334 0.004488812 0.004597295 0.004801381 0.005041584 0.005287151 0.005474294
 0.005604799 0.005654222 0.005649454 0.005595287 0.005526426 0.005459371 0.005404763 0.005373104 0.00533949 0.005302147
 0.005234181 0.005130723 0.005002147 0.004848626 0.004711202 0.004590787 0.004510033 0.004464103 0.004434349 0.004415431
 0.004375578 0.004318045 0.004232354 0.004129944 0.004026486 0.003927304 0.003847505 0.003780154 0.00372189 0.003675434
 0.003638109 0.00362542 0.003648455 0.003692087 0.003763672 0.00379832 0.003788691 0.003668105 0.003424063 0.003073615
 0.002615606 0.002252134 0.001993652 0.002055214 0.002401388 0.002910334 0.003540684 0.004063303 0.004487053 0.004717006
 0.004783707 0.004688458 0.004479329 0.0042065 0.003925013 0.003700958 0.003549102 0.003508434 0.003528293 0.00360127
 0.003671556 0.003717321 0.003738375 0.003728661 0.003717291 0.003707827 0.003706261 0.003713416 0.00370508 0.003680129
 0.003616011 0.003515524 0.003383364 0.003227484 0.003079033 0.002946609 0.002868907 0.002845718 0.002899495 0.00301188
 0.003175393 0.003357334 0.003530002 0.003666369 0.003741517 0.003750016 0.00367972 0.003551416 0.0033637 0.003158246
 0.00293976 0.002752872 0.002602784 0.002518108 0.002501067 0.002555546 0.002680137 0.002852545 0.003069696 0.003300967
 0.003544198 0.003776524 0.00399409 0.004176382 0.004319423 0.004403651 0.004436978 0.004415216 0.004364695 0.004304606
 0.00425805 0.004249427 0.00426824 0.00432074 0.004373442 0.004417349 0.004436259 0.004423858 0.004389033 0.004332121
 0.004260195 0.004173774 0.004071806 0.003955028 0.003834599 0.003713543 0.003619633 0.003551959 0.003525517 0.003529316
 0.00354355 0.003557424 0.003539072 0.003493922 0.003412001 0.003312814 0.003213456 0.003114927 0.003031869 0.00292633
 0.002786337 0.002584145 0.002297158 0.001980293 0.001630947 0.001360441 0.00118331 0.001140662 0.001236819 0.001441636
 0.00175322 0.002142417 0.002602005 0.00307269 0.00353972 0.003911408 0.004181905 0.004282098 0.004232521 0.00402169
 0.003715072 0.003385419 0.003091231 0.00292497 0.002856257 0.002901598 0.002993514 0.003104235 0.003206397 0.00328085
 0.003351658 0.003418495 0.003516739 0.003653187 0.003816544 0.004007325 0.004170607 0.004304082 0.004363604 0.004352653
 0.00426911 0.004127493 0.003979817 0.00384798 0.003824677 0.003900031 0.004112867 0.004408569 0.004730626 0.005048553
 0.00530611 0.005526206 0.005701353 0.00587578 0.006068992 0.006297159 0.006574923 0.006872874 0.00718916 0.007490438
 0.007770501 0.008034157 0.008280625 0.008551035 0.008846547 0.009192036 0.009580163 0.009968771 0.0103511 0.01067339
 0.01094295 0.01115378 0.01131038 0.01141871 0.01147937 0.01148781 0.01146743 0.01142658 0.01141766 0.01147722
 0.01162832 0.01189869 0.01225296 0.01268479 0.01317479 0.01371603 0.01431699 0.01498012 0.01568716 0.01643762
 0.01719438 0.01795562 0.01869037 0.01939606 0.02003832 0.02061657 0.02110456 0.02151467 0.02186405 0.02217027
 0.02247775 0.02278549 0.02310886 0.02344646 0.02378891 0.0241787 0.02463654 0.02520189 0.02591381 0.0267161
 0.02760664 0.02850594 0.02939522 0.03025005 0.03106398 0.03184446 0.0325916 0.03331229 0.03400613 0.03466211
 0.03527947 0.03584098 0.03635795 0.03685821 0.03737555 0.03802247 0.03880719 0.03982562 0.04099458 0.04224944
 0.04350907 0.04466204 0.04571688 0.04663824 0.04748187 0.04826069 0.04902757 0.04980431 0.05060061 0.05142541
 0.05225122 0.05307387 0.05389263 0.05470569 0.0555695 0.0564866 0.05750902 0.0586295 0.05981842 0.06106136
 0.06227905 0.06346785 0.06457601 0.06561004 0.06655492 0.06742702 0.0682347 0.06901154 0.06978949 0.07059496
 0.07146034 0.07237256 0.07333391 0.07432842 0.07534422 0.07641179 0.07753535 0.07873976 0.08003601 0.08135579
 0.08269645 0.08395493 0.08512913 0.08619943 0.08717411 0.08810869 0.08901139 0.08994889 0.09091906 0.09195572
 0.0930397 0.09415393 0.09527282 0.09635078 0.09738615 0.09834979 0.099285 0.1002044 0.1011644 0.1022031
 0.10331 0.1045018 0.1056989 0.1068884 0.1080139 0.1090622 0.1100498 0.1109756 0.1118976 0.1128179
 0.1137703 0.1147524 0.115756 0.1167815 0.1178255 0.1188927 0.1200023 0.121139 0.1222925 0.1234224
 0.1244664 0.1254102 0.1262029 0.1268946 0.1274951 0.1280722 0.1286646 0.1292864 0.1299585 0.1306336
 0.1313062 0.1319337 0.1325047 0.1330498 0.1335686 0.1341485 0.1347927 0.1355477 0.1364033 0.1372978
 0.138215 0.1390431 0.1397911 0.1404165 0.14096 0.1414803 0.1420106 0.1426332 0.1433254 0.1441094
 0.1449118 0.1456897 0.1463987 0.1469896 0.1475221 0.1479899 0.1485173 0.1491312 0.1498941 0.150826
 0.1518687 0.1530218 0.1541707 0.1553105 0.156365 0.1573375 0.1582211 0.1590232 0.1597713 0.160472
 0.1611554 0.1618316 0.1625336 0.1632698 0.1640712 0.1649228 0.1658266 0.166751 0.167669 0.1685841
 0.1694824 0.1704109 0.1713878 0.1724128 0.1735015 0.1745612 0.1755812 0.1764964 0.1772964 0.1780624
 0.1788001 0.1796554 0.1806227 0.1817257 0.1829304 0.184092 0.1851833 0.1860361 0.1866781 0.187069
 0.1872846 0.1874136 0.1875097 0.1876699 0.1878744 0.1881437 0.1884322 0.188714 0.188998 0.1892743
 0.1895918 0.1899619 0.1904 0.1909133 0.1914701 0.1920694 0.1926736 0.1932816 0.1938763 0.194461
 0.1950541 0.1956649 0.196349 0.1971074 0.1979823 0.1989455 0.1999671 0.2010054 0.2019848 0.2028925
 0.203682 0.2043773 0.2049806 0.2055135 0.2059892 0.2064093 0.2067743 0.2070955 0.2073698 0.2076399
 0.2079092 0.208223 0.2085858 0.2090093 0.2094938 0.2100277 0.2106117 0.2112481 0.2119377 0.2126906
 0.2134944 0.214323 0.2151514 0.2159128 0.216601 0.2171659 0.2176495 0.2180652 0.2184808 0.218953
 0.2195019 0.2201698 0.2208812 0.2216308 0.2223095 0.2228848 0.2233412 0.2236621 0.2239513 0.2242155
 0.224541 0.2249294 0.2253326 0.2257424 0.2260537 0.2262765 0.2263981 0.2264486 0.226515 0.2266132
 0.2268251 0.2271336 0.2275545 0.2280521 0.2285977 0.2291601 0.2297043 0.2302309 0.2307223 0.2312226
 0.2317403 0.2323183 0.232976 0.2336838 0.2344482 0.2351681 0.2358364 0.2363703 0.2367673 0.2370404
 0.2371977 0.2373233 0.2374211 0.2375562 0.2377206 0.2379196 0.2381534 0.2384187 0.2387357 0.2391376
 0.2396247 0.2402273 0.2408832 0.2415671 0.242202 0.2427323 0.2431633 0.2434697 0.2437447 0.2440034
 0.2443208 0.2447169 0.2451672 0.2456749 0.246144 0.2465698 0.2468684 0.247042 0.2470769 0.2469876
 0.2468354 0.2466401 0.2464971 0.2464141 0.2464616 0.2466173 0.2468901 0.2472256 0.2475773 0.2478883
 0.2480982 0.2481987 0.2481575 0.2480338 0.2478327 0.2476361 0.2474623 0.2473656 0.2473559 0.2474617
 0.2476862 0.2480535 0.2485646 0.2492175 0.2500045 0.2508537 0.2517457 0.2525452 0.2532399 0.2537091
 0.2539778 0.2540247 0.2539186 0.2537467 0.2535773 0.2535248 0.2535872 0.2538181 0.2541298 0.254503
 0.2548303 0.2550687 0.2551671 0.255099 0.2548901 0.254535 0.2541084 0.2536151 0.2531289 0.2526534
 0.2522198 0.2518262 0.2514616 0.2511242 0.2507979 0.2504858 0.2501904 0.2499116 0.2496562 0.2494074
 0.2491505 0.248849 0.2484627 0.2479569 0.2472869 0.2464605 0.2454566 0.2443431 0.2431306 0.2419066
 0.2406933 0.2395401 0.238459 0.2374552 0.2365309 0.2356733 0.2348814 0.2341246 0.2333999 0.2326597
 0.2319059 0.2311188 0.2303113 0.2295171 0.2287416 0.2280208 0.2273326 0.226662 0.2259805 0.2252449
 0.2244612 0.2236091 0.2227389 0.221863 0.2210472 0.2203176 0.2197095 0.2192453 0.218884 0.2186323
 0.218373 0.2180978 0.2176972 0.2171659 0.2164987 0.2157042 0.2148755 0.2140218 0.2132426 0.2125327
 0.2119303 0.2114196 0.2109859 0.2106118 0.2102655 0.209932 0.2095835 0.209213 0.2088044 0.2083644
 0.2078894 0.2073985 0.2068954 0.2064044 0.2059318 0.2054923 0.205091 0.2047181 0.2043743 0.2040304
 0.2036848 0.2033158 0.2029243 0.2025127 0.2020835 0.2016504 0.2012127 0.2007758 0.2003371 0.1998925
 0.1994433 0.1989885 0.1985323 0.1980805 0.1976319 0.1971898 0.1967427 0.1962855 0.1958095 0.1953076
 0.1947891 0.194253 0.1937193 0.1931917 0.1926778 0.1921796 0.1916859 0.1911962 0.1906968 0.1901879
 0.1896674 0.1891372 0.1886062 0.1880758 0.1875561 0.1870452 0.1865456 0.1860526 0.1855597 0.185064
 0.1845581 0.1840467 0.1835275 0.1830174 0.1825205 0.182064 0.1816591 0.1813206 0.1810616 0.1808448
 0.1806736 0.1804582 0.1801909 0.1798008 0.1792843 0.1786628 0.1779441 0.1772278 0.1765211 0.1759198
 0.1754166 0.1750435 0.1747755 0.174577 0.1744137 0.174214 0.1739606 0.173596 0.1731508 0.172619
 0.1720671 0.1715303 0.1710448 0.1706409 0.170289 0.1699891 0.1697021 0.1694163 0.1691528 0.1689098
 0.1687504 0.1686778 0.1687135 0.1688517 0.1690293 0.1692339 0.1693605 0.1694072 0.1693047 0.1690744
 0.1687251 0.1682935 0.1678431 0.1673968 0.1670105 0.1666735 0.1663974 0.1661603 0.1659485 0.165766
 0.1656085 0.1654948 0.1654337 0.1654106 0.165428 0.1654417 0.1654462 0.1654328 0.1654008 0.1654013
 0.1654366 0.1655529 0.1657434 0.1659919 0.1662875 0.1665797 0.1668691 0.1671298 0.1673726 0.1676054
 0.1678332 0.1680693 0.1683025 0.1685325 0.1687344 0.1688955 0.1689969 0.1690221 0.1689924 0.1689006
 0.1688196 0.1687573 0.1687889 0.1689259 0.1691665 0.1695114 0.1698625 0.1702129 0.1704435 0.1705579
 0.1705107 0.1703236 0.1700467 0.1697044 0.1693822 0.1690863 0.1688692 0.1687158 0.1686312 0.1685935
 0.1685865 0.1685973 0.1686113 0.1686362 0.1686663 0.168735 0.1688475 0.169041 0.1693263 0.1696959
 0.1701538 0.1706351 0.1711363 0.1716055 0.1720462 0.1724948 0.1729629 0.1735432 0.1742344 0.1750845
 0.1760773 0.1771895 0.1784289 0.1797801 0.1813034 0.1830492 0.1851039 0.187548 0.1904498 0.1938638
 0.1978397 0.2023999 0.2076036 0.2134669 0.2200435 0.2273535 0.2353662 0.2440939 0.2533342 0.2630775
 0.2729265 0.2828491 0.2923237 0.3013088 0.3092879 0.3162307 0.3217463 0.3258375 0.3283 0.3291922
 0.3284906 0.3263333 0.3228273 0.318214 0.3126659 0.3065287 0.2999886 0.2934426 0.2870542 0.2811759
 0.2759225 0.2715157 0.268014 0.2654933 0.2639702 0.2634349 0.2638879 0.2652977 0.2676615 0.2709361
 0.2751125 0.2801167 0.2859327 0.2924618 0.2996928 0.307544 0.3160244 0.3251045 0.33482 0.3451943
 0.3562778 0.3681192 0.38075 0.3942152 0.4084758 0.4235581 0.4392916 0.4556787 0.4723744 0.4893559
 0.5061322 0.5226651 0.5384354 0.5534107 0.5671708 0.5797011 0.5907266 0.6002525 0.6081519 0.6144747
 0.6192943 0.6227559 0.6251965 0.6268774 0.6283453 0.629917 0.632163 0.6353289 0.6398188 0.6456882
 0.6531167 0.6619336 0.6721572 0.6834481 0.6957565 0.7086622 0.7221076 0.7356688 0.7493042 0.7626328
 0.7756301 0.7879633 0.7996167 0.8103089 0.8200314 0.8285877 0.8359771 0.8420968 0.8469393 0.8504467
 0.8525835 0.8532711 0.8524598 0.8500533 0.846041 0.8403526 0.8330924 0.8242546 0.8140942 0.8026628
 0.7903371 0.7771944 0.7636441 0.7497544 0.7358794 0.7220618 0.7085469 0.695353 0.6826023 0.6702953
 0.6584433 0.6470348 0.6360043 0.6253349 0.614931 0.6047738 0.5947702 0.584901 0.5750896 0.5653284
 0.555568 0.5458397 0.536135 0.5265425 0.5170894 0.507919 0.4990724 0.4907355 0.4829466 0.4759228
 0.4696934 0.464495 0.4603486 0.4575015 0.4559698 0.4559703 0.4575034 0.4606079 0.4652276 0.471034
 0.4779013 0.4851572 0.4927146 0.4999433 0.506986 0.5137118 0.5205438 0.5278997 0.5362585 0.5461971
 0.5579007 0.5717421 0.5873644 0.6048539 0.6232807 0.6425459 0.6612877 0.679343 0.6951609 0.7085903
 0.7181836 0.72384 0.7245249 0.7202199 0.7105767 0.6957095 0.6761502 0.6521872 0.625158 0.5954811
 0.5648618 0.5337051 0.5035002 0.4744805 0.4475527 0.4226988 0.4002481 0.379959 0.3618209 0.3454732
 0.3307979 0.3174253 0.3052468 0.2939613 0.2835001 0.2736783 0.2644652 0.2557883 0.2476406 0.2400002
 0.232865 0.2262028 0.2200083 0.2142304 0.2088627 0.2038551 0.1991998 0.1948547 0.1908076 0.1870207
 0.1834771 0.1801441 0.177 0.1740183 0.1711755 0.16845 0.1658304 0.1633033 0.1608821 0.1585658
 0.1563774 0.1543238 0.152401 0.150613 0.1489135 0.1473002 0.1457179 0.1441654 0.1426257 0.141103
 0.1396228 0.1381856 0.1368117 0.1354885 0.1341933 0.1329114 0.1315997 0.1302639 0.1288872 0.1274984
 0.1261152 0.1247672 0.1234782 0.1222627 0.1211335 0.1200911 0.1191414 0.1182656 0.1174655 0.1166962
 0.1159538 0.1151924 0.1144078 0.1135967 0.1127608 0.1119425 0.1111448 0.1104115 0.10974 0.109143
 0.1086141 0.1081428 0.1077231 0.1073404 0.1069881 0.1066523 0.1063277 0.106002 0.1056818 0.1053634
 0.1050679 0.1048044 0.1045842 0.1044182 0.1042803 0.1041712 0.1040414 0.1038837 0.1036789 0.1034238
 0.1031561 0.1028785 0.1026482 0.1024649 0.1023522 0.1023033 0.1023011 0.1023384 0.1023864 0.1024409
 0.1024815 0.1025053 0.1025012 0.1024665 0.102396 0.1022855 0.1021326 0.1019295 0.1016726 0.1013564
 0.1009759 0.1005418 0.1000517 0.09953729 0.09900052 0.09848036 0.09797976 0.09752288 0.09711006 0.09674048
 0.09641206 0.09610782 0.09582605 0.09555018 0.09528045 0.09500864 0.09473687 0.09446392 0.09419553 0.09393661
 0.09369803 0.09349085 0.09332401 0.0932085 0.09314068 0.09312405 0.09314372 0.09319656 0.09326918 0.09335811
 0.09345824 0.09356841 0.09368758 0.09381557 0.09395192 0.09409668 0.09425217 0.09441889 0.09460282 0.09480316
 0.09502184 0.09525292 0.09548345 0.09570153 0.09587891 0.09600575 0.09605432 0.09602896 0.09591969 0.09574698
 0.09551867 0.0952582 0.09497804 0.09469057 0.09440307 0.094115 0.09382836 0.09353473 0.09323376 0.0929144
 0.09257574 0.09221162 0.09182213 0.091413 0.0909857 0.09055504 0.09012196 0.08969883 0.08928472 0.08888308
 0.08849324 0.08811478 0.08774935 0.0873988 0.08706503 0.08675092 0.08645584 0.08618024 0.08592324 0.08568411
 0.08546425 0.0852645 0.08508333 0.08492197 0.08476993 0.08462675 0.08447765 0.0843215 0.08414862 0.08395865
 0.08374779 0.0835161 0.08326194 0.08298596 0.08268979 0.08237503 0.08204708 0.08170719 0.08135998 0.08100695
 0.08065077 0.08029629 0.07994787 0.07961268 0.07929776 0.07900351 0.07873406 0.07847903 0.07823724 0.07799497
 0.07774889 0.07749263 0.07722431 0.0769473 0.07666142 0.07637659 0.07609338 0.07582262 0.0755643 0.07532357
 0.07509878 0.07488554 0.07468162 0.07447775 0.07427369 0.07406397 0.07385077 0.07363486 0.07341811 0.07320316
 0.07298939 0.07277705 0.07256567 0.07235433 0.07214592 0.07194067 0.07174299 0.07155432 0.07137442 0.07120406
 0.07103646 0.07087127 0.07070092 0.07052513 0.07034087 0.07014842 0.06994893 0.06974265 0.06953105 0.06931466
 0.06909515 0.0688742 0.06865562 0.06844154 0.06823713 0.06804195 0.0678586 0.06768224 0.06751091 0.06733916
 0.0671632 0.06698314 0.06679709 0.06661174 0.06642799 0.06625207 0.06608532 0.06592742 0.06577859 0.06563459
 0.0654953 0.06536024 0.06522997 0.06510944 0.06499889 0.06490277 0.06481954 0.06474733 0.06468371 0.06462276
 0.064563 0.06449954 0.06443284 0.06436134 0.06428661 0.06420907 0.06413057 0.06405198 0.06397481 0.06389979
 0.06382749 0.06375876 0.06369018 0.06362198 0.06354597 0.06346159 0.0633608 0.06324334 0.0631094 0.06295967
 0.06280123 0.06263395 0.0624613 0.06228158 0.06209066 0.06188894 0.06167359 0.06144987 0.06122366 0.06100035
 0.06078859 0.06058761 0.06040057 0.06022184 0.06004944 0.05987971 0.05971087 0.05954205 0.059373 0.05920217
 0.05902934 0.05885333 0.05867381 0.0584944 0.05831533 0.05814286 0.05797685 0.05781864 0.05766725 0.0575181
 0.05737115 0.05722331 0.05707653 0.05693357 0.05679575 0.05666726 0.05654522 0.05642958 0.0563135 0.05619281
 0.05606093 0.05591303 0.05574819 0.05556354 0.05536713 0.05515896 0.05495315 0.05475161 0.05456433 0.05439273
 0.05423445 0.05408924 0.05394577 0.05380363 0.05365401 0.05349827 0.05333795 0.05317604 0.053023 0.05287998
 0.05275597 0.0526468 0.05255155 0.05246251 0.0523707 0.05227345 0.05216412 0.05204941 0.05193026 0.05181478
 0.05170713 0.05160607 0.05151304 0.05141984 0.05132536 0.05122491 0.05111773 0.05100645 0.05089125 0.05077757
 0.05066555 0.05055869 0.05045699 0.05036207 0.05027432 0.05019582 0.05012719 0.0500716 0.05002717 0.04999422
 0.04996598 0.04993644 0.04989819 0.0498423 0.04977116 0.04968096 0.0495859 0.04948969 0.04940366 0.04933284
 0.04927219 0.04922267 0.04916981 0.04911213 0.04904527 0.04896913 0.04889352 0.04881889 0.04875398 0.0486974
 0.04864645 0.04859956 0.04854951 0.04849748 0.04844215 0.0483862 0.04833366 0.04828478 0.0482423 0.04820267
 0.04816489 0.04812364 0.04807582 0.04801902 0.04795065 0.0478751 0.04779183 0.04771103 0.04763389 0.04756949
 0.04751911 0.04748219 0.04745857 0.04743581 0.04741248 0.0473692 0.047305 0.04720419 0.04706773 0.04689024
 0.04667357 0.04642023 0.04612876 0.04580004 0.04542675 0.04500314 0.04451867 0.04396428 0.04333228 0.04261627
 0.04181384 0.0409236 0.03994167 0.03886868 0.03769125 0.03640725 0.03500714 0.03348703 0.03188649 0.03020854
 0.02858188 0.02702045 0.02572033 0.02469344 0.02411147 0.02396509 0.0243242 0.02515065 0.02641789 0.02803381
 0.02987193 0.03179089 0.03359256 0.03519008 0.03644801 0.03736851 0.03791311 0.03812418 0.03799831 0.037615
 0.03697332 0.0362377 0.03542224 0.03472998 0.03418503 0.03384205 0.03370373 0.03367371 0.03374784 0.03384804
 0.03398005 0.03413459 0.03432105 0.0345685 0.03487607 0.03526347 0.03570724 0.03618118 0.03666172 0.03710525
 0.03752475 0.03791032 0.0382972 0.03870626 0.03914055 0.03961334 0.04008532 0.04055032 0.04097463 0.04134973
 0.04167747 0.04195616 0.0422084 0.04243531 0.04265258 0.0428596 0.04305348 0.04323269 0.04338624 0.04351523
 0.04361663 0.04369443 0.04375609 0.04380486 0.0438496 0.04389049 0.04393138 0.04397053 0.04400808 0.04404165
 0.04407039 0.04409125 0.0441029 0.04410369 0.04409226 0.04407213 0.04404306 0.04401284 0.04398219 0.04395629
 0.0439354 0.04391621 0.04389807 0.04387184 0.04383729 0.04378778 0.04372505 0.04365092 0.04356835 0.04348503
 0.04340265 0.04332783 0.04325953 0.04319946 0.04314518 0.04309478 0.04304839 0.04300449 0.04296776 0.04293964
 0.04292326 0.04292129 0.04292576 0.04293689 0.04293919 0.04293093 0.04290582 0.04286347 0.04281384 0.04275764
 0.04270682 0.04266045 0.04261916 0.04258143 0.04254152 0.04250043 0.04245718 0.04241451 0.04237685 0.04234495
 0.0423222 0.04230594 0.04229582 0.04228746 0.04227862 0.04226585 0.04224721 0.04222176 0.04218861 0.04214933
 0.04210369 0.04205568 0.04200548 0.0419588 0.04191596 0.04188097 0.04185364 0.04183276 0.04181783 0.04180511
 0.04179495 0.04178653 0.04178058 0.04177895 0.04178089 0.0417867 0.04179363 0.04179882 0.04179986 0.04179347
 0.04177999 0.04175773 0.04173135 0.04170124 0.04167508 0.04165494 0.04164527 0.04164784 0.04165871 0.04167793
 0.04169773 0.04171769 0.04173515 0.04175045 0.04176781 0.04178745 0.0418132 0.04184401 0.04187841 0.04191459
 0.0419475 0.04197617 0.04199632 0.04200917 0.04201373 0.04201354 0.04201064 0.04200907 0.04201197 0.04202015
 0.04203551 0.04205395 0.0420753 0.04209339 0.04210691 0.04211386 0.04211346 0.04211119 0.04210727 0.04211022
 0.04212017 0.04214128 0.04217254 0.0422103 0.04225272 0.0422911 0.04232461 0.04234573 0.04235749 0.04236024
 0.04236058 0.0423667 0.04238194 0.0424141 0.04245589 0.04250735 0.04255494 0.04259298 0.04261527 0.04261776
 0.04260609 0.04258023 0.04254795 0.04251026 0.04246883 0.04242382 0.04237392 0.04231936 0.04226309 0.04220601
 0.04215529 0.04211128 0.04207939 0.04205864 0.04204985 0.04205084 0.0420589 0.04207078 0.04208225 0.04208943
 0.04208753 0.04207534 0.04204953 0.04201546 0.04197308 0.04193275 0.04189695 0.0418736 0.04186504 0.04187087
 0.04189171 0.04192061 0.04195723 0.0419937 0.04202985 0.04206154 0.04208932 0.04211423 0.04213736 0.04216325
 0.04219265 0.04222988 0.04227462 0.04232869 0.04239037 0.04245906 0.04253116 0.0426044 0.04267354 0.04273508
 0.04278581 0.04282262 0.04284887 0.04286372 0.04287634 0.0428878 0.04290734 0.04293618 0.04297826 0.04303394
 0.04310162 0.04318098 0.0432668 0.0433585 0.0434498 0.04354024 0.04362466 0.04370303 0.04377276 0.04383382
 0.043885 0.04392648 0.04395719 0.04397976 0.04399475 0.0440085 0.04402402 0.04404819 0.04408476 0.04413579
 0.04420358 0.04428282 0.04437367 0.04446639 0.04456007 0.04464652 0.0447251 0.04479505 0.04485673 0.04491661
 0.0449751 0.04503851 0.04510608 0.04517834 0.04525412 0.0453304 0.04540707 0.04548248 0.04555704 0.04563065
 0.04570359 0.04577604 0.04584822 0.04592079 0.04599205 0.04606252 0.04612635 0.04618225 0.04622518 0.04625305
 0.04627057 0.04627733 0.04628618 0.04629793 0.04632061 0.046354 0.04639409 0.04644018 0.04648486 0.04652919
 0.04657331 0.04661892 0.04667159 0.04672938 0.04679292 0.04685595 0.0469113 0.04695352 0.04697479 0.04697505
 0.04695137 0.04690766 0.04684449 0.04676626 0.04667392 0.04657209 0.0464614 0.04634716 0.04623007 0.04611289
 0.04599586 0.0458783 0.04576021 0.0456414 0.04552248 0.04540745 0.04529738 0.0451989 0.04511227 0.04504209
 0.04498676 0.04494611 0.04491692 0.04489552 0.04487838 0.04486134 0.04484204 0.04481766 0.04478831 0.04475285
 0.04471437 0.04467336 0.04463293 0.04459396 0.04455644 0.0445205 0.04448492 0.04444955 0.04441756 0.04438921
 0.04436965 0.04435857 0.0443567 0.04436292 0.04437304 0.04438626 0.04439859 0.04440928 0.04441522 0.04441579
 0.04440828 0.04439454 0.04437446 0.04435245 0.04433092 0.04431353 0.04430232 0.04429932 0.04430547 0.04432185
 0.04434946 0.04438422 0.04442628 0.04446614 0.04450314 0.04453199 0.04455292 0.04457138 0.04458811 0.04461144
 0.04464062 0.04467756 0.04471999 0.04476329 0.04480479 0.04483752 0.04485983 0.04486545 0.044858 0.04483618
 0.04481108 0.04478817 0.04477824 0.04478899 0.04481809 0.04486882 0.04492469 0.04498379 0.04502972 0.0450597
 0.04507133 0.04506402 0.04504816 0.04502407 0.04499797 0.04496846 0.04492734 0.04487409 0.04480028 0.04471032
 0.04461098 0.0445083 0.04441747 0.04433956 0.04428301 0.04424438 0.04422401 0.04421704 0.04422159 0.04423079
 0.04424139 0.04424883 0.04425014 0.04424872 0.04424432 0.04424318 0.04424634 0.04425397 0.04426624 0.04427984
 0.04429469 0.04430989 0.04432531 0.04433964 0.04435235 0.04436017 0.04436341 0.04436113 0.04435416 0.04434362
 0.04433006 0.04431385 0.04429775 0.04428306 0.04427608 0.04428148 0.0443018 0.04434099 0.04439231 0.04445578
 0.04451973 0.04458191 0.04463493 0.04467706 0.04471111 0.044737 0.04476477 0.0447946 0.0448289 0.0448657
 0.04489026 0.04490138 0.04488325 0.04484229 0.04478505 0.04472508 0.04469247 0.04469237 0.04474949 0.04484723
 0.04498181 0.04512977 0.04527297 0.04540525 0.0455162 0.04562008 0.04571838 0.04582627 0.04594905 0.04608155
 0.04622502 0.04636015 0.04648554 0.04659114 0.04667708 0.04674961 0.04681068 0.04687697 0.04695224 0.04706224
 0.04720841 0.04741212 0.04766301 0.04795308 0.04826808 0.04858335 0.04889709 0.04919848 0.04949095 0.04977492
 0.050049 0.05031157 0.05056622 0.050811 0.0510629 0.0513245 0.05161078 0.05192468 0.05226621 0.05263567
 0.05302993 0.05344878 0.05388898 0.05434933 0.05481846 0.05529531 0.0557685 0.0562391 0.05670472 0.05716555
 0.05761997 0.05807023 0.05851495 0.0589673 0.0594379 0.0599399 0.06048908 0.06107672 0.06170454 0.06235616
 0.06302378 0.06371333 0.06442344 0.06516974 0.06595587 0.0667726 0.06761989 0.06847574 0.06934026 0.07022574
 0.07113801 0.07213242 0.07321213 0.07442717 0.075763 0.07720549 0.07873607 0.08030336 0.08191926 0.08356976
 0.08529568 0.08713017 0.08910408 0.09125469 0.09356923 0.09605061 0.09868352 0.1014427 0.1044213 0.1075998
 0.1112709 0.1154479 0.1205618 0.1266487 0.1339241 0.1423892 0.1518847 0.1624282 0.174046 0.1868739
 0.2015142 0.2181522 0.2376724 0.2600891 0.2859817 0.3149302 0.3467574 0.3806312 0.4157767 0.4513754
 0.4866817 0.5212044 0.5546351 0.5864127 0.6165195 0.6435593 0.6673492 0.6862543 0.6999711 0.7082015
 0.7108685 0.7086846 0.7016935 0.6908043 0.6761029 0.6587474 0.6387591 0.6168974 0.5930347 0.5669876
 0.5391077 0.5096796 0.4799166 0.4517222 0.4256622 0.4032535 0.3837034 0.36696 0.3521908 0.3389372
 0.3269559 0.3160813 0.3062497 0.2974615 0.2894474 0.2821828 0.2753684 0.2689673 0.2630816 0.2577204
 0.253197 0.2494805 0.2464305 0.2439724 0.2416708 0.2395017 0.2371597 0.2346795 0.2319736 0.229117
 0.2261751 0.223216 0.2203265 0.2175548 0.2149358 0.212574 0.2105126 0.2088726 0.2077292 0.2070102
 0.2067346 0.206692 0.2068559 0.2070936 0.2073903 0.2077186 0.2080787 0.2085184 0.2090498 0.2098066
 0.2107912 0.2121131 0.2137107 0.2154519 0.2172884 0.2190327 0.220734 0.2223815 0.2240329 0.2257465
 0.2275451 0.2294538 0.2315069 0.2337204 0.2361398 0.2387986 0.2416445 0.2446806 0.2478057 0.2509974
 0.2542828 0.2576624 0.2611748 0.2648163 0.268382 0.2718489 0.2749071 0.2775637 0.2796933 0.281316
 0.2824302 0.2830437 0.2831471 0.2828055 0.282095 0.281106 0.2799616 0.2786984 0.2773589 0.276022
 0.2747259 0.2735558 0.272564 0.2717126 0.2710112 0.2703623 0.2697506 0.2691408 0.2685259 0.267954
 0.2674269 0.2669694 0.266573 0.2661619 0.2657237 0.2651589 0.2644587 0.2635433 0.2624141 0.2610233
 0.259409 0.2575985 0.2556472 0.2536337 0.2515529 0.2494364 0.2472283 0.2448929 0.2424552 0.2398899
 0.2373517 0.2348714 0.2325499 0.2304156 0.2284244 0.2265755 0.2248175 0.2231489 0.2215965 0.2201638
 0.2188958 0.2177895 0.2168498 0.2160749 0.2154603 0.2150079 0.2147239 0.2145997 0.2146264 0.2147934
 0.2150811 0.2155019 0.2160535 0.216765 0.2176486 0.2187289 0.2200147 0.2215298 0.2232828 0.2252768
 0.2275211 0.2299453 0.232548 0.2352074 0.2379174 0.2405885 0.2432155 0.2457252 0.2480956 0.2501738
 0.2519431 0.2532473 0.2541349 0.2546185 0.2547875 0.2547754 0.2546573 0.254565 0.2545202 0.2545877
 0.2547324 0.2549473 0.2552226 0.2555325 0.2559751 0.2565601 0.257416 0.2585869 0.2599301 0.2614441
 0.2628678 0.2641904 0.2653792 0.2664394 0.267416 0.2683062 0.2691145 0.269839 0.2704762 0.2710239
 0.2714921 0.2718367 0.2720217 0.2719362 0.2714426 0.2704931 0.268986 0.2669964 0.2645438 0.2616589
 0.2583422 0.2546726 0.2506367 0.2464821 0.2422362 0.2381333 0.2342028 0.230468 0.2269301 0.2234937
 0.2201589 0.2168899 0.2137021 0.2106626 0.2077819 0.2051431 0.2027177 0.2004933 0.1984157 0.196394
 0.1944002 0.1923723 0.1902955 0.1881577 0.1858934 0.1834663 0.180832 0.1779063 0.1749628 0.1720184
 0.1694788 0.1674455 0.1658258 0.1646309 0.1635733 0.1626401 0.1617413 0.1608857 0.1601439 0.159521
 0.1590797 0.1588136 0.1587218 0.1588247 0.1591544 0.1597622 0.1607465 0.1621275 0.163975 0.1662556
 0.1689576 0.1720808 0.1756058 0.1795984 0.184055 0.1891175 0.1947434 0.2014466 0.2091799 0.2193173
 0.231949 0.2486751 0.2695651 0.2937553 0.3209513 0.3473856 0.372885 0.3944913 0.4124418 0.4259337
 0.435358 0.4410908 0.4436795 0.4441224 0.4428173 0.4406518 0.4375401 0.4336962 0.4289471 0.4231231
 0.4166242 0.4095085 0.4022901 0.3951239 0.3881752 0.3814799 0.3751881 0.3693118 0.3640389 0.3593789
 0.3552954 0.3517666 0.3485279 0.3455488 0.3425332 0.3394533 0.3360511 0.3323335 0.3281587 0.3236251
 0.3188169 0.3138397 0.3088465 0.3038839 0.298996 0.2943301 0.2899238 0.2860669 0.2828677 0.2805219
 0.2791215 0.2786162 0.2790354 0.2801323 0.2819081 0.2838622 0.2859666 0.2875091 0.2884751 0.2884599
 0.2875314 0.2858532 0.2835248 0.2809586 0.2782437 0.2757849 0.2736263 0.272046 0.2709606 0.270425
 0.2702199 0.270217 0.2701866 0.2699688 0.269457 0.2685553 0.2673291 0.2657471 0.2640489 0.2622491
 0.2606678 0.2593355 0.258475 0.2580996 0.2583242 0.2591552 0.2607081 0.2629843 0.2660699 0.269929
 0.2745088 0.2797123 0.2853367 0.2911869 0.2969284 0.3022349 0.3066393 0.3098577 0.3114363 0.3115361
 0.3099875 0.3075047 0.3042626 0.3009836 0.2979124 0.2952615 0.2931307 0.2913274 0.2898477 0.2884542
 0.2871337 0.2857965 0.2844481 0.2831415 0.2818857 0.2807647 0.2797722 0.278933 0.2782296 0.2776361
 0.2771292 0.2766661 0.276215 0.2757257 0.2751727 0.2745147 0.2737594 0.2728944 0.2719532 0.2709467
 0.2698929 0.2688023 0.2676603 0.2664657 0.2652043 0.263871 0.2625035 0.2611035 0.2597718 0.2585159
 0.2574549 0.2565954 0.2560352 0.2557802 0.2559053 0.2564091 0.2573365 0.2586548 0.2603498 0.2623395
 0.2645437 0.2668457 0.2691397 0.2713138 0.273282 0.2749755 0.2763445 0.2773848 0.278077 0.2784825
 0.2786008 0.2785388 0.2783031 0.2780174 0.2776889 0.277431 0.277247 0.2772077 0.2773065 0.2775434
 0.2779005 0.2783152 0.2787692 0.2791849 0.2795602 0.279851 0.2800798 0.2802491 0.2804 0.2805606
 0.2807779 0.2810775 0.2815146 0.2821045 0.2829283 0.2840034 0.285417 0.2871928 0.2893353 0.2918586
 0.2946061 0.2975708 0.3004751 0.3033046 0.3057985 0.3079594 0.3096637 0.3109437 0.3118407 0.3124106
 0.3128017 0.3130724 0.3133867 0.3137763 0.3143494 0.3150898 0.3160295 0.3171109 0.3183144 0.3195815
 0.3208821 0.3221976 0.3235137 0.3248486 0.326203 0.3275947 0.3290254 0.3305042 0.3320315 0.3336481
 0.3353599 0.3372595 0.3393537 0.3417384 0.3444025 0.3473691 0.3505931 0.3539917 0.3574865 0.36092
 0.3642033 0.3671733 0.3697698 0.3718837 0.3735141 0.3746203 0.37526 0.375436 0.3752396 0.3746876
 0.3738802 0.3728336 0.3716333 0.37029 0.368854 0.3673288 0.3657323 0.3640655 0.3623455 0.360579
 0.3588142 0.3570655 0.3554114 0.3538661 0.3525053 0.3513318 0.350387 0.3496612 0.3491597 0.3488702
 0.3487839 0.3488923 0.3491892 0.3496649 0.3503153 0.3511288 0.3521 0.3532301 0.3545155 0.3559829
 0.357633 0.3595078 0.3616097 0.3639723 0.3665959 0.3694883 0.3726449 0.3760419 0.379669 0.3834752
 0.3874476 0.3915275 0.3957069 0.3999441 0.4042416 0.4085838 0.4129832 0.4174418 0.4219803 0.4266079
 0.4313513 0.4362229 0.4412403 0.446415 0.4517324 0.4571969 0.4627562 0.4684078 0.4740806 0.4797705
 0.4854026 0.4909719 0.4963927 0.5016556 0.5066593 0.5113889 0.5157385 0.5196856 0.5231278 0.5260304
 0.5282917 0.5298757 0.5306932 0.5307401 0.5299667 0.5284348 0.526144 0.5232282 0.5197194 0.5157993
 0.5115085 0.5070376 0.5024207 0.4978159 0.4932448 0.4888022 0.4844966 0.4803386 0.4763225 0.4723534
 0.4684062 0.4642727 0.4599141 0.4550628 0.4497032 0.4436349 0.4369221 0.429545 0.4216845 0.413506
 0.4052986 0.3973174 0.3899049 0.3833057 0.3778142 0.373611 0.3708234 0.3695547 0.3696685 0.3712
 0.3737192 0.3772114 0.3810326 0.3851449 0.3888843 0.3922254 0.3947146 0.3963687 0.3970692 0.3968793
 0.3959665 0.3944235 0.3925572 0.3904737 0.3884891 0.3867024 0.3853633 0.3845196 0.3843177 0.3846955
 0.385693 0.3871132 0.3889195 0.3908247 0.3927628 0.3944456 0.3958155 0.3966651 0.3969606 0.3966222
 0.3956402 0.3940719 0.3919258 0.3893603 0.3863913 0.3832042 0.3798095 0.37635 0.3728254 0.3693086
 0.3657919 0.3622937 0.3588105 0.3553385 0.3518957 0.3484849 0.3451587 0.3419379 0.3389016 0.3360813
 0.3335525 0.3313426 0.329494 0.3280225 0.3269229 0.3262008 0.3257997 0.325718 0.3258466 0.3261769
 0.3265536 0.3269633 0.3272346 0.3273577 0.3271973 0.326759 0.3259834 0.3248947 0.3235036 0.3218487
 0.3199745 0.3179354 0.3157836 0.3135901 0.3114048 0.3092983 0.3073081 0.3054868 0.3038536 0.3024497
 0.3012843 0.3003916 0.2997798 0.2994375 0.2993669 0.2994604 0.2997078 0.2999115 0.300056 0.2999302
 0.2995313 0.2987261 0.2975393 0.2959589 0.2940356 0.2918502 0.2894605 0.2869718 0.2844265 0.2819003
 0.2794053 0.2769738 0.2745908 0.2722576 0.2699575 0.2676815 0.2654412 0.2632334 0.2610963 0.2590338
 0.2570747 0.2552221 0.2534721 0.2518241 0.2502579 0.2487726 0.2473526 0.2459963 0.2446906 0.2434301
 0.2421953 0.2409781 0.2397549 0.2385189 0.2372511 0.2359494 0.2346039 0.2332191 0.2317935 0.2303372
 0.2288518 0.2273532 0.225844 0.2243474 0.2228684 0.2214227 0.2200156 0.2186288 0.2172625 0.2158689
 0.2144463 0.2129636 0.2114254 0.209852 0.2082545 0.2066901 0.2051703 0.2037564 0.2024553 0.2013115
 0.2003191 0.1994951 0.1988101 0.1982513 0.1977696 0.1973357 0.1968991 0.1964335 0.1959007 0.195285
 0.1945632 0.1937274 0.1927721 0.1916939 0.1905102 0.1892212 0.1878681 0.1864538 0.1850331 0.1836085
 0.1822262 0.1808843 0.1796003 0.1783668 0.1771737 0.1760128 0.1748638 0.1737212 0.1725681 0.171405
 0.1702228 0.1690346 0.1678422 0.1666707 0.1655316 0.1644419 0.1634129 0.1624333 0.1615053 0.1606004
 0.1597143 0.1588364 0.1579646 0.1571263 0.1563236 0.1556068 0.154978 0.1544794 0.1541093 0.1538845
 0.1538 0.153852 0.1540325 0.1543281 0.154724 0.1552005 0.1557295 0.1562847 0.1568263 0.1573243
 0.1577425 0.1580555 0.1582541 0.1583244 0.1582961 0.1581682 0.1579941 0.1577798 0.1575682 0.1573633
 0.1571781 0.1570132 0.1568683 0.1567452 0.1566581 0.1566114 0.1566343 0.1567252 0.1569002 0.1571419
 0.1574304 0.1577338 0.1580036 0.1582093 0.1583019 0.1582752 0.1581019 0.1578169 0.1574191 0.1569781
 0.1565102 0.156086 0.1557241 0.1554542 0.155286 0.1551967 0.1551861 0.1552126 0.1552746 0.1553546
 0.1554543 0.1555828 0.1557385 0.1559218 0.1561225 0.1563108 0.1564784 0.1565894 0.1566538 0.1566653
 0.1566513 0.1566347 0.15664 0.1566922 0.1567975 0.1569669 0.1571908 0.1574711 0.1577874 0.1581386
 0.1584939 0.1588504 0.1591742 0.1594627 0.159691 0.1598582 0.1599509 0.1599695 0.1599092 0.1597723
 0.1595657 0.1592935 0.1589722 0.1586038 0.1582002 0.1577611 0.1572883 0.1567897 0.1562695 0.155747
 0.1552366 0.1547495 0.1542999 0.1538697 0.1534602 0.1530367 0.1525908 0.1521092 0.1515862 0.1510441
 0.1504834 0.1499345 0.1493984 0.1488873 0.1484015 0.1479464 0.1475253 0.1471569 0.1468433 0.1466038
 0.1464301 0.1463176 0.1462511 0.1462063 0.1461739 0.1461335 0.1460884 0.1460314 0.1459787 0.145933
 0.1459181 0.145942 0.146021 0.1461621 0.146359 0.1466132 0.1469056 0.1472346 0.1475931 0.1479813
 0.148413 0.1488896 0.1494312 0.1500375 0.1507188 0.1514719 0.152293 0.153176 0.154109 0.1550823
 0.1560805 0.1570866 0.1580812 0.1590435 0.159951 0.1608011 0.1615784 0.1623214 0.163032 0.1637752
 0.1645657 0.1654443 0.1664233 0.1674823 0.1686229 0.1697786 0.1709462 0.1720645 0.1731335 0.1741315
 0.1750623 0.1759326 0.1767463 0.1775153 0.1782485 0.1789644 0.1796852 0.1804459 0.1812774 0.1822204
 0.1833041 0.1845588 0.1860069 0.187668 0.1895475 0.1916567 0.1939688 0.1964835 0.1991569 0.2019813
 0.2049432 0.2080388 0.2113051 0.2147444 0.2184112 0.2223056 0.2264525 0.2308449 0.2354614 0.2402927
 0.2452962 0.2504724 0.2558005 0.261287 0.2669456 0.2727441 0.2786918 0.2846438 0.290561 0.2961314
 0.3012527 0.3054904 0.3086935 0.3105268 0.3108464 0.3097366 0.3071392 0.3036177 0.2992005 0.2945719
 0.2897657 0.2852184 0.2809277 0.2770307 0.2735063 0.270324 0.267464 0.2648488 0.2624694 0.2602675
 0.2582459 0.2563866 0.2546881 0.2531517 0.2517465 0.2504615 0.2492378 0.248046 0.2468389 0.2455893
 0.2442973 0.2429542 0.2415913 0.2402132 0.2388322 0.2374516 0.2360472 0.234618 0.2331427 0.2316247
 0.2300888 0.2285435 0.2270481 0.225604 0.2242506 0.2229751 0.22177 0.2206219 0.2195051 0.2184163
 0.217345 0.2162839 0.215231 0.2141604 0.2130573 0.2119104 0.2106973 0.2094878 0.2082906 0.2071789
 0.2061751 0.2052279 0.2043368 0.2034225 0.2024814 0.2015014 0.2004872 0.1994876 0.1985056 0.1975844
 0.196717 0.1958995 0.1951318 0.1944056 0.1937384 0.1931548 0.192665 0.1922978 0.1920287 0.1918553
 0.1917344 0.1916412 0.1915569 0.1914635 0.1913843 0.1913183 0.1913047 0.1913512 0.1914667 0.1916555
 0.1918713 0.1921115 0.192302 0.1924411 0.1924832 0.192436 0.1923136 0.1921317 0.191949 0.191777
 0.1916769 0.1916332 0.1916586 0.1917066 0.1917271 0.1917021 0.1915809 0.1914348 0.1912745 0.1912055
 0.1912743 0.1915117 0.1919453 0.1925101 0.1932073 0.1939267 0.1946606 0.1952989 0.1958356 0.1962125
 0.1964353 0.1965468 0.1965627 0.1965941 0.1966462 0.1968007 0.1970407 0.1973713 0.1977673 0.198192
 0.1986286 0.1990439 0.1994347 0.199788 0.2001071 0.2003945 0.2006383 0.2008392 0.2009669 0.2010125
 0.2009672 0.2008236 0.2006202 0.2003592 0.2000819 0.1997906 0.1994782 0.1991416 0.1987383 0.1982676
 0.1976995 0.1970427 0.1963055 0.1955094 0.1947031 0.1939143 0.1932111 0.1925997 0.1921221 0.1917454
 0.1914625 0.191229 0.1910191 0.1908096 0.1905877 0.1903387 0.190059 0.1897287 0.1893429 0.1889004
 0.1883983 0.1878753 0.1873335 0.1868355 0.1863834 0.1860251 0.1857544 0.1855659 0.1854427 0.1853224
 0.1851958 0.1850024 0.1847616 0.1844743 0.1841692 0.1838865 0.1836215 0.1833906 0.18316 0.1829117
 0.1826388 0.1823264 0.1820145 0.1817099 0.181445 0.1812312 0.1810435 0.1808836 0.1806831 0.1804383
 0.1800933 0.1796492 0.179104 0.178466 0.1777821 0.1770611 0.1763603 0.175677 0.175036 0.1744235
 0.1738231 0.1732374 0.1726532 0.1721057 0.1716195 0.1712168 0.170931 0.1707138 0.1705638 0.1703997
 0.1701929 0.1699404 0.1696271 0.169349 0.1691142 0.1689878 0.1689738</values></Ydata></AB><ScSm><Ydata ylabel="Single channel"><values byteorder="INTEL" format="FLOAT32" numvalues="1814"> 0.05948954 0.05952021 0.05960622 0.05976185 0.05995561 0.06013266 0.06025288 0.0603122 0.06032687 0.06030585
 0.0602594 0.06023116 0.06028548 0.06044511 0.06065556 0.06082014 0.06087285 0.06083592 0.060811 0.060881
 0.0609981 0.06099521 0.06074423 0.06030292 0.05987691 0.05962939 0.05958198 0.05973713 0.06017227 0.06083217
 0.06131141 0.06115161 0.06042011 0.05972181 0.05952956 0.0597342 0.0599312 0.05988082 0.05958042 0.05917832
 0.05901455 0.05952359 0.06080736 0.06229053 0.06293046 0.06187412 0.05906578 0.05543915 0.05257297 0.05184598
 0.0534662 0.05619069 0.05825848 0.05879762 0.0582437 0.05744617 0.05675411 0.05613064 0.05574401 0.05599206
 0.05694899 0.05800122 0.05816715 0.05693529 0.05487572 0.05323876 0.05281783 0.05345079 0.05468637 0.0562712
 0.05747733 0.05671973 0.05311896 0.04847271 0.04644843 0.04909484 0.05465638 0.0592956 0.06050615 0.05850225
 0.05509356 0.05219197 0.05110727 0.05218982 0.05474664 0.05761582 0.05987794 0.06091335 0.06024971 0.05796674
 0.05509661 0.05312724 0.05309095 0.05515795 0.05859832 0.06185037 0.06323327 0.0621883 0.05964768 0.05704882
 0.0553892 0.05523195 0.05684533 0.05991995 0.06355363 0.06677744 0.06895298 0.0698317 0.06960003 0.06875905
 0.06774554 0.06687073 0.06658959 0.06721275 0.06818151 0.06828748 0.06698865 0.06512933 0.06406766 0.06427126
 0.0649462 0.06500413 0.06416202 0.06276112 0.06069412 0.05739362 0.05314066 0.04940086 0.04735903 0.04702333
 0.04810308 0.05046553 0.05310497 0.05408996 0.05268554 0.05069572 0.0506713 0.05318655 0.0565493 0.05886068
 0.05976468 0.06030595 0.06158284 0.06362909 0.06527299 0.06502025 0.06253922 0.05950006 0.0583941 0.06008663
 0.06298514 0.06499707 0.06573258 0.06627311 0.06727701 0.06795915 0.06690933 0.06376868 0.06013668 0.05859121
 0.06044669 0.06443689 0.06763405 0.06762303 0.06412601 0.05905283 0.05500623 0.05348714 0.05449151 0.0574891
 0.06200228 0.0671007 0.0711744 0.0728402 0.07195796 0.06952612 0.06654595 0.0631052 0.05893907 0.05497139
 0.0534725 0.05590085 0.06103497 0.06599988 0.06883001 0.06943733 0.06848319 0.06616288 0.06239301 0.0579719
 0.05495372 0.0550538 0.05758906 0.05987252 0.06003064 0.0587061 0.05766825 0.05760387 0.05787106 0.05785402
 0.0578273 0.05847137 0.05989721 0.06138841 0.06210175 0.06184294 0.06109059 0.0604324 0.06003123 0.05951552
 0.05849177 0.05731928 0.05706856 0.05835956 0.06052268 0.06229283 0.06307983 0.06318279 0.0629566 0.06218375
 0.06040437 0.05780784 0.05557793 0.05501318 0.05627689 0.05830903 0.05992757 0.06066348 0.0606396 0.06015888
 0.059502 0.05882224 0.05818696 0.05779013 0.05790935 0.05851748 0.05918349 0.05950958 0.05946619 0.05920649
 0.058775 0.05813898 0.05738751 0.05676958 0.05652411 0.05669573 0.05712485 0.05758757 0.05789904 0.0579307
 0.05765718 0.05720411 0.05674718 0.0563507 0.05598841 0.05569812 0.05559061 0.05568933 0.05586435 0.05595963
 0.05591863 0.05576319 0.05551847 0.05520201 0.05484685 0.05449999 0.05421463 0.05404116 0.05398478 0.05397619
 0.05393248 0.05384031 0.05373441 0.05361813 0.05346455 0.05328134 0.05311976 0.05302288 0.05299348 0.05300064
 0.05299177 0.05290049 0.05266912 0.052301 0.05190624 0.05165331 0.05163089 0.05177789 0.05196898 0.05212134
 0.05219768 0.05217886 0.05208378 0.05196783 0.05185962 0.05172826 0.05153726 0.05131465 0.0511525 0.05112912
 0.05122741 0.0513459 0.05139849 0.05137774 0.05131859 0.05124893 0.05118933 0.05115113 0.05111363 0.05103897
 0.05092204 0.05080325 0.05072933 0.05071032 0.0507083 0.05067163 0.050593 0.05052079 0.05049768 0.05051015
 0.05051611 0.05049754 0.05046571 0.05043041 0.0503783 0.05028181 0.0501352 0.04997803 0.04986245 0.04979804
 0.04975283 0.0497054 0.04966741 0.04965288 0.04964957 0.0496291 0.04957708 0.04950672 0.04943991 0.04937733
 0.0492997 0.04920107 0.0491052 0.04904077 0.04901156 0.04899782 0.04897972 0.04895377 0.04892864 0.04890922
 0.04888838 0.04885299 0.04879257 0.0487055 0.0486068 0.04852644 0.04848416 0.04846388 0.04842414 0.04833786
 0.04821712 0.04809905 0.04801032 0.04794566 0.04788175 0.04780959 0.04774576 0.04771078 0.047707 0.04772169
 0.0477416 0.04776123 0.04778869 0.04784949 0.04797128 0.04815181 0.04834818 0.04851098 0.04862966 0.04873617
 0.04886629 0.04902668 0.04919904 0.04936697 0.04953519 0.04972288 0.0499351 0.05014508 0.0503179 0.05045169
 0.05058016 0.05073373 0.05091469 0.05110916 0.05130114 0.05147139 0.05160624 0.05171758 0.05183769 0.05198384
 0.05214055 0.05228531 0.05241937 0.0525617 0.05272237 0.05289678 0.05308289 0.05328943 0.05352283 0.05377241
 0.05401118 0.05421235 0.05437279 0.05452544 0.05472137 0.0549888 0.05530759 0.05562631 0.05590582 0.05614778
 0.05638175 0.05662787 0.05688092 0.05713461 0.05740635 0.0577195 0.05806784 0.05841694 0.05874191 0.05904908
 0.05935948 0.05968385 0.06001768 0.06035331 0.0606905 0.06103424 0.06138255 0.06172051 0.06203104 0.06231125
 0.0625761 0.06284866 0.0631455 0.06346107 0.06376252 0.06401433 0.06421989 0.06442577 0.06466977 0.06493583
 0.06518017 0.06539384 0.06561285 0.06586534 0.06613404 0.06638288 0.06660371 0.06682117 0.06705637 0.06729628
 0.0675013 0.06764143 0.0677251 0.0677911 0.06787387 0.06798391 0.06812257 0.06829774 0.06850928 0.06872865
 0.06891254 0.06903589 0.0691015 0.06912646 0.06913418 0.06915003 0.06918543 0.06922784 0.069256 0.06925809
 0.06923316 0.06919485 0.06918246 0.06924374 0.06938948 0.06958203 0.06978147 0.06998308 0.0701941 0.0703976
 0.0705668 0.07070319 0.07083057 0.07094911 0.07101949 0.07100031 0.07088193 0.07067584 0.0703913 0.07003684
 0.06962153 0.06912754 0.0684866 0.06760313 0.06640141 0.06484703 0.06294431 0.06074451 0.05836607 0.05599631
 0.05386176 0.05218264 0.05113051 0.05080085 0.05120176 0.05225061 0.05377402 0.05552483 0.0572275 0.05863573
 0.05957454 0.05996018 0.05980226 0.05917754 0.05817215 0.05683139 0.05516247 0.05317407 0.05089605 0.04836355
 0.04560513 0.04266234 0.0396192 0.03660855 0.0337875 0.03129764 0.02923426 0.02764194 0.0265281 0.0258658
 0.02557625 0.0255153 0.02549031 0.02530524 0.02481431 0.02396446 0.02280715 0.02146791 0.02008915 0.01878369
 0.01762117 0.01663668 0.01584148 0.01523329 0.01481242 0.01459547 0.014615 0.01490513 0.01548636 0.01635374
 0.01747089 0.01877316 0.02018526 0.02164386 0.02310964 0.02456357 0.02599991 0.02742608 0.02886256 0.03033314
 0.0318517 0.0334185 0.03502268 0.03663785 0.03821003 0.03965194 0.04085135 0.04168596 0.04204111 0.04184129
 0.04110336 0.03997811 0.03871216 0.03750638 0.03636552 0.03508697 0.03342579 0.03129944 0.02886467 0.0264379
 0.02436362 0.02293015 0.02235475 0.02280584 0.02442092 0.02727983 0.03133268 0.03633258 0.04184727 0.04737547
 0.0525097 0.05704895 0.06100177 0.06449929 0.06768614 0.07065134 0.07341799 0.07597268 0.07830043 0.08040173
 0.08229271 0.08400279 0.08557079 0.08703153 0.08839969 0.08967066 0.09084 0.09192032 0.09293992 0.09392686
 0.0948915 0.09582347 0.0967095 0.09755315 0.09837015 0.09916767 0.09993989 0.1006844 0.1014109 0.1021297
 0.1028416 0.1035381 0.1042054 0.1048278 0.1053957 0.1059136 0.1063945 0.1068475 0.1072747 0.1076767
 0.1080587 0.108428 0.1087884 0.1091378 0.1094723 0.1097905 0.1100917 0.1103718 0.1106244 0.1108494
 0.1110545 0.1112459 0.1114207 0.111575 0.111723 0.1119019 0.1121499 0.1124765 0.1128556 0.113248
 0.1136281 0.113991 0.1143396 0.1146752 0.1150009 0.1153238 0.1156478 0.1159669 0.1162719 0.1165574
 0.1168201 0.1170512 0.1172403 0.1173854 0.1174959 0.1175871 0.1176724 0.1177582 0.1178462 0.1179399
 0.1180493 0.1181854 0.1183509 0.1185402 0.1187469 0.1189678 0.1192028 0.1194546 0.11973 0.1200383
 0.1203864 0.1207718 0.1211792 0.1215858 0.1219751 0.122345 0.1227002 0.1230434 0.1233745 0.1236934
 0.1239995 0.1242925 0.1245772 0.1248612 0.1251473 0.1254333 0.1257215 0.1260214 0.1263415 0.1266791
 0.127022 0.1273596 0.1276911 0.128021 0.1283505 0.1286747 0.1289894 0.1292962 0.1296003 0.1299055
 0.1302098 0.1305088 0.1308021 0.1310947 0.1313905 0.1316873 0.13198 0.1322681 0.132555 0.1328428
 0.1331299 0.1334142 0.1336967 0.1339806 0.1342681 0.1345575 0.1348469 0.1351357 0.1354221 0.1357034
 0.1359808 0.136259 0.1365397 0.1368192 0.1370922 0.1373571 0.1376163 0.1378714 0.1381208 0.1383618
 0.1385956 0.1388272 0.1390595 0.1392928 0.1395271 0.1397614 0.1399936 0.1402248 0.1404601 0.1407039
 0.1409579 0.1412236 0.1414994 0.1417795 0.1420614 0.1423483 0.1426397 0.1429275 0.1432053 0.1434756
 0.1437431 0.1440091 0.1442734 0.1445363 0.1448003 0.1450697 0.1453461 0.1456243 0.1458972 0.1461627
 0.1464236 0.1466856 0.146955 0.1472353 0.1475266 0.1478281 0.148135 0.148435 0.1487202 0.1489979
 0.1492821 0.1495761 0.1498709 0.1501513 0.1504069 0.150644 0.1508856 0.1511481 0.1514246 0.151698
 0.1519591 0.1522086 0.1524526 0.1526991 0.1529517 0.1532058 0.1534558 0.1536977 0.1539276 0.1541486
 0.1543741 0.1546131 0.1548591 0.1551001 0.1553307 0.1555528 0.1557757 0.1560083 0.156246 0.1564773
 0.1567039 0.1569356 0.157171 0.1574021 0.1576301 0.1578594 0.1580902 0.1583245 0.1585593 0.1587709
 0.1589119 0.1588874 0.1584687 0.1571887 0.1543171 0.1490039 0.1406238 0.1291698 0.115386 0.1004964
 0.0857545 0.07212036 0.06016822 0.05015961 0.04216463 0.03613429 0.03194428 0.02948252 0.0287477 0.02994195
 0.03355929 0.04008708 0.04892012 0.05740906 0.06189325 0.06058294 0.0552666 0.04968386 0.04642399 0.04567664
 0.04634197 0.0474772 0.04878043 0.05041894 0.052686 0.05566795 0.05922488 0.06334632 0.06833002 0.07440124
 0.08124766 0.08814391 0.09457344 0.1006345 0.1068021 0.1133549 0.1200828 0.126495 0.132211 0.137152
 0.1414701 0.1453792 0.1490336 0.1525074 0.1558336 0.1590032 0.1618973 0.1642659 0.1658525 0.166589
 0.1666781 0.1664765 0.1662894 0.1662563 0.1663899 0.1666676 0.1670688 0.1675716 0.1681567 0.1688145
 0.1695344 0.1702932 0.1710599 0.1718084 0.172525 0.1732057 0.173844 0.1744253 0.1749421 0.1754064
 0.1758383 0.176249 0.1766425 0.1770213 0.1773832 0.1777234 0.1780426 0.1783447 0.1786261 0.1788783
 0.1791015 0.1793065 0.1795058 0.1797074 0.1799124 0.1801154 0.1803088 0.1804907 0.1806659 0.180841
 0.181018 0.1811916 0.1813554 0.1815121 0.1816723 0.1818434 0.1820226 0.1822015 0.1823715 0.1825279
 0.1826751 0.1828273 0.1829946 0.1831721 0.1833466 0.1835121 0.1836737 0.1838398 0.1840118 0.1841816
 0.1843417 0.184498 0.1846651 0.1848484 0.1850418 0.1852411 0.1854479 0.1856625 0.1858848 0.1861151
 0.1863445 0.1865517 0.1867209 0.1868626 0.1870112 0.1871977 0.1874207 0.1876472 0.1878461 0.1880171
 0.1881801 0.1883467 0.1885101 0.1886567 0.1887828 0.1889078 0.1890615 0.1892501 0.189448 0.1896324
 0.1898062 0.1899801 0.1901555 0.1903319 0.1905014 0.1906361 0.190712 0.1907526 0.1908289 0.1910039
 0.1912756 0.1915763 0.191834 0.1920308 0.1921951 0.1923572 0.1925334 0.1927143 0.1928365 0.1928211
 0.1926983 0.192643 0.1928173 0.1932075 0.1936598 0.1940392 0.1943142 0.1945226 0.1947027 0.1948549
 0.1949461 0.1949495 0.194901 0.1949156 0.1951125 0.1954934 0.1959252 0.1962716 0.1965054 0.1966738
 0.1968248 0.1969863 0.1971247 0.1971076 0.1968443 0.1965176 0.1965314 0.197119 0.1980764 0.1989749
 0.1995762 0.1999516 0.2002517 0.2005186 0.2007284 0.2008167 0.200578 0.1997863 0.1986342 0.197862
 0.1981496 0.1994298 0.2009989 0.2022196 0.2029302 0.2032953 0.2035246 0.2037303 0.2038435 0.203623
 0.2029224 0.2020399 0.2016371 0.2021264 0.2032125 0.2042163 0.2047674 0.2049941 0.2051614 0.2053737
 0.2055081 0.2051741 0.2039308 0.2019391 0.2002999 0.2002847 0.2020902 0.2046033 0.2065095 0.2074244
 0.2077868 0.2078943 0.2074653 0.2061462 0.2040379 0.2016517 0.1997644 0.1993212 0.2008034 0.2034384
 0.2056338 0.206549 0.2068103 0.2074727 0.2087579 0.2100472 0.2106917 0.2105199 0.2097295 0.2085337
 0.2070554 0.2056475 0.2050939 0.2060596 0.2082806 0.2106529 0.2122565 0.2130543 0.213406 0.2129923
 0.2106083 0.2056121 0.1997283 0.19657 0.1984516 0.2039652 0.2094919 0.212757 0.2140675 0.2146184
 0.2148954 0.2145405 0.2125449 0.2077946 0.2008211 0.1949091 0.193872 0.1982774 0.204805 0.2093484
 0.209827 0.2064147 0.2007772 0.1955602 0.1933215 0.1949851 0.1994258 0.2045747 0.2086747 0.2107615
 0.2106338 0.2087465 0.2061588 0.2042645 0.2037905 0.2037146 0.2020313 0.1982745 0.1943008 0.1915764
 0.1889184 0.1846836 0.1803298 0.1794268 0.1829751 0.1877134 0.1897739 0.1885582 0.1860347 0.1831401
 0.1782306 0.1694489 0.1580415 0.1483321 0.1436973 0.1428465 0.1408338 0.1336819 0.1213877 0.1067077
 0.09219027 0.07878327 0.06649737 0.05561562 0.04710736 0.04192194 0.04001079 0.04034765 0.04192184 0.04427785
 0.04710407 0.05017292 0.05420087 0.0609556 0.07149688 0.08450378 0.09698378 0.1062654 0.110724 0.1096547
 0.1043405 0.09910282 0.0990562 0.1055564 0.1147192 0.1211186 0.1221943 0.1187011 0.1123431 0.1046673
 0.09800234 0.09565401 0.09986772 0.1095799 0.1203917 0.1267357 0.1249778 0.1162882 0.1069194 0.1037008
 0.1078354 0.1140899 0.1166917 0.1145853 0.110578 0.1076572 0.1072512 0.1090978 0.1115256 0.1129611
 0.1132229 0.1119558 0.1069473 0.09695802 0.08565009 0.07924098 0.08003369 0.08523548 0.0920116 0.0999267
 0.1076192 0.1111304 0.1083222 0.1029218 0.1013762 0.1060499 0.1132168 0.117658 0.1178798 0.116401
 0.1158827 0.1162593 0.1161453 0.1160288 0.1183359 0.1240633 0.1309641 0.1360049 0.1384667 0.1396641
 0.1406691 0.141482 0.1417886 0.1414687 0.1405799 0.1394218 0.1384066 0.1375902 0.1366196 0.1352208
 0.1332121 0.129853 0.12403 0.1159917 0.1084107 0.1043534 0.1041148 0.1054162 0.1066892 0.1079634
 0.1079112 0.1030191 0.0921713 0.08037581 0.07511303 0.07912967 0.08842202 0.0968318 0.1007956 0.09963285
 0.0936554 0.08425366 0.07538478 0.07237726 0.07765766 0.08852971 0.1001357 0.1095878 0.116256 0.1195484
 0.1185918 0.1140604 0.1088812 0.1065791 0.1091497 0.1161541 0.1248045 0.1305827 0.1294377 0.1218947
 0.1150002 0.1170985 0.1289548 0.1423308 0.1491838 0.1498228 0.1496533 0.1507657 0.1508536 0.1491606
 0.1488829 0.1526393 0.1584716 0.1617456 0.1592545 0.1504408 0.136526 0.1203208 0.1057744 0.09558322
 0.08931908 0.08499797 0.08164778 0.07895076 0.07575424 0.07149232 0.06855261 0.07054217 0.07781634 0.08666334
 0.09337015 0.09755285 0.1009156 0.1040075 0.1053628 0.1037631 0.100558 0.09896915 0.1009889 0.105626
 0.1104639 0.1139977 0.1157159 0.1149398 0.1112649 0.1062535 0.1033274 0.1050594 0.1108242 0.1175117
 0.1222659 0.1242271 0.1241441 0.1231419 0.121895 0.1204281 0.1186431 0.1172528 0.1177113 0.120541
 0.124145 0.1262099 0.1261402 0.125247 0.1246377 0.1238941 0.1220941 0.1194158 0.1172597 0.117036
 0.1190401 0.1222463 0.1249591 0.1259345 0.125348 0.1247438 0.1256991 0.128377 0.1315453 0.1339572
 0.1353834 0.1363432 0.1373171 0.1383393 0.1389872 0.1387219 0.1376334 0.1368416 0.1376706 0.1402829
 0.1434452 0.1456964 0.1464516 0.1459751 0.1447065 0.1428902 0.1407222 0.1385861 0.1369895 0.1362556
 0.1363284 0.1368869 0.1375799 0.1381467 0.1384466 0.1384828 0.1383731 0.1382433 0.1381525 0.1380994
 0.1380336 0.1378476 0.1374079 0.1366274 0.1355031 0.1341007 0.1325476 0.1310387 0.1297847 0.1288844
 0.128235 0.1276009 0.1267834 0.1257143 0.1244132 0.1229309 0.121383 0.1200024 0.1190741 0.1187483
 0.1188903 0.11912 0.1190239 0.118365 0.1171527 0.1155896 0.1139758 0.1126035 0.1116588 0.1111793
 0.1110942 0.111298 0.1116945 0.1122104 0.1128036 0.1134642 0.1141888 0.11494 0.1156299 0.1161518
 0.1164324 0.1164537 0.1162352 0.1158091 0.1152062 0.1144397 0.1134905 0.1123164 0.1108844 0.109197
 0.1072944 0.1052397 0.1030956 0.1009079 0.09870216 0.09648795 0.0942523 0.09195629 0.08956547 0.08709835
 0.0846317 0.08224656 0.07997954 0.07783491 0.07582857 0.07400411 0.07241999 0.0711436 0.07025145 0.06980839
 0.06983311 0.07028247 0.07106224 0.07204838 0.07311174 0.07414491 0.07508217 0.0759151 0.07671411 0.07763562
 0.07887109 0.08053879 0.08258151 0.08473171 0.08655667 0.087569 0.08738106 0.0858577 0.08319393 0.07986289
 0.07644822 0.0734468 0.07114016 0.06957726 0.06863891 0.06812422 0.06782132 0.06755903 0.06724866 0.06690978
 0.06665955 0.06666295 0.06707166 0.06797992 0.06940133 0.07126293 0.07342337 0.07571812 0.07801695 0.08026496
 0.08247623 0.0846764 0.0868412 0.08888857 0.09071907 0.09224939 0.09341969 0.09420525 0.09464239 0.09483857
 0.09494825 0.09512781 0.09549148 0.09608702 0.09690045 0.09787592 0.09893101 0.09997128 0.1009138 0.1017023
 0.1022977 0.1026724 0.1028397 0.1028983 0.1030308 0.1034302 0.1042019 0.1053248 0.1066929 0.1081893
 0.1097291 0.1112709 0.1128156 0.1143895 0.1160121 0.1176741 0.1193459 0.1209961 0.1225942 0.124105
 0.1254953 0.1267505 0.1278826 0.1289177 0.1298762 0.1307669 0.1315939 0.1323558 0.1330417 0.1336485
 0.1342038 0.1347542 0.1353234 0.1358886 0.136392 0.1367638 0.1369489 0.1369422 0.1368058 0.1366379
 0.136523 0.1365103 0.1366254 0.1368788 0.1372572 0.1377175 0.1381995 0.138653 0.1390555 0.1394114
 0.1397404 0.1400625 0.1403761 0.1406426 0.1408039 0.140825 0.1407155 0.1405046 0.1402014 0.1397827
 0.1392082 0.1384418 0.1374643 0.1362781 0.1349103 0.1334105 0.1318399 0.1302568 0.1287153 0.1272662
 0.1259445 0.1247528 0.1236677 0.1226607 0.1217036 0.1207619 0.1197989 0.1187973 0.1177834 0.1168309
 0.1160278 0.1154144 0.1149481 0.114531 0.1140798 0.1135749 0.1130549 0.1125677 0.1121278 0.1117231
 0.1113531 0.1110405 0.1108102 0.1106704 0.1106097 0.1105922 0.110559 0.1104565 0.1102707 0.1100348
 0.1098064 0.1096361 0.1095501 0.1095529 0.1096343 0.1097626 0.1098784 0.1099059 0.1097689 0.1094036
 0.1087833 0.1079396 0.1069465 0.1058874 0.1048448 0.1038992 0.1031056 0.1024746 0.1019813 0.1015859
 0.1012516 0.1009656 0.1007486 0.100639 0.1006616 0.1007918 0.1009327 0.1009612 0.1008339 0.1006327
 0.1004888 0.1004783 0.1005914 0.1007571 0.1008879 0.1009294 0.10088 0.1007598 0.1005787 0.1003308
 0.0999926 0.09953471 0.09896225 0.09832932 0.09769444 0.09708337 0.09649684 0.09591591 0.09529603 0.0945832
 0.09373186 0.09270137 0.09146482 0.09002399 0.08838874 0.08656496 0.08460191 0.08262264 0.08076836 0.07912533
 0.07769635 0.07640079 0.07511963 0.07378311 0.07239717 0.07099925 0.06970716 0.06885555 0.06894039 0.07026844
 0.07264227 0.07543874 0.07801454 0.08003972 0.08149233 0.08245105 0.08297499 0.08310734 0.08286877 0.08226006
 0.08133155 0.08019592 0.07894289 0.07763271 0.07637684 0.07531093 0.07449776 0.07392813 0.07356794 0.07341807
 0.07356174 0.07380045 0.07300414 0.06968915 0.06431811 0.06036104 0.06138989 0.06706209 0.07334556 0.07677987
 0.07723455 0.07651547 0.07587723 0.07551482 0.0753764 0.0755606 0.07614391 0.07702691 0.0779652 0.07871474
 0.07917465 0.07936163 0.07924524 0.07861315 0.07702663 0.0739601 0.06922713 0.06337088 0.05749277 0.0526127
 0.04920219 0.0471809 0.04613662 0.04556903 0.04514207 0.04483974 0.04488117 0.04547267 0.04664526 0.04829714
 0.05029663 0.05246617 0.0545308 0.05623123 0.05751383 0.05851171 0.05932906 0.05993418 0.06026054 0.06031248
 0.06015256 0.05985439 0.059489 0.05910758 0.05870128 0.05820357 0.05758617 0.05695684 0.05650105 0.0563047
 0.05629282 0.0563541 0.05644689 0.05656463 0.05668045 0.05676278 0.05680773 0.05685298 0.05697589 0.0572404
 0.0576173 0.05798981 0.05825694 0.05841324 0.05852011 0.05859543 0.05853628 0.05821846 0.05771166 0.05728064
 0.05706039 0.05684254 0.05634889 0.0556487 0.05513093 0.05507629 0.05538933 0.0557513 0.05591919 0.05585774
 0.05570237 0.05567098 0.05592196 0.05637931</values></Ydata></ScSm><ScRf><Ydata ylabel="Single channel"><values byteorder="INTEL" format="FLOAT32" numvalues="1820"> 0.06062736 0.06077995 0.06086827 0.06089581 0.06089047 0.06089787 0.06096344 0.06110455 0.06129474 0.06147673
 0.06160155 0.06166174 0.06167775 0.06165857 0.06160676 0.06156286 0.06159972 0.06174851 0.06195192 0.06210539
 0.0621412 0.06208617 0.06204681 0.06210775 0.06221661 0.06219485 0.06190583 0.06141479 0.06094742 0.06067967
 0.06062776 0.06078395 0.06122778 0.06191134 0.06241921 0.06226521 0.06150112 0.06074787 0.06050676 0.06067947
 0.06085368 0.06078072 0.0604549 0.06002576 0.05984292 0.06035746 0.06167678 0.06320471 0.06386077 0.06276241
 0.05985275 0.05609868 0.05313452 0.05238554 0.05406331 0.05687984 0.05901475 0.05956779 0.05899113 0.05816704
 0.05745774 0.05681542 0.05639806 0.05661205 0.05754921 0.05859885 0.05876044 0.0575025 0.0553987 0.05372199
 0.05327985 0.0539056 0.05514472 0.05674991 0.05798158 0.05720933 0.05351851 0.04874524 0.04665979 0.04938304
 0.05512147 0.0599191 0.06117613 0.05910762 0.05559473 0.05262149 0.05152345 0.05263128 0.05521956 0.05811156
 0.06039095 0.06143615 0.06075961 0.05843269 0.05550282 0.05348675 0.05344022 0.05554248 0.05905237 0.06237323
 0.06378228 0.06270418 0.06009207 0.05742044 0.05571507 0.05555297 0.05720545 0.06035522 0.06408325 0.06739997
 0.0696442 0.07054886 0.07030326 0.06943692 0.06841378 0.06754582 0.06727299 0.06789795 0.06885909 0.06893964
 0.06759414 0.0656835 0.06459209 0.06479584 0.06548026 0.06552878 0.06465369 0.06321421 0.06110745 0.05774374
 0.05339599 0.04956609 0.04748356 0.04716648 0.04831392 0.05078664 0.05355245 0.05461735 0.05319969 0.05112962
 0.05103388 0.05353777 0.05693846 0.05929402 0.06022467 0.06079023 0.0621152 0.06423099 0.06592827 0.06567247
 0.06313123 0.06002795 0.05892321 0.06070171 0.06372069 0.06582653 0.06662319 0.06723194 0.06833555 0.06912387
 0.06814051 0.06501508 0.06139302 0.05991592 0.06191771 0.06608808 0.06942114 0.0694346 0.06584185 0.06062549
 0.0564946 0.05500643 0.05614997 0.05938391 0.06423515 0.06974745 0.07423069 0.07620643 0.07548064 0.07306969
 0.07003754 0.06650706 0.06220763 0.05811352 0.0566541 0.05942134 0.06513523 0.07070979 0.07400807 0.07490933
 0.074108 0.07179484 0.06786312 0.06319948 0.06010628 0.06051295 0.06365478 0.06650564 0.066946 0.06569505
 0.06475817 0.06492278 0.06546266 0.0656829 0.06592171 0.06698399 0.06899227 0.07108578 0.07225062 0.07223812
 0.07161032 0.07108765 0.07089324 0.07058811 0.06969181 0.06864093 0.06873345 0.07070267 0.07370694 0.07619758
 0.07747406 0.07793318 0.07802342 0.07744897 0.07558641 0.07264316 0.07013151 0.06974626 0.07172617 0.07470465
 0.07713513 0.07840699 0.07869886 0.07841495 0.07791127 0.07738522 0.07693374 0.07679684 0.07729502 0.07836595
 0.07946628 0.080118 0.08029838 0.08018303 0.07980116 0.07912476 0.07832699 0.07777231 0.07774778 0.07824976
 0.07904226 0.07986887 0.0805364 0.08086499 0.08075231 0.0803223 0.0798538 0.07952327 0.07934137 0.07932916
 0.07957388 0.08006302 0.08060734 0.08100143 0.08118664 0.08122119 0.08116276 0.08102833 0.08083557 0.08064915
 0.08057976 0.08070686 0.08098245 0.08126161 0.08146995 0.08167715 0.08194304 0.08216649 0.08218949 0.08201122
 0.08180231 0.08171856 0.08177379 0.08188765 0.08197898 0.08197722 0.08180539 0.08144816 0.08105102 0.08086701
 0.08105188 0.08155084 0.08219212 0.08281179 0.08328064 0.08352672 0.08358788 0.08357158 0.08352913 0.08342014
 0.08321528 0.08299105 0.08290574 0.08308116 0.08349282 0.08397992 0.08437528 0.08461009 0.08470821 0.08474892
 0.0848393 0.08503254 0.08524489 0.08532952 0.08525818 0.08516453 0.0851842 0.0853029 0.08538944 0.08535499
 0.08525668 0.08523762 0.08537407 0.08560567 0.08582036 0.08597768 0.0861278 0.08632185 0.0865197 0.08660395
 0.08650607 0.08630321 0.08614503 0.08609423 0.08610129 0.08613271 0.08623829 0.08645416 0.08670405 0.08686022
 0.08688575 0.0868685 0.08690543 0.08698544 0.08700858 0.08690561 0.08671207 0.08652925 0.0864394 0.08645913
 0.08654558 0.08662816 0.08664766 0.08658735 0.08647513 0.08635327 0.08624941 0.08618519 0.0862042 0.08635446
 0.08661433 0.08685269 0.08690881 0.08673546 0.08645249 0.08624133 0.08618315 0.08620329 0.08616459 0.08599911
 0.08574879 0.08550265 0.08531742 0.08519289 0.08509864 0.08501442 0.08495612 0.08496933 0.08507956 0.08523215
 0.08530147 0.08519453 0.08494466 0.08467915 0.0845025 0.08443311 0.08443009 0.0844428 0.08444759 0.08446652
 0.08453355 0.08462543 0.08466257 0.08460221 0.08449441 0.08442993 0.08446965 0.08462395 0.08484185 0.08501122
 0.08503363 0.0849254 0.08480542 0.08477175 0.08482409 0.08490996 0.08499971 0.08509481 0.08519531 0.08529509
 0.0854058 0.08556122 0.08578391 0.08605093 0.08629917 0.08647093 0.08656316 0.08663817 0.08678044 0.08703142
 0.087359 0.0876869 0.08795388 0.08815283 0.08832148 0.08849679 0.0886852 0.08888341 0.08911128 0.08939531
 0.08972421 0.09005144 0.09034617 0.09061899 0.09089556 0.09118604 0.09148638 0.09180102 0.09215562 0.09257331
 0.09302466 0.09341893 0.09367587 0.09380769 0.09391434 0.09410448 0.09442298 0.09482047 0.09517395 0.09537838
 0.0954551 0.09554076 0.09573644 0.09600256 0.09624374 0.09646071 0.09675352 0.0971784 0.09765752 0.09805118
 0.09829324 0.09843861 0.09858838 0.09878208 0.0989689 0.09908566 0.09914441 0.09921708 0.09934388 0.09950604
 0.09969838 0.09997164 0.1003606 0.1008082 0.1012079 0.1015013 0.1017015 0.1018444 0.1019547 0.1020415
 0.1020987 0.1021229 0.1021453 0.1022135 0.1023258 0.1024215 0.102461 0.1024819 0.1025515 0.102697
 0.1029087 0.1031781 0.1034896 0.103798 0.104067 0.1043292 0.1046547 0.1050402 0.1053749 0.105556
 0.105602 0.105609 0.1056292 0.1056559 0.105707 0.105845 0.1060996 0.1064257 0.1067605 0.1070858
 0.107419 0.107765 0.1080906 0.1083363 0.1084564 0.1084587 0.1084119 0.1084095 0.1085218 0.1087624
 0.1090842 0.1094124 0.1096914 0.1098961 0.1100064 0.1100073 0.1099368 0.1099008 0.1099902 0.110179
 0.1103345 0.1103297 0.1101266 0.1097541 0.1092473 0.1086334 0.10796 0.1073069 0.1067573 0.1063632
 0.106146 0.1061281 0.1063449 0.1068029 0.1074324 0.1081109 0.1087369 0.1092497 0.1095772 0.1096175
 0.1093143 0.1087257 0.1079901 0.1072389 0.10655 0.1059419 0.1053808 0.1048242 0.1043072 0.1039803
 0.1040369 0.1045955 0.1056407 0.1070355 0.1085672 0.1100151 0.1112333 0.1122012 0.1129946 0.1137024
 0.1143716 0.1150204 0.1156686 0.1163244 0.1169551 0.1175111 0.1179821 0.1184042 0.1188108 0.1192014
 0.1195531 0.1198442 0.1200733 0.1202707 0.1204717 0.1206607 0.1207697 0.1207583 0.1206646 0.1205545
 0.1204412 0.1202778 0.1200112 0.1196283 0.1191794 0.1187871 0.1186265 0.1188563 0.119533 0.1205747
 0.1218186 0.1231189 0.1243845 0.125534 0.1264723 0.127145 0.1275908 0.1279082 0.128181 0.1284525
 0.1287405 0.1290458 0.1293532 0.1296465 0.1299243 0.1302025 0.1305039 0.1308386 0.1311835 0.1314918
 0.1317389 0.1319593 0.1322237 0.1325721 0.1329727 0.1333536 0.1336797 0.1339836 0.1343054 0.1346226
 0.1348743 0.1350468 0.1351972 0.135395 0.1356726 0.1360262 0.1364179 0.1367765 0.1370386 0.1372061
 0.1373428 0.1375103 0.1377249 0.1379728 0.1382383 0.1385078 0.1387687 0.1390231 0.1392943 0.1395994
 0.13991 0.1401636 0.1403288 0.1404462 0.1405897 0.1407931 0.1410303 0.1412581 0.1414648 0.1416788
 0.1419369 0.1422415 0.1425466 0.1427931 0.1429601 0.1430793 0.1432013 0.1433572 0.1435505 0.14377
 0.144 0.1442232 0.144429 0.144624 0.1448282 0.145052 0.1452827 0.1454992 0.1456945 0.1458794
 0.1460683 0.1462689 0.1464861 0.146731 0.1470154 0.1473299 0.1476326 0.1478751 0.1480418 0.1481588
 0.1482656 0.1483891 0.1485408 0.1487223 0.1489283 0.1491482 0.14937 0.1495841 0.1497861 0.1499778
 0.1501659 0.1503576 0.1505578 0.1507672 0.1509839 0.1512094 0.1514477 0.1516948 0.1519356 0.1521545
 0.1523486 0.1525278 0.152705 0.1528849 0.1530601 0.1532249 0.1533901 0.153577 0.1537911 0.1540135
 0.15422 0.1544023 0.1545702 0.1547404 0.1549245 0.1551232 0.1553291 0.1555355 0.1557399 0.1559417
 0.1561396 0.1563331 0.156526 0.1567244 0.1569326 0.1571485 0.1573648 0.1575757 0.1577796 0.1579759
 0.1581645 0.1583481 0.1585316 0.1587203 0.1589177 0.1591215 0.1593239 0.1595185 0.1597077 0.1598987
 0.1600942 0.1602917 0.1604888 0.1606889 0.1608986 0.1611198 0.1613463 0.1615702 0.1617895 0.1620051
 0.162218 0.1624323 0.1626549 0.1628866 0.1631183 0.1633409 0.1635528 0.1637562 0.163952 0.1641384
 0.1643135 0.1644807 0.1646492 0.1648254 0.1650069 0.1651883 0.165367 0.1655408 0.1657114 0.1658885
 0.1660817 0.1662865 0.166489 0.1666831 0.166877 0.1670828 0.1673037 0.1675297 0.1677467 0.1679499
 0.1681441 0.168336 0.1685311 0.1687355 0.1689498 0.1691664 0.1693786 0.1695856 0.1697877 0.1699861
 0.1701875 0.1703991 0.1706216 0.1708492 0.1710721 0.1712802 0.1714732 0.1716634 0.171862 0.1720693
 0.1722817 0.1724984 0.1727191 0.1729439 0.1731712 0.1733915 0.1735967 0.173795 0.1739999 0.174209
 0.1744131 0.1746157 0.1748245 0.1750382 0.1752541 0.1754731 0.1756929 0.1759117 0.1761343 0.1763599
 0.1765779 0.1767845 0.1769822 0.1771597 0.1772778 0.1772301 0.1767429 0.1752668 0.1719667 0.1658951
 0.1563724 0.1434106 0.1278498 0.1110625 0.09445743 0.07911745 0.06568569 0.05444431 0.04545896 0.03867218
 0.03395452 0.03119141 0.03038121 0.03173957 0.03580951 0.04313494 0.05304004 0.06255412 0.06756964 0.0660831
 0.06011106 0.05385238 0.05020172 0.04935951 0.05009081 0.05134652 0.05279827 0.05464205 0.05720633 0.06057265
 0.06456669 0.06917828 0.07475932 0.08157227 0.08925855 0.09699358 0.1041982 0.1109893 0.1179001 0.1252342
 0.1327464 0.1398877 0.1462436 0.1517377 0.1565429 0.1608941 0.1649576 0.1688091 0.1724809 0.1759668
 0.1791461 0.1817497 0.1834894 0.1842765 0.1843262 0.1840381 0.1837637 0.183669 0.18377 0.1840369
 0.184446 0.1849807 0.1856256 0.1863587 0.187145 0.1879487 0.1887494 0.1895358 0.1902935 0.1910097
 0.1916771 0.1922887 0.1928417 0.1933455 0.1938127 0.1942476 0.1946517 0.1950296 0.1953857 0.1957237
 0.1960509 0.1963694 0.1966698 0.1969417 0.197188 0.1974193 0.1976416 0.1978554 0.1980603 0.1982585
 0.1984558 0.1986589 0.1988679 0.1990779 0.1992869 0.1994954 0.199702 0.1999061 0.2001093 0.200312
 0.2005113 0.2007062 0.2008978 0.2010844 0.2012647 0.2014434 0.201628 0.2018213 0.2020225 0.2022312
 0.2024461 0.2026604 0.2028636 0.2030519 0.2032378 0.203443 0.2036725 0.2039048 0.2041179 0.2043141
 0.204508 0.2047037 0.2048998 0.2051024 0.2053141 0.2055206 0.2057047 0.2058702 0.2060425 0.2062423
 0.2064617 0.2066732 0.2068623 0.2070446 0.207243 0.207459 0.2076719 0.2078595 0.2080206 0.2081847
 0.208393 0.2086551 0.2089387 0.2092085 0.2094539 0.2096773 0.2098849 0.2100923 0.2103077 0.2105083
 0.2106649 0.2107942 0.210963 0.2112315 0.2115922 0.2119677 0.2122779 0.2125093 0.2127087 0.2129267
 0.213188 0.2134738 0.2136965 0.2137538 0.2136776 0.2136725 0.2139292 0.2144333 0.2150083 0.2155012
 0.2158769 0.2161779 0.2164472 0.2166822 0.2168343 0.2168639 0.2168182 0.2168471 0.2170972 0.2175641
 0.2180876 0.2185173 0.218832 0.2190812 0.219297 0.2194887 0.2196126 0.2195278 0.2191429 0.2186716
 0.2185737 0.2191132 0.2200621 0.220944 0.2215029 0.2218311 0.2221044 0.222367 0.2225808 0.2226609
 0.2223703 0.221457 0.2201401 0.2192466 0.2195302 0.2209143 0.2226249 0.2239649 0.2247562 0.2251728
 0.225438 0.2256687 0.2257833 0.225518 0.2247221 0.2237362 0.2232987 0.2238687 0.2251123 0.2262605
 0.2268933 0.2271625 0.2273763 0.2276528 0.2278443 0.2275008 0.2261211 0.2238893 0.2220541 0.2220533
 0.2241057 0.2269486 0.2290915 0.2301003 0.2304789 0.2305675 0.2300393 0.22849 0.2260515 0.2233252
 0.2211888 0.2206839 0.2223313 0.2252583 0.22769 0.2287 0.2289929 0.2297384 0.2311766 0.2326201
 0.2333471 0.2331613 0.2322804 0.2309434 0.2292897 0.2277191 0.2271172 0.2282299 0.2307543 0.2334449
 0.2352655 0.2361785 0.2365998 0.2361779 0.2335475 0.2279721 0.2213907 0.217877 0.2200394 0.2262946
 0.23257 0.2363092 0.2378717 0.2386153 0.2390724 0.2388083 0.2366792 0.2314558 0.2237633 0.2173087
 0.2163784 0.2215952 0.2292106 0.234605 0.2354341 0.2318732 0.2257884 0.2201825 0.2179683 0.2202052
 0.2256379 0.2319336 0.237081 0.2399533 0.2403009 0.2386262 0.2361379 0.2344721 0.2345147 0.2350894
 0.233845 0.2302289 0.2264059 0.2240704 0.2218132 0.2177242 0.2136019 0.2137671 0.2194524 0.2267371
 0.2309525 0.231415 0.2305741 0.229551 0.2262124 0.2182326 0.2074867 0.2001384 0.2012559 0.2095557
 0.2185495 0.2229012 0.2226687 0.2214054 0.2214161 0.2214059 0.2183074 0.2112909 0.2038099 0.2006999
 0.2030237 0.2071161 0.2089201 0.2072206 0.2022053 0.1941604 0.185818 0.1831999 0.1905333 0.2050721
 0.2192481 0.2269021 0.2255277 0.2149101 0.1980171 0.1828313 0.1784625 0.1869757 0.200875 0.2100005
 0.2095831 0.2010773 0.1878273 0.1728037 0.1600008 0.1548386 0.1609144 0.1763678 0.1939035 0.204387
 0.2018805 0.1882923 0.173856 0.1697673 0.1779546 0.1897175 0.1954694 0.1934408 0.1883127 0.1852052
 0.1867356 0.1925374 0.1996423 0.2052767 0.2090741 0.2099183 0.2029589 0.1854336 0.1643696 0.1519554
 0.1528878 0.161958 0.173797 0.1876997 0.2012914 0.2072148 0.2014273 0.1908698 0.187565 0.1958541
 0.2086796 0.2162193 0.2156062 0.2114612 0.2087613 0.2075455 0.205369 0.2030168 0.2047206 0.212313
 0.2220213 0.2286789 0.2311004 0.2316136 0.2321097 0.2326079 0.232592 0.2318763 0.2305255 0.2289829
 0.2279381 0.2275512 0.2273014 0.226778 0.2256603 0.2225124 0.2150919 0.2035062 0.1922265 0.1865462
 0.1869616 0.1895413 0.1917683 0.1939973 0.1939887 0.1853883 0.1661245 0.1452801 0.136479 0.1447219
 0.1626656 0.1789902 0.1870676 0.1855217 0.1748373 0.1575597 0.1409987 0.1349473 0.1437009 0.1619404
 0.1804212 0.1939404 0.2019361 0.2040755 0.1992717 0.1888289 0.1777145 0.1717207 0.173928 0.1833444
 0.1952521 0.2024399 0.1987234 0.1850795 0.1723629 0.1733092 0.1891789 0.2076691 0.2167508 0.2168566
 0.2160001 0.2173105 0.2174809 0.215522 0.2162736 0.2237656 0.2353018 0.2441268 0.2453606 0.237922
 0.2239119 0.2091183 0.2015129 0.2048213 0.2142216 0.2215342 0.2231132 0.219376 0.2099859 0.1958712
 0.1843325 0.1846542 0.1973526 0.2129624 0.2227917 0.226836 0.2298341 0.2331096 0.2329713 0.2263153
 0.2158188 0.2082971 0.2079677 0.2127585 0.217814 0.2206158 0.2210191 0.2183485 0.2118182 0.2038227
 0.1999673 0.2041893 0.2146531 0.2254368 0.2318064 0.2331661 0.2316674 0.2294214 0.2270866 0.2240343
 0.2197468 0.2156453 0.2148251 0.2187522 0.2249349 0.2294884 0.2315869 0.2337388 0.2378375 0.24255
 0.2449413 0.243679 0.2402984 0.2378602 0.2384935 0.2417119 0.2447805 0.2450476 0.2424628 0.2398604
 0.240353 0.2443652 0.2495703 0.2535391 0.2557206 0.2569396 0.2579727 0.2588663 0.258904 0.2571481
 0.2537692 0.2508235 0.2507982 0.2541475 0.2588645 0.2625582 0.2643836 0.2649049 0.264786 0.2640956
 0.2626946 0.2608646 0.2593242 0.2586641 0.258922 0.2597269 0.2606841 0.2615493 0.2622089 0.2626588
 0.2629638 0.2631716 0.263297 0.2633817 0.2634717 0.2635254 0.2634558 0.2633044 0.2632658 0.2634706
 0.2638152 0.2640747 0.2641101 0.2638822 0.2633333 0.2623985 0.2611303 0.2596846 0.2581422 0.2564591
 0.2547007 0.2532854 0.2528504 0.253772 0.2558135 0.2582707 0.260453 0.2620265 0.2629938 0.2635019
 0.2637165 0.2637832 0.2637931 0.263757 0.2636389 0.2634188 0.2631152 0.2627584 0.2623684 0.2619675
 0.261594 0.2612807 0.2610196 0.2607594 0.2604411 0.2600335 0.2595439 0.2590083 0.2584595 0.2578902
 0.2572495 0.2564869 0.2556 0.2546425 0.2536948 0.2528194 0.2520224 0.2512562 0.2504714 0.249652
 0.2487827 0.247809 0.2466925 0.2455078 0.2444251 0.2435653 0.2428983 0.2422949 0.2416417 0.2408844
 0.2400097 0.2390355 0.2380043 0.2369499 0.2358713 0.2347475 0.2335622 0.2323052 0.2309678 0.2295486
 0.2280509 0.2264817 0.2248625 0.2232265 0.2215731 0.2198287 0.2178629 0.2155395 0.2127449 0.2093988
 0.2054745 0.2010306 0.1962204 0.1912597 0.1863607 0.1816856 0.1773506 0.1734545 0.1700862 0.1673153
 0.1651934 0.1637622 0.1630498 0.1630613 0.1637746 0.165142 0.1670918 0.169527 0.1723182 0.1753046
 0.1783099 0.1811736 0.1837923 0.1861584 0.1883456 0.1904237 0.1923875 0.1941865 0.1957976 0.1972318
 0.1984852 0.1995322 0.2003724 0.2010522 0.2016302 0.2021383 0.2025804 0.2029559 0.2032722 0.2035376
 0.2037567 0.2039377 0.2040975 0.2042569 0.2044352 0.2046478 0.2049036 0.205212 0.2055933 0.2060633
 0.2066014 0.2071585 0.2077101 0.2082792 0.2088992 0.2095764 0.2103045 0.2111026 0.2120223 0.2131113
 0.2143697 0.2157416 0.2171428 0.2184857 0.2196874 0.2206822 0.2214397 0.2219614 0.2222618 0.2223622
 0.2222938 0.2220915 0.2217876 0.2214108 0.220978 0.2204841 0.2199167 0.2192828 0.2186064 0.2179041
 0.2171808 0.216448 0.2157308 0.2150504 0.2144046 0.2137735 0.2131414 0.2125089 0.2118846 0.2112743
 0.2106821 0.2101119 0.2095581 0.2090038 0.2084344 0.207843 0.2072148 0.2065191 0.2057272 0.2048303
 0.2038309 0.2027257 0.2015113 0.2001998 0.1988167 0.197378 0.1958795 0.1943085 0.1926626 0.1909488
 0.1891622 0.187279 0.1852901 0.1832429 0.181234 0.1793527 0.1776334 0.1760577 0.1745881 0.1731973
 0.1718728 0.1706022 0.16937 0.1681771 0.1670491 0.1660062 0.1650347 0.1641053 0.16321 0.1623706
 0.1616162 0.1609612 0.160402 0.15993 0.1595383 0.1592131 0.1589412 0.1587387 0.1586467 0.1586729
 0.1587569 0.1588127 0.1587916 0.1586977 0.158567 0.1584386 0.1583325 0.1582502 0.1581886 0.1581257
 0.1579939 0.1576921 0.157131 0.1562598 0.155068 0.1535822 0.1518631 0.1500104 0.1481672 0.1464828
 0.1450497 0.1438899 0.1429899 0.1423123 0.1417909 0.1413667 0.1410363 0.1408482 0.1408579 0.1410643
 0.1413561 0.1415573 0.1415856 0.1415477 0.1416434 0.142004 0.1426287 0.1434125 0.1442107 0.1449141
 0.1454749 0.1458736 0.1461083 0.1462163 0.1462485 0.1462176 0.1461091 0.145923 0.1456721 0.1453682
 0.1450224 0.1446271 0.1441519 0.1435817 0.1429281 0.1421955 0.1413829 0.1404973 0.1395109 0.1383659
 0.1371079 0.1359635 0.1352193 0.1350522 0.1354569 0.1362627 0.1372454 0.1382815 0.1393188 0.1401803
 0.1406063 0.1406453 0.1408534 0.1418901 0.1438916 0.1463246 0.1484618 0.1499081 0.1506484 0.1507685
 0.1503246 0.1493848 0.1479847 0.1460781 0.1436631 0.1408661 0.1378394 0.1347251 0.1317329 0.1290713
 0.1268238 0.124997 0.1235875 0.122626 0.1222294 0.1220278 0.1201409 0.1141469 0.1048279 0.0978516
 0.09900109 0.1076684 0.1172854 0.1222642 0.1224402 0.1207729 0.1192985 0.1183166 0.1177387 0.1177478
 0.1184885 0.119782 0.1211924 0.1223094 0.122995 0.1233161 0.1232357 0.1223767 0.1199805 0.1151877
 0.1077376 0.09854758 0.08938096 0.08180834 0.07650506 0.07331923 0.07165574 0.07081055 0.07028899 0.07003191
 0.07031887 0.0714132 0.07333327 0.07594407 0.07910652 0.08259757 0.08598976 0.08884141 0.09103087 0.09274985
 0.09415919 0.09519558 0.09572536 0.0957451 0.09538244 0.09478657 0.09406596 0.0932709 0.09236848 0.09126985
 0.08998347 0.08874265 0.08786541 0.08745833 0.08735832 0.08736403 0.08739473 0.08742425 0.08740974 0.08733039
 0.08722509 0.08718427 0.08731785 0.0876739 0.08816358 0.08861624 0.08891611 0.08906347 0.08912472 0.08911632
 0.08890998 0.08834369 0.08750793 0.08675665 0.08625568 0.08569022 0.08467893 0.08337177 0.08236792 0.08207019
 0.08232912 0.08270115 0.08285356 0.08270496 0.08239573 0.08223979 0.0825303 0.08319986 0.08376499 0.0837853
</values></Ydata></ScRf><Data_Parameters_AB><parameter name="DPF">1</parameter><parameter name="NPT">3497</parameter><parameter name="FXV">3996</parameter><parameter name="LXV">500</parameter><parameter name="CSF">1</parameter><parameter name="MXY">0.853271067142487</parameter><parameter name="MNY">0.00114066200330853</parameter><parameter name="DAT">31/05/2022</parameter><parameter name="TIM">10:55:58.460 (GMT+2)</parameter><parameter name="DXU">WN</parameter></Data_Parameters_AB><AB__Qtest><MainReport name="Quality Test Report"><Header><Line><Legend>Test result ok/not ok [1/0]: </Legend><Value>0</Value></Line><Line><Legend>Method file: </Legend><Value>C:\Users\Public\Documents\Bruker\OPUS_8.2.28\QT\IRBT_v3_default.QT</Value></Line></Header><Matrix><Line><Legend></Legend><Legend>min</Legend><Legend>max</Legend><Legend>measured</Legend></Line><Line><Value>Absorption (X-Range 1):</Value><Value>0.400000</Value><Value>2.000000</Value><Value>0.667961</Value></Line><Line><Value>Noise (X-Range 4):</Value><Value></Value><Value>0.000300</Value><Value>0.000203</Value></Line><Line><Value>Signal/Noise (X-Range 2):</Value><Value>200.000000</Value><Value></Value><Value>28.798051</Value></Line><Line><Value>Signal/Noise (X-Range 3):</Value><Value>40.000000</Value><Value></Value><Value>65.514822</Value></Line><Line><Value>Water vapour (X-Range 5):</Value><Value></Value><Value>0.000300</Value><Value>0.000156</Value></Line><Line><Value>Signal/Water (X-Range 2):</Value><Value>100.000000</Value><Value></Value><Value>37.509835</Value></Line><Line><Value>Signal/Water (X-Range 3):</Value><Value>20.000000</Value><Value></Value><Value>85.333905</Value></Line><Line><Value>Fringes (X-Range 6):</Value><Value></Value><Value>0.000100</Value><Value>0.000145</Value></Line></Matrix></MainReport></AB__Qtest><Data_Parameters_ScSm><parameter name="DPF">1</parameter><parameter name="NPT">1814</parameter><parameter name="FXV">3996.33169228125</parameter><parameter name="LXV">499.541461535156</parameter><parameter name="CSF">1</parameter><parameter name="MXY">0.214895442128181</parameter><parameter name="MNY">0.0145954731851816</parameter><parameter name="DAT">31/05/2022</parameter><parameter name="TIM">10:55:58.460 (GMT+2)</parameter><parameter name="DXU">WN</parameter></Data_Parameters_ScSm><Data_Parameters_ScRf><parameter name="DPF">1</parameter><parameter name="NPT">1820</parameter><parameter name="FXV">4004.04661832813</parameter><parameter name="LXV">495.683998511719</parameter><parameter name="CSF">1</parameter><parameter name="MXY">0.264904916286469</parameter><parameter name="MNY">0.0303812120109797</parameter><parameter name="DAT">31/05/2022</parameter><parameter name="TIM">10:55:32.608 (GMT+2)</parameter><parameter name="DXU">WN</parameter></Data_Parameters_ScRf><Optic_Parameters_Rf><parameter name="APR">0</parameter><parameter name="APT">Open</parameter><parameter name="BMS">KBr</parameter><parameter name="DTC">RT-DLaTGS_IR-Biotyper [Microplate reader]</parameter><parameter name="HPF">0</parameter><parameter name="LPF">10.0</parameter><parameter name="LPV">4000</parameter><parameter name="PGR">0</parameter><parameter name="RCH">Module port</parameter><parameter name="RDX">0</parameter><parameter name="SRC">MIR</parameter><parameter name="VEL">10.0</parameter><parameter name="SON">Off</parameter></Optic_Parameters_Rf><Acquisition_Parameters_Rf><parameter name="ADT">1</parameter><parameter name="AQM">DD</parameter><parameter name="CFE">0</parameter><parameter name="COR">0</parameter><parameter name="DEL">0</parameter><parameter name="DLY">0</parameter><parameter name="HFW">8000</parameter><parameter name="LFW">0</parameter><parameter name="NSR">32</parameter><parameter name="PLF">AB</parameter><parameter name="RES">6</parameter><parameter name="RGN">-1</parameter><parameter name="STR">0</parameter><parameter name="TCL">MakeCompatibleScalar (0, {WSV=1.000000, ARV=0});</parameter><parameter name="TDL">37</parameter><parameter name="RPO">0</parameter></Acquisition_Parameters_Rf><FT_-_Parameters_Rf><parameter name="APF">B3</parameter><parameter name="HFQ">500</parameter><parameter name="LFQ">4000</parameter><parameter name="NLI">0</parameter><parameter name="PHR">24</parameter><parameter name="PHZ">ML</parameter><parameter name="SPZ">NO</parameter><parameter name="ZFF">1</parameter></FT_-_Parameters_Rf><Optic_Parameters_><parameter name="APR">0</parameter><parameter name="APT">Open</parameter><parameter name="BMS">KBr</parameter><parameter name="CHN">Module port</parameter><parameter name="DTC">RT-DLaTGS_IR-Biotyper [Microplate reader]</parameter><parameter name="HPF">0</parameter><parameter name="LPF">10.0</parameter><parameter name="LPV">4000</parameter><parameter name="PGN">0</parameter><parameter name="RDX">0</parameter><parameter name="SRC">MIR</parameter><parameter name="VEL">10.0</parameter><parameter name="SON">Off</parameter></Optic_Parameters_><FT_-_Parameters_><parameter name="APF">B3</parameter><parameter name="HFQ">500</parameter><parameter name="LFQ">4000</parameter><parameter name="NLI">0</parameter><parameter name="PHR">24</parameter><parameter name="PHZ">ML</parameter><parameter name="SPZ">NO</parameter><parameter name="ZFF">1</parameter></FT_-_Parameters_><Acquisition_Parameters_><parameter name="ADT">1</parameter><parameter name="AQM">DD</parameter><parameter name="CFE">0</parameter><parameter name="COR">0</parameter><parameter name="DEL">0</parameter><parameter name="DLY">0</parameter><parameter name="HFW">8000</parameter><parameter name="LFW">0</parameter><parameter name="NSS">32</parameter><parameter name="PLF">AB</parameter><parameter name="RES">6</parameter><parameter name="SOT">0</parameter><parameter name="TCL">MakeCompatibleScalar (0, {WSV=1.000000, ARV=0});</parameter><parameter name="TDL">37</parameter><parameter name="SPO">0</parameter><parameter name="SGN">-1</parameter></Acquisition_Parameters_><Instrument_Parameters_Rf><parameter name="HFL">15800.168544</parameter><parameter name="LFL">0</parameter><parameter name="LWN">15800.168544</parameter><parameter name="ABP">32197</parameter><parameter name="SSP">1</parameter><parameter name="ARG">2</parameter><parameter name="ASG">2</parameter><parameter name="ASS">32</parameter><parameter name="GFW">16</parameter><parameter name="GBW">16</parameter><parameter name="BFW">0</parameter><parameter name="BBW">0</parameter><parameter name="PKA">7270</parameter><parameter name="PKL">4996</parameter><parameter name="PRA">7449</parameter><parameter name="PRL">5001</parameter><parameter name="P2A">1</parameter><parameter name="P2L">1</parameter><parameter name="P2R">1</parameter><parameter name="P2K">1</parameter><parameter name="DAQ">0</parameter><parameter name="AG2">1</parameter><parameter name="SSM">1</parameter><parameter name="RSN">25385</parameter><parameter name="CRR">0</parameter><parameter name="SRT">1653994532.608</parameter><parameter name="DUR">19.6379852294922</parameter><parameter name="TSC">28.8</parameter><parameter name="MVD">0.216754704713821</parameter><parameter name="AN1">0.225802675043084</parameter><parameter name="AN2">0</parameter><parameter name="VSN">2.485 Apr  4 2017</parameter><parameter name="SRN">0085</parameter><parameter name="CAM">0</parameter><parameter name="INS">IR-Biotyper</parameter><parameter name="FOC">69</parameter><parameter name="RDY">1</parameter><parameter name="ARS">32</parameter></Instrument_Parameters_Rf><Sample_Parameters_><parameter name="BLD"></parameter><parameter name="CNM">Admin</parameter><parameter name="CPY"></parameter><parameter name="DPM"></parameter><parameter name="EXP">IRBT_v3_32Scans.XPM</parameter><parameter name="LCT"></parameter><parameter name="SFM">Microplate, HTS-XT</parameter><parameter name="SNM">220531-1021(v.3)_CLA33F (D_14)_B3_e25d8add-5ce6-4c64-a949-bf5f61de8d9b.0</parameter><parameter name="XPP">C:\Users\Public\Documents\Bruker\OPUS_8.2.28\XPM</parameter><parameter name="IST">OK</parameter><parameter name="CPG">1252</parameter><parameter name="UID">ee629341-a14d-4155-ba35-f0d0bc3807f1</parameter></Sample_Parameters_><Instrument_Parameters_><parameter name="HFL">15800.168544</parameter><parameter name="LFL">0</parameter><parameter name="LWN">15800.168544</parameter><parameter name="ABP">32197</parameter><parameter name="SSP">1</parameter><parameter name="ASG">4</parameter><parameter name="ARG">2</parameter><parameter name="ASS">32</parameter><parameter name="GFW">16</parameter><parameter name="GBW">16</parameter><parameter name="BFW">0</parameter><parameter name="BBW">0</parameter><parameter name="PKA">5241</parameter><parameter name="PKL">4988</parameter><parameter name="PRA">5430</parameter><parameter name="PRL">5002</parameter><parameter name="P2A">1</parameter><parameter name="P2L">1</parameter><parameter name="P2R">1</parameter><parameter name="P2K">1</parameter><parameter name="DAQ">0</parameter><parameter name="AG2">1</parameter><parameter name="SSM">1</parameter><parameter name="RSN">13318</parameter><parameter name="CRR">0</parameter><parameter name="SRT">1653994558.46</parameter><parameter name="DUR">19.6379852294922</parameter><parameter name="TSC">28.8</parameter><parameter name="MVD">0.345919519662857</parameter><parameter name="AN1">0.225790976122007</parameter><parameter name="AN2">0</parameter><parameter name="VSN">2.485 Apr  4 2017</parameter><parameter name="SRN">0085</parameter><parameter name="CAM">0</parameter><parameter name="INS">IR-Biotyper</parameter><parameter name="FOC">69</parameter><parameter name="RDY">1</parameter></Instrument_Parameters_><History/></OPUSDataFile>
