<?xml version="1.0" encoding="UTF-8" ?>
<OPUSDataFile><AB><Ydata ylabel="Absorbance Units"><values byteorder="INTEL" format="FLOAT32" numvalues="3497"> -0.07824025 -0.07828168 -0.07830835 -0.07832045 -0.07831491 -0.07829157 -0.07825085 -0.0781936 -0.0781296 -0.07806158
 -0.07801088 -0.07797862 -0.07798266 -0.07801662 -0.07807644 -0.07815112 -0.07821998 -0.07827938 -0.0783146 -0.07833432
 -0.07833965 -0.07834137 -0.07834687 -0.07835749 -0.07837654 -0.07839764 -0.0784199 -0.07843801 -0.07845072 -0.07845745
 -0.07845799 -0.0784528 -0.07844188 -0.07842296 -0.07839615 -0.07836138 -0.07832053 -0.07828418 -0.07825527 -0.07825133
 -0.07827046 -0.07831948 -0.07838882 -0.07846657 -0.07854362 -0.07860274 -0.07864636 -0.07866836 -0.07868123 -0.07869056
 -0.0787035 -0.07872675 -0.07875064 -0.07877538 -0.07878465 -0.07877453 -0.07874446 -0.0786925 -0.07864187 -0.07859375
 -0.07857601 -0.07858852 -0.07863717 -0.07871795 -0.07880982 -0.07890958 -0.07899323 -0.07906344 -0.07911361 -0.07915005
 -0.07918002 -0.0792086 -0.07924591 -0.07929 -0.07934619 -0.07939956 -0.07944591 -0.07946482 -0.07944529 -0.07938618
 -0.07928048 -0.0791575 -0.07901891 -0.07890271 -0.07881291 -0.07877277 -0.07878384 -0.07884948 -0.07896815 -0.07912181
 -0.0793048 -0.07947499 -0.07962565 -0.07970598 -0.07972194 -0.07965679 -0.07953301 -0.07937963 -0.07921593 -0.07907736
 -0.07896804 -0.07890572 -0.07887869 -0.07888771 -0.07891278 -0.07894515 -0.07897807 -0.07900546 -0.0790414 -0.07908796
 -0.07915183 -0.07923572 -0.0793169 -0.07939421 -0.07944272 -0.07946359 -0.07946902 -0.07946377 -0.07948565 -0.07953393
 -0.07962966 -0.07976114 -0.0799133 -0.08006901 -0.08018991 -0.08027355 -0.08029561 -0.0802789 -0.08023293 -0.08017925
 -0.08013568 -0.08010139 -0.08007987 -0.08006732 -0.08005998 -0.08007423 -0.08011124 -0.08019257 -0.08032311 -0.08048501
 -0.08067812 -0.08080465 -0.08086111 -0.08076815 -0.08054343 -0.08026277 -0.07994172 -0.07968198 -0.07947804 -0.07936718
 -0.07933798 -0.07939272 -0.07950827 -0.0796646 -0.07982542 -0.07995289 -0.08003059 -0.08002856 -0.07998285 -0.07989675
 -0.07981713 -0.07976161 -0.07973207 -0.07973413 -0.07974195 -0.07975281 -0.07975596 -0.07975045 -0.07974658 -0.07974491
 -0.07975606 -0.07977911 -0.07981387 -0.07985809 -0.07990433 -0.07994881 -0.07997856 -0.07999069 -0.07997134 -0.07992821
 -0.07986149 -0.07978912 -0.0797264 -0.07968404 -0.07967483 -0.07969369 -0.07974287 -0.07981062 -0.07989406 -0.07998659
 -0.08008751 -0.08018793 -0.08028837 -0.08036292 -0.08041014 -0.08040252 -0.08034048 -0.08022741 -0.08006724 -0.07988732
 -0.07969064 -0.07950199 -0.0793242 -0.0791764 -0.07906091 -0.07899264 -0.07896591 -0.07898359 -0.0790285 -0.07908868
 -0.07914741 -0.07918954 -0.07921469 -0.07921682 -0.07920955 -0.07919469 -0.07918619 -0.07918713 -0.07920337 -0.07923622
 -0.0792843 -0.0793477 -0.07941847 -0.07949574 -0.07956505 -0.0796252 -0.07965998 -0.07967113 -0.07965497 -0.07961808
 -0.07957497 -0.07953171 -0.07950685 -0.07949951 -0.07951664 -0.07955348 -0.07960622 -0.07967801 -0.07976754 -0.0798857
 -0.08003997 -0.08022283 -0.08044071 -0.08064787 -0.08083896 -0.08096778 -0.08102613 -0.08101881 -0.08094548 -0.0808227
 -0.08065078 -0.08043086 -0.08016833 -0.07989887 -0.07963292 -0.07943395 -0.0793013 -0.07927195 -0.07932434 -0.07944419
 -0.07959365 -0.07971542 -0.07979935 -0.07980701 -0.0797741 -0.0797116 -0.07964608 -0.0795955 -0.07955359 -0.07952379
 -0.07948811 -0.07944268 -0.07938312 -0.07930701 -0.07923115 -0.07915626 -0.07910564 -0.07907996 -0.07909244 -0.07914093
 -0.07921995 -0.07932178 -0.07941432 -0.07948793 -0.07949492 -0.07944553 -0.07932988 -0.07917756 -0.07902525 -0.07888341
 -0.07877917 -0.07869586 -0.0786334 -0.07856818 -0.0784884 -0.07838808 -0.07825939 -0.07812247 -0.07797863 -0.07785219
 -0.07774714 -0.0776666 -0.07761158 -0.07755673 -0.0775006 -0.07741347 -0.07729891 -0.07716752 -0.07702678 -0.07691573
 -0.07683264 -0.07679401 -0.07679214 -0.07682108 -0.07687333 -0.07693917 -0.07700754 -0.07706732 -0.07710585 -0.0771111
 -0.07708135 -0.07701331 -0.07690756 -0.07676647 -0.07657524 -0.07633042 -0.07602853 -0.07566606 -0.07527424 -0.07485459
 -0.07444426 -0.07404464 -0.07367803 -0.07334534 -0.07306451 -0.0728354 -0.07267011 -0.07256163 -0.07249925 -0.0724723
 -0.07245526 -0.07244418 -0.07242629 -0.07239332 -0.07234111 -0.07224008 -0.07206786 -0.07181734 -0.07146678 -0.07107542
 -0.0706538 -0.07025654 -0.06989943 -0.06958642 -0.06932148 -0.06908209 -0.06886701 -0.06865659 -0.06845079 -0.06825246
 -0.06806332 -0.06790087 -0.06776039 -0.06763685 -0.06751262 -0.06733435 -0.06709587 -0.06674676 -0.06632703 -0.06586559
 -0.06540315 -0.06499462 -0.06463552 -0.06434404 -0.06408911 -0.06386393 -0.06363612 -0.06339315 -0.06312563 -0.06282758
 -0.06251264 -0.06218213 -0.06184278 -0.06149555 -0.06112823 -0.06074055 -0.06032669 -0.0598898 -0.05945184 -0.05901586
 -0.05860837 -0.05822619 -0.05787455 -0.05754818 -0.05724002 -0.05694542 -0.05665681 -0.0563675 -0.05606797 -0.05575725
 -0.05542935 -0.0550951 -0.05476014 -0.05442267 -0.05408883 -0.05372631 -0.05332904 -0.05287791 -0.05236443 -0.05183906
 -0.05130381 -0.0508314 -0.05042325 -0.05009175 -0.04983138 -0.04960469 -0.04940682 -0.04919677 -0.04897456 -0.04871752
 -0.04843218 -0.04811861 -0.04778751 -0.04745412 -0.04712259 -0.04680683 -0.04649184 -0.04617546 -0.04583325 -0.04545004
 -0.04502757 -0.0445575 -0.04407512 -0.04358489 -0.04311956 -0.04268491 -0.04228774 -0.04192962 -0.04159252 -0.04127527
 -0.04095362 -0.04062729 -0.04028323 -0.03992216 -0.03954026 -0.03913802 -0.03871242 -0.03826937 -0.0378153 -0.03736461
 -0.03694024 -0.03654901 -0.03621086 -0.03590927 -0.0356421 -0.03538581 -0.03512693 -0.03486189 -0.03458425 -0.0343092
 -0.03403945 -0.03378221 -0.03354066 -0.03329785 -0.03305321 -0.03277951 -0.03247608 -0.03213536 -0.03176082 -0.03137718
 -0.03098872 -0.03063019 -0.03029775 -0.03000127 -0.02972833 -0.02945878 -0.02918507 -0.0288839 -0.0285665 -0.02823114
 -0.02790171 -0.02759492 -0.02732032 -0.02709294 -0.02688724 -0.02670288 -0.02649704 -0.02625963 -0.02597251 -0.02562938
 -0.02525078 -0.02483716 -0.02442156 -0.02400527 -0.02360707 -0.02322688 -0.02287175 -0.02254211 -0.02224486 -0.02197859
 -0.02174536 -0.0215378 -0.02134334 -0.02115377 -0.02095066 -0.0207353 -0.02050149 -0.0202553 -0.02000204 -0.01973505
 -0.01945455 -0.01914654 -0.01880187 -0.01843609 -0.01804521 -0.01768089 -0.01735019 -0.01708161 -0.01688023 -0.01670007
 -0.01653769 -0.01630875 -0.01601426 -0.01562145 -0.01514649 -0.01464465 -0.01413417 -0.01370182 -0.01334435 -0.01310356
 -0.01295062 -0.01286524 -0.0128171 -0.01276648 -0.01270621 -0.01261763 -0.01250983 -0.01238402 -0.01224245 -0.01208695
 -0.01191378 -0.01172107 -0.01151522 -0.01129609 -0.01107608 -0.01085629 -0.0106406 -0.01042901 -0.01021771 -0.01000583
 -0.009785294 -0.009553575 -0.00929394 -0.009005748 -0.008674267 -0.008309983 -0.007922823 -0.007533025 -0.007173441 -0.006856493
 -0.006609841 -0.006425756 -0.00631087 -0.006243221 -0.006216983 -0.006205959 -0.006202586 -0.006181934 -0.006137151 -0.006056095
 -0.005934268 -0.005785733 -0.005610527 -0.005437994 -0.005269129 -0.005113447 -0.00496819 -0.004810608 -0.004639819 -0.004435709
 -0.004207958 -0.003973994 -0.003745814 -0.003561221 -0.003413431 -0.003315564 -0.003238583 -0.003159086 -0.003054169 -0.0028935
 -0.002693573 -0.002446456 -0.002202208 -0.001975151 -0.001799739 -0.001691805 -0.001630189 -0.001617741 -0.001598209 -0.00156665
 -0.001498059 -0.001392488 -0.001287974 -0.00118804 -0.001144446 -0.001151648 -0.001212929 -0.001314122 -0.001412857 -0.001501645
 -0.001541505 -0.001539927 -0.001488781 -0.001403886 -0.001298009 -0.001182866 -0.001073369 -0.0009644997 -0.0008615011 -0.0007421672
 -0.0005998944 -0.0004211738 -0.0001965823 4.671496E-05 0.000310133 0.0005345463 0.0007151121 0.000813345 0.0008283259 0.0007785793
 0.0006684873 0.0005489329 0.0004200033 0.0003102327 0.0002130855 0.0001202875 3.299229E-05 -5.515015E-05 -0.0001285273 -0.0001651551
 -0.00015913 -8.688572E-05 2.171488E-05 0.0001585589 0.0002807915 0.0003600073 0.0003942866 0.0003688637 0.0003298427 0.000284134
 0.0002702418 0.0002983141 0.0003546532 0.0004406056 0.0005085437 0.0005562263 0.0005477196 0.0004847745 0.0003684765 0.00020646
 3.544234E-05 -0.0001350433 -0.0002538389 -0.0003214504 -0.0003072222 -0.0002341307 -0.0001167252 8.109622E-06 9.549978E-05 0.0001280159
 7.055353E-05 -4.930207E-05 -0.0002341026 -0.0004309491 -0.0006223634 -0.0007765745 -0.0008805922 -0.0009381019 -0.0009478176 -0.0009177717
 -0.000849331 -0.0007309009 -0.0005620159 -0.0003334287 -4.896183E-05 0.0002593372 0.0005807816 0.0008428483 0.001040543 0.00111284
 0.001077622 0.0009351558 0.0007249778 0.0005045829 0.0003052319 0.0001886904 0.0001430074 0.0001893133 0.0002731946 0.0003777861
 0.0004465104 0.0004541797 0.0003811834 0.0002136551 -2.287601E-05 -0.0003300241 -0.0006557888 -0.0009963763 -0.001306182 -0.001583104
 -0.001812807 -0.001996637 -0.002144059 -0.002255751 -0.002340382 -0.002396292 -0.002420986 -0.002416487 -0.002382077 -0.002330119
 -0.002274472 -0.002237161 -0.002244437 -0.002316165 -0.002478412 -0.002727816 -0.003077336 -0.00348811 -0.003955943 -0.004423137
 -0.004876697 -0.005275376 -0.005609392 -0.005873828 -0.006065893 -0.006212724 -0.006315903 -0.006419607 -0.006525417 -0.006668058
 -0.006842959 -0.007046117 -0.007268221 -0.0074735 -0.007663871 -0.007820168 -0.007963052 -0.008115849 -0.008294195 -0.008531596
 -0.008809266 -0.009132055 -0.009454195 -0.009754939 -0.0100002 -0.01016911 -0.0102668 -0.01028475 -0.01026802 -0.01021825
 -0.01020177 -0.01022448 -0.01033407 -0.0105327 -0.01081165 -0.01116594 -0.01153771 -0.0119222 -0.0122622 -0.01256089
 -0.01279693 -0.01297968 -0.01311773 -0.01322245 -0.01331338 -0.01340203 -0.01350837 -0.0136371 -0.01380046 -0.0139899
 -0.01420624 -0.01443398 -0.01466836 -0.01489723 -0.01511703 -0.01532055 -0.01550597 -0.01567143 -0.01581605 -0.01594864
 -0.0160697 -0.0161956 -0.0163266 -0.01647161 -0.01662889 -0.01679368 -0.01696395 -0.01713001 -0.01729184 -0.01744412
 -0.01758884 -0.01772614 -0.0178596 -0.01799244 -0.01812932 -0.01827496 -0.01843106 -0.01860105 -0.01877985 -0.018967
 -0.01915565 -0.01934323 -0.01953054 -0.01971658 -0.01990978 -0.02011102 -0.02032379 -0.02054826 -0.02077503 -0.02100332
 -0.02122019 -0.02142652 -0.02161992 -0.02180309 -0.02198403 -0.02216427 -0.02235182 -0.02254536 -0.02274691 -0.02295314
 -0.02316216 -0.0233684 -0.02356895 -0.02375386 -0.02391883 -0.02405144 -0.024145 -0.02419821 -0.02420501 -0.0241929
 -0.02416151 -0.024163 -0.02420204 -0.02431804 -0.0245131 -0.02477602 -0.02510224 -0.02543372 -0.02576504 -0.02603329
 -0.02624194 -0.02636447 -0.02641862 -0.02642718 -0.02641675 -0.02644075 -0.02651233 -0.02667486 -0.02690458 -0.02720526
 -0.02752702 -0.02784333 -0.02812674 -0.02835517 -0.02854721 -0.02870231 -0.02884532 -0.02898359 -0.02910342 -0.02920564
 -0.02925373 -0.02924578 -0.02917484 -0.02904468 -0.02889967 -0.0287472 -0.02865429 -0.0286214 -0.02869059 -0.02884696
 -0.02908116 -0.02936858 -0.02966436 -0.02995601 -0.03020706 -0.03043095 -0.03062464 -0.03080792 -0.03099464 -0.03118166
 -0.03137366 -0.03155218 -0.03171135 -0.03185092 -0.03196815 -0.03208127 -0.03219267 -0.03230212 -0.0324097 -0.03248778
 -0.03253586 -0.03253828 -0.03250019 -0.03244378 -0.03237494 -0.0323285 -0.03230157 -0.03230642 -0.03233361 -0.03237243
 -0.03241805 -0.03245779 -0.03249953 -0.0325415 -0.03260387 -0.03269602 -0.03283536 -0.03303514 -0.03328292 -0.03358464
 -0.03389046 -0.03419511 -0.03444761 -0.03464042 -0.03477041 -0.03483694 -0.03488903 -0.03492975 -0.0350139 -0.03513886
 -0.03531955 -0.03554527 -0.03578685 -0.03603367 -0.03624402 -0.03641813 -0.03653399 -0.03660649 -0.03664124 -0.03666001
 -0.03668194 -0.03672038 -0.03679136 -0.03688606 -0.03700916 -0.0371315 -0.03724729 -0.03733211 -0.03737777 -0.03739652
 -0.03738657 -0.03739223 -0.03741597 -0.03748505 -0.03759735 -0.03772833 -0.03787282 -0.03798377 -0.03806481 -0.03810163
 -0.03810643 -0.03810405 -0.03809698 -0.0381063 -0.03811409 -0.03811079 -0.03807212 -0.03797434 -0.03780669 -0.03755507
 -0.0372236 -0.03681049 -0.03632195 -0.03575927 -0.03512599 -0.0344211 -0.03365893 -0.03283808 -0.03200466 -0.03116092
 -0.03038954 -0.02969557 -0.02916843 -0.02880749 -0.0286587 -0.02870865 -0.02893677 -0.02932183 -0.02980361 -0.03036492
 -0.03095088 -0.03155173 -0.0321369 -0.03269773 -0.03321956 -0.03369208 -0.0341059 -0.03445546 -0.03473464 -0.03495019
 -0.03510073 -0.03520348 -0.0352612 -0.03528591 -0.03528073 -0.03523206 -0.03513952 -0.03496268 -0.03469979 -0.03431517
 -0.03381299 -0.03319888 -0.03248396 -0.03171249 -0.03089269 -0.03006925 -0.0292389 -0.02841762 -0.02759554 -0.02676649
 -0.02592473 -0.02506274 -0.02418042 -0.02327687 -0.02234864 -0.02139562 -0.02040907 -0.01938515 -0.01832606 -0.0172277
 -0.01612187 -0.01500899 -0.01394463 -0.01293205 -0.01202053 -0.01121103 -0.01052381 -0.009957059 -0.009509894 -0.009179802
 -0.008960851 -0.008843442 -0.008808579 -0.008829278 -0.008856318 -0.008855029 -0.008761632 -0.008565518 -0.008228824 -0.007779455
 -0.007220166 -0.006585945 -0.005895363 -0.005151051 -0.004360944 -0.003500813 -0.002567192 -0.001545113 -0.0004309845 0.0007632031
 0.00203723 0.003358645 0.004725015 0.006093927 0.007463636 0.008799086 0.01010506 0.01137809 0.01263042 0.0138937
 0.01517037 0.01649342 0.01782075 0.01914129 0.02033767 0.02133707 0.02196258 0.02210001 0.02161575 0.02040436
 0.01851813 0.01591032 0.01286269 0.009392831 0.005882431 0.002372014 -0.0008573345 -0.003784212 -0.006331821 -0.008504526
 -0.01037717 -0.01196031 -0.01335962 -0.01457832 -0.01568268 -0.01667449 -0.01758807 -0.01843235 -0.01923676 -0.02001207
 -0.02078529 -0.02155487 -0.02233247 -0.02310057 -0.02385403 -0.02457266 -0.02524661 -0.02586666 -0.02642814 -0.02692947
 -0.02737118 -0.02774284 -0.02804497 -0.02825021 -0.02835696 -0.02833732 -0.02819185 -0.02792655 -0.02755004 -0.02712172
 -0.02665458 -0.02623438 -0.02586184 -0.02558998 -0.02539425 -0.02526274 -0.0251532 -0.02501175 -0.02480009 -0.02446618
 -0.02399426 -0.0233559 -0.02256646 -0.02162003 -0.02055655 -0.01938406 -0.01813941 -0.01683155 -0.01547136 -0.01405805
 -0.01262308 -0.0111654 -0.009850356 -0.008695822 -0.008032489 -0.007878609 -0.008545969 -0.009992417 -0.01224864 -0.01519141
 -0.01853099 -0.02213531 -0.02562654 -0.02895665 -0.03189841 -0.03450205 -0.03672712 -0.0386573 -0.04033203 -0.04180824
 -0.04311785 -0.04429165 -0.045341 -0.04629602 -0.04716223 -0.0479688 -0.04871982 -0.04943076 -0.05010301 -0.05073936
 -0.05133982 -0.05190369 -0.052431 -0.05292157 -0.05337602 -0.05379672 -0.05418449 -0.05454286 -0.05487169 -0.05517173
 -0.05544427 -0.05568872 -0.05591374 -0.05612447 -0.05633461 -0.0565549 -0.05678975 -0.05704709 -0.05731207 -0.05758442
 -0.05783978 -0.058073 -0.05827214 -0.0584335 -0.05857117 -0.05868548 -0.05880389 -0.05892708 -0.05906648 -0.05921932
 -0.05936975 -0.05951623 -0.05964092 -0.05975083 -0.05985428 -0.05996151 -0.06009813 -0.06026245 -0.0604672 -0.06069455
 -0.06093533 -0.06116828 -0.06137716 -0.0615521 -0.06168275 -0.061776 -0.061829 -0.06186321 -0.06188074 -0.06190703
 -0.06194575 -0.06200841 -0.06209648 -0.06219997 -0.06231805 -0.06243341 -0.0625462 -0.06264952 -0.06274468 -0.06283428
 -0.06291781 -0.06299558 -0.06306586 -0.06312481 -0.06317345 -0.06321069 -0.06324051 -0.06326668 -0.06329007 -0.06331354
 -0.06333232 -0.0633447 -0.06334846 -0.06334039 -0.06333108 -0.06332065 -0.06332707 -0.06335301 -0.06340495 -0.06348402
 -0.06357504 -0.06367686 -0.06376519 -0.06384005 -0.06388936 -0.06391627 -0.06392729 -0.06392632 -0.06392805 -0.06393299
 -0.06395042 -0.06397548 -0.06400657 -0.06403658 -0.06405713 -0.06406822 -0.06406434 -0.06405818 -0.06405234 -0.06406285
 -0.06409628 -0.06415536 -0.06424356 -0.06434757 -0.06446676 -0.06458509 -0.06470131 -0.06480718 -0.06490249 -0.06498598
 -0.065058 -0.06512049 -0.06517434 -0.06522422 -0.06527117 -0.06532089 -0.06537294 -0.06542977 -0.06548886 -0.06554813
 -0.06560492 -0.06565564 -0.06570009 -0.06573652 -0.06576752 -0.06579365 -0.06581767 -0.06584068 -0.06586348 -0.06588645
 -0.0659093 -0.06593195 -0.06595509 -0.06597869 -0.06600519 -0.06603465 -0.06606866 -0.06610665 -0.06614553 -0.0661837
 -0.06621212 -0.06623036 -0.06623088 -0.06621814 -0.06619556 -0.06617139 -0.06615856 -0.06616119 -0.06618956 -0.06623848
 -0.06630884 -0.06639114 -0.06648166 -0.06657315 -0.06666291 -0.06674618 -0.06682158 -0.06688648 -0.06693984 -0.06698578
 -0.06702431 -0.06706522 -0.06710887 -0.0671611 -0.06722122 -0.06728604 -0.06735484 -0.06742236 -0.06748921 -0.0675545
 -0.06761889 -0.06768385 -0.06774825 -0.06781146 -0.06787153 -0.06792622 -0.06797488 -0.06801631 -0.06805086 -0.06807854
 -0.06809917 -0.06811258 -0.06811914 -0.06811822 -0.0681143 -0.06810725 -0.06810654 -0.06811281 -0.06813405 -0.06817044
 -0.06822152 -0.06828623 -0.06835572 -0.06842885 -0.06849557 -0.06855641 -0.06860716 -0.06865019 -0.06868804 -0.06872308
 -0.06875985 -0.06879903 -0.06884331 -0.06889126 -0.06894271 -0.06899635 -0.06905127 -0.06910772 -0.06916561 -0.06922527
 -0.06928741 -0.06934807 -0.06940729 -0.06945744 -0.06949787 -0.06952541 -0.06954024 -0.06955073 -0.06955785 -0.06957445
 -0.06959952 -0.06963606 -0.06968068 -0.06972451 -0.06976625 -0.06979781 -0.06982293 -0.06984284 -0.06986261 -0.06988839
 -0.06992076 -0.06996313 -0.07001069 -0.07006276 -0.07011274 -0.07015809 -0.0701963 -0.07022551 -0.07025077 -0.07027207
 -0.07029785 -0.07032889 -0.07036763 -0.07041394 -0.07046029 -0.07050592 -0.07054072 -0.07056505 -0.07057486 -0.07057205
 -0.07055949 -0.07054019 -0.07052104 -0.07050515 -0.07050014 -0.07050644 -0.07052863 -0.07056142 -0.07060383 -0.07064749
 -0.07068782 -0.07072166 -0.07074579 -0.07076561 -0.07078129 -0.07080007 -0.07082331 -0.07085186 -0.07088608 -0.07092176
 -0.07095871 -0.07099378 -0.07102694 -0.07105685 -0.07108302 -0.07110231 -0.07111432 -0.07111527 -0.07110697 -0.07109049
 -0.07106984 -0.0710514 -0.07103714 -0.07103211 -0.07103406 -0.07104342 -0.07105638 -0.0710711 -0.0710857 -0.07109933
 -0.07111057 -0.07111927 -0.07112275 -0.07112052 -0.07111168 -0.07109591 -0.07107709 -0.07105548 -0.07103743 -0.07102314
 -0.071017 -0.07101881 -0.07102992 -0.07105009 -0.07107932 -0.07111738 -0.07116418 -0.07121852 -0.0712795 -0.07134381
 -0.07140856 -0.07146916 -0.07152126 -0.07156323 -0.07159193 -0.07161232 -0.07162456 -0.07163657 -0.07165038 -0.07166909
 -0.07169386 -0.07172155 -0.07175206 -0.07178211 -0.0718116 -0.07183971 -0.07186634 -0.07189005 -0.07191068 -0.07192609
 -0.07193731 -0.07194591 -0.07195396 -0.07196689 -0.071985 -0.07201185 -0.07204474 -0.07208272 -0.07212187 -0.07215921
 -0.07219215 -0.07221858 -0.07223789 -0.0722492 -0.07225371 -0.07225128 -0.07224442 -0.07223325 -0.07222147 -0.07220927
 -0.07220107 -0.07219712 -0.07220171 -0.07221477 -0.07223742 -0.07226872 -0.07230492 -0.07234447 -0.0723807 -0.07241249
 -0.07243375 -0.07244559 -0.0724462 -0.07243953 -0.07242851 -0.07241751 -0.07241113 -0.07240959 -0.07241505 -0.07242302
 -0.07243238 -0.0724401 -0.07244461 -0.07244857 -0.07245193 -0.07245898 -0.07247022 -0.07248581 -0.07250571 -0.07252518
 -0.07254397 -0.0725575 -0.07256597 -0.0725681 -0.07256429 -0.07255511 -0.07254065 -0.07252103 -0.07249711 -0.07246923
 -0.07244089 -0.07241508 -0.07239662 -0.07239038 -0.07239745 -0.07242083 -0.07245522 -0.07250049 -0.07254773 -0.0725953
 -0.07263526 -0.07266625 -0.07268376 -0.07268704 -0.07267783 -0.0726563 -0.07263159 -0.07260434 -0.07258506 -0.07257327
 -0.07257258 -0.07258087 -0.07259338 -0.07260817 -0.07261832 -0.07262405 -0.07262222 -0.07261503 -0.07260349 -0.07258981
 -0.07257634 -0.07256273 -0.07254987 -0.07253525 -0.07251808 -0.07249704 -0.07247092 -0.07244369 -0.07241518 -0.07239383
 -0.07238036 -0.07238056 -0.07239465 -0.07241991 -0.07245576 -0.07249425 -0.07253577 -0.07257745 -0.07262164 -0.07267424
 -0.07273765 -0.0728203 -0.07292239 -0.07304795 -0.07319616 -0.07336677 -0.0735616 -0.07378031 -0.0740298 -0.07431154
 -0.07463749 -0.07501127 -0.07544445 -0.07594196 -0.07650131 -0.07712633 -0.07778346 -0.07847191 -0.07913423 -0.07976744
 -0.08032835 -0.08081712 -0.0812254 -0.0815501 -0.08177537 -0.08188645 -0.08182292 -0.08158007 -0.08109923 -0.08043087
 -0.079611 -0.07872864 -0.0778969 -0.07715963 -0.07659244 -0.07618108 -0.07594076 -0.075838 -0.07586895 -0.07598864
 -0.07619281 -0.07641183 -0.07663676 -0.07680316 -0.07690189 -0.07693703 -0.07690874 -0.07685839 -0.07678619 -0.07670616
 -0.07661673 -0.07651542 -0.07640341 -0.07628369 -0.07615747 -0.07602951 -0.07589875 -0.07576603 -0.075629 -0.07548667
 -0.07533335 -0.07516484 -0.07497597 -0.07476001 -0.07452618 -0.07427316 -0.07402305 -0.07378086 -0.07356106 -0.07336783
 -0.07319804 -0.07305215 -0.07292034 -0.07280211 -0.07269123 -0.07258759 -0.07248852 -0.07239368 -0.07229979 -0.07220662
 -0.07211126 -0.07201451 -0.07191657 -0.0718189 -0.07172397 -0.07163253 -0.07154657 -0.07146561 -0.07138994 -0.07131884
 -0.07125182 -0.07118914 -0.07113089 -0.07107677 -0.07102706 -0.07097952 -0.07093377 -0.07088876 -0.07084412 -0.07080332
 -0.07076655 -0.07073887 -0.07072026 -0.07071181 -0.07071277 -0.07071951 -0.0707311 -0.07074273 -0.07075325 -0.0707579
 -0.07075557 -0.07074202 -0.07071782 -0.07068107 -0.07063554 -0.07058287 -0.07052803 -0.07047425 -0.07042385 -0.07037865
 -0.07033816 -0.07030254 -0.07027126 -0.07024408 -0.07022229 -0.070206 -0.07019579 -0.07019169 -0.07019038 -0.07019142
 -0.07018816 -0.07018033 -0.07016263 -0.070136 -0.07010067 -0.07005827 -0.07001276 -0.06996515 -0.06991903 -0.06987423
 -0.06983186 -0.06979173 -0.06975388 -0.06971873 -0.06968655 -0.06965756 -0.06963205 -0.06960931 -0.0695893 -0.0695709
 -0.06955395 -0.06953755 -0.06952167 -0.06950448 -0.06948587 -0.06946379 -0.06943835 -0.06941005 -0.06937951 -0.06935076
 -0.06932414 -0.06930353 -0.06928777 -0.0692763 -0.06926706 -0.06925621 -0.06924292 -0.0692243 -0.06920176 -0.06917553
 -0.06914679 -0.06911665 -0.06908408 -0.06904869 -0.06901059 -0.06896882 -0.06892892 -0.06889152 -0.06886214 -0.06884195
 -0.06882633 -0.06881508 -0.06879663 -0.06877095 -0.06873469 -0.06868972 -0.06864607 -0.06860482 -0.06857594 -0.06855731
 -0.06854896 -0.06854833 -0.06855073 -0.06855593 -0.06856225 -0.06856879 -0.06857514 -0.06857783 -0.06857476 -0.06856411
 -0.06854393 -0.0685171 -0.06848365 -0.06844769 -0.06840984 -0.06837291 -0.06833716 -0.06830543 -0.06827791 -0.06825534
 -0.06823735 -0.06821907 -0.06819998 -0.06817342 -0.06814097 -0.06810427 -0.06806652 -0.06803719 -0.06801616 -0.06800911
 -0.06801043 -0.06801605 -0.06802085 -0.068018 -0.06800949 -0.06799358 -0.06797659 -0.06796108 -0.06794885 -0.06794181
 -0.06793468 -0.06792695 -0.06791354 -0.06789356 -0.06786799 -0.06783681 -0.06780624 -0.06777661 -0.06775369 -0.06773721
 -0.06772869 -0.06772689 -0.06772839 -0.06773161 -0.06773106 -0.06772577 -0.06771135 -0.06768842 -0.06765515 -0.06761504
 -0.06756946 -0.06752406 -0.06748234 -0.06744776 -0.06742352 -0.06740603 -0.06739584 -0.0673847 -0.06737104 -0.06735118
 -0.06732407 -0.06729493 -0.06726396 -0.06723744 -0.06721526 -0.06719623 -0.06717977 -0.06716089 -0.06714031 -0.0671178
 -0.06709505 -0.06707671 -0.06706264 -0.06705526 -0.06705221 -0.06705153 -0.06705158 -0.06705032 -0.06704705 -0.06704128
 -0.06703108 -0.06701568 -0.0669935 -0.06696319 -0.0669283 -0.06688862 -0.06685182 -0.06681874 -0.06679387 -0.06677757
 -0.06676656 -0.06676036 -0.06675117 -0.06673872 -0.06671696 -0.06668668 -0.06664712 -0.06660041 -0.06655118 -0.06650193
 -0.06645931 -0.06642414 -0.06640097 -0.06638692 -0.06638208 -0.06638061 -0.06637949 -0.06637377 -0.06636017 -0.06633888
 -0.06630856 -0.0662744 -0.06623688 -0.06620172 -0.06616979 -0.06614238 -0.06611965 -0.06609854 -0.06607887 -0.066057
 -0.06603312 -0.06600664 -0.06597839 -0.06595128 -0.0659261 -0.06590668 -0.06589237 -0.06588419 -0.06588012 -0.06587823
 -0.06587662 -0.065873 -0.06586652 -0.06585614 -0.06584133 -0.06582146 -0.0657971 -0.06576767 -0.06573706 -0.0657055
 -0.06567847 -0.06565682 -0.06564125 -0.06563197 -0.06562296 -0.06561391 -0.06559825 -0.06557652 -0.06554898 -0.06551693
 -0.06548586 -0.06545611 -0.06543186 -0.0654117 -0.06539521 -0.06538078 -0.06536593 -0.06535079 -0.06533423 -0.06531826
 -0.06530381 -0.06529213 -0.06528457 -0.06527894 -0.06527542 -0.06526941 -0.06525994 -0.06524495 -0.0652237 -0.0652002
 -0.06517463 -0.06515271 -0.06513448 -0.06512082 -0.06511111 -0.06510142 -0.06509142 -0.06507757 -0.06506027 -0.06503895
 -0.06501357 -0.06498387 -0.06494969 -0.06491016 -0.06486682 -0.0648197 -0.06477331 -0.06472971 -0.06469417 -0.06466982
 -0.06465748 -0.06465934 -0.06466804 -0.06468361 -0.06469289 -0.0646944 -0.06467938 -0.064647 -0.06460115 -0.06454245
 -0.06448315 -0.06442359 -0.06437258 -0.06432862 -0.06429057 -0.06425642 -0.06421962 -0.06418069 -0.06413663 -0.06409112
 -0.06404735 -0.06400897 -0.06398116 -0.06396288 -0.06395644 -0.06395482 -0.0639566 -0.06395263 -0.06393968 -0.06391426
 -0.06387419 -0.06382595 -0.06376964 -0.06371514 -0.06366318 -0.06361718 -0.06357692 -0.0635379 -0.06349981 -0.06345814
 -0.06341358 -0.06336638 -0.06331749 -0.06326956 -0.06322308 -0.06318017 -0.06314097 -0.06310681 -0.06307663 -0.06305061
 -0.06302562 -0.06300005 -0.06297102 -0.06293636 -0.06289706 -0.0628527 -0.062806 -0.06275763 -0.06270778 -0.06265666
 -0.06260263 -0.06254551 -0.06248751 -0.062429 -0.06237785 -0.06233438 -0.06230555 -0.06228974 -0.06228478 -0.06228722
 -0.06228675 -0.06228112 -0.06226053 -0.06222679 -0.06217727 -0.06211731 -0.06204993 -0.06198191 -0.06191805 -0.06186303
 -0.0618209 -0.06178977 -0.0617713 -0.06175583 -0.06174236 -0.06172008 -0.06168727 -0.06164068 -0.06157976 -0.06151127
 -0.06143573 -0.06136331 -0.06129418 -0.06123485 -0.06118411 -0.06114078 -0.0611027 -0.06106314 -0.06102121 -0.06097145
 -0.06091559 -0.06085375 -0.0607873 -0.06071798 -0.06064506 -0.06056804 -0.06048817 -0.06040452 -0.0603238 -0.06024752
 -0.06018171 -0.06012866 -0.06008563 -0.06005327 -0.06002086 -0.05998773 -0.05994406 -0.05988981 -0.05982653 -0.05975587
 -0.05969159 -0.0596348 -0.05959912 -0.05958121 -0.05958076 -0.05958956 -0.05959163 -0.05958208 -0.05954499 -0.05948759
 -0.05940944 -0.05932237 -0.05923481 -0.05915032 -0.05907365 -0.05900026 -0.05892976 -0.05885805 -0.05878374 -0.05870782
 -0.05862995 -0.05855427 -0.05848096 -0.05841534 -0.05835764 -0.05831248 -0.05827907 -0.05825473 -0.05823619 -0.05820767
 -0.05816673 -0.05809572 -0.05800062 -0.05788286 -0.05775297 -0.05762683 -0.05750776 -0.05740552 -0.0573167 -0.05724221
 -0.05717752 -0.05712149 -0.05706846 -0.05701753 -0.05696017 -0.05689461 -0.05681505 -0.05671989 -0.05661299 -0.05649427
 -0.0563742 -0.05625318 -0.05613831 -0.05602894 -0.05592308 -0.05581949 -0.05571105 -0.05559842 -0.05547903 -0.05535597
 -0.0552347 -0.05511566 -0.05500326 -0.05489239 -0.05477947 -0.05466188 -0.05453492 -0.05440481 -0.05427323 -0.05414481
 -0.0540229 -0.05390163 -0.0537804 -0.05365387 -0.05352032 -0.053387 -0.05325426 -0.05313127 -0.0530179 -0.05290633
 -0.05279438 -0.05265943 -0.0525016 -0.05230668 -0.05208194 -0.05184081 -0.05158995 -0.05135167 -0.05112119 -0.05090285
 -0.050686 -0.05046054 -0.05022387 -0.04996857 -0.04970478 -0.04943518 -0.04916805 -0.0489096 -0.04864883 -0.04838884
 -0.0480925 -0.04775785 -0.04733332 -0.04681414 -0.04618408 -0.04544407 -0.04463914 -0.04377031 -0.04287018 -0.04192758
 -0.04090987 -0.03980299 -0.03854468 -0.03713896 -0.03555382 -0.03382637 -0.03198543 -0.0300872 -0.02819479 -0.02634575
 -0.02458855 -0.02291946 -0.02135041 -0.01986171 -0.01844106 -0.01711642 -0.01588266 -0.01482169 -0.01394457 -0.01329608
 -0.01288237 -0.01267972 -0.01268638 -0.0128586 -0.01319403 -0.01365396 -0.01423776 -0.01492128 -0.01570658 -0.01659341
 -0.01756935 -0.0186222 -0.01970708 -0.02075554 -0.02173868 -0.02259286 -0.02334334 -0.02398672 -0.02455358 -0.0250599
 -0.02551372 -0.02592034 -0.02628373 -0.02660493 -0.02689065 -0.02714418 -0.02734791 -0.02750193 -0.02756059 -0.02752278
 -0.02738634 -0.02715688 -0.02688749 -0.02657805 -0.02625658 -0.0259167 -0.02555233 -0.0251617 -0.0247379 -0.02428243
 -0.0237977 -0.02327589 -0.02271726 -0.02209294 -0.02138689 -0.0205677 -0.01960498 -0.01853049 -0.01733316 -0.0161158
 -0.01489786 -0.01375094 -0.01269106 -0.01171917 -0.01083816 -0.01000952 -0.009230356 -0.008430121 -0.007602086 -0.006647185
 -0.005574445 -0.004358725 -0.003046246 -0.001774916 -0.0005549266 0.0005105151 0.001472852 0.002364621 0.003223108 0.004103767
 0.005005108 0.005942936 0.006907612 0.007895684 0.008910658 0.009957732 0.01101622 0.01208626 0.01312789 0.01413288
 0.01510399 0.01604036 0.01696093 0.01786538 0.01871682 0.01951137 0.02019221 0.02076677 0.02123864 0.02162444
 0.02198015 0.02230907 0.02265199 0.02298677 0.02329271 0.02356866 0.02379724 0.02400909 0.02422657 0.02444904
 0.02469135 0.02490908 0.02509015 0.02520632 0.02524423 0.02522204 0.02513746 0.02503571 0.02492005 0.02482904
 0.02476379 0.024713 0.02467327 0.0246049 0.02450909 0.0243702 0.02419414 0.02398927 0.02376442 0.02354066
 0.02332703 0.02314728 0.02300125 0.02289815 0.022833 0.0228027 0.02281148 0.02285987 0.02295442 0.02309991
 0.02328781 0.02351761 0.02377883 0.02406878 0.02439228 0.02474954 0.02514472 0.02557778 0.02603856 0.02652653
 0.0270321 0.02755675 0.02810386 0.0286737 0.02926973 0.0298894 0.03052806 0.03118585 0.03185898 0.03255396
 0.03327418 0.03403058 0.03483051 0.03568568 0.03660282 0.03759133 0.03865506 0.03980211 0.04103601 0.04235571
 0.0437655 0.04522879 0.04674548 0.04823835 0.04970306 0.05105378 0.05228531 0.05331543 0.05413851 0.05467574
 0.05493714 0.05490335 0.05460931 0.05411676 0.05346188 0.05272094 0.05192563 0.05113463 0.05036936 0.04966936
 0.04901897 0.04843048 0.04784687 0.0472588 0.04659066 0.04581667 0.04493146 0.04391636 0.04291284 0.04193268
 0.04105554 0.04028429 0.03956677 0.03890124 0.03825108 0.0376218 0.03702496 0.03646388 0.03596188 0.03550383
 0.03508634 0.03464808 0.03411403 0.03338461 0.03230119 0.03088761 0.02907658 0.02703222 0.02483087 0.02253948
 0.02019491 0.01783098 0.01544549 0.01315286 0.01096715 0.00898821 0.007230511 0.005673041 0.004314436 0.003068592
 0.001933379 0.0008559498 -0.0001584474 -0.001108428 -0.001990248 -0.002787537 -0.003507944 -0.00415674 -0.004750935 -0.005317359
 -0.005871623 -0.006439907 -0.007031318 -0.007659682 -0.008331129 -0.009056328 -0.009821504 -0.01063799 -0.01142787 -0.01217729
 -0.01281719 -0.01332561 -0.01375108 -0.0140946 -0.01442183 -0.01473576 -0.01504204 -0.01533778 -0.01559022 -0.0157998
 -0.01595072 -0.01604923 -0.01611129 -0.01613434 -0.01612436 -0.01606684 -0.01594118 -0.0157388 -0.01543894 -0.0150503
 -0.01457249 -0.01401522 -0.01338375 -0.01268254 -0.011914 -0.01108189 -0.0101924 -0.00921978 -0.008168968 -0.006949471
 -0.005552869 -0.003915569 -0.002035602 -7.55314E-05 0.001946147 0.003753103 0.00535178 0.006635515 0.007627286 0.008348448
 0.008813842 0.009058992 0.009110073 0.009014213 0.008814165 0.0085688 0.008320244 0.008121787 0.007982576 0.007932897
 0.007922292 0.007939947 0.007944596 0.007917774 0.007876856 0.007819335 0.00778504 0.007777971 0.007816963 0.007902994
 0.00801685 0.008156907 0.008296398 0.008437641 0.008579176 0.008726306 0.008897916 0.009093828 0.00932641 0.00958446
 0.009854915 0.01013104 0.01039412 0.01066143 0.01093519 0.01124656 0.01161289 0.01205165 0.01257613 0.01317818
 0.01385908 0.01460499 0.01541381 0.01627942 0.01720309 0.01815214 0.01912466 0.02003329 0.02087389 0.02156798
 0.02212103 0.02252435 0.02278556 0.0229277 0.02295075 0.02286562 0.0226705 0.0223653 0.02195406 0.02143988
 0.0208302 0.02013191 0.01934888 0.01848526 0.0175411 0.01651522 0.01541598 0.0142396 0.01302398 0.01177012
 0.0105411 0.009343302 0.008214677 0.007157541 0.006164026 0.005233643 0.004355755 0.003534519 0.00278975 0.002124887
 0.00156759 0.001107029 0.0007370708 0.0004331938 0.0001555754 -0.0001196204 -0.0004355018 -0.0008010373 -0.001241934 -0.001741583
 -0.00230383 -0.002890487 -0.003490589 -0.004068789 -0.004612755 -0.005112051 -0.005561409 -0.005973073 -0.006347375 -0.006699941
 -0.007031662 -0.007342967 -0.007632726 -0.007885183 -0.00810007 -0.008266471 -0.008388086 -0.008472003 -0.008522375 -0.008552948
 -0.00856472 -0.008565456 -0.008554547 -0.008533387 -0.008503712 -0.008465365 -0.008426165 -0.008388149 -0.008364783 -0.008361114
 -0.008387282 -0.008448165 -0.0085409 -0.008667131 -0.008812125 -0.008974849 -0.009140984 -0.00930965 -0.009477961 -0.009646118
 -0.009817503 -0.00999079 -0.01016087 -0.01032352 -0.01046097 -0.01056982 -0.0106314 -0.010649 -0.01061749 -0.01054704
 -0.01044619 -0.01032614 -0.0101978 -0.01007012 -0.009950055 -0.009844937 -0.009759236 -0.0096956 -0.009656699 -0.009636451
 -0.009635092 -0.009640959 -0.009652841 -0.009663733 -0.009673139 -0.009682915 -0.009693327 -0.009708998 -0.009729427 -0.009754045
 -0.009781601 -0.009806769 -0.009829721 -0.009847382 -0.009862539 -0.00987831 -0.009897408 -0.009925214 -0.009960067 -0.01000431
 -0.01004957 -0.01009416 -0.01012324 -0.01013198 -0.01010576 -0.01003877 -0.009929113 -0.009773618 -0.009588568 -0.009374692
 -0.009152643 -0.008923708 -0.0086965 -0.008470927 -0.008246171 -0.008022635 -0.007802366 -0.007586619 -0.007382032 -0.007187604
 -0.007005258 -0.00683097 -0.006659068 -0.006485806 -0.006303538 -0.006113492 -0.00591236 -0.005708087 -0.005503186 -0.005307365
 -0.005125724 -0.004960435 -0.004814853 -0.004678788 -0.004552008 -0.004419034 -0.004278095 -0.004120805 -0.003946493 -0.003758389
 -0.003556919 -0.003349516 -0.003135997 -0.002918689 -0.002697132 -0.002469772 -0.002238684 -0.002006918 -0.001779706 -0.001567352
 -0.001373417 -0.001207706 -0.001066873 -0.0009527961 -0.0008572551 -0.0007757299 -0.0007040423 -0.0006379955 -0.0005828078 -0.000538082
 -0.0005137993 -0.0005118579 -0.0005370664 -0.000590627 -0.000668472 -0.0007704694 -0.0008893431 -0.001024715 -0.001170273 -0.001325372
 -0.001483068 -0.001642128 -0.001794053 -0.00193822 -0.002068504 -0.002185674 -0.002288482 -0.002377317 -0.002452478 -0.002513265
 -0.002558931 -0.00258984 -0.002605354 -0.002608297 -0.002599481 -0.002581609 -0.002556171 -0.002521325 -0.002477543 -0.002418763
 -0.002344339 -0.002250405 -0.002136594 -0.002007015 -0.001862122 -0.001710145 -0.001551079 -0.001389183 -0.00122339 -0.001051854
 -0.0008735814 -0.0006849234 -0.0004859714 -0.0002746921 -5.298818E-05 0.0001779551 0.0004155894 0.0006564594 0.0009020931 0.001150659
 0.001410451 0.00168397 0.00197867 0.002298084 0.002640553 0.003006919 0.003390534 0.003790792 0.004203028 0.004626952
 0.005057563 0.005494398 0.005929106 0.006361468 0.006785553 0.007202236 0.007612094 0.008015408 0.008414436 0.008805982
 0.00918724 0.009550493 0.009886186 0.01018581 0.0104377 0.01064138 0.01079053 0.01089735 0.01096381 0.01100554
 0.01102726 0.01103773 0.01103897 0.0110369 0.01103183 0.01103417 0.01104451 0.01107536 0.01112721 0.01120911
 0.01132057 0.01146396 0.01163619 0.01182777 0.01203283 0.01223121 0.01241943 0.01258062 0.01271794 0.0128274
 0.01291642 0.01298827 0.01305429 0.01311901 0.01320093 0.01330728 0.01345519 0.01365267 0.0138989 0.01419714
 0.01452848 0.01489158 0.01526794 0.01565619 0.01605026 0.01645011 0.01685641 0.01726824 0.01768027 0.0180895
 0.01848025 0.01885175 0.01919118 0.01950596 0.01980243 0.02009036 0.02038735 0.02069115 0.02100842 0.02132667
 0.02163939 0.02194088 0.02222613 0.02249787 0.02275691 0.02300065 0.02322939 0.02343622 0.02361988 0.02378151
 0.0239209 0.02404822 0.02416416 0.0242813 0.02440009 0.02453065 0.02467107 0.02482077 0.02497379 0.02511497
 0.02523756 0.02532154 0.02536535 0.02535693 0.02530335 0.02520381 0.02507414 0.02492152 0.0247645 0.02461311
 0.02447526 0.02435687 0.02425123 0.02415825 0.02407004 0.02398507 0.02390527 0.02383056 0.02376724 0.02371538
 0.02367574 0.02364777 0.02362733 0.02361429 0.02360473 0.02360124 0.02360754 0.02362908 0.02367885 0.02375723
 0.0238747 0.02401566 0.02417455 0.02432356 0.02444503 0.02451805 0.02452777 0.02447235 0.0243465 0.02416223
 0.02392009 0.02363515 0.02330897 0.02295397 0.02257104 0.02217053 0.02175296 0.02132819 0.02089614 0.02046151
 0.02002245 0.01957327 0.01911293 0.01863384 0.01814051 0.01763688 0.01712969 0.0166307 0.01613996 0.01566317
 0.01519366 0.01472943 0.01426337 0.01379261 0.01331027 0.0128144 0.01229788 0.01175855 0.01119564 0.01060809
 0.01000395 0.009383599 0.008756411 0.008122843 0.007490162 0.006859301 0.006240439 0.005635178 0.005056578 0.004504109
 0.003984493 0.003492914 0.003024122 0.002572222 0.002125986 0.001685855 0.00124641 0.000815689 0.0003972236 -3.033007E-06
 -0.0003800308 -0.0007377179 -0.001075787 -0.001400485 -0.001713503 -0.00201503 -0.002305179 -0.002584491 -0.002852867 -0.003115979
 -0.003373864 -0.003626455 -0.003872271 -0.004099178 -0.00430613 -0.004481214 -0.004626454 -0.004741222 -0.004828264 -0.004892931
 -0.004935912 -0.004959937 -0.004966081 -0.004954499 -0.004931575 -0.004899134 -0.00486973 -0.004848678 -0.004846416 -0.00486869
 -0.004912855 -0.004980703 -0.005059094 -0.005146295 -0.00523641 -0.005328593 -0.005429353 -0.005538797 -0.005658639 -0.005787106
 -0.00591025 -0.006026368 -0.006119335 -0.006191288 -0.006238898 -0.006267493 -0.006285529 -0.006297655 -0.006314727 -0.006335821
 -0.006366355 -0.006396302 -0.006421967 -0.006431584 -0.006417047 -0.006379939 -0.006316547 -0.006243153 -0.006162335 -0.006086362
 -0.006018113 -0.005953723 -0.005893292 -0.00582749 -0.005756189 -0.005680357 -0.005601083 -0.005528503 -0.005462525 -0.005408741
 -0.005364825 -0.005326561 -0.005292922 -0.00525885 -0.005227072 -0.005199865 -0.005177693 -0.00516432 -0.005151416 -0.005136167
 -0.005106987 -0.005056527 -0.004984025 -0.004885227 -0.004774257 -0.004652 -0.004537395 -0.00443313 -0.004350089 -0.004289779
 -0.004245941 -0.004217801 -0.004184406 -0.00414466 -0.004078828 -0.003989338 -0.00387515 -0.003742773 -0.003610234 -0.003483046
 -0.00338249 -0.003305934 -0.00326202 -0.003236632 -0.003221539 -0.003198855 -0.003153074 -0.00307838 -0.002965364 -0.002825756
 -0.002660065 -0.002484081 -0.002301446 -0.002119858 -0.001940839 -0.001767414 -0.0015999 -0.001440933 -0.001290514 -0.001146538
 -0.00100853 -0.0008707588 -0.0007339902 -0.0005984917 -0.0004660021 -0.0003427306 -0.0002276189 -0.0001224678 -2.319935E-05 7.555108E-05
 0.0001755369 0.0002806749 0.0003905046 0.0005043095 0.0006269257 0.0007590826 0.0009096907 0.001083191 0.001277782 0.001496138
 0.001720498 0.001949208 0.002165895 0.002368715 0.002558358 0.002734986 0.002906597 0.003072709 0.003232412 0.003384118
 0.003519176 0.003637804 0.003735412 0.00381479 0.003878748 0.003931379 0.003979145 0.004026101 0.004078378 0.004138576
 0.004210368 0.004294258 0.00439162 0.004501229 0.004623989 0.00475397 0.004891658 0.005022755 0.005146065 0.005245086
 0.00531801 0.005362627 0.00537935 0.005388382 0.005391815 0.005418581 0.005467253 0.00554862 0.005654902 0.005767814
 0.005881954 0.005973146 0.006051157 0.006116729 0.006188123 0.006287275 0.006414911 0.006584349 0.00677032 0.006964768
 0.007146751 0.007303474 0.007445437 0.007570472 0.007704105 0.007850993 0.008014753 0.008197121 0.008374084 0.008544581
 0.008689716 0.008811856 0.008925609 0.009035605 0.009174268 0.009339641 0.009544764 0.009780421 0.01003354 0.01029737
 0.01055596 0.01080806 0.01104711 0.01127247 0.01148128 0.01167566 0.01185487 0.01202518 0.01218921 0.01234757
 0.01250175 0.01264504 0.01277576 0.01289774 0.01301054 0.01313098 0.01325973 0.01340388 0.01356223 0.01372498
 0.0138918 0.01405506 0.01421729 0.01438297 0.01455315 0.01473327 0.01492056 0.01511291 0.01530903 0.0155043
 0.01570644 0.0159174 0.0161505 0.0164157 0.01670886 0.01703669 0.01736438 0.01768577 0.01797299 0.01821678
 0.01844331 0.01865238 0.01889965 0.01918731 0.0195302 0.01992471 0.02033766 0.02076846 0.02119457 0.02162367
 0.02206942 0.0225361 0.02304257 0.02358143 0.02415199 0.0247408 0.02533505 0.02592165 0.02648969 0.0270244
 0.02751973 0.02795228 0.02831524 0.02858325 0.02874651 0.02880814 0.0287627 0.0286574 0.02849458 0.02833165
 0.02817129 0.02804172 0.02794186 0.0278712 0.02782687 0.02779474 0.02777186 0.02774015 0.02770166 0.02764988
 0.0275935 0.02754399 0.02750428 0.02748456 0.02747597 0.02747455 0.02747573 0.02747465 0.0274759 0.02748209
 0.0274871 0.02749138 0.02748074 0.02745106 0.02741188 0.02736255 0.02733356 0.02732624 0.02735131 0.02740663
 0.02747262 0.02754684 0.0276057 0.02765037 0.02767104 0.02767287 0.02766147 0.02764313 0.02763078 0.02762512
 0.02763149 0.02764959 0.02767756 0.02772637 0.02780331 0.02790719 0.02805097 0.02817424 0.02826518 0.0282806
 0.02820311 0.028095 0.02795885 0.02786816 0.02782633 0.02785224 0.02794267 0.02806951 0.02822744 0.02837291
 0.02850531 0.02859763 0.02865714 0.02868512 0.02869242 0.02869868 0.02870367 0.02871835 0.02872788 0.02872408
 0.02869823 0.02864071 0.02855988 0.02845514 0.02834037 0.02821719 0.02810346 0.02800115 0.0279301 0.02789303
 0.02788952 0.02791948 0.02796149 0.02801498 0.02806747 0.02811884 0.02816536 0.0282006 0.02820032 0.02816061
 0.02805232 0.027897 0.02771122 0.0275252 0.02738545 0.02728597 0.02723996 0.02722613 0.02723333 0.02726104
 0.02731061 0.02736568 0.02742733 0.02745413 0.02743558 0.02737988 0.02728226 0.02723061 0.02722944 0.02736486
 0.02763332 0.02802654 0.02852439 0.02901308 0.029474 0.02977279 0.02993008 0.02991144 0.02978115 0.02962327
 0.02948952 0.02948089 0.02958213 0.02982819 0.03014463 0.03050835 0.03084067 0.0311054 0.03127247 0.03131974
 0.03128811 0.03117592 0.03105927 0.03094622 0.03086881 0.03082879 0.03079701 0.0307728 0.03073706 0.03069585
 0.03067564 0.03067909 0.03073251 0.03082715 0.03095794 0.03111141 0.03126686 0.03140751 0.03150755 0.03155586
 0.03152944 0.03144648 0.03130488 0.03114248 0.0309739 0.0308163 0.03067842 0.03055516 0.03044655 0.03035062
 0.03026756 0.03019066 0.0301195 0.03003367 0.02993337 0.02981406 0.02967996 0.02955437 0.02943833 0.02934995
 0.02928259 0.02922984 0.02918568 0.02913673 0.02908237 0.02901655 0.0289411 0.02885654 0.02876139 0.0286573
 0.028534 0.02838745 0.02821332 0.02800466 0.02778995 0.02757012 0.02738885 0.0272522 0.02716217 0.02711911
 0.02707605 0.02703116 0.02694756 0.0268288 0.02667696 0.02649651 0.02630319 0.02610105 0.02590571 0.02572303
 0.02557178 0.02544828 0.02536111 0.02528807 0.02521707 0.02512372 0.02498787 0.02481097 0.02458123 0.02433994
 0.02408989 0.02389178 0.02375686 0.02371562 0.0237749 0.02390585 0.02410712</values></Ydata></AB><ScSm><Ydata ylabel="Single channel"><values byteorder="INTEL" format="FLOAT32" numvalues="1814"> 0.07265202 0.07267209 0.07275035 0.07291044 0.07312447 0.07332909 0.07347228 0.07354729 0.07357311 0.07355481
 0.07349659 0.07345062 0.07350293 0.07368698 0.073934 0.07412226 0.07417357 0.07411994 0.07408451 0.07416249
 0.07429247 0.07427229 0.07394734 0.07338887 0.0728516 0.07253988 0.07247873 0.07266301 0.07318352 0.07398071
 0.07456952 0.07438743 0.07350156 0.07263888 0.07237912 0.07259955 0.07281528 0.07273917 0.07236993 0.07188204
 0.07167448 0.07226395 0.07377833 0.07553755 0.07629591 0.07502572 0.07165043 0.06728508 0.06383045 0.06295439
 0.06491341 0.06820832 0.07070925 0.07135698 0.07067399 0.06969072 0.06883827 0.06807576 0.06759946 0.06788224
 0.06901886 0.07028481 0.0705056 0.06905432 0.06659496 0.06461812 0.0640828 0.06481043 0.06627511 0.06818234
 0.069654 0.06876371 0.06442659 0.05879785 0.05631664 0.05948693 0.06620859 0.07183951 0.07333116 0.07093056
 0.06682581 0.0633294 0.06201773 0.06330508 0.06635398 0.0697737 0.07247239 0.0737137 0.07292607 0.07019508
 0.06675372 0.064386 0.06432945 0.06679137 0.07090718 0.07481252 0.07648505 0.07523875 0.07218516 0.06905651
 0.0670591 0.06687012 0.06880815 0.07249878 0.07685768 0.08072433 0.08333781 0.08440045 0.08413076 0.08312844
 0.08192104 0.08088006 0.08054286 0.08128025 0.08243078 0.08255276 0.08099496 0.07876416 0.07748511 0.07771942
 0.07852025 0.07858729 0.07758242 0.07591449 0.07345122 0.0695007 0.06438902 0.05987915 0.05741011 0.05700424
 0.05831652 0.06119165 0.06442263 0.06567386 0.06403342 0.06164873 0.06159179 0.06458168 0.06860968 0.07139257
 0.07248306 0.07312678 0.07465242 0.07711059 0.07909222 0.07879581 0.07582103 0.07217957 0.07087471 0.07295169
 0.07648823 0.07895398 0.07987689 0.08056931 0.08183529 0.08272937 0.08154166 0.07782625 0.07350482 0.07169038
 0.07397977 0.07885443 0.08277725 0.08281285 0.07860754 0.07247718 0.06759874 0.06580806 0.0670961 0.07081231
 0.07638294 0.08269118 0.08778495 0.08996721 0.0890368 0.08618812 0.08264789 0.07853819 0.07353197 0.06875175
 0.06700161 0.07011721 0.0766243 0.08296905 0.08668928 0.08764511 0.08664311 0.08391874 0.07935788 0.07396247
 0.07034272 0.07069508 0.07415766 0.077291 0.07768229 0.07614952 0.07497415 0.0750508 0.07555373 0.07569106
 0.07583746 0.07689838 0.07901999 0.08124611 0.08244385 0.08233359 0.08153765 0.0808484 0.08050753 0.08003408
 0.07890157 0.07758685 0.07752278 0.07953829 0.08272652 0.08537498 0.08668214 0.0870595 0.08700261 0.08621621
 0.0840497 0.08073657 0.07790252 0.07736297 0.0793677 0.08244544 0.08493571 0.08618157 0.08636859 0.08592591
 0.08523609 0.08451082 0.08385311 0.08353043 0.08390979 0.08494003 0.08602767 0.08663327 0.08671888 0.086485
 0.08598045 0.08516988 0.08421221 0.08348222 0.08330439 0.0837066 0.08444621 0.08522705 0.08581764 0.08603013
 0.08578384 0.08522843 0.08464795 0.08420423 0.08389582 0.08374904 0.08386552 0.0842413 0.08468691 0.08499454
 0.08510266 0.08506176 0.08491882 0.08468683 0.08438616 0.08408079 0.08387844 0.08386992 0.08403194 0.08422779
 0.08435679 0.08445269 0.08456951 0.08463921 0.08454534 0.08430056 0.08405397 0.08393379 0.0839463 0.08401528
 0.08405475 0.0839849 0.08373158 0.08329099 0.08281354 0.08254887 0.08264649 0.08304359 0.08356469 0.0840572
 0.08441421 0.08457851 0.08458726 0.08454107 0.08448441 0.08436764 0.08414976 0.08389902 0.08377026 0.08388254
 0.08420993 0.08459946 0.08490309 0.08506966 0.0851222 0.08511846 0.08514176 0.08524352 0.08536744 0.08539966
 0.08531518 0.08521803 0.0852204 0.08532108 0.08541626 0.08541679 0.08534878 0.08532815 0.08543152 0.08561824
 0.08579397 0.0859181 0.08602343 0.08614628 0.08625838 0.08627973 0.08617151 0.08600264 0.08588763 0.08586736
 0.08589898 0.08595438 0.08606306 0.08624119 0.08643197 0.08655256 0.08658287 0.08658154 0.08661085 0.08666141
 0.08666733 0.08659038 0.08646663 0.08636616 0.08632882 0.0863475 0.08639307 0.08643667 0.08645526 0.08643485
 0.08637759 0.0862994 0.08621529 0.08613723 0.08609417 0.08613241 0.08626445 0.08642007 0.08648151 0.08638774
 0.08619544 0.08602466 0.08594463 0.08591995 0.08586769 0.08575109 0.08560468 0.08548121 0.08539955 0.08534512
 0.08529558 0.08523975 0.08519247 0.08519982 0.08530308 0.08547664 0.08562201 0.08565274 0.0855777 0.08548079
 0.08543199 0.08544043 0.08547798 0.08551946 0.08556724 0.085651 0.08578806 0.08593856 0.08603226 0.08605094
 0.0860516 0.08610184 0.08622704 0.0864176 0.08663765 0.08682117 0.08691193 0.08692803 0.0869516 0.08703975
 0.08717409 0.08730833 0.08743319 0.08757286 0.08774035 0.08792718 0.08813295 0.08837783 0.08867611 0.08900756
 0.08932128 0.08956945 0.0897472 0.08990848 0.09013309 0.09046172 0.09086056 0.09125224 0.09158171 0.09185361
 0.09211026 0.09237941 0.0926544 0.09293109 0.09324117 0.09362044 0.09405417 0.0944867 0.09488378 0.09525835
 0.09563494 0.09601663 0.09639389 0.09677038 0.09716935 0.09761084 0.09807806 0.0985145 0.09887016 0.09915149
 0.09941723 0.09973041 0.1001168 0.1005471 0.1009462 0.1012458 0.101458 0.1016757 0.1019713 0.1023158
 0.1026305 0.1029036 0.103207 0.103595 0.1040291 0.1044231 0.1047397 0.1050191 0.1053215 0.1056564
 0.105971 0.1062078 0.1063697 0.1065178 0.1067049 0.1069364 0.1072062 0.1075367 0.1079447 0.1083868
 0.1087823 0.1090841 0.1093023 0.1094704 0.1096197 0.1097744 0.1099415 0.1101091 0.1102715 0.1104344
 0.1105882 0.1107084 0.1108024 0.1109232 0.1111122 0.1113591 0.1116411 0.1119652 0.1123377 0.1127213
 0.1130699 0.1133986 0.1137677 0.1141842 0.1145624 0.1148108 0.1149278 0.1149789 0.1150134 0.1150505
 0.1151217 0.1152647 0.115469 0.11567 0.1158084 0.1158723 0.1158801 0.1158474 0.1157828 0.1157035
 0.1156438 0.115649 0.1157615 0.1160124 0.1164158 0.1169519 0.1175508 0.1181125 0.118559 0.1188603
 0.1190109 0.1190103 0.1188865 0.1187127 0.118555 0.1183992 0.1181519 0.1177225 0.117085 0.1162607
 0.1152745 0.1141504 0.1129391 0.111726 0.1106089 0.1096681 0.1089616 0.1085414 0.1084608 0.1087398
 0.1093134 0.1100261 0.1106903 0.1111466 0.1112782 0.1110138 0.1103509 0.1093672 0.108184 0.1069143
 0.1056403 0.1044086 0.1032242 0.1020744 0.1009918 0.1000936 0.09954736 0.09951281 0.1001229 0.1014748
 0.1035656 0.1062083 0.1090479 0.1117147 0.1139928 0.1158586 0.1173998 0.1187279 0.1199398 0.1210937
 0.1221931 0.1232121 0.1241437 0.1250045 0.1258009 0.1265131 0.1271113 0.1275672 0.1278597 0.1279939
 0.1280072 0.1279433 0.1278308 0.1276884 0.1275234 0.1273047 0.1269546 0.12639 0.1255743 0.1245366
 0.1233609 0.1221851 0.1212345 0.1208538 0.1214352 0.1232032 0.1260107 0.1293647 0.1326865 0.1355696
 0.1378585 0.1395829 0.1408694 0.1418717 0.1427203 0.1434983 0.1442456 0.1449681 0.1456527 0.1462872
 0.1468744 0.1474299 0.1479722 0.1485129 0.1490448 0.1495446 0.1499995 0.1504302 0.15088 0.1513742
 0.1518947 0.1523974 0.1528576 0.1532921 0.1537291 0.1541636 0.1545658 0.1549272 0.1552764 0.1556474
 0.1560532 0.1564877 0.1569287 0.1573374 0.1576807 0.1579658 0.1582366 0.1585319 0.1588554 0.1591882
 0.1595167 0.1598395 0.1601595 0.160484 0.1608261 0.1611891 0.161546 0.1618528 0.1620925 0.1622978
 0.1625191 0.1627757 0.1630448 0.1632962 0.1635309 0.1637846 0.1640931 0.1644547 0.164826 0.1651565
 0.1654267 0.1656587 0.1658909 0.1661472 0.1664256 0.1667122 0.1669976 0.1672789 0.1675553 0.1678279
 0.1681 0.1683737 0.1686471 0.1689172 0.169183 0.1694459 0.169707 0.1699681 0.1702354 0.1705227
 0.1708413 0.1711813 0.171508 0.1717889 0.1720218 0.1722324 0.1724473 0.1726784 0.1729256 0.1731834
 0.1734459 0.1737111 0.173983 0.1742649 0.174554 0.174843 0.1751263 0.1754038 0.175678 0.1759504
 0.1762204 0.1764901 0.1767647 0.1770466 0.1773296 0.1776053 0.1778717 0.1781346 0.1783995 0.1786641
 0.1789206 0.1791661 0.1794113 0.1796708 0.1799461 0.1802241 0.1804926 0.1807496 0.1809982 0.1812414
 0.1814842 0.1817334 0.1819922 0.1822579 0.182526 0.1827941 0.1830604 0.1833226 0.1835781 0.1838266
 0.1840719 0.1843203 0.1845771 0.1848436 0.185115 0.185383 0.1856408 0.185886 0.1861195 0.1863473
 0.1865811 0.1868304 0.1870935 0.1873599 0.1876199 0.1878709 0.1881177 0.1883684 0.1886256 0.1888836
 0.1891372 0.1893884 0.1896406 0.1898923 0.1901412 0.1903891 0.1906396 0.1908968 0.1911617 0.1914296
 0.1916926 0.1919478 0.1921985 0.1924489 0.1927007 0.1929519 0.1931969 0.1934332 0.1936665 0.193904
 0.1941455 0.194388 0.1946296 0.194869 0.1951063 0.1953446 0.1955841 0.1958211 0.1960595 0.1963103
 0.1965766 0.1968492 0.1971202 0.197387 0.1976469 0.1978975 0.1981399 0.1983759 0.1986105 0.1988544
 0.1991142 0.1993844 0.1996552 0.1999207 0.2001753 0.2004201 0.2006663 0.2009234 0.2011873 0.2014501
 0.2017096 0.2019649 0.2022173 0.2024732 0.2027348 0.2029961 0.2032527 0.2035035 0.2037423 0.2039673
 0.2041926 0.2044316 0.2046816 0.2049375 0.2051999 0.2054646 0.2057225 0.2059724 0.2062188 0.2064641
 0.2067133 0.2069705 0.2072282 0.2074803 0.2077329 0.2079884 0.2082365 0.2084735 0.2087034 0.2089152
 0.2090653 0.2090302 0.2084943 0.2068365 0.2031189 0.196262 0.1854561 0.1706568 0.1527816 0.1333954
 0.1141361 0.09627928 0.08059402 0.06742552 0.05685909 0.04883403 0.04321371 0.03989062 0.03888956 0.04047626
 0.04528795 0.05396058 0.06569297 0.07697092 0.082931 0.08119415 0.07413711 0.06672686 0.0623999 0.06140736
 0.06228812 0.06378648 0.06550044 0.06765915 0.07065739 0.07459965 0.07927963 0.0846687 0.09116025 0.09906062
 0.1079698 0.1169444 0.1253114 0.1331919 0.1411855 0.1496341 0.1582593 0.1664411 0.173712 0.1799862
 0.1854599 0.1904004 0.1949978 0.1993413 0.2034686 0.207371 0.2109153 0.2138123 0.2157551 0.2166497
 0.2167291 0.2164286 0.2161332 0.216024 0.2161193 0.2163919 0.2168231 0.2173992 0.2181047 0.2189173
 0.2198 0.220711 0.2216205 0.2225085 0.2233554 0.2241469 0.2248766 0.2255394 0.2261331 0.2266685
 0.2271632 0.2276279 0.2280664 0.2284803 0.2288695 0.2292363 0.2295892 0.229935 0.2302685 0.2305781
 0.2308568 0.231106 0.2313333 0.2315496 0.2317626 0.2319733 0.2321831 0.2323984 0.2326226 0.23285
 0.2330735 0.2332907 0.2335034 0.2337126 0.2339194 0.2341256 0.2343349 0.2345494 0.234766 0.2349778
 0.2351843 0.2353936 0.2356112 0.2358323 0.2360471 0.2362505 0.2364449 0.2366395 0.2368423 0.2370505
 0.2372565 0.2374644 0.2376888 0.2379337 0.2381867 0.2384335 0.2386666 0.2388855 0.2390985 0.239317
 0.2395372 0.2397384 0.2399106 0.2400731 0.2402593 0.2404848 0.2407351 0.24098 0.2412027 0.2414105
 0.2416173 0.2418263 0.2420297 0.2422177 0.2423913 0.2425756 0.2428043 0.2430788 0.243366 0.243643
 0.2439135 0.2441761 0.2444192 0.2446507 0.2448871 0.2451114 0.245285 0.2454129 0.2455665 0.2458239
 0.2461906 0.2465869 0.2469259 0.2471908 0.2474258 0.2476748 0.2479573 0.2482515 0.248465 0.2484945
 0.2483875 0.248374 0.2486578 0.2492159 0.2498535 0.2504014 0.2508157 0.2511381 0.2514158 0.2516493
 0.251791 0.2518034 0.2517425 0.2517762 0.2520664 0.2526021 0.2531956 0.2536746 0.2540154 0.2542721
 0.2544809 0.2546624 0.2547823 0.2546858 0.2542588 0.2537276 0.2536048 0.2541922 0.255237 0.2562025
 0.2568035 0.2571544 0.2574577 0.2577499 0.2579703 0.2580229 0.2576563 0.2565999 0.2551032 0.2540946
 0.2544147 0.2559649 0.2578655 0.2593365 0.2601891 0.2606241 0.2608871 0.2611064 0.2611995 0.2608826
 0.2599867 0.2588784 0.2583699 0.2589723 0.2603229 0.2615733 0.2622531 0.26252 0.2627132 0.2629731
 0.2631409 0.2627068 0.261102 0.2585378 0.2564265 0.2563879 0.2586679 0.2618422 0.2642239 0.2653152
 0.265688 0.265748 0.2651485 0.2634278 0.2606995 0.2576091 0.2551452 0.2545072 0.2563063 0.2595664
 0.2622775 0.2633795 0.2636563 0.2644268 0.2659668 0.267509 0.2682531 0.2679868 0.2669457 0.2653789
 0.2634381 0.2615872 0.2608366 0.2620277 0.2648182 0.2678061 0.2698202 0.2708052 0.2712186 0.2706714
 0.2676494 0.2613376 0.2539065 0.2499159 0.2522879 0.2592462 0.2662199 0.2703405 0.272014 0.2727686
 0.2732101 0.2728597 0.2704329 0.2645313 0.2558324 0.2484869 0.2473202 0.2530587 0.2615089 0.2674776
 0.2683229 0.2642436 0.2573379 0.250968 0.2483888 0.2507799 0.2567331 0.2636464 0.2692842 0.2723868
 0.2726626 0.2706726 0.2677802 0.2658123 0.2657443 0.2662614 0.264748 0.260583 0.2561694 0.2534054
 0.2507417 0.2460456 0.241279 0.241215 0.2472381 0.2550396 0.2594632 0.2597323 0.2585325 0.257102
 0.2531004 0.243967 0.2317391 0.2231378 0.2236691 0.231893 0.2406932 0.2442138 0.2424813 0.2393523
 0.2374034 0.2354374 0.2304158 0.2215871 0.2125424 0.2082554 0.2098563 0.2136444 0.2154678 0.2140149
 0.2093827 0.2017922 0.1940153 0.1922206 0.2007144 0.2166007 0.2320128 0.2405398 0.2395331 0.2287233
 0.2112007 0.1953343 0.1906884 0.1994535 0.2137939 0.2230667 0.2222781 0.2129651 0.1986447 0.1824309
 0.1684782 0.1623743 0.1677763 0.1827274 0.1997695 0.2096511 0.2064045 0.1919663 0.1766016 0.1715219
 0.1786917 0.1894815 0.1943641 0.1915812 0.1857745 0.1819567 0.1826023 0.187311 0.1932532 0.1977921
 0.2005927 0.2006864 0.1936004 0.1767409 0.1566515 0.144752 0.1454573 0.1538424 0.1647901 0.1776171
 0.1901885 0.195717 0.1904045 0.1806321 0.1775712 0.1853199 0.197368 0.2045738 0.2042243 0.2005703
 0.1982083 0.1971502 0.195106 0.1928109 0.1942346 0.2011137 0.2099257 0.2158194 0.2176758 0.2176875
 0.2176411 0.2175554 0.216946 0.2156477 0.21373 0.2115966 0.2098552 0.2086167 0.2073816 0.2057662
 0.2034907 0.1993479 0.1915181 0.1802971 0.1697462 0.1645381 0.165064 0.1677772 0.1703285 0.172893
 0.173407 0.1662296 0.1495492 0.1314767 0.1241805 0.1321543 0.1488534 0.1641234 0.1719519 0.1710043
 0.1616331 0.14615 0.1313664 0.1265016 0.1357381 0.1542771 0.1735019 0.188349 0.1979364 0.2016057
 0.1981662 0.1889108 0.1787681 0.1735141 0.1762876 0.1861966 0.1986134 0.2063627 0.2032113 0.1900604
 0.1777927 0.1792852 0.1958664 0.2150877 0.2246997 0.2250836 0.2243795 0.2258124 0.2260404 0.2240268
 0.2246419 0.2319392 0.2431435 0.2513816 0.2517446 0.2432296 0.2280083 0.211829 0.2025756 0.2040408
 0.2117145 0.217781 0.2187546 0.2149972 0.2060282 0.1925354 0.1814466 0.1817582 0.1940641 0.2092495
 0.218848 0.2227729 0.2255867 0.2286095 0.2283098 0.2216894 0.2113283 0.2038257 0.2032792 0.2076801
 0.2122873 0.2146063 0.2144732 0.2112696 0.2042905 0.1958648 0.1913786 0.1946355 0.2039624 0.2138078
 0.2197265 0.2211624 0.22013 0.2185872 0.2171178 0.2151028 0.2120375 0.2092482 0.2096385 0.2145548
 0.2215687 0.2269244 0.2298067 0.2326111 0.2371497 0.242149 0.2448324 0.2440003 0.2412069 0.2394302
 0.2407008 0.2444799 0.24803 0.248718 0.2465057 0.2442185 0.2449485 0.2491156 0.2544091 0.2584156
 0.2605901 0.2617689 0.2627549 0.2636257 0.2636901 0.2620248 0.2587996 0.2560553 0.2562585 0.259847
 0.2647974 0.2686905 0.2706414 0.271185 0.2709889 0.2701564 0.2685923 0.2666195 0.2649889 0.2643002
 0.2645716 0.2654015 0.2663796 0.2672656 0.2679525 0.2684331 0.2687653 0.2689983 0.2691537 0.2692717
 0.2693893 0.2694572 0.2693776 0.2691632 0.2689756 0.2689413 0.2689896 0.2689408 0.2686908 0.2682177
 0.2674611 0.2663333 0.2648596 0.2631841 0.2613986 0.2594809 0.2575111 0.255904 0.2552809 0.2560067
 0.2578458 0.2600997 0.2620742 0.2634215 0.2641381 0.2643861 0.2643569 0.264213 0.2640506 0.263886
 0.263692 0.2634531 0.2631824 0.2628988 0.2626144 0.262353 0.2621532 0.2620307 0.2619456 0.2618228
 0.2615993 0.2612531 0.2608028 0.2602922 0.2597542 0.2591759 0.2584996 0.2576692 0.2566788 0.2555813
 0.2544579 0.2533773 0.2523627 0.2513821 0.2503773 0.2493074 0.2481474 0.2468549 0.2453973 0.2438388
 0.2423452 0.2410496 0.2399396 0.2389005 0.2378254 0.2366572 0.235379 0.2340178 0.2326391 0.2313029
 0.2300252 0.2287844 0.22755 0.2262941 0.224988 0.2236015 0.222111 0.2205104 0.2188141 0.2170505
 0.215239 0.2133559 0.2113137 0.2089802 0.2062181 0.2029128 0.1990007 0.1945163 0.1896156 0.1845315
 0.1794934 0.1746784 0.1702129 0.1661983 0.1627242 0.1598585 0.1576344 0.156064 0.1551622 0.1549456
 0.1554103 0.1565233 0.1582231 0.160413 0.162958 0.1656927 0.1684344 0.1710148 0.1733448 0.1754602
 0.1774779 0.1794809 0.1814453 0.1832815 0.1849263 0.1863744 0.1876339 0.1886927 0.1895479 0.1902325
 0.1907922 0.1912549 0.1916355 0.1919461 0.1921886 0.19236 0.1924785 0.1925933 0.1927639 0.1930335
 0.1934159 0.1938987 0.1944634 0.195105 0.1958323 0.1966531 0.1975584 0.1985197 0.1995063 0.2005072
 0.2015318 0.2025958 0.2037264 0.2049766 0.2064062 0.208038 0.2098432 0.2117607 0.2137116 0.2156001
 0.2173253 0.2188095 0.2200207 0.2209692 0.2216782 0.2221652 0.2224522 0.2225753 0.222569 0.2224541
 0.2222504 0.2219806 0.2216494 0.2212389 0.2207339 0.2201397 0.2194779 0.218777 0.2180638 0.2173557
 0.2166648 0.2160073 0.2153988 0.2148454 0.2143442 0.2138838 0.2134372 0.2129704 0.2124634 0.2119171
 0.2113435 0.2107501 0.2101225 0.2094162 0.2085846 0.207618 0.2065381 0.2053628 0.2040935 0.2027325
 0.2012911 0.1997792 0.1981962 0.1965379 0.1948107 0.1930273 0.1911777 0.1892222 0.1871437 0.185002
 0.1829115 0.1809656 0.1791938 0.1775708 0.1760452 0.1745722 0.1731417 0.1717743 0.1704891 0.1692804
 0.1681202 0.1669841 0.1658734 0.1648109 0.1638128 0.1628837 0.1620393 0.1613022 0.1606677 0.1601035
 0.159591 0.1591406 0.1587721 0.1585064 0.1583614 0.1583187 0.1583034 0.1582285 0.1580591 0.1578216
 0.1575646 0.1573222 0.1571067 0.1569226 0.156772 0.1566342 0.156445 0.1561068 0.1555188 0.1546052
 0.1533408 0.1517665 0.1499741 0.1480834 0.1462323 0.1445526 0.1431251 0.1419664 0.141058 0.1403618
 0.1398126 0.1393386 0.1389164 0.1385981 0.1384702 0.1385573 0.1387476 0.138856 0.1388027 0.1387021
 0.1387462 0.1390325 0.1395236 0.1401159 0.1407059 0.1412213 0.1416226 0.1418881 0.1420155 0.1420318
 0.1419703 0.14184 0.141637 0.141369 0.1410454 0.140667 0.1402323 0.1397286 0.1391309 0.1384371
 0.1376724 0.1368385 0.1359066 0.134865 0.1337159 0.132451 0.131115 0.129883 0.1290009 0.1286384
 0.128791 0.1292886 0.1299151 0.1305571 0.1311807 0.1316552 0.1317823 0.1316413 0.1317652 0.1327558
 0.1346982 0.1370488 0.1391013 0.1404801 0.1411872 0.1413381 0.1410002 0.140206 0.1389519 0.1371994
 0.1349747 0.1324135 0.1296669 0.1268679 0.1241874 0.121782 0.1197107 0.1179908 0.1166492 0.1157436
 0.115386 0.1152119 0.1134594 0.1078656 0.09912102 0.09247725 0.09337828 0.1013606 0.1103306 0.1150086
 0.1151672 0.1135628 0.1121459 0.1112421 0.1107551 0.1107899 0.1114416 0.1125755 0.1138413 0.1148755
 0.1155314 0.1158363 0.1157232 0.114843 0.1125297 0.1080115 0.1010299 0.09241 0.08378889 0.07665657
 0.07168691 0.06875813 0.06727427 0.06651497 0.06600317 0.06571603 0.06594324 0.06693816 0.06870846 0.07110221
 0.07397792 0.07716052 0.08028707 0.08292581 0.0849155 0.08642496 0.0876388 0.08854121 0.08902875 0.08907701
 0.08875574 0.08818275 0.08748867 0.08675729 0.08596254 0.08499663 0.08382855 0.08265235 0.08179127 0.0813984
 0.08133256 0.08136678 0.08139975 0.08142236 0.08142029 0.08138469 0.08134261 0.08135196 0.08149807 0.08184262
 0.0823289 0.08279265 0.08310039 0.08324681 0.08331769 0.08335553 0.08324124 0.08279332 0.08207051 0.08141706
 0.08102126 0.08059616 0.07976097 0.07862642 0.07773336 0.07745717 0.07768135 0.07802369 0.07819373 0.0781229
 0.0779313 0.07786673 0.07814679 0.07870127</values></Ydata></ScSm><ScRf><Ydata ylabel="Single channel"><values byteorder="INTEL" format="FLOAT32" numvalues="1820"> 0.06038606 0.0605477 0.06064516 0.06067954 0.06067705 0.06068318 0.06074566 0.06088554 0.06107906 0.06126777
 0.06139705 0.06145288 0.06145559 0.06142292 0.06136681 0.06132742 0.06136911 0.06151748 0.06171794 0.06187185
 0.06191463 0.06187294 0.06185052 0.06192632 0.06204298 0.06202266 0.06173433 0.06124698 0.06078468 0.06051975
 0.06046588 0.06061341 0.06104204 0.06171048 0.06221512 0.06207523 0.06133302 0.0605932 0.06035064 0.06051459
 0.06068326 0.060612 0.06029345 0.05987231 0.05968975 0.06018884 0.06147948 0.06298224 0.06363805 0.0625754
 0.05973049 0.05604792 0.05313444 0.0523973 0.05405243 0.05683636 0.05895288 0.0595054 0.05893202 0.05810378
 0.05738542 0.05673733 0.05632012 0.05653726 0.05747768 0.05853201 0.05870443 0.05746523 0.05538069 0.05371293
 0.05326743 0.05388412 0.05511173 0.05670246 0.05792676 0.05717491 0.05353788 0.048822 0.04675096 0.04942654
 0.0550862 0.05982906 0.06108706 0.05906366 0.05560621 0.05267189 0.05158494 0.0526751 0.05522419 0.05807012
 0.06031375 0.06134791 0.06069252 0.05841412 0.05554004 0.05355949 0.05350813 0.05556409 0.0590064 0.06227126
 0.06366317 0.06261072 0.06004699 0.05741901 0.05573468 0.0555671 0.0571923 0.06030032 0.06398014 0.06725265
 0.06946903 0.07036863 0.07013385 0.06927986 0.06826269 0.06739533 0.06711809 0.06773141 0.06867982 0.0687625
 0.06744251 0.06556757 0.06449829 0.06470212 0.0653813 0.06544139 0.0645968 0.06319091 0.06111334 0.05778475
 0.05348423 0.04969896 0.04763845 0.04731666 0.04844205 0.05088747 0.05363683 0.05471485 0.05334245 0.05132449
 0.05125362 0.05374417 0.05711237 0.0594416 0.06035814 0.06090715 0.06219829 0.06426659 0.06592557 0.06566595
 0.06316026 0.06010631 0.05902764 0.06079458 0.06378353 0.06586747 0.06665622 0.06725973 0.06835587 0.06914534
 0.06818372 0.06509399 0.06149588 0.06000718 0.06196096 0.06607004 0.06936131 0.06937796 0.06583515 0.06068723
 0.05660433 0.05512437 0.0562416 0.05942361 0.06420123 0.06963117 0.07405078 0.07600458 0.07529828 0.07292937
 0.06994596 0.06647184 0.06224179 0.05821452 0.05678337 0.05951926 0.06516221 0.07066739 0.073923 0.07481046
 0.0740228 0.07175541 0.06789946 0.06331857 0.06027832 0.06068566 0.06378908 0.06659858 0.06701837 0.06576224
 0.06481893 0.06497168 0.06550318 0.06572412 0.06596458 0.06701578 0.06899773 0.071064 0.07221897 0.07221855
 0.07161217 0.0711029 0.07090707 0.07059533 0.06970225 0.06866493 0.06876339 0.07071521 0.07368356 0.07613464
 0.07737127 0.07778413 0.07782864 0.07723628 0.07540673 0.07253577 0.07009105 0.0697279 0.07168462 0.0746244
 0.07702541 0.07828037 0.07856239 0.07827345 0.07776871 0.07724306 0.07679084 0.07664912 0.07713661 0.07819518
 0.07928899 0.07993972 0.08011699 0.07999577 0.07961518 0.07895203 0.07816944 0.07761858 0.07758577 0.0780777
 0.07886592 0.07969135 0.08035409 0.08067232 0.08054664 0.0801038 0.07962601 0.07929574 0.07912628 0.07913135
 0.07938698 0.07987779 0.08041944 0.08080989 0.0809904 0.08102033 0.08095948 0.08082427 0.08062987 0.08044142
 0.08037224 0.0805006 0.08077132 0.08103423 0.08122143 0.08141883 0.08169667 0.08194725 0.08199486 0.0818255
 0.08160956 0.08151265 0.08155961 0.08167407 0.08177051 0.08177315 0.08160543 0.08125503 0.08086546 0.08068326
 0.08086161 0.08135183 0.08199094 0.08261675 0.083092 0.08333422 0.08337849 0.08334109 0.0832886 0.08319278
 0.08302334 0.08283883 0.08277331 0.082939 0.08332554 0.08379319 0.0841796 0.08440547 0.08448984 0.08452016
 0.08460943 0.08480285 0.0850063 0.08507658 0.08499965 0.08491662 0.08495632 0.08509251 0.08518793 0.08515467
 0.0850525 0.08502652 0.08515589 0.08538393 0.08560073 0.08576599 0.08592913 0.08613814 0.08634703 0.08643427
 0.08633354 0.08612675 0.08596392 0.08590537 0.085903 0.08592819 0.08603159 0.08624406 0.08648527 0.08663076
 0.08665073 0.08663516 0.08667602 0.08675684 0.08677924 0.08668009 0.08649817 0.0863333 0.08626425 0.08630234
 0.08639486 0.08646231 0.08644922 0.08635673 0.08623049 0.08611605 0.08602996 0.08597963 0.08600098 0.08614427
 0.08639632 0.08663286 0.08669369 0.08652876 0.0862557 0.08605307 0.08599658 0.08600689 0.08594908 0.08576423
 0.08550241 0.08525313 0.08506767 0.08494212 0.08484822 0.08476907 0.08472033 0.08474469 0.08486481 0.08502333
 0.08509325 0.08498429 0.08473466 0.0844736 0.08430366 0.08423952 0.08423498 0.08423479 0.08421847 0.08422013
 0.0842821 0.08437454 0.08440413 0.08432619 0.08420601 0.0841499 0.08421607 0.08439669 0.08462605 0.08479252
 0.08480744 0.08469497 0.08457612 0.08454658 0.08460225 0.08468843 0.08477589 0.08486725 0.08496386 0.08506165
 0.08517278 0.08532754 0.08554608 0.08581047 0.08606559 0.08625427 0.08636598 0.08645648 0.08660977 0.08686863
 0.08719931 0.08752284 0.08778039 0.08797341 0.08814587 0.08832981 0.08851891 0.08870352 0.08891146 0.08918332
 0.08951387 0.08985129 0.09015653 0.09043553 0.09071074 0.09098877 0.09126756 0.0915615 0.09190528 0.09232074
 0.09277157 0.09316416 0.09342071 0.09355613 0.09367138 0.09387451 0.09420677 0.09461308 0.09496741 0.09516651
 0.09523481 0.09531005 0.0954943 0.0957514 0.09598856 0.09620365 0.09649082 0.09690513 0.09737384 0.09776159
 0.09800114 0.0981458 0.09830009 0.0985086 0.09871896 0.09885755 0.0989258 0.0989953 0.09911716 0.09928316
 0.09948796 0.09977313 0.100165 0.1006038 0.1009853 0.1012569 0.1014402 0.1015778 0.1016936 0.101788
 0.1018467 0.1018666 0.1018844 0.1019496 0.1020577 0.1021466 0.1021786 0.1021929 0.1022561 0.1023983
 0.1026161 0.1029021 0.1032313 0.1035473 0.1038114 0.1040633 0.1043821 0.1047658 0.1050997 0.105278
 0.1053206 0.1053269 0.1053516 0.1053881 0.1054492 0.1055896 0.1058367 0.1061528 0.106485 0.1068173
 0.1071625 0.1075207 0.1078573 0.108113 0.1082398 0.1082418 0.1081845 0.108163 0.1082528 0.1084747
 0.1087879 0.1091182 0.1094037 0.109613 0.1097255 0.10973 0.1096642 0.1096311 0.1097216 0.109914
 0.1100769 0.1100808 0.1098848 0.1095167 0.1090084 0.1083838 0.1076932 0.1070255 0.1064724 0.1060846
 0.1058721 0.1058455 0.1060413 0.1064819 0.1071135 0.1078115 0.1084569 0.1089739 0.10929 0.1093146
 0.1090031 0.1084192 0.1076989 0.1069649 0.1062875 0.1056835 0.1051205 0.1045569 0.1040282 0.1036872
 0.1037304 0.1042766 0.1053077 0.1066871 0.108207 0.1096518 0.1108771 0.1118614 0.1126771 0.1134053
 0.1140836 0.1147299 0.1153746 0.1160359 0.1166808 0.1172516 0.1177329 0.11816 0.118566 0.1189476
 0.1192821 0.1195555 0.1197758 0.1199743 0.1201763 0.1203583 0.1204574 0.1204419 0.1203493 0.1202368
 0.1201162 0.1199511 0.1196969 0.119335 0.1189003 0.1185062 0.1183316 0.1185469 0.1192168 0.1202606
 0.1215112 0.1228172 0.124084 0.1252312 0.1261671 0.1268401 0.1272891 0.1276098 0.1278839 0.1281537
 0.1284369 0.1287354 0.1290381 0.1293347 0.1296252 0.1299197 0.1302334 0.1305734 0.1309187 0.1312262
 0.1314739 0.1316952 0.1319561 0.1322937 0.1326787 0.1330442 0.1333573 0.1336496 0.1339626 0.1342779
 0.1345368 0.1347215 0.1348827 0.1350873 0.1353676 0.1357144 0.1360841 0.1364128 0.1366577 0.1368349
 0.1370012 0.1371979 0.1374258 0.1376692 0.1379209 0.1381796 0.138441 0.1387081 0.1389978 0.1393163
 0.1396286 0.1398757 0.1400349 0.1401513 0.1402956 0.1404974 0.1407279 0.1409424 0.1411312 0.1413308
 0.1415867 0.1419017 0.1422223 0.1424823 0.1426586 0.1427843 0.1429118 0.1430719 0.1432647 0.1434759
 0.1436908 0.1439 0.1441006 0.1442978 0.1445011 0.1447142 0.1449327 0.14515 0.1453637 0.1455747
 0.1457835 0.1459887 0.1461942 0.1464164 0.1466766 0.1469739 0.1472699 0.1475143 0.1476895 0.1478211
 0.147946 0.1480865 0.1482501 0.1484361 0.1486346 0.1488326 0.1490265 0.1492231 0.1494263 0.1496306
 0.1498301 0.1500264 0.1502263 0.1504333 0.1506472 0.1508698 0.1511053 0.1513497 0.1515864 0.151798
 0.1519836 0.1521599 0.1523441 0.1525392 0.1527337 0.1529174 0.1530955 0.1532812 0.1534783 0.1536757
 0.1538626 0.1540423 0.1542271 0.154423 0.1546238 0.1548197 0.1550111 0.1552083 0.1554176 0.1556322
 0.155839 0.1560315 0.1562134 0.1563947 0.1565833 0.1567787 0.1569751 0.1571704 0.15737 0.1575797
 0.1577986 0.1580189 0.1582295 0.1584225 0.1586021 0.1587836 0.1589803 0.1591902 0.1593992 0.1595955
 0.1597812 0.1599683 0.1601632 0.1603633 0.1605689 0.160786 0.1610137 0.161239 0.1614517 0.1616544
 0.1618566 0.1620656 0.1622851 0.1625147 0.1627491 0.1629806 0.1632037 0.1634159 0.1636167 0.1638043
 0.1639748 0.1641296 0.1642817 0.1644479 0.1646337 0.1648301 0.165024 0.1652088 0.165388 0.1655684
 0.1657518 0.1659372 0.1661301 0.1663364 0.1665501 0.1667588 0.1669597 0.1671592 0.1673614 0.1675665
 0.167774 0.1679819 0.168189 0.1683981 0.1686089 0.1688155 0.1690161 0.1692159 0.1694199 0.1696297
 0.1698465 0.1700674 0.1702861 0.1705019 0.170718 0.1709309 0.1711358 0.1713378 0.1715453 0.1717594
 0.1719783 0.1722003 0.1724194 0.1726315 0.1728394 0.1730424 0.1732333 0.1734149 0.1736019 0.1738035
 0.1740194 0.1742461 0.1744746 0.1746919 0.1748982 0.175105 0.1753173 0.1755343 0.1757579 0.1759846
 0.1762051 0.1764199 0.1766348 0.1768351 0.1769716 0.1769313 0.1764511 0.1750164 0.1718372 0.1659918
 0.1567865 0.1441866 0.1289795 0.1124979 0.09612888 0.08094898 0.06760818 0.05640464 0.04742213 0.0406158
 0.03586265 0.03305548 0.03220676 0.03354908 0.03763718 0.04501564 0.0549953 0.06458087 0.06964155 0.06816711
 0.06218659 0.05591845 0.05227025 0.05144369 0.05219737 0.05347387 0.0549374 0.05677928 0.05932955 0.06267738
 0.06665307 0.07123977 0.07677734 0.08352439 0.091132 0.09879054 0.1059275 0.1126488 0.119465 0.1266677
 0.1340248 0.141014 0.147238 0.152619 0.1573188 0.1615625 0.1655118 0.1692415 0.1727835 0.1761331
 0.1791784 0.1816687 0.183335 0.1840959 0.184155 0.183891 0.1836398 0.1835629 0.1836775 0.183953
 0.1843626 0.1848884 0.1855171 0.1862301 0.1869941 0.187773 0.1885469 0.1893088 0.1900501 0.1907576
 0.1914185 0.1920213 0.1925621 0.1930495 0.1934974 0.1939146 0.1943052 0.1946725 0.1950182 0.1953472
 0.1956697 0.1959904 0.196298 0.196577 0.1968234 0.1970465 0.1972583 0.1974667 0.1976756 0.1978871
 0.1981021 0.1983173 0.1985267 0.1987323 0.1989456 0.1991689 0.1993869 0.1995846 0.1997643 0.1999368
 0.2001098 0.2002887 0.2004788 0.2006792 0.2008857 0.2010978 0.2013151 0.2015285 0.2017291 0.2019204
 0.2021145 0.2023142 0.2025091 0.2026891 0.2028604 0.2030429 0.2032494 0.203472 0.203695 0.2039142
 0.204132 0.2043465 0.204555 0.2047576 0.2049492 0.205119 0.2052696 0.2054264 0.2056192 0.2058539
 0.2061039 0.2063342 0.2065349 0.2067265 0.2069281 0.2071346 0.2073297 0.2075066 0.207674 0.2078527
 0.208063 0.2083027 0.2085491 0.2087884 0.2090271 0.2092682 0.2095055 0.2097398 0.2099722 0.2101803
 0.2103362 0.2104577 0.2106161 0.2108786 0.2112392 0.2116153 0.2119236 0.2121541 0.2123584 0.2125871
 0.2128587 0.213146 0.213359 0.2134064 0.2133336 0.2133444 0.2136145 0.2141182 0.2146813 0.2151576
 0.2155153 0.2157969 0.216047 0.216268 0.2164181 0.216458 0.2164259 0.2164646 0.2167237 0.2172045
 0.2177446 0.2181855 0.2184995 0.2187352 0.2189294 0.2191014 0.2192176 0.2191414 0.2187782 0.2183313
 0.218246 0.2187755 0.2196926 0.220534 0.2210613 0.2213795 0.2216643 0.2219477 0.2221784 0.22227
 0.2219942 0.2211044 0.2198119 0.2189298 0.2192065 0.2205735 0.2222669 0.223593 0.2243733 0.2247839
 0.225049 0.2252831 0.2254045 0.2251547 0.2243862 0.2234299 0.2230068 0.2235672 0.2247881 0.2259193
 0.2265478 0.2268173 0.2270286 0.2273019 0.2274944 0.2271602 0.2258047 0.2236125 0.2218129 0.221815
 0.2238321 0.2266277 0.2287415 0.2297441 0.2301255 0.2302222 0.2297217 0.228231 0.2258712 0.2232218
 0.2211409 0.2206543 0.2222739 0.2251399 0.2275101 0.228482 0.2287572 0.2294869 0.230899 0.2323088
 0.2330093 0.2328191 0.2319571 0.2306504 0.2290289 0.2274914 0.2269173 0.2280371 0.2305409 0.2331955
 0.2349844 0.2358787 0.236295 0.2358897 0.2333154 0.2278361 0.2213523 0.2178779 0.2199926 0.2261429
 0.2323153 0.2359905 0.2375261 0.2382639 0.2387314 0.2385017 0.2364408 0.2313172 0.2237313 0.2173445
 0.2164078 0.2215521 0.229075 0.2344034 0.2352181 0.231699 0.2256969 0.2201771 0.2180071 0.2202204
 0.2255682 0.2317557 0.2368214 0.2396688 0.2400413 0.2384163 0.2359855 0.2343709 0.2344443 0.2350367
 0.2338274 0.2302741 0.2265074 0.2241941 0.2219507 0.2179044 0.2138298 0.2139788 0.2195627 0.226726
 0.2308812 0.2313573 0.2305532 0.2295513 0.2262394 0.2183366 0.2077156 0.2004728 0.2016024 0.2098134
 0.2186842 0.2229567 0.2227146 0.2214787 0.2215103 0.2215114 0.218452 0.2115268 0.2041536 0.2011019
 0.2034124 0.2074613 0.2092392 0.2075396 0.2025438 0.1945442 0.1862619 0.1836619 0.1909153 0.2052898
 0.219299 0.2268648 0.2255182 0.2150397 0.1983486 0.1833301 0.1789972 0.1874029 0.2011446 0.2101815
 0.2097945 0.2014004 0.1882789 0.1733638 0.160639 0.1555067 0.1615371 0.1768716 0.194271 0.2046835
 0.202224 0.1887778 0.1744826 0.1704317 0.1785316 0.190156 0.1958134 0.1937741 0.1886941 0.1856363
 0.1871647 0.1928987 0.1999049 0.2054538 0.2091969 0.2100342 0.2031527 0.1857989 0.1649276 0.1526285
 0.1535697 0.1625814 0.1743206 0.1880844 0.2015426 0.2074271 0.2017237 0.1912776 0.1879799 0.1961434
 0.2088094 0.2162728 0.2156943 0.2116306 0.2089883 0.2077942 0.2056262 0.2032649 0.2049078 0.2123864
 0.2219821 0.2285789 0.2309863 0.2314961 0.2319834 0.2324742 0.2324542 0.2317315 0.2303705 0.2288188
 0.2277657 0.2273698 0.2271163 0.2266014 0.2255048 0.2223943 0.2150409 0.2035525 0.1923661 0.1867342
 0.1871547 0.1897307 0.1919566 0.1941733 0.1941634 0.1856413 0.1665595 0.1459154 0.1372073 0.1453938
 0.1631996 0.1794029 0.1874333 0.1859304 0.1753732 0.1582711 0.1418584 0.1358542 0.1445441 0.1626666
 0.1810402 0.1944843 0.2024418 0.2045986 0.1998834 0.1895753 0.1785822 0.1726445 0.1748254 0.1841489
 0.1959419 0.2030641 0.1993903 0.1858763 0.1732574 0.1741514 0.1898338 0.2081381 0.2171352 0.2172232
 0.216337 0.217611 0.2177969 0.2158948 0.2166491 0.2240276 0.2353829 0.2440672 0.245274 0.237936
 0.2241197 0.2095304 0.2020307 0.2052921 0.2145512 0.2217393 0.2232689 0.2195542 0.2102502 0.1962644
 0.1848176 0.1851047 0.1976483 0.213087 0.2228114 0.2268055 0.2297546 0.2329725 0.2328126 0.2262091
 0.2158178 0.2083859 0.20808 0.212835 0.2178362 0.220599 0.2209969 0.2183671 0.2119193 0.2040108
 0.200188 0.2043524 0.2146908 0.2253483 0.2316469 0.2330006 0.2315375 0.2293424 0.2270595 0.2240633
 0.219847 0.2158196 0.2150308 0.2189154 0.2250116 0.2294943 0.2315561 0.2336739 0.2377162 0.2423739
 0.24476 0.2435605 0.2402746 0.2379016 0.2385354 0.2417068 0.2447322 0.2450028 0.2424659 0.2399075
 0.2403902 0.2443365 0.2494614 0.2533689 0.2555076 0.2566924 0.2577036 0.2585952 0.2586526 0.2569422
 0.253636 0.2507671 0.2507789 0.2541006 0.2587433 0.2623573 0.2641255 0.2646168 0.2644888 0.2638059
 0.2624279 0.2606332 0.2591305 0.2584976 0.2587647 0.2595639 0.2605093 0.2613631 0.262012 0.2624509
 0.2627483 0.2629573 0.2630886 0.2631674 0.26323 0.2632509 0.2631752 0.2630547 0.2630561 0.26327
 0.2635833 0.2637997 0.2638161 0.2636047 0.2630915 0.2621884 0.2609375 0.2595013 0.2579727 0.2563095
 0.2545637 0.253137 0.2526655 0.2535452 0.255564 0.2580265 0.2602307 0.2618249 0.2628053 0.2633194
 0.2635264 0.2635622 0.2635242 0.2634512 0.2633308 0.2631385 0.2628652 0.2625179 0.2621165 0.2617006
 0.2613237 0.2610181 0.2607642 0.260501 0.2601692 0.2597465 0.2592537 0.2587335 0.2582117 0.2576686
 0.2570493 0.2563105 0.2554538 0.254523 0.2535817 0.25269 0.2518756 0.2511147 0.2503524 0.2495423
 0.2486494 0.2476321 0.2464761 0.245264 0.2441608 0.2432878 0.242623 0.2420398 0.2414133 0.240674
 0.2398052 0.2388361 0.2378204 0.2367882 0.2357216 0.2345894 0.2333854 0.2321177 0.2307795 0.2293542
 0.2278382 0.2262485 0.2246155 0.2229691 0.2213053 0.2195557 0.2175963 0.2152879 0.2125077 0.2091677
 0.2052437 0.2008045 0.1960078 0.1910591 0.1861627 0.1814904 0.1771735 0.173309 0.16997 0.1672165
 0.1651036 0.1636769 0.1629611 0.1629567 0.1636497 0.1650087 0.1669672 0.1694149 0.1722104 0.1751924
 0.1781859 0.181027 0.1836168 0.1859638 0.1881527 0.1902492 0.1922348 0.1940473 0.1956608 0.1970917
 0.1983418 0.1993864 0.2002246 0.200901 0.2014654 0.2019408 0.2023383 0.2026812 0.2029973 0.2032956
 0.2035609 0.2037757 0.2039469 0.2041062 0.2042857 0.2044983 0.2047467 0.2050436 0.2054148 0.2058744
 0.2064022 0.2069571 0.2075189 0.2081022 0.2087263 0.2093955 0.2101207 0.2109402 0.2118995 0.2130175
 0.214276 0.215628 0.2170067 0.2183351 0.2195365 0.2205444 0.221314 0.2218313 0.2221129 0.2221944
 0.222115 0.2219074 0.2215947 0.2211959 0.2207295 0.2202091 0.2196411 0.2190301 0.2183818 0.2177008
 0.2169965 0.2162896 0.2156006 0.2149303 0.2142614 0.2135851 0.2129186 0.2122897 0.2117068 0.2111497
 0.210591 0.2100219 0.2094501 0.2088792 0.2083004 0.2076979 0.2070515 0.2063375 0.2055379 0.2046445
 0.2036515 0.2025539 0.2013573 0.2000775 0.1987238 0.1972896 0.1957668 0.1941592 0.1924809 0.1907396
 0.1889229 0.1870075 0.1850005 0.1829654 0.1809938 0.1791485 0.1774424 0.1758602 0.1743811 0.1729876
 0.1716668 0.1704082 0.1691979 0.1680234 0.1668854 0.1657995 0.1647854 0.1638517 0.1629909 0.1621946
 0.1614734 0.1608467 0.1603131 0.1598473 0.1594298 0.159063 0.1587663 0.1585705 0.158501 0.1585408
 0.1586227 0.1586736 0.1586573 0.1585776 0.1584617 0.1583431 0.1582432 0.1581649 0.1580991 0.1580199
 0.157869 0.1575607 0.1570062 0.1561369 0.1549297 0.1534237 0.1517028 0.1498694 0.1480431 0.146356
 0.1449154 0.1437714 0.1429144 0.1422806 0.1417761 0.1413383 0.1409804 0.1407673 0.1407562 0.1409407
 0.1412148 0.1414188 0.1414768 0.1414798 0.1416041 0.1419677 0.1425702 0.143319 0.1440886 0.1447804
 0.1453419 0.1457458 0.145991 0.1461131 0.1461484 0.1460987 0.1459644 0.1457721 0.1455392 0.1452555
 0.1449112 0.1444991 0.1439989 0.1434047 0.1427382 0.1420121 0.1412169 0.1403378 0.1393357 0.1381676
 0.1369067 0.1357943 0.1351036 0.134979 0.1353967 0.1361982 0.1371786 0.1382125 0.1392377 0.140086
 0.1405167 0.1405766 0.1407993 0.1418279 0.1438042 0.1462126 0.1483348 0.1497719 0.1505084 0.1506447
 0.1502481 0.1493725 0.148027 0.1461598 0.1437896 0.1410647 0.138139 0.1351392 0.132258 0.1296927
 0.1275153 0.1257229 0.1243195 0.1233586 0.1229688 0.1227785 0.1209174 0.1149744 0.1056938 0.09866899
 0.09966294 0.1081464 0.1176522 0.1226191 0.1228326 0.1212016 0.1197605 0.118832 0.1183196 0.1183597
 0.1190625 0.1202672 0.1215842 0.1226306 0.1232652 0.1235376 0.1233977 0.1224733 0.1200333 0.1152398
 0.1078085 0.09859777 0.08934467 0.08167168 0.07633605 0.07320675 0.07163136 0.07083865 0.07030988 0.06999718
 0.07021327 0.07127617 0.07324431 0.07595481 0.07918822 0.08266781 0.08598357 0.08875199 0.09089939 0.09262858
 0.09407645 0.0951452 0.09568362 0.09569076 0.09530059 0.09466669 0.09391036 0.09310947 0.09225635 0.09125306
 0.090057 0.08885163 0.08795536 0.08751343 0.08738506 0.08735786 0.08734088 0.08732355 0.08728884 0.08722189
 0.08713825 0.08709802 0.08720908 0.08754912 0.08805078 0.08852635 0.08882757 0.08894891 0.08898081 0.0889603
 0.08875635 0.08819625 0.08737445 0.08665926 0.08621906 0.08572344 0.08476992 0.08349033 0.08247344 0.08213094
 0.0823395 0.08267297 0.08279794 0.08263803 0.08234932 0.08223759 0.08255576 0.08321573 0.08376694 0.08380894
</values></Ydata></ScRf><Data_Parameters_AB><parameter name="DPF">1</parameter><parameter name="NPT">3497</parameter><parameter name="FXV">3996</parameter><parameter name="LXV">500</parameter><parameter name="CSF">1</parameter><parameter name="MXY">0.0549371391534805</parameter><parameter name="MNY">-0.0818864479660988</parameter><parameter name="DAT">30/05/2022</parameter><parameter name="TIM">11:19:33.197 (GMT+2)</parameter><parameter name="DXU">WN</parameter></Data_Parameters_AB><AB__Qtest><MainReport name="Quality Test Report"><Header><Line><Legend>Test result ok/not ok [1/0]: </Legend><Value>0</Value></Line><Line><Legend>Method file: </Legend><Value>C:\Users\Public\Documents\Bruker\OPUS_8.2.28\QT\IRBT_v3_default.QT</Value></Line></Header><Matrix><Line><Legend></Legend><Legend>min</Legend><Legend>max</Legend><Legend>measured</Legend></Line><Line><Value>Absorption (X-Range 1):</Value><Value>0.400000</Value><Value>2.000000</Value><Value>0.097380</Value></Line><Line><Value>Noise (X-Range 4):</Value><Value></Value><Value>0.000300</Value><Value>0.000037</Value></Line><Line><Value>Signal/Noise (X-Range 2):</Value><Value>200.000000</Value><Value></Value><Value>37.060384</Value></Line><Line><Value>Signal/Noise (X-Range 3):</Value><Value>40.000000</Value><Value></Value><Value>28.480819</Value></Line><Line><Value>Water vapour (X-Range 5):</Value><Value></Value><Value>0.000300</Value><Value>0.000063</Value></Line><Line><Value>Signal/Water (X-Range 2):</Value><Value>100.000000</Value><Value></Value><Value>21.817800</Value></Line><Line><Value>Signal/Water (X-Range 3):</Value><Value>20.000000</Value><Value></Value><Value>16.766929</Value></Line><Line><Value>Fringes (X-Range 6):</Value><Value></Value><Value>0.000100</Value><Value>0.000075</Value></Line></Matrix></MainReport></AB__Qtest><Data_Parameters_ScSm><parameter name="DPF">1</parameter><parameter name="NPT">1814</parameter><parameter name="FXV">3996.33169228125</parameter><parameter name="LXV">499.541461535156</parameter><parameter name="CSF">1</parameter><parameter name="MXY">0.273210078477859</parameter><parameter name="MNY">0.0388895645737648</parameter><parameter name="DAT">30/05/2022</parameter><parameter name="TIM">11:19:33.197 (GMT+2)</parameter><parameter name="DXU">WN</parameter></Data_Parameters_ScSm><Data_Parameters_ScRf><parameter name="DPF">1</parameter><parameter name="NPT">1820</parameter><parameter name="FXV">4004.04661832813</parameter><parameter name="LXV">495.683998511719</parameter><parameter name="CSF">1</parameter><parameter name="MXY">0.264616847038269</parameter><parameter name="MNY">0.0322067625820637</parameter><parameter name="DAT">30/05/2022</parameter><parameter name="TIM">11:19:07.346 (GMT+2)</parameter><parameter name="DXU">WN</parameter></Data_Parameters_ScRf><Optic_Parameters_Rf><parameter name="APR">0</parameter><parameter name="APT">Open</parameter><parameter name="BMS">KBr</parameter><parameter name="DTC">RT-DLaTGS_IR-Biotyper [Microplate reader]</parameter><parameter name="HPF">0</parameter><parameter name="LPF">10.0</parameter><parameter name="LPV">4000</parameter><parameter name="PGR">0</parameter><parameter name="RCH">Module port</parameter><parameter name="RDX">0</parameter><parameter name="SRC">MIR</parameter><parameter name="VEL">10.0</parameter><parameter name="SON">Off</parameter></Optic_Parameters_Rf><Acquisition_Parameters_Rf><parameter name="ADT">1</parameter><parameter name="AQM">DD</parameter><parameter name="CFE">0</parameter><parameter name="COR">0</parameter><parameter name="DEL">0</parameter><parameter name="DLY">0</parameter><parameter name="HFW">8000</parameter><parameter name="LFW">0</parameter><parameter name="NSR">32</parameter><parameter name="PLF">AB</parameter><parameter name="RES">6</parameter><parameter name="RGN">-1</parameter><parameter name="STR">0</parameter><parameter name="TCL">MakeCompatibleScalar (0, {WSV=1.000000, ARV=0});</parameter><parameter name="TDL">37</parameter><parameter name="RPO">0</parameter></Acquisition_Parameters_Rf><FT_-_Parameters_Rf><parameter name="APF">B3</parameter><parameter name="HFQ">500</parameter><parameter name="LFQ">4000</parameter><parameter name="NLI">0</parameter><parameter name="PHR">24</parameter><parameter name="PHZ">ML</parameter><parameter name="SPZ">NO</parameter><parameter name="ZFF">1</parameter></FT_-_Parameters_Rf><Optic_Parameters_><parameter name="APR">0</parameter><parameter name="APT">Open</parameter><parameter name="BMS">KBr</parameter><parameter name="CHN">Module port</parameter><parameter name="DTC">RT-DLaTGS_IR-Biotyper [Microplate reader]</parameter><parameter name="HPF">0</parameter><parameter name="LPF">10.0</parameter><parameter name="LPV">4000</parameter><parameter name="PGN">0</parameter><parameter name="RDX">0</parameter><parameter name="SRC">MIR</parameter><parameter name="VEL">10.0</parameter><parameter name="SON">Off</parameter></Optic_Parameters_><FT_-_Parameters_><parameter name="APF">B3</parameter><parameter name="HFQ">500</parameter><parameter name="LFQ">4000</parameter><parameter name="NLI">0</parameter><parameter name="PHR">24</parameter><parameter name="PHZ">ML</parameter><parameter name="SPZ">NO</parameter><parameter name="ZFF">1</parameter></FT_-_Parameters_><Acquisition_Parameters_><parameter name="ADT">1</parameter><parameter name="AQM">DD</parameter><parameter name="CFE">0</parameter><parameter name="COR">0</parameter><parameter name="DEL">0</parameter><parameter name="DLY">0</parameter><parameter name="HFW">8000</parameter><parameter name="LFW">0</parameter><parameter name="NSS">32</parameter><parameter name="PLF">AB</parameter><parameter name="RES">6</parameter><parameter name="SOT">0</parameter><parameter name="TCL">MakeCompatibleScalar (0, {WSV=1.000000, ARV=0});</parameter><parameter name="TDL">37</parameter><parameter name="SPO">0</parameter><parameter name="SGN">-1</parameter></Acquisition_Parameters_><Instrument_Parameters_Rf><parameter name="HFL">15800.168544</parameter><parameter name="LFL">0</parameter><parameter name="LWN">15800.168544</parameter><parameter name="ABP">32197</parameter><parameter name="SSP">1</parameter><parameter name="ARG">2</parameter><parameter name="ASG">2</parameter><parameter name="ASS">32</parameter><parameter name="GFW">16</parameter><parameter name="GBW">16</parameter><parameter name="BFW">0</parameter><parameter name="BBW">0</parameter><parameter name="PKA">7324</parameter><parameter name="PKL">4990</parameter><parameter name="PRA">7474</parameter><parameter name="PRL">5001</parameter><parameter name="P2A">1</parameter><parameter name="P2L">1</parameter><parameter name="P2R">1</parameter><parameter name="P2K">1</parameter><parameter name="DAQ">0</parameter><parameter name="AG2">1</parameter><parameter name="SSM">1</parameter><parameter name="RSN">25188</parameter><parameter name="CRR">0</parameter><parameter name="SRT">1653909547.347</parameter><parameter name="DUR">19.6369934082031</parameter><parameter name="TSC">28</parameter><parameter name="MVD">0.604352295398712</parameter><parameter name="AN1">0.225819983293323</parameter><parameter name="AN2">0</parameter><parameter name="VSN">2.485 Apr  4 2017</parameter><parameter name="SRN">0085</parameter><parameter name="CAM">0</parameter><parameter name="INS">IR-Biotyper</parameter><parameter name="FOC">69</parameter><parameter name="RDY">1</parameter><parameter name="ARS">32</parameter></Instrument_Parameters_Rf><Sample_Parameters_><parameter name="BLD"></parameter><parameter name="CNM">Admin</parameter><parameter name="CPY"></parameter><parameter name="DPM"></parameter><parameter name="EXP">IRBT_v3_32Scans.XPM</parameter><parameter name="LCT"></parameter><parameter name="SFM">Microplate, HTS-XT</parameter><parameter name="SNM">220530-1021_CLA33F (D_7)_A3_862a1509-25b8-4c7a-b831-ddc3700bbada.0</parameter><parameter name="XPP">C:\Users\Public\Documents\Bruker\OPUS_8.2.28\XPM</parameter><parameter name="IST">OK</parameter><parameter name="CPG">1252</parameter><parameter name="UID">5dcd26f2-c764-4e6c-a9ce-4b7baec93194</parameter></Sample_Parameters_><Instrument_Parameters_><parameter name="HFL">15800.168544</parameter><parameter name="LFL">0</parameter><parameter name="LWN">15800.168544</parameter><parameter name="ABP">32197</parameter><parameter name="SSP">1</parameter><parameter name="ASG">2</parameter><parameter name="ARG">2</parameter><parameter name="ASS">32</parameter><parameter name="GFW">16</parameter><parameter name="GBW">16</parameter><parameter name="BFW">0</parameter><parameter name="BBW">0</parameter><parameter name="PKA">7897</parameter><parameter name="PKL">4988</parameter><parameter name="PRA">8145</parameter><parameter name="PRL">4993</parameter><parameter name="P2A">1</parameter><parameter name="P2L">1</parameter><parameter name="P2R">1</parameter><parameter name="P2K">1</parameter><parameter name="DAQ">0</parameter><parameter name="AG2">1</parameter><parameter name="SSM">1</parameter><parameter name="RSN">13220</parameter><parameter name="CRR">0</parameter><parameter name="SRT">1653909573.198</parameter><parameter name="DUR">19.6369934082031</parameter><parameter name="TSC">28</parameter><parameter name="MVD">0.423087388277054</parameter><parameter name="AN1">0.225811679139445</parameter><parameter name="AN2">0</parameter><parameter name="VSN">2.485 Apr  4 2017</parameter><parameter name="SRN">0085</parameter><parameter name="CAM">0</parameter><parameter name="INS">IR-Biotyper</parameter><parameter name="FOC">69</parameter><parameter name="RDY">1</parameter></Instrument_Parameters_><History/></OPUSDataFile>
