<?xml version="1.0" encoding="UTF-8" ?>
<OPUSDataFile><AB><Ydata ylabel="Absorbance Units"><values byteorder="INTEL" format="FLOAT32" numvalues="3497"> -0.07776958 -0.07778802 -0.07780343 -0.07781615 -0.07782155 -0.07781939 -0.07779854 -0.07775936 -0.07770246 -0.07763077
 -0.07756205 -0.07749806 -0.07745593 -0.07743202 -0.07742681 -0.07743538 -0.07744871 -0.07746758 -0.07748884 -0.07751586
 -0.07755186 -0.07759377 -0.07764232 -0.07768904 -0.07773091 -0.0777629 -0.07778288 -0.07779067 -0.07778596 -0.07776911
 -0.0777399 -0.0777014 -0.07765374 -0.07760675 -0.07756103 -0.07752702 -0.07750441 -0.07749675 -0.07750328 -0.07752285
 -0.07755576 -0.07760248 -0.07766268 -0.07773764 -0.07782239 -0.07791385 -0.07800199 -0.07807869 -0.07813539 -0.07816397
 -0.07816548 -0.07813671 -0.07808815 -0.07802059 -0.07794859 -0.07787398 -0.07781083 -0.07776062 -0.07773365 -0.07773057
 -0.07775071 -0.07779285 -0.0778407 -0.07789267 -0.07792956 -0.07795388 -0.07796355 -0.07796399 -0.07796811 -0.0779768
 -0.07799879 -0.07802901 -0.07806531 -0.07810256 -0.07813551 -0.07816272 -0.07818155 -0.07819375 -0.0781993 -0.07820022
 -0.07819689 -0.07819121 -0.07818289 -0.07817785 -0.07817607 -0.07818957 -0.07821901 -0.07827765 -0.0783652 -0.07848281
 -0.07862604 -0.07877043 -0.07890837 -0.07899658 -0.07903673 -0.07900564 -0.0789222 -0.07880583 -0.0786763 -0.07856612
 -0.07847995 -0.07843611 -0.07841972 -0.07843067 -0.07844397 -0.07844863 -0.07843561 -0.07839677 -0.07835107 -0.07829934
 -0.07826565 -0.07825352 -0.07826427 -0.07829824 -0.07833628 -0.07837797 -0.07841299 -0.07844408 -0.07848384 -0.07853424
 -0.07861198 -0.07871076 -0.07882656 -0.07894556 -0.07904115 -0.07910862 -0.0791278 -0.07911203 -0.07906594 -0.07899931
 -0.07892063 -0.07882809 -0.07871889 -0.07860804 -0.07849333 -0.07841669 -0.07838372 -0.07843307 -0.07857237 -0.07878829
 -0.07908136 -0.07932488 -0.0795121 -0.07950588 -0.07932747 -0.07904653 -0.07868771 -0.07838663 -0.07813655 -0.0779897
 -0.07792754 -0.07794589 -0.07801878 -0.07811684 -0.07821359 -0.07827374 -0.07829691 -0.07826634 -0.07821468 -0.07815243
 -0.07809657 -0.07805906 -0.07801592 -0.07796476 -0.07788578 -0.07777407 -0.07765257 -0.07752214 -0.07742519 -0.07736232
 -0.07734971 -0.07738309 -0.07744408 -0.07752684 -0.07759987 -0.07765986 -0.07768201 -0.07766794 -0.07760628 -0.07750824
 -0.07737882 -0.0772392 -0.07710675 -0.07700121 -0.07693948 -0.07692804 -0.0769771 -0.07707073 -0.07721173 -0.07735925
 -0.07750893 -0.07761575 -0.0776737 -0.07766394 -0.07758467 -0.07744968 -0.07726083 -0.07704955 -0.07681774 -0.07659328
 -0.07637586 -0.07617892 -0.0760017 -0.07584843 -0.07572032 -0.07562168 -0.07555253 -0.07551762 -0.07550713 -0.07551771
 -0.07553083 -0.07553466 -0.0755186 -0.07547309 -0.07540565 -0.07531484 -0.07521685 -0.07511392 -0.07501961 -0.0749357
 -0.0748696 -0.07482191 -0.07479332 -0.07478332 -0.0747838 -0.07479296 -0.07479437 -0.07478701 -0.07475619 -0.07470623
 -0.07463858 -0.07456264 -0.07449581 -0.07444376 -0.0744227 -0.07442727 -0.07445824 -0.07451043 -0.074578 -0.07466941
 -0.07478914 -0.07493372 -0.07511218 -0.07527089 -0.07540514 -0.07544963 -0.07539289 -0.07524206 -0.07499634 -0.07470047
 -0.0743562 -0.07399111 -0.0736097 -0.07325506 -0.0729343 -0.07270224 -0.07255489 -0.07251678 -0.07256377 -0.07267232
 -0.07280076 -0.07288334 -0.07290805 -0.07282997 -0.07269159 -0.07250436 -0.07230701 -0.0721234 -0.07195131 -0.071799
 -0.07163528 -0.07145506 -0.07124002 -0.07098451 -0.07071538 -0.07043355 -0.07018439 -0.06996917 -0.06981199 -0.06970921
 -0.06965172 -0.06962726 -0.06958463 -0.06950891 -0.06932463 -0.06905013 -0.06867401 -0.06824341 -0.06782007 -0.06741521
 -0.0670675 -0.06674928 -0.06645549 -0.06615998 -0.06584819 -0.0655164 -0.06515917 -0.06478643 -0.0643995 -0.06400451
 -0.06360392 -0.06318321 -0.06274222 -0.06223698 -0.06166642 -0.06100504 -0.06026351 -0.05950745 -0.05874772 -0.058071
 -0.05746383 -0.05693571 -0.05646736 -0.05603041 -0.05560579 -0.05516589 -0.05467574 -0.05409637 -0.05340341 -0.0525561
 -0.05160182 -0.05054544 -0.04944925 -0.0483425 -0.0472042 -0.04603521 -0.04480993 -0.04352041 -0.0422116 -0.04088565
 -0.03959074 -0.03832753 -0.03710278 -0.0359145 -0.03475313 -0.0336152 -0.0324822 -0.03135039 -0.0301971 -0.02902861
 -0.02784926 -0.02665663 -0.02546712 -0.02422369 -0.02288713 -0.02139702 -0.01966849 -0.01780705 -0.015816 -0.01387342
 -0.01205245 -0.01034843 -0.008782586 -0.007253145 -0.005749011 -0.004215571 -0.002647246 -0.001055733 0.0005568462 0.002141211
 0.003698505 0.005203026 0.006679277 0.008210761 0.009832387 0.01171424 0.01379599 0.01607819 0.01840714 0.02054947
 0.02250331 0.02414764 0.02564062 0.02704193 0.02848564 0.0300588 0.03176639 0.03364326 0.03558441 0.03757484
 0.03953917 0.04146004 0.04336876 0.04526498 0.04723064 0.04926703 0.05139051 0.05358845 0.05576786 0.05792186
 0.05996417 0.06191387 0.06377793 0.06557956 0.06736574 0.06915024 0.07096884 0.07283097 0.0747643 0.07674896
 0.07878976 0.08083443 0.08285256 0.08484817 0.08680046 0.08880536 0.09088157 0.09307659 0.09541096 0.09776633
 0.1001368 0.1023928 0.1045332 0.1065773 0.1085353 0.1104981 0.1124659 0.1144926 0.1165616 0.118657
 0.1207555 0.1227969 0.1247901 0.1267033 0.128608 0.1305524 0.1326115 0.1348732 0.1372817 0.1398607
 0.1424413 0.1449703 0.147376 0.1496233 0.1517688 0.1538137 0.1558222 0.1577988 0.159785 0.1617826
 0.1638218 0.1659005 0.1680174 0.1701672 0.1723227 0.1744866 0.1766512 0.1788252 0.181026 0.1832484
 0.1854982 0.1877513 0.1899877 0.1921885 0.1943291 0.196424 0.1984664 0.200501 0.2025406 0.2046122
 0.2067288 0.2088647 0.2110197 0.2131594 0.2152805 0.217389 0.2194851 0.2215808 0.2236738 0.2257487
 0.2278069 0.2298448 0.2318685 0.2338992 0.2359279 0.2379504 0.2399501 0.2418958 0.2437968 0.2456442
 0.2474705 0.2492945 0.2511362 0.2530135 0.2549157 0.2568486 0.2587734 0.2606849 0.2625454 0.2643457
 0.2661012 0.2678106 0.2695342 0.2712739 0.2730495 0.2748557 0.2766536 0.2784436 0.2802066 0.2819512
 0.2836975 0.2854414 0.2871856 0.2889197 0.2906261 0.2923093 0.2939685 0.2956063 0.2972277 0.2988217
 0.3003795 0.3019136 0.3034206 0.3049376 0.3064743 0.308038 0.3096335 0.311235 0.3128409 0.314431
 0.3160042 0.3175368 0.3190277 0.3204499 0.3218117 0.3231328 0.3244292 0.3257627 0.3271315 0.3285668
 0.3300481 0.3315592 0.3330854 0.3346069 0.3361147 0.3375996 0.339049 0.3404537 0.3418117 0.3431194
 0.3443838 0.345607 0.3467873 0.3479231 0.3490273 0.3500992 0.3511854 0.3522877 0.353436 0.3546257
 0.3558282 0.357037 0.3582052 0.3593333 0.3603977 0.3614045 0.3623506 0.3632532 0.3641313 0.3650085
 0.3659197 0.3668611 0.3678487 0.368845 0.3698351 0.3707982 0.3717194 0.3726172 0.3734925 0.3743648
 0.3752378 0.3761115 0.3769865 0.3778541 0.3787134 0.3795447 0.3803468 0.3810991 0.3818062 0.3824778
 0.3831207 0.3837633 0.3844022 0.3850444 0.3856811 0.3863008 0.3869019 0.3874794 0.3880312 0.3885548
 0.3890474 0.3895032 0.389936 0.3903464 0.3907572 0.3911748 0.3916036 0.3920461 0.3924941 0.3929472
 0.3933991 0.3938492 0.3942788 0.394686 0.395043 0.3953529 0.3956128 0.3958322 0.396038 0.396236
 0.3964525 0.3966841 0.3969402 0.3972077 0.3974796 0.3977367 0.3979596 0.3981518 0.3983002 0.3984522
 0.3986191 0.3988404 0.3991356 0.3994673 0.3998387 0.4001621 0.4004299 0.4005966 0.4006611 0.4006537
 0.4005791 0.4004959 0.4004031 0.4003278 0.4002615 0.4001896 0.4001113 0.4000126 0.3999113 0.3998295
 0.399776 0.3997794 0.3998044 0.3998409 0.3998403 0.3997675 0.3996316 0.3994185 0.3991906 0.3989595
 0.3987669 0.3986245 0.398515 0.3984395 0.3983465 0.3982333 0.3980485 0.3977927 0.3974483 0.3970267
 0.3965721 0.3961024 0.3956998 0.3953672 0.3951588 0.395048 0.3950264 0.3950491 0.3950683 0.3950493
 0.3949465 0.3947679 0.3944954 0.3941854 0.3938484 0.3935467 0.3932978 0.393127 0.3930414 0.3930411
 0.3931262 0.3933055 0.3935789 0.3939487 0.3944091 0.3949083 0.3954298 0.3958624 0.3961935 0.3963153
 0.3962481 0.3959663 0.395536 0.3950351 0.3945403 0.3941685 0.393934 0.3939054 0.3939966 0.3941997
 0.3943794 0.3944895 0.3944404 0.3941946 0.3937649 0.3931398 0.3924146 0.3915945 0.3907835 0.3899867
 0.3892579 0.3885963 0.3880101 0.3874973 0.3870535 0.3866767 0.3863613 0.3860993 0.385877 0.3856736
 0.3854609 0.3851989 0.3848413 0.384345 0.3836567 0.3827831 0.381696 0.3804817 0.3791529 0.3778211
 0.3765149 0.3752945 0.374175 0.3731633 0.3722622 0.3714537 0.3707362 0.370053 0.3693983 0.3686867
 0.3679228 0.3670781 0.366177 0.3652871 0.3644196 0.3636461 0.3629315 0.3622599 0.3615807 0.3608252
 0.359991 0.3590392 0.3580326 0.3569831 0.3559753 0.3550431 0.354228 0.3535571 0.3529799 0.3525026
 0.3519968 0.3514526 0.3507643 0.3499275 0.3489581 0.3478661 0.3467693 0.3456757 0.344694 0.3438145
 0.3430658 0.3424271 0.3418677 0.3413692 0.3408905 0.3404205 0.3399316 0.3394215 0.3388795 0.3383098
 0.3377129 0.3370891 0.3364411 0.3357577 0.3350384 0.3342658 0.3334375 0.3325397 0.3315707 0.3305249
 0.329402 0.3282037 0.3269314 0.3255965 0.3242032 0.3227765 0.3213243 0.319885 0.3184655 0.3171028
 0.3157936 0.3145529 0.3133622 0.31221 0.3110728 0.3099275 0.3087665 0.3075749 0.3063719 0.3051588
 0.3039632 0.3027941 0.3016559 0.300553 0.2994616 0.2983801 0.2972853 0.2961762 0.2950514 0.2939121
 0.2927694 0.2916238 0.2904833 0.2893483 0.2882234 0.2871091 0.2860095 0.2849227 0.2838486 0.2827816
 0.2817156 0.2806465 0.2795659 0.2784834 0.2773957 0.2763337 0.2753062 0.2743419 0.2734566 0.2726249
 0.2718531 0.2710504 0.27021 0.2692484 0.2681612 0.2669539 0.2656335 0.2642898 0.262932 0.261661
 0.2604734 0.2594185 0.2584713 0.2576066 0.2567835 0.255924 0.2550083 0.2539696 0.2528509 0.251652
 0.2504519 0.249299 0.2482171 0.2472391 0.2463035 0.2454013 0.2444813 0.2435247 0.242581 0.2416493
 0.2408323 0.2401354 0.2395888 0.2391841 0.2388268 0.2385 0.2380551 0.2374904 0.2367124 0.2357516
 0.2346242 0.2333797 0.2321064 0.230832 0.2296304 0.2284828 0.2274009 0.2263535 0.2253193 0.2243063
 0.223308 0.2223564 0.2214635 0.2206205 0.2198325 0.2190493 0.2182654 0.217465 0.2166471 0.2158591
 0.2151029 0.2144193 0.2138004 0.2132207 0.2126688 0.2120869 0.2114786 0.2108192 0.210127 0.2094217
 0.2087162 0.20804 0.2073764 0.2067324 0.2060564 0.2053261 0.2044923 0.2035213 0.2024335 0.2012124
 0.1999693 0.1987149 0.1975688 0.1965482 0.1956656 0.1949227 0.1942081 0.1935147 0.1927139 0.1918122
 0.1907767 0.1896324 0.1884496 0.1872501 0.1861251 0.1850709 0.1841281 0.1832686 0.1824788 0.181726
 0.1809793 0.1802216 0.179431 0.1786196 0.1777812 0.1769544 0.176147 0.1753905 0.1746964 0.174041
 0.1734267 0.1727777 0.1720898 0.1713143 0.1704553 0.1695558 0.1686261 0.167755 0.1669362 0.1662001
 0.1655214 0.1648501 0.1641765 0.1634502 0.1627027 0.161944 0.1612222 0.1605818 0.1600445 0.1596388
 0.1593536 0.1591916 0.1591385 0.1591898 0.1593442 0.1596027 0.159954 0.160401 0.1608837 0.161399
 0.1618289 0.1621667 0.1622926 0.1622107 0.1618802 0.1613235 0.1605986 0.159731 0.158813 0.1578545
 0.1569129 0.1559896 0.155103 0.1542653 0.1534878 0.1527917 0.1521934 0.1516983 0.1513169 0.1510272
 0.1508278 0.1506882 0.1506011 0.1505607 0.1505626 0.1506453 0.1508105 0.1511283 0.1516011 0.1522808
 0.1531595 0.1542193 0.15544 0.1567381 0.1580972 0.1594308 0.1607437 0.1620011 0.1632247 0.1644263
 0.1656257 0.1668442 0.1680906 0.1693769 0.1707006 0.1720694 0.1734532 0.1748565 0.1761972 0.1774702
 0.1785579 0.1794477 0.1800582 0.1803831 0.1804419 0.180241 0.1798848 0.1793813 0.1788347 0.178243
 0.1776506 0.1770587 0.1764817 0.1759491 0.1755085 0.1752086 0.1751294 0.1752907 0.1757472 0.1764612
 0.1774353 0.1786022 0.1799412 0.1813878 0.182928 0.1844888 0.1860613 0.1875571 0.1889665 0.1902271
 0.1913343 0.1922741 0.1930451 0.1936281 0.1940137 0.1941284 0.1939636 0.1934377 0.1925696 0.1913557
 0.1898431 0.1881108 0.1861966 0.1841844 0.1820712 0.1798888 0.1776031 0.1752037 0.1726621 0.1699589
 0.1671032 0.1640841 0.1609644 0.1577449 0.154533 0.1513378 0.1482658 0.1453245 0.1425637 0.1399823
 0.1375631 0.1353016 0.1331602 0.1311394 0.1292223 0.1274082 0.1256913 0.1240592 0.122489 0.1209665
 0.1194602 0.1179778 0.1165084 0.115085 0.1137213 0.1124509 0.1112914 0.1102574 0.1093574 0.1085911
 0.10796 0.1074598 0.1070901 0.1068499 0.1067391 0.1067571 0.106902 0.1071436 0.1074691 0.1077808
 0.1080577 0.1081594 0.1080851 0.1077464 0.1071893 0.106441 0.1055807 0.1047121 0.1039046 0.1032552
 0.1027905 0.1025613 0.102539 0.1027364 0.1030716 0.1035367 0.104011 0.1044797 0.104809 0.1049861
 0.1048852 0.1044981 0.1037171 0.1025386 0.1008945 0.09879396 0.09625352 0.09330821 0.09009277 0.08666586
 0.08324481 0.07987634 0.0767547 0.07386777 0.0712931 0.06895841 0.06683136 0.0648407 0.06292723 0.06107888
 0.05927063 0.05753446 0.05587579 0.05431393 0.05285645 0.05149052 0.05021641 0.04901264 0.04787781 0.04679899
 0.04577558 0.04479775 0.04386431 0.04296182 0.04208956 0.04123573 0.04040386 0.03959591 0.03881878 0.03808815
 0.03740251 0.03677269 0.03617611 0.03560116 0.03501593 0.03439384 0.03373098 0.03301011 0.03227495 0.03152926
 0.03083366 0.03020238 0.02965742 0.02920731 0.02881115 0.0284676 0.02810757 0.02772914 0.02729944 0.02682431
 0.02633179 0.02582734 0.02535361 0.02490048 0.02446589 0.02403035 0.02355256 0.02303156 0.02244098 0.02181059
 0.02115314 0.02050739 0.01990125 0.01935567 0.01888924 0.0184963 0.01818392 0.01791795 0.01769769 0.01746606
 0.01721681 0.01690522 0.01652687 0.01609029 0.01559775 0.0150999 0.01459875 0.01413417 0.01370201 0.01330549
 0.01294058 0.01259677 0.01227521 0.01197412 0.01169288 0.01143184 0.0111847 0.01094525 0.01071127 0.0104771
 0.01025172 0.01003813 0.009841239 0.009667165 0.009496761 0.009330026 0.009133287 0.008901638 0.008621898 0.008291923
 0.00793667 0.007558002 0.007195039 0.006847505 0.006532517 0.00624509 0.005973118 0.005712204 0.00544227 0.005166065
 0.004877035 0.004585522 0.004301891 0.004035597 0.003802421 0.003595584 0.003421193 0.003250828 0.003076122 0.00286711
 0.002610513 0.002303739 0.001940441 0.001548567 0.001129523 0.0007173488 0.0003146858 -6.064851E-05 -0.0004083449 -0.000727736
 -0.001019975 -0.001293142 -0.001548865 -0.001797883 -0.002042151 -0.002292876 -0.002550411 -0.00282191 -0.003103461 -0.003394264
 -0.003686497 -0.003972124 -0.004247787 -0.004506222 -0.004756868 -0.005000361 -0.005251711 -0.005516984 -0.00579809 -0.006098709
 -0.006402181 -0.0067074 -0.006996463 -0.007267726 -0.007518343 -0.007748453 -0.007964504 -0.008166207 -0.008354012 -0.008526857
 -0.008678828 -0.008812169 -0.00892798 -0.009034011 -0.009145053 -0.009268512 -0.009421841 -0.009604544 -0.009824016 -0.01007216
 -0.0103467 -0.01063856 -0.01094376 -0.01125458 -0.01156864 -0.01187802 -0.01218092 -0.01247151 -0.01274833 -0.01301344
 -0.01326671 -0.01351587 -0.01376128 -0.0140092 -0.01425947 -0.01451384 -0.01477169 -0.01503145 -0.01529222 -0.01555076
 -0.01580618 -0.01605476 -0.01629729 -0.01653271 -0.01676383 -0.01699301 -0.01722212 -0.01745416 -0.01768603 -0.01791828
 -0.01814327 -0.01835867 -0.01855983 -0.01874405 -0.01891795 -0.01908105 -0.01924909 -0.01942323 -0.01961492 -0.0198243
 -0.02004776 -0.02028383 -0.02051808 -0.02074992 -0.02096817 -0.02117512 -0.02137091 -0.02155943 -0.0217486 -0.02194034
 -0.02214175 -0.0223499 -0.0225657 -0.02278243 -0.02299608 -0.02320169 -0.0233951 -0.02357789 -0.02374899 -0.02391407
 -0.02407409 -0.02423298 -0.02439152 -0.02454982 -0.02470791 -0.02486655 -0.02502587 -0.02518914 -0.02535635 -0.02552901
 -0.02570626 -0.02588483 -0.02606424 -0.0262409 -0.0264159 -0.02658994 -0.02676347 -0.0269386 -0.02711179 -0.02728057
 -0.02744162 -0.02759019 -0.02773107 -0.02786377 -0.02799874 -0.02813982 -0.02829045 -0.02845324 -0.02862078 -0.02879257
 -0.0289614 -0.02912653 -0.02928768 -0.02944481 -0.02959794 -0.02974679 -0.02988832 -0.03002306 -0.03015133 -0.03027519
 -0.03040145 -0.03053063 -0.03066807 -0.03081067 -0.03095699 -0.03110243 -0.03124195 -0.03137277 -0.0314911 -0.03159741
 -0.03168979 -0.03177418 -0.03185075 -0.03193045 -0.03201558 -0.03211367 -0.03222683 -0.03235118 -0.0324869 -0.03262246
 -0.03275732 -0.03288283 -0.03299929 -0.03310608 -0.03320393 -0.03329602 -0.03338254 -0.03346552 -0.03354543 -0.03362356
 -0.03370183 -0.03378321 -0.03386984 -0.03396581 -0.03406918 -0.03418114 -0.03429509 -0.03440825 -0.03451598 -0.03461519
 -0.03470889 -0.03479679 -0.0348846 -0.03497346 -0.03506352 -0.03515509 -0.03524329 -0.03532793 -0.03540668 -0.03548005
 -0.03555187 -0.03562309 -0.03570041 -0.03578426 -0.03587967 -0.0359859 -0.03610424 -0.03623264 -0.03636927 -0.0365109
 -0.03665417 -0.0367953 -0.03693078 -0.0370582 -0.03717494 -0.03728249 -0.03738008 -0.03747287 -0.03756183 -0.03765054
 -0.03773983 -0.0378295 -0.03791952 -0.03801088 -0.03810371 -0.03820319 -0.03830944 -0.03842614 -0.03855191 -0.03868221
 -0.03881484 -0.03894013 -0.0390577 -0.03916127 -0.03925357 -0.03933553 -0.03941068 -0.03948316 -0.03955446 -0.03962722
 -0.03970043 -0.03977404 -0.03984781 -0.0399209 -0.0399969 -0.04007608 -0.04016358 -0.04026058 -0.04036673 -0.0404825
 -0.04059888 -0.04071539 -0.04082126 -0.04091682 -0.04100071 -0.0410748 -0.0411481 -0.04122154 -0.04130367 -0.04139215
 -0.04148662 -0.04158347 -0.04167655 -0.04176549 -0.0418467 -0.04192363 -0.04199751 -0.04207135 -0.04214743 -0.04222536
 -0.04230576 -0.04238654 -0.0424669 -0.04254802 -0.04262968 -0.04271557 -0.04280618 -0.0429002 -0.04299742 -0.04308809
 -0.04317183 -0.04324004 -0.0432946 -0.04333996 -0.04337944 -0.04342661 -0.04348166 -0.04355292 -0.04363585 -0.04372777
 -0.04382336 -0.04391596 -0.04400278 -0.04407977 -0.04414603 -0.04419992 -0.04424211 -0.04427166 -0.04429326 -0.04430692
 -0.04432147 -0.04433795 -0.04436432 -0.04440153 -0.04445089 -0.04451243 -0.0445819 -0.04465902 -0.04473953 -0.04482326
 -0.04490774 -0.04499192 -0.04507144 -0.04514449 -0.04520433 -0.04525161 -0.04528333 -0.04530361 -0.04531551 -0.04532258
 -0.04532895 -0.04533432 -0.04533954 -0.04534386 -0.04534645 -0.0453503 -0.04535547 -0.04536705 -0.04538581 -0.04541513
 -0.04545557 -0.04550597 -0.04556625 -0.04562986 -0.04569637 -0.04575815 -0.04581602 -0.04586928 -0.04592102 -0.04598014
 -0.04605064 -0.04614497 -0.04626695 -0.04642702 -0.04662922 -0.04688107 -0.04718646 -0.04755099 -0.0479747 -0.0484597
 -0.04900227 -0.04960163 -0.0502546 -0.05096046 -0.0517172 -0.05252655 -0.05337017 -0.05424851 -0.05511474 -0.05596625
 -0.05674766 -0.057457 -0.05805867 -0.05854711 -0.05888012 -0.05904002 -0.05894213 -0.05858219 -0.05788384 -0.05691727
 -0.05573472 -0.05445975 -0.05324923 -0.05216694 -0.05131789 -0.05069165 -0.05031073 -0.05014798 -0.05020258 -0.05043665
 -0.05085421 -0.05135468 -0.05193431 -0.0524287 -0.05282059 -0.05303373 -0.05306453 -0.0529889 -0.05281311 -0.05263489
 -0.05245134 -0.05229817 -0.05216476 -0.05203427 -0.05189937 -0.05173221 -0.05153845 -0.05131282 -0.05106753 -0.05081538
 -0.05056017 -0.05031073 -0.05006092 -0.04980965 -0.04955227 -0.04928524 -0.04901359 -0.04873631 -0.04846702 -0.04820752
 -0.0479686 -0.04775207 -0.04755371 -0.0473733 -0.04719494 -0.04701865 -0.04683881 -0.04665836 -0.04649141 -0.04633979
 -0.04621916 -0.04612484 -0.04605504 -0.04600204 -0.04595207 -0.04590248 -0.04584346 -0.04578006 -0.0457123 -0.04564713
 -0.04558894 -0.04553922 -0.0455006 -0.04546773 -0.04544021 -0.04541149 -0.04538024 -0.04534453 -0.04530377 -0.04526187
 -0.04521905 -0.04518116 -0.0451484 -0.04512502 -0.04511064 -0.04510567 -0.04510898 -0.04511702 -0.04512866 -0.04513942
 -0.0451492 -0.04515579 -0.04515978 -0.04516112 -0.04515988 -0.04515627 -0.04514965 -0.04513973 -0.04512612 -0.04510837
 -0.04508741 -0.04506295 -0.04503819 -0.04501344 -0.04499229 -0.04497532 -0.04496183 -0.04495181 -0.0449391 -0.04492349
 -0.0449003 -0.04487044 -0.04483678 -0.04480048 -0.04476764 -0.04473746 -0.04471147 -0.04468748 -0.04466202 -0.04463513
 -0.04460451 -0.04457369 -0.04454469 -0.0445202 -0.04450328 -0.04449096 -0.04448365 -0.04447497 -0.04446318 -0.04444543
 -0.04442037 -0.04439196 -0.0443602 -0.04433189 -0.0443074 -0.04429065 -0.04428145 -0.04427839 -0.0442807 -0.04428296
 -0.04428502 -0.04428302 -0.0442784 -0.04427265 -0.04426696 -0.04426461 -0.04426419 -0.04426551 -0.04426671 -0.04426547
 -0.04426339 -0.0442603 -0.04425932 -0.04426212 -0.04426831 -0.04427851 -0.04428971 -0.0443014 -0.0443125 -0.04432278
 -0.04433293 -0.04434295 -0.04435223 -0.04436065 -0.04436634 -0.0443694 -0.04436925 -0.04436677 -0.04436455 -0.04436396
 -0.04436984 -0.04438232 -0.04440457 -0.04443412 -0.04446957 -0.04450817 -0.04454701 -0.04458557 -0.04462289 -0.04465863
 -0.04469309 -0.04472315 -0.04474798 -0.04476593 -0.04477607 -0.04478209 -0.04478416 -0.0447869 -0.0447906 -0.04479612
 -0.0448035 -0.04481301 -0.04482507 -0.04484288 -0.04486646 -0.04489832 -0.04493671 -0.04497906 -0.04502298 -0.04506303
 -0.04509874 -0.04512678 -0.04514972 -0.04516796 -0.04518577 -0.04520559 -0.04523028 -0.04526175 -0.0453001 -0.04534589
 -0.04539772 -0.04545565 -0.04551724 -0.04558248 -0.04564654 -0.04570916 -0.04576431 -0.0458119 -0.04584929 -0.04587715
 -0.04589797 -0.04591293 -0.04592764 -0.04594304 -0.04596439 -0.04599142 -0.04602643 -0.04606758 -0.04611381 -0.04616299
 -0.04621277 -0.0462628 -0.0463121 -0.04636151 -0.0464113 -0.04646153 -0.04651241 -0.04656308 -0.0466134 -0.04666281
 -0.04671125 -0.04675852 -0.04680461 -0.04685011 -0.04689526 -0.04694352 -0.04699545 -0.04705664 -0.04712704 -0.04721001
 -0.04730391 -0.04740697 -0.04751624 -0.04762638 -0.04773409 -0.04783362 -0.04792245 -0.047996 -0.04805548 -0.04809907
 -0.04813315 -0.04815902 -0.04818469 -0.0482126 -0.04824715 -0.04828981 -0.04833999 -0.04839797 -0.04846058 -0.04852768
 -0.04859386 -0.04865875 -0.04871556 -0.04876449 -0.04880264 -0.04883192 -0.04885771 -0.04888236 -0.04891489 -0.0489555
 -0.04900904 -0.04907347 -0.04914857 -0.04923133 -0.0493198 -0.04940981 -0.04949895 -0.04958296 -0.04965925 -0.04972721
 -0.04978547 -0.04983832 -0.04988605 -0.04993349 -0.04998126 -0.05003159 -0.05008471 -0.05014033 -0.05019834 -0.05025688
 -0.05031581 -0.05037306 -0.05042915 -0.05048482 -0.05054114 -0.05060155 -0.05066575 -0.05073537 -0.0508081 -0.05088143
 -0.05095466 -0.05102549 -0.05109668 -0.05116913 -0.05124535 -0.05132752 -0.05141256 -0.05150071 -0.05158568 -0.05166622
 -0.05173955 -0.05180499 -0.05186444 -0.05191797 -0.05196664 -0.05201048 -0.05204944 -0.05208422 -0.05211926 -0.05215595
 -0.05220295 -0.05225953 -0.05232929 -0.05240837 -0.05249149 -0.05257589 -0.05265506 -0.0527309 -0.05280259 -0.05287291
 -0.05294408 -0.05301498 -0.05308627 -0.05315432 -0.05321826 -0.05327574 -0.05332604 -0.05336904 -0.05340445 -0.05343471
 -0.05345991 -0.05348534 -0.05351125 -0.05354257 -0.05357878 -0.05361911 -0.05366238 -0.05370324 -0.05374157 -0.05377385
 -0.05380171 -0.05382652 -0.05384949 -0.05387314 -0.05389672 -0.05392016 -0.0539435 -0.05396592 -0.05399048 -0.05401812
 -0.0540516 -0.05409271 -0.05413864 -0.05418985 -0.05423915 -0.05428585 -0.05432441 -0.0543544 -0.05437434 -0.05438423
 -0.05438381 -0.05437345 -0.05435488 -0.05432958 -0.05430404 -0.05428032 -0.05426762 -0.05426585 -0.05428019 -0.05430676
 -0.05434336 -0.0543849 -0.05442594 -0.05446414 -0.0544963 -0.05452292 -0.05454373 -0.05455843 -0.05456688 -0.05456868
 -0.05456324 -0.05455397 -0.05454101 -0.05452937 -0.05451947 -0.05451189 -0.05450642 -0.0544983 -0.05448721 -0.0544682
 -0.05444175 -0.05440643 -0.05436448 -0.05432025 -0.05427787 -0.05424706 -0.05423 -0.0542351 -0.05425761 -0.05429807
 -0.05434591 -0.05439564 -0.05443751 -0.05446571 -0.05447704 -0.05446843 -0.05444462 -0.05440495 -0.05436105 -0.0543139
 -0.05427509 -0.05424557 -0.05422842 -0.05422346 -0.05422596 -0.0542356 -0.05424782 -0.05426258 -0.05427753 -0.05429233
 -0.05430463 -0.05431477 -0.05432221 -0.05432749 -0.05433182 -0.0543332 -0.05433048 -0.05432133 -0.05430269 -0.05427799
 -0.05424713 -0.0542166 -0.0541889 -0.05416479 -0.05414559 -0.05412553 -0.05410431 -0.054075 -0.054037 -0.05398906
 -0.0539315 -0.05387121 -0.05380893 -0.05375395 -0.0537054 -0.05366491 -0.05363056 -0.05359721 -0.05356527 -0.05353289
 -0.05350157 -0.05347411 -0.05344677 -0.05341827 -0.05338196 -0.05333192 -0.05326941 -0.05319172 -0.05310877 -0.05302288
 -0.0529413 -0.05286652 -0.05279737 -0.05273432 -0.05267174 -0.05260924 -0.05254281 -0.0524726 -0.0524027 -0.05233413
 -0.05227697 -0.05223106 -0.05220214 -0.05218688 -0.05217991 -0.05217614 -0.05216337 -0.05213867 -0.05209174 -0.05202603
 -0.05193979 -0.05184095 -0.05173417 -0.05162415 -0.05151498 -0.05140453 -0.05129283 -0.05117823 -0.05105939 -0.05094238
 -0.05082756 -0.05072211 -0.05062671 -0.05054197 -0.05046786 -0.05040323 -0.05034766 -0.05029868 -0.05025351 -0.05019897
 -0.05013204 -0.05003486 -0.04991268 -0.04976567 -0.04960348 -0.04944022 -0.04927899 -0.04912757 -0.04898634 -0.04885743
 -0.04874141 -0.04864091 -0.04854809 -0.04846328 -0.04836959 -0.04826348 -0.04813563 -0.04798343 -0.04781322 -0.04762504
 -0.04743092 -0.04723151 -0.04703885 -0.04685325 -0.04668366 -0.04652831 -0.04638465 -0.04624988 -0.04611426 -0.04597737
 -0.04583423 -0.04568452 -0.04552685 -0.04535806 -0.04517343 -0.04497521 -0.04476148 -0.04454192 -0.04432147 -0.04410198
 -0.04388677 -0.04366633 -0.04343861 -0.04320107 -0.04295204 -0.04270278 -0.04245403 -0.0422136 -0.04198129 -0.04174738
 -0.04150947 -0.04124276 -0.0409465 -0.04060034 -0.04021323 -0.03979887 -0.03936912 -0.0389581 -0.03856064 -0.03818782
 -0.03782042 -0.03744247 -0.03704544 -0.03661443 -0.03616362 -0.03569482 -0.03522401 -0.03475941 -0.03429602 -0.03383808
 -0.03335475 -0.03284521 -0.03225956 -0.03159341 -0.03082695 -0.02996125 -0.02904627 -0.02808384 -0.02711631 -0.02613164
 -0.02509828 -0.02400086 -0.02277458 -0.02142096 -0.01990555 -0.01825358 -0.0164797 -0.01462199 -0.01272023 -0.01080461
 -0.008911552 -0.007037187 -0.005193437 -0.003349813 -0.001489925 0.0003620184 0.002217004 0.003964062 0.005588905 0.007026533
 0.008267891 0.009356023 0.01029321 0.01113101 0.01186845 0.01251347 0.01306951 0.01355057 0.01397461 0.01439859
 0.01484442 0.01538716 0.01602696 0.01680245 0.01768568 0.01866198 0.01971295 0.02081886 0.02198164 0.02319963
 0.02446788 0.02578509 0.02714325 0.02853059 0.03000391 0.03155717 0.0333575 0.03541905 0.03783357 0.04059698
 0.04346323 0.04641606 0.04918778 0.051815 0.05433341 0.05678324 0.05930977 0.06191358 0.06466323 0.06754968
 0.07056957 0.0737702 0.077169 0.08089051 0.0850292 0.08964675 0.0948601 0.1004213 0.1063229 0.1121398
 0.1177665 0.12303 0.1278777 0.1323907 0.1365667 0.1405732 0.1444224 0.1483945 0.1525181 0.1572094
 0.1624269 0.1682653 0.1745141 0.180533 0.18628 0.191286 0.1957958 0.1999738 0.2039957 0.2081267
 0.2123592 0.2167729 0.221305 0.225937 0.2306529 0.2354636 0.2402636 0.2450436 0.2496511 0.2540484
 0.2582953 0.2623911 0.2664592 0.2704998 0.2743598 0.2780216 0.2812285 0.2840173 0.2864179 0.2885107
 0.2905806 0.2926247 0.294821 0.2970125 0.2990172 0.3008009 0.3022141 0.3034183 0.3044996 0.3055147
 0.3065395 0.3074798 0.3083141 0.3089964 0.3094941 0.3099034 0.3102241 0.3106211 0.3111103 0.3117596
 0.3125687 0.3133857 0.3142025 0.3148721 0.3154153 0.3158582 0.316226 0.3166101 0.3170232 0.3175399
 0.3181515 0.3188794 0.3197043 0.3205954 0.3215992 0.3227107 0.324068 0.3257434 0.3277998 0.3303123
 0.3331088 0.3361695 0.3393252 0.3425299 0.3458712 0.3493484 0.3531286 0.3572178 0.3616331 0.3663646
 0.3713175 0.3764895 0.3818234 0.3873212 0.3929626 0.3987429 0.4046367 0.4106553 0.4168028 0.4230958
 0.4295634 0.4361812 0.4429502 0.4498169 0.4567564 0.4637325 0.4707294 0.4777238 0.4847147 0.4916501
 0.4985299 0.50525 0.5118012 0.5181079 0.5241692 0.5301136 0.5359601 0.5419928 0.548162 0.5544045
 0.5605683 0.5660844 0.5709618 0.5748971 0.5780789 0.5807043 0.5827964 0.5844913 0.5856501 0.5861855
 0.5860962 0.5853521 0.5840027 0.5821084 0.5794589 0.5760264 0.5715793 0.5660179 0.5597882 0.5529135
 0.5458696 0.5386745 0.5311964 0.5234264 0.5152178 0.506602 0.4976774 0.488466 0.4791344 0.4695839
 0.4597409 0.4493596 0.4379413 0.4256003 0.4119941 0.3981578 0.384799 0.37242 0.36167 0.3518494
 0.3428501 0.3341247 0.3254687 0.3169461 0.3085251 0.3004444 0.2927324 0.2853657 0.2783421 0.2714565
 0.2647065 0.2579878 0.2513265 0.2448058 0.2384533 0.2324124 0.2266706 0.2212791 0.216194 0.2113715
 0.2067749 0.2023581 0.1980705 0.1938897 0.1896863 0.1853974 0.1809053 0.1760795 0.1712243 0.1663376
 0.1619733 0.1582636 0.1551185 0.1525595 0.1501569 0.1478908 0.1455592 0.1431753 0.1408247 0.1385255
 0.1364318 0.1345198 0.132789 0.131213 0.129717 0.1283299 0.1270544 0.1259465 0.1250783 0.1244527
 0.124104 0.1239904 0.1240951 0.1244032 0.1248981 0.1256106 0.1265326 0.1277597 0.129288 0.1313325
 0.1339113 0.1372116 0.1412403 0.1457076 0.1505711 0.1552202 0.1596687 0.1636779 0.1673066 0.1706438
 0.1736927 0.1764954 0.1790556 0.1813503 0.1835179 0.1856628 0.1880058 0.1908028 0.1939858 0.1976765
 0.2014213 0.2050473 0.2084237 0.2114369 0.2143672 0.217244 0.2202685 0.2234735 0.2267918 0.2302205
 0.2335583 0.2368055 0.2398916 0.242853 0.2458456 0.2489266 0.2523838 0.2562225 0.2606387 0.2655036
 0.2707069 0.2761211 0.2815221 0.2869712 0.2924352 0.2980163 0.3037915 0.3097028 0.3157648 0.3218336
 0.3278626 0.3338406 0.3397441 0.3457173 0.351778 0.3579503 0.3642348 0.3702329 0.3759097 0.3807038
 0.3846277 0.3874668 0.38926 0.390047 0.3898094 0.3885276 0.3861633 0.3826217 0.3779501 0.3721304
 0.3653171 0.3576016 0.3491622 0.340114 0.3305671 0.3205834 0.3102183 0.2994655 0.2885205 0.2773767
 0.2664724 0.2558471 0.2458339 0.2364524 0.2276362 0.2193699 0.2114233 0.2038086 0.1964732 0.1894608
 0.1829117 0.1768253 0.1712904 0.1662369 0.1615983 0.157296 0.1532153 0.1493118 0.1455123 0.14181
 0.1381781 0.1346405 0.1311971 0.1278818 0.1247049 0.1216756 0.1187999 0.1160538 0.1134353 0.1109295
 0.1085353 0.1062946 0.1042126 0.1023699 0.1007664 0.09944556 0.09839702 0.0976059 0.09706675 0.09675862
 0.09668242 0.09683565 0.09720559 0.09778845 0.09853849 0.09943576 0.100391 0.1013679 0.1022452 0.1029789
 0.1034584 0.1036487 0.1034855 0.1029501 0.1020341 0.1007299 0.09910422 0.09716003 0.09503894 0.09274974
 0.09044155 0.08811923 0.08588521 0.08374324 0.08176075 0.07994057 0.07832666 0.07691005 0.0756993 0.07467418
 0.07381535 0.07310627 0.07252813 0.07207043 0.07172594 0.07147755 0.07132177 0.07122861 0.07119349 0.07117767
 0.07117634 0.07114805 0.07108834 0.0709674 0.07078319 0.07053543 0.07022607 0.06988256 0.06950757 0.06913254
 0.06875531 0.06838787 0.06801952 0.06763382 0.06721383 0.06672397 0.06615372 0.06547237 0.06469101 0.06380179
 0.062839 0.06181383 0.06077137 0.05972792 0.058725 0.05777596 0.05690534 0.05612101 0.05542084 0.05480673
 0.05425629 0.05376838 0.05331857 0.05290616 0.0525161 0.05214979 0.05180636 0.05149092 0.0512199 0.05100149
 0.05086384 0.05081209 0.05087046 0.05103219 0.05130367 0.05166248 0.05209692 0.05257623 0.05308156 0.05358926
 0.05408543 0.05456147 0.0550118 0.05543843 0.05583972 0.05622691 0.05659985 0.05698121 0.05737218 0.0578042
 0.0582801 0.05884485 0.05950382 0.06031923 0.06128492 0.06243039 0.06370424 0.06501527 0.06626852 0.067257
 0.06793062 0.0681143 0.0679016 0.06727666 0.0664435 0.06550581 0.06462617 0.0639035 0.06336519 0.06304616
 0.06288774 0.06288566 0.06298777 0.06318666 0.06346969 0.06383547 0.06429413 0.06484766 0.06552543 0.06633499
 0.06734136 0.06854914 0.0700288 0.07174046 0.07365451 0.07564715 0.0775135 0.07910297 0.0801293 0.0805828
 0.08030133 0.07951479 0.07827432 0.07689325 0.07552247 0.07428122 0.07326176 0.07232336 0.07146342 0.07049744
 0.06939491 0.06816556 0.06680539 0.06553935 0.06438226 0.06360647 0.06320665 0.06330304 0.06383668 0.0646663
 0.06569219 0.06658594 0.06729729 0.06755567 0.06744774 0.06694645 0.06621788 0.06540252 0.06458126 0.06386176
 0.06318863 0.06256335 0.06193295 0.06126578 0.06062596 0.0600126 0.05953489 0.05920827 0.05905966 0.05909283
 0.05924727 0.05951946 0.05984423 0.06022249 0.06062895 0.06106725 0.06153828 0.06204408 0.06259096 0.06317763
 0.06380646 0.06447089 0.06516557 0.06588003 0.06660448 0.06732935 0.06804733 0.06874996 0.06943332 0.0700881
 0.07071029 0.07129841 0.07184938 0.07237972 0.07288981 0.07340557 0.07392871 0.0744758 0.07504698 0.07564412
 0.07626645 0.07690945 0.07757293 0.07825301 0.07895172 0.07967038 0.08041594 0.08119973 0.08203167 0.08292912
 0.08389664 0.08494654 0.08607138 0.08727267 0.0885342 0.08985073 0.09120723 0.09259869 0.09401623 0.09545875
 0.0969135 0.09838091 0.09982967 0.1012581 0.1026254 0.1039305 0.1051558 0.106305 0.1073951 0.1084304
 0.1094379 0.1104194 0.1113925 0.1123594 0.1133329 0.1143134 0.1153083 0.1163119 0.1173211 0.118334
 0.1193463 0.1203674 0.1214018 0.122449 0.1235145 0.1245716 0.125618 0.1266217 0.1275781 0.1284758
 0.1293133 0.1301006 0.1308387 0.1315491 0.1322339 0.1329186 0.1336041 0.1343091 0.1350301 0.1357702
 0.1365183 0.1372611 0.1379757 0.1386324 0.1392023 0.1396488 0.1399592 0.1401097 0.1401196 0.1399864
 0.1397484 0.1394128 0.1390208 0.1385781 0.1381308 0.1376825 0.137288 0.1369506 0.1367249 0.1366138
 0.1366649 0.1368793 0.137289 0.1378916 0.1386939 0.1396923 0.1408776 0.1422547 0.1438245 0.1456048
 0.1476196 0.1498786 0.1524174 0.1551765 0.1581773 0.1611998 0.1642171 0.1668207 0.1689202 0.1700872
 0.1702079 0.1691529 0.166859 0.1636633 0.159575 0.1552131 0.1506075 0.1462984 0.1422829 0.1388009
 0.1358123 0.1332834 0.1311695 0.1293312 0.1277481 0.1263171 0.1250361 0.1238678 0.1227957 0.1218062
 0.1208445 0.119887 0.1188476 0.1176922 0.1163351 0.1147447 0.1128735 0.1107027 0.1082433 0.1054897
 0.1025062 0.09929518 0.09595484 0.09249108 0.08901364 0.08552814 0.08212873 0.0788167 0.07564919 0.07262214
 0.06975534 0.0670405 0.06447314 0.0620416 0.05972916 0.0575268 0.05541898 0.05340661 0.05148548 0.04965996
 0.04793366 0.04629875 0.04475626 0.04328667 0.04188729 0.04053916 0.03923999 0.03797451 0.03674152 0.03552943
 0.0343381 0.03316741 0.0320189 0.03090466 0.02982612 0.0287957 0.02781419 0.02688962 0.02602355 0.0252229
 0.02448798 0.02382312 0.02322457 0.02269122 0.02221728 0.02180005 0.02143121 0.02110902 0.02081785 0.0205545
 0.02029993 0.02004981 0.01979317 0.01952744 0.01925405 0.01897258 0.01869449 0.01842071 0.01817087 0.01794638
 0.01776784 0.01763519 0.01755965 0.01753915 0.01757429 0.01766157 0.01779604 0.01797119 0.01817753 0.01840689
 0.01864743 0.01889753 0.0191504 0.01941511 0.019693 0.01999561 0.0203273 0.02069207 0.02109203 0.02152453
 0.0219898 0.02248299 0.02300419 0.02354014 0.02408912 0.02461264 0.02510478 0.02549922 0.02579116 0.02591966
 0.02589245 0.02569524 0.02534937 0.0248873 0.02433166 0.02372527 0.02308525 0.02243984 0.02180618 0.02120038
 0.02064176 0.0201409 0.01971557 0.01937237 0.01912529 0.0189789 0.01893672 0.01900152 0.01915659 0.01940149
 0.01970642 0.02007014 0.02047415 0.0209195 0.02140771 0.0219401 0.02252459 0.02315897 0.02384363 0.02456955
 0.02532407 0.02608704 0.02682945 0.02752557 0.02813756 0.0286604 0.0290685 0.02940447 0.02967062 0.02994432
 0.0302485 0.03064035 0.03114184 0.03174176 0.03244711 0.03318555 0.03395308 0.03467257 0.03534121 0.03592785
 0.03643596 0.03688186 0.03727052 0.03763319 0.03797214 0.03830952 0.03864675 0.03899664 0.03936062 0.03974763
 0.04015291 0.04057778 0.04100895 0.04143756 0.041856 0.04225483 0.04264663 0.0430313 0.04342997 0.04384794
 0.0442926 0.04476631 0.04526423 0.04578603 0.04633131 0.04690005 0.04749424 0.04811298 0.04874888 0.04940081
 0.05005827 0.05072336 0.05139675 0.05208147 0.05278599 0.05350687 0.05424524 0.05499052 0.05573266 0.05646452
 0.05717576 0.05787226 0.05855278 0.05922901 0.05990574 0.06058384 0.06126493 0.06194351 0.06261802 0.06329478
 0.06397405 0.06466555 0.06536917 0.06606987 0.06676508 0.06742301 0.06804488 0.06861833 0.06914961 0.06965142
 0.07012825 0.07059451 0.07105426 0.07151673 0.07199155 0.07249095 0.07302294 0.07359902 0.07421418 0.07487246
 0.07555414 0.07625706 0.07695106 0.07763045 0.07826842 0.07885855 0.07940373 0.07990208 0.0803934 0.0808798
 0.08140547 0.08196947 0.08258221 0.0832372 0.0839082 0.08459008 0.08525035 0.08589508 0.08651878 0.08713536
 0.08776641 0.08841047 0.08908132 0.08975127 0.09040517 0.09102342 0.09158524 0.09211262 0.09260582 0.09309694
 0.0935975 0.0940991 0.09460457 0.0950795 0.09552038 0.09592126 0.0962825 0.09663782 0.09698942 0.09737347
 0.09778683 0.09823429 0.09870832 0.0991868 0.09966771 0.1001337 0.1005922 0.1010468 0.1015048 0.1019745
 0.1024607 0.1029654 0.1035034 0.104082 0.1047115 0.1054041 0.1061283 0.1068841 0.1076162 0.1083147
 0.1089657 0.1095654 0.1101427 0.1106987 0.1112471 0.1117872 0.1123121 0.1128247 0.1133363 0.1138523
 0.1143983 0.1149729 0.1155865 0.1162332 0.11691 0.1176083 0.1183214 0.1190333 0.1197321 0.1204022
 0.1210321 0.1216176 0.1221545 0.1226459 0.1230904 0.1234999 0.1238737 0.124241 0.1246037 0.1249903
 0.1254021 0.1258473 0.1263253 0.1268333 0.127369 0.1279226 0.1284857 0.1290273 0.1295394 0.1299854
 0.1303731 0.130696 0.1309694 0.1312106 0.1314196 0.1316047 0.1317531 0.131859 0.1319199 0.1319296
 0.1319066 0.13185 0.1317979 0.1317539 0.1317594 0.1318192 0.1319442 0.1321348 0.1323719 0.1326558
 0.132984 0.1333609 0.1338096 0.1343301 0.1349352 0.1356204 0.136385 0.1372172 0.1381065 0.1390228
 0.1399238 0.1408106 0.1416365 0.1425302 0.143517 0.1448011 0.1465078 0.1485236 0.1509036 0.1531637
 0.1552194 0.1569293 0.1582604 0.1593983 0.1603507 0.1612262 0.1620196 0.1627051 0.1632737 0.1636674
 0.1638811 0.1638716 0.1636311 0.1631181 0.1623351 0.1612584 0.1599208 0.1583357 0.1565706 0.1546667
 0.1527112 0.1507548 0.1488619 0.1470662 0.1453942 0.1438532 0.1424798 0.1412761 0.1403052 0.1395746
 0.1390985 0.1388771 0.1388398 0.1389822 0.1392297 0.1395845 0.1400271 0.1405499 0.1411313 0.1417316
 0.1422603 0.1426642 0.1428176 0.1427026 0.1422414 0.14147 0.140378 0.1390428 0.1374886 0.1358158
 0.1340533 0.1323129 0.1306164 0.1290864 0.1277431 0.1266765 0.1259021 0.1253847 0.1251219 0.1249585
 0.1248873 0.1247721 0.1246212 0.1244059 0.1241447 0.123883 0.1236365 0.1234656 0.1233702 0.1233844
 0.1234795 0.1236431 0.123832 0.124008 0.12415 0.1242331 0.1242651 0.1242416 0.1241802 0.1240824
 0.1239731 0.1238558 0.1237515 0.1236631 0.1235895 0.1235307 0.1234961 0.1234886 0.123552 0.1236799
 0.1238695 0.1240903 0.1242336 0.1242838 0.1241338 0.1238295 0.1233877 0.1228765 0.1223874 0.1219327
 0.1215617 0.1212319 0.1209342 0.1206325 0.1203083 0.119957 0.1195728 0.1191649 0.1187349 0.1182814
 0.1178053 0.1172914 0.1167389 0.1161576 0.1155521 0.1149815 0.1144488 0.1140078 0.1136447 0.1133439
 0.1130832 0.112803 0.1124932 0.1121095 0.1116562 0.111116 0.1105132 0.1098514 0.1091814 0.1085289
 0.1079351 0.1074287 0.1069948 0.1066425 0.1063124 0.106 0.1056364 0.1052163 0.1046691 0.1039906
 0.1031364 0.1021098 0.1009394 0.09963793 0.09829295 0.09691516 0.09558909 0.09431604 0.09314219 0.09206025
 0.09107815 0.09019005 0.0893891 0.08868137 0.08807092 0.08755769 0.08715258 0.08681621 0.08654334 0.08627426
 0.0859902 0.08567195 0.08531 0.08493005 0.08453442 0.08413111 0.08372066</values></Ydata></AB><ScSm><Ydata ylabel="Single channel"><values byteorder="INTEL" format="FLOAT32" numvalues="1814"> 0.07293715 0.07294722 0.07302454 0.07319146 0.07341559 0.07362869 0.07377528 0.07384821 0.07386956 0.07384752
 0.07378644 0.07373746 0.0737884 0.07397594 0.07422818 0.07441127 0.0744372 0.07434507 0.07428027 0.07435387
 0.07449611 0.07447986 0.0741354 0.07354444 0.0729847 0.07267032 0.07261664 0.07280838 0.07333975 0.07415522
 0.07475712 0.07456364 0.07364165 0.07274002 0.07245832 0.07267407 0.0728906 0.07281098 0.07243062 0.07192896
 0.07172157 0.07234545 0.07392904 0.07575817 0.07653563 0.07520217 0.07169451 0.06718036 0.06362422 0.06273358
 0.06475601 0.06814074 0.07070269 0.0713637 0.0706645 0.0696572 0.06877443 0.06797013 0.06745349 0.06772466
 0.06888752 0.07018773 0.07040364 0.06889056 0.0663452 0.06430969 0.06376405 0.06451091 0.06600088 0.06793338
 0.06942184 0.06851269 0.06410632 0.05839473 0.05588562 0.05911586 0.06594487 0.07165045 0.07313079 0.07064202
 0.06642655 0.06285321 0.06152617 0.06285315 0.06596732 0.06944451 0.07217115 0.07340331 0.07256992 0.06976645
 0.06625084 0.06383963 0.06379154 0.06631121 0.07050635 0.07447046 0.07614988 0.07486022 0.07173865 0.06854035
 0.06648566 0.06626765 0.06821953 0.0719665 0.07640749 0.08035488 0.08301684 0.08407853 0.08377102 0.08272138
 0.08147062 0.0803894 0.08002011 0.08074154 0.08188249 0.08197504 0.08035451 0.07804646 0.07671082 0.0769242
 0.07771945 0.07776609 0.07671927 0.07500163 0.07248869 0.06848317 0.06330861 0.05873743 0.05622172 0.05578822
 0.05708298 0.0599348 0.06312533 0.06431922 0.06261715 0.06018663 0.06011188 0.06309947 0.06711203 0.06985241
 0.07088695 0.07148269 0.07297777 0.07541884 0.07738419 0.07705772 0.07403259 0.07032441 0.06894333 0.07094062
 0.0743985 0.0767857 0.07762469 0.07822496 0.07938944 0.08017115 0.07886688 0.07504344 0.07061575 0.06866104
 0.07074451 0.07535826 0.07902172 0.0788697 0.0745771 0.06840957 0.06344923 0.06146762 0.06244338 0.06572895
 0.07076002 0.0764701 0.08100291 0.08275132 0.08153683 0.07849973 0.07481137 0.07061988 0.06563999 0.06087606
 0.05885272 0.06123189 0.06668046 0.07197289 0.07487759 0.07528284 0.07394782 0.07113034 0.06676062 0.06168988
 0.05812077 0.05792611 0.06041319 0.06268571 0.062666 0.06099247 0.0595737 0.05919196 0.05919119 0.05890892
 0.05861393 0.05901787 0.06025109 0.06157205 0.06208772 0.06157557 0.06052329 0.05954679 0.05884188 0.05806367
 0.05681724 0.05542928 0.05493809 0.05595807 0.05783168 0.0593038 0.0597866 0.05958427 0.05907781 0.05809469
 0.05619166 0.0535007 0.05110681 0.05025734 0.05114803 0.05278561 0.05403428 0.05444668 0.05415396 0.05344994
 0.05259588 0.05173741 0.050936 0.0503426 0.05016967 0.05038342 0.05063263 0.05059979 0.05025456 0.04970485
 0.04898786 0.04810626 0.04716752 0.04638823 0.04594278 0.04582524 0.04588456 0.04596885 0.04597269 0.04578839
 0.04534526 0.04471277 0.04406241 0.04351211 0.04307719 0.04275525 0.04256628 0.04249333 0.04244696 0.04232563
 0.04209537 0.04179037 0.0414486 0.04107664 0.04067928 0.04029401 0.03997795 0.03976256 0.03961872 0.0394774
 0.03930723 0.03915133 0.03904597 0.03893197 0.03871205 0.03837883 0.03802348 0.03772975 0.03751005 0.03733226
 0.03715986 0.03695855 0.03669389 0.03635513 0.03599467 0.03571853 0.03560566 0.03564646 0.03577193 0.03590655
 0.03597911 0.03594093 0.03580768 0.03564198 0.03547591 0.03528777 0.03506058 0.0348286 0.03466118 0.03461328
 0.03467886 0.03478688 0.03485705 0.03485598 0.03479741 0.03471932 0.03467042 0.03467487 0.0346942 0.03466205
 0.03456645 0.03446444 0.03441152 0.0344037 0.03439201 0.03433968 0.03426289 0.03421433 0.03422561 0.03427861
 0.03433644 0.0343825 0.0344217 0.03445992 0.03448755 0.03448016 0.03442531 0.03434938 0.03429752 0.03428618
 0.03429871 0.03432508 0.03437683 0.03445967 0.03455319 0.03462594 0.03466487 0.03468715 0.03471857 0.0347601
 0.03478733 0.03478643 0.03477456 0.03477778 0.03480329 0.03484021 0.03487622 0.03490658 0.03493181 0.03495058
 0.03495717 0.03494697 0.03492125 0.03488619 0.03485389 0.03484281 0.03486408 0.03490375 0.03492926 0.03491895
 0.03488031 0.03483755 0.03480566 0.03478024 0.03475225 0.03472733 0.03472301 0.03474806 0.03479307 0.03484135
 0.03488066 0.03490696 0.03492862 0.03496907 0.0350537 0.03518572 0.03533803 0.03547462 0.03558155 0.03567428
 0.03577463 0.03588635 0.03599829 0.03610725 0.03622821 0.03637713 0.03654631 0.03670439 0.03682702 0.03692458
 0.03703137 0.03716999 0.03733648 0.03751669 0.03769979 0.03787428 0.0380291 0.0381669 0.03830336 0.03844576
 0.0385833 0.03870606 0.03882276 0.03895051 0.0390946 0.0392505 0.03942261 0.03962886 0.03988391 0.04018242
 0.04050039 0.0408119 0.04110834 0.04140586 0.0417313 0.04209576 0.04248191 0.04285835 0.04320601 0.04353013
 0.04384768 0.0441666 0.04448301 0.04479978 0.04513705 0.04551288 0.04591826 0.04632329 0.04670779 0.0470762
 0.04744411 0.04782044 0.04820517 0.04859657 0.04899575 0.04940418 0.04981774 0.05022466 0.05061325 0.050983
 0.05134681 0.05172208 0.0521191 0.05253224 0.05293768 0.05330711 0.05363571 0.05395417 0.0542999 0.05467597
 0.05505153 0.05540339 0.05574095 0.05608494 0.05643968 0.05679874 0.05716625 0.05755575 0.05796941 0.05838766
 0.0587803 0.059126 0.05942642 0.05970556 0.05999233 0.06030314 0.06064352 0.06101835 0.06142597 0.06184538
 0.06224509 0.0626056 0.06292427 0.06320641 0.06346938 0.06374726 0.06406911 0.06443053 0.06479736 0.06513463
 0.06542781 0.06569111 0.06596556 0.06629289 0.06667753 0.0670867 0.06749578 0.06791528 0.06835994 0.06881265
 0.06924397 0.06965705 0.0700845 0.07053745 0.07098171 0.07137336 0.07169873 0.07197032 0.07220742 0.07244008
 0.07271149 0.07304585 0.07341668 0.07376565 0.0740512 0.07426686 0.07442065 0.07451893 0.07457678 0.07463145
 0.07473066 0.07490455 0.07515503 0.07547545 0.07586777 0.07632446 0.0768002 0.0772239 0.07754551 0.07775541
 0.07785762 0.077849 0.07773721 0.07755563 0.07733551 0.07706957 0.07672004 0.07625875 0.07568645 0.07501715
 0.07425936 0.07342041 0.07252857 0.07165214 0.0708942 0.07035664 0.07009867 0.07012492 0.07040496 0.07089012
 0.07150778 0.072153 0.07270128 0.07303485 0.07306382 0.07274315 0.0720932 0.07120934 0.0702365 0.06931372
 0.06852527 0.06789157 0.0674042 0.06707714 0.06697124 0.06717226 0.06774899 0.06873129 0.07010882 0.07182497
 0.07376808 0.07578782 0.07774185 0.07954052 0.08115941 0.08261907 0.08395571 0.08520418 0.08639326 0.08753798
 0.08863123 0.08965199 0.09058698 0.09143694 0.09220007 0.09285811 0.09338355 0.09375699 0.09397961 0.09407951
 0.09411059 0.09414145 0.09423501 0.09442303 0.09468417 0.09494105 0.09508702 0.0950308 0.09473687 0.09425031
 0.09370604 0.09331812 0.09333998 0.09399414 0.09538683 0.09744745 0.09993879 0.1025479 0.1050045 0.1071541
 0.1089588 0.1104549 0.1117105 0.1127967 0.1137709 0.1146704 0.1155155 0.1163161 0.1170791 0.1178105
 0.118514 0.1191911 0.1198461 0.1204884 0.1211264 0.1217586 0.1223749 0.1229686 0.1235451 0.1241173
 0.124693 0.1252694 0.1258397 0.126403 0.1269594 0.1275036 0.1280305 0.1285453 0.1290604 0.1295819
 0.1301059 0.1306257 0.1311347 0.1316242 0.1320874 0.1325271 0.1329559 0.1333868 0.1338218 0.134251
 0.1346636 0.1350593 0.1354472 0.1358383 0.13624 0.1366544 0.1370728 0.1374771 0.137854 0.1382087
 0.1385607 0.138925 0.1393004 0.1396762 0.1400479 0.140427 0.1408309 0.1412628 0.1417027 0.1421229
 0.1425123 0.1428831 0.143255 0.1436373 0.1440252 0.1444116 0.1447953 0.1451801 0.1455691 0.1459611
 0.1463511 0.1467342 0.1471122 0.1474936 0.1478845 0.148281 0.1486709 0.1490436 0.1493997 0.1497535
 0.1501233 0.1505129 0.1509038 0.1512722 0.1516115 0.1519359 0.1522639 0.1526053 0.1529605 0.1533267
 0.1537017 0.154082 0.154463 0.1548416 0.1552203 0.155603 0.1559882 0.1563697 0.1567453 0.1571194
 0.1574984 0.1578835 0.1582698 0.1586493 0.1590179 0.1593775 0.1597332 0.1600878 0.1604408 0.1607898
 0.1611314 0.1614646 0.1617944 0.1621286 0.1624691 0.1628116 0.1631517 0.1634878 0.1638206 0.1641531
 0.1644877 0.1648225 0.1651519 0.1654744 0.1657949 0.1661179 0.1664415 0.1667607 0.1670755 0.1673921
 0.167715 0.1680437 0.168377 0.1687163 0.169058 0.1693915 0.169709 0.1700143 0.1703154 0.1706161
 0.1709178 0.1712218 0.1715267 0.1718288 0.1721266 0.1724215 0.1727173 0.1730191 0.1733286 0.17364
 0.1739449 0.1742411 0.1745336 0.1748304 0.1751363 0.1754482 0.1757561 0.1760545 0.1763483 0.1766442
 0.1769424 0.1772398 0.1775364 0.1778353 0.1781381 0.178442 0.1787403 0.17903 0.1793141 0.1795944
 0.1798686 0.1801395 0.1804159 0.1807016 0.1809928 0.1812886 0.1815909 0.181896 0.1821969 0.1824914
 0.1827818 0.1830733 0.1833711 0.1836733 0.1839693 0.1842535 0.1845352 0.1848283 0.1851377 0.1854565
 0.1857704 0.1860703 0.1863636 0.1866634 0.1869695 0.1872726 0.187572 0.1878733 0.1881763 0.1884779
 0.188777 0.1890719 0.1893618 0.1896513 0.1899431 0.1902348 0.1905288 0.1908315 0.1911407 0.191447
 0.1917453 0.1920327 0.1923049 0.1925651 0.1928225 0.1930822 0.1933489 0.1936309 0.1939267 0.194223
 0.1945149 0.1948061 0.195091 0.1953605 0.195618 0.1958691 0.1961119 0.1963496 0.196589 0.1968189
 0.1969931 0.1969844 0.1964777 0.1948609 0.1912175 0.1845044 0.1739605 0.1595879 0.142324 0.1237096
 0.1053166 0.08833887 0.07347997 0.0610503 0.05112115 0.04362395 0.03841116 0.03535535 0.0344521 0.03593233
 0.04039141 0.04843747 0.0593405 0.06983244 0.07537694 0.07375082 0.06717057 0.0602714 0.05625551 0.05534738
 0.0561789 0.05758307 0.05918872 0.06120568 0.06399833 0.06767194 0.07205373 0.07713971 0.08330871 0.09083606
 0.09931922 0.1078518 0.115803 0.1233065 0.1309502 0.1390704 0.1474008 0.1553335 0.1623985 0.1684982
 0.1738216 0.178637 0.183138 0.1874113 0.191486 0.1953459 0.1988554 0.201722 0.2036316 0.2044897
 0.2045394 0.2042255 0.2039318 0.2038329 0.2039433 0.2042337 0.2046827 0.2052724 0.2059838 0.2067922
 0.2076589 0.2085427 0.2094183 0.2102727 0.211092 0.2118614 0.2125725 0.2132217 0.2138115 0.2143513
 0.2148491 0.2153067 0.2157282 0.2161238 0.216502 0.2168682 0.2172287 0.2175844 0.2179238 0.218234
 0.2185144 0.218773 0.219016 0.2192484 0.2194757 0.2197029 0.219934 0.220172 0.2204151 0.2206588
 0.2209007 0.2211387 0.2213676 0.221587 0.2218065 0.2220358 0.2222747 0.2225195 0.2227688 0.2230188
 0.2232635 0.2235031 0.2237421 0.2239789 0.2242071 0.2244287 0.224656 0.2248983 0.2251506 0.2253977
 0.2256332 0.2258708 0.2261288 0.2264077 0.2266955 0.2269858 0.2272762 0.2275601 0.2278352 0.2281095
 0.2283819 0.2286326 0.2288486 0.2290494 0.2292756 0.2295533 0.2298721 0.2301955 0.2304943 0.2307691
 0.2310371 0.2313059 0.2315688 0.2318185 0.2320635 0.2323343 0.2326615 0.2330371 0.2334151 0.2337616
 0.2340819 0.2343923 0.2347 0.2350121 0.235329 0.235622 0.2358554 0.2360437 0.2362653 0.2366011
 0.2370546 0.2375391 0.2379605 0.2383032 0.2386177 0.2389506 0.2393159 0.2396862 0.239968 0.2400621
 0.2400219 0.240085 0.2404577 0.2411083 0.2418297 0.2424503 0.242935 0.2433345 0.2436987 0.2440275
 0.244271 0.2443849 0.2444158 0.244528 0.2448892 0.2454984 0.2461743 0.2467426 0.2471737 0.2475179
 0.2478113 0.2480744 0.2482692 0.2482365 0.247862 0.2473779 0.2473071 0.2479591 0.2490825 0.2501338
 0.2508145 0.2512251 0.2515661 0.251889 0.2521508 0.2522571 0.2519425 0.2509233 0.2494518 0.248475
 0.248856 0.2504996 0.2525029 0.2540523 0.2549438 0.2553914 0.2556696 0.2559271 0.2560759 0.2558054
 0.2549261 0.2538131 0.2533091 0.2539473 0.2553585 0.2566684 0.2573893 0.2576815 0.2578941 0.2581688
 0.2583472 0.257924 0.2563325 0.2537827 0.2516961 0.2517084 0.2540629 0.2573112 0.2597525 0.260899
 0.2613331 0.2614477 0.2608696 0.2591251 0.2563463 0.2532186 0.2507612 0.2501748 0.2520465 0.2553672
 0.2581059 0.2592103 0.2594965 0.2603041 0.2618991 0.2634909 0.264265 0.2640046 0.2629495 0.2613619
 0.2594029 0.2575347 0.2567699 0.2579626 0.2607718 0.2637775 0.2657949 0.2667742 0.2671803 0.2666144
 0.2635362 0.2571152 0.2495519 0.2454742 0.2478503 0.2548792 0.2619279 0.2660873 0.2677589 0.2684839
 0.2688838 0.2684852 0.2659911 0.259995 0.2511938 0.2437727 0.2425752 0.2483148 0.2567666 0.2627097
 0.263494 0.259322 0.2522979 0.245802 0.2431252 0.2454725 0.2514272 0.2583586 0.2640057 0.2670881
 0.2673007 0.2652053 0.2621806 0.2600744 0.2598795 0.2602775 0.2586302 0.2543102 0.2497435 0.2468456
 0.2440589 0.239242 0.2343549 0.2341568 0.2400168 0.2476354 0.2518675 0.2519236 0.2504791 0.248803
 0.2446166 0.2354052 0.2231866 0.2145858 0.2150173 0.2230643 0.2317304 0.2352448 0.2336167 0.2306268
 0.2287773 0.2268287 0.2217409 0.2127575 0.2034082 0.198597 0.1994727 0.2024293 0.2033899 0.2010927
 0.1957149 0.1875035 0.1790115 0.1759678 0.1823913 0.1955866 0.20824 0.2144521 0.2119205 0.2005933
 0.1833383 0.1675249 0.1614767 0.1670877 0.1775663 0.1837064 0.1812382 0.17161 0.1579745 0.142956
 0.1297662 0.1226305 0.1242438 0.1330058 0.1432659 0.1482736 0.1438889 0.1316276 0.1186763 0.1127455
 0.1152407 0.1204211 0.1218871 0.1183867 0.1129387 0.108769 0.1073699 0.1084595 0.1103574 0.1114628
 0.1115395 0.1101974 0.1051804 0.09510629 0.08343585 0.07629961 0.07609666 0.0801626 0.08567609 0.09221039
 0.09863317 0.1013608 0.09835516 0.09293728 0.09099184 0.09471985 0.1007325 0.1042203 0.1037274 0.1014535
 0.09980384 0.09880473 0.09722912 0.09533009 0.09504342 0.09728275 0.1003444 0.1017968 0.1010466 0.09919651
 0.09718497 0.09507538 0.09268405 0.08998048 0.08701371 0.08395804 0.08109398 0.07851157 0.07604606 0.07357394
 0.07102858 0.06803337 0.063987 0.05893337 0.05411773 0.05106644 0.05002985 0.04994506 0.0500098 0.05026571
 0.05019739 0.04815858 0.04351872 0.03862004 0.03715092 0.04061229 0.04717498 0.05377145 0.05839312 0.06030513
 0.05924347 0.055794 0.05257622 0.05346283 0.06036507 0.07135808 0.08280611 0.09253685 0.1000218 0.1045978
 0.1053512 0.1028048 0.09957536 0.09892851 0.1028341 0.1110051 0.1208083 0.1277679 0.1277539 0.1212001
 0.1152173 0.1183627 0.1315005 0.146213 0.1542337 0.1559087 0.1568401 0.1591481 0.1604043 0.1599388
 0.1613584 0.1676182 0.1766212 0.1832274 0.1837266 0.1773039 0.1655357 0.1526595 0.1444709 0.1438119
 0.1475537 0.1501587 0.149161 0.1449324 0.1373073 0.1267099 0.1175999 0.115887 0.1220232 0.1300477
 0.1343789 0.1349286 0.134701 0.1346969 0.1328422 0.1272554 0.1192923 0.1127027 0.109884 0.1097652
 0.109692 0.1082966 0.1056293 0.1015937 0.09595995 0.08983137 0.08569825 0.08536363 0.08821017 0.09188566
 0.09450211 0.0959003 0.09705149 0.09881805 0.1013361 0.1041241 0.1067693 0.1098731 0.1149597 0.1227061
 0.1316022 0.1393669 0.1455325 0.1515992 0.1586243 0.1656191 0.1706139 0.1727594 0.1731979 0.1741776
 0.1773059 0.1822515 0.1869457 0.1893255 0.1892878 0.1889624 0.1907363 0.1949287 0.1996839 0.2030365
 0.2045301 0.2048786 0.2048488 0.2047036 0.2041347 0.2026192 0.2004203 0.1992058 0.2008989 0.2057019
 0.2117644 0.2169036 0.2202306 0.2221011 0.2230643 0.2232402 0.2225683 0.2213201 0.2201443 0.2196056
 0.2198202 0.2205651 0.2215702 0.2226258 0.2235731 0.2243439 0.2249817 0.2255824 0.2262475 0.2270704
 0.228075 0.2291515 0.2301309 0.230957 0.2317305 0.2325473 0.2333515 0.2340001 0.2344089 0.2345416
 0.2342991 0.2335519 0.2322991 0.2306948 0.228885 0.2269174 0.2249012 0.2232153 0.2224159 0.2228242
 0.2242009 0.2258671 0.2271223 0.2275602 0.2271707 0.2263455 0.2257249 0.2257913 0.2265029 0.2273788
 0.2279457 0.2280471 0.2277755 0.2272528 0.2265323 0.2256269 0.2245162 0.2231016 0.2212662 0.2191208
 0.2171785 0.2161065 0.2161661 0.2169493 0.217765 0.2182575 0.2185768 0.2190048 0.2195347 0.2198192
 0.2194454 0.2182862 0.2166889 0.2153049 0.2146007 0.2144937 0.2145258 0.2143608 0.2140102 0.2136199
 0.2132166 0.2127191 0.2120741 0.2112883 0.2103701 0.2093041 0.2080762 0.2067 0.2052174 0.2036777
 0.2021147 0.2005405 0.198955 0.1973538 0.1957237 0.1940428 0.1922923 0.1904726 0.188607 0.1867193
 0.1847924 0.1827448 0.1804502 0.1777849 0.1746554 0.1710037 0.1668233 0.1621912 0.1572728 0.1522853
 0.147442 0.1429081 0.1387819 0.1351111 0.1319248 0.1292461 0.127087 0.1254511 0.1243438 0.1237681
 0.1237142 0.12416 0.1250705 0.1263838 0.1280022 0.1297958 0.1316118 0.133298 0.1347587 0.1360061
 0.1371457 0.1382971 0.1395159 0.1407864 0.1420677 0.1433246 0.1445105 0.1455525 0.1463763 0.1469375
 0.1472166 0.1472045 0.1469047 0.146329 0.1454695 0.1442874 0.1427614 0.1409948 0.1393251 0.1383105
 0.1385013 0.140096 0.1427703 0.1458542 0.1487217 0.1510758 0.152948 0.1545018 0.1558596 0.1570784
 0.1582184 0.1593994 0.1607982 0.1626038 0.164956 0.1678933 0.1713358 0.1751087 0.1789938 0.1827835
 0.186314 0.1894746 0.1922161 0.1945536 0.1965421 0.1982347 0.1996687 0.2008754 0.2018849 0.2027256
 0.2034323 0.2040409 0.2045641 0.2049825 0.2052666 0.2054012 0.2053953 0.205278 0.2050806 0.2048175
 0.2044915 0.2041196 0.203739 0.2033847 0.2030625 0.202741 0.2023696 0.2019119 0.2013634 0.2007378
 0.2000465 0.1992939 0.1984739 0.197564 0.1965362 0.1953783 0.1940922 0.1926748 0.1911226 0.1894617
 0.18777 0.1861563 0.1847056 0.1834323 0.1822812 0.1811593 0.1799622 0.1785997 0.1770387 0.1753203
 0.1735217 0.1717029 0.1698939 0.1681054 0.1663362 0.1645825 0.162845 0.1611255 0.1594365 0.157832
 0.1563958 0.1551613 0.154054 0.1529439 0.1517563 0.1505267 0.1493604 0.1483485 0.1475146 0.1468255
 0.1462317 0.1456942 0.145199 0.1447686 0.1444447 0.1442302 0.1440544 0.1438181 0.1434715 0.1430381
 0.1425716 0.1421045 0.1416404 0.1411759 0.1407106 0.1402267 0.1396734 0.1389768 0.1380614 0.1368676
 0.1353772 0.1336306 0.1317113 0.1297174 0.1277521 0.1259212 0.124311 0.1229688 0.1219013 0.1210711
 0.1203989 0.1197981 0.1192302 0.1187281 0.1183618 0.118163 0.1180681 0.1179533 0.1177471 0.1174969
 0.1173169 0.1172973 0.1174594 0.117748 0.1180527 0.1182706 0.1183626 0.1183422 0.1182326 0.1180521
 0.1178178 0.1175403 0.1172226 0.1168618 0.1164467 0.1159711 0.1154495 0.1148966 0.1142971 0.1136235
 0.1128653 0.1120189 0.1110774 0.1100427 0.1089176 0.1076989 0.1064354 0.105285 0.1044573 0.1040847
 0.1041477 0.1045004 0.1049738 0.1054762 0.10596 0.1062933 0.1063023 0.1060479 0.1059599 0.1065262
 0.1078261 0.1094398 0.1108169 0.1116606 0.1119638 0.1118177 0.1112988 0.1104618 0.1093082 0.107792
 0.105928 0.1038324 0.101616 0.09934266 0.09711052 0.0950522 0.09325093 0.09173017 0.09048291 0.08952471
 0.08893725 0.08845702 0.08675762 0.08212009 0.07505092 0.06951059 0.06962454 0.075076 0.08131045 0.08439346
 0.0841921 0.08279625 0.08166952 0.08106425 0.08094212 0.08141381 0.08253747 0.08414289 0.0858708 0.08736545
 0.0884632 0.08915129 0.08936076 0.0888302 0.087072 0.08351353 0.0779769 0.07114772 0.06437133 0.05887131
 0.05519 0.053207 0.05241747 0.05221584 0.0521778 0.05223412 0.0525882 0.05346462 0.05493693 0.05695029
 0.05939905 0.06208282 0.06464891 0.06675725 0.06833983 0.06957785 0.07061446 0.07140804 0.0718568 0.0719383
 0.07171087 0.07126294 0.07067983 0.07001892 0.06929611 0.06850214 0.06766371 0.06690718 0.06640832 0.06622959
 0.06625766 0.06633933 0.06641477 0.06649554 0.06659525 0.06670973 0.06681961 0.06692578 0.06710203 0.0674459
 0.06794842 0.06848066 0.06892204 0.06924479 0.06947789 0.06961767 0.06956778 0.06922927 0.06871793 0.0683591
 0.06829982 0.06825449 0.06785764 0.06718197 0.0666839 0.06667896 0.06705444 0.06747299 0.0676937 0.06768614
 0.06759065 0.06764821 0.06804913 0.06871067</values></Ydata></ScSm><ScRf><Ydata ylabel="Single channel"><values byteorder="INTEL" format="FLOAT32" numvalues="1820"> 0.06072844 0.06087805 0.06096364 0.06098828 0.06097981 0.06098335 0.06104486 0.0611854 0.06138299 0.06157972
 0.06171986 0.06178889 0.06180578 0.06178283 0.06172514 0.06167363 0.06170312 0.06184926 0.06205536 0.06221016
 0.06223993 0.06217559 0.06213367 0.06220184 0.0623199 0.06229828 0.06199493 0.06147874 0.06098642 0.06070529
 0.06065529 0.0608246 0.06128686 0.06198799 0.06250426 0.06234343 0.06156205 0.06079492 0.06055225 0.0607316
 0.06091063 0.06083687 0.06050914 0.06008189 0.05990427 0.0604242 0.06174784 0.0632776 0.06392671 0.06280415
 0.05985209 0.05604947 0.05305034 0.05229536 0.05399677 0.0568505 0.0590138 0.05957401 0.05898728 0.0581466
 0.05741969 0.05676001 0.05633115 0.05654982 0.05751054 0.0585875 0.05875492 0.05746855 0.05531629 0.05360018
 0.05314506 0.05378069 0.05504325 0.05668232 0.05795096 0.05719652 0.05348418 0.04866011 0.04653316 0.04925524
 0.05502666 0.05985722 0.06111888 0.05902575 0.05547923 0.05248443 0.05138497 0.05250721 0.05511856 0.05803853
 0.06034669 0.06141066 0.06073043 0.05837778 0.05541735 0.05338558 0.05334572 0.05547319 0.05901808 0.06236983
 0.0637887 0.06269129 0.06003988 0.05732775 0.05559681 0.05543356 0.05711223 0.06030965 0.06409326 0.06745911
 0.06973624 0.07065368 0.07040225 0.06951642 0.06846637 0.06757325 0.06729014 0.06792704 0.06891184 0.06900427
 0.06764387 0.06569906 0.0645766 0.06476907 0.06545983 0.0655161 0.06463647 0.06317802 0.06104054 0.0576352
 0.05323994 0.04937057 0.04726946 0.04695487 0.04811653 0.05060447 0.05337501 0.05442549 0.05298116 0.05089733
 0.05082198 0.05337275 0.05681492 0.0591822 0.06010047 0.06065592 0.06199428 0.06414604 0.06588018 0.06563461
 0.06306771 0.05992725 0.05881402 0.06062783 0.0637002 0.06584184 0.06664836 0.06725866 0.06836921 0.06916143
 0.06815857 0.06498361 0.06130435 0.05979954 0.06182053 0.06603536 0.06939617 0.06939487 0.06575351 0.06048445
 0.05632018 0.05482037 0.05596698 0.05922118 0.06411931 0.06970028 0.07424729 0.0762531 0.07551667 0.07307057
 0.06999804 0.06642552 0.06207574 0.0579305 0.05644895 0.05924759 0.06503549 0.07068788 0.07403673 0.07495737
 0.07415485 0.07182503 0.06785965 0.06315368 0.06003464 0.06045111 0.06362204 0.06647842 0.06687713 0.06555952
 0.06457333 0.06472619 0.06528048 0.06552246 0.06578614 0.06688379 0.06893726 0.07106897 0.07224681 0.07222111
 0.07156963 0.07102945 0.07082814 0.07051861 0.06961102 0.06854655 0.06864367 0.07065125 0.07371662 0.07625988
 0.07755664 0.07800366 0.07806414 0.07745425 0.07555425 0.07257606 0.07004578 0.06967393 0.07169895 0.07473224
 0.07719941 0.078477 0.078752 0.07844748 0.07793173 0.07739911 0.07693846 0.07679345 0.07729892 0.07839765
 0.07953183 0.08020394 0.08038478 0.08025686 0.07985795 0.07916306 0.07834487 0.07776966 0.07773112 0.0782337
 0.07904416 0.07989904 0.0805907 0.0809252 0.08079626 0.08033897 0.07985152 0.07952236 0.07935851 0.07936879
 0.07963164 0.08013289 0.08068427 0.08108134 0.08126752 0.0813039 0.08124797 0.08111076 0.08090283 0.08069038
 0.08059654 0.08071318 0.0809923 0.08127965 0.08149557 0.08171231 0.08199134 0.08222731 0.08225749 0.08208115
 0.08187184 0.081788 0.08184469 0.08196107 0.0820539 0.08205118 0.08187503 0.08150885 0.08109799 0.08089946
 0.08107617 0.08157989 0.08224063 0.08288794 0.08337951 0.08363391 0.08369142 0.08366787 0.08361751 0.08349834
 0.08328311 0.08305356 0.08296938 0.08315073 0.08357352 0.08407666 0.08448617 0.08472365 0.08481064 0.08483313
 0.08490629 0.08508654 0.08528972 0.08536983 0.08530176 0.08522088 0.08525915 0.08539379 0.08548538 0.08544278
 0.0853279 0.08529246 0.08542013 0.08565332 0.08587819 0.08605088 0.0862188 0.08642919 0.08663556 0.08671594
 0.08660555 0.08639106 0.08622664 0.08617176 0.08617397 0.08620176 0.08630612 0.08651955 0.08676285 0.08690955
 0.08692452 0.08689514 0.08691964 0.08699125 0.08701283 0.08691382 0.0867282 0.08655857 0.08648636 0.08652125
 0.08661208 0.08668836 0.08669975 0.08663706 0.08652845 0.0864142 0.08632182 0.08626987 0.08629365 0.08643676
 0.08668484 0.08691825 0.08697815 0.0868082 0.08651988 0.08629583 0.08622448 0.08623534 0.08619051 0.08602162
 0.0857718 0.08552752 0.08533911 0.08520501 0.08510241 0.08501801 0.08496544 0.08498432 0.08509973 0.08526008
 0.08533935 0.08524105 0.08499655 0.08473329 0.08455567 0.08448165 0.08447137 0.08447632 0.08447458 0.08448929
 0.08455396 0.08464238 0.08467115 0.08459711 0.0844754 0.08440311 0.08444322 0.08460374 0.08483019 0.08500874
 0.08504154 0.08494625 0.08484045 0.08481573 0.08486523 0.08493833 0.08501549 0.08510645 0.0852116 0.08532145
 0.08544548 0.08561408 0.08584477 0.08611394 0.0863642 0.08654125 0.08663665 0.08670589 0.08683637 0.08707928
 0.08740613 0.08773367 0.0879942 0.08818497 0.08835326 0.08853756 0.08873582 0.088938 0.08916718 0.08945687
 0.08979611 0.09013234 0.09043063 0.09070314 0.09097864 0.09126665 0.09156014 0.09186256 0.0922029 0.09261025
 0.09306043 0.09346345 0.09373391 0.09387521 0.09398153 0.09416386 0.09447466 0.09486952 0.09522445 0.09543087
 0.09550865 0.09559553 0.09579524 0.09607021 0.09632286 0.0965469 0.09683634 0.09724882 0.09771398 0.09809838
 0.09833634 0.09847953 0.09862734 0.09882185 0.09901609 0.09914535 0.09921442 0.09929017 0.09941682 0.09958328
 0.09978552 0.1000666 0.1004533 0.1008873 0.1012685 0.1015477 0.1017452 0.1018979 0.1020237 0.1021219
 0.1021816 0.1022036 0.1022265 0.1022988 0.1024123 0.1025002 0.1025223 0.1025215 0.1025721 0.1027081
 0.1029245 0.1032104 0.1035403 0.1038573 0.1041221 0.1043742 0.1046928 0.1050767 0.1054125 0.1055959
 0.105646 0.1056569 0.1056776 0.1057016 0.10575 0.105887 0.1061428 0.1064756 0.1068254 0.1071712
 0.1075219 0.1078749 0.1081963 0.1084337 0.1085508 0.1085598 0.1085252 0.1085323 0.1086461 0.1088822
 0.1092001 0.1095291 0.1098116 0.1100167 0.1101219 0.1101161 0.1100444 0.1100161 0.1101182 0.1103166
 0.110471 0.1104522 0.1102275 0.1098365 0.1093226 0.1087132 0.1080489 0.1074013 0.1068492 0.106444
 0.1062078 0.1061676 0.1063682 0.1068264 0.1074748 0.1081811 0.1088288 0.1093481 0.109668 0.1096938
 0.1093761 0.1087762 0.1080323 0.1072728 0.1065732 0.1059532 0.105382 0.1048185 0.1042944 0.1039557
 0.1039957 0.1045409 0.1055866 0.107 0.108562 0.1100401 0.1112806 0.1122629 0.1130663 0.1137812
 0.114454 0.1151048 0.1157597 0.1164311 0.1170805 0.1176457 0.1181098 0.1185163 0.1189115 0.1192984
 0.1196482 0.1199351 0.1201611 0.1203594 0.1205617 0.120748 0.1208521 0.1208345 0.1207309 0.1206078
 0.1204883 0.1203352 0.1200886 0.1197157 0.1192537 0.118832 0.1186434 0.1188585 0.1195324 0.1205769
 0.1218282 0.1231444 0.1244342 0.1256076 0.1265569 0.1272228 0.1276525 0.1279609 0.128241 0.1285276
 0.1288231 0.1291251 0.1294303 0.1297314 0.1300214 0.1303078 0.1306148 0.1309582 0.1313136 0.131626
 0.1318677 0.1320782 0.1323351 0.1326824 0.1330882 0.1334767 0.1338067 0.1341079 0.1344241 0.1347394
 0.1349941 0.1351691 0.1353178 0.135513 0.1357929 0.1361516 0.1365442 0.1368956 0.1371468 0.1373086
 0.1374495 0.1376271 0.137847 0.1380871 0.1383336 0.1385839 0.1388358 0.139094 0.1393763 0.1396919
 0.1400111 0.140276 0.1404566 0.1405855 0.1407262 0.1409124 0.1411272 0.1413357 0.141529 0.141739
 0.1420071 0.1423332 0.1426584 0.1429109 0.1430699 0.1431785 0.143297 0.143457 0.1436553 0.1438745
 0.1440992 0.1443184 0.1445268 0.1447283 0.1449339 0.1451485 0.1453634 0.1455661 0.1457578 0.145953
 0.1461613 0.1463769 0.1465941 0.1468269 0.1470992 0.1474092 0.1477143 0.147964 0.1481428 0.1482744
 0.1483923 0.1485188 0.1486661 0.1488395 0.1490351 0.1492404 0.1494432 0.1496386 0.1498313 0.1500298
 0.1502376 0.1504493 0.1506573 0.1508614 0.151071 0.1512981 0.151545 0.1517969 0.1520305 0.1522335
 0.1524153 0.1525968 0.1527909 0.1529934 0.1531886 0.1533656 0.1535314 0.1537047 0.1538975 0.1541057
 0.1543177 0.1545267 0.1547326 0.1549366 0.1551374 0.1553316 0.1555184 0.1557006 0.1558819 0.1560648
 0.156254 0.1564525 0.1566549 0.1568516 0.1570404 0.157229 0.1574256 0.1576326 0.1578474 0.1580633
 0.1582715 0.1584658 0.1586473 0.1588245 0.1590096 0.159212 0.1594318 0.1596574 0.1598715 0.1600645
 0.1602436 0.1604284 0.1606317 0.1608492 0.1610686 0.1612848 0.1614995 0.1617137 0.1619252 0.1621323
 0.1623365 0.1625414 0.1627488 0.1629575 0.1631669 0.1633798 0.1635992 0.1638222 0.164041 0.1642458
 0.1644295 0.164594 0.164751 0.1649116 0.1650801 0.1652577 0.1654458 0.165642 0.1658424 0.1660444
 0.1662431 0.1664309 0.1666088 0.1667893 0.1669831 0.1671913 0.1674099 0.1676314 0.1678466 0.1680507
 0.168247 0.1684409 0.1686371 0.1688414 0.1690547 0.1692701 0.1694813 0.1696887 0.1698946 0.1701014
 0.1703135 0.1705312 0.170748 0.1709606 0.1711707 0.1713752 0.171569 0.1717583 0.1719588 0.1721792
 0.1724134 0.1726468 0.1728662 0.1730709 0.1732714 0.1734751 0.1736824 0.173896 0.1741172 0.1743373
 0.1745487 0.1747562 0.1749642 0.175167 0.1753648 0.175569 0.1757852 0.1760081 0.1762328 0.1764543
 0.1766692 0.1768809 0.1770912 0.1772823 0.177407 0.1773527 0.1768451 0.1753443 0.1720256 0.1659366
 0.1563763 0.1433398 0.1276762 0.1107862 0.09410356 0.07871865 0.06527019 0.05403423 0.04507151 0.03831784
 0.03363281 0.03088822 0.03007301 0.03140446 0.03543775 0.04273111 0.05261801 0.06213005 0.0671545 0.06567641
 0.0597036 0.05344025 0.04979732 0.04898375 0.04975395 0.05103809 0.05249354 0.05431474 0.05683941 0.06016532
 0.06413332 0.06873636 0.07431692 0.08112833 0.08881317 0.09655283 0.1037705 0.1105842 0.1175316 0.1249191
 0.1324926 0.1396863 0.1460781 0.1515982 0.1564302 0.1608115 0.1649038 0.1687795 0.1724708 0.1759724
 0.1791659 0.1817825 0.1835299 0.1843162 0.18436 0.1840685 0.1837956 0.1837023 0.1838016 0.1840674
 0.1844812 0.185028 0.1856893 0.1864378 0.1872333 0.1880393 0.1888421 0.1896367 0.1904055 0.1911258
 0.1917883 0.1923965 0.192955 0.1934655 0.193928 0.1943479 0.1947398 0.1951187 0.1954867 0.1958382
 0.1961723 0.1964927 0.1967975 0.1970811 0.1973393 0.1975739 0.1977922 0.1980035 0.1982108 0.1984127
 0.1986124 0.1988172 0.1990276 0.1992388 0.19945 0.1996618 0.1998701 0.2000689 0.2002581 0.2004416
 0.2006242 0.2008106 0.2010027 0.2011988 0.2013987 0.2016059 0.2018191 0.2020292 0.2022285 0.2024176
 0.2026023 0.2027881 0.2029766 0.2031654 0.2033546 0.2035525 0.2037654 0.2039865 0.2042032 0.2044118
 0.2046148 0.2048143 0.2050184 0.2052384 0.2054683 0.2056798 0.2058512 0.2059966 0.2061563 0.2063602
 0.2066015 0.2068463 0.2070681 0.2072689 0.207465 0.2076638 0.2078577 0.2080338 0.2081901 0.208349
 0.2085433 0.2087791 0.2090302 0.2092778 0.2095271 0.2097807 0.2100283 0.2102668 0.2104962 0.2106964
 0.2108451 0.2109668 0.2111353 0.2114117 0.2117812 0.2121577 0.2124594 0.2126811 0.2128793 0.2131065
 0.2133779 0.2136623 0.2138677 0.2139011 0.2138105 0.2138111 0.2140893 0.214615 0.215197 0.2156808
 0.2160416 0.2163287 0.2165814 0.2167938 0.2169263 0.2169511 0.2169158 0.2169637 0.2172415 0.2177473
 0.2183109 0.2187624 0.2190708 0.2192941 0.2194786 0.2196423 0.2197454 0.2196479 0.2192558 0.2187799
 0.2186829 0.2192341 0.2202014 0.221096 0.2216559 0.2219805 0.2222528 0.2225146 0.2227225 0.2227933
 0.2224925 0.2215635 0.220223 0.2193117 0.2196038 0.2210252 0.2227824 0.2241583 0.2249683 0.2253871
 0.2256381 0.2258437 0.2259355 0.225657 0.2248512 0.2238507 0.2233993 0.2239679 0.2252248 0.2263899
 0.227032 0.2273011 0.2275139 0.2277967 0.2279975 0.2276471 0.2262281 0.2239341 0.2220468 0.222035
 0.2241237 0.2270288 0.2292286 0.2302698 0.2306593 0.230752 0.2302274 0.2286728 0.2262097 0.2234436
 0.2212723 0.2207603 0.2224326 0.2253938 0.2278382 0.2288332 0.229109 0.2298612 0.2313273 0.2327965
 0.2335319 0.2333393 0.2324401 0.2310694 0.2293653 0.2277457 0.2271245 0.2282596 0.230832 0.2335692
 0.2354221 0.2363557 0.2367886 0.236358 0.2336786 0.2280045 0.2213024 0.2177055 0.2198682 0.2261961
 0.2325631 0.2363712 0.2379749 0.2387443 0.2392201 0.2389662 0.236825 0.2315451 0.2237535 0.2172053
 0.2162477 0.221518 0.2292229 0.2346815 0.2355118 0.2318841 0.2256912 0.2199884 0.2177408 0.2200252
 0.2255602 0.2319695 0.2372063 0.2401224 0.2404594 0.2387303 0.2361789 0.2344803 0.2345294 0.2351183
 0.2338554 0.2301838 0.2262993 0.2239193 0.2216218 0.2174796 0.2133137 0.2134896 0.219245 0.2266092
 0.2308605 0.2313085 0.2304307 0.2293662 0.2259727 0.217913 0.2070828 0.1996975 0.2008604 0.2092614
 0.2183431 0.2227244 0.2224765 0.2211935 0.2212 0.2211833 0.2180406 0.2109274 0.2033278 0.200136
 0.2024501 0.2065868 0.208445 0.2067785 0.2017621 0.1936763 0.1852668 0.182604 0.1899717 0.2046326
 0.2189655 0.2267367 0.2253851 0.2146768 0.1976077 0.1822433 0.1777957 0.1863706 0.2004067 0.2096269
 0.2091947 0.2005894 0.187224 0.1721143 0.1592649 0.154105 0.1602491 0.1758278 0.1934877 0.2040179
 0.2014434 0.1877081 0.1731381 0.1690164 0.1772822 0.1891593 0.1949702 0.1929166 0.1877211 0.1845694
 0.1861229 0.1920095 0.1992119 0.2049128 0.2087467 0.2096101 0.2026277 0.1850038 0.1637912 0.1512493
 0.1521163 0.1611808 0.1730748 0.1871004 0.2008395 0.2068423 0.2010183 0.1903717 0.187036 0.1953924
 0.2083184 0.2159058 0.2152726 0.211092 0.2083812 0.2071615 0.2049557 0.2025666 0.2042837 0.2119644
 0.2217927 0.228541 0.2310093 0.2315531 0.2320849 0.2326165 0.232617 0.2318999 0.2305416 0.2290004
 0.227979 0.2276387 0.2274468 0.2269766 0.2258922 0.2227338 0.2152269 0.2034779 0.192015 0.1862092
 0.1865802 0.1891541 0.1913706 0.1935853 0.1935647 0.1849234 0.1655541 0.1445634 0.1356496 0.1438644
 0.1618494 0.178233 0.1863474 0.1847964 0.174054 0.1566755 0.1400232 0.1339568 0.1427863 0.1611374
 0.1797032 0.1932696 0.2012904 0.2034256 0.1985661 0.1880235 0.1768062 0.1707473 0.172951 0.1824312
 0.194444 0.2017082 0.1979686 0.1842132 0.1714113 0.1724162 0.1884772 0.2071524 0.2162941 0.2163527
 0.2154381 0.2167205 0.216861 0.2148646 0.2156351 0.2232542 0.2349829 0.2439604 0.2452292 0.2377003
 0.2235224 0.2085674 0.2008914 0.2042443 0.2137463 0.2211413 0.222754 0.219002 0.2095364 0.1952931
 0.1836469 0.183974 0.1967966 0.2125638 0.2225059 0.2266175 0.2296744 0.2330032 0.2328724 0.226149
 0.2155396 0.2079282 0.2075789 0.2124107 0.2175288 0.2203861 0.2208207 0.2181371 0.2115341 0.2034316
 0.199506 0.2037614 0.2143621 0.2253135 0.231796 0.2331794 0.2316415 0.2293395 0.2269531 0.2238413
 0.219475 0.2153015 0.2144648 0.2184457 0.2247091 0.229318 0.2314433 0.2336319 0.2377984 0.2425852
 0.2450142 0.2437362 0.2403104 0.2378382 0.2384747 0.2417258 0.2448224 0.2450789 0.2424453 0.2397986
 0.2402988 0.2443742 0.2496547 0.2536655 0.2558451 0.2570411 0.2580591 0.2589551 0.2589907 0.257195
 0.2537394 0.2507319 0.2507171 0.2541517 0.2589727 0.2627288 0.264558 0.2650482 0.2648947 0.2641824
 0.2627718 0.2609379 0.2593911 0.2587174 0.2589592 0.2597583 0.2607287 0.2616205 0.2623053 0.2627705
 0.2630864 0.2633113 0.2634605 0.2635613 0.2636467 0.2636812 0.2635993 0.2634547 0.2634318 0.2636423
 0.2639766 0.2642204 0.2642477 0.2640216 0.2634766 0.2625407 0.2612689 0.2598287 0.2583109 0.2566664
 0.25494 0.2535298 0.2530715 0.2539607 0.2559805 0.2584325 0.2606219 0.2622109 0.2632002 0.2637294
 0.2639528 0.2640103 0.2639996 0.2639448 0.2638194 0.2636007 0.2632965 0.2629296 0.2625246 0.2621169
 0.2617526 0.2614579 0.2612079 0.26094 0.2605983 0.2601643 0.259655 0.2591073 0.258551 0.2579771
 0.2573336 0.2565688 0.2556829 0.2547355 0.2538069 0.2529522 0.2521725 0.2514216 0.2506493 0.2498344
 0.2489634 0.2479966 0.2469017 0.2457332 0.2446349 0.2437297 0.2430179 0.2423928 0.2417343 0.2409708
 0.2400859 0.2391056 0.2380764 0.2370312 0.2359707 0.2348745 0.2337167 0.2324693 0.2311123 0.229651
 0.2281117 0.2265259 0.2249243 0.2233258 0.2217032 0.2199648 0.2179872 0.2156594 0.2128847 0.2095693
 0.2056555 0.2011892 0.1963424 0.1913539 0.1864412 0.1817593 0.1774235 0.1735367 0.1701903 0.167454
 0.165373 0.1639705 0.1632544 0.1632332 0.163916 0.1652844 0.1672648 0.1697356 0.1725503 0.1755472
 0.1785502 0.1813902 0.1839626 0.1862808 0.1884489 0.1905487 0.1925581 0.1943963 0.1960228 0.1974534
 0.1986997 0.1997451 0.2005848 0.2012555 0.201815 0.2023059 0.2027438 0.2031297 0.2034613 0.2037363
 0.2039572 0.2041416 0.2043189 0.20451 0.2047175 0.2049384 0.205177 0.2054488 0.2057788 0.2061919
 0.2066904 0.2072465 0.2078256 0.2084139 0.2090185 0.209656 0.2103529 0.2111529 0.2121081 0.2132482
 0.2145518 0.2159508 0.2173629 0.2187125 0.2199252 0.220926 0.2216613 0.2221219 0.2223441 0.2223897
 0.2223154 0.2221482 0.221888 0.2215314 0.2210884 0.2205788 0.220018 0.219409 0.2187455 0.21803
 0.2172878 0.2165571 0.215863 0.2152046 0.2145637 0.2139241 0.2132862 0.2126636 0.2120633 0.2114729
 0.2108746 0.2102666 0.2096632 0.2090769 0.2085039 0.2079214 0.2072914 0.2065771 0.2057635 0.2048604
 0.2038785 0.2028103 0.2016407 0.2003704 0.1990121 0.1975702 0.1960408 0.194433 0.1927683 0.1910509
 0.1892492 0.1873271 0.1852973 0.1832392 0.1812563 0.1794139 0.1777148 0.1761242 0.1746121 0.1731743
 0.1718198 0.1705441 0.1693267 0.1681585 0.1670516 0.166013 0.1650263 0.1640765 0.1631774 0.1623597
 0.1616423 0.1610224 0.1604862 0.1600216 0.1596196 0.1592716 0.1589831 0.1587915 0.1587377 0.1588012
 0.1588874 0.1589012 0.1588166 0.1586719 0.1585218 0.1584017 0.1583163 0.1582521 0.1581957 0.1581294
 0.158006 0.1577372 0.1572124 0.156342 0.1551068 0.1535668 0.1518192 0.14997 0.1481452 0.1464773
 0.1450494 0.1438836 0.1429783 0.1423109 0.1418116 0.1413981 0.1410496 0.1408251 0.1408062 0.1410068
 0.1413132 0.1415433 0.1416124 0.1416213 0.1417573 0.1421406 0.142766 0.1435302 0.1442979 0.1449744
 0.1455201 0.1459092 0.1461311 0.1462284 0.1462627 0.1462417 0.1461306 0.1459187 0.1456306 0.1452994
 0.1449459 0.1445594 0.1441 0.1435414 0.1428861 0.1421412 0.1413196 0.1404386 0.1394649 0.1383284
 0.1370718 0.1359271 0.1351827 0.1350094 0.1354012 0.1362016 0.1372045 0.1382834 0.1393583 0.1402241
 0.1406195 0.1406106 0.1407679 0.1417571 0.1437214 0.14614 0.1482911 0.1497722 0.1505522 0.1507035
 0.1502774 0.149343 0.1479316 0.14599 0.1435233 0.1406852 0.13765 0.1345505 0.1315651 0.1288833
 0.1265979 0.1247385 0.1233183 0.1223709 0.1220042 0.1218341 0.1199691 0.1139874 0.10468 0.09772286
 0.09889878 0.1075921 0.1172238 0.1221954 0.1223371 0.1206204 0.1191125 0.1181398 0.1176052 0.1176505
 0.1183911 0.119666 0.1210791 0.1222271 0.1229386 0.1232537 0.1231516 0.1222919 0.1199338 0.1152036
 0.1078061 0.0986233 0.08940852 0.08177121 0.07644998 0.07331368 0.07171667 0.07088743 0.07031743 0.06998849
 0.07022394 0.07130212 0.07323432 0.07586818 0.07904317 0.08252312 0.08588709 0.08871162 0.0908861 0.09259927
 0.09400629 0.09504879 0.09560439 0.09566461 0.09532528 0.09470584 0.09392877 0.09309875 0.09222265 0.09119628
 0.089981 0.08878461 0.08793759 0.08756331 0.08748397 0.08746277 0.08741124 0.08734929 0.08729397 0.08723069
 0.0871433 0.0870751 0.08715667 0.08749665 0.08803143 0.08855457 0.08889948 0.08905208 0.08910152 0.08908792
 0.08888504 0.08832422 0.08750142 0.08678034 0.08631736 0.08577365 0.08475961 0.08343749 0.08240974 0.08206438
 0.08225021 0.08255453 0.08268432 0.08257455 0.08235096 0.08228853 0.08263117 0.08328254 0.08377557 0.08371381
</values></Ydata></ScRf><Data_Parameters_AB><parameter name="DPF">1</parameter><parameter name="NPT">3497</parameter><parameter name="FXV">3996</parameter><parameter name="LXV">500</parameter><parameter name="CSF">1</parameter><parameter name="MXY">0.586185455322266</parameter><parameter name="MNY">-0.0795121043920517</parameter><parameter name="DAT">02/06/2022</parameter><parameter name="TIM">12:24:31.109 (GMT+2)</parameter><parameter name="DXU">WN</parameter></Data_Parameters_AB><AB__Qtest><MainReport name="Quality Test Report"><Header><Line><Legend>Test result ok/not ok [1/0]: </Legend><Value>0</Value></Line><Line><Legend>Method file: </Legend><Value>C:\Users\Public\Documents\Bruker\OPUS_8.2.28\QT\IRBT_v3_default.QT</Value></Line></Header><Matrix><Line><Legend></Legend><Legend>min</Legend><Legend>max</Legend><Legend>measured</Legend></Line><Line><Value>Absorption (X-Range 1):</Value><Value>0.400000</Value><Value>2.000000</Value><Value>0.459205</Value></Line><Line><Value>Noise (X-Range 4):</Value><Value></Value><Value>0.000300</Value><Value>0.000060</Value></Line><Line><Value>Signal/Noise (X-Range 2):</Value><Value>200.000000</Value><Value></Value><Value>91.163084</Value></Line><Line><Value>Signal/Noise (X-Range 3):</Value><Value>40.000000</Value><Value></Value><Value>112.652318</Value></Line><Line><Value>Water vapour (X-Range 5):</Value><Value></Value><Value>0.000300</Value><Value>0.000076</Value></Line><Line><Value>Signal/Water (X-Range 2):</Value><Value>100.000000</Value><Value></Value><Value>71.995866</Value></Line><Line><Value>Signal/Water (X-Range 3):</Value><Value>20.000000</Value><Value></Value><Value>88.966946</Value></Line><Line><Value>Fringes (X-Range 6):</Value><Value></Value><Value>0.000100</Value><Value>0.000076</Value></Line></Matrix></MainReport></AB__Qtest><Data_Parameters_ScSm><parameter name="DPF">1</parameter><parameter name="NPT">1814</parameter><parameter name="FXV">3996.33169228125</parameter><parameter name="LXV">499.541461535156</parameter><parameter name="CSF">1</parameter><parameter name="MXY">0.26888382434845</parameter><parameter name="MNY">0.0342143326997757</parameter><parameter name="DAT">02/06/2022</parameter><parameter name="TIM">12:24:31.109 (GMT+2)</parameter><parameter name="DXU">WN</parameter></Data_Parameters_ScSm><Data_Parameters_ScRf><parameter name="DPF">1</parameter><parameter name="NPT">1820</parameter><parameter name="FXV">4004.04661832813</parameter><parameter name="LXV">495.683998511719</parameter><parameter name="CSF">1</parameter><parameter name="MXY">0.265048176050186</parameter><parameter name="MNY">0.0300730131566525</parameter><parameter name="DAT">02/06/2022</parameter><parameter name="TIM">12:24:04.279 (GMT+2)</parameter><parameter name="DXU">WN</parameter></Data_Parameters_ScRf><Optic_Parameters_Rf><parameter name="APR">0</parameter><parameter name="APT">Open</parameter><parameter name="BMS">KBr</parameter><parameter name="DTC">RT-DLaTGS_IR-Biotyper [Microplate reader]</parameter><parameter name="HPF">0</parameter><parameter name="LPF">10.0</parameter><parameter name="LPV">4000</parameter><parameter name="PGR">0</parameter><parameter name="RCH">Module port</parameter><parameter name="RDX">0</parameter><parameter name="SRC">MIR</parameter><parameter name="VEL">10.0</parameter><parameter name="SON">Off</parameter></Optic_Parameters_Rf><Acquisition_Parameters_Rf><parameter name="ADT">1</parameter><parameter name="AQM">DD</parameter><parameter name="CFE">0</parameter><parameter name="COR">0</parameter><parameter name="DEL">0</parameter><parameter name="DLY">0</parameter><parameter name="HFW">8000</parameter><parameter name="LFW">0</parameter><parameter name="NSR">32</parameter><parameter name="PLF">AB</parameter><parameter name="RES">6</parameter><parameter name="RGN">-1</parameter><parameter name="STR">0</parameter><parameter name="TCL">MakeCompatibleScalar (0, {WSV=1.000000, ARV=0});</parameter><parameter name="TDL">37</parameter><parameter name="RPO">0</parameter></Acquisition_Parameters_Rf><FT_-_Parameters_Rf><parameter name="APF">B3</parameter><parameter name="HFQ">500</parameter><parameter name="LFQ">4000</parameter><parameter name="NLI">0</parameter><parameter name="PHR">24</parameter><parameter name="PHZ">ML</parameter><parameter name="SPZ">NO</parameter><parameter name="ZFF">1</parameter></FT_-_Parameters_Rf><Optic_Parameters_><parameter name="APR">0</parameter><parameter name="APT">Open</parameter><parameter name="BMS">KBr</parameter><parameter name="CHN">Module port</parameter><parameter name="DTC">RT-DLaTGS_IR-Biotyper [Microplate reader]</parameter><parameter name="HPF">0</parameter><parameter name="LPF">10.0</parameter><parameter name="LPV">4000</parameter><parameter name="PGN">0</parameter><parameter name="RDX">0</parameter><parameter name="SRC">MIR</parameter><parameter name="VEL">10.0</parameter><parameter name="SON">Off</parameter></Optic_Parameters_><FT_-_Parameters_><parameter name="APF">B3</parameter><parameter name="HFQ">500</parameter><parameter name="LFQ">4000</parameter><parameter name="NLI">0</parameter><parameter name="PHR">24</parameter><parameter name="PHZ">ML</parameter><parameter name="SPZ">NO</parameter><parameter name="ZFF">1</parameter></FT_-_Parameters_><Acquisition_Parameters_><parameter name="ADT">1</parameter><parameter name="AQM">DD</parameter><parameter name="CFE">0</parameter><parameter name="COR">0</parameter><parameter name="DEL">0</parameter><parameter name="DLY">0</parameter><parameter name="HFW">8000</parameter><parameter name="LFW">0</parameter><parameter name="NSS">32</parameter><parameter name="PLF">AB</parameter><parameter name="RES">6</parameter><parameter name="SOT">0</parameter><parameter name="TCL">MakeCompatibleScalar (0, {WSV=1.000000, ARV=0});</parameter><parameter name="TDL">37</parameter><parameter name="SPO">0</parameter><parameter name="SGN">-1</parameter></Acquisition_Parameters_><Instrument_Parameters_Rf><parameter name="HFL">15800.168544</parameter><parameter name="LFL">0</parameter><parameter name="LWN">15800.168544</parameter><parameter name="ABP">32197</parameter><parameter name="SSP">1</parameter><parameter name="ARG">2</parameter><parameter name="ASG">2</parameter><parameter name="ASS">32</parameter><parameter name="GFW">16</parameter><parameter name="GBW">16</parameter><parameter name="BFW">0</parameter><parameter name="BBW">0</parameter><parameter name="PKA">7266</parameter><parameter name="PKL">4996</parameter><parameter name="PRA">7452</parameter><parameter name="PRL">5001</parameter><parameter name="P2A">1</parameter><parameter name="P2L">1</parameter><parameter name="P2R">1</parameter><parameter name="P2K">1</parameter><parameter name="DAQ">0</parameter><parameter name="AG2">1</parameter><parameter name="SSM">1</parameter><parameter name="RSN">26175</parameter><parameter name="CRR">0</parameter><parameter name="SRT">1654172644.279</parameter><parameter name="DUR">19.6379852294922</parameter><parameter name="TSC">28.9</parameter><parameter name="MVD">0.226090148091316</parameter><parameter name="AN1">0.225824916494157</parameter><parameter name="AN2">0</parameter><parameter name="VSN">2.485 Apr  4 2017</parameter><parameter name="SRN">0085</parameter><parameter name="CAM">0</parameter><parameter name="INS">IR-Biotyper</parameter><parameter name="FOC">69</parameter><parameter name="RDY">1</parameter><parameter name="ARS">32</parameter></Instrument_Parameters_Rf><Sample_Parameters_><parameter name="BLD"></parameter><parameter name="CNM">Admin</parameter><parameter name="CPY"></parameter><parameter name="DPM"></parameter><parameter name="EXP">IRBT_v3_32Scans.XPM</parameter><parameter name="LCT"></parameter><parameter name="SFM">Microplate, HTS-XT</parameter><parameter name="SNM">220602-1054_CLA33F (D_18)_A11_3fc14217-8a0b-44c7-8b96-fc451290b8fa.0</parameter><parameter name="XPP">C:\Users\Public\Documents\Bruker\OPUS_8.2.28\XPM</parameter><parameter name="IST">OK</parameter><parameter name="CPG">1252</parameter><parameter name="UID">099569c6-efde-4263-b66e-fa64c334a78c</parameter></Sample_Parameters_><Instrument_Parameters_><parameter name="HFL">15800.168544</parameter><parameter name="LFL">0</parameter><parameter name="LWN">15800.168544</parameter><parameter name="ABP">32197</parameter><parameter name="SSP">1</parameter><parameter name="ASG">2</parameter><parameter name="ARG">2</parameter><parameter name="ASS">32</parameter><parameter name="GFW">16</parameter><parameter name="GBW">16</parameter><parameter name="BFW">0</parameter><parameter name="BBW">0</parameter><parameter name="PKA">6558</parameter><parameter name="PKL">4988</parameter><parameter name="PRA">6794</parameter><parameter name="PRL">4993</parameter><parameter name="P2A">1</parameter><parameter name="P2L">1</parameter><parameter name="P2R">1</parameter><parameter name="P2K">1</parameter><parameter name="DAQ">0</parameter><parameter name="AG2">1</parameter><parameter name="SSM">1</parameter><parameter name="RSN">13713</parameter><parameter name="CRR">0</parameter><parameter name="SRT">1654172671.11</parameter><parameter name="DUR">19.6379852294922</parameter><parameter name="TSC">28.9</parameter><parameter name="MVD">0.215130761265755</parameter><parameter name="AN1">0.225830698798248</parameter><parameter name="AN2">0</parameter><parameter name="VSN">2.485 Apr  4 2017</parameter><parameter name="SRN">0085</parameter><parameter name="CAM">0</parameter><parameter name="INS">IR-Biotyper</parameter><parameter name="FOC">69</parameter><parameter name="RDY">1</parameter></Instrument_Parameters_><History/></OPUSDataFile>
