<?xml version="1.0" encoding="UTF-8" ?>
<OPUSDataFile><AB><Ydata ylabel="Absorbance Units"><values byteorder="INTEL" format="FLOAT32" numvalues="3497"> -0.1108624 -0.1109169 -0.1109789 -0.1110507 -0.1111003 -0.111126 -0.1111089 -0.1110508 -0.1109693 -0.110869
 -0.1107869 -0.1107242 -0.1107054 -0.1107253 -0.1107853 -0.1108761 -0.1109853 -0.1111021 -0.1112106 -0.1113021
 -0.1113634 -0.1113958 -0.1113931 -0.1113713 -0.1113326 -0.1112989 -0.1112762 -0.1112748 -0.1112986 -0.111338
 -0.1113931 -0.1114451 -0.1114929 -0.1115265 -0.1115466 -0.1115596 -0.1115671 -0.1115823 -0.1116038 -0.1116356
 -0.1116732 -0.1117079 -0.1117378 -0.1117538 -0.1117617 -0.1117632 -0.1117673 -0.1117827 -0.1118099 -0.1118539
 -0.1119031 -0.1119554 -0.1119965 -0.1120217 -0.112026 -0.1120064 -0.111973 -0.1119255 -0.1118862 -0.1118563
 -0.1118571 -0.1118885 -0.1119539 -0.1120497 -0.1121569 -0.1122721 -0.1123727 -0.1124591 -0.1125207 -0.1125604
 -0.1125766 -0.1125756 -0.1125613 -0.1125461 -0.1125408 -0.1125538 -0.1125966 -0.1126563 -0.1127339 -0.1128037
 -0.1128577 -0.1128898 -0.1128953 -0.1128948 -0.1128893 -0.1129006 -0.1129298 -0.1129833 -0.1130606 -0.1131553
 -0.1132649 -0.1133722 -0.1134721 -0.1135347 -0.11356 -0.1135279 -0.1134536 -0.1133508 -0.1132388 -0.1131475
 -0.1130826 -0.1130631 -0.1130738 -0.1131155 -0.11316 -0.1131956 -0.1132101 -0.1131938 -0.113169 -0.1131363
 -0.1131272 -0.1131467 -0.1131945 -0.1132708 -0.1133431 -0.1134107 -0.1134545 -0.1134791 -0.1135036 -0.1135325
 -0.1135949 -0.1136855 -0.113809 -0.1139512 -0.1140892 -0.114216 -0.1143108 -0.1143834 -0.114436 -0.1144744
 -0.1145062 -0.1145198 -0.1145111 -0.114478 -0.1144135 -0.1143492 -0.1142868 -0.1142693 -0.1143031 -0.1143978
 -0.1145551 -0.1146993 -0.114825 -0.1148284 -0.1147223 -0.1145358 -0.1142881 -0.114071 -0.1138836 -0.1137701
 -0.1137205 -0.1137396 -0.1138121 -0.1139246 -0.1140561 -0.1141856 -0.1142979 -0.1143756 -0.1144241 -0.1144392
 -0.114438 -0.1144253 -0.1144066 -0.1143842 -0.1143542 -0.1143154 -0.1142737 -0.114229 -0.1142003 -0.1141881
 -0.1142069 -0.1142546 -0.1143265 -0.1144168 -0.1145025 -0.1145788 -0.1146201 -0.114629 -0.1145958 -0.1145331
 -0.1144504 -0.1143638 -0.1142902 -0.1142379 -0.1142182 -0.1142266 -0.1142656 -0.1143225 -0.1143945 -0.1144722
 -0.1145535 -0.1146363 -0.1147209 -0.1147953 -0.1148591 -0.1148851 -0.1148727 -0.1148111 -0.1147046 -0.1145754
 -0.1144281 -0.1142932 -0.1141713 -0.1140793 -0.1140143 -0.1139804 -0.113971 -0.1139815 -0.1140004 -0.1140165
 -0.1140225 -0.1140076 -0.113983 -0.1139483 -0.1139243 -0.1139183 -0.1139338 -0.1139747 -0.1140237 -0.1140791
 -0.114129 -0.1141725 -0.1142135 -0.1142523 -0.1142947 -0.1143397 -0.1143833 -0.1144243 -0.1144546 -0.1144758
 -0.1144865 -0.1144902 -0.1144921 -0.1144946 -0.1145029 -0.1145191 -0.1145451 -0.114588 -0.1146506 -0.1147433
 -0.1148735 -0.1150365 -0.1152392 -0.1154408 -0.1156379 -0.1157787 -0.1158546 -0.1158625 -0.1158012 -0.1156987
 -0.1155558 -0.1153843 -0.1151861 -0.1149769 -0.1147638 -0.1145841 -0.114443 -0.1143761 -0.1143759 -0.1144531
 -0.1145773 -0.1147168 -0.1148434 -0.1149133 -0.1149408 -0.1149179 -0.1148769 -0.1148309 -0.1147931 -0.1147725
 -0.1147568 -0.1147467 -0.1147194 -0.1146715 -0.1145956 -0.1144907 -0.1143764 -0.1142546 -0.1141612 -0.1140977
 -0.1140963 -0.1141511 -0.1142633 -0.1144116 -0.1145416 -0.1146379 -0.1146372 -0.114564 -0.1144201 -0.1142405
 -0.1140601 -0.1138883 -0.1137431 -0.1136149 -0.1135032 -0.1134015 -0.1133065 -0.1132215 -0.1131473 -0.113083
 -0.1130295 -0.1129719 -0.1129093 -0.11282 -0.112704 -0.1125575 -0.1123845 -0.1122125 -0.1120438 -0.111904
 -0.1117893 -0.1117016 -0.1116395 -0.111601 -0.1115862 -0.1115988 -0.1116266 -0.1116669 -0.1116894 -0.1116758
 -0.1116043 -0.1114562 -0.1112452 -0.1109691 -0.1106555 -0.1103092 -0.10995 -0.1095807 -0.1092126 -0.1088467
 -0.1084855 -0.1081294 -0.1077843 -0.1074527 -0.1071555 -0.1068939 -0.1066873 -0.1065277 -0.1064048 -0.1063058
 -0.1062 -0.1060849 -0.1059453 -0.1057828 -0.1055985 -0.105379 -0.1051159 -0.1048006 -0.1044198 -0.1040028
 -0.1035528 -0.1031048 -0.1026669 -0.102251 -0.1018599 -0.1014924 -0.1011485 -0.1008239 -0.1005185 -0.1002323
 -0.09996559 -0.09972356 -0.09950237 -0.09929351 -0.09908296 -0.09882692 -0.09851862 -0.09811364 -0.09764315 -0.09712604
 -0.09659947 -0.0961092 -0.09565794 -0.09526455 -0.09490816 -0.09458673 -0.09427299 -0.09395827 -0.09362767 -0.09327557
 -0.09290538 -0.09251691 -0.09211373 -0.09169627 -0.09125833 -0.09079984 -0.09031903 -0.08981796 -0.08931134 -0.08880172
 -0.08830755 -0.08783003 -0.08738156 -0.08696276 -0.08658309 -0.08623529 -0.08591873 -0.08561218 -0.08529662 -0.08495621
 -0.08457062 -0.08415107 -0.08369618 -0.08322318 -0.0827399 -0.08224098 -0.08172666 -0.08118975 -0.08062659 -0.08006432
 -0.07950415 -0.07898276 -0.07850073 -0.07806122 -0.07766089 -0.07727557 -0.07690169 -0.07651062 -0.07610235 -0.07565966
 -0.0751905 -0.07469957 -0.07420029 -0.07371314 -0.0732445 -0.07281173 -0.07240213 -0.07201757 -0.07162891 -0.07122352
 -0.07078393 -0.07029765 -0.0697815 -0.06923404 -0.06868885 -0.06815012 -0.06763833 -0.06715585 -0.06669591 -0.0662576
 -0.06581915 -0.06537981 -0.06492367 -0.06445181 -0.0639601 -0.06345067 -0.06292593 -0.06239079 -0.06185483 -0.06132406
 -0.06081196 -0.06031737 -0.05984569 -0.05938859 -0.05894155 -0.05850113 -0.05806313 -0.05763303 -0.05721156 -0.05680393
 -0.0564125 -0.05603256 -0.05566503 -0.05529356 -0.05491731 -0.05451547 -0.0540875 -0.05362658 -0.05313549 -0.05263363
 -0.05212473 -0.0516378 -0.05117012 -0.05073111 -0.05031136 -0.04989652 -0.04948074 -0.04904669 -0.04860226 -0.04814564
 -0.04769451 -0.047261 -0.04685249 -0.04647997 -0.04612571 -0.04578894 -0.04544321 -0.04508138 -0.04469813 -0.04429036
 -0.04387379 -0.04344938 -0.04302876 -0.0426122 -0.04219888 -0.04178888 -0.04138215 -0.04098025 -0.04059066 -0.04021405
 -0.03985728 -0.03951777 -0.03919457 -0.038883 -0.03857595 -0.03827137 -0.03796425 -0.0376558 -0.03734655 -0.03703364
 -0.03671753 -0.03638929 -0.03604502 -0.03568496 -0.0353056 -0.03492793 -0.03455348 -0.03420538 -0.03388612 -0.03359459
 -0.03333015 -0.03307145 -0.03281759 -0.03255093 -0.03227364 -0.03198575 -0.03169094 -0.03140056 -0.03111547 -0.03084416
 -0.03058239 -0.03032781 -0.03007663 -0.02982208 -0.02956947 -0.02931884 -0.02908011 -0.02885928 -0.02865642 -0.02847443
 -0.02830355 -0.02814223 -0.02798362 -0.02782637 -0.0276697 -0.02751355 -0.02735522 -0.02719446 -0.02702597 -0.02684941
 -0.02665967 -0.02645628 -0.02623377 -0.025993 -0.02573178 -0.02545546 -0.02517273 -0.02489056 -0.02462302 -0.02437227
 -0.02414612 -0.02394221 -0.02376055 -0.023601 -0.02346321 -0.02334851 -0.0232587 -0.02318758 -0.02313587 -0.0230877
 -0.02304138 -0.02298266 -0.02290997 -0.02282198 -0.02271879 -0.02260739 -0.02248765 -0.02236124 -0.02222736 -0.02208189
 -0.02192677 -0.02176443 -0.02160018 -0.02144685 -0.02130595 -0.02118772 -0.02108382 -0.02099154 -0.02089808 -0.02079168
 -0.02067255 -0.02053284 -0.02039568 -0.02026477 -0.02016733 -0.02011298 -0.02009785 -0.02012606 -0.0201578 -0.02019022
 -0.02019332 -0.02016663 -0.02012965 -0.02008591 -0.02007872 -0.0201057 -0.0201805 -0.02029296 -0.02041889 -0.02055122
 -0.02066191 -0.02075372 -0.02081793 -0.02086163 -0.02088946 -0.02090472 -0.02091265 -0.02090897 -0.02089383 -0.02085986
 -0.02080318 -0.02072618 -0.02062535 -0.02052438 -0.0204239 -0.02036146 -0.02034025 -0.02038449 -0.02049475 -0.02066004
 -0.0208768 -0.02110634 -0.02134642 -0.02156434 -0.02176365 -0.02193887 -0.02209295 -0.02223179 -0.02235075 -0.02244483
 -0.02251211 -0.02254382 -0.02255562 -0.02255253 -0.02255764 -0.02258617 -0.02264004 -0.02272755 -0.02282405 -0.02292625
 -0.02301107 -0.02307273 -0.02311685 -0.02314229 -0.02317869 -0.02322751 -0.02331539 -0.02344127 -0.02360666 -0.02380639
 -0.0240165 -0.02423097 -0.02441794 -0.02457601 -0.02468403 -0.02475084 -0.02477647 -0.02478053 -0.02478159 -0.02479774
 -0.02485101 -0.02493767 -0.02506661 -0.02521033 -0.02536296 -0.02549825 -0.02560828 -0.02568522 -0.0257268 -0.02573166
 -0.02569976 -0.02562425 -0.02550502 -0.02534656 -0.02515236 -0.02495779 -0.02476954 -0.02464165 -0.02457518 -0.02460647
 -0.02472214 -0.02491677 -0.02516354 -0.02542287 -0.025669 -0.02585726 -0.02598548 -0.02603051 -0.02602523 -0.02597306
 -0.02592694 -0.02590456 -0.02594308 -0.02605854 -0.02624167 -0.02649763 -0.02677533 -0.0270715 -0.0273367 -0.0275688
 -0.02775842 -0.02790778 -0.02803767 -0.02814882 -0.02825676 -0.0283579 -0.02844866 -0.02852606 -0.02857957 -0.02861417
 -0.02862788 -0.02863987 -0.02866456 -0.02873128 -0.02886684 -0.02908443 -0.02940602 -0.02980068 -0.03026999 -0.03075345
 -0.03123816 -0.03168143 -0.03207314 -0.03240956 -0.03268863 -0.03292697 -0.03312544 -0.03330452 -0.03346545 -0.03362947
 -0.03379567 -0.03397197 -0.03415358 -0.03432757 -0.03449374 -0.03464097 -0.03478218 -0.03493062 -0.03510115 -0.0353189
 -0.03557816 -0.03588956 -0.03622113 -0.03656388 -0.03687792 -0.03714594 -0.03735194 -0.03748289 -0.03757096 -0.03761422
 -0.03768165 -0.03777912 -0.0379566 -0.03821628 -0.03854279 -0.03893116 -0.03932005 -0.03970696 -0.04004449 -0.04033896
 -0.04058531 -0.04079261 -0.04097822 -0.04114834 -0.04131955 -0.04149581 -0.04168741 -0.04189586 -0.0421266 -0.04237546
 -0.04264341 -0.04292016 -0.04320345 -0.04348118 -0.04375016 -0.04400285 -0.04423688 -0.04445512 -0.04465704 -0.04485544
 -0.04505096 -0.04525584 -0.04546991 -0.04569554 -0.04593145 -0.046172 -0.04641635 -0.04665856 -0.04689917 -0.04713644
 -0.04737113 -0.04760379 -0.04783456 -0.04806352 -0.04829159 -0.04851812 -0.04874848 -0.04898424 -0.04923301 -0.04949903
 -0.04978112 -0.0500823 -0.05038532 -0.05068878 -0.05097315 -0.05123572 -0.05147718 -0.05169761 -0.05191979 -0.05214465
 -0.05239151 -0.0526576 -0.05293784 -0.0532278 -0.05350829 -0.05378024 -0.054035 -0.05427867 -0.05451785 -0.05475503
 -0.05499739 -0.05523945 -0.05548051 -0.05571191 -0.05592963 -0.05612568 -0.05629583 -0.05643788 -0.0565472 -0.05664261
 -0.05672283 -0.05683161 -0.05697258 -0.05718184 -0.05746128 -0.05779959 -0.05819265 -0.05858674 -0.05897797 -0.05931462
 -0.05960096 -0.05982117 -0.0599886 -0.06012342 -0.06024244 -0.06038236 -0.06054971 -0.06077188 -0.06102974 -0.06132265
 -0.06161602 -0.06188878 -0.06212953 -0.06232312 -0.06249731 -0.06265543 -0.06282405 -0.06301171 -0.06320176 -0.06339511
 -0.06354912 -0.06366154 -0.06371808 -0.06372207 -0.06371053 -0.06369026 -0.06372116 -0.06380339 -0.06397393 -0.06421857
 -0.06452666 -0.06487552 -0.06522255 -0.06555743 -0.06584687 -0.06610576 -0.0663333 -0.06654955 -0.06676938 -0.0669883
 -0.06721079 -0.06741701 -0.06760006 -0.06776258 -0.06790117 -0.06804413 -0.06819433 -0.06836571 -0.06855915 -0.06875394
 -0.06894834 -0.06911374 -0.06925169 -0.06935596 -0.06943119 -0.06949046 -0.0695369 -0.0695845 -0.06963398 -0.0696926
 -0.06976002 -0.06983793 -0.06992774 -0.07002906 -0.07014991 -0.07029274 -0.07046989 -0.07068835 -0.07094712 -0.07125199
 -0.07157292 -0.07190832 -0.07221659 -0.07249246 -0.07272317 -0.07290766 -0.07307724 -0.07323422 -0.07341941 -0.07363029
 -0.07387409 -0.0741426 -0.07440933 -0.07467066 -0.07490248 -0.07511102 -0.07529529 -0.07546303 -0.075624 -0.07577923
 -0.07593267 -0.07608361 -0.07623196 -0.07637981 -0.0765287 -0.0766764 -0.07682367 -0.07696217 -0.07708947 -0.07720891
 -0.07731912 -0.07744481 -0.07758733 -0.07776782 -0.07798503 -0.0782263 -0.07848749 -0.07873472 -0.07896965 -0.07917812
 -0.07936924 -0.07955928 -0.07975189 -0.07996386 -0.08018582 -0.08041391 -0.08063827 -0.08084743 -0.08104341 -0.08122399
 -0.08139341 -0.08155524 -0.08170127 -0.0818314 -0.0819314 -0.08199769 -0.08202986 -0.082026 -0.0820079 -0.08197663
 -0.0819672 -0.08198117 -0.08204866 -0.08216769 -0.08234378 -0.08256908 -0.08281933 -0.08308495 -0.08333 -0.08355074
 -0.08372366 -0.08385226 -0.08393082 -0.08396604 -0.08396079 -0.08392239 -0.08385439 -0.08376609 -0.08366022 -0.08354922
 -0.08343555 -0.08333389 -0.08324714 -0.08318438 -0.08314822 -0.08312615 -0.08311782 -0.08308461 -0.08302452 -0.08289935
 -0.08271201 -0.08245942 -0.08215097 -0.08181985 -0.08147339 -0.08114775 -0.08084158 -0.08056948 -0.08032572 -0.08010869
 -0.079915 -0.07974175 -0.07958578 -0.07944649 -0.07931472 -0.07918763 -0.07905537 -0.07891282 -0.07876516 -0.07860971
 -0.07847294 -0.07835663 -0.07828959 -0.07827383 -0.07831298 -0.07840534 -0.07852433 -0.07866751 -0.07880472 -0.07893802
 -0.07905932 -0.07917214 -0.07928382 -0.07939018 -0.07948951 -0.07957161 -0.07962129 -0.07963873 -0.07961401 -0.07956649
 -0.0795026 -0.07944378 -0.07940265 -0.07937924 -0.07937915 -0.07938129 -0.07938348 -0.07936529 -0.07932343 -0.07925611
 -0.07916272 -0.07906615 -0.07896879 -0.0789114 -0.07889605 -0.07895879 -0.07909514 -0.07931025 -0.07959185 -0.07991244
 -0.08026093 -0.08060368 -0.08094078 -0.08125611 -0.08156228 -0.08186126 -0.08217434 -0.08251211 -0.08289658 -0.08334041
 -0.08384917 -0.08443164 -0.085062 -0.08574098 -0.08641957 -0.08709326 -0.08771991 -0.08829641 -0.08881005 -0.08926161
 -0.08966425 -0.09001983 -0.09034707 -0.09064607 -0.0909266 -0.09118873 -0.09143628 -0.09167247 -0.09190438 -0.09213512
 -0.09237353 -0.0926144 -0.09285899 -0.09309358 -0.09331077 -0.09350029 -0.09365427 -0.09377657 -0.09386458 -0.09393453
 -0.09398813 -0.09404287 -0.09410165 -0.09416656 -0.09423832 -0.09429415 -0.09433275 -0.09432764 -0.09428255 -0.09420726
 -0.09411325 -0.09405195 -0.09403001 -0.09409566 -0.09423716 -0.09446012 -0.09473971 -0.0950482 -0.09536546 -0.0956635
 -0.09593692 -0.0961731 -0.09637927 -0.09655431 -0.09671025 -0.09685007 -0.09698227 -0.09710906 -0.09723306 -0.09735454
 -0.09747741 -0.09760171 -0.09774215 -0.09790007 -0.09810051 -0.09834459 -0.09865434 -0.09902564 -0.0994576 -0.09993734
 -0.1004328 -0.1009295 -0.1013838 -0.1017959 -0.1021432 -0.1024459 -0.102712 -0.102964 -0.1032199 -0.1034842
 -0.1037654 -0.1040515 -0.1043413 -0.1046226 -0.1048926 -0.1051476 -0.1053864 -0.1056102 -0.1058189 -0.106015
 -0.1061988 -0.1063738 -0.1065405 -0.1067039 -0.106864 -0.1070251 -0.1071853 -0.1073431 -0.1074946 -0.1076314
 -0.107753 -0.1078527 -0.1079395 -0.1080169 -0.1080988 -0.1081964 -0.1083107 -0.1084496 -0.1085907 -0.108732
 -0.1088435 -0.1089174 -0.1089481 -0.1089314 -0.1088991 -0.1088525 -0.1088344 -0.1088455 -0.1088989 -0.1089908
 -0.1090991 -0.1092212 -0.1093323 -0.109437 -0.1095345 -0.1096305 -0.1097378 -0.1098542 -0.1099836 -0.110118
 -0.1102511 -0.110378 -0.110494 -0.1105976 -0.1106883 -0.1107618 -0.1108167 -0.110851 -0.110862 -0.1108621
 -0.1108514 -0.1108518 -0.1108651 -0.1109017 -0.1109613 -0.111033 -0.1111153 -0.1111909 -0.1112606 -0.111318
 -0.1113662 -0.1114102 -0.1114523 -0.1114997 -0.1115521 -0.1116131 -0.1116792 -0.1117499 -0.1118182 -0.1118801
 -0.1119289 -0.1119592 -0.1119736 -0.1119692 -0.1119621 -0.1119538 -0.1119628 -0.1119923 -0.1120453 -0.1121227
 -0.112208 -0.1123001 -0.1123794 -0.1124465 -0.1124965 -0.1125324 -0.1125644 -0.1125942 -0.1126328 -0.112678
 -0.1127319 -0.1127894 -0.1128446 -0.1128932 -0.1129282 -0.1129514 -0.1129602 -0.1129645 -0.1129673 -0.1129792
 -0.113005 -0.1130464 -0.1131055 -0.1131756 -0.1132567 -0.1133402 -0.1134254 -0.1135045 -0.113577 -0.1136347
 -0.1136779 -0.1137035 -0.1137141 -0.1137182 -0.1137202 -0.1137366 -0.1137678 -0.1138245 -0.1138994 -0.1139887
 -0.1140808 -0.1141631 -0.11423 -0.114272 -0.1142972 -0.1143049 -0.1143106 -0.1143187 -0.1143389 -0.1143747
 -0.1144233 -0.1144852 -0.1145505 -0.1146186 -0.1146805 -0.1147358 -0.1147793 -0.1148112 -0.1148293 -0.114834
 -0.1148252 -0.1148046 -0.1147762 -0.1147442 -0.1147181 -0.1147025 -0.1147086 -0.1147345 -0.1147848 -0.1148493
 -0.1149237 -0.1149979 -0.1150651 -0.1151257 -0.1151773 -0.1152271 -0.1152766 -0.1153274 -0.1153807 -0.1154301
 -0.1154751 -0.1155112 -0.1155386 -0.1155615 -0.1155806 -0.1156019 -0.115625 -0.1156501 -0.1156762 -0.1156998
 -0.1157213 -0.1157397 -0.1157564 -0.1157734 -0.1157913 -0.1158115 -0.1158342 -0.1158598 -0.1158883 -0.1159202
 -0.1159539 -0.1159894 -0.1160236 -0.1160554 -0.116084 -0.1161087 -0.1161325 -0.1161554 -0.1161794 -0.1162044
 -0.1162279 -0.1162499 -0.1162678 -0.1162823 -0.1162952 -0.1163072 -0.1163218 -0.116339 -0.1163603 -0.1163855
 -0.116415 -0.1164484 -0.1164858 -0.1165249 -0.1165642 -0.1166004 -0.1166309 -0.1166562 -0.1166751 -0.1166935
 -0.1167125 -0.1167356 -0.116764 -0.1167938 -0.1168248 -0.116851 -0.1168721 -0.1168875 -0.1168977 -0.1169075
 -0.1169173 -0.1169319 -0.1169507 -0.1169747 -0.117002 -0.1170289 -0.1170545 -0.1170748 -0.1170923 -0.1171073
 -0.1171233 -0.117144 -0.1171675 -0.1171951 -0.1172203 -0.1172406 -0.1172544 -0.1172601 -0.1172646 -0.1172685
 -0.1172788 -0.117296 -0.1173199 -0.1173504 -0.1173838 -0.1174203 -0.1174586 -0.1174986 -0.1175396 -0.1175809
 -0.1176198 -0.1176558 -0.1176865 -0.1177122 -0.1177328 -0.1177488 -0.1177609 -0.1177692 -0.1177738 -0.1177755
 -0.117774 -0.1177717 -0.1177692 -0.1177688 -0.1177714 -0.1177746 -0.1177789 -0.1177772 -0.1177691 -0.1177522
 -0.1177267 -0.1177016 -0.1176778 -0.1176682 -0.1176718 -0.1176902 -0.1177197 -0.1177494 -0.1177775 -0.1177935
 -0.1178011 -0.1178001 -0.1177966 -0.1177971 -0.117803 -0.1178184 -0.1178387 -0.1178631 -0.117886 -0.1179053
 -0.1179196 -0.1179279 -0.1179324 -0.117933 -0.1179314 -0.1179277 -0.1179217 -0.1179133 -0.1179014 -0.1178862
 -0.1178681 -0.1178479 -0.1178293 -0.1178133 -0.1178054 -0.1178051 -0.1178145 -0.1178306 -0.1178505 -0.1178711
 -0.1178879 -0.1179007 -0.1179074 -0.1179102 -0.1179092 -0.1179076 -0.1179063 -0.1179083 -0.1179146 -0.1179258
 -0.1179423 -0.1179602 -0.1179791 -0.1179935 -0.1180033 -0.1180078 -0.1180076 -0.1180089 -0.1180121 -0.1180235
 -0.1180417 -0.1180661 -0.1180939 -0.1181189 -0.11814 -0.1181524 -0.1181588 -0.1181596 -0.1181588 -0.1181595
 -0.1181632 -0.1181718 -0.1181831 -0.1181971 -0.1182093 -0.1182187 -0.1182224 -0.1182194 -0.1182131 -0.1182036
 -0.1181994 -0.118201 -0.1182128 -0.118234 -0.1182583 -0.1182846 -0.1183028 -0.1183133 -0.1183117 -0.1183003
 -0.1182814 -0.1182574 -0.1182329 -0.1182101 -0.1181931 -0.1181824 -0.1181803 -0.118184 -0.1181932 -0.1182043
 -0.1182159 -0.1182253 -0.118232 -0.1182334 -0.1182289 -0.1182168 -0.1181966 -0.118172 -0.1181432 -0.1181182
 -0.1180972 -0.1180841 -0.1180781 -0.1180762 -0.1180777 -0.1180789 -0.1180802 -0.1180807 -0.1180798 -0.1180766
 -0.1180693 -0.1180548 -0.1180338 -0.1180046 -0.1179723 -0.1179387 -0.1179099 -0.1178892 -0.1178762 -0.1178724
 -0.1178711 -0.1178715 -0.1178694 -0.1178639 -0.1178583 -0.1178527 -0.1178504 -0.1178507 -0.1178496 -0.1178465
 -0.117836 -0.1178195 -0.1177992 -0.1177769 -0.117759 -0.1177446 -0.1177358 -0.1177292 -0.1177218 -0.1177123
 -0.1176981 -0.1176822 -0.1176652 -0.11765 -0.1176386 -0.1176289 -0.1176213 -0.1176093 -0.1175917 -0.1175655
 -0.1175299 -0.1174906 -0.117448 -0.1174108 -0.1173791 -0.1173568 -0.1173435 -0.1173399 -0.1173469 -0.1173678
 -0.1174039 -0.1174599 -0.1175343 -0.1176279 -0.1177377 -0.11786 -0.1179956 -0.118142 -0.1183074 -0.1184938
 -0.118713 -0.1189695 -0.1192705 -0.1196187 -0.1200166 -0.1204651 -0.1209651 -0.1215176 -0.1221104 -0.1227423
 -0.1233557 -0.1239432 -0.1244017 -0.1247278 -0.1248413 -0.1247585 -0.1244873 -0.1240521 -0.1235087 -0.1228783
 -0.1222107 -0.1215365 -0.1209036 -0.1203381 -0.1198755 -0.1195219 -0.1192902 -0.1191759 -0.1191828 -0.1192939
 -0.1195131 -0.1197853 -0.120109 -0.1203908 -0.1206215 -0.1207486 -0.1207693 -0.120709 -0.1205712 -0.1204064
 -0.1202175 -0.1200475 -0.1198941 -0.1197762 -0.1196824 -0.119597 -0.1195079 -0.119387 -0.1192356 -0.1190418
 -0.1188181 -0.118569 -0.1183087 -0.1180448 -0.1177881 -0.1175445 -0.1173175 -0.1171099 -0.1169177 -0.1167411
 -0.1165749 -0.1164183 -0.1162697 -0.1161288 -0.1159957 -0.1158702 -0.115751 -0.1156378 -0.1155279 -0.1154217
 -0.115318 -0.1152176 -0.1151216 -0.1150305 -0.1149462 -0.1148676 -0.114795 -0.1147253 -0.1146564 -0.1145856
 -0.1145105 -0.1144321 -0.1143493 -0.1142671 -0.1141864 -0.1141116 -0.114044 -0.1139832 -0.1139296 -0.1138773
 -0.1138262 -0.1137709 -0.1137115 -0.1136493 -0.1135854 -0.1135264 -0.1134726 -0.113429 -0.1133934 -0.113364
 -0.1133381 -0.1133097 -0.1132775 -0.1132373 -0.1131908 -0.1131371 -0.1130811 -0.1130248 -0.1129719 -0.1129249
 -0.112882 -0.1128439 -0.1128046 -0.112763 -0.1127158 -0.1126624 -0.1126058 -0.1125461 -0.1124883 -0.1124324
 -0.1123804 -0.112332 -0.1122868 -0.1122446 -0.1122052 -0.1121684 -0.1121335 -0.1120995 -0.1120649 -0.1120284
 -0.1119879 -0.111943 -0.1118925 -0.1118376 -0.111778 -0.1117172 -0.111656 -0.1115986 -0.1115466 -0.1115015
 -0.1114647 -0.11143 -0.1113976 -0.1113557 -0.1113037 -0.1112353 -0.1111512 -0.11106 -0.1109637 -0.1108791
 -0.1108061 -0.1107543 -0.1107197 -0.1106976 -0.1106832 -0.1106655 -0.1106436 -0.1106108 -0.110571 -0.1105245
 -0.110476 -0.1104285 -0.1103829 -0.1103406 -0.1102996 -0.1102595 -0.1102203 -0.1101818 -0.1101457 -0.1101124
 -0.1100807 -0.1100508 -0.1100181 -0.1099827 -0.1099425 -0.1098981 -0.1098512 -0.1098024 -0.1097542 -0.1097067
 -0.1096611 -0.1096177 -0.1095783 -0.1095424 -0.109511 -0.1094813 -0.109452 -0.1094199 -0.1093822 -0.1093398
 -0.1092915 -0.1092427 -0.1091946 -0.1091524 -0.1091175 -0.1090905 -0.1090717 -0.1090556 -0.109042 -0.1090237
 -0.1090006 -0.1089685 -0.108928 -0.1088794 -0.1088237 -0.1087647 -0.1087038 -0.1086461 -0.1085919 -0.1085445
 -0.1085021 -0.1084642 -0.108428 -0.1083908 -0.1083515 -0.1083086 -0.1082635 -0.108216 -0.1081684 -0.1081211
 -0.1080757 -0.1080326 -0.1079917 -0.1079533 -0.1079148 -0.1078762 -0.1078345 -0.1077897 -0.1077412 -0.1076894
 -0.1076354 -0.1075788 -0.1075193 -0.1074571 -0.1073918 -0.1073259 -0.1072625 -0.1072042 -0.1071562 -0.1071169
 -0.1070881 -0.1070632 -0.1070393 -0.107011 -0.1069743 -0.1069315 -0.1068813 -0.1068322 -0.1067856 -0.1067472
 -0.1067182 -0.1066953 -0.1066783 -0.106659 -0.1066371 -0.1066093 -0.1065763 -0.1065417 -0.1065058 -0.1064722
 -0.1064398 -0.1064075 -0.1063741 -0.1063371 -0.1062973 -0.1062545 -0.1062106 -0.1061672 -0.1061253 -0.1060858
 -0.1060489 -0.1060147 -0.1059828 -0.1059535 -0.105924 -0.1058941 -0.1058606 -0.1058227 -0.1057822 -0.105739
 -0.1056995 -0.1056637 -0.1056347 -0.1056113 -0.1055882 -0.1055643 -0.105532 -0.1054924 -0.1054434 -0.1053875
 -0.1053273 -0.1052647 -0.1052028 -0.1051428 -0.1050866 -0.1050355 -0.1049908 -0.104952 -0.1049194 -0.1048901
 -0.1048635 -0.1048359 -0.1048064 -0.1047726 -0.1047338 -0.1046897 -0.1046401 -0.1045869 -0.1045302 -0.1044733
 -0.1044165 -0.1043632 -0.1043134 -0.1042691 -0.1042297 -0.1041945 -0.1041627 -0.1041324 -0.1041031 -0.1040738
 -0.1040445 -0.1040153 -0.1039844 -0.1039511 -0.1039117 -0.1038641 -0.1038081 -0.103742 -0.1036719 -0.103598
 -0.1035292 -0.1034665 -0.1034141 -0.1033723 -0.103338 -0.1033106 -0.1032823 -0.1032528 -0.1032162 -0.1031735
 -0.1031249 -0.1030721 -0.1030199 -0.1029691 -0.102924 -0.102884 -0.1028501 -0.1028207 -0.1027948 -0.1027703
 -0.1027458 -0.1027202 -0.1026927 -0.1026632 -0.1026319 -0.1025982 -0.1025622 -0.1025225 -0.1024787 -0.1024311
 -0.1023794 -0.1023245 -0.1022663 -0.1022039 -0.1021373 -0.1020661 -0.1019912 -0.1019165 -0.1018425 -0.1017734
 -0.1017077 -0.1016445 -0.1015828 -0.1015198 -0.1014583 -0.1013993 -0.1013461 -0.1013021 -0.1012657 -0.101238
 -0.1012125 -0.101188 -0.1011579 -0.1011208 -0.1010733 -0.1010147 -0.1009461 -0.1008675 -0.1007853 -0.1006999
 -0.1006197 -0.1005448 -0.1004804 -0.1004254 -0.1003786 -0.100338 -0.1002979 -0.1002572 -0.1002108 -0.1001599
 -0.1001039 -0.1000458 -0.09998795 -0.09993239 -0.09988155 -0.09983385 -0.09978995 -0.09974518 -0.09969855 -0.09964602
 -0.09958638 -0.09951942 -0.09944471 -0.0993656 -0.09928226 -0.09919826 -0.0991137 -0.0990306 -0.09894894 -0.09886979
 -0.09879293 -0.09871807 -0.09864499 -0.09857246 -0.09850167 -0.09843398 -0.09837122 -0.09831735 -0.0982703 -0.09823144
 -0.09819284 -0.09815034 -0.09809756 -0.09802923 -0.09794914 -0.09785621 -0.09776008 -0.09766244 -0.09756931 -0.09748186
 -0.09740013 -0.09732425 -0.09725066 -0.09717918 -0.09710687 -0.09703408 -0.09696206 -0.09689141 -0.09682582 -0.09676446
 -0.09670754 -0.09665276 -0.09659588 -0.09653557 -0.09646801 -0.09639385 -0.09631214 -0.09622451 -0.09613117 -0.09603532
 -0.09593781 -0.09584306 -0.09575263 -0.09566849 -0.09559184 -0.09551931 -0.09545101 -0.09538002 -0.09530591 -0.09522249
 -0.09512968 -0.09502695 -0.09491524 -0.09480134 -0.09468651 -0.09458005 -0.09448155 -0.09439532 -0.09431892 -0.09425011
 -0.09418599 -0.09412234 -0.09405608 -0.09398306 -0.09390152 -0.09380824 -0.09370627 -0.09359505 -0.09348188 -0.09336892
 -0.09326016 -0.09315734 -0.09305797 -0.09296207 -0.09286606 -0.09276962 -0.09267315 -0.09257685 -0.09248473 -0.09239713
 -0.09231882 -0.09224919 -0.0921893 -0.09213597 -0.09208196 -0.09202239 -0.09194367 -0.09184583 -0.09172069 -0.09157769
 -0.09142154 -0.09126315 -0.0911115 -0.0909702 -0.09084409 -0.09072872 -0.0906245 -0.09052329 -0.0904236 -0.0903196
 -0.09020996 -0.0900958 -0.08997685 -0.08986164 -0.08975063 -0.08965339 -0.08956941 -0.0895002 -0.08944268 -0.08938478
 -0.08932311 -0.08924039 -0.08913909 -0.08901435 -0.08887346 -0.08872427 -0.08857179 -0.0884233 -0.08828148 -0.08814988
 -0.08803015 -0.08792503 -0.08783025 -0.08774661 -0.08766268 -0.08757658 -0.08747902 -0.08736803 -0.08724491 -0.08710946
 -0.08696786 -0.08682036 -0.08667135 -0.08652098 -0.08637229 -0.08622538 -0.08608245 -0.08594349 -0.08580973 -0.08568069
 -0.08555681 -0.08543541 -0.08531395 -0.08518767 -0.08505029 -0.08490188 -0.0847383 -0.08456921 -0.08439726 -0.08423214
 -0.08407859 -0.08393563 -0.08380467 -0.08367797 -0.08355474 -0.08342966 -0.08330227 -0.08317082 -0.08303513 -0.0828921
 -0.08274121 -0.08257644 -0.08239817 -0.08220387 -0.08199662 -0.08178394 -0.08156867 -0.08136102 -0.08115911 -0.08096519
 -0.08077516 -0.08058506 -0.08039469 -0.08020169 -0.08001042 -0.07982256 -0.07964025 -0.07946564 -0.07929408 -0.07912602
 -0.07895085 -0.07876778 -0.07856379 -0.07833751 -0.07808843 -0.07781718 -0.07754561 -0.0772747 -0.07702361 -0.07678927
 -0.07656822 -0.07635594 -0.07613683 -0.07591008 -0.07566549 -0.07540707 -0.07513551 -0.07485617 -0.07457472 -0.07429361
 -0.07401777 -0.07374194 -0.07346691 -0.07317998 -0.0728763 -0.07255274 -0.07220509 -0.07185173 -0.07149452 -0.07114759
 -0.07081284 -0.07048054 -0.07015014 -0.06980898 -0.06945781 -0.06909873 -0.06873211 -0.06836233 -0.06798574 -0.0675935
 -0.06718333 -0.06674372 -0.06628139 -0.06580026 -0.06530813 -0.06481599 -0.06432184 -0.06382749 -0.06333039 -0.06282796
 -0.06232616 -0.06182626 -0.06133354 -0.06085275 -0.06036494 -0.05987166 -0.05932255 -0.05871332 -0.05801795 -0.05723747
 -0.05643652 -0.0556191 -0.05485283 -0.05412776 -0.05343129 -0.05275329 -0.05205445 -0.05133699 -0.05058619 -0.04980878
 -0.04901279 -0.04818962 -0.04734119 -0.04643591 -0.04545322 -0.04437106 -0.04316018 -0.04186811 -0.04049269 -0.03912806
 -0.03779636 -0.03654099 -0.03537433 -0.03428028 -0.03325959 -0.03227524 -0.03132471 -0.03035108 -0.02934917 -0.02824007
 -0.02703294 -0.0257164 -0.024331 -0.02300404 -0.02174203 -0.02063433 -0.01963157 -0.0186998 -0.01780005 -0.01687563
 -0.01592389 -0.01492302 -0.01389028 -0.01282798 -0.01175216 -0.01066473 -0.009593897 -0.008544715 -0.007544226 -0.00659977
 -0.005697213 -0.004836484 -0.003991956 -0.003163372 -0.002372195 -0.001621536 -0.0009532711 -0.0003625169 0.000150326 0.0005973676
 0.001016816 0.001413753 0.001821669 0.002228092 0.002628193 0.003013242 0.003369153 0.003702552 0.004016249 0.004307656
 0.004579036 0.004816599 0.005016254 0.00516931 0.005273265 0.005323349 0.005318869 0.005253733 0.00512667 0.004947841
 0.004718287 0.004474814 0.004218044 0.003969669 0.003725361 0.003474108 0.003213384 0.002926974 0.002621127 0.002297677
 0.001971942 0.001666695 0.001393552 0.001173949 0.001008864 0.0009046259 0.0008620456 0.0008834938 0.0009670259 0.001115766
 0.001311767 0.00155257 0.001819515 0.002108615 0.002418889 0.002749782 0.003105317 0.003485559 0.003887376 0.004310593
 0.004752214 0.00521256 0.005692528 0.006190949 0.006704876 0.007232466 0.007767682 0.008311297 0.008861432 0.009420509
 0.00998977 0.01057284 0.01117172 0.01179195 0.01243697 0.01310904 0.01381092 0.01453716 0.01528837 0.01605239
 0.016829 0.01759708 0.01835515 0.01908164 0.01977582 0.02044308 0.02108629 0.02174101 0.0224038 0.0230814
 0.02375595 0.02437111 0.0249194 0.02535307 0.02568401 0.02591075 0.026042 0.02608605 0.02604913 0.02593861
 0.02575642 0.02551628 0.02517457 0.0247355 0.02408831 0.02320158 0.02204042 0.02056982 0.01902024 0.01740886
 0.01590122 0.01450329 0.01312814 0.01177006 0.01033711 0.008837672 0.007269465 0.005642407 0.003995164 0.00231361
 0.0005962717 -0.001199447 -0.003155938 -0.005251923 -0.007545207 -0.009851024 -0.01204355 -0.01402817 -0.01568447 -0.01714287
 -0.01842092 -0.01963396 -0.02082196 -0.02198705 -0.02313819 -0.02423295 -0.02526668 -0.02623964 -0.02715219 -0.02804889
 -0.02893173 -0.02983925 -0.03076741 -0.03171732 -0.032679 -0.03362038 -0.03453518 -0.03539104 -0.03619408 -0.03693724
 -0.03763474 -0.03829704 -0.03894107 -0.03957874 -0.04023302 -0.04091926 -0.04164828 -0.04244167 -0.04323313 -0.04401901
 -0.0446992 -0.04524883 -0.04568953 -0.04601789 -0.04631473 -0.04658386 -0.04686129 -0.04714473 -0.04741867 -0.04768087
 -0.0479091 -0.04810877 -0.04828767 -0.04844858 -0.04860583 -0.04874853 -0.04886744 -0.0489494 -0.04897262 -0.04894266
 -0.04885355 -0.04872352 -0.04856057 -0.04837633 -0.04817774 -0.04796527 -0.04774272 -0.04749443 -0.0472217 -0.04688553
 -0.04648278 -0.04597814 -0.04537017 -0.04469886 -0.04397089 -0.04328 -0.04262532 -0.04205083 -0.04154805 -0.04111015
 -0.04073385 -0.04040932 -0.04013433 -0.03990578 -0.0397094 -0.03953427 -0.03935222 -0.03913755 -0.03887685 -0.03854707
 -0.03818215 -0.03778851 -0.03739608 -0.03701842 -0.03664056 -0.03626348 -0.03586064 -0.03542873 -0.03496497 -0.03446923
 -0.03396592 -0.03345587 -0.03295849 -0.03246958 -0.03197794 -0.03147437 -0.03092157 -0.03031382 -0.02961518 -0.02883652
 -0.02797722 -0.02705398 -0.02608947 -0.02508063 -0.02403391 -0.02293865 -0.02178649 -0.02058735 -0.01933963 -0.01806747
 -0.0167782 -0.01547706 -0.01416809 -0.01283231 -0.01146733 -0.01007198 -0.008646337 -0.00725187 -0.005894037 -0.004658882
 -0.003546698 -0.002601142 -0.001821777 -0.001225795 -0.0008230614 -0.0006439701 -0.0006986784 -0.001022523 -0.001603712 -0.002451169
 -0.003525604 -0.004805021 -0.006243836 -0.007812247 -0.009484841 -0.01124614 -0.01308614 -0.01500638 -0.01696598 -0.01896605
 -0.02091741 -0.02281169 -0.02458658 -0.02623839 -0.02778652 -0.02923404 -0.03062829 -0.03196641 -0.03325691 -0.03449118
 -0.03564073 -0.03670561 -0.03766856 -0.03854145 -0.0393355 -0.04006139 -0.04073624 -0.04136345 -0.04195069 -0.04249965
 -0.043012 -0.04349254 -0.04394305 -0.04436798 -0.04476903 -0.04514698 -0.04550236 -0.04583389 -0.0461418 -0.04642103
 -0.04667133 -0.04687921 -0.04704391 -0.04715119 -0.04720235 -0.04719729 -0.04713935 -0.04704028 -0.04690243 -0.04673658
 -0.04654492 -0.04633492 -0.04610999 -0.04587587 -0.04563743 -0.04539805 -0.04516818 -0.04495136 -0.04476556 -0.04461766
 -0.04452106 -0.04448197 -0.04449793 -0.0445705 -0.04468761 -0.04484844 -0.04504187 -0.04526724 -0.04551355 -0.04577992
 -0.0460522 -0.04632923 -0.04659705 -0.04685454 -0.0470903 -0.04730366 -0.0474871 -0.04764128 -0.04776368 -0.04785601
 -0.04791961 -0.04795472 -0.04796202 -0.0479412 -0.04789122 -0.0478158 -0.04771441 -0.04759733 -0.04746586 -0.04733356
 -0.04720242 -0.04708412 -0.04698012 -0.04689602 -0.04683226 -0.04678698 -0.0467598 -0.04674509 -0.04674217 -0.04674432
 -0.04675076 -0.04675483 -0.04675682 -0.04675302 -0.04674665 -0.04674092 -0.04673972 -0.04675008 -0.04677036 -0.04680305
 -0.046841 -0.04688093 -0.04691796 -0.04694855 -0.04697469 -0.04699596 -0.04701627 -0.04703666 -0.04705628 -0.04707546
 -0.04708866 -0.04709556 -0.04709109 -0.04707517 -0.04704633 -0.04700476 -0.04695098 -0.04688492 -0.04680663 -0.04671582
 -0.04661196 -0.04649447 -0.04636237 -0.04621467 -0.0460495 -0.04586715 -0.04566585 -0.04545078 -0.04522279 -0.0449917
 -0.04476127 -0.04453867 -0.04432768 -0.04412523 -0.04393238 -0.04373805 -0.0435411 -0.04333505 -0.04311937 -0.04289994
 -0.04267742 -0.0424633 -0.04225731 -0.04206394 -0.04188117 -0.04170359 -0.04152999 -0.04135411 -0.04117724 -0.04099889
 -0.04082002 -0.04064281 -0.04046388 -0.04028255 -0.04009147 -0.03988627 -0.0396624 -0.03941566 -0.03915042 -0.03886596
 -0.03857226 -0.03827102 -0.03796814 -0.03766454 -0.03736132 -0.03705851 -0.03676188 -0.03647214 -0.03620167 -0.03595102
 -0.03573002 -0.03553826 -0.03537915 -0.03525262 -0.03516089 -0.03510243 -0.03507749 -0.03507959 -0.03510241 -0.03513707
 -0.03517332 -0.03520851 -0.03523686 -0.03526392 -0.03529049 -0.03532168 -0.03536024 -0.03540232 -0.03544841 -0.03548912
 -0.03552315 -0.03554819 -0.03556389 -0.03557983 -0.03559651 -0.03562347 -0.03566003 -0.0357059 -0.03576065 -0.03582168
 -0.03589083 -0.03597204 -0.03606553 -0.03617502 -0.03629586 -0.036424 -0.03655535 -0.03668411 -0.03681152 -0.0369368
 -0.0370613 -0.03718679 -0.03730798 -0.03742487 -0.03752755 -0.03761445 -0.03767759 -0.03771555 -0.03772819 -0.03771529
 -0.03768431 -0.03763552 -0.03757454 -0.03750052 -0.03741024 -0.03730301 -0.03717349 -0.03702337 -0.03685395 -0.03666772
 -0.0364695 -0.03626143 -0.0360474 -0.03583046 -0.0356145 -0.03540122 -0.0351935 -0.03498863 -0.03478587 -0.03458414
 -0.03438197 -0.03418483 -0.03399363 -0.03381149 -0.03363951 -0.03347128 -0.03330654 -0.0331365 -0.03296082 -0.03277347
 -0.03257417 -0.03235748 -0.03212407 -0.03187273 -0.0316064 -0.03133202 -0.03105192 -0.03077415 -0.0304978 -0.03022478
 -0.02995425 -0.02968592 -0.02941969 -0.02915612 -0.02889259 -0.02862836 -0.02836061 -0.02808775 -0.02781177 -0.02753244
 -0.02725401 -0.02697673 -0.02670548 -0.02644049 -0.02618954 -0.02595288 -0.02573538 -0.02553589 -0.02534842 -0.02517157
 -0.02499631 -0.02482258 -0.02464657 -0.02446654 -0.02427734 -0.02407834 -0.02386347 -0.02364266 -0.0234207 -0.02321114
 -0.02302684 -0.02286322 -0.02272545 -0.02259024 -0.02245229 -0.02229411 -0.02211018 -0.02190164 -0.02166733 -0.02141773
 -0.02115342 -0.02088255 -0.02060533 -0.02032446 -0.02004042 -0.01975716 -0.01947684 -0.01921042 -0.01895955 -0.01873528
 -0.01853545 -0.01836098 -0.0182101 -0.01807942 -0.01797249 -0.01789159 -0.01783853 -0.01781727 -0.01782028 -0.01784644
 -0.01788545 -0.01793414 -0.01798649 -0.0180414 -0.01809238 -0.01813896 -0.01817237 -0.01819205 -0.01819047 -0.01816714
 -0.01811316 -0.01802783 -0.01790108 -0.01773373 -0.01752357 -0.01727222 -0.01698373 -0.0166574 -0.01629265 -0.01589155
 -0.01545168 -0.01498936 -0.01451214 -0.01405207 -0.01362612 -0.013272 -0.01300759 -0.0128629 -0.01285197 -0.01298027
 -0.01325517 -0.01364772 -0.01415776 -0.01473716 -0.01538296 -0.01605093 -0.01673893 -0.01741041 -0.01806406 -0.01867148
 -0.01923447 -0.01974419 -0.02020562 -0.02062874 -0.02101478 -0.02137194 -0.02169625 -0.02198457 -0.02223717 -0.02245017
 -0.02263439 -0.02279278 -0.02294283 -0.02309142 -0.02325475 -0.02343891 -0.02365253 -0.02389863 -0.02417839 -0.02449247
 -0.02483907 -0.02521833 -0.02562187 -0.0260487 -0.02647798 -0.02690814 -0.02731671 -0.0277045 -0.02806312 -0.0283941
 -0.02869793 -0.02897421 -0.02922093 -0.02944149 -0.02963746 -0.02981786 -0.02999258 -0.03016389 -0.03033873 -0.03050708
 -0.03066596 -0.0308088 -0.03093114 -0.03103966 -0.03113461 -0.03122412 -0.03130955 -0.03139228 -0.03147257 -0.03154877
 -0.03162076 -0.03168584 -0.03174361 -0.03178982 -0.03182409 -0.0318427 -0.03184513 -0.03182783 -0.03179105 -0.03173183
 -0.0316554 -0.03156593 -0.03147248 -0.03138589 -0.0313085 -0.03124673 -0.03119371 -0.03114794 -0.03110387 -0.03105916
 -0.03101276 -0.03096431 -0.030912 -0.03085528 -0.03079565 -0.03073297 -0.03067555 -0.03062352 -0.03057776 -0.03053654
 -0.03048517 -0.03042309 -0.03033833 -0.0302354 -0.03012083 -0.02999918 -0.02988424 -0.02977337 -0.02967014 -0.02956689
 -0.0294572 -0.02933727 -0.02920155 -0.02905314 -0.02889218 -0.0287213 -0.02854212 -0.02835185 -0.02814955 -0.02793686
 -0.02771249 -0.02749238 -0.0272774 -0.02708557 -0.02691732 -0.02677483 -0.02665712 -0.02655647 -0.02647302 -0.02640418
 -0.02634918 -0.02630614 -0.02627024 -0.02623075 -0.02618513 -0.02612266 -0.02605114 -0.02597242 -0.02589893 -0.02584081
 -0.0258005 -0.02578502 -0.0257796 -0.02578392 -0.02577271 -0.02574114 -0.02567054 -0.02555668 -0.02540153 -0.02520433
 -0.02498434 -0.02474266 -0.02450079 -0.02425926 -0.02403211 -0.02381846 -0.02362255 -0.02344157 -0.02326956 -0.0231044
 -0.02293739 -0.02277214 -0.02260921 -0.02245432 -0.02231505 -0.02218895 -0.02207848 -0.02197425 -0.02187202 -0.02176771
 -0.02165859 -0.02154619 -0.02143125 -0.02130973 -0.02118169 -0.02103846 -0.02087901 -0.02070655 -0.02052169 -0.02034285
 -0.02017063 -0.02001913 -0.01988551 -0.01976414 -0.01965163 -0.01953358 -0.01941197 -0.01928351 -0.0191521 -0.01902464
 -0.01889545 -0.01876456 -0.01861693 -0.01844122 -0.01823219 -0.01797965 -0.01770326 -0.01740356 -0.01711341 -0.0168402
 -0.01660248 -0.01640593 -0.01623757 -0.01609773 -0.01595276 -0.01580121 -0.01561959 -0.01540993 -0.01517972 -0.01493371
 -0.01469929 -0.01447703 -0.01428483 -0.01411596 -0.0139655 -0.01382699 -0.01368659 -0.01354846 -0.01341018 -0.01328122
 -0.01317054 -0.01307273 -0.01299195 -0.01290437 -0.0128027 -0.01267323 -0.01250825 -0.01232451 -0.01212219 -0.01192604
 -0.01173866 -0.01156242 -0.0113971 -0.01122786 -0.01105426 -0.01086605 -0.01066454 -0.01044983 -0.01022505 -0.009998653
 -0.009775233 -0.009569443 -0.009380834 -0.009218162 -0.009070161 -0.00892998 -0.008785102 -0.008622204 -0.008443845 -0.008244684
 -0.008042251 -0.007840713 -0.007654456 -0.007489203 -0.007340693 -0.007210494 -0.007080007 -0.006947788 -0.00680182 -0.00664187
 -0.006475657 -0.006304276 -0.006141811 -0.0059875 -0.005844666 -0.005712259 -0.005588331 -0.005473445 -0.005369031 -0.005272683
 -0.005183548 -0.00509367 -0.004995445 -0.004881213 -0.004742555 -0.004578413 -0.004383218 -0.004169778 -0.003936979 -0.003714654
 -0.003508049 -0.003344125 -0.003229919 -0.003156945 -0.003126543 -0.003098893 -0.003072104 -0.003014655 -0.002927622 -0.002808693
 -0.002661747 -0.002503849 -0.002339178 -0.002190361 -0.002057381 -0.001954349 -0.001870913 -0.001800086 -0.001727022 -0.001632811
 -0.001512264 -0.001354145 -0.001164323 -0.0009413884 -0.000696604 -0.0004301042 -0.0001651702 9.58223E-05 0.0003200114 0.000501799
 0.0006261762 0.0006902191 0.0007103307 0.0006875208 0.0006506543 0.0006006116 0.0005566496 0.0005184032 0.0004935183 0.0004826598
 0.0004905853 0.0005212871 0.0005863769 0.000686618 0.0008335532 0.001010528 0.001209034 0.001402045 0.001563687 0.001692065
 0.001772689 0.001837822 0.00189422 0.00197042 0.002076566 0.002212473 0.002380668 0.002566849 0.002770251 0.002976198
 0.003183938 0.003381966 0.00357092 0.00375287 0.003929695 0.004113843 0.004303085 0.004497771 0.004692631 0.004875512
 0.005045351 0.005195532 0.005326025 0.005435079 0.005520952 0.005578768 0.005618517 0.00564035 0.005666073 0.005704211
 0.005763185 0.00584846 0.005949953 0.006067126 0.006190416 0.006319075 0.006444811 0.006567161 0.006677161 0.006775966
 0.006872669 0.006969466 0.007085172 0.007215805 0.00735811 0.007507742 0.007651245 0.007792667 0.007935233 0.008074741
 0.008211166 0.008330644 0.008415245 0.008483507 0.008528258 0.008613358 0.008766524 0.008995745 0.009323788 0.009645735
 0.00994595 0.01017818 0.01033319 0.01045725 0.01055256 0.01066926 0.01080789 0.01099377 0.01122078 0.01147509
 0.01174049 0.01195621 0.01211171 0.01214503 0.01207744 0.01190674 0.01167673 0.01143466 0.01120595 0.01102894
 0.01089621 0.01081654 0.01076776 0.01074422 0.01072921 0.0107164 0.01070589 0.01069683 0.0106928 0.01069548
 0.01068211 0.01065145 0.01057064 0.01044161 0.01027357 0.01007428 0.009892588 0.009729993 0.009619961 0.009553078
 0.009525967 0.009526553 0.009536625 0.009542936 0.00952365 0.009473913 0.009376422 0.009255079 0.009116657 0.008983588
 0.008870689 0.008763406 0.008657835 0.008558203 0.008458529 0.00841844 0.008444075 0.008558857 0.008763658 0.008992215
 0.00924127 0.009450151 0.009624323 0.009764716 0.009875524 0.009970631 0.01005187 0.01012792 0.01020463 0.01029844
 0.01040309 0.01052287 0.01063588 0.01072424 0.01078268 0.01079829 0.01079294 0.01076949 0.01075411 0.01075245
 0.0107873 0.01086386 0.01098926 0.01116741 0.01135606 0.01155296 0.01168925 0.01176506 0.01176022 0.01168262
 0.01156698 0.01141846 0.0112707 0.01112883 0.01101863 0.01094834 0.01094889 0.01100539 0.01112137 0.01125689
 0.01137818 0.01147425 0.011522 0.01155448 0.0115806 0.01161675 0.01167475 0.01172488 0.01176535 0.01176183
 0.01170887 0.01161488 0.01148024 0.01136573 0.01127476 0.01127197 0.01134914 0.0114964 0.01169471 0.01186592
 0.01201311 0.01209661 0.0121477 0.01220457 0.01227613 0.01239806 0.01253606 0.01267605 0.01278739 0.01284481
 0.01285237 0.0128037 0.01271723 0.01259525 0.01245697 0.01230498 0.01215796 0.01201868 0.01188713 0.0117634
 0.01163014 0.01148728 0.01132891 0.01115715 0.01098171 0.01080401 0.01063395 0.01047193 0.0103253 0.01018994
 0.01006446 0.009939528 0.009800472 0.009652415 0.009489214 0.009335132 0.009203142 0.009103516 0.009046038 0.009019488
 0.009021736 0.009050481 0.009106053 0.009181384 0.009278448 0.009348499 0.00938886</values></Ydata></AB><ScSm><Ydata ylabel="Single channel"><values byteorder="INTEL" format="FLOAT32" numvalues="1814"> 0.07838865 0.07842548 0.07854113 0.07874221 0.07898401 0.07920025 0.07934755 0.07943012 0.07947352 0.07948142
 0.07944946 0.07942113 0.07948136 0.07967055 0.07992838 0.08013485 0.08020466 0.08016298 0.08013703 0.08023233
 0.08038709 0.08038408 0.08005673 0.07948329 0.0789369 0.07863227 0.07859044 0.07879817 0.07934236 0.08015831
 0.08074985 0.0805494 0.07963891 0.07876955 0.07852884 0.07877959 0.07901769 0.07894517 0.07855912 0.07804613
 0.07783451 0.07846963 0.08007732 0.08193515 0.08273567 0.08140467 0.07786502 0.07329036 0.06967898 0.06877779
 0.07084522 0.07430108 0.07691611 0.07758991 0.0768736 0.07584371 0.07495378 0.07417148 0.07370774 0.07404554
 0.0752627 0.07658902 0.07679873 0.07524675 0.07264226 0.07056285 0.07002383 0.07083066 0.07240963 0.07442872
 0.07594782 0.07493371 0.07026459 0.06426427 0.0616606 0.06508687 0.07226993 0.07826572 0.07986006 0.07733734
 0.07301345 0.06932294 0.06793283 0.06929163 0.07252123 0.07615143 0.07902239 0.08034658 0.07951532 0.07662494
 0.07298557 0.0704795 0.0704084 0.07299425 0.07732957 0.08144299 0.08319596 0.08187275 0.07865869 0.07538177
 0.07330611 0.0731411 0.07521863 0.07913293 0.08373155 0.08779654 0.09054158 0.09166524 0.09140024 0.09037153
 0.08912316 0.08803921 0.08768761 0.08846269 0.08966905 0.08979337 0.08815956 0.08583072 0.08450884 0.08477445
 0.08562759 0.08570439 0.084655 0.08290201 0.08028197 0.07605459 0.07058919 0.06578001 0.06314896 0.06270413
 0.06408434 0.06713889 0.07057998 0.07190629 0.07013814 0.06755518 0.06741796 0.07049761 0.07469316 0.07761946
 0.07881193 0.0795648 0.08125037 0.08390512 0.08603954 0.0857538 0.08262555 0.07877609 0.07736813 0.07949882
 0.08315191 0.08568813 0.08663145 0.08736032 0.08870523 0.08966329 0.08843735 0.08456165 0.08005965 0.07820365
 0.08066289 0.08582733 0.08997215 0.09001412 0.08558685 0.07912962 0.07398639 0.07209194 0.07344408 0.07736504
 0.08324653 0.08989789 0.09525344 0.09752999 0.09652591 0.09350492 0.0897592 0.085418 0.08014292 0.07512192
 0.07329744 0.07657033 0.08335788 0.08992074 0.0937028 0.09459479 0.09345683 0.09052314 0.08565918 0.07991911
 0.07605399 0.07637194 0.07996592 0.08323573 0.08366763 0.0821227 0.08096958 0.08110954 0.0816502 0.08175659
 0.08183385 0.08284727 0.0849629 0.08719385 0.0883742 0.08822484 0.08738809 0.08666656 0.08629402 0.08577433
 0.08458135 0.08322406 0.08317562 0.08526281 0.08852625 0.09120442 0.09249314 0.09282947 0.09272328 0.09187372
 0.08962528 0.08622751 0.08333854 0.08279138 0.08481592 0.08790168 0.09036626 0.09155867 0.09168163 0.09117761
 0.09043613 0.08967236 0.08899052 0.08865052 0.08899845 0.08996506 0.09096466 0.0914842 0.09149861 0.09119891
 0.09062588 0.08975311 0.08875203 0.08799367 0.08778033 0.08811713 0.08876105 0.08944173 0.08995588 0.09012032
 0.08983697 0.08923787 0.0886054 0.08811477 0.08777718 0.08761453 0.08771022 0.08804875 0.0884444 0.08869583
 0.08874243 0.0886382 0.08844028 0.08817016 0.08785078 0.08754627 0.08735916 0.0873633 0.08751617 0.08768158
 0.08778518 0.08788978 0.08805013 0.08816646 0.08808667 0.08781362 0.0875131 0.08733428 0.08729443 0.08732286
 0.08733957 0.08726697 0.08702505 0.08660084 0.08613871 0.08588579 0.08599234 0.0864023 0.08694853 0.08747573
 0.08786017 0.08803016 0.08802535 0.08795995 0.08788957 0.08777049 0.08756394 0.08733304 0.08722204 0.08734615
 0.08768772 0.08810236 0.08843808 0.08863188 0.08870195 0.08871535 0.08876972 0.08891957 0.08909455 0.08916352
 0.08909944 0.08901881 0.08904237 0.08916354 0.08927096 0.08928039 0.08923119 0.0892453 0.08939274 0.08962256
 0.08983608 0.0899967 0.09014742 0.0903334 0.09052227 0.09061475 0.09055462 0.09041336 0.09032184 0.0903289
 0.09038587 0.09046251 0.09059986 0.09082423 0.0910705 0.09123757 0.09129988 0.09132819 0.09139693 0.09149527
 0.09154628 0.09150138 0.09139369 0.09130216 0.09128431 0.09134254 0.09143503 0.09150927 0.09153315 0.09150586
 0.09144768 0.09138081 0.09131576 0.09126092 0.09124897 0.09133101 0.09151287 0.0917045 0.09177242 0.09166291
 0.09146 0.09130585 0.09126645 0.09128312 0.09125161 0.0911311 0.09096551 0.090818 0.09071293 0.0906388
 0.09057796 0.09052509 0.09049822 0.09053916 0.09067734 0.09087498 0.09102917 0.09105764 0.09097692 0.09087762
 0.09083407 0.09085683 0.09091581 0.09098102 0.09104901 0.09114578 0.09128904 0.09144115 0.09153301 0.09154874
 0.09155215 0.09161898 0.091778 0.09201714 0.09229369 0.09253074 0.09266125 0.09270126 0.09274176 0.09285113
 0.09301619 0.09318877 0.09335341 0.0935271 0.09372069 0.09393123 0.09416549 0.094446 0.094786 0.09516442
 0.09552819 0.09582442 0.09604526 0.09624782 0.09651732 0.09689607 0.09734714 0.0977895 0.09816745 0.09848948
 0.09880431 0.09914237 0.09949064 0.09983312 0.1001954 0.1006191 0.1010999 0.1015842 0.1020307 0.1024471
 0.1028636 0.103294 0.1037338 0.104184 0.1046633 0.1051877 0.105734 0.106239 0.1066502 0.1069789
 0.1072938 0.1076694 0.1081366 0.1086549 0.1091256 0.1094667 0.1097022 0.109951 0.110301 0.1107175
 0.11111 0.1114634 0.1118552 0.1123423 0.112877 0.1133566 0.1137322 0.1140457 0.1143686 0.1147212
 0.115058 0.1153265 0.1155321 0.1157323 0.1159721 0.116254 0.1165814 0.1169887 0.1174904 0.1180253
 0.1184955 0.1188543 0.119125 0.1193505 0.1195575 0.1197582 0.1199531 0.1201386 0.1203254 0.1205324
 0.1207509 0.1209445 0.121104 0.1212731 0.121499 0.121789 0.1221325 0.122531 0.1229731 0.1234097
 0.1238025 0.1241877 0.124638 0.1251494 0.1256146 0.1259366 0.1261315 0.126284 0.1264417 0.1266091
 0.126815 0.1271151 0.1275232 0.1279897 0.1284581 0.1289116 0.1293576 0.1297913 0.1301854 0.1305031
 0.1307214 0.1308512 0.1309413 0.1310608 0.1312689 0.1315812 0.1319533 0.132307 0.1325831 0.1327631
 0.1328429 0.13282 0.1327286 0.1326526 0.1326581 0.13271 0.1326883 0.1324893 0.1320923 0.1315302
 0.1308313 0.1300126 0.1291181 0.1282398 0.1274912 0.1269604 0.1266926 0.1267101 0.1270294 0.1276373
 0.1284533 0.1293389 0.1301546 0.1307904 0.1311489 0.131146 0.1307626 0.1300793 0.1292321 0.128341
 0.1274848 0.1267048 0.1260047 0.1253775 0.1248759 0.1246501 0.1248894 0.1257181 0.1271366 0.1290203
 0.1311481 0.1332605 0.1351501 0.1367372 0.1380664 0.139228 0.1402879 0.141286 0.1422589 0.1432231
 0.1441467 0.1449793 0.1457108 0.1463726 0.1469853 0.1475352 0.1480017 0.1483809 0.1486865 0.1489433
 0.1491712 0.1493629 0.1494954 0.1495736 0.1496384 0.1497137 0.1497637 0.1497142 0.1495075 0.1491369
 0.1486678 0.1482537 0.148122 0.1484977 0.1494909 0.1510308 0.1529066 0.1548803 0.1567698 0.1584503
 0.1598348 0.160893 0.1616758 0.1622873 0.1628224 0.1633361 0.1638509 0.1643701 0.1648841 0.1653819
 0.1658612 0.1663307 0.1668052 0.1672937 0.1677852 0.168251 0.1686728 0.1690673 0.1694769 0.1699326
 0.1704255 0.1709174 0.171385 0.1718438 0.1723153 0.1727789 0.1731862 0.1735254 0.1738435 0.1742014
 0.1746262 0.1751026 0.1755855 0.1760191 0.1763734 0.1766701 0.1769594 0.1772739 0.1776141 0.1779685
 0.1783295 0.1786911 0.1790486 0.1794087 0.1797893 0.180196 0.1805979 0.180945 0.1812167 0.1814473
 0.1816931 0.1819825 0.1823005 0.1826158 0.1829169 0.1832261 0.1835787 0.1839813 0.1843937 0.1847572
 0.1850436 0.185275 0.1854989 0.1857499 0.1860321 0.1863311 0.1866344 0.1869403 0.1872516 0.1875692
 0.1878893 0.1882055 0.1885128 0.1888119 0.1891085 0.1894092 0.1897177 0.1900323 0.1903498 0.1906745
 0.1910182 0.1913821 0.1917435 0.1920705 0.1923488 0.1925878 0.1928073 0.1930281 0.193268 0.1935348
 0.1938213 0.1941157 0.1944129 0.1947116 0.1950057 0.1952866 0.1955536 0.1958179 0.1960938 0.1963862
 0.1966909 0.1970039 0.1973238 0.1976442 0.1979515 0.1982346 0.1984966 0.198754 0.1990234 0.1993062
 0.1995891 0.1998611 0.2001264 0.2003951 0.2006688 0.2009439 0.2012209 0.2015027 0.201787 0.2020682
 0.2023429 0.2026117 0.202879 0.2031507 0.2034288 0.2037101 0.2039916 0.2042714 0.2045461 0.2048133
 0.2050766 0.2053427 0.2056156 0.2058966 0.2061838 0.2064703 0.2067488 0.2070187 0.2072853 0.2075542
 0.2078273 0.2081015 0.2083708 0.2086353 0.2089012 0.2091706 0.2094367 0.2096952 0.2099523 0.2102191
 0.2105017 0.2107966 0.2110938 0.2113855 0.2116719 0.2119556 0.2122353 0.2125118 0.2127914 0.2130766
 0.2133625 0.2136444 0.2139222 0.2141956 0.2144629 0.2147232 0.2149746 0.2152162 0.215452 0.2156867
 0.2159209 0.216157 0.2164023 0.2166586 0.2169184 0.2171756 0.2174322 0.2176941 0.2179663 0.2182475
 0.2185289 0.2188031 0.2190729 0.2193432 0.2196119 0.2198765 0.2201398 0.2204033 0.220668 0.2209404
 0.2212251 0.221515 0.2218003 0.2220768 0.2223434 0.2226042 0.2228694 0.223143 0.2234174 0.2236887
 0.2239607 0.2242319 0.2244961 0.2247554 0.2250148 0.2252725 0.2255293 0.2257913 0.2260594 0.2263296
 0.2266014 0.2268726 0.2271382 0.2274036 0.2276784 0.2279568 0.228227 0.2284914 0.2287555 0.2290165
 0.2292761 0.2295423 0.229813 0.2300812 0.2303502 0.2306217 0.230888 0.2311471 0.231399 0.2316218
 0.2317582 0.2316685 0.2309984 0.229036 0.2246913 0.2167101 0.2041662 0.18704 0.1664331 0.1441863
 0.1221999 0.1019302 0.08423679 0.06949106 0.0577636 0.04894764 0.04283834 0.03925913 0.03819074 0.03990619
 0.04512259 0.05457899 0.06742662 0.07980049 0.08632456 0.08435974 0.07652618 0.0683125 0.06351564 0.06240959
 0.06338072 0.0650502 0.06697882 0.06941039 0.07276596 0.07716028 0.08238503 0.08843392 0.0957531 0.1046716
 0.114725 0.1248512 0.1343016 0.1432239 0.1523039 0.1619298 0.1717754 0.1811163 0.1894086 0.1965604
 0.2028084 0.2084591 0.213722 0.2186969 0.2234378 0.2279459 0.2320601 0.2354155 0.2376223 0.2385636
 0.238534 0.2380717 0.2376427 0.2374596 0.2375388 0.2378404 0.2383346 0.238998 0.239806 0.2407262
 0.2417155 0.2427321 0.2437494 0.2447461 0.2456974 0.2465847 0.2474007 0.2481416 0.2488087 0.2494128
 0.2499667 0.2504768 0.250949 0.2513887 0.2517931 0.2521593 0.2525001 0.2528375 0.2531796 0.2535135
 0.2538191 0.2540862 0.2543228 0.2545485 0.2547742 0.2549933 0.2551992 0.2554006 0.255611 0.2558324
 0.2560571 0.2562777 0.2564914 0.2566998 0.2569055 0.2571083 0.257306 0.2575004 0.2576961 0.2578963
 0.2581033 0.2583189 0.2585404 0.2587575 0.2589608 0.2591498 0.2593332 0.259523 0.2597249 0.2599316
 0.2601352 0.2603426 0.2605675 0.2608075 0.2610455 0.2612721 0.2614912 0.2617079 0.2619247 0.2621425
 0.2623506 0.2625268 0.2626633 0.2627876 0.2629475 0.263171 0.2634397 0.2637057 0.263938 0.2641444
 0.2643468 0.2645513 0.2647485 0.2649313 0.2651075 0.2653021 0.2655391 0.2658102 0.2660799 0.2663312
 0.2665797 0.2668393 0.2671048 0.2673709 0.2676305 0.2678559 0.2680195 0.2681421 0.2682992 0.2685655
 0.2689431 0.2693476 0.269684 0.2699358 0.2701601 0.2704145 0.2707181 0.271036 0.2712597 0.2712781
 0.2711458 0.271112 0.2713955 0.2719691 0.2726188 0.2731642 0.2735676 0.2738821 0.2741571 0.2743881
 0.2745256 0.2745336 0.27447 0.2745052 0.2748049 0.2753554 0.2759587 0.2764336 0.2767587 0.2769974
 0.2771921 0.2773621 0.2774668 0.2773469 0.2768911 0.2763332 0.2761909 0.2767643 0.2777978 0.2787541
 0.2793471 0.2796867 0.2799701 0.2802359 0.2804357 0.2804817 0.2801095 0.2790244 0.2774733 0.2764134
 0.2767162 0.2782837 0.2802121 0.2816994 0.2825501 0.2829692 0.2832106 0.2834084 0.2834778 0.2831247
 0.2821754 0.2810112 0.2804695 0.2810706 0.2824309 0.2836741 0.2843254 0.28456 0.2847314 0.284979
 0.2851348 0.2846768 0.2830245 0.2803924 0.27822 0.2781596 0.2804604 0.2836673 0.2860643 0.2871531
 0.2875161 0.2875501 0.2868866 0.2850605 0.282199 0.2789589 0.2763474 0.275612 0.277409 0.2807459
 0.2835433 0.2846907 0.2849792 0.2857552 0.2872984 0.2888235 0.2895209 0.2891927 0.2880975 0.2864867
 0.2844902 0.2825646 0.2817534 0.282937 0.2857646 0.2887832 0.2907873 0.2917362 0.2921156 0.2915182
 0.2883661 0.2818146 0.274114 0.2699703 0.2723811 0.2795002 0.2866243 0.2908159 0.2924957 0.2932236
 0.2936189 0.2932 0.2906474 0.2845003 0.2754428 0.2677816 0.2665413 0.2724816 0.2812318 0.2873841
 0.2882077 0.2839396 0.2767738 0.2701864 0.2675231 0.2699788 0.2760842 0.2831585 0.2889143 0.292072
 0.2923424 0.2903012 0.2873325 0.2852904 0.2851684 0.2856297 0.2840133 0.2797039 0.275169 0.2723193
 0.2695134 0.264563 0.259556 0.2594702 0.2657269 0.2738379 0.2784634 0.2788218 0.2776982 0.2763387
 0.2722721 0.2628466 0.2502537 0.2415767 0.2425938 0.2517977 0.2617653 0.2664326 0.2658963 0.2641988
 0.2639239 0.2635843 0.2597491 0.2515509 0.2429091 0.2392183 0.2415816 0.2458056 0.2473226 0.2448155
 0.238555 0.2289179 0.2190308 0.2156706 0.2234932 0.2392787 0.2545006 0.2623674 0.2602313 0.2479393
 0.2287725 0.2114888 0.2060565 0.2146942 0.229167 0.2383925 0.2372208 0.2272554 0.2121022 0.1949711
 0.1802111 0.1736483 0.1790414 0.1943182 0.2117613 0.2218252 0.2183429 0.2033189 0.1873814 0.1821041
 0.1894525 0.2004668 0.2053447 0.2023503 0.1963106 0.1923666 0.1930159 0.1978211 0.2038841 0.2085198
 0.2113825 0.2114341 0.2040335 0.1865328 0.1657471 0.153499 0.1543207 0.1630546 0.1743394 0.187444
 0.2002272 0.2058004 0.2003233 0.1903552 0.1873238 0.1953887 0.2078559 0.2153651 0.2151499 0.2115559
 0.2092506 0.2082 0.2060556 0.2036305 0.2050641 0.2121557 0.221264 0.2273807 0.2293391 0.2293758
 0.2293223 0.2292195 0.228604 0.2273289 0.2254687 0.2234274 0.2218169 0.2207536 0.2197545 0.2184761
 0.2166635 0.213027 0.2055345 0.1942942 0.1833935 0.1776952 0.1777093 0.179874 0.1818635 0.183955
 0.1840589 0.176343 0.1589585 0.1403444 0.1330918 0.1417913 0.1596149 0.176042 0.1848522 0.1846259
 0.1756299 0.1601749 0.1453682 0.1409171 0.1511774 0.1709292 0.1909544 0.2060018 0.2154273 0.2187903
 0.2148969 0.20504 0.1943587 0.1889448 0.1921011 0.2028141 0.2161088 0.2243832 0.2210895 0.2071986
 0.194182 0.1956304 0.2129868 0.2331611 0.243241 0.243621 0.2429049 0.2445533 0.2450852 0.2433524
 0.2443567 0.2523029 0.2643552 0.2734277 0.2744098 0.2661662 0.2508837 0.234636 0.2258385 0.2284872
 0.2375971 0.2446294 0.245785 0.2415037 0.2313849 0.2163224 0.2039221 0.2039247 0.2168905 0.2328881
 0.242767 0.2464764 0.2489668 0.2516842 0.2508796 0.2433768 0.231919 0.2234786 0.2223345 0.2262978
 0.2303568 0.2319664 0.2310726 0.2270985 0.2193115 0.2101038 0.2050107 0.2078963 0.2169831 0.2265806
 0.2322345 0.2335195 0.2325902 0.2314417 0.2305918 0.2293156 0.2270221 0.225018 0.2262517 0.2320916
 0.2400336 0.246221 0.2498544 0.2534615 0.2589357 0.2649047 0.2683707 0.2679661 0.2652605 0.2634112
 0.2646435 0.2684841 0.2721111 0.2727689 0.2703905 0.2678955 0.2684954 0.2726308 0.2779063 0.281824
 0.2838335 0.284819 0.2856266 0.2863586 0.286333 0.284616 0.2813652 0.2786402 0.2789458 0.282723
 0.2878995 0.2920066 0.2941557 0.2949061 0.2949275 0.2942883 0.2928483 0.2909036 0.2892027 0.2883697
 0.2884685 0.2891444 0.2900085 0.2908145 0.2914442 0.2918846 0.2921865 0.29239 0.2925209 0.2926365
 0.2927793 0.292891 0.292874 0.2927685 0.292766 0.29299 0.293332 0.293563 0.2935372 0.293204
 0.2924943 0.2913342 0.2897719 0.287964 0.2860016 0.2838631 0.281651 0.2798309 0.2790833 0.2798041
 0.2817416 0.2841497 0.2862905 0.2877918 0.2886355 0.2889647 0.2889535 0.2887601 0.288487 0.2881501
 0.2877074 0.2871295 0.2864363 0.2856737 0.2848837 0.2841111 0.2834141 0.2828388 0.2823846 0.2820032
 0.2816289 0.2812111 0.2807327 0.2802119 0.2796768 0.2791227 0.2784961 0.2777304 0.2768091 0.2757921
 0.2747831 0.2738696 0.2730817 0.2723848 0.2717104 0.2709994 0.2702102 0.2692931 0.2682155 0.2670407
 0.2659305 0.2650145 0.2642729 0.263571 0.2627727 0.2618056 0.2606637 0.2593906 0.2580444 0.2566604
 0.2552459 0.2537983 0.2523095 0.2507592 0.2491215 0.2473792 0.2455331 0.2436029 0.2416197 0.2396083
 0.2375602 0.2354077 0.2330254 0.2302653 0.226999 0.2231389 0.2186594 0.213632 0.2082347 0.2027038
 0.1972657 0.1920993 0.1873332 0.1830629 0.1793728 0.1763372 0.1740054 0.1724031 0.1715518 0.1714667
 0.1721311 0.1734832 0.1754248 0.1778338 0.1805708 0.1834799 0.1863858 0.1891203 0.1915881 0.1938158
 0.1959133 0.1979685 0.1999738 0.2018534 0.2035471 0.2050467 0.2063547 0.2074494 0.2083145 0.208974
 0.2094721 0.2098347 0.2100673 0.2101688 0.2101377 0.2099891 0.2097788 0.2096053 0.2095826 0.2098014
 0.2102898 0.2110041 0.2118673 0.2128168 0.2138129 0.2148216 0.2158106 0.2167576 0.217656 0.2185164
 0.2193638 0.2202329 0.2211733 0.222251 0.2235276 0.225029 0.2267348 0.2285806 0.2304655 0.2322756
 0.2339105 0.2352916 0.2363676 0.2371331 0.2376296 0.23791 0.2380078 0.2379421 0.2377337 0.23741
 0.2370001 0.2365222 0.2359764 0.235357 0.2346647 0.2339 0.2330672 0.2322021 0.2313669 0.2305953
 0.2298657 0.2291426 0.2284169 0.2276965 0.2269848 0.2262803 0.2255815 0.2248853 0.2241895 0.2234963
 0.2228039 0.2220891 0.221302 0.2203912 0.2193414 0.2181742 0.216913 0.2155632 0.214131 0.2126303
 0.2110665 0.209438 0.2077526 0.206023 0.204247 0.2024075 0.2004784 0.1984307 0.1962625 0.1940332
 0.1918441 0.1897728 0.1878387 0.1860227 0.1843018 0.182664 0.1811024 0.1796039 0.1781563 0.1767702
 0.1754725 0.1742686 0.1731333 0.1720463 0.171015 0.1700573 0.169185 0.168405 0.1677182 0.1671143
 0.1665794 0.16611 0.1657229 0.165447 0.1652932 0.1652212 0.1651493 0.1650074 0.1647786 0.1644957
 0.1642068 0.1639406 0.1636968 0.1634679 0.1632571 0.1630522 0.1627949 0.1623907 0.1617452 0.1607828
 0.1594628 0.1578037 0.1558908 0.1538562 0.1518495 0.1500047 0.1484094 0.1471023 0.1460848 0.1453141
 0.1447047 0.1441803 0.1437316 0.1434127 0.1432875 0.1433596 0.1435252 0.1436214 0.1435739 0.1434852
 0.1435451 0.143869 0.1444337 0.1451236 0.1458077 0.1463973 0.1468523 0.1471502 0.1472827 0.1472836
 0.147209 0.1470838 0.1468972 0.1466401 0.146317 0.1459406 0.1455272 0.1450727 0.1445375 0.1438839
 0.1431113 0.142238 0.1412804 0.1402496 0.1391296 0.1378912 0.1365961 0.1354573 0.1347364 0.1345913
 0.1350076 0.1358123 0.136773 0.1377489 0.1386874 0.1394396 0.1397662 0.1397051 0.1398013 0.1407213
 0.1426026 0.144902 0.1468918 0.1481899 0.148795 0.148805 0.1482784 0.1472688 0.1457974 0.1438235
 0.1413535 0.13851 0.1354368 0.1322671 0.1292007 0.1264522 0.1241213 0.1222093 0.1206981 0.1196324
 0.1191531 0.1188935 0.1169959 0.1110925 0.1019461 0.09507817 0.09613577 0.1045404 0.1138735 0.1186536
 0.1187063 0.1169361 0.1153764 0.1143809 0.1138832 0.1140096 0.1148395 0.1161977 0.1176887 0.1189091
 0.1196905 0.120073 0.1200236 0.1192041 0.11691 0.1123102 0.1051232 0.09621315 0.08728832 0.07989976
 0.07475216 0.07172571 0.07020789 0.06945443 0.06896244 0.06868736 0.0689192 0.06994587 0.07182033 0.07439849
 0.07748748 0.08083636 0.08404627 0.08672074 0.08876441 0.09037364 0.09170409 0.09269601 0.09322225 0.09325546
 0.09287853 0.09223442 0.09147147 0.09067197 0.08981118 0.08880339 0.08763405 0.08647608 0.08561018 0.08516909
 0.08502795 0.08498839 0.08496658 0.08496235 0.0849681 0.0849625 0.08492821 0.08488287 0.08492603 0.08517574
 0.08560985 0.08605111 0.08633918 0.08645679 0.08648881 0.0864837 0.08633808 0.08588419 0.08517466 0.08453135
 0.08412439 0.08366573 0.08278465 0.08159965 0.08065659 0.08034615 0.08057247 0.0809466 0.08113362 0.08102778
 0.08076608 0.08065161 0.08094247 0.08156689</values></Ydata></ScSm><ScRf><Ydata ylabel="Single channel"><values byteorder="INTEL" format="FLOAT32" numvalues="1820"> 0.06046567 0.06061386 0.06070026 0.06073013 0.0607306 0.06074423 0.06081587 0.06096533 0.06116682 0.0613599
 0.0614919 0.06155353 0.06156542 0.06154045 0.06148825 0.06145289 0.06150198 0.06165836 0.06186273 0.06201563
 0.06205521 0.06201022 0.06198413 0.06205523 0.0621693 0.06215712 0.06189532 0.06144888 0.06102577 0.06078477
 0.06074012 0.06088752 0.06130242 0.06193846 0.06240772 0.06226013 0.06154832 0.06085223 0.06063611 0.0608054
 0.0609763 0.06091862 0.06062479 0.0602283 0.06005204 0.06052201 0.06174856 0.06317931 0.063797 0.06276222
 0.0600133 0.05646097 0.05365512 0.05295286 0.05455892 0.05724789 0.05928341 0.05980448 0.05924119 0.05843994
 0.05775851 0.05716242 0.05679961 0.05704187 0.05796263 0.05897649 0.05913017 0.05791396 0.05587579 0.05424456
 0.05381022 0.05441902 0.0556259 0.05718095 0.05836416 0.05759814 0.05399988 0.04935674 0.04733298 0.04998273
 0.05555535 0.06021624 0.06146258 0.05950779 0.05615015 0.05328302 0.05219895 0.05324046 0.05572531 0.0585209
 0.06073745 0.06176664 0.06113071 0.05889732 0.0560788 0.0541345 0.05407504 0.05607358 0.0594264 0.06260546
 0.06395569 0.06292624 0.06043647 0.05789785 0.0562831 0.05614161 0.05773916 0.06077034 0.06434226 0.06750333
 0.06963688 0.07050726 0.0702987 0.06950383 0.06854929 0.06772488 0.06745473 0.06803866 0.06895012 0.06903225
 0.06776427 0.06596122 0.06493352 0.06513078 0.06578441 0.06584277 0.06503306 0.06367697 0.06164435 0.05836219
 0.05412014 0.0503918 0.04836127 0.04803289 0.04912035 0.0515057 0.05419595 0.05525125 0.05389816 0.05188905
 0.05175287 0.05410461 0.05733206 0.05958962 0.0605105 0.06109254 0.06240093 0.06446894 0.0661431 0.06594222
 0.06352447 0.06052825 0.05941818 0.06106631 0.06391871 0.06592008 0.06668691 0.0672805 0.06834438 0.0691049
 0.06817692 0.06520832 0.06176818 0.06038097 0.06232609 0.06635222 0.06957843 0.06961848 0.06618826 0.06118564
 0.05721767 0.05579389 0.05691189 0.06004254 0.0647127 0.06999663 0.0742837 0.07617101 0.07547639 0.07317027
 0.07027268 0.06690699 0.06281731 0.05893404 0.05757492 0.06025029 0.06572165 0.07103246 0.07414803 0.07496835
 0.07416736 0.071925 0.06812876 0.06362327 0.06062465 0.0609983 0.06401738 0.0667752 0.06723492 0.06608722
 0.06525174 0.06546766 0.06601816 0.06622723 0.06642465 0.06739585 0.06927288 0.07124394 0.07234594 0.07233945
 0.07175232 0.07126309 0.07108243 0.07079889 0.06996539 0.06900129 0.0691328 0.07104212 0.07391977 0.07629402
 0.07750215 0.07792386 0.077994 0.07744984 0.07571487 0.07298115 0.07065705 0.07032307 0.07220048 0.07500837
 0.07729442 0.07848243 0.07874237 0.07846303 0.07798733 0.07750221 0.07709468 0.07698211 0.07745706 0.07846013
 0.07948865 0.08009738 0.08025882 0.08013459 0.079762 0.07912731 0.07839352 0.07789144 0.07787719 0.07834009
 0.07906209 0.07981549 0.08043119 0.080741 0.08063883 0.0802318 0.07978363 0.07947093 0.0793097 0.07931143
 0.0795451 0.07999774 0.08050089 0.08086595 0.08103254 0.08105108 0.08097995 0.08084302 0.08066141 0.08049618
 0.08044838 0.08058713 0.08086061 0.0811281 0.08132087 0.08151051 0.08175917 0.08197363 0.08200376 0.08184601
 0.08165748 0.0815825 0.08163442 0.08173905 0.08181995 0.08181056 0.08164082 0.08129941 0.08092359 0.08074919
 0.08092171 0.08139285 0.08200615 0.08260693 0.08306535 0.08330587 0.08336532 0.08335163 0.08331656 0.08322304
 0.08304536 0.08285344 0.08278554 0.08294703 0.08332051 0.08377124 0.08415149 0.08439051 0.08449861 0.08454612
 0.08463977 0.08483477 0.08504749 0.08513133 0.08506094 0.08497372 0.08500488 0.08513506 0.08522924 0.08519959
 0.08510363 0.08507966 0.08520016 0.08541092 0.08561316 0.08577438 0.08594154 0.08615666 0.08637206 0.08646607
 0.08636779 0.08615378 0.08597662 0.08590575 0.08589857 0.08592305 0.08602309 0.08622769 0.08646148 0.08660594
 0.08663093 0.08662035 0.08666235 0.086744 0.08677213 0.08668248 0.08650674 0.08633891 0.08625823 0.08628161
 0.08636384 0.08643103 0.08642803 0.08635111 0.08623993 0.08613747 0.08606204 0.08602363 0.08605708 0.08620575
 0.08644824 0.08665971 0.08668947 0.0864988 0.08621043 0.08600396 0.08595745 0.08599193 0.08596407 0.08580187
 0.08554973 0.08530197 0.08511586 0.08498766 0.08488703 0.08479881 0.08474304 0.08476566 0.08489039 0.08505879
 0.08513932 0.08503539 0.08478272 0.08451232 0.0843278 0.08424439 0.08422325 0.08422185 0.08422247 0.08424468
 0.08431405 0.08440076 0.08442545 0.0843509 0.08423431 0.08417144 0.08422363 0.08439619 0.08462973 0.0848062
 0.08482935 0.08472456 0.08461757 0.08460309 0.08467088 0.08476169 0.08484592 0.08492845 0.08501427 0.08510286
 0.0852086 0.08536182 0.08558077 0.08584483 0.08609742 0.08628252 0.08639161 0.08648039 0.08662977 0.08687875
 0.08719346 0.08750083 0.08775009 0.08794405 0.08811934 0.088303 0.08849557 0.08869714 0.08893041 0.08921654
 0.08953829 0.08985277 0.09013787 0.09040618 0.09067783 0.09095934 0.09125048 0.09156097 0.09191591 0.09233207
 0.09277517 0.09315623 0.093402 0.09353113 0.09364536 0.09384951 0.09417987 0.09457879 0.0949231 0.09511847
 0.09519894 0.09530405 0.09552705 0.09581892 0.09607903 0.09630522 0.09659623 0.09701134 0.09747887 0.09786126
 0.09808852 0.09821324 0.09834239 0.09852552 0.09871719 0.09885117 0.09893185 0.09902453 0.09916718 0.09934058
 0.0995363 0.09979942 0.1001645 0.1005837 0.1009617 0.1012454 0.1014474 0.1016016 0.1017284 0.101829
 0.1018908 0.1019097 0.1019197 0.1019722 0.102071 0.1021607 0.1022011 0.1022249 0.1022962 0.1024417
 0.1026509 0.1029136 0.1032151 0.1035133 0.1037744 0.1040303 0.1043488 0.1047237 0.1050449 0.1052147
 0.1052582 0.1052747 0.1053142 0.1053639 0.1054332 0.1055764 0.1058197 0.1061235 0.1064376 0.1067551
 0.1070952 0.1074551 0.1077935 0.1080489 0.1081757 0.1081806 0.1081302 0.1081189 0.1082196 0.1084497
 0.1087659 0.1090938 0.1093734 0.1095754 0.1096814 0.1096805 0.1096122 0.1095803 0.1096718 0.1098583
 0.1100067 0.1099944 0.1097895 0.109422 0.1089207 0.1083048 0.1076212 0.1069572 0.1064037 0.106012
 0.1057955 0.10577 0.105972 0.1064161 0.1070416 0.1077278 0.1083641 0.1088772 0.1091926 0.1092202
 0.1089183 0.1083496 0.1076452 0.1069238 0.1062527 0.1056457 0.1050701 0.1044907 0.1039516 0.1036079
 0.1036503 0.1041944 0.1052275 0.1066183 0.1081541 0.1096079 0.1108297 0.1118008 0.1126004 0.1133175
 0.1139958 0.1146512 0.1153036 0.1159613 0.1165894 0.117138 0.1176034 0.118029 0.1184468 0.1188452
 0.1191917 0.1194655 0.1196753 0.1198627 0.1200667 0.1202673 0.1203904 0.1203916 0.1203067 0.1201997
 0.1200864 0.1199268 0.1196709 0.1193008 0.1188586 0.1184632 0.1182912 0.1185068 0.119172 0.1202079
 0.1214496 0.1227468 0.1240074 0.1251565 0.1261048 0.1267937 0.1272509 0.1275694 0.1278382 0.1281063
 0.1283909 0.1286919 0.128998 0.1292949 0.1295772 0.1298555 0.130152 0.1304794 0.1308166 0.1311194
 0.1313671 0.1315967 0.1318765 0.1322395 0.1326463 0.1330225 0.133336 0.1336232 0.1339266 0.1342292
 0.1344784 0.1346627 0.1348314 0.1350423 0.1353202 0.1356593 0.1360271 0.1363673 0.1366325 0.1368277
 0.1370035 0.1372042 0.1374364 0.1376845 0.1379329 0.1381735 0.1384071 0.1386503 0.1389287 0.1392455
 0.1395585 0.1398068 0.1399701 0.1400927 0.1402402 0.140439 0.1406652 0.1408815 0.1410787 0.1412846
 0.1415378 0.1418437 0.1421579 0.1424194 0.142602 0.1427294 0.1428488 0.1429966 0.1431854 0.1434065
 0.1436379 0.1438564 0.1440527 0.1442386 0.1444363 0.1446565 0.144888 0.1451104 0.1453139 0.1455055
 0.1456995 0.1459056 0.146128 0.1463725 0.1466476 0.146947 0.1472374 0.1474777 0.1476541 0.1477887
 0.1479144 0.1480499 0.1482012 0.1483712 0.1485618 0.1487688 0.1489832 0.149197 0.1494053 0.1496058
 0.1497988 0.1499896 0.1501867 0.1503928 0.1506045 0.1508207 0.1510447 0.1512732 0.1514927 0.1516928
 0.1518785 0.1520651 0.1522628 0.1524681 0.1526685 0.1528551 0.153032 0.1532115 0.1534012 0.1535985
 0.1537966 0.1539927 0.1541894 0.1543898 0.1545919 0.1547903 0.1549822 0.1551718 0.1553662 0.155568
 0.1557723 0.1559709 0.1561622 0.1563532 0.15655 0.1567494 0.1569455 0.1571393 0.1573333 0.1575242
 0.157708 0.157888 0.1580719 0.1582642 0.1584652 0.1586718 0.1588784 0.1590814 0.1592824 0.1594857
 0.1596948 0.1599088 0.1601209 0.1603234 0.1605202 0.1607249 0.1609438 0.1611679 0.1613841 0.161588
 0.1617842 0.1619821 0.1621895 0.1624065 0.1626272 0.1628481 0.1630706 0.1632932 0.1635089 0.1637092
 0.1638911 0.1640604 0.1642292 0.1644044 0.1645837 0.1647639 0.1649456 0.165129 0.1653138 0.1655026
 0.1656974 0.1658946 0.1660898 0.1662844 0.1664821 0.1666843 0.1668898 0.1670944 0.167292 0.1674837
 0.1676781 0.1678811 0.1680888 0.1682948 0.168497 0.168699 0.1689072 0.169124 0.1693436 0.16956
 0.1697726 0.1699809 0.1701825 0.1703809 0.170584 0.1707947 0.171011 0.1712295 0.171443 0.171645
 0.1718403 0.172039 0.1722435 0.1724536 0.1726741 0.1729042 0.1731311 0.1733479 0.1735603 0.1737728
 0.1739827 0.1741882 0.1743899 0.1745913 0.1748008 0.1750205 0.1752391 0.1754495 0.1756611 0.1758798
 0.1760957 0.1763019 0.1765011 0.1766858 0.1768174 0.1767813 0.1762947 0.1748084 0.1714888 0.1653741
 0.155755 0.1426247 0.1268388 0.1098092 0.09298317 0.07746725 0.06391845 0.05262306 0.04363512 0.03687357
 0.03218868 0.02945473 0.02865788 0.02999623 0.03400737 0.04125732 0.05110538 0.0605964 0.06560631 0.06410339
 0.0580927 0.05178648 0.04810356 0.04726046 0.04802246 0.04932703 0.0508247 0.05269354 0.0552625 0.05863567
 0.06266405 0.06734088 0.07299896 0.07988285 0.08763503 0.09544457 0.1027404 0.1096347 0.1166505 0.1240861
 0.1316934 0.1389172 0.1453375 0.1508795 0.1557246 0.160113 0.1642109 0.1680948 0.1717992 0.1753173
 0.1785248 0.1811479 0.1828938 0.1836698 0.1836915 0.1833665 0.1830582 0.1829419 0.1830381 0.1833151
 0.1837409 0.1842899 0.1849447 0.1856897 0.1864968 0.1873302 0.1881619 0.1889724 0.189743 0.19046
 0.1911194 0.1917222 0.1922739 0.1927856 0.1932652 0.1937113 0.19412 0.1944922 0.194835 0.1951642
 0.1954989 0.1958419 0.1961721 0.1964655 0.1967175 0.196942 0.1971571 0.1973737 0.1975897 0.1977965
 0.1979914 0.1981812 0.1983738 0.1985727 0.1987784 0.1989882 0.1991967 0.1994008 0.1995997 0.1997904
 0.1999712 0.2001493 0.2003364 0.200535 0.2007375 0.2009352 0.2011248 0.2013069 0.201486 0.2016682
 0.2018592 0.202061 0.2022679 0.2024689 0.2026608 0.2028567 0.2030713 0.2033011 0.2035289 0.2037443
 0.2039503 0.2041547 0.2043645 0.2045809 0.2047943 0.2049878 0.2051542 0.2053064 0.2054712 0.2056706
 0.2059038 0.2061468 0.2063738 0.2065763 0.2067612 0.206938 0.2071126 0.207285 0.2074555 0.207638
 0.207854 0.2081018 0.2083532 0.2085896 0.20882 0.2090544 0.2092899 0.209527 0.2097656 0.2099816
 0.2101432 0.2102623 0.2104081 0.2106522 0.2109986 0.2113737 0.211695 0.2119435 0.2121597 0.2123894
 0.2126535 0.2129319 0.2131447 0.2132059 0.2131549 0.2131818 0.2134525 0.2139423 0.2144849 0.2149423
 0.2152877 0.2155639 0.2158144 0.2160443 0.2162165 0.2162922 0.216301 0.2163693 0.2166332 0.2170961
 0.2176118 0.2180361 0.2183422 0.2185714 0.2187557 0.2189144 0.2190213 0.218954 0.2186251 0.2182202
 0.2181505 0.2186535 0.2195266 0.2203469 0.2208881 0.2212294 0.2215194 0.221791 0.2220106 0.2221027
 0.2218485 0.2210159 0.2198129 0.2190112 0.2193088 0.2206271 0.222239 0.223493 0.2242247 0.2245997
 0.2248317 0.2250378 0.22515 0.2249264 0.2242217 0.2233406 0.2229578 0.223496 0.2246522 0.225724
 0.2263269 0.2265958 0.2268102 0.2270817 0.2272778 0.226978 0.2257111 0.2236504 0.2219633 0.2219858
 0.2239145 0.2265719 0.2285745 0.2295223 0.229886 0.2299873 0.2295287 0.228131 0.2258967 0.2233614
 0.2213402 0.2208339 0.2223668 0.2251382 0.2274712 0.2284691 0.2287711 0.2294707 0.2308046 0.2321431
 0.2328215 0.2326612 0.2318622 0.2306334 0.2290922 0.2276192 0.227063 0.2281299 0.2305242 0.2330652
 0.2347831 0.2356501 0.2360568 0.2356658 0.2331914 0.2279496 0.2217779 0.2185127 0.220596 0.2265198
 0.232446 0.235974 0.2374466 0.2381443 0.2385817 0.2383658 0.2364059 0.2314938 0.2241843 0.2180083
 0.2170903 0.2220611 0.229346 0.2345147 0.2353196 0.2319399 0.2261711 0.2208752 0.2188068 0.2209474
 0.2260912 0.2320388 0.2369101 0.2396483 0.2400094 0.2384631 0.2361544 0.2346243 0.2346966 0.2352534
 0.2340791 0.2306613 0.2270466 0.2248229 0.2226409 0.2186977 0.2147264 0.2148496 0.2202398 0.2271682
 0.2312022 0.2316953 0.2309588 0.2300182 0.2268085 0.2191225 0.2087975 0.2017611 0.2028512 0.2107989
 0.2193749 0.2234999 0.2232725 0.2220965 0.2221374 0.222129 0.2191653 0.2125112 0.2054921 0.2026822
 0.2050072 0.2089031 0.2105027 0.2086929 0.2036861 0.1957837 0.1876646 0.1851581 0.1922896 0.2063224
 0.2199312 0.2272356 0.2258845 0.2156779 0.1994516 0.1848878 0.1807546 0.189009 0.2024081 0.2111973
 0.2108248 0.2026575 0.1898264 0.1751733 0.1626483 0.1575877 0.1634724 0.1784592 0.1954833 0.2057079
 0.2033444 0.1902016 0.1762213 0.1722978 0.1802728 0.1916391 0.1971001 0.1950356 0.1900678 0.1871332
 0.1886691 0.1942597 0.2010522 0.2064132 0.210016 0.2107685 0.2039376 0.1868306 0.1663105 0.1542995
 0.1553959 0.1644427 0.1760616 0.1895144 0.2026072 0.2083331 0.202778 0.1925786 0.1893245 0.1972538
 0.2096112 0.216934 0.2164289 0.2125067 0.2099222 0.2086883 0.2064659 0.2040739 0.2056568 0.2129999
 0.2224319 0.2289186 0.2312794 0.2317491 0.2321659 0.2325713 0.2324864 0.2317451 0.2304159 0.2289144
 0.2278783 0.2274456 0.2271292 0.2265639 0.225457 0.2224161 0.2152576 0.2040732 0.1931906 0.1877477
 0.1882366 0.1908427 0.1931029 0.1953282 0.1953172 0.1869007 0.1681029 0.1477996 0.1392576 0.1473202
 0.1648028 0.180661 0.1884518 0.1868788 0.1764585 0.1596733 0.1436102 0.1377962 0.1464509 0.164419
 0.1826521 0.1960114 0.2039441 0.2061818 0.2016867 0.1916777 0.1809477 0.1751611 0.1773595 0.1865674
 0.1981646 0.2051561 0.2015671 0.1883159 0.1758676 0.1765835 0.1917914 0.2096439 0.2184397 0.2185075
 0.2176116 0.2188875 0.2192013 0.2175083 0.2183101 0.2254118 0.2362908 0.2445849 0.2456841 0.2385459
 0.225134 0.2109401 0.2035727 0.2066124 0.215477 0.2223668 0.2238095 0.2201978 0.2111688 0.1975782
 0.1864456 0.1867308 0.1989498 0.2139835 0.2234401 0.227292 0.2300904 0.2331264 0.2328888 0.2264293
 0.2163378 0.2091593 0.2089177 0.2135752 0.2184386 0.221109 0.2214866 0.2189294 0.2126599 0.2049713
 0.2012637 0.2053238 0.2153727 0.2257146 0.2318188 0.2331334 0.2317231 0.2295982 0.2273909 0.2245271
 0.2205291 0.2167218 0.2159979 0.2197324 0.225587 0.2299053 0.231906 0.2339565 0.2378561 0.2423624
 0.2447112 0.2436367 0.2405658 0.2383574 0.2390013 0.2420433 0.24493 0.2451895 0.2427837 0.240366
 0.2408405 0.2445995 0.2494723 0.253194 0.255247 0.2564023 0.2573983 0.2582938 0.2584233 0.2569052
 0.2538835 0.2512445 0.2512708 0.2543761 0.2587175 0.2621067 0.2637784 0.2642581 0.2641537 0.2635233
 0.2622393 0.2605661 0.2591638 0.2585673 0.2588031 0.2595268 0.2603766 0.2611341 0.2617057 0.2620953
 0.2623636 0.2625526 0.262674 0.2627598 0.2628472 0.2629021 0.2628526 0.2627331 0.2627073 0.2628872
 0.263187 0.2634122 0.2634355 0.2632107 0.2626753 0.2617645 0.2605238 0.2590983 0.2575696 0.2559038
 0.2541668 0.2527592 0.2523012 0.2531759 0.2551722 0.2576058 0.2597849 0.2613623 0.2623322 0.2628374
 0.2630359 0.2630677 0.2630354 0.2629757 0.2628657 0.2626709 0.2623871 0.2620412 0.2616669 0.2612919
 0.2609431 0.2606421 0.2603802 0.2601095 0.2597749 0.2593561 0.2588735 0.2583613 0.2578357 0.2572803
 0.256652 0.2559088 0.2550403 0.2540832 0.2531139 0.2522132 0.2514128 0.2506719 0.2499223 0.2491246
 0.2482577 0.2472778 0.2461527 0.2449515 0.2438437 0.242965 0.242298 0.2417049 0.2410505 0.2402743
 0.2393798 0.2384015 0.2373792 0.2363323 0.2352542 0.2341347 0.2329706 0.2317457 0.2304261 0.2289899
 0.2274489 0.2258375 0.2241963 0.2225573 0.2209117 0.2191805 0.2172295 0.2149157 0.2121189 0.208756
 0.2048064 0.2003407 0.1955212 0.1905614 0.1856662 0.1809939 0.1766621 0.1727728 0.1694213 0.1666864
 0.1646246 0.1632668 0.1626171 0.162664 0.1633942 0.1647827 0.166766 0.1692321 0.1720377 0.175024
 0.1780196 0.1808562 0.1834235 0.1857277 0.1878717 0.1899424 0.1919248 0.1937392 0.1953391 0.1967353
 0.1979431 0.1989541 0.1997678 0.2004213 0.2009726 0.2014632 0.2019019 0.2022808 0.2025982 0.2028617
 0.2030821 0.2032737 0.2034567 0.2036492 0.2038592 0.2040886 0.2043428 0.2046385 0.2050013 0.2054469
 0.2059583 0.2064961 0.2070412 0.2076109 0.208231 0.208912 0.2096609 0.2105033 0.2114757 0.2125968
 0.2138488 0.2151853 0.2165482 0.2178704 0.2190746 0.2200889 0.2208686 0.2213994 0.2216925 0.2217843
 0.221724 0.2215453 0.2212582 0.2208731 0.2204135 0.2198989 0.2193349 0.218724 0.2180743 0.217393
 0.216686 0.2159697 0.2152718 0.2146095 0.2139736 0.2133434 0.2127142 0.2120968 0.2114915 0.210884
 0.2102732 0.209681 0.2091232 0.2085869 0.2080446 0.2074721 0.2068417 0.2061191 0.2052867 0.2043594
 0.203362 0.202296 0.2011409 0.199881 0.1985178 0.1970622 0.1955274 0.1939326 0.1922977 0.1906229
 0.1888703 0.1869838 0.1849511 0.182851 0.1808201 0.1789615 0.1772911 0.1757624 0.174322 0.1729385
 0.1716011 0.1703079 0.1690597 0.1678627 0.1667291 0.1656646 0.1646606 0.1637068 0.1628096 0.1619917
 0.1612748 0.160661 0.1601276 0.1596483 0.1592188 0.1588553 0.1585768 0.158403 0.158353 0.1584167
 0.1585305 0.1586024 0.1585692 0.1584341 0.1582577 0.1581098 0.1580191 0.1579672 0.1579207 0.1578461
 0.1576972 0.1574029 0.1568707 0.1560106 0.1547871 0.1532509 0.1515057 0.1496605 0.1478309 0.1461438
 0.1447015 0.143554 0.1427016 0.1420901 0.1416169 0.1412006 0.1408499 0.140643 0.140645 0.1408389
 0.1411033 0.1412809 0.1413185 0.1413306 0.141496 0.1419131 0.1425556 0.1433114 0.1440506 0.1446905
 0.1452083 0.1455989 0.1458601 0.1460091 0.1460627 0.1460101 0.1458482 0.1456133 0.145347 0.1450638
 0.1447569 0.1443929 0.1439183 0.1433131 0.142611 0.1418483 0.1410372 0.140173 0.139209 0.1380762
 0.1368185 0.1356674 0.1349177 0.1347494 0.1351579 0.1359779 0.1369926 0.1380704 0.1391325 0.1399794
 0.1403546 0.1403324 0.1404989 0.1415295 0.1435499 0.1459981 0.1481279 0.1495555 0.1502916 0.1504316
 0.1500157 0.1490865 0.1476612 0.1456947 0.1432076 0.1403541 0.1372936 0.13415 0.131114 0.1283939
 0.1260836 0.1241956 0.1227291 0.1217249 0.1213138 0.1211253 0.1192603 0.1132818 0.1039825 0.09705196
 0.0982711 0.1069987 0.1166337 0.1215856 0.1217151 0.1200166 0.1185524 0.1176193 0.1170919 0.1171155
 0.1178441 0.1191537 0.1206454 0.1218845 0.1226787 0.1230661 0.1230148 0.1221557 0.1197392 0.1149309
 0.1074974 0.09835124 0.0892242 0.08167481 0.07640141 0.07327321 0.07167921 0.07087481 0.07034039 0.07003292
 0.07027973 0.07138802 0.07337926 0.07607388 0.07927409 0.08273169 0.0860461 0.08882362 0.09096409 0.09264451
 0.09401204 0.09502045 0.09556301 0.09563243 0.09531903 0.09473628 0.09398529 0.09313757 0.09219651 0.09110424
 0.08987074 0.08869585 0.08785707 0.08744754 0.08731921 0.08728994 0.08728868 0.08729654 0.08728149 0.08722748
 0.08715929 0.08713754 0.08725257 0.08756858 0.08803947 0.08851872 0.08886651 0.08903833 0.08908717 0.08905879
 0.08885994 0.08833414 0.08755042 0.08684041 0.08636753 0.08583222 0.08486176 0.08358608 0.08256891 0.08220548
 0.08238451 0.08270841 0.08285511 0.08272898 0.08246452 0.08236851 0.08269842 0.08335137 0.08386262 0.08384543
</values></Ydata></ScRf><Data_Parameters_AB><parameter name="DPF">1</parameter><parameter name="NPT">3497</parameter><parameter name="FXV">3996</parameter><parameter name="LXV">500</parameter><parameter name="CSF">1</parameter><parameter name="MXY">0.0260860491544008</parameter><parameter name="MNY">-0.124841302633286</parameter><parameter name="DAT">27/05/2022</parameter><parameter name="TIM">11:42:43.971 (GMT+2)</parameter><parameter name="DXU">WN</parameter></Data_Parameters_AB><AB__Qtest><MainReport name="Quality Test Report"><Header><Line><Legend>Test result ok/not ok [1/0]: </Legend><Value>0</Value></Line><Line><Legend>Method file: </Legend><Value>C:\Users\Public\Documents\Bruker\OPUS_8.2.28\QT\IRBT_v3_default.QT</Value></Line></Header><Matrix><Line><Legend></Legend><Legend>min</Legend><Legend>max</Legend><Legend>measured</Legend></Line><Line><Value>Absorption (X-Range 1):</Value><Value>0.400000</Value><Value>2.000000</Value><Value>0.113628</Value></Line><Line><Value>Noise (X-Range 4):</Value><Value></Value><Value>0.000300</Value><Value>0.000044</Value></Line><Line><Value>Signal/Noise (X-Range 2):</Value><Value>200.000000</Value><Value></Value><Value>35.687427</Value></Line><Line><Value>Signal/Noise (X-Range 3):</Value><Value>40.000000</Value><Value></Value><Value>24.379720</Value></Line><Line><Value>Water vapour (X-Range 5):</Value><Value></Value><Value>0.000300</Value><Value>0.000067</Value></Line><Line><Value>Signal/Water (X-Range 2):</Value><Value>100.000000</Value><Value></Value><Value>23.619544</Value></Line><Line><Value>Signal/Water (X-Range 3):</Value><Value>20.000000</Value><Value></Value><Value>16.135595</Value></Line><Line><Value>Fringes (X-Range 6):</Value><Value></Value><Value>0.000100</Value><Value>0.000052</Value></Line></Matrix></MainReport></AB__Qtest><Data_Parameters_ScSm><parameter name="DPF">1</parameter><parameter name="NPT">1814</parameter><parameter name="FXV">3996.33169228125</parameter><parameter name="LXV">499.541461535156</parameter><parameter name="CSF">1</parameter><parameter name="MXY">0.294927477836609</parameter><parameter name="MNY">0.0381907373666763</parameter><parameter name="DAT">27/05/2022</parameter><parameter name="TIM">11:42:43.971 (GMT+2)</parameter><parameter name="DXU">WN</parameter></Data_Parameters_ScSm><Data_Parameters_ScRf><parameter name="DPF">1</parameter><parameter name="NPT">1820</parameter><parameter name="FXV">4004.04661832813</parameter><parameter name="LXV">495.683998511719</parameter><parameter name="CSF">1</parameter><parameter name="MXY">0.264258056879044</parameter><parameter name="MNY">0.0286578796803951</parameter><parameter name="DAT">27/05/2022</parameter><parameter name="TIM">11:42:18.121 (GMT+2)</parameter><parameter name="DXU">WN</parameter></Data_Parameters_ScRf><Optic_Parameters_Rf><parameter name="APR">0</parameter><parameter name="APT">Open</parameter><parameter name="BMS">KBr</parameter><parameter name="DTC">RT-DLaTGS_IR-Biotyper [Microplate reader]</parameter><parameter name="HPF">0</parameter><parameter name="LPF">10.0</parameter><parameter name="LPV">4000</parameter><parameter name="PGR">0</parameter><parameter name="RCH">Module port</parameter><parameter name="RDX">0</parameter><parameter name="SRC">MIR</parameter><parameter name="VEL">10.0</parameter><parameter name="SON">Off</parameter></Optic_Parameters_Rf><Acquisition_Parameters_Rf><parameter name="ADT">1</parameter><parameter name="AQM">DD</parameter><parameter name="CFE">0</parameter><parameter name="COR">0</parameter><parameter name="DEL">0</parameter><parameter name="DLY">0</parameter><parameter name="HFW">8000</parameter><parameter name="LFW">0</parameter><parameter name="NSR">32</parameter><parameter name="PLF">AB</parameter><parameter name="RES">6</parameter><parameter name="RGN">-1</parameter><parameter name="STR">0</parameter><parameter name="TCL">MakeCompatibleScalar (0, {WSV=1.000000, ARV=0});</parameter><parameter name="TDL">37</parameter><parameter name="RPO">0</parameter></Acquisition_Parameters_Rf><FT_-_Parameters_Rf><parameter name="APF">B3</parameter><parameter name="HFQ">500</parameter><parameter name="LFQ">4000</parameter><parameter name="NLI">0</parameter><parameter name="PHR">24</parameter><parameter name="PHZ">ML</parameter><parameter name="SPZ">NO</parameter><parameter name="ZFF">1</parameter></FT_-_Parameters_Rf><Optic_Parameters_><parameter name="APR">0</parameter><parameter name="APT">Open</parameter><parameter name="BMS">KBr</parameter><parameter name="CHN">Module port</parameter><parameter name="DTC">RT-DLaTGS_IR-Biotyper [Microplate reader]</parameter><parameter name="HPF">0</parameter><parameter name="LPF">10.0</parameter><parameter name="LPV">4000</parameter><parameter name="PGN">0</parameter><parameter name="RDX">0</parameter><parameter name="SRC">MIR</parameter><parameter name="VEL">10.0</parameter><parameter name="SON">Off</parameter></Optic_Parameters_><FT_-_Parameters_><parameter name="APF">B3</parameter><parameter name="HFQ">500</parameter><parameter name="LFQ">4000</parameter><parameter name="NLI">0</parameter><parameter name="PHR">24</parameter><parameter name="PHZ">ML</parameter><parameter name="SPZ">NO</parameter><parameter name="ZFF">1</parameter></FT_-_Parameters_><Acquisition_Parameters_><parameter name="ADT">1</parameter><parameter name="AQM">DD</parameter><parameter name="CFE">0</parameter><parameter name="COR">0</parameter><parameter name="DEL">0</parameter><parameter name="DLY">0</parameter><parameter name="HFW">8000</parameter><parameter name="LFW">0</parameter><parameter name="NSS">32</parameter><parameter name="PLF">AB</parameter><parameter name="RES">6</parameter><parameter name="SOT">0</parameter><parameter name="TCL">MakeCompatibleScalar (0, {WSV=1.000000, ARV=0});</parameter><parameter name="TDL">37</parameter><parameter name="SPO">0</parameter><parameter name="SGN">-1</parameter></Acquisition_Parameters_><Instrument_Parameters_Rf><parameter name="HFL">15800.168544</parameter><parameter name="LFL">0</parameter><parameter name="LWN">15800.168544</parameter><parameter name="ABP">32197</parameter><parameter name="SSP">1</parameter><parameter name="ARG">2</parameter><parameter name="ASG">2</parameter><parameter name="ASS">32</parameter><parameter name="GFW">16</parameter><parameter name="GBW">16</parameter><parameter name="BFW">0</parameter><parameter name="BBW">0</parameter><parameter name="PKA">7262</parameter><parameter name="PKL">4996</parameter><parameter name="PRA">7447</parameter><parameter name="PRL">5001</parameter><parameter name="P2A">1</parameter><parameter name="P2L">1</parameter><parameter name="P2R">1</parameter><parameter name="P2K">1</parameter><parameter name="DAQ">0</parameter><parameter name="AG2">1</parameter><parameter name="SSM">1</parameter><parameter name="RSN">24880</parameter><parameter name="CRR">0</parameter><parameter name="SRT">1653651738.122</parameter><parameter name="DUR">19.635986328125</parameter><parameter name="TSC">27.8</parameter><parameter name="MVD">0.350091606378555</parameter><parameter name="AN1">0.225803096924647</parameter><parameter name="AN2">0</parameter><parameter name="VSN">2.485 Apr  4 2017</parameter><parameter name="SRN">0085</parameter><parameter name="CAM">0</parameter><parameter name="INS">IR-Biotyper</parameter><parameter name="FOC">69</parameter><parameter name="RDY">1</parameter><parameter name="ARS">32</parameter></Instrument_Parameters_Rf><Sample_Parameters_><parameter name="BLD"></parameter><parameter name="CNM">Admin</parameter><parameter name="CPY"></parameter><parameter name="DPM"></parameter><parameter name="EXP">IRBT_v3_32Scans.XPM</parameter><parameter name="LCT"></parameter><parameter name="SFM">Microplate, HTS-XT</parameter><parameter name="SNM">220527-1039(v.2)_CLA33F (D_3)_H5_261456e7-3634-4ff9-9534-531d653fb1e0.0</parameter><parameter name="XPP">C:\Users\Public\Documents\Bruker\OPUS_8.2.28\XPM</parameter><parameter name="IST">OK</parameter><parameter name="CPG">1252</parameter><parameter name="UID">04e4deb5-a05b-4b9d-a222-c807ed20c15b</parameter></Sample_Parameters_><Instrument_Parameters_><parameter name="HFL">15800.168544</parameter><parameter name="LFL">0</parameter><parameter name="LWN">15800.168544</parameter><parameter name="ABP">32197</parameter><parameter name="SSP">1</parameter><parameter name="ASG">2</parameter><parameter name="ARG">2</parameter><parameter name="ASS">32</parameter><parameter name="GFW">16</parameter><parameter name="GBW">16</parameter><parameter name="BFW">0</parameter><parameter name="BBW">0</parameter><parameter name="PKA">8542</parameter><parameter name="PKL">4988</parameter><parameter name="PRA">8829</parameter><parameter name="PRL">4993</parameter><parameter name="P2A">1</parameter><parameter name="P2L">1</parameter><parameter name="P2R">1</parameter><parameter name="P2K">1</parameter><parameter name="DAQ">0</parameter><parameter name="AG2">1</parameter><parameter name="SSM">1</parameter><parameter name="RSN">13066</parameter><parameter name="CRR">0</parameter><parameter name="SRT">1653651763.972</parameter><parameter name="DUR">19.6349945068359</parameter><parameter name="TSC">27.8</parameter><parameter name="MVD">0.277788668870926</parameter><parameter name="AN1">0.225814594690478</parameter><parameter name="AN2">0</parameter><parameter name="VSN">2.485 Apr  4 2017</parameter><parameter name="SRN">0085</parameter><parameter name="CAM">0</parameter><parameter name="INS">IR-Biotyper</parameter><parameter name="FOC">69</parameter><parameter name="RDY">1</parameter></Instrument_Parameters_><History/></OPUSDataFile>
