<?xml version="1.0" encoding="UTF-8" ?>
<OPUSDataFile><AB><Ydata ylabel="Absorbance Units"><values byteorder="INTEL" format="FLOAT32" numvalues="3497"> -0.0737692 -0.07377627 -0.0737859 -0.07379892 -0.07380302 -0.07379754 -0.07377347 -0.07373139 -0.07367562 -0.07360841
 -0.07354512 -0.07348714 -0.07344835 -0.07342649 -0.07342388 -0.0734362 -0.07345765 -0.0734851 -0.07351277 -0.07353926
 -0.07356223 -0.07357953 -0.07358936 -0.07359109 -0.07358287 -0.07357041 -0.0735539 -0.07354283 -0.07353894 -0.07354651
 -0.07356664 -0.07359377 -0.07362764 -0.07365716 -0.07368186 -0.07369271 -0.07369045 -0.07367415 -0.07364604 -0.07361326
 -0.07357793 -0.07354902 -0.07352618 -0.07351376 -0.07350801 -0.07350684 -0.07350576 -0.07350016 -0.07348882 -0.0734691
 -0.07344406 -0.07341404 -0.07338239 -0.07335016 -0.07331837 -0.073287 -0.07325876 -0.07323351 -0.07321911 -0.07321601
 -0.07323383 -0.07327244 -0.0733336 -0.07341483 -0.07350288 -0.0735943 -0.07366866 -0.07372648 -0.07375704 -0.07376694
 -0.07376165 -0.07374833 -0.07373911 -0.07373251 -0.07373338 -0.0737318 -0.07372303 -0.07370241 -0.07366493 -0.07361896
 -0.07356479 -0.07351419 -0.0734693 -0.07343567 -0.0734139 -0.07340926 -0.07342204 -0.07346024 -0.07352361 -0.07361254
 -0.0737232 -0.07383365 -0.07393798 -0.07399996 -0.07402334 -0.07399476 -0.07393115 -0.07385544 -0.07377838 -0.0737251
 -0.07368834 -0.07367378 -0.07366189 -0.07364318 -0.07360511 -0.07353614 -0.07345151 -0.07334918 -0.07326388 -0.07320156
 -0.07318211 -0.07321022 -0.07326793 -0.07335458 -0.07343067 -0.07349568 -0.07353301 -0.07354744 -0.07356034 -0.07357642
 -0.07362688 -0.07370718 -0.07382587 -0.07396705 -0.07410919 -0.07423668 -0.07431971 -0.07435975 -0.07434533 -0.07429124
 -0.07420102 -0.07409224 -0.0739703 -0.07385512 -0.07375164 -0.07367844 -0.07363992 -0.07364348 -0.07369226 -0.07376593
 -0.07386392 -0.07391395 -0.07391354 -0.07380599 -0.07360455 -0.07336726 -0.07310623 -0.07290028 -0.072745 -0.07267009
 -0.07266355 -0.07272317 -0.0728255 -0.07294638 -0.07305579 -0.0731169 -0.07312742 -0.07306584 -0.07297638 -0.07287024
 -0.07278501 -0.07273903 -0.07271668 -0.07272008 -0.07271688 -0.0727023 -0.07267613 -0.07263783 -0.07261406 -0.07260567
 -0.07263074 -0.07268629 -0.07276373 -0.07285647 -0.07293578 -0.0729962 -0.07300704 -0.07297317 -0.07288446 -0.07276002
 -0.07261702 -0.07247505 -0.07235806 -0.07226972 -0.07222095 -0.07220134 -0.07221016 -0.07223477 -0.07227178 -0.07231326
 -0.07235798 -0.07239766 -0.07243215 -0.07244468 -0.07243427 -0.07238497 -0.07229726 -0.07217646 -0.07202587 -0.07186995
 -0.07171115 -0.07157189 -0.07145204 -0.07136291 -0.07130235 -0.07127323 -0.07126942 -0.07128736 -0.07131409 -0.07133918
 -0.07134903 -0.07133076 -0.07128552 -0.07120729 -0.07111522 -0.07101184 -0.0709189 -0.07084138 -0.07078655 -0.07075647
 -0.07074468 -0.07075098 -0.07076422 -0.07078365 -0.07079616 -0.07080136 -0.07078881 -0.07076108 -0.07072124 -0.07067512
 -0.07063963 -0.07061771 -0.0706247 -0.07065429 -0.07070699 -0.07077008 -0.07083094 -0.07088769 -0.07093113 -0.07097978
 -0.07103878 -0.07112303 -0.07124303 -0.07137726 -0.07152755 -0.07164591 -0.07172691 -0.07174312 -0.07169228 -0.07156894
 -0.07137394 -0.0711178 -0.07080723 -0.07049282 -0.07018243 -0.0699367 -0.06975296 -0.0696587 -0.06963878 -0.06968443
 -0.06976803 -0.06985171 -0.0699177 -0.06993179 -0.06990781 -0.06984199 -0.06975795 -0.06966546 -0.06957559 -0.06949506
 -0.06941891 -0.06934864 -0.06926896 -0.06917802 -0.06906841 -0.06893918 -0.06880335 -0.06866226 -0.06854115 -0.06844042
 -0.06837744 -0.06834644 -0.06833675 -0.06833605 -0.06830318 -0.06823893 -0.06811917 -0.06796705 -0.06780351 -0.06764216
 -0.06750659 -0.06738738 -0.06728774 -0.06718948 -0.06708545 -0.0669655 -0.06682338 -0.06666531 -0.06649034 -0.06631279
 -0.06613471 -0.06596029 -0.06579033 -0.06560699 -0.06540932 -0.06517639 -0.06491216 -0.06463463 -0.0643502 -0.0640976
 -0.06387354 -0.06368931 -0.06353849 -0.0634148 -0.06331302 -0.06322808 -0.06314469 -0.06305256 -0.06292574 -0.0627435
 -0.06249868 -0.06217922 -0.06180348 -0.0613751 -0.06090374 -0.06039107 -0.05984595 -0.05926751 -0.05868577 -0.05810254
 -0.05754475 -0.05701302 -0.05651582 -0.05605264 -0.05562493 -0.05523053 -0.05486353 -0.05451782 -0.05417364 -0.05382736
 -0.05346202 -0.05307984 -0.05268016 -0.0522557 -0.05180314 -0.05130608 -0.05074595 -0.05014124 -0.04948815 -0.0488341
 -0.04819581 -0.04758328 -0.0470039 -0.04643839 -0.04588537 -0.04532972 -0.04477019 -0.04420179 -0.04362473 -0.0430451
 -0.04246402 -0.04189531 -0.04133534 -0.04078026 -0.04021735 -0.03960581 -0.03894668 -0.03821202 -0.03743712 -0.03665876
 -0.03589745 -0.03519334 -0.03452529 -0.03389449 -0.03327054 -0.03263887 -0.03198821 -0.03130895 -0.03061604 -0.02991037
 -0.02920825 -0.02851362 -0.02781562 -0.02711438 -0.02637742 -0.02560406 -0.02478324 -0.02391985 -0.02304714 -0.02216889
 -0.02132101 -0.02049871 -0.01970681 -0.01894028 -0.01819168 -0.01745866 -0.01673702 -0.01602016 -0.01530055 -0.01457435
 -0.01383523 -0.01308867 -0.01233914 -0.01157596 -0.01080194 -0.009981545 -0.00910503 -0.008169948 -0.007168709 -0.006172678
 -0.005186032 -0.004274042 -0.003437105 -0.002662854 -0.001945734 -0.001236273 -0.0005325843 0.0002007846 0.0009592246 0.001750027
 0.002563583 0.003384484 0.004207424 0.005015006 0.005817599 0.006615289 0.007428438 0.008272782 0.009151092 0.0100738
 0.01101612 0.01197388 0.01292314 0.01385771 0.0147691 0.01565499 0.01651673 0.01735381 0.01818187 0.01900192
 0.01983575 0.02068264 0.02154734 0.0224266 0.02330751 0.02418991 0.02506592 0.02593892 0.02681282 0.02768763
 0.02856648 0.0294443 0.03031746 0.03118227 0.03203395 0.03287572 0.03370687 0.03453475 0.03536244 0.03618965
 0.03701803 0.03783778 0.03864716 0.03944616 0.04023404 0.04103022 0.04183551 0.0426648 0.04351636 0.044382
 0.04525978 0.04613634 0.04701233 0.04788418 0.04875008 0.04960563 0.05044727 0.05126682 0.05206659 0.05284477
 0.05360747 0.05435812 0.0551009 0.05583698 0.05657463 0.05731519 0.05807116 0.05884625 0.0596418 0.06045971
 0.06128615 0.06212043 0.06294643 0.06376348 0.06456126 0.06534041 0.06610063 0.06684454 0.06758411 0.06832043
 0.06906495 0.06981237 0.07055823 0.07129616 0.0720135 0.07271277 0.07339031 0.07405464 0.07471023 0.07536334
 0.07601809 0.07667688 0.07734247 0.07800958 0.07867873 0.07933766 0.07998416 0.08061651 0.08123376 0.08185326
 0.0824758 0.0831162 0.08377352 0.08444551 0.08513099 0.08582348 0.08652257 0.08722547 0.08792828 0.08862277
 0.08930366 0.08995908 0.09058943 0.09119001 0.09176526 0.0923165 0.09284806 0.09336091 0.09386308 0.09435613
 0.09485082 0.09534958 0.09585912 0.09638084 0.09691631 0.09746598 0.09802473 0.098592 0.09915151 0.09970303
 0.1002353 0.1007526 0.1012696 0.1017899 0.1023361 0.1029004 0.1034801 0.1040608 0.1046193 0.1051495
 0.1056349 0.1060821 0.1064884 0.1068691 0.1072283 0.1075864 0.1079508 0.1083331 0.1087394 0.1091592
 0.1095933 0.1100197 0.1104365 0.1108337 0.111211 0.1115765 0.1119317 0.1122941 0.1126645 0.1130575
 0.1134687 0.1138953 0.1143269 0.1147406 0.1151315 0.1154787 0.1157932 0.1160758 0.1163451 0.1166155
 0.1168944 0.1171915 0.1174979 0.1178139 0.1181251 0.1184278 0.1187169 0.1189902 0.1192553 0.1195128
 0.1197666 0.1200166 0.1202469 0.1204562 0.1206241 0.1207534 0.1208453 0.1209068 0.1209591 0.1210076
 0.1210733 0.1211577 0.121273 0.1214154 0.1215882 0.1217795 0.1219822 0.1221875 0.1223849 0.1225887
 0.1227991 0.1230403 0.1233218 0.1236316 0.1239742 0.1242892 0.1245724 0.1247684 0.1248756 0.1249001
 0.1248474 0.1247745 0.1246834 0.1246171 0.1245679 0.1245321 0.1245069 0.1244793 0.1244629 0.124473
 0.1245182 0.1246215 0.1247571 0.1249197 0.1250681 0.1251764 0.1252396 0.1252431 0.1252262 0.1251936
 0.1251836 0.125205 0.1252575 0.1253435 0.1254271 0.1255064 0.1255367 0.1255181 0.1254315 0.1252854
 0.1251089 0.1249167 0.1247712 0.1246775 0.124683 0.124768 0.1249312 0.1251331 0.1253344 0.125504
 0.1256018 0.1256353 0.1255908 0.1255106 0.1254041 0.1253115 0.1252441 0.1252183 0.1252371 0.1253154
 0.1254538 0.1256834 0.1260056 0.1264317 0.1269553 0.1275186 0.1281053 0.1286002 0.1289961 0.129199
 0.1292351 0.1291014 0.1288569 0.1285842 0.1283356 0.128206 0.128189 0.128326 0.1285392 0.1288117
 0.1290446 0.1291998 0.1292239 0.12909 0.1288264 0.1284262 0.1279841 0.1275062 0.1270859 0.1267273
 0.1264538 0.1262607 0.1261052 0.1259848 0.1258606 0.1257418 0.1256385 0.1255582 0.1255299 0.1255359
 0.1255714 0.1255925 0.1255539 0.1254179 0.1251354 0.1247175 0.1241445 0.1234833 0.1227455 0.1220114
 0.1213017 0.1206621 0.120104 0.1196309 0.1192452 0.1189236 0.1186647 0.118421 0.1181891 0.1179132
 0.1175965 0.1172228 0.116807 0.1163907 0.1159804 0.1156191 0.1152852 0.1149676 0.114637 0.1142504
 0.1138145 0.1133089 0.1127859 0.1122609 0.1117931 0.1114098 0.1111274 0.1109632 0.1108685 0.1108448
 0.1107996 0.1107253 0.110549 0.1102673 0.1098812 0.1093965 0.1088752 0.1083229 0.107802 0.1073099
 0.106872 0.1064818 0.1061378 0.1058334 0.1055596 0.1053068 0.1050627 0.1048158 0.1045531 0.1042702
 0.1039592 0.1036288 0.1032786 0.1029235 0.1025675 0.102217 0.1018752 0.1015287 0.1011775 0.1007926
 0.1003725 0.099894 0.09935821 0.09876854 0.09813045 0.09747405 0.09680592 0.09616432 0.09555145 0.09499318
 0.09448291 0.09402503 0.0936029 0.09320275 0.09280436 0.09238746 0.09194337 0.09145839 0.09094635 0.09040646
 0.08986337 0.08932375 0.08879769 0.08828931 0.08778843 0.08729471 0.0867957 0.0862908 0.08577857 0.08525959
 0.08473989 0.08422045 0.08370971 0.08320845 0.08272495 0.0822567 0.08180363 0.08135913 0.08091204 0.08045993
 0.07999258 0.0795204 0.07904422 0.07858554 0.07815311 0.0777712 0.0774515 0.07720295 0.07703649 0.07691614
 0.07684497 0.07673613 0.07658307 0.07630391 0.07589427 0.07535134 0.07468246 0.07397496 0.07324018 0.0725904
 0.0720235 0.07160024 0.07129307 0.07107711 0.07090779 0.07070164 0.0704351 0.07003654 0.06954291 0.06894731
 0.06832685 0.0677238 0.06717498 0.06671409 0.06630243 0.0659377 0.06557892 0.06521228 0.06487135 0.06455527
 0.06433815 0.06422389 0.06422485 0.06433362 0.06446191 0.06459688 0.06461537 0.06451984 0.0642456 0.06382081
 0.06327324 0.06264102 0.06200079 0.06136679 0.06079151 0.06025346 0.05975247 0.05926872 0.05878302 0.05831691
 0.0578707 0.05747868 0.05715639 0.05688474 0.05666851 0.05644225 0.05619883 0.05591103 0.05557704 0.0552451
 0.05491862 0.05465772 0.05445736 0.05432052 0.05423482 0.0541572 0.05408183 0.05397166 0.05383196 0.05365408
 0.05344701 0.05321936 0.05297241 0.05271471 0.05242939 0.05211335 0.05173961 0.05129363 0.05077593 0.05017476
 0.0495473 0.04889641 0.04830231 0.04777513 0.04733993 0.04699874 0.04668923 0.04640615 0.0460605 0.0456561
 0.04516521 0.04460692 0.04403387 0.04346328 0.04296728 0.04254 0.04220992 0.04194927 0.04173946 0.04155156
 0.04135566 0.04113864 0.04088233 0.04059501 0.04027155 0.03994006 0.0396047 0.0392969 0.03902528 0.03878706
 0.03858592 0.03837074 0.03813882 0.03784261 0.03748422 0.03708285 0.03664696 0.03624247 0.03586609 0.0355464
 0.0352625 0.034976 0.03467608 0.03431872 0.03392618 0.03350241 0.03308287 0.03269991 0.03236724 0.03210471
 0.03190148 0.03175804 0.0316627 0.03161189 0.03160232 0.03163387 0.031699 0.03179865 0.03190529 0.03201757
 0.03208503 0.03210504 0.032028 0.0318573 0.03158436 0.03122351 0.03082046 0.0303918 0.03000209 0.02965613
 0.02939393 0.02920508 0.02909518 0.02904634 0.02904679 0.02908106 0.02913643 0.02920849 0.02929151 0.02939067
 0.02950676 0.02964153 0.02979564 0.02996687 0.03015355 0.03037359 0.03062767 0.03096448 0.03138613 0.0319351
 0.03260619 0.03339073 0.03427611 0.0352109 0.03618629 0.03715359 0.03811366 0.03904572 0.03995495 0.04083858
 0.04170413 0.0425543 0.04340303 0.04425683 0.0451324 0.04603972 0.04697948 0.04795911 0.04894708 0.04994383
 0.05089074 0.0517832 0.05256196 0.05322311 0.05373574 0.05410049 0.05432366 0.05440893 0.05438184 0.05424655
 0.05402808 0.05373695 0.05340416 0.05305636 0.05274757 0.05251171 0.05241268 0.05246289 0.05270018 0.0531032
 0.05367273 0.05437886 0.05520917 0.05614894 0.05719321 0.05832945 0.05955808 0.06084763 0.06219659 0.06356145
 0.06493971 0.06628647 0.06759866 0.0688241 0.06995849 0.07094634 0.07178749 0.07244956 0.07293969 0.07326023
 0.07341626 0.07342251 0.07326789 0.07295226 0.07244294 0.07171924 0.07073634 0.06946191 0.06787281 0.06593991
 0.06370956 0.06117075 0.05845759 0.05558019 0.05271626 0.04988392 0.04722575 0.04475226 0.04251749 0.0405198
 0.03873241 0.03714903 0.03571512 0.03442775 0.03324878 0.03217493 0.03118288 0.03026076 0.02937844 0.0285243
 0.02766676 0.026817 0.02596751 0.02515148 0.02438614 0.02369445 0.02309348 0.02257693 0.02214755 0.02179028
 0.02150137 0.02128127 0.02112848 0.02105919 0.02107428 0.02119118 0.02140914 0.02172031 0.02211503 0.02252798
 0.02294045 0.02324092 0.02342361 0.02340515 0.0232186 0.02287232 0.02243074 0.02197313 0.02155562 0.02125632
 0.02109212 0.02110008 0.02125864 0.02157189 0.02200026 0.02253632 0.02314017 0.02380632 0.02449298 0.02519941
 0.02584983 0.02644125 0.02682666 0.02699563 0.02675369 0.02609854 0.02490363 0.02320546 0.02106242 0.01855413
 0.01590962 0.01320458 0.01068928 0.008373602 0.00638589 0.004661175 0.003193726 0.001901046 0.0007287206 -0.0003620451
 -0.001404413 -0.002392118 -0.003330246 -0.004204537 -0.005012046 -0.005750461 -0.006418574 -0.00702287 -0.007563532 -0.008052627
 -0.008491041 -0.008894968 -0.009265408 -0.009617189 -0.009950775 -0.01027616 -0.01059284 -0.01090524 -0.01121103 -0.01150809
 -0.0117944 -0.01206452 -0.01232352 -0.01257175 -0.01282073 -0.01307868 -0.01334883 -0.01363876 -0.01393011 -0.01422214
 -0.01448504 -0.01471198 -0.01489162 -0.01501939 -0.01511889 -0.01519093 -0.01527468 -0.0153711 -0.01549621 -0.01564664
 -0.01580412 -0.01596696 -0.01611535 -0.01625716 -0.01640257 -0.01656122 -0.01675981 -0.0169922 -0.01726684 -0.01755967
 -0.01785393 -0.01812666 -0.01835687 -0.01854058 -0.0186677 -0.01875468 -0.01880082 -0.01883702 -0.01886713 -0.01892494
 -0.01901556 -0.01915285 -0.01933879 -0.0195535 -0.01979529 -0.02002884 -0.02025392 -0.02045194 -0.02062596 -0.02077954
 -0.02091436 -0.02103721 -0.02114718 -0.02124447 -0.02133114 -0.0214088 -0.02148255 -0.02155917 -0.02163648 -0.02171785
 -0.02179037 -0.02184881 -0.02188633 -0.02189592 -0.02189553 -0.02188496 -0.02189625 -0.02193404 -0.02201073 -0.02212827
 -0.02226542 -0.02242072 -0.02256311 -0.02269327 -0.02280097 -0.02289053 -0.0229751 -0.02305747 -0.02315385 -0.02326048
 -0.02337991 -0.02350236 -0.0236164 -0.02371385 -0.02378029 -0.02382148 -0.02383249 -0.02383557 -0.02383734 -0.02386084
 -0.02391596 -0.02400652 -0.02413715 -0.0242915 -0.02446888 -0.02464891 -0.02483004 -0.02500127 -0.02516237 -0.02531193
 -0.02545021 -0.02557847 -0.02569681 -0.02580586 -0.02590635 -0.02600028 -0.02608925 -0.02617749 -0.02626537 -0.02635563
 -0.02644641 -0.02653654 -0.02662583 -0.02671253 -0.02680146 -0.02689395 -0.02699498 -0.02710725 -0.02722875 -0.02736038
 -0.02749424 -0.02762972 -0.02775875 -0.02788071 -0.02798999 -0.02808634 -0.02816651 -0.02823069 -0.02827862 -0.02831103
 -0.0283302 -0.02833816 -0.02834052 -0.02834185 -0.02835271 -0.02837849 -0.02843179 -0.02851234 -0.02862664 -0.02876525
 -0.02892546 -0.02909474 -0.02926676 -0.02943478 -0.02959515 -0.02974698 -0.02988956 -0.0300229 -0.03014699 -0.03026101
 -0.03036482 -0.03046026 -0.03054753 -0.03063205 -0.03071405 -0.03079848 -0.03088449 -0.03097114 -0.03105712 -0.03113736
 -0.03121301 -0.03128272 -0.03135115 -0.03142425 -0.03150487 -0.03159959 -0.03170363 -0.03181714 -0.03193104 -0.03204055
 -0.03214307 -0.0322352 -0.03232501 -0.0324133 -0.03250818 -0.03261158 -0.0327201 -0.03283391 -0.03294191 -0.03304371
 -0.03313361 -0.0332126 -0.03328664 -0.03335708 -0.03343359 -0.03351576 -0.03360804 -0.03370807 -0.03381376 -0.03392193
 -0.03402766 -0.03412798 -0.03421773 -0.03429735 -0.034364 -0.03442455 -0.0344804 -0.03454075 -0.03460957 -0.03468814
 -0.03477886 -0.03487139 -0.03496506 -0.03504797 -0.03511885 -0.03517764 -0.03522467 -0.03527166 -0.03531917 -0.03537775
 -0.03544591 -0.03552264 -0.03560531 -0.03568511 -0.03576159 -0.0358286 -0.03588951 -0.03594596 -0.03600224 -0.03606367
 -0.03613106 -0.03620778 -0.03628889 -0.03637378 -0.03645526 -0.03653084 -0.03659682 -0.03665139 -0.03669701 -0.03673337
 -0.03676665 -0.03679721 -0.03683171 -0.0368705 -0.0369189 -0.03697687 -0.03704656 -0.03712684 -0.03721415 -0.03730635
 -0.03739528 -0.03747977 -0.03755278 -0.03761634 -0.03766979 -0.03771696 -0.03776167 -0.03780551 -0.03785126 -0.03789741
 -0.03794356 -0.03798984 -0.03803555 -0.03808438 -0.03813716 -0.03819547 -0.03826013 -0.0383267 -0.03839495 -0.03845999
 -0.03852166 -0.03857998 -0.03863505 -0.03868813 -0.03873876 -0.0387849 -0.03882668 -0.03886255 -0.03889479 -0.03892717
 -0.03896213 -0.03900561 -0.03905637 -0.03911625 -0.03918067 -0.03924718 -0.0393122 -0.03937301 -0.03942964 -0.03948117
 -0.03952993 -0.03957618 -0.0396223 -0.03966871 -0.03971628 -0.03976525 -0.03981338 -0.0398605 -0.03990189 -0.03993766
 -0.03996637 -0.03998956 -0.04001388 -0.04004098 -0.04008019 -0.04013019 -0.04019361 -0.04026634 -0.0403435 -0.04042236
 -0.04049785 -0.04057042 -0.04063872 -0.04070408 -0.04076704 -0.04082753 -0.04088586 -0.0409407 -0.04099163 -0.04103872
 -0.04108144 -0.04112439 -0.04116767 -0.04121976 -0.04128101 -0.04135553 -0.04144236 -0.041534 -0.04162885 -0.04171436
 -0.04179124 -0.04185437 -0.04190696 -0.04195347 -0.04199599 -0.04204006 -0.04208469 -0.04213108 -0.04217744 -0.04222252
 -0.04226631 -0.04230799 -0.04234985 -0.04239222 -0.04243791 -0.04248764 -0.0425429 -0.04260428 -0.04267015 -0.04274064
 -0.04281029 -0.0428788 -0.0429384 -0.04298916 -0.04302792 -0.04305641 -0.04308146 -0.04310506 -0.04313794 -0.04317889
 -0.04323111 -0.04329124 -0.04335501 -0.04342192 -0.04348948 -0.04355918 -0.0436327 -0.04370645 -0.04378045 -0.04384648
 -0.04390118 -0.04394231 -0.0439674 -0.04398484 -0.04399503 -0.04400861 -0.04402667 -0.04405366 -0.04408977 -0.04413326
 -0.04418385 -0.04423822 -0.04429622 -0.04435552 -0.04441588 -0.0444755 -0.04453382 -0.0445887 -0.04463993 -0.04468598
 -0.04472779 -0.04476541 -0.04480069 -0.04483462 -0.04486963 -0.04490672 -0.044949 -0.04499792 -0.04505427 -0.04511953
 -0.04518731 -0.04525755 -0.04531935 -0.04537161 -0.04540987 -0.04543404 -0.04545156 -0.04546326 -0.04548097 -0.04550432
 -0.04553829 -0.04558058 -0.04562666 -0.04567412 -0.04571507 -0.04574962 -0.04577365 -0.04579065 -0.04580237 -0.04581284
 -0.04582602 -0.04584243 -0.04586406 -0.04588766 -0.04591256 -0.045936 -0.04595668 -0.04597628 -0.04599449 -0.04601617
 -0.04604178 -0.04607349 -0.04611135 -0.04615122 -0.04619291 -0.04623221 -0.0462705 -0.04631225 -0.04636014 -0.04642561
 -0.04650952 -0.0466198 -0.04675491 -0.0469153 -0.04710118 -0.04731129 -0.04755109 -0.04782344 -0.04813465 -0.04849027
 -0.04888728 -0.04932833 -0.04979811 -0.05029348 -0.05080374 -0.05132477 -0.05186965 -0.05243884 -0.05305204 -0.05370973
 -0.05438039 -0.05505565 -0.05563149 -0.0561 -0.05635807 -0.05641786 -0.05626103 -0.05591261 -0.05541452 -0.0547962
 -0.05411256 -0.05340529 -0.05273637 -0.05213956 -0.05166017 -0.05130866 -0.05110233 -0.05103912 -0.05112628 -0.05134016
 -0.05168752 -0.05208628 -0.0525327 -0.0529015 -0.05317873 -0.05331994 -0.05332307 -0.05325301 -0.05311437 -0.05298004
 -0.05284927 -0.05275714 -0.05269637 -0.05266408 -0.0526476 -0.05261604 -0.0525641 -0.05246594 -0.05233285 -0.05216625
 -0.05198027 -0.05178767 -0.05159135 -0.05139606 -0.05120156 -0.05100679 -0.05082015 -0.05064264 -0.050485 -0.05034982
 -0.05023713 -0.05014784 -0.05007015 -0.05000344 -0.04993372 -0.04986106 -0.04978172 -0.04969721 -0.04961435 -0.04953384
 -0.04946223 -0.04939776 -0.04933942 -0.04928603 -0.04923423 -0.04918647 -0.04914346 -0.04910954 -0.04908887 -0.04908195
 -0.04909138 -0.04911179 -0.04914264 -0.04917619 -0.04921066 -0.04924016 -0.04926324 -0.0492787 -0.04928599 -0.04928965
 -0.04928995 -0.04929571 -0.04930725 -0.04933137 -0.04936692 -0.04941151 -0.04946271 -0.04951046 -0.04955424 -0.04958657
 -0.04961117 -0.04963022 -0.0496482 -0.04967188 -0.04970092 -0.04973844 -0.04977893 -0.04982057 -0.04985817 -0.0498889
 -0.04991246 -0.04992759 -0.04993885 -0.04994649 -0.04995617 -0.04996849 -0.04998617 -0.05000938 -0.05003821 -0.05007269
 -0.05011352 -0.05016066 -0.050215 -0.05027514 -0.05033725 -0.05039874 -0.05045135 -0.05049439 -0.05052204 -0.05053756
 -0.05054144 -0.05053949 -0.05053621 -0.05053595 -0.05054267 -0.05055664 -0.05057946 -0.05060746 -0.05064021 -0.05067387
 -0.05070762 -0.05074045 -0.05077213 -0.05080321 -0.05083369 -0.05086209 -0.05088821 -0.05090873 -0.05092387 -0.05093265
 -0.05093686 -0.05094171 -0.05094983 -0.05097073 -0.05100403 -0.05105528 -0.0511176 -0.0511863 -0.05125276 -0.05130707
 -0.05134979 -0.05137582 -0.05139813 -0.05141971 -0.05145318 -0.05150371 -0.05157015 -0.05165448 -0.05174261 -0.05183363
 -0.05191329 -0.05198075 -0.05203244 -0.052069 -0.05209855 -0.05212219 -0.05215115 -0.05218494 -0.05222831 -0.05227895
 -0.05233363 -0.05239067 -0.05244531 -0.05249833 -0.05254832 -0.0525979 -0.05264886 -0.05270263 -0.05276112 -0.05282242
 -0.05288686 -0.05295004 -0.05301085 -0.05306667 -0.05311647 -0.05316225 -0.05320388 -0.0532463 -0.05328979 -0.05333762
 -0.05338968 -0.05344477 -0.05350243 -0.0535589 -0.05361452 -0.05366812 -0.05372114 -0.0537768 -0.05383542 -0.05389998
 -0.05396744 -0.05403594 -0.0541013 -0.05415891 -0.05420844 -0.0542475 -0.05428026 -0.05430727 -0.05433379 -0.05436107
 -0.05439335 -0.05443153 -0.05447811 -0.05453356 -0.0545978 -0.05467085 -0.05475003 -0.05483505 -0.05492201 -0.05501036
 -0.05509473 -0.05517455 -0.05524426 -0.0553048 -0.05535483 -0.05539765 -0.0554379 -0.05547879 -0.05552643 -0.05558081
 -0.05564475 -0.05571475 -0.05579036 -0.05586607 -0.05594001 -0.05600714 -0.05606523 -0.05611453 -0.05615375 -0.05619144
 -0.05622797 -0.05627545 -0.05633469 -0.05640949 -0.05649921 -0.05659438 -0.05669373 -0.05678377 -0.05686532 -0.05693356
 -0.05699165 -0.05704505 -0.05709591 -0.05715101 -0.05720941 -0.05727271 -0.05733938 -0.05740834 -0.05747945 -0.05755245
 -0.05762693 -0.05770308 -0.05777889 -0.05785386 -0.05792669 -0.05799676 -0.05806606 -0.05813464 -0.05820569 -0.05827943
 -0.05835619 -0.05843578 -0.05851504 -0.05859385 -0.0586696 -0.05874299 -0.0588154 -0.0588874 -0.05896178 -0.05903723
 -0.05911333 -0.05918742 -0.05925588 -0.05931779 -0.05937039 -0.05941626 -0.05945564 -0.05949248 -0.05952846 -0.05956566
 -0.05960494 -0.0596472 -0.05969246 -0.05974289 -0.05979848 -0.05986382 -0.05993921 -0.06002765 -0.06012888 -0.06023879
 -0.06035615 -0.0604706 -0.06058139 -0.06067963 -0.06076648 -0.06083991 -0.0609024 -0.06095695 -0.06100651 -0.06105553
 -0.06110669 -0.06116384 -0.06122768 -0.06130012 -0.06137931 -0.06146515 -0.06155526 -0.06164918 -0.06174453 -0.0618412
 -0.06193483 -0.06202499 -0.06210746 -0.06218189 -0.06224974 -0.06231134 -0.06237292 -0.06243448 -0.06249958 -0.0625671
 -0.06263428 -0.06270056 -0.06276232 -0.0628214 -0.06287887 -0.0629378 -0.06300306 -0.0630745 -0.063155 -0.0632393
 -0.06332543 -0.06340826 -0.06348418 -0.06355516 -0.06362025 -0.06368625 -0.06375454 -0.06382751 -0.06390608 -0.06398511
 -0.06406434 -0.06413858 -0.0642079 -0.0642736 -0.06433628 -0.06440097 -0.06446761 -0.06453906 -0.06461405 -0.06469092
 -0.06476804 -0.0648415 -0.06491105 -0.06497408 -0.06503309 -0.06508849 -0.06514503 -0.06520535 -0.06527359 -0.06535292
 -0.06544172 -0.06554168 -0.06564279 -0.06574416 -0.06583376 -0.06590976 -0.06596895 -0.06601082 -0.06604263 -0.06606493
 -0.06608785 -0.06611177 -0.06614438 -0.06618544 -0.06623874 -0.06630239 -0.06637412 -0.06645057 -0.06652425 -0.06659422
 -0.06665502 -0.06671054 -0.06676184 -0.06681377 -0.06687027 -0.06693145 -0.06699916 -0.06706876 -0.0671396 -0.06720674
 -0.06726886 -0.06732525 -0.06737528 -0.06742358 -0.06747039 -0.06752144 -0.06757677 -0.06763718 -0.06770191 -0.06776557
 -0.06782775 -0.06788316 -0.06793337 -0.06797905 -0.06802341 -0.06807274 -0.06812882 -0.06819768 -0.06827624 -0.06836518
 -0.06845724 -0.06854837 -0.06863315 -0.06870735 -0.06877279 -0.06882851 -0.06888007 -0.06892847 -0.06897662 -0.06902507
 -0.06907388 -0.06912306 -0.06917333 -0.06922483 -0.06928086 -0.06934172 -0.06941159 -0.0694901 -0.06957863 -0.06967504
 -0.0697749 -0.06987499 -0.06996736 -0.07005005 -0.07011664 -0.07016868 -0.07020413 -0.07022884 -0.07024491 -0.07025988
 -0.07027771 -0.07030154 -0.07033385 -0.07037134 -0.07041391 -0.07045759 -0.07050162 -0.07054692 -0.07059346 -0.07064421
 -0.07069913 -0.07075714 -0.07081766 -0.07087579 -0.0709313 -0.07098024 -0.07102354 -0.07106099 -0.07109515 -0.07113045
 -0.07116937 -0.07121788 -0.07127442 -0.07134132 -0.07141124 -0.07148079 -0.07154299 -0.07159276 -0.07163198 -0.07165862
 -0.07168356 -0.0717082 -0.07174269 -0.07178903 -0.0718467 -0.07191611 -0.07198559 -0.0720546 -0.07211313 -0.07216214
 -0.07220454 -0.07224219 -0.07228577 -0.07233412 -0.07239073 -0.0724508 -0.07250652 -0.07255536 -0.0725887 -0.07261209
 -0.07262674 -0.07264012 -0.0726585 -0.07268194 -0.07271326 -0.07274563 -0.07277747 -0.07280423 -0.0728237 -0.07284075
 -0.07285522 -0.07287645 -0.07290515 -0.07294626 -0.07299984 -0.07306553 -0.07314259 -0.07322603 -0.07331336 -0.07339162
 -0.07345768 -0.07349431 -0.07350453 -0.07348377 -0.07344184 -0.07338914 -0.07333522 -0.07329204 -0.07326645 -0.07326677
 -0.07329387 -0.07335293 -0.07343107 -0.07352836 -0.07362027 -0.0737021 -0.07375696 -0.0737808 -0.07377928 -0.07375214
 -0.07371734 -0.07367568 -0.07364046 -0.07361153 -0.07359376 -0.07358639 -0.07358903 -0.07360059 -0.07361822 -0.07364027
 -0.07366305 -0.0736833 -0.07369529 -0.07369643 -0.07368025 -0.07365229 -0.07361174 -0.07357226 -0.07353992 -0.07352266
 -0.0735261 -0.07354343 -0.07357565 -0.07360696 -0.07363562 -0.07364924 -0.07364642 -0.07362939 -0.07359857 -0.07356651
 -0.07353293 -0.07350215 -0.07347089 -0.07342547 -0.07336531 -0.07327892 -0.07317401 -0.07306033 -0.07294434 -0.07284108
 -0.07274734 -0.07266665 -0.07259099 -0.07251573 -0.07243695 -0.07235072 -0.0722599 -0.07216392 -0.07206893 -0.07197684
 -0.07188704 -0.07180141 -0.07170097 -0.07158471 -0.07142986 -0.07123625 -0.07101433 -0.07076649 -0.07052 -0.07027223
 -0.07002624 -0.06977598 -0.0695043 -0.06920992 -0.06888073 -0.06852179 -0.06813411 -0.06772508 -0.06730139 -0.06687019
 -0.06643934 -0.06600838 -0.06558204 -0.06514567 -0.06469505 -0.06422234 -0.06372093 -0.06321593 -0.06270883 -0.06222858
 -0.06177821 -0.06135673 -0.06096391 -0.06058894 -0.06023211 -0.0598932 -0.059571 -0.05926243 -0.05896039 -0.05864367
 -0.05830351 -0.05790942 -0.0574646 -0.0569563 -0.05640304 -0.0558182 -0.05521576 -0.05461041 -0.05400415 -0.05340127
 -0.05280147 -0.05220572 -0.0516127 -0.05102592 -0.05042201 -0.04980318 -0.04910316 -0.04831689 -0.04739426 -0.04633595
 -0.045217 -0.04404476 -0.04292373 -0.04184265 -0.04080248 -0.03978787 -0.03875157 -0.03769061 -0.03657793 -0.0354125
 -0.03418943 -0.03288613 -0.03149048 -0.0299487 -0.02822197 -0.02627226 -0.02404821 -0.02163252 -0.01901791 -0.01638532
 -0.01377384 -0.0112872 -0.00895048 -0.00675697 -0.004710264 -0.002752427 -0.0008787957 0.001025153 0.002972603 0.005146442
 0.00753294 0.01019474 0.01304431 0.01583043 0.01852708 0.02092847 0.02312986 0.02518468 0.02716563 0.02917715
 0.03121763 0.03331812 0.03545946 0.03763434 0.03985104 0.04211883 0.04440446 0.04670905 0.04896281 0.05115123
 0.05328081 0.05535017 0.05739238 0.05940661 0.06131869 0.06312124 0.06470493 0.06608368 0.06726293 0.06827267
 0.06921343 0.07009119 0.07097872 0.07183772 0.07263473 0.07336327 0.07398949 0.0745636 0.07511546 0.07566345
 0.07623589 0.07678862 0.07731496 0.07777121 0.07814179 0.07843218 0.0786373 0.07880184 0.07892829 0.07906639
 0.07921776 0.07938141 0.07955331 0.07969203 0.07979739 0.07984618 0.07984375 0.07979199 0.07970167 0.07959337
 0.07948206 0.07939877 0.0793509 0.07935512 0.07942003 0.07954831 0.07977351 0.08011015 0.08058929 0.08123341
 0.08201326 0.08292978 0.08393417 0.08501543 0.08618236 0.08743361 0.08880448 0.09029617 0.09191054 0.09364522
 0.09547629 0.09740283 0.09940904 0.1014938 0.1036458 0.1058628 0.1081319 0.1104586 0.1128438 0.1152981
 0.1178342 0.1204532 0.1231622 0.1259517 0.12882 0.1317556 0.1347547 0.1378102 0.1409217 0.1440751
 0.147273 0.1504639 0.1536455 0.1567451 0.1597595 0.1626755 0.1654973 0.168277 0.1710009 0.1736351
 0.1761386 0.1783471 0.1802665 0.1818174 0.1830518 0.1840221 0.1847442 0.1852576 0.1855549 0.1856396
 0.1855145 0.185201 0.1846238 0.1837962 0.1824937 0.1806535 0.1782024 0.1750669 0.1717346 0.1682428
 0.1649208 0.1617803 0.1586202 0.15543 0.1520242 0.1484233 0.1446413 0.140698 0.1366857 0.1325617
 0.1283089 0.1238031 0.1188099 0.1133584 0.1072599 0.1009906 0.09485791 0.08912746 0.08411564 0.07950445
 0.07524948 0.07109528 0.06694227 0.06285055 0.05880749 0.05496066 0.0513279 0.04789958 0.04467454 0.04153151
 0.0384687 0.03542147 0.03240473 0.02946409 0.02661454 0.02393497 0.02141671 0.01908443 0.01691117 0.01486861
 0.01293023 0.01106358 0.009233803 0.007419923 0.005551578 0.003589304 0.001483014 -0.0008370065 -0.003183574 -0.005551647
 -0.007632442 -0.009350768 -0.01076483 -0.01186343 -0.01288934 -0.01385393 -0.01487207 -0.01593664 -0.01700348 -0.01806159
 -0.01902335 -0.01989869 -0.02067738 -0.02136819 -0.02199547 -0.0225379 -0.0229752 -0.0232829 -0.02341737 -0.02339551
 -0.02321118 -0.02289915 -0.02247868 -0.02196042 -0.02135587 -0.02065115 -0.01985123 -0.01890926 -0.01782765 -0.01649634
 -0.01490549 -0.0129668 -0.0106772 -0.008209142 -0.005585756 -0.003144347 -0.000877793 0.001076734 0.002753375 0.004198748
 0.005428712 0.006497868 0.007417833 0.008216348 0.008938589 0.009631073 0.01036481 0.01122039 0.01219444 0.01333356
 0.01451108 0.01568593 0.01679736 0.01780934 0.01878161 0.01971755 0.02067416 0.02165942 0.02266933 0.02370378
 0.02471899 0.02571432 0.02666536 0.02758051 0.02848939 0.02941014 0.03042014 0.0315313 0.03281855 0.03425933
 0.03585503 0.0375712 0.03936058 0.04123158 0.04317276 0.04520638 0.04735142 0.04958294 0.05190358 0.05425737
 0.05662706 0.0590007 0.06136822 0.06377923 0.06623915 0.0687653 0.07135831 0.07388584 0.07633449 0.0784973
 0.08037391 0.08185885 0.08295899 0.08365049 0.08391999 0.08372653 0.08305287 0.08184271 0.08011775 0.07786481
 0.07515568 0.07203139 0.06857544 0.06484208 0.06087976 0.05671569 0.05237721 0.04785934 0.04326701 0.03859925
 0.03406852 0.0296954 0.02562018 0.02185125 0.01833654 0.01506864 0.01193251 0.008934362 0.006049714 0.003297504
 0.0007383825 -0.00163071 -0.003777252 -0.00573586 -0.007544775 -0.009240833 -0.0108811 -0.01248353 -0.01408276 -0.01567495
 -0.01727063 -0.0188481 -0.02040382 -0.02191195 -0.02336405 -0.02475249 -0.02607252 -0.0273415 -0.0285606 -0.02974543
 -0.03089694 -0.0319942 -0.03303393 -0.0339658 -0.03478963 -0.03547648 -0.0360339 -0.03647376 -0.03680208 -0.03703905
 -0.0371867 -0.03725491 -0.03725006 -0.03717989 -0.03705849 -0.03689553 -0.03671268 -0.03651946 -0.03634653 -0.03620354
 -0.03612556 -0.03612186 -0.03621984 -0.03642612 -0.03674966 -0.03719369 -0.03773827 -0.03838252 -0.0390811 -0.03983152
 -0.04059023 -0.04135612 -0.04210226 -0.04282585 -0.04350388 -0.04413116 -0.04468246 -0.04515816 -0.04554512 -0.04585281
 -0.04608674 -0.0462558 -0.04637013 -0.0464303 -0.04643869 -0.04639632 -0.04630032 -0.04616787 -0.04599828 -0.04582869
 -0.04566264 -0.04554398 -0.0454775 -0.04549104 -0.04558653 -0.04576129 -0.04601349 -0.04631653 -0.04666777 -0.0470376
 -0.04742532 -0.04781249 -0.04820024 -0.04858209 -0.04895943 -0.04933196 -0.04970006 -0.05006436 -0.05042403 -0.05077884
 -0.05112733 -0.05146949 -0.05180114 -0.05212186 -0.05242373 -0.05270482 -0.05295888 -0.05318371 -0.05338266 -0.05355534
 -0.05371208 -0.05385347 -0.05398691 -0.05411218 -0.05422788 -0.05433267 -0.05441796 -0.05448207 -0.0545142 -0.05451331
 -0.05447141 -0.05438834 -0.05425978 -0.05408739 -0.0538696 -0.05361366 -0.05332208 -0.05300966 -0.05268413 -0.05235931
 -0.05204309 -0.05173881 -0.05144925 -0.05117189 -0.05090623 -0.05065376 -0.05041457 -0.0501905 -0.04998176 -0.04977917
 -0.04958129 -0.04936505 -0.04912818 -0.04884212 -0.04851002 -0.04812172 -0.0476965 -0.04726952 -0.04687472 -0.04658655
 -0.04642462 -0.04645283 -0.04664173 -0.04700177 -0.04745898 -0.04798004 -0.04849368 -0.04896176 -0.04935848 -0.04966534
 -0.0499009 -0.05006409 -0.05018418 -0.05026474 -0.05031731 -0.05034295 -0.05033271 -0.05028526 -0.05018002 -0.05001398
 -0.04975698 -0.04940772 -0.04893787 -0.0483638 -0.04769817 -0.04699089 -0.04632458 -0.04576059 -0.04541398 -0.04529253
 -0.04546412 -0.04584073 -0.04640715 -0.04703193 -0.04765598 -0.0482153 -0.04866809 -0.04906365 -0.04939835 -0.0497633
 -0.05017085 -0.05064605 -0.05119237 -0.05173544 -0.05226919 -0.05268229 -0.052976 -0.05309639 -0.0530654 -0.05293288
 -0.05273166 -0.05257373 -0.05246914 -0.05249749 -0.0526248 -0.05284731 -0.05311469 -0.05337846 -0.0536222 -0.05381657
 -0.05398377 -0.05412823 -0.05426013 -0.05439011 -0.05448454 -0.05454174 -0.05451593 -0.0544004 -0.05418449 -0.05386659
 -0.05347529 -0.05301251 -0.05251336 -0.05197802 -0.05142473 -0.05085199 -0.05026341 -0.04965846 -0.04903691 -0.0484007
 -0.04775174 -0.04709572 -0.04643863 -0.04578975 -0.0451588 -0.04455198 -0.04397736 -0.04343078 -0.04291399 -0.04241568
 -0.04193306 -0.04145858 -0.04098975 -0.04052782 -0.04007234 -0.03962927 -0.03919901 -0.03878329 -0.03838142 -0.03798221
 -0.03758281 -0.03715836 -0.03670587 -0.03619984 -0.03564017 -0.03501299 -0.03432141 -0.03356331 -0.03274532 -0.0318724
 -0.03095688 -0.03000877 -0.02904368 -0.02807348 -0.02710748 -0.02615385 -0.02520919 -0.02427569 -0.02334073 -0.02240238
 -0.02145118 -0.0204847 -0.01951113 -0.01853051 -0.01756824 -0.01662538 -0.01572183 -0.01485576 -0.01402382 -0.01322265
 -0.01243659 -0.01166458 -0.01089637 -0.01013134 -0.009364067 -0.008593609 -0.007815691 -0.007032838 -0.006245357 -0.005456961
 -0.004670744 -0.003886045 -0.003102659 -0.002322325 -0.001544148 -0.0007768685 -2.272696E-05 0.0007173223 0.001441346 0.002167934
 0.002897909 0.003657589 0.004447925 0.005285759 0.00617 0.007102477 0.008078745 0.009084657 0.01011034 0.01112578
 0.01211581 0.01304147 0.01388675 0.01461584 0.01521989 0.01567652 0.01599169 0.01615929 0.01619926 0.01611544
 0.01593469 0.01566188 0.01533128 0.01494676 0.01455203 0.01415145 0.01378608 0.01345905 0.01319406 0.01299172
 0.01286041 0.01279993 0.01281341 0.01290018 0.01305958 0.01329031 0.01358795 0.01395302 0.01438282 0.01488269
 0.0154571 0.01611408 0.01686546 0.01770572 0.01864802 0.01963841 0.02067729 0.02164124 0.02250832 0.02312782
 0.02346694 0.02343842 0.0230206 0.02225022 0.02112548 0.0197853 0.0182382 0.01664582 0.01501191 0.01344218
 0.01192867 0.01049587 0.009131586 0.00781489 0.006539077 0.005282508 0.004041536 0.002804165 0.00156493 0.0003149877
 -0.00094888 -0.002230894 -0.003532823 -0.004853642 -0.00620556 -0.007589339 -0.009026889 -0.01052283 -0.0120894 -0.01373
 -0.01543635 -0.01720862 -0.01902285 -0.02087731 -0.02273864 -0.02460441 -0.02644055 -0.02824567 -0.02999569 -0.0316904
 -0.03331703 -0.03487549 -0.03635894 -0.03776966 -0.03910645 -0.04037581 -0.04158222 -0.04273373 -0.04383539 -0.04489649
 -0.04592057 -0.0469198 -0.04789818 -0.0488644 -0.04982169 -0.05076824 -0.05170458 -0.05262455 -0.05352774 -0.05441054
 -0.05527259 -0.05610744 -0.05691393 -0.05768003 -0.05840485 -0.05907794 -0.05969958 -0.06026512 -0.06077539 -0.06122914
 -0.06162897 -0.06197738 -0.06227777 -0.06253453 -0.06274845 -0.06292066 -0.06305322 -0.06314463 -0.06320733 -0.06324269
 -0.06326968 -0.06329224 -0.0633224 -0.06336273 -0.06341366 -0.06347573 -0.0635405 -0.06360729 -0.06366049 -0.06369944
 -0.06371054 -0.06369592 -0.06365697 -0.06359787 -0.06353201 -0.06346005 -0.0633909 -0.06332003 -0.06324519 -0.06316185
 -0.06306405 -0.06295204 -0.06282385 -0.06268205 -0.06252835 -0.06236032 -0.06217873 -0.06197542 -0.06174805 -0.06149614
 -0.0612178 -0.06092991 -0.0606332 -0.06035125 -0.06008505 -0.05984959 -0.0596451 -0.05948033 -0.05935502 -0.05927468
 -0.05923489 -0.05922765 -0.05924466 -0.05926464 -0.05928578 -0.0592945 -0.05929843 -0.0593014 -0.05930549 -0.05931748
 -0.05932243 -0.05931738 -0.05928264 -0.0592103 -0.05909498 -0.05893254 -0.05873366 -0.05849896 -0.05823987 -0.05795764
 -0.05764999 -0.05731661 -0.05694685 -0.05654157 -0.0561021 -0.05563274 -0.05515382 -0.05466896 -0.05420004 -0.05374603
 -0.05331483 -0.05290516 -0.0525171 -0.05215361 -0.05181777 -0.05151106 -0.05123816 -0.05098929 -0.05076406 -0.05054305
 -0.05032073 -0.05008188 -0.04982096 -0.04953936 -0.04923533 -0.04892416 -0.04860662 -0.04830042 -0.04800636 -0.04773655
 -0.04749043 -0.04726979 -0.04707105 -0.04687973 -0.04669045 -0.04647815 -0.04624384 -0.04597422 -0.04568132 -0.04537565
 -0.04506886 -0.04477888 -0.04450283 -0.04424664 -0.04399659 -0.04374773 -0.04349068 -0.04322096 -0.04293657 -0.04263695
 -0.0423181 -0.04197969 -0.04161568 -0.04122517 -0.04081344 -0.0403812 -0.03994989 -0.03952067 -0.03911396 -0.0387275
 -0.03836201 -0.03801304 -0.03766697 -0.03732266 -0.03697046 -0.03661324 -0.0362506 -0.03588662 -0.03552454 -0.03516917
 -0.03482573 -0.03449324 -0.03417591 -0.03385812 -0.03353728 -0.03319437 -0.0328222 -0.03242646 -0.0320043 -0.03158886
 -0.03118244 -0.03081198 -0.03047817 -0.03017588 -0.02990258 -0.02963237 -0.02936427 -0.02907879 -0.02877932 -0.02846555
 -0.02814212 -0.02781983 -0.02749773 -0.02718106 -0.02686197 -0.02653418 -0.02619307 -0.02583068 -0.02545551 -0.02506729
 -0.0246824 -0.02430622 -0.02394836 -0.02361302 -0.02329705 -0.02300117 -0.02271626 -0.02244176 -0.02216943 -0.02189873
 -0.0216183 -0.02132691 -0.02100685 -0.02065947 -0.02027884 -0.01987353 -0.01946668 -0.01906533 -0.01869995 -0.01836085
 -0.01804942 -0.01774849 -0.01743689 -0.01711729 -0.01678012 -0.01644829 -0.01613134 -0.01584148 -0.01558865 -0.01535868
 -0.01515234 -0.01494404 -0.01473039 -0.01449389 -0.01423222 -0.01394699 -0.01363858 -0.01332563 -0.01300897 -0.01270442
 -0.01241034 -0.01212638 -0.01185113 -0.01157943 -0.01131232 -0.01105045 -0.01079268 -0.01053827 -0.01028421 -0.01002627
 -0.009765429 -0.009500842 -0.009234622 -0.008967665 -0.008700947 -0.008433264 -0.008173498 -0.007922698 -0.00769205 -0.007485005
 -0.007292457 -0.007114746 -0.006926915 -0.006727946 -0.006508711 -0.006270783 -0.006027362 -0.005779323 -0.005539294 -0.005303819
 -0.005070622 -0.004831483 -0.004569012 -0.004274434 -0.003923922 -0.003522964 -0.003062688 -0.002568216 -0.002052829 -0.001540637
 -0.001048076 -0.0005825608 -0.0001498768 0.0002479796 0.0006091114 0.0009360165 0.001227225 0.001499675 0.001754511 0.002007237
 0.002258493 0.002507962 0.0027565 0.003011471 0.003276705 0.003578069 0.003914491 0.00429951 0.004722193 0.00516706
 0.005621341 0.006061455 0.006473707 0.006837866 0.007138178 0.007354247 0.0074885 0.007528989 0.007513078 0.007445881
 0.007377932 0.007321518 0.007307922 0.007345309 0.007432918 0.007573003 0.007731904 0.007907826 0.00805964 0.008189011
 0.008297223 0.008392265 0.008518753 0.0086785 0.008903432 0.009184589 0.009519181 0.009895531 0.01029743 0.01070967
 0.01110927 0.01149046 0.01183007 0.01216919 0.01251104 0.01293322 0.0134785 0.01412203 0.01488604 0.01561236
 0.01627374 0.01682395 0.01725178 0.01762625 0.01795036 0.01826939 0.01858147 0.01888178 0.01916502 0.01940163
 0.01958701 0.01968878 0.01970967 0.01963568 0.01948221 0.01926562 0.01900119 0.01871209 0.01840422 0.01808644
 0.01776895 0.01745794 0.01716365 0.01689361 0.01663975 0.01640017 0.0161749 0.01595957 0.01579246 0.01567663
 0.01564163 0.01568852 0.01578183 0.01591644 0.01602229 0.01609784 0.01609782 0.01602665 0.01587305 0.01564643
 0.01535898 0.01502571 0.01467592 0.01431678 0.01396869 0.01362795 0.01329261 0.01297726 0.01268601 0.01244023
 0.0122525 0.01211477 0.01202601 0.01198499 0.01198737 0.01207055 0.0122394 0.0124921 0.01282819 0.01316537
 0.0135008 0.01377232 0.01398848 0.01416629 0.01431288 0.01446179 0.01461281 0.01477887 0.01496465 0.01518382
 0.01543728 0.01573623 0.01606378 0.01641321 0.01676332 0.01710129 0.01741517 0.01769826 0.017944 0.01814854
 0.01831562 0.01844405 0.0185482 0.01862942 0.01869473 0.01874455 0.01878431 0.01881558 0.01886088 0.01891932
 0.01900091 0.01909641 0.01917621 0.01923958 0.01926443 0.01926894 0.01927527 0.01928943 0.01933328 0.01938625
 0.01943676 0.01947844 0.01949994 0.01951959 0.01954553 0.01957301 0.01960707 0.01961358 0.0195868 0.0195119
 0.0193852 0.01922691 0.01903801 0.01884399 0.01864439 0.01844149 0.01823121 0.01798844 0.01771528 0.01739839
 0.01705865 0.01673718 0.01645215 0.01626139 0.01614296 0.0161005 0.01609309 0.01608319 0.0160686 0.01603366
 0.0160022 0.01598649 0.01597205 0.01596385 0.01591168 0.01580798 0.01562123 0.01534611 0.01498788 0.01454661
 0.01405497 0.01351609 0.01297851 0.0124441 0.0119496 0.01149251 0.01108339 0.01071937 0.01040073 0.01012131
 0.009874977 0.009646812 0.009414905 0.009178092 0.008919349 0.008672377 0.008448328 0.00828135 0.008192777 0.008172721
 0.008227934 0.008315605 0.00843105 0.008534602 0.008621315 0.008676361 0.008698677</values></Ydata></AB><ScSm><Ydata ylabel="Single channel"><values byteorder="INTEL" format="FLOAT32" numvalues="1814"> 0.07206958 0.07207714 0.07215332 0.072319 0.07254115 0.07275128 0.07289265 0.07295671 0.07296664 0.07293572
 0.07287303 0.07282786 0.07287943 0.07305872 0.07330112 0.07348869 0.07354076 0.0734845 0.07344322 0.07351585
 0.07364085 0.073612 0.07327421 0.07270384 0.07215879 0.07184073 0.07177104 0.0719449 0.07245614 0.07324785
 0.07383616 0.07365676 0.07277264 0.07190873 0.07164738 0.07186861 0.07208563 0.0720063 0.07162607 0.07112058
 0.07089545 0.07147735 0.07299931 0.07477434 0.07554153 0.07426272 0.07086373 0.0664714 0.06299783 0.06211488
 0.0640757 0.06737582 0.0698825 0.07053564 0.06985661 0.06887409 0.06801798 0.06724761 0.06676149 0.06703547
 0.06816366 0.06941599 0.06961471 0.06814039 0.06567022 0.06369846 0.06317232 0.06389795 0.06534488 0.06722459
 0.068668 0.06775976 0.06342691 0.057825 0.05537195 0.05854404 0.06523473 0.07082221 0.07228304 0.06987433
 0.06577873 0.06229612 0.06099147 0.0622749 0.06531218 0.06871539 0.0713916 0.07260663 0.07179907 0.06906442
 0.06563474 0.06328289 0.06323256 0.06568053 0.06976062 0.07362173 0.07526527 0.07401982 0.07098677 0.06787296
 0.06586844 0.06565318 0.06755798 0.07121976 0.07556175 0.07942335 0.08203429 0.08308695 0.08279924 0.08177803
 0.0805572 0.07950857 0.07916315 0.07988307 0.08100609 0.08110172 0.07953106 0.0773004 0.07602333 0.07625305
 0.07704436 0.07710293 0.07609184 0.07441781 0.07195468 0.06802583 0.06296262 0.05851036 0.05608252 0.05568673
 0.05697225 0.05978537 0.06294106 0.06414226 0.06249674 0.06012961 0.06007253 0.06302597 0.06699462 0.06972107
 0.07077305 0.07139079 0.07288526 0.07529604 0.07722443 0.07689632 0.07392956 0.07031883 0.06902466 0.07106785
 0.07454455 0.0769579 0.07784508 0.07850337 0.07972518 0.08057477 0.07936895 0.07568027 0.07140891 0.0696067
 0.07182069 0.07654643 0.08032092 0.08028726 0.07611635 0.07007593 0.0652596 0.06344782 0.06462976 0.06817827
 0.07354062 0.07962781 0.08453227 0.08659563 0.08561847 0.08276095 0.07921916 0.07512377 0.07017037 0.06544728
 0.06365581 0.06655595 0.07271624 0.07870935 0.08217049 0.08297269 0.08189277 0.07915851 0.0746717 0.06940272
 0.06583985 0.06605868 0.0692264 0.07207767 0.07233245 0.0707695 0.06954388 0.069497 0.06985047 0.06985971
 0.0698735 0.07073526 0.07257787 0.07450785 0.07547371 0.07522444 0.07434465 0.0735674 0.07311259 0.07253772
 0.07136178 0.07002336 0.06983134 0.07153251 0.0742835 0.07651855 0.07752174 0.0776857 0.07746848 0.07660183
 0.07449523 0.07135855 0.0686564 0.06801886 0.06966119 0.07225347 0.07430707 0.07524323 0.0752384 0.07468214
 0.07391869 0.07313716 0.07242435 0.07200321 0.07217944 0.072901 0.07365987 0.07400156 0.07389461 0.07350469
 0.07287653 0.07199561 0.07101112 0.07024169 0.06994814 0.07013392 0.07058613 0.07106906 0.07140622 0.07143816
 0.0710806 0.07045165 0.06979866 0.06927133 0.06887502 0.06862669 0.06860012 0.06878513 0.06902248 0.06913663
 0.06907485 0.06888665 0.06862281 0.06829806 0.06792772 0.06756657 0.06730394 0.06720389 0.0672303 0.06726489
 0.06724043 0.06721102 0.06723101 0.06722223 0.06705422 0.06672502 0.06637455 0.06613158 0.06601191 0.0659533
 0.06588307 0.06573285 0.06543788 0.06499135 0.06451435 0.06421073 0.06420328 0.06444255 0.0647883 0.06511674
 0.06533563 0.06539217 0.06531563 0.06518901 0.06504737 0.06485353 0.0645861 0.06430934 0.06414413 0.06417694
 0.06438328 0.06463973 0.06482486 0.06489727 0.06488063 0.06482725 0.06480496 0.06484978 0.06490728 0.06488022
 0.06475332 0.06462089 0.06457694 0.0646145 0.0646458 0.06460465 0.0645194 0.06447962 0.06453341 0.06464002
 0.06473064 0.06478657 0.06484002 0.06491527 0.06498376 0.06498132 0.06487986 0.06473479 0.06463389 0.06460591
 0.06461582 0.0646424 0.06471052 0.06483532 0.06497462 0.06506272 0.06508005 0.06506976 0.06508031 0.06510487
 0.06509545 0.06503015 0.06494161 0.06487744 0.06485522 0.06486112 0.06487237 0.06487215 0.06485239 0.06481194
 0.06475428 0.06468439 0.06460448 0.06451685 0.06443831 0.06440278 0.06442907 0.06448495 0.06450167 0.06443457
 0.06430419 0.06417309 0.06408437 0.06402723 0.06396385 0.06388023 0.06379618 0.06373055 0.06367995 0.06363524
 0.06359726 0.06356849 0.06355191 0.06356849 0.06365147 0.06380078 0.06395836 0.06405485 0.06407776 0.06407528
 0.06409805 0.06415591 0.06422895 0.0643027 0.06438836 0.06451184 0.06467661 0.06484102 0.06495407 0.06501533
 0.06507603 0.06518029 0.06533176 0.06551369 0.06570368 0.06586605 0.06596974 0.06602937 0.06610107 0.06622359
 0.06638223 0.06653893 0.06667873 0.06681449 0.06696162 0.06712726 0.0673208 0.06755818 0.06784756 0.06817478
 0.06850635 0.06880963 0.06907786 0.06934099 0.06964527 0.07001184 0.07041448 0.0708023 0.07114467 0.07145274
 0.07175848 0.07207687 0.0723968 0.07271184 0.07304615 0.07343131 0.07386252 0.07429842 0.07470615 0.0750903
 0.07547375 0.07586691 0.07626437 0.07666245 0.07706738 0.07748364 0.07789989 0.07829501 0.07866041 0.07900956
 0.07936299 0.07973307 0.08012319 0.0805243 0.08090509 0.08122864 0.08149779 0.08176793 0.08209127 0.08245739
 0.08281189 0.0831282 0.08343434 0.08376733 0.08412726 0.08448863 0.08483948 0.08519223 0.08555946 0.08593014
 0.08627097 0.08655155 0.08677253 0.08696921 0.08718396 0.08744004 0.08774626 0.08811014 0.08852418 0.08894725
 0.08932598 0.08963619 0.08988976 0.09010938 0.09031671 0.0905351 0.0907796 0.09104519 0.09131508 0.09157187
 0.09179807 0.09198937 0.0921768 0.09240921 0.09270063 0.09302004 0.09334483 0.09369285 0.09408019 0.09447832
 0.09484914 0.09520686 0.09560214 0.09604114 0.09645812 0.09678457 0.09701572 0.097191 0.09734299 0.09749934
 0.09770767 0.09801109 0.09839939 0.09881333 0.09919918 0.0995414 0.09984741 0.1001223 0.1003629 0.1005656
 0.1007346 0.1008823 0.1010272 0.1011927 0.1014038 0.1016694 0.1019643 0.102237 0.1024421 0.102557
 0.1025689 0.1024707 0.102285 0.1020715 0.1018787 0.1016864 0.1014142 0.1009912 0.1004051 0.09968214
 0.09884316 0.09789705 0.09687417 0.09585116 0.094933 0.09421018 0.09373727 0.09354897 0.0936753 0.09411513
 0.09479245 0.09555814 0.09624565 0.09671776 0.09686947 0.09662752 0.09598303 0.09501798 0.09387396 0.09268646
 0.09154461 0.09049121 0.08954061 0.08871014 0.08806103 0.08771254 0.08780347 0.08843493 0.0896401 0.09137738
 0.09352101 0.09586455 0.09817299 0.1002686 0.1020836 0.1036415 0.1050016 0.1062245 0.1073612 0.1084413
 0.109462 0.1104016 0.1112464 0.1119993 0.1126655 0.1132409 0.1137108 0.114054 0.1142589 0.1143421
 0.1143472 0.1143248 0.1143198 0.1143673 0.1144728 0.1145853 0.1146062 0.1144384 0.1140329 0.113406
 0.1126453 0.1119194 0.1114793 0.1116171 0.1125621 0.1143484 0.1167576 0.1194069 0.1219259 0.1240863
 0.125816 0.1271492 0.1281759 0.1290022 0.1297151 0.1303663 0.130978 0.1315557 0.1320989 0.1326104
 0.1331001 0.1335818 0.1340664 0.1345546 0.1350345 0.1354883 0.1359095 0.1363145 0.1367322 0.1371797
 0.1376468 0.1381063 0.1385422 0.1389647 0.1393919 0.1398196 0.1402238 0.1405915 0.140935 0.141278
 0.1416398 0.1420297 0.142439 0.1428396 0.1432039 0.1435302 0.14384 0.1441538 0.144477 0.1448037
 0.1451263 0.1454414 0.1457522 0.1460675 0.1463957 0.1467335 0.1470602 0.1473498 0.1475968 0.1478256
 0.1480709 0.1483468 0.1486401 0.1489303 0.1492135 0.1495068 0.1498283 0.1501754 0.1505213 0.1508369
 0.151114 0.1513688 0.1516266 0.1519029 0.1521968 0.1524959 0.1527866 0.1530631 0.1533311 0.1536028
 0.1538881 0.1541882 0.1544968 0.1548063 0.1551097 0.1554029 0.1556854 0.1559609 0.1562378 0.1565292
 0.1568441 0.1571755 0.1575011 0.157801 0.1580731 0.1583294 0.1585833 0.1588436 0.1591133 0.1593888
 0.1596624 0.1599318 0.1602024 0.1604806 0.1607653 0.16105 0.1613318 0.1616153 0.1619057 0.1622022
 0.1625014 0.1628066 0.1631247 0.1634513 0.1637682 0.1640594 0.1643263 0.1645847 0.1648514 0.1651313
 0.1654147 0.1656867 0.1659437 0.1661972 0.1664613 0.1667388 0.1670207 0.1672958 0.1675581 0.1678113
 0.168066 0.1683295 0.1685989 0.1688644 0.1691189 0.1693651 0.1696129 0.1698695 0.1701338 0.1704007
 0.1706673 0.1709323 0.1711944 0.1714552 0.1717211 0.1719957 0.1722738 0.1725441 0.1727996 0.1730452
 0.1732922 0.1735473 0.1738077 0.1740701 0.1743356 0.1746041 0.174871 0.1751333 0.1753924 0.1756506
 0.1759098 0.1761721 0.1764395 0.1767111 0.1769837 0.1772526 0.1775164 0.1777808 0.1780528 0.178332
 0.1786127 0.1788923 0.1791694 0.1794398 0.1797015 0.1799555 0.1801993 0.1804304 0.1806553 0.1808854
 0.1811248 0.1813697 0.1816156 0.1818608 0.1821095 0.1823718 0.182651 0.1829359 0.1832142 0.1834853
 0.1837534 0.1840198 0.1842857 0.1845516 0.1848148 0.1850742 0.1853338 0.1855968 0.1858629 0.1861328
 0.1864043 0.1866718 0.1869363 0.1872066 0.1874868 0.1877746 0.1880687 0.1883639 0.1886472 0.1889109
 0.1891622 0.1894125 0.1896704 0.1899409 0.1902204 0.1904977 0.190769 0.1910393 0.1913081 0.1915713
 0.1918343 0.1921037 0.1923772 0.1926527 0.1929326 0.1932133 0.1934881 0.1937585 0.194028 0.1942956
 0.1945642 0.1948385 0.1951111 0.1953702 0.1956186 0.1958658 0.1961162 0.1963725 0.1966313 0.1968708
 0.1970441 0.1970333 0.1965359 0.1949549 0.191393 0.184827 0.1745007 0.1603917 0.1433907 0.1249937
 0.106753 0.08986488 0.07504221 0.06260599 0.05264379 0.04510545 0.03985405 0.03676569 0.03584481 0.03734137
 0.0418691 0.05003718 0.06108852 0.07170588 0.07731009 0.07567306 0.06904471 0.06210094 0.05806404 0.0571566
 0.05799923 0.05941693 0.06104255 0.06309865 0.06595317 0.06969389 0.07412332 0.07922954 0.08540601 0.09294819
 0.1014622 0.1100364 0.1180275 0.1255559 0.133199 0.1412913 0.1495757 0.1574587 0.1644815 0.1705518
 0.1758591 0.1806643 0.1851492 0.1893969 0.1934463 0.1972907 0.2007938 0.2036603 0.2055811 0.2064684
 0.2065617 0.2062946 0.2060431 0.2059801 0.2061217 0.2064409 0.2069182 0.2075367 0.208277 0.2091143
 0.2100131 0.2109359 0.2118586 0.2127661 0.2136421 0.2144701 0.2152379 0.2159353 0.2165596 0.2171222
 0.2176428 0.2181363 0.2186128 0.219078 0.2195281 0.219954 0.220352 0.2207244 0.2210723 0.2213963
 0.2217029 0.2220001 0.2222915 0.2225786 0.2228641 0.2231525 0.2234486 0.223753 0.2240584 0.2243526
 0.2246284 0.2248893 0.2251441 0.225401 0.2256629 0.2259282 0.2261949 0.2264666 0.2267476 0.2270348
 0.2273193 0.2275951 0.2278631 0.2281275 0.2283925 0.2286597 0.2289287 0.2292027 0.2294869 0.2297788
 0.2300684 0.230353 0.2306402 0.230934 0.2312296 0.2315244 0.231822 0.2321258 0.2324391 0.2327597
 0.2330692 0.23334 0.2335672 0.2337823 0.234029 0.234327 0.234658 0.2349827 0.2352768 0.2355503
 0.2358293 0.2361268 0.2364334 0.2367292 0.2370053 0.2372834 0.2376018 0.2379695 0.2383521 0.2387165
 0.2390631 0.2394032 0.2397405 0.2400805 0.2404228 0.2407398 0.2409984 0.2412152 0.2414673 0.241832
 0.24231 0.2428124 0.2432406 0.2435752 0.2438708 0.2441869 0.2445481 0.2449266 0.2452248 0.245346
 0.2453497 0.2454684 0.2458887 0.2465616 0.2472818 0.2478964 0.2483886 0.248812 0.2492049 0.2495542
 0.2498075 0.249927 0.2499668 0.2500942 0.2504788 0.2511184 0.2518247 0.2524152 0.2528593 0.253212
 0.2535143 0.2537892 0.2540022 0.2539967 0.2536595 0.2532206 0.2531967 0.253889 0.2550415 0.2561167
 0.256829 0.2572898 0.2577007 0.2581051 0.2584485 0.2586271 0.2583703 0.2573971 0.2559686 0.2550364
 0.2554576 0.2571324 0.2591658 0.2607617 0.2617256 0.262264 0.2626305 0.2629542 0.2631462 0.2629148
 0.2620912 0.2610576 0.2606518 0.2613943 0.2628981 0.2642805 0.2650645 0.2654292 0.265731 0.2661089
 0.2663963 0.2660742 0.2645589 0.2620592 0.2600168 0.2600939 0.2625446 0.2659083 0.2684605 0.2697019
 0.2702225 0.2704234 0.2699252 0.2682463 0.2655176 0.2624236 0.2599896 0.259445 0.2614098 0.2648708
 0.2677552 0.2689788 0.2693667 0.2702905 0.2720296 0.2737728 0.2746741 0.2745085 0.2735332 0.2720265
 0.270154 0.2683878 0.2677591 0.2691289 0.2721379 0.275338 0.2775288 0.2786653 0.2792199 0.2787716
 0.2757319 0.2692534 0.2616082 0.2575553 0.2601405 0.2675117 0.2749074 0.2793362 0.2812121 0.2821202
 0.2826951 0.2824423 0.2800154 0.2739474 0.2649546 0.2573914 0.256302 0.2624264 0.2713658 0.2777033
 0.2787019 0.2745746 0.2674953 0.2609636 0.258392 0.2610316 0.2674124 0.2748015 0.2808512 0.284243
 0.2846699 0.2827087 0.2797803 0.2778116 0.2778465 0.2785065 0.2770308 0.2727678 0.2682572 0.265487
 0.2628023 0.257964 0.2530789 0.2531988 0.2597582 0.2681772 0.2730086 0.2734542 0.272369 0.271057
 0.2670254 0.2575676 0.2448869 0.2361725 0.237308 0.2467704 0.2569911 0.2617564 0.2611423 0.2592925
 0.2588826 0.2584028 0.2543183 0.2457016 0.2365438 0.2324122 0.2345541 0.238789 0.2404558 0.2381404
 0.232057 0.2225386 0.2126826 0.2092982 0.2171326 0.2330287 0.2484182 0.2563846 0.2541728 0.2416185
 0.2220775 0.2044014 0.1986253 0.2069925 0.2212326 0.2301805 0.228641 0.2182814 0.2028169 0.1854619
 0.170409 0.1632712 0.1676852 0.181615 0.1975467 0.2062963 0.2020665 0.1868797 0.1708221 0.1647824
 0.1706342 0.180034 0.1838052 0.1802574 0.17384 0.1693199 0.1689963 0.1724655 0.1770943 0.1804264
 0.1821389 0.1814146 0.1743077 0.1585421 0.1400238 0.1289946 0.1293661 0.1366666 0.1462694 0.1575257
 0.168507 0.1731821 0.1682258 0.1593589 0.1565004 0.1632456 0.1737862 0.1800223 0.1795775 0.1762306
 0.1740384 0.1729913 0.1710395 0.1687873 0.1696837 0.1752315 0.1823328 0.186734 0.1874612 0.1864483
 0.1852756 0.1839852 0.1821889 0.1797719 0.1768003 0.1736125 0.1707322 0.1682836 0.1658885 0.163259
 0.1601946 0.1557736 0.1485896 0.1388333 0.1295578 0.1243217 0.1234903 0.1244446 0.1254394 0.1266567
 0.1266474 0.1212734 0.1091921 0.09638825 0.09183466 0.0988425 0.1126024 0.1256204 0.1333508 0.134548
 0.1291356 0.1187142 0.1087967 0.1070748 0.1170832 0.1347897 0.1529671 0.1674286 0.1774271 0.1822107
 0.1805323 0.1734728 0.1655106 0.1619978 0.1659438 0.1766247 0.1897102 0.198285 0.1962423 0.1844447
 0.1735971 0.1763547 0.1939206 0.2138977 0.2241985 0.2253344 0.22545 0.2276653 0.2285382 0.2270598
 0.228238 0.2362047 0.2480959 0.2568564 0.2574276 0.2487353 0.2329863 0.2160992 0.2061841 0.2071438
 0.2143909 0.2199516 0.2202437 0.2156453 0.2057672 0.1913831 0.1794253 0.1788113 0.1900659 0.2041084
 0.21258 0.2154574 0.2172861 0.219398 0.2183748 0.2112907 0.2005534 0.1923979 0.190681 0.1934838
 0.1963392 0.1969583 0.1953042 0.1909426 0.1833027 0.1744734 0.1692273 0.1709296 0.1781537 0.1861171
 0.1910506 0.1926103 0.1926601 0.192903 0.1937176 0.1943648 0.194242 0.1945014 0.197809 0.2053552
 0.214731 0.2223039 0.2273564 0.2323035 0.2389128 0.2458244 0.250164 0.2506812 0.2489896 0.2482315
 0.2505959 0.2555694 0.2602909 0.261978 0.2605649 0.2589995 0.2605193 0.265545 0.2716064 0.276127
 0.2785334 0.2797442 0.2806532 0.2813908 0.2812807 0.2794066 0.2760208 0.2733657 0.2741012 0.2786512
 0.2847548 0.2897278 0.2925618 0.2937989 0.2941349 0.2936586 0.2922426 0.2902169 0.2883998 0.2874918
 0.2876108 0.2884375 0.2896043 0.2908499 0.2919977 0.2929702 0.293788 0.2944919 0.2951124 0.2957003
 0.2962875 0.2968056 0.2971518 0.297368 0.297657 0.2981523 0.2987408 0.2991823 0.2993292 0.2991333
 0.29851 0.2973575 0.2957154 0.2937678 0.2916485 0.2893652 0.2870265 0.2850963 0.284268 0.2849637
 0.286936 0.289396 0.2915244 0.2928733 0.2934282 0.2934777 0.2934403 0.2936485 0.2941619 0.2947788
 0.2952392 0.2954131 0.2953216 0.2950403 0.2946208 0.2940865 0.2934433 0.2926584 0.2916703 0.2905039
 0.2893828 0.288635 0.2884169 0.2885536 0.2886945 0.288615 0.2883417 0.2880167 0.2876939 0.287273
 0.2866021 0.2856423 0.2845482 0.2835646 0.282814 0.2821935 0.2814912 0.280578 0.2794766 0.2782909
 0.2771105 0.2759592 0.2747966 0.2735581 0.272193 0.2706718 0.268983 0.2671464 0.2652192 0.2632701
 0.2613439 0.259447 0.2575532 0.2556225 0.2536272 0.2515634 0.2494394 0.2472615 0.245032 0.2427427
 0.2403499 0.2377541 0.234818 0.2314128 0.2274512 0.2228935 0.2177527 0.2121166 0.2061566 0.2000972
 0.1941627 0.1885353 0.1833416 0.1786663 0.1745782 0.1711414 0.1684046 0.1663933 0.165117 0.1645713
 0.1647327 0.1655558 0.1669681 0.1688567 0.1710615 0.1733887 0.175641 0.1776598 0.1793817 0.1808732
 0.1822924 0.1837815 0.1853789 0.1870338 0.1886879 0.1903078 0.1918416 0.1931954 0.1942896 0.1951154
 0.1957151 0.1961261 0.196363 0.1964309 0.196329 0.1960438 0.1955598 0.1949014 0.1941936 0.1936793
 0.1936362 0.1942311 0.1954287 0.1970299 0.1988003 0.2005847 0.202334 0.2040543 0.2057594 0.2074675
 0.2092088 0.2110236 0.2129691 0.2151288 0.2175859 0.2203734 0.2234533 0.2267326 0.2300857 0.2333717
 0.2364534 0.2392154 0.2415849 0.2435486 0.2451426 0.2464242 0.2474565 0.2483038 0.2490173 0.2496223
 0.2501254 0.2505207 0.2507868 0.2508965 0.2508384 0.250619 0.2502516 0.2497604 0.2491829 0.2485525
 0.2478871 0.2472005 0.2465137 0.2458478 0.245211 0.2445908 0.2439581 0.2432906 0.2425924 0.2418811
 0.2411573 0.2403916 0.2395355 0.2385458 0.237408 0.2361348 0.2347366 0.2332084 0.231555 0.2298115
 0.2280279 0.2262411 0.2244604 0.2226642 0.2208155 0.2188828 0.2168393 0.2146518 0.2123055 0.20985
 0.2073948 0.2050453 0.202846 0.2007739 0.1987745 0.1968114 0.1948906 0.1930395 0.1912804 0.1896319
 0.1881123 0.1867182 0.185412 0.1841502 0.1829197 0.1817456 0.1806704 0.1797261 0.1789191 0.1782337
 0.17764 0.1771001 0.1765943 0.1761497 0.1758164 0.1756002 0.1754379 0.175245 0.1749676 0.1745965
 0.1741623 0.1737191 0.1733108 0.1729472 0.1726075 0.1722479 0.1718013 0.1711839 0.1703115 0.1691182
 0.1675775 0.1657148 0.1636015 0.1613506 0.1591189 0.1570714 0.1553128 0.1538635 0.1526978 0.1517721
 0.1510205 0.1503723 0.1498005 0.1493457 0.1490811 0.1490279 0.1490862 0.1490858 0.1489452 0.1487617
 0.1487162 0.1489172 0.1493477 0.1499071 0.1504749 0.1509586 0.1513077 0.1514995 0.1515429 0.1514856
 0.1513701 0.1511847 0.1508935 0.1504962 0.1500276 0.1495211 0.1489911 0.1484211 0.1477694 0.147012
 0.1461621 0.1452341 0.144226 0.1431353 0.1419415 0.1406093 0.1391897 0.1378967 0.1370133 0.136722
 0.1370147 0.137708 0.1385565 0.1394042 0.1401793 0.1407268 0.1408347 0.1405869 0.1405528 0.1413856
 0.1431973 0.1454346 0.1473681 0.1486027 0.1491177 0.1490103 0.1483636 0.1472607 0.1457442 0.1437869
 0.1413987 0.1386865 0.1357633 0.1327295 0.1297642 0.127083 0.1248085 0.1229618 0.1215109 0.1204547
 0.1198979 0.1194881 0.1174304 0.1114122 0.1021708 0.09512396 0.09585115 0.1038433 0.1128376 0.1174482
 0.1174789 0.115764 0.1142865 0.1133688 0.1129194 0.1130568 0.113873 0.1152059 0.1166661 0.1178605
 0.1186338 0.1190157 0.1189338 0.1180262 0.1156245 0.1109707 0.1038267 0.09503799 0.08626644 0.07902947
 0.07401428 0.07108675 0.0696234 0.06888272 0.0683787 0.06808005 0.06827004 0.06922194 0.07099577 0.0734788
 0.07650405 0.07982246 0.08302201 0.08568564 0.08769029 0.08921124 0.09040907 0.09125425 0.0916578 0.09162182
 0.09123559 0.09061985 0.0898875 0.08909725 0.08822186 0.08718829 0.08600335 0.08485992 0.08404127 0.08366075
 0.08356854 0.08355658 0.08354954 0.0835581 0.08357631 0.08358693 0.08359556 0.0836473 0.08383797 0.08424339
 0.08479795 0.08531792 0.0856702 0.08586212 0.08597103 0.08601353 0.085868 0.08538814 0.0846725 0.08407478
 0.08375838 0.08339436 0.08256976 0.08139925 0.08046506 0.08018728 0.0804573 0.08085905 0.08105874 0.08097234
 0.08074448 0.08066803 0.08098879 0.08161875</values></Ydata></ScSm><ScRf><Ydata ylabel="Single channel"><values byteorder="INTEL" format="FLOAT32" numvalues="1820"> 0.06053617 0.06068797 0.06078112 0.06081459 0.06081136 0.06081576 0.0608771 0.06101872 0.06121704 0.06141183
 0.06154711 0.06160851 0.06161502 0.0615821 0.06152174 0.06147798 0.06151959 0.06167345 0.06188212 0.062041
 0.0620795 0.06202318 0.06198175 0.06204316 0.06215557 0.06214067 0.06186239 0.0613832 0.06092328 0.06065689
 0.06060386 0.06075885 0.0611993 0.06187642 0.06237989 0.06222878 0.06147169 0.06072117 0.06047647 0.06064644
 0.0608249 0.06076066 0.06044196 0.0600154 0.05982887 0.06033055 0.06162956 0.06314008 0.0637935 0.06270969
 0.05982319 0.05608895 0.05313352 0.0523809 0.05404668 0.05684965 0.05897651 0.05953121 0.05896482 0.05815429
 0.05745605 0.05681903 0.05640131 0.05661257 0.05754906 0.05860127 0.05876451 0.05750157 0.05538434 0.05368941
 0.05323136 0.05385035 0.05509341 0.05670823 0.05795046 0.05719207 0.0535237 0.04877777 0.04670925 0.04942526
 0.0551352 0.05990237 0.0611463 0.05908651 0.05559456 0.05264188 0.05155572 0.05266375 0.05524248 0.05812107
 0.06038883 0.06142591 0.06074463 0.05841793 0.05549537 0.05349149 0.05345328 0.0555497 0.05903798 0.06233461
 0.06373701 0.06267871 0.0601004 0.05745315 0.05574879 0.05556984 0.05720354 0.06034268 0.06406607 0.06737749
 0.06961425 0.07051203 0.07026076 0.06938843 0.06836106 0.06749566 0.0672322 0.06786571 0.06882877 0.06890865
 0.06756897 0.06567231 0.06459433 0.06480211 0.06548227 0.06552618 0.06465016 0.06321122 0.06110668 0.05775303
 0.05342553 0.04961657 0.04754257 0.04721807 0.0483486 0.05080311 0.05355763 0.05462813 0.05323748 0.05120554
 0.0511398 0.05365471 0.05705162 0.05939751 0.06031511 0.0608613 0.0621611 0.06425346 0.06593926 0.06568876
 0.06316514 0.0600814 0.05898975 0.06077341 0.06379263 0.06589544 0.06668446 0.06728096 0.06837225 0.06915434
 0.06817311 0.06505468 0.06143739 0.05995561 0.06193973 0.0660831 0.06939163 0.06939667 0.06581599 0.06062179
 0.0565068 0.05502007 0.05615404 0.05937327 0.06420685 0.06970028 0.07416821 0.07613643 0.07541165 0.07300891
 0.06999189 0.06648424 0.06221431 0.05814853 0.05670187 0.05945717 0.06514287 0.07069321 0.07398403 0.07489251
 0.07410701 0.07181736 0.06791601 0.06328158 0.06020476 0.0606088 0.06373283 0.06656083 0.06698274 0.06572127
 0.06477892 0.06493793 0.06547035 0.06568486 0.06592371 0.06699061 0.06900316 0.07109924 0.07226925 0.07226747
 0.07165066 0.07112943 0.07092302 0.07060144 0.06969999 0.06866237 0.06877658 0.07075782 0.07375425 0.07621977
 0.07746208 0.07788572 0.07794639 0.07735633 0.07549834 0.07257821 0.07009622 0.06973217 0.0717192 0.07469587
 0.07712097 0.07838421 0.07866633 0.07837863 0.07787968 0.07735857 0.07690254 0.07675284 0.07724144 0.07831541
 0.07942918 0.08009242 0.08027112 0.08014108 0.07974201 0.07905531 0.07825422 0.07769846 0.07767484 0.07818466
 0.07899261 0.07983287 0.08050033 0.08081257 0.0806755 0.08022374 0.07974356 0.07941526 0.07924801 0.07925442
 0.07951131 0.08000283 0.08054594 0.08094388 0.08114009 0.08118579 0.08112945 0.08098659 0.08078195 0.08058693
 0.08051135 0.08062996 0.08089299 0.08115771 0.08135353 0.08155496 0.08182688 0.0820699 0.08212064 0.08196692
 0.08176923 0.08168322 0.08173247 0.08184494 0.08193737 0.08193274 0.08175488 0.08139525 0.08100072 0.08081712
 0.08099496 0.08148492 0.08212555 0.08275492 0.08323383 0.08347903 0.08352816 0.08349939 0.08345477 0.08335695
 0.08317221 0.08296844 0.08289476 0.08306923 0.0834734 0.08395734 0.08435856 0.08460286 0.08470501 0.0847391
 0.08481297 0.08498478 0.08517888 0.08525681 0.08519331 0.08511644 0.08515219 0.08528095 0.08537386 0.08534606
 0.08525246 0.08522911 0.08534946 0.08555949 0.08575703 0.08590733 0.08606192 0.08627112 0.08648992 0.0865911
 0.08649839 0.08629023 0.08612347 0.08606584 0.08606808 0.08609551 0.08619729 0.08640915 0.08665529 0.08680882
 0.08683193 0.08680835 0.08683206 0.08689597 0.08691144 0.08681814 0.08664859 0.08649184 0.08642053 0.08644938
 0.08653557 0.08660726 0.08660863 0.08653325 0.08641751 0.08630206 0.08620611 0.08614536 0.08616319 0.08630971
 0.08656486 0.08679952 0.08685578 0.08668748 0.08641177 0.08620627 0.08615137 0.08617306 0.08613302 0.08596063
 0.08569708 0.08543354 0.08523083 0.08509341 0.08499376 0.08491012 0.08485525 0.08487479 0.08499642 0.08516403
 0.08524656 0.08514746 0.08490102 0.08463709 0.08446175 0.08439322 0.08438884 0.08439587 0.0843915 0.08440183
 0.08446307 0.0845485 0.08457411 0.08449984 0.08438627 0.0843322 0.08439472 0.08457172 0.08480333 0.08497895
 0.08500703 0.08490703 0.08479503 0.08476491 0.08481543 0.08489519 0.08497466 0.08505505 0.08513984 0.08523022
 0.08534285 0.08550903 0.08574428 0.08602127 0.08627736 0.08645547 0.08655091 0.08662513 0.08676577 0.08701815
 0.08734865 0.08767437 0.08793105 0.08811827 0.08828343 0.08846425 0.08865654 0.08884655 0.08905505 0.08931904
 0.08963685 0.08996466 0.09026862 0.09055257 0.09083335 0.09111619 0.09140293 0.09171097 0.09207259 0.09250411
 0.09296587 0.09336624 0.093632 0.09377757 0.09389628 0.09409071 0.09440747 0.09480141 0.0951486 0.09534031
 0.0953988 0.0954671 0.09565389 0.09592456 0.0961831 0.09642164 0.09672785 0.09715222 0.09762275 0.09800978
 0.09825091 0.09839649 0.09854135 0.09872383 0.09889845 0.09900944 0.09907278 0.09915929 0.09930543 0.09948675
 0.0996906 0.09996202 0.1003386 0.1007736 0.1011679 0.101461 0.1016602 0.1018012 0.1019135 0.1020074
 0.1020715 0.1020965 0.1021107 0.1021626 0.1022551 0.1023335 0.1023608 0.1023729 0.1024366 0.1025835
 0.1028091 0.1031017 0.103434 0.1037485 0.1040057 0.1042462 0.1045547 0.1049375 0.1052812 0.1054728
 0.1055253 0.1055374 0.105564 0.1055949 0.1056431 0.1057725 0.106021 0.1063529 0.1067065 0.1070545
 0.1074004 0.1077421 0.1080507 0.1082771 0.108383 0.1083786 0.1083325 0.1083362 0.108456 0.108702
 0.1090247 0.109346 0.1096082 0.1097897 0.1098789 0.1098672 0.1097959 0.1097719 0.1098828 0.1100953
 0.1102706 0.1102811 0.1100894 0.1097219 0.1092096 0.108579 0.1078828 0.1072087 0.1066466 0.1062471
 0.1060218 0.1059854 0.1061789 0.1066251 0.1072642 0.1079665 0.1086142 0.1091352 0.1094566 0.1094837
 0.1091704 0.1085843 0.1078666 0.1071398 0.1064657 0.1058532 0.1052733 0.1047003 0.1041828 0.1038691
 0.1039367 0.1044924 0.1055238 0.1069074 0.1084391 0.1098956 0.1111226 0.1120924 0.1128805 0.1135819
 0.1142495 0.1149042 0.1155656 0.1162384 0.1168823 0.1174395 0.1179001 0.1183094 0.118709 0.1190962
 0.1194426 0.1197266 0.1199517 0.120151 0.1203574 0.1205503 0.1206583 0.1206395 0.120535 0.1204184
 0.1203117 0.1201694 0.1199278 0.1195595 0.1191086 0.1187046 0.1185342 0.1187622 0.1194414 0.1204818
 0.1217164 0.1230052 0.1242692 0.1254353 0.1264018 0.127095 0.1275388 0.127836 0.1280886 0.128353
 0.1286452 0.1289583 0.1292746 0.1295804 0.1298746 0.1301666 0.1304702 0.1307917 0.1311135 0.1314008
 0.1316398 0.1318659 0.1321416 0.1324987 0.1329037 0.1332894 0.1336236 0.1339356 0.1342615 0.1345811
 0.1348392 0.1350219 0.1351805 0.1353815 0.1356587 0.1360045 0.1363736 0.1366985 0.1369355 0.1371042
 0.1372634 0.1374537 0.1376762 0.1379175 0.1381689 0.1384224 0.1386709 0.1389228 0.1392028 0.1395189
 0.1398321 0.1400809 0.1402441 0.1403679 0.1405194 0.1407225 0.1409484 0.1411588 0.1413511 0.1415624
 0.1418322 0.1421557 0.1424774 0.1427357 0.1429133 0.143043 0.1431727 0.1433309 0.1435191 0.1437243
 0.1439326 0.1441351 0.144331 0.1445286 0.1447393 0.1449651 0.1451939 0.1454108 0.1456109 0.1457995
 0.1459863 0.1461819 0.1463986 0.1466485 0.1469361 0.1472454 0.1475375 0.147774 0.1479463 0.1480786
 0.1482037 0.1483427 0.1485016 0.1486774 0.148864 0.1490566 0.149254 0.1494563 0.1496642 0.1498779
 0.1500943 0.1503066 0.1505105 0.15071 0.1509161 0.1511379 0.1513726 0.1516059 0.1518243 0.1520259
 0.1522185 0.1524093 0.1526013 0.1527943 0.1529836 0.1531652 0.1533448 0.1535352 0.15374 0.1539475
 0.154146 0.1543373 0.1545309 0.1547307 0.1549321 0.1551292 0.1553218 0.1555129 0.1557035 0.1558913
 0.1560749 0.1562566 0.1564416 0.1566362 0.1568442 0.1570621 0.1572807 0.1574928 0.157697 0.1578944
 0.1580861 0.1582739 0.1584609 0.1586509 0.1588462 0.1590475 0.1592535 0.1594609 0.1596659 0.159866
 0.1600625 0.1602587 0.1604562 0.1606561 0.1608625 0.1610785 0.1612986 0.1615129 0.1617174 0.1619157
 0.162114 0.1623186 0.1625335 0.1627546 0.1629757 0.1631971 0.1634235 0.1636523 0.1638714 0.164069
 0.1642409 0.1643944 0.1645451 0.1647055 0.164878 0.1650589 0.1652458 0.1654371 0.1656303 0.1658236
 0.1660149 0.166205 0.1663997 0.1666045 0.1668153 0.1670243 0.1672311 0.1674393 0.1676469 0.1678499
 0.1680474 0.1682397 0.1684289 0.168623 0.1688305 0.1690497 0.1692707 0.1694865 0.1696971 0.1699082
 0.1701224 0.1703338 0.170536 0.1707357 0.1709444 0.1711617 0.1713801 0.1715973 0.1718121 0.1720189
 0.172218 0.1724171 0.1726193 0.1728233 0.1730325 0.173249 0.1734658 0.1736749 0.1738769 0.1740772
 0.1742853 0.174509 0.1747412 0.1749644 0.1751751 0.1753856 0.1756021 0.1758197 0.1760346 0.1762457
 0.1764536 0.1766651 0.1768817 0.1770821 0.1772174 0.1771784 0.1766989 0.1752472 0.1720094 0.1660505
 0.1566856 0.1439055 0.1285239 0.111891 0.09540577 0.08015306 0.06678455 0.05558699 0.04662278 0.03983126
 0.0350906 0.03230292 0.03147924 0.03283568 0.03691091 0.04424866 0.05417418 0.0637105 0.06873794 0.06724664
 0.06126081 0.05499627 0.0513611 0.0505551 0.05132857 0.05261307 0.05406888 0.05589557 0.05843577 0.06178243
 0.06576052 0.0703513 0.07590134 0.0826747 0.09031697 0.09800686 0.1051665 0.1119088 0.1187597 0.1260213
 0.1334581 0.1405333 0.1468371 0.1522898 0.1570559 0.161358 0.1653539 0.1691241 0.1727147 0.1761299
 0.1792511 0.1818087 0.1835137 0.1842782 0.1843213 0.1840464 0.1837996 0.1837285 0.1838334 0.1840863
 0.184479 0.1850068 0.1856546 0.186394 0.1871843 0.1879874 0.1887811 0.1895509 0.1902818 0.1909671
 0.1916112 0.1922144 0.1927693 0.1932719 0.1937273 0.1941458 0.1945417 0.1949266 0.1952997 0.1956523
 0.1959838 0.1963012 0.1966057 0.1968873 0.1971347 0.1973484 0.1975479 0.1977596 0.1979914 0.1982253
 0.1984409 0.1986376 0.1988307 0.1990326 0.1992431 0.1994518 0.1996485 0.1998332 0.2000156 0.2002029
 0.200395 0.2005892 0.2007851 0.2009824 0.201181 0.2013809 0.2015801 0.2017746 0.2019627 0.2021478
 0.2023356 0.2025298 0.202729 0.2029272 0.2031225 0.2033247 0.2035449 0.2037797 0.2040146 0.2042388
 0.2044503 0.2046523 0.2048521 0.2050548 0.2052541 0.205435 0.2055936 0.2057459 0.2059164 0.2061177
 0.2063395 0.2065591 0.206766 0.2069697 0.2071792 0.2073854 0.207574 0.2077437 0.2079094 0.2080968
 0.2083282 0.2085977 0.2088727 0.2091272 0.2093624 0.2095895 0.2098155 0.2100476 0.2102825 0.2104907
 0.2106429 0.2107588 0.2109097 0.2111606 0.2115074 0.2118754 0.2121876 0.2124326 0.2126541 0.2128953
 0.2131723 0.2134584 0.2136642 0.2136977 0.2136063 0.2136002 0.2138605 0.2143602 0.214923 0.2154078
 0.2157876 0.2160978 0.216367 0.2165866 0.2167159 0.2167275 0.2166762 0.2167149 0.2169876 0.2174819
 0.2180288 0.2184756 0.2188016 0.2190502 0.2192451 0.2194027 0.219504 0.2194267 0.2190715 0.2186252
 0.2185289 0.21905 0.2199763 0.2208413 0.2213902 0.2217145 0.2219927 0.2222708 0.2225063 0.2226049
 0.2223213 0.2214032 0.2200771 0.2191798 0.2194695 0.2208662 0.2225889 0.223935 0.2247232 0.2251248
 0.2253645 0.2255707 0.2256772 0.2254272 0.2246629 0.2237092 0.2232923 0.2238676 0.2251051 0.2262408
 0.2268563 0.2271043 0.2272998 0.2275708 0.2277712 0.227442 0.2260725 0.2238465 0.2220144 0.2220096
 0.2240466 0.2268681 0.2289962 0.2300047 0.2303956 0.2305047 0.2300016 0.2284754 0.226051 0.2233309
 0.2212015 0.2207082 0.2223641 0.2252884 0.227708 0.2287055 0.2289904 0.2297277 0.2311498 0.2325694
 0.2332773 0.2330903 0.2322257 0.2309082 0.229265 0.227697 0.2270963 0.2282108 0.2307348 0.2334199
 0.2352278 0.2361201 0.2365189 0.2360863 0.2334713 0.2279379 0.221408 0.2179278 0.2200879 0.2263101
 0.2325458 0.2362591 0.2378136 0.2385609 0.2390299 0.2387846 0.2366772 0.2314711 0.2237877 0.2173334
 0.2163955 0.2215993 0.2292026 0.2345922 0.2354248 0.2318719 0.2257986 0.2202109 0.2180196 0.2202709
 0.2256948 0.2319611 0.2370775 0.2399309 0.2402694 0.2385915 0.2361134 0.2344745 0.2345457 0.2351315
 0.2338789 0.2302485 0.2264152 0.22408 0.2218422 0.2177899 0.2136961 0.2138513 0.2194876 0.2267172
 0.2309024 0.2313597 0.2305199 0.2294988 0.2261812 0.2182591 0.2075961 0.200316 0.2014495 0.2097075
 0.2186331 0.2229345 0.2226953 0.2214591 0.2215014 0.2215109 0.2184272 0.2114297 0.2039622 0.2008452
 0.2031478 0.2072287 0.2090419 0.2073594 0.2023548 0.1943175 0.1859864 0.1833726 0.1906871 0.2051872
 0.2193273 0.2269667 0.2256043 0.215026 0.1981937 0.1830659 0.1787186 0.1872053 0.2010528 0.210137
 0.2097108 0.2012295 0.1880268 0.1730578 0.1602979 0.1551492 0.1612017 0.1766049 0.1940874 0.2045398
 0.2020392 0.1884906 0.1741041 0.1700437 0.1782225 0.1899526 0.1956729 0.193629 0.1884994 0.1853911
 0.186912 0.1926991 0.1997977 0.2054381 0.2092422 0.2100847 0.2031267 0.185623 0.1645977 0.1522202
 0.1531749 0.1622514 0.1740766 0.1879439 0.2014985 0.2074166 0.2016645 0.1911487 0.1878459 0.1960871
 0.2088493 0.2163533 0.2157443 0.2116198 0.2089276 0.2077007 0.2055096 0.2031496 0.2048445 0.212417
 0.2220997 0.2287384 0.2311525 0.2316667 0.2321695 0.2326766 0.2326635 0.2319386 0.2305721 0.2290192
 0.2279786 0.2276121 0.2273954 0.2269111 0.2258299 0.2227087 0.2153006 0.2037131 0.1924213 0.1867279
 0.1871392 0.1897231 0.191949 0.1941652 0.1941503 0.1855788 0.1663793 0.1455976 0.1368157 0.1450244
 0.1629038 0.1791655 0.1872001 0.1856362 0.1749612 0.1577222 0.1412179 0.1352141 0.1439823 0.1622023
 0.1806442 0.1941213 0.2020869 0.2042226 0.1994449 0.1890441 0.1779657 0.1719851 0.1741776 0.1835591
 0.1954286 0.2025926 0.1988776 0.1852598 0.1725781 0.1735441 0.1894076 0.2078773 0.2169377 0.2170164
 0.2161154 0.217374 0.217513 0.2155555 0.2163221 0.2238144 0.2353297 0.2441309 0.2453619 0.2379549
 0.2240046 0.2092688 0.2016779 0.204942 0.214271 0.2215354 0.2231105 0.2194009 0.2100538 0.1959874
 0.1844811 0.1847919 0.1974334 0.2129708 0.2227423 0.2267484 0.229719 0.2329782 0.2328449 0.2262165
 0.2157563 0.208259 0.2079314 0.2127089 0.2177538 0.2205601 0.2209804 0.2183312 0.2118201 0.2038362
 0.1999771 0.2041796 0.2146211 0.2253963 0.2317752 0.2331513 0.2316637 0.2294167 0.2270698 0.2240037
 0.2197154 0.2156323 0.214838 0.2187805 0.2249624 0.2295067 0.2315941 0.2337313 0.2378074 0.242494
 0.2448705 0.2436169 0.2402638 0.2378479 0.2384752 0.2416595 0.2446913 0.2449481 0.2423877 0.2398235
 0.2403356 0.2443348 0.2495112 0.2534611 0.2556397 0.2568604 0.2578915 0.2587826 0.2588229 0.257076
 0.253709 0.2507691 0.2507343 0.2540594 0.2587476 0.262418 0.2642316 0.2647571 0.2646578 0.263993
 0.2626137 0.2608044 0.2592929 0.2586682 0.2589534 0.2597636 0.2607044 0.2615432 0.2621776 0.2626044
 0.2628849 0.2630717 0.2631931 0.2632939 0.2634044 0.2634689 0.2634074 0.2632774 0.2632742 0.2635099
 0.2638629 0.2641054 0.2641113 0.263859 0.2632996 0.2623629 0.2610921 0.2596458 0.2581172 0.2564665
 0.2547472 0.2533567 0.2529166 0.2538036 0.2557992 0.2582231 0.2603958 0.2619759 0.2629545 0.2634729
 0.2636923 0.2637511 0.2637399 0.2636858 0.2635746 0.2633879 0.2631199 0.2627759 0.2623743 0.2619542
 0.261568 0.2612528 0.2610005 0.2607567 0.2604534 0.2600501 0.259552 0.2589992 0.2584325 0.2578538
 0.2572128 0.2564489 0.2555543 0.2545922 0.2536542 0.2528006 0.2520313 0.2512963 0.2505353 0.2497119
 0.2488078 0.2477976 0.2466705 0.2454931 0.2444079 0.2435277 0.2428403 0.2422332 0.2415907 0.2408476
 0.239984 0.2390144 0.2379795 0.2369168 0.2358324 0.2347082 0.233525 0.2322703 0.2309364 0.2295193
 0.2280165 0.2264319 0.2247912 0.2231353 0.2214718 0.2197322 0.2177845 0.2154812 0.2126933 0.2093299
 0.2053675 0.200884 0.1960573 0.1911129 0.1862507 0.1816103 0.1772919 0.1733922 0.1700099 0.1672312
 0.1651199 0.1637144 0.1630282 0.1630573 0.1637853 0.1651713 0.1671375 0.1695744 0.17235 0.1753096
 0.1782809 0.1811058 0.1836904 0.1860404 0.1882333 0.1903321 0.1923223 0.1941426 0.1957618 0.1971937
 0.1984461 0.1994988 0.2003421 0.2010113 0.2015675 0.2020557 0.2024899 0.2028681 0.2031875 0.2034492
 0.2036611 0.2038426 0.2040173 0.2042013 0.2044019 0.2046243 0.2048762 0.2051715 0.205534 0.2059819
 0.206506 0.2070721 0.2076491 0.2082248 0.2088044 0.2094128 0.210098 0.2109153 0.2118998 0.2130516
 0.2143383 0.2157067 0.2170947 0.2184334 0.2196449 0.2206557 0.2214208 0.2219343 0.2222178 0.2223046
 0.2222301 0.2220266 0.2217218 0.2213405 0.2208999 0.2204037 0.219847 0.2192295 0.2185618 0.2178587
 0.2171325 0.2163956 0.2156679 0.2149723 0.214318 0.2136917 0.2130744 0.2124597 0.2118522 0.2112559
 0.2106728 0.2101055 0.2095522 0.2090025 0.208442 0.2078532 0.2072089 0.2064751 0.2056348 0.2047022
 0.2036994 0.2026226 0.2014478 0.2001659 0.1987949 0.1973531 0.1958437 0.1942691 0.1926384 0.1909471
 0.1891616 0.1872457 0.1852112 0.1831367 0.1811292 0.179265 0.1775655 0.1760123 0.1745701 0.1732014
 0.1718786 0.1705932 0.1693529 0.1681733 0.1670647 0.1660207 0.1650237 0.1640661 0.1631613 0.1623323
 0.1615975 0.160962 0.1604162 0.1599465 0.159549 0.1592249 0.1589704 0.1587863 0.1586856 0.1586691
 0.1586998 0.158718 0.1586805 0.1585844 0.1584645 0.1583622 0.15829 0.1582316 0.1581691 0.1580817
 0.1579209 0.1576076 0.1570546 0.1561893 0.1549849 0.1534851 0.1517809 0.1499707 0.1481601 0.1464718
 0.1450116 0.1438309 0.142929 0.1422646 0.1417628 0.1413537 0.1410252 0.1408266 0.1408188 0.1410007
 0.141264 0.1414492 0.141489 0.1414859 0.1416263 0.1420339 0.1426966 0.1434873 0.1442542 0.1449143
 0.1454529 0.1458542 0.1460957 0.1462011 0.1462251 0.1461876 0.1460762 0.1458891 0.1456381 0.1453371
 0.1450006 0.1446183 0.1441492 0.1435723 0.1429068 0.1421668 0.1413474 0.1404438 0.1394249 0.1382429
 0.1369576 0.1358059 0.1350767 0.134937 0.1353681 0.1361968 0.137208 0.1382794 0.1393431 0.1402072
 0.1406163 0.1406331 0.1408208 0.1418382 0.1438197 0.14623 0.1483385 0.1497579 0.1504964 0.1506626
 0.1503093 0.149474 0.1481544 0.1462836 0.1438681 0.1410678 0.1380664 0.1350072 0.1320709 0.1294395
 0.1271971 0.1253713 0.1239765 0.1230431 0.1226706 0.122473 0.1205731 0.1145664 0.105236 0.09822601
 0.09930552 0.1078931 0.117464 0.1224441 0.1226462 0.121008 0.1195674 0.118631 0.1180958 0.1181118
 0.1188069 0.120028 0.1213847 0.1224827 0.1231569 0.1234407 0.1232967 0.1223775 0.1199524 0.1151633
 0.1077228 0.09851491 0.08929703 0.08167684 0.07637668 0.07324921 0.0716536 0.07083647 0.0702935 0.06999145
 0.07024062 0.07132202 0.07325631 0.07589447 0.07907382 0.08255903 0.0859364 0.08878741 0.09099109 0.09271327
 0.09409571 0.0950904 0.09559464 0.09561088 0.09524228 0.09462102 0.09387075 0.09306908 0.09219186 0.09113915
 0.08990529 0.08871412 0.08787727 0.08749765 0.08740935 0.08740693 0.08740979 0.08740531 0.08737541 0.08731488
 0.08724681 0.08721898 0.08731427 0.08760731 0.08806736 0.08854844 0.08890448 0.08909905 0.08919872 0.08923644
 0.08907732 0.08853307 0.08768207 0.08689503 0.08636496 0.08578698 0.08476369 0.08342221 0.0823573 0.08198711
 0.0821777 0.08249491 0.08262382 0.08251016 0.08229958 0.08226173 0.08261902 0.08326998 0.08376598 0.08372793
</values></Ydata></ScRf><Data_Parameters_AB><parameter name="DPF">1</parameter><parameter name="NPT">3497</parameter><parameter name="FXV">3996</parameter><parameter name="LXV">500</parameter><parameter name="CSF">1</parameter><parameter name="MXY">0.185639604926109</parameter><parameter name="MNY">-0.0743597522377968</parameter><parameter name="DAT">30/05/2022</parameter><parameter name="TIM">12:21:58.335 (GMT+2)</parameter><parameter name="DXU">WN</parameter></Data_Parameters_AB><AB__Qtest><MainReport name="Quality Test Report"><Header><Line><Legend>Test result ok/not ok [1/0]: </Legend><Value>0</Value></Line><Line><Legend>Method file: </Legend><Value>C:\Users\Public\Documents\Bruker\OPUS_8.2.28\QT\IRBT_v3_default.QT</Value></Line></Header><Matrix><Line><Legend></Legend><Legend>min</Legend><Legend>max</Legend><Legend>measured</Legend></Line><Line><Value>Absorption (X-Range 1):</Value><Value>0.400000</Value><Value>2.000000</Value><Value>0.181913</Value></Line><Line><Value>Noise (X-Range 4):</Value><Value></Value><Value>0.000300</Value><Value>0.000067</Value></Line><Line><Value>Signal/Noise (X-Range 2):</Value><Value>200.000000</Value><Value></Value><Value>39.527882</Value></Line><Line><Value>Signal/Noise (X-Range 3):</Value><Value>40.000000</Value><Value></Value><Value>41.701658</Value></Line><Line><Value>Water vapour (X-Range 5):</Value><Value></Value><Value>0.000300</Value><Value>0.000093</Value></Line><Line><Value>Signal/Water (X-Range 2):</Value><Value>100.000000</Value><Value></Value><Value>28.815971</Value></Line><Line><Value>Signal/Water (X-Range 3):</Value><Value>20.000000</Value><Value></Value><Value>30.400662</Value></Line><Line><Value>Fringes (X-Range 6):</Value><Value></Value><Value>0.000100</Value><Value>0.000066</Value></Line></Matrix></MainReport></AB__Qtest><Data_Parameters_ScSm><parameter name="DPF">1</parameter><parameter name="NPT">1814</parameter><parameter name="FXV">3996.33169228125</parameter><parameter name="LXV">499.541461535156</parameter><parameter name="CSF">1</parameter><parameter name="MXY">0.299329161643982</parameter><parameter name="MNY">0.0358448140323162</parameter><parameter name="DAT">30/05/2022</parameter><parameter name="TIM">12:21:58.335 (GMT+2)</parameter><parameter name="DXU">WN</parameter></Data_Parameters_ScSm><Data_Parameters_ScRf><parameter name="DPF">1</parameter><parameter name="NPT">1820</parameter><parameter name="FXV">4004.04661832813</parameter><parameter name="LXV">495.683998511719</parameter><parameter name="CSF">1</parameter><parameter name="MXY">0.264757096767426</parameter><parameter name="MNY">0.0314792357385159</parameter><parameter name="DAT">30/05/2022</parameter><parameter name="TIM">12:21:30.434 (GMT+2)</parameter><parameter name="DXU">WN</parameter></Data_Parameters_ScRf><Optic_Parameters_Rf><parameter name="APR">0</parameter><parameter name="APT">Open</parameter><parameter name="BMS">KBr</parameter><parameter name="DTC">RT-DLaTGS_IR-Biotyper [Microplate reader]</parameter><parameter name="HPF">0</parameter><parameter name="LPF">10.0</parameter><parameter name="LPV">4000</parameter><parameter name="PGR">0</parameter><parameter name="RCH">Module port</parameter><parameter name="RDX">0</parameter><parameter name="SRC">MIR</parameter><parameter name="VEL">10.0</parameter><parameter name="SON">Off</parameter></Optic_Parameters_Rf><Acquisition_Parameters_Rf><parameter name="ADT">1</parameter><parameter name="AQM">DD</parameter><parameter name="CFE">0</parameter><parameter name="COR">0</parameter><parameter name="DEL">0</parameter><parameter name="DLY">0</parameter><parameter name="HFW">8000</parameter><parameter name="LFW">0</parameter><parameter name="NSR">32</parameter><parameter name="PLF">AB</parameter><parameter name="RES">6</parameter><parameter name="RGN">-1</parameter><parameter name="STR">0</parameter><parameter name="TCL">MakeCompatibleScalar (0, {WSV=1.000000, ARV=0});</parameter><parameter name="TDL">37</parameter><parameter name="RPO">0</parameter></Acquisition_Parameters_Rf><FT_-_Parameters_Rf><parameter name="APF">B3</parameter><parameter name="HFQ">500</parameter><parameter name="LFQ">4000</parameter><parameter name="NLI">0</parameter><parameter name="PHR">24</parameter><parameter name="PHZ">ML</parameter><parameter name="SPZ">NO</parameter><parameter name="ZFF">1</parameter></FT_-_Parameters_Rf><Optic_Parameters_><parameter name="APR">0</parameter><parameter name="APT">Open</parameter><parameter name="BMS">KBr</parameter><parameter name="CHN">Module port</parameter><parameter name="DTC">RT-DLaTGS_IR-Biotyper [Microplate reader]</parameter><parameter name="HPF">0</parameter><parameter name="LPF">10.0</parameter><parameter name="LPV">4000</parameter><parameter name="PGN">0</parameter><parameter name="RDX">0</parameter><parameter name="SRC">MIR</parameter><parameter name="VEL">10.0</parameter><parameter name="SON">Off</parameter></Optic_Parameters_><FT_-_Parameters_><parameter name="APF">B3</parameter><parameter name="HFQ">500</parameter><parameter name="LFQ">4000</parameter><parameter name="NLI">0</parameter><parameter name="PHR">24</parameter><parameter name="PHZ">ML</parameter><parameter name="SPZ">NO</parameter><parameter name="ZFF">1</parameter></FT_-_Parameters_><Acquisition_Parameters_><parameter name="ADT">1</parameter><parameter name="AQM">DD</parameter><parameter name="CFE">0</parameter><parameter name="COR">0</parameter><parameter name="DEL">0</parameter><parameter name="DLY">0</parameter><parameter name="HFW">8000</parameter><parameter name="LFW">0</parameter><parameter name="NSS">32</parameter><parameter name="PLF">AB</parameter><parameter name="RES">6</parameter><parameter name="SOT">0</parameter><parameter name="TCL">MakeCompatibleScalar (0, {WSV=1.000000, ARV=0});</parameter><parameter name="TDL">37</parameter><parameter name="SPO">0</parameter><parameter name="SGN">-1</parameter></Acquisition_Parameters_><Instrument_Parameters_Rf><parameter name="HFL">15800.168544</parameter><parameter name="LFL">0</parameter><parameter name="LWN">15800.168544</parameter><parameter name="ABP">32197</parameter><parameter name="SSP">1</parameter><parameter name="ARG">2</parameter><parameter name="ASG">2</parameter><parameter name="ASS">32</parameter><parameter name="GFW">16</parameter><parameter name="GBW">16</parameter><parameter name="BFW">0</parameter><parameter name="BBW">0</parameter><parameter name="PKA">7279</parameter><parameter name="PKL">4996</parameter><parameter name="PRA">7455</parameter><parameter name="PRL">5001</parameter><parameter name="P2A">1</parameter><parameter name="P2L">1</parameter><parameter name="P2R">1</parameter><parameter name="P2K">1</parameter><parameter name="DAQ">0</parameter><parameter name="AG2">1</parameter><parameter name="SSM">1</parameter><parameter name="RSN">25326</parameter><parameter name="CRR">0</parameter><parameter name="SRT">1653913290.434</parameter><parameter name="DUR">19.6369934082031</parameter><parameter name="TSC">28.2</parameter><parameter name="MVD">0.459565579891205</parameter><parameter name="AN1">0.225788234405473</parameter><parameter name="AN2">0</parameter><parameter name="VSN">2.485 Apr  4 2017</parameter><parameter name="SRN">0085</parameter><parameter name="CAM">0</parameter><parameter name="INS">IR-Biotyper</parameter><parameter name="FOC">69</parameter><parameter name="RDY">1</parameter><parameter name="ARS">32</parameter></Instrument_Parameters_Rf><Sample_Parameters_><parameter name="BLD"></parameter><parameter name="CNM">Admin</parameter><parameter name="CPY"></parameter><parameter name="DPM"></parameter><parameter name="EXP">IRBT_v3_32Scans.XPM</parameter><parameter name="LCT"></parameter><parameter name="SFM">Microplate, HTS-XT</parameter><parameter name="SNM">220530-1021_CLA33F (D_11)_F11_5c3e39f0-3508-486a-9c83-eee0686e3ee2.0</parameter><parameter name="XPP">C:\Users\Public\Documents\Bruker\OPUS_8.2.28\XPM</parameter><parameter name="IST">OK</parameter><parameter name="CPG">1252</parameter><parameter name="UID">486c0263-f31f-49a2-8810-a1f537d271e3</parameter></Sample_Parameters_><Instrument_Parameters_><parameter name="HFL">15800.168544</parameter><parameter name="LFL">0</parameter><parameter name="LWN">15800.168544</parameter><parameter name="ABP">32197</parameter><parameter name="SSP">1</parameter><parameter name="ASG">2</parameter><parameter name="ARG">2</parameter><parameter name="ASS">32</parameter><parameter name="GFW">16</parameter><parameter name="GBW">16</parameter><parameter name="BFW">0</parameter><parameter name="BBW">0</parameter><parameter name="PKA">7607</parameter><parameter name="PKL">4988</parameter><parameter name="PRA">7863</parameter><parameter name="PRL">4993</parameter><parameter name="P2A">1</parameter><parameter name="P2L">1</parameter><parameter name="P2R">1</parameter><parameter name="P2K">1</parameter><parameter name="DAQ">0</parameter><parameter name="AG2">1</parameter><parameter name="SSM">1</parameter><parameter name="RSN">13289</parameter><parameter name="CRR">0</parameter><parameter name="SRT">1653913318.336</parameter><parameter name="DUR">19.6369934082031</parameter><parameter name="TSC">28.8</parameter><parameter name="MVD">0.409097522497177</parameter><parameter name="AN1">0.225812182807977</parameter><parameter name="AN2">0</parameter><parameter name="VSN">2.485 Apr  4 2017</parameter><parameter name="SRN">0085</parameter><parameter name="CAM">0</parameter><parameter name="INS">IR-Biotyper</parameter><parameter name="FOC">69</parameter><parameter name="RDY">1</parameter></Instrument_Parameters_><History/></OPUSDataFile>
