<?xml version="1.0" encoding="UTF-8" ?>
<OPUSDataFile><AB><Ydata ylabel="Absorbance Units"><values byteorder="INTEL" format="FLOAT32" numvalues="3497"> -0.07887581 -0.07888431 -0.07889035 -0.07889457 -0.0788875 -0.07886867 -0.07883245 -0.07877966 -0.07871816 -0.07865047
 -0.07859593 -0.07855481 -0.07854036 -0.07854684 -0.0785684 -0.07859759 -0.07861813 -0.07863066 -0.07862721 -0.07861782
 -0.07860762 -0.07860446 -0.07861605 -0.07863791 -0.0786715 -0.07870563 -0.07873729 -0.07876216 -0.07877833 -0.07879081
 -0.07879982 -0.07881095 -0.07882449 -0.07883964 -0.0788561 -0.07886966 -0.07888049 -0.07888754 -0.07889141 -0.07889416
 -0.07889498 -0.07889352 -0.07888758 -0.07887294 -0.07884956 -0.07881439 -0.07877234 -0.07872533 -0.07868037 -0.07864227
 -0.07861316 -0.07859587 -0.07858612 -0.07858356 -0.07858346 -0.07858446 -0.0785881 -0.07859413 -0.07860818 -0.07863056
 -0.07866216 -0.07870242 -0.07874426 -0.0787871 -0.07882375 -0.07885473 -0.07887859 -0.07889506 -0.07890316 -0.07890144
 -0.0788857 -0.07885879 -0.07882041 -0.0787793 -0.0787423 -0.07871521 -0.07870548 -0.07870591 -0.07871716 -0.07872516
 -0.07872538 -0.07871477 -0.07869035 -0.07866606 -0.0786424 -0.07863837 -0.0786551 -0.07870317 -0.07878209 -0.07888854
 -0.07901946 -0.07915655 -0.07929368 -0.07939851 -0.079468 -0.07947445 -0.07942885 -0.07933354 -0.07920872 -0.07907896
 -0.07895686 -0.07886407 -0.07879323 -0.07874973 -0.07871095 -0.07866769 -0.07861269 -0.07853743 -0.07846852 -0.07840806
 -0.07838572 -0.07840673 -0.07846163 -0.07855034 -0.07863166 -0.07870484 -0.07874966 -0.07877061 -0.0787864 -0.07879987
 -0.07883422 -0.07888293 -0.07894357 -0.07900465 -0.07904373 -0.07905892 -0.07903622 -0.07898639 -0.07891383 -0.07882647
 -0.07873015 -0.07862809 -0.07852013 -0.07841938 -0.07832643 -0.07826535 -0.07823929 -0.07827213 -0.07836794 -0.07852823
 -0.07875391 -0.07896856 -0.07916579 -0.07922586 -0.07916058 -0.07898385 -0.07871805 -0.07845835 -0.07820747 -0.07801937
 -0.0778879 -0.0778287 -0.07782912 -0.07788504 -0.07797174 -0.07807035 -0.07815558 -0.07820403 -0.07821818 -0.07818898
 -0.07814454 -0.07809131 -0.07804482 -0.07801043 -0.07798187 -0.07795903 -0.07793578 -0.07791165 -0.07789263 -0.07787926
 -0.07788161 -0.0778991 -0.07793428 -0.07798332 -0.07803469 -0.07808161 -0.07810056 -0.07808944 -0.07803033 -0.07793406
 -0.07780334 -0.07765743 -0.07751209 -0.07738347 -0.07728572 -0.07722442 -0.07720811 -0.0772237 -0.07727353 -0.07732343
 -0.07736865 -0.07737942 -0.07735038 -0.07728568 -0.07718502 -0.07707468 -0.07695556 -0.07684455 -0.07674077 -0.07664642
 -0.07656093 -0.07648318 -0.07641385 -0.07635408 -0.07630459 -0.07626833 -0.07624244 -0.07622728 -0.07621229 -0.07618909
 -0.07614929 -0.07608122 -0.07599814 -0.07589892 -0.07581127 -0.07574432 -0.075706 -0.07570206 -0.07571188 -0.07573417
 -0.07574917 -0.0757555 -0.0757481 -0.07572695 -0.07569113 -0.07564131 -0.07558019 -0.07551035 -0.07544348 -0.07538129
 -0.07533533 -0.07530287 -0.07528518 -0.07527697 -0.07527247 -0.07526723 -0.0752537 -0.07523586 -0.07521129 -0.07519411
 -0.07519046 -0.0752056 -0.07524702 -0.07528961 -0.07533246 -0.07533827 -0.07530152 -0.07521548 -0.07507919 -0.07490279
 -0.07468698 -0.07444124 -0.07417011 -0.07390863 -0.07366337 -0.07348159 -0.07336126 -0.07332601 -0.0733588 -0.0734475
 -0.07355799 -0.07364126 -0.07368062 -0.07363425 -0.07353432 -0.07338484 -0.07322588 -0.07307913 -0.07294925 -0.07284733
 -0.07273988 -0.07262298 -0.07246725 -0.07226573 -0.07203998 -0.07179039 -0.07156488 -0.07136462 -0.07121187 -0.0711031
 -0.07102689 -0.07097528 -0.07091164 -0.07082817 -0.07067989 -0.07047855 -0.07021924 -0.06992928 -0.06964631 -0.06937291
 -0.06913032 -0.06889433 -0.06865671 -0.06839754 -0.06810246 -0.06777916 -0.06742398 -0.06706198 -0.06669748 -0.06634601
 -0.06601132 -0.06568524 -0.06536802 -0.06502607 -0.06465802 -0.06423529 -0.0637631 -0.06326576 -0.06274974 -0.06225841
 -0.06178533 -0.06133556 -0.06090022 -0.06046575 -0.0600256 -0.05956994 -0.05908357 -0.05855069 -0.05795908 -0.05728997
 -0.05656425 -0.05578469 -0.05497539 -0.0541486 -0.05329107 -0.05239996 -0.05147895 -0.05052516 -0.04957936 -0.04864438
 -0.04773588 -0.04685312 -0.04597649 -0.04510562 -0.04422877 -0.04334819 -0.04246819 -0.0415885 -0.04071074 -0.03983307
 -0.03895572 -0.03806928 -0.03717191 -0.03622564 -0.03519817 -0.03405697 -0.0327479 -0.03134914 -0.02986738 -0.02842307
 -0.02706623 -0.02579419 -0.02462095 -0.02348212 -0.02237091 -0.02125141 -0.02012027 -0.01897399 -0.01781313 -0.01665222
 -0.01549148 -0.01434462 -0.01320154 -0.01203123 -0.01081486 -0.009471044 -0.008023122 -0.006459378 -0.004852777 -0.00330858
 -0.001831668 -0.0004803766 0.0008144864 0.002080532 0.003365946 0.004707023 0.006088582 0.007517595 0.008952715 0.01038432
 0.01180395 0.01320714 0.01461847 0.0160392 0.01749441 0.01898389 0.0204982 0.02203235 0.02354039 0.02502357
 0.02645873 0.02785943 0.029252 0.03064568 0.03207293 0.03352933 0.03502305 0.03654564 0.03809424 0.03965573
 0.04122372 0.04278014 0.04431133 0.04582543 0.04731549 0.04882574 0.05036544 0.05195374 0.053599 0.05525379
 0.05691556 0.05853926 0.06012469 0.06168314 0.06321788 0.06476001 0.06630984 0.06788644 0.069485 0.07110444
 0.0727344 0.07435239 0.07595769 0.07753234 0.07910198 0.08068184 0.08229836 0.0839834 0.085712 0.08748849
 0.08925778 0.09099925 0.09270403 0.09436366 0.09600246 0.09762265 0.09923922 0.1008533 0.1024778 0.1041133
 0.1057715 0.1074503 0.1091381 0.1108316 0.1125068 0.1141672 0.1158089 0.1174408 0.1190785 0.1207275
 0.1224031 0.1241034 0.1258345 0.127585 0.1293508 0.1311182 0.1328783 0.1346307 0.1363727 0.1381114
 0.1398493 0.1415807 0.143306 0.1450121 0.1466979 0.1483573 0.14999 0.1515893 0.1531563 0.1546937
 0.1562102 0.1577469 0.1593091 0.1609421 0.1626254 0.1643451 0.1660709 0.1677491 0.1693816 0.1709436
 0.1724685 0.1739705 0.1754751 0.1770017 0.1785446 0.1801115 0.1816659 0.1832036 0.1846852 0.1861016
 0.1874623 0.1887654 0.1900746 0.1913924 0.1927626 0.1941811 0.1956318 0.1971109 0.1985929 0.2000784
 0.2015594 0.2030292 0.2044708 0.2058796 0.2072362 0.2085584 0.2098548 0.211144 0.2124467 0.2137512
 0.2150588 0.2163514 0.2176194 0.2188731 0.2201109 0.2213577 0.2226175 0.2238976 0.2252001 0.2264949
 0.2277793 0.2289913 0.2301313 0.2311688 0.2321215 0.2330529 0.2339815 0.2350049 0.2361054 0.2373021
 0.2385514 0.2397956 0.2410196 0.2421798 0.2433005 0.2443855 0.2454558 0.2465257 0.2475924 0.2486591
 0.2497132 0.2507528 0.2517664 0.2527513 0.253708 0.2546356 0.2555526 0.2564598 0.2573711 0.2582839
 0.259182 0.26006 0.2608819 0.2616467 0.2623281 0.2629388 0.2634848 0.263996 0.2645154 0.2650684
 0.2657026 0.2664062 0.2671922 0.2680202 0.2688739 0.2697289 0.2705733 0.2714004 0.2722095 0.2729808
 0.2737119 0.2743858 0.275 0.2755708 0.2760993 0.2766102 0.2771024 0.2775734 0.2780219 0.2784371
 0.2788236 0.2791888 0.2795395 0.2798932 0.280252 0.2806295 0.2810164 0.281413 0.2817964 0.2821502
 0.2824633 0.2827184 0.2829461 0.2831487 0.2833702 0.2836245 0.2839141 0.2842443 0.2845811 0.2849223
 0.285244 0.2855453 0.2858204 0.2860684 0.2862794 0.2864524 0.2865762 0.2866553 0.2866952 0.2867049
 0.2867058 0.2867029 0.2867159 0.2867374 0.2867701 0.2867973 0.2868063 0.2867931 0.2867467 0.2866914
 0.2866307 0.2865932 0.2865884 0.2866142 0.2866741 0.2867384 0.2868054 0.2868443 0.2868537 0.2868165
 0.2867334 0.2866056 0.2864352 0.2862353 0.2860057 0.2857521 0.2854748 0.2851723 0.2848569 0.2845437
 0.2842499 0.2840044 0.2837975 0.2836391 0.2834891 0.2833302 0.2831378 0.2828935 0.28262 0.2823158
 0.2820229 0.2817485 0.2815062 0.2812994 0.2810986 0.2809021 0.2806633 0.2803822 0.2800384 0.2796394
 0.2792115 0.2787651 0.2783482 0.2779616 0.2776331 0.2773495 0.2771058 0.2768827 0.2766582 0.2764212
 0.2761531 0.275864 0.2755498 0.2752377 0.2749357 0.2746625 0.2744251 0.2742233 0.2740573 0.2739299
 0.2738406 0.2738079 0.2738324 0.2739184 0.2740618 0.2742235 0.274395 0.2745104 0.2745666 0.2745141
 0.2743668 0.2741222 0.2738132 0.2734835 0.2731661 0.272918 0.2727338 0.2726408 0.2725801 0.2725369
 0.2724392 0.2722556 0.2719628 0.2715414 0.2710378 0.270451 0.2698614 0.2692757 0.2687503 0.2682876
 0.2678877 0.2675473 0.2672295 0.2669325 0.2666261 0.2663149 0.2659976 0.2656797 0.2653762 0.2650787
 0.2647889 0.2644763 0.2641134 0.2636663 0.2630948 0.2624064 0.2615811 0.2606847 0.2597293 0.2587906
 0.2578911 0.2570572 0.2562992 0.2555982 0.2549541 0.2543417 0.2537596 0.2531795 0.2525994 0.2519849
 0.2513401 0.2506636 0.2499699 0.2493091 0.2486836 0.2481351 0.2476293 0.2471376 0.2466165 0.2459984
 0.2452918 0.2444636 0.2435922 0.2427002 0.2418771 0.2411656 0.2405848 0.2401601 0.2398105 0.239535
 0.2392055 0.2388097 0.2382735 0.2375935 0.2368079 0.2359247 0.2350469 0.2341776 0.2333892 0.2326718
 0.2320315 0.2314575 0.230928 0.2304385 0.2299747 0.2295288 0.2290904 0.2286454 0.2281799 0.2276861
 0.2271546 0.2265912 0.2259962 0.2253738 0.224728 0.2240437 0.2233213 0.2225323 0.2216741 0.2207283
 0.2196941 0.2185791 0.2173862 0.2161471 0.2148667 0.2135876 0.2123138 0.2110821 0.2098917 0.2087607
 0.2076816 0.2066527 0.2056617 0.2046965 0.2037437 0.2027898 0.2018262 0.2008425 0.1998445 0.1988289
 0.1978157 0.1968091 0.1958232 0.1948626 0.1939197 0.192995 0.1920702 0.1911447 0.1902106 0.1892683
 0.1883202 0.1873659 0.1864058 0.1854397 0.1844658 0.1834864 0.182505 0.1815247 0.1805527 0.1795897
 0.1786395 0.1777022 0.1767762 0.1758713 0.174987 0.1741496 0.1733679 0.172661 0.1720433 0.1714765
 0.1709657 0.1704048 0.1697858 0.1690136 0.1680833 0.1670054 0.1657894 0.164553 0.1633074 0.1621829
 0.1611716 0.1603247 0.1596076 0.1589731 0.1583752 0.1577169 0.1569809 0.1560957 0.1551083 0.1540184
 0.1529134 0.1518424 0.1508486 0.1499711 0.1491656 0.1484324 0.1477087 0.1469786 0.1462533 0.1455286
 0.1448783 0.1443061 0.1438493 0.1435017 0.1431995 0.1429278 0.1425649 0.1421085 0.1414773 0.1406986
 0.1397884 0.1387886 0.1377779 0.136771 0.1358241 0.1349079 0.1340179 0.1331265 0.1322068 0.1312866
 0.1303641 0.1294909 0.1286862 0.127944 0.1272719 0.1266089 0.1259484 0.1252677 0.1245651 0.1238932
 0.1232543 0.1226974 0.1222136 0.1217778 0.1213766 0.1209456 0.1204868 0.1199688 0.1194094 0.1188244
 0.1182271 0.1176438 0.1170646 0.1164974 0.1159071 0.11528 0.1145808 0.1137874 0.1129081 0.1119304
 0.1109254 0.109898 0.1089388 0.108059 0.107289 0.106631 0.1060226 0.1054577 0.1048381 0.1041657
 0.1033956 0.1025455 0.1016535 0.100739 0.09987127 0.09905013 0.09831135 0.09763318 0.09700634 0.09640665
 0.09581012 0.0952083 0.09458671 0.09395733 0.09331853 0.09269445 0.09209106 0.09152416 0.091001 0.09050045
 0.09002389 0.08951369 0.08896659 0.08834091 0.08763926 0.08688847 0.08609758 0.08533882 0.08461075 0.08395164
 0.08334289 0.08275767 0.08218335 0.08157961 0.08096208 0.08032876 0.07970896 0.07912742 0.07859706 0.07813418
 0.07773297 0.07739459 0.07711355 0.07688884 0.07671645 0.0765977 0.07651407 0.07646566 0.07641432 0.07635795
 0.07625121 0.07609232 0.07584623 0.075515 0.07509071 0.07458204 0.07401368 0.07339904 0.07278149 0.07217298
 0.07161307 0.07110688 0.07067744 0.07031965 0.07004001 0.06982162 0.06965923 0.06953153 0.06942915 0.06933989
 0.0692575 0.06918407 0.06911763 0.06907164 0.06904593 0.06906789 0.06913893 0.0693002 0.06955303 0.06992673
 0.07041563 0.07100211 0.07167214 0.07236417 0.07306833 0.07372614 0.07434367 0.07490198 0.07541817 0.07590532
 0.07637611 0.07684664 0.07731874 0.07779954 0.07828127 0.07876591 0.0792324 0.07968028 0.08006963 0.0803965
 0.08061241 0.08071163 0.08066588 0.0804728 0.0801468 0.07969122 0.07915936 0.07855641 0.07794271 0.07731951
 0.07672279 0.07615278 0.07562363 0.07514599 0.07474001 0.07442623 0.07423839 0.07418551 0.07429166 0.07454031
 0.07493255 0.07543895 0.07605106 0.07673799 0.0774956 0.07827578 0.0790747 0.07982317 0.08051406 0.0810938
 0.08155844 0.08189741 0.08211058 0.08219874 0.08215749 0.08195781 0.08159417 0.08102429 0.08025765 0.07928947
 0.07814901 0.07688182 0.075518 0.07411505 0.07268011 0.07124339 0.06978552 0.06830612 0.06677836 0.06518987
 0.06353086 0.061792 0.05999343 0.05813271 0.05625877 0.05437426 0.05254253 0.05076763 0.04909724 0.04753154
 0.04607658 0.04472798 0.04345879 0.04226635 0.04112574 0.04003807 0.03899549 0.0379954 0.03703131 0.03609657
 0.03517811 0.03427898 0.03339281 0.03253892 0.03172493 0.03097162 0.03028998 0.02968789 0.02917056 0.02873509
 0.0283822 0.02810517 0.02790339 0.02777177 0.02770999 0.02771564 0.02778728 0.02790431 0.02805753 0.02817714
 0.0282481 0.02816921 0.02794173 0.02750608 0.02689886 0.026148 0.02531174 0.02447079 0.02367106 0.022982
 0.02241498 0.02200201 0.02171721 0.02156429 0.02149069 0.02148756 0.0214943 0.02150125 0.02145356 0.02134583
 0.02112477 0.02078709 0.02027452 0.01958459 0.01867011 0.01753523 0.01617876 0.01462028 0.01292886 0.01113937
 0.009375878 0.007665531 0.006123592 0.00473339 0.003533574 0.002460317 0.001474351 0.0005180849 -0.0004633513 -0.001465241
 -0.002507004 -0.003536799 -0.004543614 -0.005491178 -0.006367545 -0.007179097 -0.007923904 -0.008626094 -0.00928718 -0.009921899
 -0.01053053 -0.0111164 -0.01167954 -0.01222177 -0.01274354 -0.01324841 -0.01373526 -0.01420399 -0.01465061 -0.0150668
 -0.01545235 -0.01579938 -0.01612169 -0.01642473 -0.01673216 -0.01706104 -0.01742134 -0.01782663 -0.01825635 -0.01871159
 -0.01915283 -0.01957292 -0.01994542 -0.02026431 -0.0205396 -0.02077095 -0.02099526 -0.02121393 -0.02145329 -0.02171082
 -0.02197939 -0.02225672 -0.02252613 -0.02279471 -0.02307194 -0.02336771 -0.02370959 -0.02408979 -0.02451595 -0.02495974
 -0.02540006 -0.02581207 -0.02617144 -0.02647711 -0.02671958 -0.02691704 -0.0270702 -0.0272065 -0.02732904 -0.02747061
 -0.02763528 -0.02784598 -0.02810514 -0.02840491 -0.02874371 -0.02908701 -0.02943292 -0.02975029 -0.03004136 -0.03029855
 -0.03052609 -0.03073169 -0.03091789 -0.03109267 -0.03125771 -0.03141794 -0.03157551 -0.0317347 -0.03189437 -0.03205648
 -0.03221416 -0.03236484 -0.03250397 -0.03262727 -0.03274526 -0.03285708 -0.03298638 -0.03313597 -0.03332134 -0.03354428
 -0.03379485 -0.03407177 -0.03434722 -0.03462008 -0.03486821 -0.0350938 -0.0352938 -0.03547214 -0.03563816 -0.03579403
 -0.03594893 -0.03610135 -0.03625328 -0.03640219 -0.03654514 -0.03668451 -0.03681878 -0.03695806 -0.0371055 -0.03727171
 -0.03746172 -0.03767501 -0.03791412 -0.03816445 -0.03842511 -0.03867882 -0.03892415 -0.0391551 -0.03937184 -0.03958158
 -0.03978504 -0.03999174 -0.04020079 -0.04041363 -0.04062818 -0.04083925 -0.04104598 -0.041244 -0.04143421 -0.04161609
 -0.04179052 -0.041958 -0.04211973 -0.04227568 -0.04243009 -0.04258392 -0.04274366 -0.04291182 -0.04309037 -0.04328138
 -0.04347684 -0.0436766 -0.04386797 -0.04404989 -0.04421788 -0.04437207 -0.04451885 -0.04465815 -0.04479303 -0.04492143
 -0.04503488 -0.04513358 -0.04521109 -0.04527495 -0.04533564 -0.04540215 -0.04549296 -0.04560714 -0.04575272 -0.04591898
 -0.04610176 -0.04629165 -0.04648275 -0.04667309 -0.04686056 -0.04704705 -0.04723251 -0.04741942 -0.0476082 -0.04779937
 -0.04799315 -0.04818451 -0.04837311 -0.04855156 -0.04872008 -0.048877 -0.04902352 -0.04916439 -0.04929997 -0.04943403
 -0.04956558 -0.04969405 -0.04981964 -0.04994179 -0.05006263 -0.05018418 -0.05030721 -0.05043358 -0.05056062 -0.05068792
 -0.05081192 -0.05093073 -0.05104576 -0.05115611 -0.05126922 -0.0513858 -0.05151243 -0.05164992 -0.05179517 -0.05194775
 -0.05209654 -0.05224105 -0.05237187 -0.05249028 -0.05259634 -0.05269332 -0.05279016 -0.05289057 -0.05300672 -0.05313871
 -0.05329387 -0.05346467 -0.05364861 -0.0538329 -0.05400844 -0.05416714 -0.05430135 -0.05441516 -0.05450667 -0.05458844
 -0.05466242 -0.05473926 -0.05482088 -0.05491042 -0.05500839 -0.05511214 -0.05522151 -0.05533328 -0.05544733 -0.0555618
 -0.05567624 -0.05578774 -0.05589576 -0.05599667 -0.05609133 -0.0561791 -0.05626269 -0.05634591 -0.05642985 -0.05651798
 -0.05660707 -0.05669651 -0.05678182 -0.05686019 -0.05693149 -0.05699432 -0.0570532 -0.05710838 -0.0571661 -0.05722716
 -0.05729637 -0.05737427 -0.05746164 -0.05755837 -0.0576591 -0.05776331 -0.05786374 -0.05796061 -0.05805089 -0.05813561
 -0.05821659 -0.05829397 -0.05836914 -0.0584412 -0.05850916 -0.05857322 -0.058633 -0.05868956 -0.05874393 -0.0587954
 -0.05884403 -0.05888855 -0.05892781 -0.05896472 -0.05899905 -0.0590374 -0.05908086 -0.05913167 -0.05919035 -0.05925132
 -0.05931431 -0.05937328 -0.05942857 -0.05948087 -0.05953091 -0.05958312 -0.05963673 -0.05969214 -0.05974734 -0.05979784
 -0.05984364 -0.05988188 -0.05991589 -0.05994773 -0.05998063 -0.06001835 -0.0600592 -0.06010399 -0.06014799 -0.06018934
 -0.06022735 -0.06026068 -0.06029518 -0.06033138 -0.06037468 -0.06042584 -0.06048214 -0.06054329 -0.06060047 -0.06065342
 -0.06069611 -0.06072954 -0.06075501 -0.06077425 -0.06079322 -0.06081292 -0.06083847 -0.06086948 -0.0609081 -0.06095201
 -0.06100006 -0.06104918 -0.06109636 -0.06114177 -0.06118359 -0.06122725 -0.06127391 -0.06132867 -0.06139386 -0.06146595
 -0.06154558 -0.06162143 -0.06169264 -0.06175076 -0.06179551 -0.06182866 -0.06185102 -0.06187113 -0.06188958 -0.06191393
 -0.0619435 -0.06198052 -0.06202315 -0.06206898 -0.06211572 -0.06215904 -0.06219749 -0.06222754 -0.06225035 -0.06226499
 -0.0622751 -0.06228188 -0.06228925 -0.06229881 -0.0623125 -0.06233098 -0.06235525 -0.06238545 -0.0624231 -0.06246846
 -0.06252041 -0.0625788 -0.06263672 -0.06269364 -0.06274135 -0.06278042 -0.06280913 -0.06282925 -0.0628455 -0.06285894
 -0.06287424 -0.06289137 -0.0629123 -0.06293671 -0.06296524 -0.06299663 -0.06303063 -0.0630646 -0.06309704 -0.06312697
 -0.06315341 -0.06317803 -0.06320116 -0.06322358 -0.06324561 -0.06326611 -0.06328495 -0.06330267 -0.06331935 -0.0633385
 -0.06336015 -0.06338621 -0.06341602 -0.06344737 -0.06347934 -0.06350777 -0.06353233 -0.06355012 -0.06356181 -0.06356698
 -0.06356692 -0.06356301 -0.06355556 -0.0635454 -0.06353182 -0.06351446 -0.06349359 -0.06346872 -0.06344261 -0.06341559
 -0.063391 -0.06336944 -0.06335232 -0.0633399 -0.06333146 -0.06332695 -0.06332446 -0.06332389 -0.06332357 -0.06332368
 -0.06332409 -0.06332522 -0.06332851 -0.06333365 -0.06334103 -0.06334903 -0.06335566 -0.06335881 -0.06335519 -0.06334463
 -0.06332495 -0.0633003 -0.06327119 -0.06324469 -0.06322364 -0.06321106 -0.06320934 -0.06321243 -0.06322031 -0.06322327
 -0.06322026 -0.06320832 -0.06318739 -0.0631642 -0.06313939 -0.0631221 -0.0631123 -0.06311474 -0.06312841 -0.06315254
 -0.06318616 -0.06322618 -0.06327353 -0.06332663 -0.06339145 -0.06347094 -0.0635785 -0.06372248 -0.06391979 -0.06418172
 -0.06451514 -0.0649285 -0.06540618 -0.06594856 -0.06652773 -0.06713925 -0.06776836 -0.06841299 -0.06907392 -0.06975074
 -0.07041562 -0.0710617 -0.07160385 -0.0720336 -0.07225649 -0.07227845 -0.07206485 -0.07163598 -0.0710116 -0.07022914
 -0.06934317 -0.0684124 -0.06751808 -0.06670208 -0.06602333 -0.06548933 -0.06511947 -0.06490699 -0.06485663 -0.06494761
 -0.06518513 -0.06550061 -0.06589244 -0.06624328 -0.06654173 -0.06671969 -0.06677376 -0.06672889 -0.06658866 -0.06640129
 -0.06616871 -0.06592549 -0.06567199 -0.06542814 -0.06519213 -0.0649699 -0.06475883 -0.06455814 -0.06436384 -0.06417304
 -0.06397758 -0.06377086 -0.0635464 -0.06329705 -0.06302834 -0.06273858 -0.06244268 -0.06214312 -0.06185408 -0.06157786
 -0.06132454 -0.06109549 -0.06089354 -0.06071883 -0.06056163 -0.06042088 -0.06028032 -0.06014021 -0.05999283 -0.05984107
 -0.05969056 -0.05954399 -0.05941099 -0.05929058 -0.05918675 -0.05909408 -0.05900885 -0.0589248 -0.05883527 -0.05873921
 -0.05863283 -0.05852251 -0.0584091 -0.05830037 -0.05819866 -0.05810691 -0.05802628 -0.05795476 -0.0578924 -0.05783563
 -0.05778426 -0.05773399 -0.05768459 -0.0576318 -0.0575756 -0.05751341 -0.0574457 -0.05737251 -0.05729477 -0.05721433
 -0.05713258 -0.05705252 -0.056975 -0.05690264 -0.05683406 -0.05676964 -0.05670605 -0.05664148 -0.05657437 -0.05650298
 -0.05643033 -0.05635636 -0.05628642 -0.05622161 -0.05616337 -0.05611231 -0.0560629 -0.05601486 -0.05595987 -0.05589781
 -0.05582473 -0.05574158 -0.05565146 -0.05555581 -0.05546116 -0.05536826 -0.05528232 -0.05520267 -0.05513094 -0.0550651
 -0.05500377 -0.05494452 -0.05488506 -0.05482401 -0.05475991 -0.05469269 -0.05462182 -0.05454831 -0.05447202 -0.05439557
 -0.05431931 -0.05424552 -0.05417468 -0.05410481 -0.05403584 -0.05396359 -0.05388828 -0.05381128 -0.05373368 -0.05366313
 -0.05359956 -0.05354762 -0.0535046 -0.05346657 -0.05343082 -0.05339058 -0.05334634 -0.05329568 -0.05324082 -0.05318288
 -0.05312311 -0.05306238 -0.05300169 -0.0529412 -0.05288331 -0.05282854 -0.05277905 -0.05273572 -0.05269618 -0.05266053
 -0.05262279 -0.05258263 -0.05253756 -0.05248791 -0.05243766 -0.05238721 -0.05234135 -0.05229906 -0.05225937 -0.05222061
 -0.05217797 -0.05213134 -0.05207795 -0.05201955 -0.05195679 -0.05189196 -0.05182697 -0.05176356 -0.05170321 -0.05164657
 -0.05159411 -0.05154641 -0.05150346 -0.05146683 -0.05143673 -0.05141464 -0.05140103 -0.05139247 -0.05138882 -0.05138161
 -0.05137052 -0.05134865 -0.05131677 -0.05127563 -0.05122713 -0.05117856 -0.05113128 -0.05109284 -0.05106203 -0.05104109
 -0.05102593 -0.05101292 -0.05099833 -0.05097718 -0.05095023 -0.05091574 -0.05087831 -0.0508392 -0.05080221 -0.05076887
 -0.05073935 -0.05071421 -0.0506909 -0.05066932 -0.05064598 -0.05062065 -0.05059113 -0.05055755 -0.05052128 -0.05048303
 -0.05044794 -0.0504165 -0.05039363 -0.05037842 -0.05037176 -0.05037107 -0.05037275 -0.05037392 -0.05036952 -0.05035881
 -0.05033883 -0.05031227 -0.05027936 -0.05024398 -0.05020773 -0.05017268 -0.05013964 -0.05010961 -0.05008267 -0.05006108
 -0.0500451 -0.050036 -0.05003393 -0.05003485 -0.05003834 -0.05003688 -0.05003058 -0.05001589 -0.04999433 -0.0499697
 -0.04994337 -0.04992102 -0.0499022 -0.04988872 -0.04987973 -0.04987443 -0.04987386 -0.04987866 -0.04988958 -0.04990842
 -0.04993082 -0.0499564 -0.0499779 -0.04999297 -0.04999911 -0.0499948 -0.04998508 -0.04997017 -0.04995611 -0.04994332
 -0.04993128 -0.04991969 -0.04990314 -0.04988182 -0.04985374 -0.04982028 -0.04978576 -0.049751 -0.04972081 -0.04969402
 -0.0496708 -0.04965003 -0.04963 -0.04961143 -0.04959443 -0.04957938 -0.04956709 -0.04955564 -0.04954441 -0.04953212
 -0.04951787 -0.04950331 -0.04948852 -0.04947545 -0.04946444 -0.04945502 -0.04944719 -0.04943991 -0.04943311 -0.04942567
 -0.04941749 -0.04940704 -0.04939471 -0.04938079 -0.0493665 -0.04935556 -0.04934752 -0.0493443 -0.04934232 -0.04933783
 -0.04932846 -0.04930908 -0.04928494 -0.04925611 -0.04923281 -0.04921987 -0.04922058 -0.04923883 -0.04926411 -0.04929616
 -0.04931925 -0.04933117 -0.04932706 -0.04930631 -0.04928032 -0.04924991 -0.0492303 -0.0492207 -0.04922383 -0.04923672
 -0.04924891 -0.04925906 -0.04925729 -0.04924658 -0.04922726 -0.04920345 -0.04918101 -0.04916057 -0.04914536 -0.04913263
 -0.04912142 -0.04911038 -0.04909835 -0.04908651 -0.04907532 -0.04906394 -0.04905278 -0.04903729 -0.04901699 -0.04898848
 -0.04895143 -0.04890893 -0.04886134 -0.04881588 -0.04877243 -0.04873421 -0.04869981 -0.0486652 -0.04862953 -0.04858747
 -0.04854147 -0.04849288 -0.04844568 -0.04840625 -0.04837446 -0.04835344 -0.04833862 -0.04832805 -0.04831868 -0.04830853
 -0.04829741 -0.04828568 -0.04826944 -0.04824846 -0.04821653 -0.04817238 -0.04811813 -0.04805363 -0.04798996 -0.04792748
 -0.04787347 -0.04782706 -0.04778551 -0.04774792 -0.04770894 -0.0476691 -0.04762713 -0.04758387 -0.04754026 -0.04749681
 -0.0474541 -0.04741362 -0.0473767 -0.0473448 -0.04732006 -0.04729995 -0.04728531 -0.04726797 -0.04724609 -0.04721259
 -0.04716506 -0.04710537 -0.04703286 -0.04695675 -0.04687755 -0.04680377 -0.04673558 -0.04667547 -0.04662276 -0.04657387
 -0.04652759 -0.04647672 -0.04642121 -0.04635601 -0.04628446 -0.04620956 -0.04613613 -0.04607239 -0.04601865 -0.04597963
 -0.04594906 -0.04592492 -0.04590056 -0.04587198 -0.04583874 -0.04579942 -0.04575766 -0.04571405 -0.04567024 -0.04562663
 -0.04558245 -0.04553764 -0.04549251 -0.04544721 -0.04540474 -0.04536514 -0.04533064 -0.04530038 -0.04527213 -0.04524479
 -0.04521368 -0.04517969 -0.04514203 -0.0451026 -0.0450643 -0.04502622 -0.04498941 -0.04495003 -0.0449058 -0.04485499
 -0.04479555 -0.0447303 -0.04465915 -0.04458721 -0.04451526 -0.04444809 -0.04438664 -0.04433085 -0.04428096 -0.04422951
 -0.04417611 -0.04411351 -0.04404244 -0.04396496 -0.04388284 -0.04380494 -0.04373175 -0.04366968 -0.04361711 -0.04357441
 -0.0435388 -0.04350733 -0.04347653 -0.04344252 -0.04340247 -0.04335336 -0.04329465 -0.04322504 -0.04314645 -0.04305867
 -0.04296589 -0.04286844 -0.04277205 -0.04267745 -0.04258832 -0.04250503 -0.04242768 -0.04235636 -0.04229243 -0.04223631
 -0.04219238 -0.04215997 -0.04213974 -0.04212817 -0.04211678 -0.04210069 -0.04206617 -0.04201199 -0.04192891 -0.04182345
 -0.04169658 -0.0415596 -0.04141958 -0.04128477 -0.04116129 -0.0410493 -0.04095067 -0.04086085 -0.04077891 -0.0407038
 -0.04063501 -0.04057557 -0.04052569 -0.04048683 -0.04045892 -0.04043967 -0.04042807 -0.0404159 -0.04040049 -0.04036513
 -0.04030929 -0.04022 -0.04010497 -0.03997223 -0.03983009 -0.03969501 -0.03956531 -0.03944557 -0.03933141 -0.0392203
 -0.03911268 -0.03900806 -0.03890752 -0.03881184 -0.03871873 -0.03862781 -0.03853789 -0.0384489 -0.03835924 -0.03826894
 -0.03817141 -0.03806646 -0.0379514 -0.03782711 -0.0377001 -0.0375707 -0.03744439 -0.03731951 -0.03719381 -0.03706665
 -0.03693492 -0.03680089 -0.03666591 -0.03653324 -0.03640627 -0.03628756 -0.03618076 -0.03608333 -0.03599708 -0.03591105
 -0.03582316 -0.03572135 -0.03560207 -0.03546354 -0.03530425 -0.03513336 -0.03495129 -0.03476899 -0.0345869 -0.03441152
 -0.03424215 -0.03407654 -0.03391241 -0.03373744 -0.0335518 -0.0333481 -0.03313124 -0.03290858 -0.0326809 -0.03245401
 -0.03222236 -0.03198136 -0.03173118 -0.03146801 -0.03120227 -0.03093788 -0.03068149 -0.03043744 -0.03020132 -0.02997413
 -0.02974436 -0.02951185 -0.0292565 -0.02897684 -0.02865678 -0.02829636 -0.02790811 -0.02749349 -0.02707223 -0.02664089
 -0.02619408 -0.02572739 -0.0252235 -0.02468434 -0.02410455 -0.02348988 -0.0228457 -0.02217734 -0.0214906 -0.02079243
 -0.02009035 -0.01938356 -0.01867713 -0.01795358 -0.01720664 -0.01643286 -0.01562458 -0.01482163 -0.01402785 -0.01327644
 -0.01257143 -0.01190086 -0.01126411 -0.0106452 -0.01004517 -0.009469662 -0.008916172 -0.008380185 -0.007849433 -0.007286085
 -0.006678977 -0.005981983 -0.005206008 -0.004342384 -0.003416964 -0.002454698 -0.001463976 -0.0004597845 0.0005635378 0.001607399
 0.002667638 0.003744349 0.004827688 0.005909958 0.007019728 0.008152043 0.009408289 0.01079623 0.01238939 0.01418646
 0.01606521 0.01801509 0.01987926 0.02167674 0.02341693 0.02512239 0.02686974 0.02865862 0.03052366 0.03245978
 0.03446254 0.03656169 0.03876879 0.04115769 0.04378443 0.04668647 0.04993021 0.05338307 0.05704198 0.06067819
 0.0642352 0.06761876 0.07080081 0.07381976 0.07667419 0.0794447 0.08213738 0.08489363 0.08772843 0.09085918
 0.09426253 0.09798032 0.1018992 0.1056676 0.1092681 0.1124547 0.1153639 0.1180945 0.1207409 0.1234506
 0.1262154 0.1290766 0.1319981 0.1349673 0.1379788 0.1410398 0.1440914 0.1471302 0.1500614 0.1528637
 0.1555569 0.1581391 0.1606789 0.1631768 0.1655707 0.1678518 0.1699006 0.1717322 0.1733529 0.1747961
 0.1761777 0.1774979 0.1788292 0.1801163 0.1812978 0.1823658 0.1832709 0.1840784 0.1848222 0.1855384
 0.1862632 0.1869691 0.1876575 0.1882874 0.1888463 0.1893323 0.1897389 0.1901129 0.1904561 0.1908409
 0.1912701 0.191765 0.1923202 0.1928888 0.1934684 0.1940193 0.1945479 0.1950494 0.19554 0.196048
 0.1965929 0.1972174 0.1979257 0.1987324 0.1996512 0.2006799 0.2018835 0.2032902 0.2049523 0.2069116
 0.2091021 0.2115215 0.2140813 0.2167595 0.2195881 0.222566 0.2257692 0.2292004 0.2328648 0.2367587
 0.2408434 0.24512 0.2495764 0.2542132 0.2590272 0.2640154 0.2691657 0.2744873 0.2799897 0.2856779
 0.2915713 0.2976384 0.3038698 0.3102176 0.3166552 0.3231584 0.3297135 0.3363116 0.3429541 0.3496062
 0.356271 0.3628529 0.3693456 0.3756467 0.381753 0.3877088 0.3935282 0.3994 0.4052945 0.4111891
 0.4169773 0.4222767 0.4270788 0.4311512 0.4346019 0.437519 0.4399184 0.4418619 0.4433053 0.444218
 0.4446266 0.444569 0.4439394 0.4427916 0.4406454 0.4373872 0.4327472 0.4265531 0.4197782 0.4124879
 0.405488 0.3988086 0.3921298 0.3854306 0.378369 0.3709855 0.3633284 0.3554307 0.3474714 0.3393483
 0.3309855 0.3221315 0.3122717 0.3015346 0.2895863 0.2774723 0.2659172 0.2554043 0.2465785 0.2387224
 0.231724 0.2250102 0.2183738 0.2118376 0.2053625 0.1991661 0.1932732 0.1876709 0.1823574 0.1771356
 0.1720019 0.16684 0.1616758 0.1565814 0.1515907 0.1468596 0.142387 0.1382551 0.1344269 0.1308849
 0.1275866 0.1244907 0.1215368 0.1186951 0.1158347 0.1128944 0.1097413 0.1062523 0.1026622 0.09895205
 0.09563832 0.0928356 0.09052368 0.08872844 0.08707577 0.08554816 0.08393393 0.08224383 0.08053182 0.07881866
 0.0772571 0.07582707 0.07454392 0.07337339 0.07223153 0.07113565 0.07006279 0.06907357 0.06823296 0.06755777
 0.06709399 0.06679707 0.06665452 0.06663649 0.06672233 0.06693123 0.06725673 0.06775868 0.06843778 0.06939983
 0.07065404 0.07229102 0.07431424 0.0765928 0.0791055 0.08155252 0.08393648 0.08611567 0.08811655 0.08996007
 0.0916521 0.09321168 0.09464653 0.09595468 0.09720504 0.09845039 0.09980807 0.101403 0.1032349 0.1053799
 0.1076388 0.1099453 0.1122133 0.1143865 0.1165737 0.1187839 0.1211064 0.1235554 0.1261008 0.1287413
 0.1313785 0.134012 0.1365988 0.1391579 0.1417657 0.144458 0.1474013 0.1506068 0.1542059 0.1581308
 0.1623365 0.1667525 0.1712592 0.1758936 0.1806438 0.1855584 0.1906844 0.1959563 0.2013736 0.2068229
 0.2122642 0.2176995 0.223111 0.2286246 0.2342554 0.2400297 0.2459484 0.2516864 0.2572137 0.2620552
 0.2662158 0.2694848 0.271884 0.2733972 0.2739953 0.2736068 0.2721915 0.2696279 0.2659683 0.2611877
 0.2554523 0.2488589 0.2415987 0.2337944 0.2255645 0.2169744 0.2080903 0.1989096 0.1896323 0.1802577
 0.1711877 0.1624613 0.1543434 0.1468498 0.1398654 0.1333738 0.1271236 0.1211263 0.1153128 0.1097274
 0.1044998 0.09963663 0.09523549 0.09123801 0.08759908 0.08425149 0.08110096 0.07811112 0.07522278 0.07242681
 0.06970165 0.0670554 0.06448445 0.06200726 0.05962892 0.05735592 0.0551931 0.0531173 0.05112707 0.04919744
 0.0473269 0.0455424 0.04384948 0.04232997 0.04098677 0.03988263 0.03900716 0.03835689 0.03792012 0.0376662
 0.03759246 0.03768236 0.03793314 0.03834242 0.03888724 0.03956341 0.04030558 0.04109392 0.04182258 0.04245675
 0.04289245 0.04309773 0.04301235 0.0426187 0.04191162 0.04088481 0.0395969 0.03805066 0.03635999 0.03453154
 0.03267934 0.03080671 0.02898934 0.02723039 0.0255807 0.02404354 0.02265451 0.02140822 0.02031418 0.0193589
 0.01853066 0.0178189 0.01721179 0.01670271 0.01628736 0.01595398 0.01570003 0.01550607 0.01536925 0.01526371
 0.0151869 0.01510641 0.01501938 0.01489535 0.01473237 0.01451904 0.01425643 0.01395736 0.01362455 0.01328195
 0.01292961 0.01258315 0.01223493 0.0118773 0.01149597 0.01106312 0.01057083 0.009995018 0.009345982 0.00862061
 0.007840936 0.007016831 0.00616851 0.005303959 0.00444243 0.0035881 0.002764095 0.001974494 0.001236471 0.0005529804
 -7.660879E-05 -0.0006520749 -0.001189222 -0.001689122 -0.002170797 -0.002633816 -0.00308683 -0.003525145 -0.003937819 -0.004316788
 -0.004636655 -0.004892974 -0.00506446 -0.005156883 -0.005165428 -0.005106568 -0.004989405 -0.004834743 -0.004655618 -0.004468004
 -0.004281137 -0.004101789 -0.003933693 -0.003777519 -0.003634224 -0.003501145 -0.003378519 -0.003259288 -0.003143151 -0.003016012
 -0.002875879 -0.002692667 -0.002461123 -0.002129831 -0.001699731 -0.00113389 -0.0004648626 0.0002613729 0.0009767488 0.001544779
 0.001919121 0.001969289 0.001745097 0.001218409 0.0005276991 -0.0002651107 -0.001032463 -0.001703785 -0.00224168 -0.002615549
 -0.00286139 -0.002979405 -0.003012765 -0.002967109 -0.002856436 -0.002682122 -0.002434147 -0.002110621 -0.001683542 -0.001146504
 -0.0004434256 0.0004302693 0.001536349 0.002844017 0.004336009 0.005911623 0.007409133 0.008700314 0.009549484 0.009937617
 0.009722443 0.00908439 0.008055039 0.006899682 0.005739518 0.004695293 0.00384824 0.003099224 0.002452574 0.001745528
 0.0009549742 4.788406E-05 -0.0009812118 -0.00199539 -0.00298358 -0.00374551 -0.004280687 -0.004472161 -0.004358041 -0.004005476
 -0.003488493 -0.003029157 -0.0026741 -0.002629013 -0.002842101 -0.003351618 -0.00403921 -0.004812694 -0.005606662 -0.006341876
 -0.007052412 -0.00773391 -0.008423864 -0.009144403 -0.009849139 -0.01053892 -0.01113256 -0.01161861 -0.01197696 -0.0122048
 -0.01234782 -0.01240838 -0.01243124 -0.01241434 -0.01236498 -0.01227972 -0.01214752 -0.01197026 -0.0117458 -0.01148075
 -0.01118574 -0.01086582 -0.01053224 -0.01018502 -0.009827709 -0.009459791 -0.009079874 -0.008694922 -0.008305824 -0.007924609
 -0.007556038 -0.007200783 -0.006862041 -0.00652123 -0.006177107 -0.005809794 -0.005417655 -0.005003027 -0.004567033 -0.004131367
 -0.003696658 -0.003279303 -0.002875329 -0.002479654 -0.002083883 -0.001665015 -0.001214052 -0.0007040938 -0.0001314031 0.0005215493
 0.001248304 0.002052207 0.002916799 0.003835918 0.004788408 0.005765773 0.006748896 0.007731056 0.008701122 0.009656126
 0.0105907 0.01150465 0.01238682 0.01323665 0.01403637 0.01478586 0.0154821 0.01612844 0.01674741 0.01734214
 0.01793872 0.01853473 0.01913759 0.01974257 0.02034425 0.02093977 0.02152319 0.02209356 0.02264609 0.02318727
 0.0237163 0.02425073 0.0247975 0.02536881 0.02597262 0.02659797 0.02724633 0.02789182 0.02853175 0.02914744
 0.02973722 0.03030111 0.03083999 0.0313717 0.03189807 0.03244171 0.03300145 0.03358627 0.03419034 0.03480408
 0.03541953 0.03601963 0.03659445 0.03712727 0.03760379 0.03800732 0.03832452 0.03854134 0.03865618 0.03866146
 0.03857423 0.03839293 0.03815595 0.03786598 0.03757809 0.03729746 0.03707691 0.03692036 0.03686078 0.03689922
 0.03705046 0.0373146 0.03769907 0.03820509 0.03884004 0.03960891 0.04052647 0.04160232 0.0428611 0.04430855
 0.04596694 0.04782299 0.04988671 0.05209929 0.05445923 0.05680973 0.0591281 0.06112546 0.06274088 0.06365132
 0.06377487 0.06299041 0.06124758 0.05878723 0.05561424 0.05222002 0.04862953 0.04529908 0.04222789 0.03963084
 0.03747317 0.03572915 0.03435776 0.03323351 0.03233685 0.03157283 0.03093921 0.03040118 0.02994447 0.02955656
 0.02918996 0.02882368 0.02838386 0.02784067 0.02712204 0.0262015 0.02503775 0.02361535 0.02193741 0.01999883
 0.01784513 0.01547764 0.01297833 0.01035263 0.007703562 0.005036588 0.002441843 -8.039598E-05 -0.002480273 -0.004761572
 -0.006908681 -0.008926376 -0.010814 -0.01258161 -0.01423879 -0.01580306 -0.01729265 -0.01872205 -0.02010699 -0.02144901
 -0.02275394 -0.02401384 -0.0252279 -0.02638775 -0.02749073 -0.02853739 -0.02952593 -0.03047439 -0.03138356 -0.03227834
 -0.03315927 -0.03403199 -0.03489399 -0.03572721 -0.03653041 -0.03728763 -0.03800199 -0.03867479 -0.03930753 -0.03990535
 -0.04046416 -0.04098031 -0.04145106 -0.04187004 -0.0422444 -0.04257457 -0.0428746 -0.04315135 -0.04341121 -0.04365938
 -0.04388818 -0.04409694 -0.04427874 -0.0444313 -0.044565 -0.04468028 -0.04479063 -0.04489601 -0.04498919 -0.04506842
 -0.04511478 -0.04512965 -0.04510927 -0.04505613 -0.04497759 -0.04486985 -0.04472925 -0.04455137 -0.04432509 -0.04405878
 -0.04375348 -0.04342592 -0.04308894 -0.04274694 -0.04240872 -0.04205868 -0.04169539 -0.04129892 -0.04086383 -0.04038566
 -0.03986141 -0.03930796 -0.03872561 -0.0381463 -0.03757218 -0.0370453 -0.03656955 -0.03619528 -0.03592573 -0.03580537
 -0.03582864 -0.03600797 -0.03632394 -0.03674814 -0.03725589 -0.03780298 -0.03837113 -0.03892867 -0.03946413 -0.0399632
 -0.04041424 -0.04081056 -0.04113901 -0.04139459 -0.0415684 -0.04165704 -0.04166125 -0.04158001 -0.04142199 -0.04118758
 -0.04088739 -0.04052196 -0.04009989 -0.0396217 -0.03909507 -0.03852126 -0.03790862 -0.03726104 -0.0365914 -0.03590911
 -0.0352367 -0.03458647 -0.03398619 -0.03343841 -0.0329603 -0.03253441 -0.03215889 -0.03180317 -0.03145457 -0.03108704
 -0.03068958 -0.03025019 -0.02976296 -0.0292334 -0.02865933 -0.02806708 -0.02745753 -0.0268735 -0.02631715 -0.02582792
 -0.02540499 -0.02506024 -0.02478722 -0.0245641 -0.02438218 -0.02420476 -0.02402658 -0.02381953 -0.02358295 -0.02330375
 -0.0229848 -0.02262222 -0.02222584 -0.02179852 -0.02135656 -0.02090869 -0.02046265 -0.02002575 -0.01958524 -0.0191412
 -0.01867309 -0.01817759 -0.01764737 -0.01708111 -0.01648688 -0.01586518 -0.01522802 -0.01457614 -0.0139202 -0.01326166
 -0.01261261 -0.01197512 -0.01136249 -0.01077392 -0.01021623 -0.009682276 -0.009166588 -0.008658336 -0.008144878 -0.007619635
 -0.007073163 -0.006507402 -0.005919341 -0.005318436 -0.004705789 -0.004094536 -0.003487554 -0.002893826 -0.002315909 -0.001749144
 -0.001193737 -0.0006364126 -7.669818E-05 0.0004899163 0.001062653 0.001635697 0.002208832 0.002778501 0.003344289 0.00390463
 0.004455658 0.004988374 0.005500668 0.005982562 0.006442896 0.006883545 0.007322493 0.00777262 0.00824541 0.00875334
 0.009285533 0.009845439 0.0104015 0.01094823 0.01145936 0.01192854 0.01236012 0.01275287 0.01313554 0.01350965
 0.01390443 0.01432087 0.01478045 0.0152821 0.01583547 0.01643228 0.01705522 0.01769033 0.01829845 0.018876
 0.01939657 0.01987513 0.02031486 0.02073604 0.02115393 0.02158024 0.02202578 0.02248966 0.02297613 0.02347104
 0.0239732 0.02446455 0.02494163 0.02540099 0.02584163 0.02627263 0.02669428 0.02710772 0.02751246 0.02790285
 0.02828022 0.02864802 0.0290084 0.02937073 0.02973413 0.03010141 0.03047059 0.03083934 0.03120795 0.03157454
 0.03194384 0.03231638 0.03270357 0.03311149 0.03354587 0.03401444 0.03449711 0.03499347 0.03547083 0.0359233
 0.03634153 0.03672347 0.03708169 0.0374167 0.03773492 0.03803679 0.03832716 0.03860947 0.03890411 0.03921385
 0.03955954 0.03993847 0.04035523 0.04080572 0.04128716 0.04179284 0.04231786 0.04284815 0.043373 0.04388108
 0.04436259 0.0448186 0.04524592 0.04565413 0.04604253 0.04643195 0.04682373 0.04724687 0.04770471 0.04820246
 0.04873999 0.0492891 0.04984872 0.05039684 0.0509358 0.0514687 0.05199358 0.05250808 0.05300369 0.0534598
 0.05387314 0.05422858 0.0545301 0.05477595 0.05497145 0.05511675 0.05522651 0.05530435 0.05537439 0.05544588
 0.0555315 0.05563572 0.05576335 0.05591334 0.05610921 0.05635263 0.05666722 0.05705364 0.05748956 0.0579703
 0.05843649 0.05888736 0.05928232 0.05963593 0.05996709 0.06030507 0.06072621 0.0612407 0.06191266 0.0626955
 0.06356583 0.0644783 0.06536564 0.06629742 0.06726925 0.06842943 0.06986594 0.07149234 0.07334611 0.07507909
 0.07662688 0.07791816 0.07893115 0.07982896 0.08061861 0.08138213 0.08211355 0.08277351 0.08335298 0.08378474
 0.08406592 0.08415383 0.08404613 0.08371457 0.08316498 0.08238766 0.08140727 0.0802382 0.07892508 0.07749475
 0.07601113 0.07450658 0.07304457 0.07165235 0.07037048 0.06921121 0.06820474 0.067356 0.06669325 0.06622084
 0.06593325 0.06582992 0.06586293 0.06602947 0.06628413 0.06662434 0.06702083 0.06745654 0.06786928 0.06822153
 0.0683983 0.06837763 0.06806044 0.06748528 0.06664291 0.06561402 0.06445453 0.06322242 0.06196646 0.06069441
 0.05941436 0.05814316 0.05686988 0.05570171 0.05464611 0.05384512 0.05331853 0.05305787 0.05306216 0.05314352
 0.05329422 0.05335861 0.05335371 0.05329184 0.05319784 0.05316604 0.05319884 0.05335466 0.05360844 0.05395311
 0.05434727 0.05474322 0.05511336 0.05541392 0.05566113 0.05584844 0.05600828 0.05615531 0.05628945 0.05641464
 0.05651792 0.05659479 0.05666202 0.05671969 0.05679852 0.05690011 0.05704166 0.05722272 0.0574463 0.05770577
 0.05797054 0.05822481 0.05839501 0.05847813 0.0584211 0.05825374 0.05799687 0.057685 0.05736916 0.05705414
 0.05676163 0.0564814 0.05621206 0.05595045 0.05569634 0.05544255 0.05518861 0.05492168 0.05463864 0.05433951
 0.05402299 0.05370533 0.05338738 0.05309742 0.05283726 0.05263905 0.0525008 0.05243105 0.05241999 0.05243916
 0.05247854 0.05250164 0.05250228 0.0524565 0.05235705 0.05218364 0.05194319 0.05162531 0.05126948 0.05088989
 0.05052954 0.05021312 0.04993742 0.04971402 0.04948867 0.04925829 0.0489516 0.04856076 0.04804731 0.04740885
 0.04668778 0.04589001 0.04510678 0.04433657 0.04361968 0.04294321 0.04227854 0.04162549 0.04096374 0.04031252
 0.03969496 0.03912387 0.0386248 0.03819666 0.03784886 0.03757037 0.03736512 0.03719577 0.03705253 0.03689555
 0.03670487 0.0365058 0.0362944 0.03613857 0.0360476 0.03601735 0.03604799</values></Ydata></AB><ScSm><Ydata ylabel="Single channel"><values byteorder="INTEL" format="FLOAT32" numvalues="1814"> 0.07315231 0.07315554 0.0732238 0.07338153 0.07359736 0.07380423 0.07394874 0.07402395 0.07404796 0.07402366
 0.07395438 0.07389511 0.07393737 0.07411843 0.07436757 0.07455571 0.07459827 0.07452941 0.07448298 0.07456213
 0.07469927 0.07467516 0.07432389 0.07372363 0.07314725 0.07281046 0.07273671 0.07291862 0.07345273 0.07427944
 0.07489324 0.07470587 0.07378461 0.07288405 0.07260595 0.07282126 0.07302485 0.07291976 0.07251082 0.07198814
 0.07177283 0.07240158 0.07399869 0.07584356 0.07663119 0.07529574 0.07177234 0.0672345 0.06365772 0.06275845
 0.06478445 0.06817614 0.07073899 0.07139392 0.07068944 0.06968547 0.06881556 0.06802867 0.06752776 0.06780811
 0.06897105 0.07026231 0.07046269 0.06893234 0.06637445 0.0643352 0.06379224 0.06454291 0.06603584 0.06796961
 0.06945239 0.06852678 0.06410293 0.05839169 0.05590754 0.05917194 0.06602192 0.071726 0.07318876 0.07067817
 0.06644588 0.06286471 0.0615368 0.06286547 0.06598449 0.06947561 0.07222579 0.07347986 0.07265353 0.06984144
 0.06631257 0.06389317 0.06384271 0.06636162 0.07055418 0.07451245 0.0761831 0.07488419 0.07175539 0.06855127
 0.06649031 0.06626743 0.06822085 0.07197878 0.07643886 0.08040965 0.08309297 0.08416495 0.08385086 0.0827837
 0.08152063 0.08044575 0.08009968 0.08084622 0.08200102 0.08209705 0.08047977 0.07817958 0.07685214 0.07706974
 0.077865 0.07790617 0.0768449 0.07510367 0.07256232 0.06852956 0.06333677 0.05876442 0.05626546 0.05585972
 0.05718765 0.06007447 0.06329188 0.06449184 0.06277616 0.06033032 0.06025458 0.06325528 0.06728553 0.0700435
 0.07109778 0.07171658 0.07323424 0.07569182 0.07766294 0.07732818 0.07428448 0.07056337 0.06919234 0.07122189
 0.07471587 0.07712847 0.07798471 0.07860501 0.07979829 0.08061361 0.07933892 0.0755396 0.0711437 0.0692443
 0.07140601 0.07610136 0.07982431 0.0796914 0.07537995 0.06918463 0.06422485 0.06229041 0.06335938 0.06678437
 0.07200241 0.077929 0.08266467 0.08455685 0.08341177 0.08039439 0.07670818 0.07250143 0.06747726 0.06268045
 0.0607273 0.06333043 0.06910235 0.07470963 0.07785187 0.07841177 0.07715926 0.07433954 0.06987511 0.06468332
 0.06110476 0.06109518 0.06387599 0.06637039 0.0664192 0.06474534 0.06337849 0.06312067 0.06325164 0.06307337
 0.06289792 0.06349674 0.06499338 0.06657071 0.06726304 0.06683595 0.06582184 0.06489187 0.06425634 0.06353064
 0.06228881 0.06091402 0.06055716 0.06186752 0.064087 0.06582984 0.06647441 0.0663794 0.06595925 0.06499203
 0.06296742 0.06005647 0.05751403 0.05674709 0.05794373 0.05995379 0.06149255 0.0620689 0.06184517 0.06116085
 0.06031064 0.05945559 0.05866801 0.05812725 0.05807328 0.05844993 0.05883886 0.05888043 0.05856122 0.05801973
 0.05729289 0.05637202 0.05538349 0.05458917 0.05419162 0.05416877 0.05432998 0.05449806 0.05456302 0.05441175
 0.05396435 0.05329781 0.05260967 0.05203763 0.05160091 0.05130041 0.0511625 0.05116214 0.05118397 0.05110453
 0.05088875 0.05058369 0.05023821 0.04986057 0.049453 0.04905757 0.0487466 0.04856087 0.04845797 0.04834699
 0.0481978 0.04807699 0.04802724 0.04795869 0.04774109 0.04737504 0.04699219 0.04670241 0.04650803 0.04635324
 0.04618955 0.04597901 0.04568198 0.04529128 0.04488405 0.04459834 0.04452658 0.04464956 0.04487907 0.04511715
 0.04526804 0.04526796 0.04513792 0.04495708 0.04476804 0.04455282 0.04430205 0.04406281 0.04391388 0.04391023
 0.04403839 0.04421717 0.04435575 0.0444098 0.04438569 0.04432771 0.04430383 0.04434938 0.04441137 0.04439928
 0.04429979 0.04419455 0.04415906 0.04418352 0.0442007 0.04416689 0.04410765 0.04408852 0.04414487 0.04425122
 0.04436068 0.04445569 0.04455139 0.04465955 0.04475544 0.04478636 0.04472919 0.04463359 0.04457976 0.044597
 0.04465668 0.04473738 0.04485201 0.04500474 0.04515993 0.04527377 0.04534162 0.04539822 0.04547194 0.04554936
 0.0455941 0.04559436 0.04557735 0.04558001 0.0456199 0.04569236 0.04577976 0.04586034 0.04591718 0.04594503
 0.04595029 0.04594424 0.04593388 0.04592275 0.04592574 0.04597116 0.04606865 0.04617802 0.04623229 0.04619947
 0.04611313 0.046039 0.04601688 0.04603511 0.04605565 0.04605614 0.04604305 0.04603124 0.04602593 0.04602667
 0.04603484 0.04605217 0.04608363 0.04614682 0.04626364 0.04642983 0.04660096 0.04672454 0.04678756 0.04682402
 0.04687783 0.04696704 0.0470819 0.04720694 0.04734121 0.0474963 0.04767156 0.04783846 0.04796755 0.04806902
 0.04818474 0.04833933 0.04852222 0.04871611 0.04891345 0.0491005 0.04925646 0.04938187 0.04950636 0.04965502
 0.04982116 0.04998241 0.05013174 0.05028128 0.05044319 0.05062104 0.05082102 0.05106095 0.05135937 0.05171546
 0.05210239 0.05248374 0.05284141 0.05319056 0.05356529 0.05398539 0.05443493 0.05487398 0.05527322 0.05563778
 0.05599512 0.05636036 0.05672441 0.05708159 0.05745373 0.05786894 0.05832471 0.05879072 0.05924495 0.05969012
 0.06013662 0.06058578 0.0610333 0.06147857 0.06192556 0.06237686 0.06282826 0.06327084 0.06370021 0.06412202
 0.064546 0.06497937 0.065427 0.06588686 0.06633933 0.06675562 0.06713042 0.06749602 0.06788646 0.06829564
 0.06869122 0.06906494 0.06944472 0.06985374 0.070281 0.07070312 0.07111827 0.07154386 0.07198936 0.07244214
 0.07287508 0.07326335 0.07360206 0.07391284 0.07422829 0.07456985 0.07494718 0.07536905 0.07583466 0.07631624
 0.07677048 0.07717066 0.07751608 0.07782005 0.07810624 0.0784076 0.07874602 0.07911405 0.07948604 0.07983704
 0.08014816 0.08041865 0.08068436 0.08099876 0.08137926 0.08179414 0.08221433 0.08264968 0.08311468 0.0835875
 0.08403693 0.08447606 0.08494848 0.08545767 0.0859445 0.08634955 0.08667118 0.0869455 0.08719939 0.08745243
 0.08774193 0.08810489 0.08853616 0.08898936 0.08941928 0.08980864 0.0901598 0.0904783 0.09076621 0.09102219
 0.09124711 0.0914523 0.09166247 0.09190898 0.09221584 0.09258159 0.09296969 0.09332519 0.09360665 0.09379746
 0.0938895 0.09387789 0.09378419 0.09366466 0.09356692 0.09347763 0.09333009 0.09306401 0.09266543 0.09215006
 0.09153132 0.09082081 0.09005804 0.08932739 0.08873532 0.08836499 0.08825082 0.088394 0.08878643 0.0894021
 0.09016761 0.09096241 0.09165786 0.09214795 0.09234683 0.09219003 0.09167048 0.09087253 0.08995135 0.08906459
 0.08831111 0.0877131 0.08724675 0.08690411 0.08674447 0.08688612 0.0874422 0.08846201 0.08991796 0.09171644
 0.09370814 0.09571587 0.09759353 0.09927642 0.1007752 0.1021269 0.1033621 0.1045097 0.1056049 0.1066701
 0.1076943 0.1086476 0.1095137 0.1102954 0.1109932 0.1115933 0.1120778 0.1124388 0.1126866 0.1128527
 0.1129838 0.1131264 0.1133149 0.1135656 0.1138676 0.1141694 0.1143873 0.1144381 0.1142793 0.1139334
 0.1135001 0.1131601 0.1131513 0.1136975 0.114906 0.1166988 0.1188406 0.1210482 0.1231015 0.1248886
 0.1263861 0.127623 0.1286516 0.129529 0.1303062 0.1310237 0.1317089 0.1323742 0.1330181 0.1336335
 0.1342183 0.1347807 0.1353354 0.1358929 0.1364492 0.1369894 0.1375055 0.1380088 0.1385214 0.139054
 0.1395946 0.140123 0.1406358 0.141149 0.1416734 0.1421921 0.1426775 0.1431239 0.1435541 0.1439955
 0.1444626 0.1449542 0.1454525 0.1459266 0.1463529 0.1467361 0.1471033 0.1474785 0.1478685 0.1482673
 0.1486666 0.14906 0.1494471 0.1498349 0.1502347 0.1506463 0.1510476 0.1514085 0.1517234 0.1520225
 0.1523457 0.1527061 0.1530829 0.1534469 0.1537911 0.1541392 0.1545255 0.1549599 0.1554123 0.1558341
 0.1561965 0.1565093 0.1568068 0.1571218 0.1574687 0.1578414 0.1582214 0.1585916 0.1589474 0.1592965
 0.1596492 0.1600082 0.1603695 0.1607292 0.1610877 0.161446 0.1618004 0.1621468 0.1624888 0.1628397
 0.1632105 0.1635948 0.1639709 0.1643191 0.1646366 0.1649338 0.1652224 0.1655114 0.1658107 0.1661288
 0.1664653 0.1668098 0.1671521 0.1674904 0.1678276 0.1681636 0.168496 0.1688264 0.1691601 0.1694993
 0.1698411 0.1701845 0.1705337 0.1708888 0.1712386 0.1715693 0.1718786 0.1721783 0.1724835 0.1728008
 0.1731265 0.1734537 0.173779 0.1741007 0.1744135 0.1747118 0.1749976 0.1752817 0.1755743 0.1758779
 0.1761885 0.1764997 0.1768049 0.1771003 0.1773886 0.1776777 0.1779726 0.1782695 0.1785601 0.1788418
 0.17912 0.1794021 0.1796927 0.179992 0.1802958 0.1805981 0.1808949 0.1811844 0.1814641 0.1817344
 0.182003 0.1822774 0.1825558 0.1828313 0.1831006 0.1833662 0.1836318 0.1839005 0.1841731 0.1844496
 0.184733 0.1850247 0.1853171 0.185599 0.1858707 0.1861426 0.1864195 0.1866987 0.1869791 0.1872634
 0.1875509 0.1878363 0.1881143 0.1883833 0.188644 0.1888963 0.1891398 0.1893792 0.1896235 0.1898745
 0.1901242 0.1903682 0.1906125 0.1908628 0.1911169 0.1913705 0.191622 0.1918722 0.1921262 0.1923893
 0.1926593 0.1929286 0.193194 0.1934572 0.193719 0.1939801 0.1942411 0.1945014 0.1947639 0.1950354
 0.1953148 0.1955894 0.1958528 0.1961115 0.1963712 0.1966326 0.1968967 0.197162 0.197423 0.1976818
 0.1979471 0.1982175 0.1984833 0.1987429 0.1990023 0.1992657 0.1995352 0.1998103 0.2000816 0.2003406
 0.2005902 0.2008342 0.2010685 0.2012942 0.2015205 0.2017502 0.201981 0.2022164 0.2024578 0.2026983
 0.2029368 0.2031792 0.2034229 0.2036604 0.2038915 0.2041183 0.2043408 0.2045648 0.2047918 0.2049995
 0.2051333 0.2050643 0.2044732 0.2027307 0.1988866 0.1918567 0.1808484 0.1658606 0.147866 0.12847
 0.109314 0.09164096 0.07617644 0.06323886 0.05290677 0.04511444 0.03970541 0.03653783 0.0356015 0.03713866
 0.04177308 0.05013594 0.06145942 0.07233924 0.07806666 0.07634734 0.06949402 0.06231928 0.05814314 0.05719585
 0.05805268 0.05949616 0.06114199 0.0632173 0.06610674 0.06991479 0.07445092 0.07970251 0.0860623 0.09382237
 0.1025725 0.1113749 0.1195737 0.1273059 0.135179 0.143537 0.1520995 0.160238 0.167474 0.1737172
 0.179169 0.1841011 0.1886998 0.1930475 0.1971842 0.2011101 0.2046915 0.2076187 0.2095562 0.2103991
 0.2103952 0.2100065 0.2096381 0.2094798 0.2095484 0.2098067 0.210222 0.2107693 0.211431 0.2121916
 0.2130235 0.2138888 0.2147547 0.2155945 0.2163855 0.2171161 0.2177874 0.2184028 0.2189642 0.2194756
 0.2199396 0.220356 0.2207318 0.221083 0.2214194 0.2217392 0.2220408 0.2223282 0.2226033 0.2228616
 0.2230982 0.2233129 0.2235119 0.2237048 0.2238961 0.224084 0.2242682 0.2244544 0.2246451 0.2248352
 0.2250195 0.2251989 0.2253775 0.2255572 0.2257361 0.2259097 0.2260775 0.2262469 0.2264262 0.2266131
 0.2268003 0.2269867 0.2271763 0.2273673 0.227552 0.2277257 0.2278928 0.2280641 0.2282486 0.2284452
 0.2286461 0.2288492 0.2290592 0.2292773 0.2295 0.2297258 0.2299522 0.2301715 0.2303809 0.2305859
 0.2307854 0.2309662 0.2311223 0.2312713 0.2314434 0.2316547 0.2318934 0.2321294 0.2323431 0.2325423
 0.232748 0.2329683 0.2331907 0.2333939 0.2335727 0.2337553 0.2339816 0.2342533 0.2345322 0.234795
 0.2350566 0.2353286 0.2355994 0.2358609 0.2361131 0.2363352 0.2364967 0.2366132 0.2367643 0.2370312
 0.2374135 0.2378176 0.2381462 0.2383876 0.2386009 0.2388398 0.2391219 0.2394184 0.2396336 0.2396682
 0.2395748 0.2395821 0.239883 0.2404435 0.2410683 0.2415984 0.2419981 0.2423092 0.2425793 0.2428166
 0.24298 0.2430242 0.2429852 0.2430185 0.2432955 0.2438259 0.244431 0.2449262 0.2452715 0.2455191
 0.245715 0.2458846 0.2459895 0.2458712 0.2454205 0.2448713 0.2447361 0.2453102 0.246339 0.2472911
 0.2478809 0.2482108 0.2484781 0.2487376 0.2489508 0.2490175 0.2486608 0.2475959 0.2460791 0.2450469
 0.2453406 0.246864 0.2487459 0.2502077 0.2510505 0.2514654 0.2516996 0.2518892 0.251956 0.251617
 0.2507042 0.2495846 0.2490641 0.249643 0.2509519 0.2521484 0.2527794 0.2530174 0.2531987 0.2534442
 0.2535836 0.2531187 0.2515003 0.2489438 0.2468461 0.2468083 0.249067 0.2522057 0.2545586 0.2556439
 0.2560281 0.2560954 0.2554811 0.2537244 0.2509601 0.2478609 0.2454207 0.2448098 0.2466004 0.2498062
 0.2524457 0.2534976 0.2537633 0.2545481 0.2560994 0.2576304 0.2583405 0.2580324 0.256962 0.2553917
 0.2534671 0.2516303 0.250873 0.2520323 0.2547724 0.257703 0.2596681 0.2606215 0.26102 0.2604714
 0.2574645 0.2511852 0.2437889 0.2398014 0.242116 0.2489648 0.2558251 0.2598725 0.2615165 0.2622624
 0.2626993 0.2623453 0.2599269 0.2540738 0.2454756 0.2382329 0.2370869 0.2427328 0.2510322 0.2568733
 0.2576571 0.2535805 0.2467176 0.2404025 0.2378647 0.2402608 0.2461661 0.2529883 0.258533 0.2615818
 0.2618475 0.2598633 0.256968 0.2549859 0.254902 0.2554114 0.2539078 0.249772 0.245389 0.2426389
 0.2399956 0.2353715 0.2307128 0.2307018 0.2366645 0.2443435 0.2486721 0.2489005 0.2476888 0.2462785
 0.2423866 0.2335101 0.2216684 0.2134765 0.2143436 0.2228622 0.232067 0.2362382 0.2354368 0.2334682
 0.2328007 0.2320728 0.2280701 0.2199476 0.211331 0.207283 0.2089509 0.2125502 0.2138523 0.2115805
 0.2059405 0.1972192 0.1881598 0.1848496 0.1915513 0.2054425 0.2188391 0.2255441 0.2231265 0.2115052
 0.1937026 0.1775416 0.1718498 0.1785888 0.1904819 0.1977181 0.1957573 0.1861269 0.1721589 0.1566744
 0.1432299 0.1365518 0.1396841 0.1508584 0.1636886 0.170444 0.1663207 0.1530772 0.1391341 0.1335151
 0.137767 0.145011 0.1476779 0.1443546 0.1386838 0.1345695 0.1338767 0.1362691 0.1396254 0.1419671
 0.1430243 0.1421609 0.1362796 0.1235987 0.1087826 0.09989394 0.09999748 0.1055741 0.1129953 0.1217378
 0.1302524 0.1337944 0.1297817 0.1227154 0.120337 0.1254095 0.1333659 0.1379014 0.1372023 0.1342239
 0.1321054 0.130834 0.128822 0.1264967 0.1264452 0.1297893 0.134185 0.1364287 0.135803 0.1337821
 0.1315637 0.1291882 0.126387 0.1231004 0.1193898 0.1155056 0.1118385 0.1085055 0.1052771 0.1019885
 0.09854765 0.09442657 0.08880814 0.08181234 0.07521619 0.07109468 0.06969209 0.06950684 0.06950205 0.0697745
 0.06954935 0.06652287 0.05993997 0.05317332 0.05128224 0.05614412 0.06507275 0.07383187 0.07974258 0.08187166
 0.07992087 0.07476201 0.06996215 0.07062246 0.07910722 0.09271996 0.1066451 0.1181144 0.1265659 0.1312833
 0.1312261 0.1271455 0.1223448 0.1208193 0.1248743 0.13403 0.1450116 0.1524477 0.15152 0.1428932
 0.1350508 0.1380223 0.152706 0.1691904 0.1778824 0.1792745 0.1798923 0.1821603 0.1832728 0.182495
 0.1839866 0.1911163 0.2014778 0.2092311 0.2101794 0.2033903 0.1906607 0.1769227 0.1689383 0.1699121
 0.1759501 0.1803868 0.1802915 0.1760784 0.1675116 0.1552364 0.1449014 0.1437651 0.1522112 0.1627907
 0.1686946 0.1699371 0.1702387 0.1707215 0.1687102 0.161909 0.1521786 0.1443314 0.1413303 0.1417005
 0.1420378 0.1406405 0.1375775 0.1326702 0.1255898 0.1177964 0.1125597 0.1121962 0.1158241 0.1203383
 0.1233188 0.1246303 0.1255761 0.1272687 0.129851 0.1326708 0.1351799 0.1381164 0.1433619 0.1517383
 0.1613986 0.1696022 0.1758497 0.1820128 0.189386 0.19678 0.2018327 0.2035258 0.2032072 0.2035339
 0.2064083 0.2114505 0.2162465 0.218407 0.2178449 0.217056 0.2187961 0.2234096 0.2287545 0.2325973
 0.2344338 0.2350534 0.2352591 0.2352715 0.2346879 0.2328943 0.2301967 0.2285133 0.2300588 0.2350936
 0.2415492 0.2469894 0.2504517 0.2523698 0.2533632 0.2535402 0.2528081 0.2514654 0.2502391 0.2497493
 0.2500972 0.2509996 0.252135 0.2532789 0.2542852 0.2551014 0.2557715 0.256381 0.2570282 0.2578161
 0.2587798 0.2598156 0.2607678 0.2616089 0.2624678 0.2634439 0.2644556 0.2653271 0.2659533 0.2662836
 0.2662015 0.265568 0.2643986 0.2628753 0.2611512 0.2592553 0.2572925 0.2556874 0.255079 0.2558525
 0.2577674 0.2600813 0.2620173 0.2631194 0.2633408 0.2630137 0.2627105 0.2629022 0.2636223 0.2644954
 0.2651057 0.2652922 0.2651229 0.2647076 0.2640969 0.2633027 0.262309 0.2610252 0.2593279 0.2572907
 0.2553797 0.2542488 0.2542008 0.2548852 0.2556227 0.2560107 0.2561487 0.256326 0.2566127 0.2567645
 0.2564357 0.2554817 0.2541458 0.2529532 0.252312 0.2521785 0.2521636 0.2519545 0.2515524 0.2511257
 0.2507617 0.2504115 0.2499889 0.2494435 0.2487514 0.2478853 0.2468226 0.2455782 0.2442098 0.2427752
 0.241292 0.2397476 0.2381342 0.236456 0.2347082 0.2328691 0.2309223 0.2288843 0.2268037 0.2247223
 0.2226225 0.2203999 0.2178907 0.2149295 0.2113969 0.2072385 0.202479 0.1972341 0.1916993 0.1861063
 0.1806714 0.1755595 0.1708729 0.1666736 0.1630159 0.1599558 0.1575377 0.1557889 0.154724 0.1543378
 0.154599 0.1554618 0.1568719 0.1587491 0.1609707 0.1633771 0.165787 0.1680265 0.1699897 0.1716914
 0.1732463 0.1747752 0.1763269 0.1778803 0.1793984 0.1808515 0.1821923 0.1833433 0.1842345 0.184839
 0.1851639 0.1852203 0.1850074 0.184506 0.18368 0.1824991 0.1809801 0.179249 0.1776257 0.1766413
 0.1768475 0.1784675 0.1811824 0.1842917 0.187127 0.1893711 0.1910667 0.1924055 0.193538 0.1945359
 0.1954596 0.1964228 0.1976054 0.1992129 0.2014011 0.2042127 0.2075643 0.2112786 0.2151316 0.2189011
 0.2224024 0.2255066 0.2281509 0.2303431 0.2321448 0.2336335 0.2348709 0.2358912 0.2367057 0.2373271
 0.2377979 0.2381758 0.2384835 0.238694 0.2387701 0.2387011 0.2385026 0.2382024 0.2378314 0.2374139
 0.23696 0.2364692 0.2359419 0.2353933 0.2348529 0.2343349 0.2338114 0.2332315 0.2325642 0.2318089
 0.2309735 0.2300614 0.2290682 0.2279754 0.2267509 0.225365 0.2238019 0.2220653 0.2201851 0.2182205
 0.216256 0.2143904 0.212707 0.2112254 0.209882 0.2085637 0.2071512 0.2055452 0.2037013 0.2016617
 0.1995302 0.1973997 0.1953093 0.1932573 0.1912314 0.189227 0.1872519 0.1853213 0.1834584 0.181703
 0.1800987 0.1786496 0.1773001 0.1759737 0.1746327 0.1733052 0.1720661 0.1709903 0.1701067 0.169389
 0.1687839 0.1682445 0.1677521 0.1673228 0.1669858 0.1667353 0.166508 0.1662177 0.1658116 0.1652978
 0.1647288 0.1641587 0.1636131 0.1630961 0.1626062 0.1621207 0.1615726 0.1608655 0.1599059 0.1586228
 0.1569865 0.1550337 0.1528626 0.1505987 0.1483719 0.1463053 0.1444946 0.1429906 0.1417962 0.1408632
 0.1401016 0.1394249 0.1388044 0.1382799 0.1379222 0.1377591 0.1377103 0.1376212 0.1374077 0.1371539
 0.1370295 0.1371318 0.1374294 0.1378196 0.1382006 0.1385075 0.1387055 0.1387701 0.1386949 0.1385141
 0.1382771 0.1379978 0.1376545 0.1372305 0.1367306 0.1361733 0.1355813 0.1349602 0.1342902 0.1335523
 0.1327419 0.1318456 0.1308446 0.1297396 0.128531 0.1272085 0.1258344 0.1246085 0.1237785 0.1234826
 0.1236827 0.1242064 0.1248591 0.1255381 0.1261949 0.1266765 0.1267683 0.1265332 0.1264799 0.1271849
 0.1287306 0.130616 0.1322091 0.1331879 0.1335536 0.1333967 0.1327844 0.1317751 0.1303855 0.1285765
 0.1263562 0.1238288 0.1211058 0.1182834 0.1155188 0.112994 0.1108143 0.1090145 0.1075929 0.1065546
 0.1059627 0.1054686 0.1034769 0.09795661 0.08956037 0.08306094 0.08338454 0.09010129 0.09770529 0.1014625
 0.101226 0.09952827 0.09814183 0.09736041 0.09710923 0.09750078 0.09861599 0.1002879 0.1021219 0.1037073
 0.1048507 0.1055419 0.1057056 0.1050288 0.1029274 0.0987303 0.09224534 0.08428891 0.07642411 0.07004249
 0.06573178 0.06333131 0.06227507 0.06190527 0.06175917 0.06174826 0.06208707 0.06304178 0.06472497 0.06707451
 0.06992701 0.07300997 0.07591535 0.07827969 0.08005147 0.08144858 0.08262376 0.08350247 0.0839504 0.08395213
 0.08359776 0.08300231 0.08227055 0.08147682 0.08063473 0.07970566 0.07869436 0.07775293 0.07711367 0.07686658
 0.07687496 0.07694949 0.07701385 0.07707015 0.07711432 0.07713321 0.07712634 0.0771302 0.077243 0.07755844
 0.07803946 0.07852548 0.07888398 0.07910469 0.07925145 0.07934057 0.07925505 0.07885464 0.07824507 0.0777785
 0.07760547 0.07739323 0.07674511 0.0757844 0.07506254 0.07494405 0.07528871 0.07569831 0.07588692 0.07580951
 0.07561417 0.0755637 0.07587576 0.07647672</values></Ydata></ScSm><ScRf><Ydata ylabel="Single channel"><values byteorder="INTEL" format="FLOAT32" numvalues="1820"> 0.06069651 0.06086337 0.06096807 0.06100711 0.06100364 0.06100413 0.06106042 0.06119726 0.06139099 0.06158132
 0.06171377 0.06177649 0.0617893 0.06176462 0.06170861 0.06166117 0.0616923 0.06183422 0.06203381 0.0621863
 0.06221907 0.06215794 0.06211483 0.06217777 0.06229084 0.06227036 0.06197863 0.06148341 0.06101321 0.06074475
 0.06069265 0.06084858 0.06129491 0.06198437 0.06249456 0.062332 0.06155275 0.06079014 0.06054956 0.06072412
 0.0608934 0.06081174 0.06048144 0.06005424 0.05987629 0.06039817 0.0617311 0.0632766 0.06393935 0.06281994
 0.05986009 0.05604419 0.05303092 0.05226349 0.05395716 0.05681038 0.05897909 0.05954722 0.05897062 0.05814516
 0.05743773 0.05679417 0.05637043 0.0565838 0.05753605 0.05860649 0.05876962 0.05748185 0.05533392 0.05362779
 0.0531838 0.05382853 0.05509767 0.05673766 0.05799715 0.05722811 0.05350992 0.04869643 0.04658668 0.04931708
 0.05508515 0.05991108 0.06117396 0.05908201 0.05552635 0.05251193 0.05139444 0.05251175 0.05512951 0.05805505
 0.06035947 0.06141381 0.06072655 0.05837207 0.05541156 0.05337867 0.05333669 0.05546095 0.05900122 0.06234965
 0.06377155 0.06268637 0.0600545 0.05736335 0.0556465 0.05548377 0.0571488 0.06032477 0.06408758 0.06743821
 0.0697051 0.07061383 0.07035494 0.06946886 0.06843124 0.06755745 0.06728479 0.06791299 0.06887718 0.06895626
 0.06760398 0.06568566 0.06458965 0.06479066 0.06547 0.06550813 0.06461711 0.06315728 0.06102608 0.05763397
 0.05325731 0.04940517 0.047313 0.04700004 0.04816259 0.05065317 0.05342416 0.05446998 0.05301876 0.05093
 0.05085215 0.05340125 0.05684224 0.05920938 0.06012861 0.06068571 0.06202526 0.06417559 0.06590492 0.06565457
 0.06308695 0.059948 0.05883109 0.06063145 0.06368458 0.0658109 0.06661412 0.06723449 0.06836295 0.06917228
 0.06817988 0.06500806 0.06132575 0.05981148 0.06181841 0.0660232 0.0693887 0.06940795 0.06579033 0.06053317
 0.0563661 0.05486001 0.05600859 0.0592714 0.06417218 0.06974234 0.07427233 0.07626748 0.07552916 0.0730819
 0.07000332 0.06642411 0.06207465 0.05793846 0.05646868 0.0592743 0.06506164 0.07070835 0.07404859 0.07495712
 0.07414019 0.07179968 0.06783223 0.06312976 0.0600126 0.06042843 0.06360399 0.06647783 0.06690396 0.06561099
 0.06463461 0.06478146 0.06532268 0.06555213 0.06580271 0.06688125 0.06891105 0.07102706 0.07221135 0.07221468
 0.07159715 0.07107462 0.07086897 0.07054514 0.06962759 0.06856088 0.06865776 0.07066061 0.07371372 0.07623826
 0.07751647 0.07795516 0.07802318 0.07743086 0.07554415 0.07256425 0.07001941 0.06963186 0.07164922 0.07468256
 0.07715307 0.07843728 0.07872462 0.07843488 0.07792749 0.07739251 0.07692398 0.07677358 0.07727966 0.0783843
 0.0795273 0.08020715 0.08039165 0.08026485 0.07986777 0.07917394 0.07835174 0.07776885 0.07772662 0.07823313
 0.07904892 0.07990279 0.08058792 0.08091765 0.08078972 0.08033642 0.07985114 0.07951964 0.0793483 0.07934737
 0.07960066 0.08010074 0.08066048 0.08106779 0.08125535 0.08127988 0.08120583 0.08105942 0.08086352 0.08068231
 0.08062254 0.08075931 0.08104131 0.08132298 0.08153276 0.08174302 0.08201205 0.08223533 0.08225439 0.08207044
 0.08185461 0.08176339 0.08181421 0.08192991 0.08202691 0.08202885 0.08185516 0.08149092 0.08108501 0.08089539
 0.08108102 0.0815863 0.08223674 0.08286586 0.08334132 0.08358818 0.08364567 0.08362696 0.08358632 0.08348078
 0.08327794 0.08305468 0.08297026 0.08314562 0.08355577 0.08404192 0.08443858 0.08467557 0.08477357 0.08480993
 0.08489154 0.08507206 0.08527018 0.08534582 0.0852785 0.08520326 0.08524857 0.08539042 0.08549149 0.08546036
 0.08535326 0.0853157 0.08543143 0.08564886 0.08586085 0.08602607 0.08619076 0.08640029 0.08660779 0.0866912
 0.08658344 0.08636829 0.08620208 0.08615045 0.08616243 0.0861992 0.0863038 0.0865103 0.08674894 0.08690189
 0.08693521 0.08692823 0.08696532 0.08703189 0.08703867 0.08693129 0.08674947 0.0865854 0.08650918 0.08653097
 0.08660721 0.08667108 0.08667201 0.08660411 0.08650115 0.08640131 0.08632009 0.08626689 0.08628142 0.08641777
 0.08666416 0.08689597 0.0869525 0.08678103 0.08649431 0.08627169 0.0861997 0.08620989 0.08616675 0.08600189
 0.08575685 0.08551636 0.08533055 0.08519931 0.08509983 0.0850146 0.08495284 0.08495617 0.08505723 0.08521044
 0.08528981 0.08519455 0.08495116 0.08468404 0.08449844 0.08441663 0.08440256 0.08440749 0.08440742 0.08442591
 0.08449872 0.08459831 0.08463589 0.08456659 0.08445218 0.08439739 0.08446275 0.08464371 0.08487505 0.08504327
 0.0850593 0.08494999 0.08483802 0.0848162 0.08487554 0.08495966 0.08504196 0.08512871 0.08522211 0.08531684
 0.08542508 0.0855792 0.08579931 0.08606274 0.08631034 0.08648688 0.08658664 0.08666752 0.08681335 0.08706848
 0.08740154 0.08773213 0.08799535 0.08818777 0.08835532 0.08853695 0.08873013 0.08892195 0.08913401 0.0894036
 0.08972707 0.09005727 0.0903599 0.09064324 0.09092994 0.09122586 0.09152611 0.09183922 0.09219492 0.09261534
 0.09306693 0.09345619 0.093704 0.09382739 0.09393239 0.09413001 0.09446038 0.09486619 0.09522072 0.09542085
 0.09549018 0.09556616 0.09575292 0.09601611 0.09626039 0.09647906 0.09676537 0.09717782 0.09764741 0.09804188
 0.09829615 0.09846078 0.09863083 0.09884145 0.09903987 0.0991618 0.09921969 0.0992887 0.09941339 0.09957652
 0.09977219 0.1000509 0.1004471 0.1008999 0.101297 0.1015791 0.1017657 0.1019014 0.1020146 0.1021118
 0.1021811 0.1022136 0.102235 0.1022911 0.1023853 0.1024663 0.1024999 0.1025205 0.1025886 0.1027288
 0.1029342 0.1031981 0.1035032 0.1038039 0.1040687 0.1043365 0.1046769 0.1050771 0.1054163 0.1055878
 0.1056154 0.1056057 0.105621 0.1056557 0.1057178 0.1058598 0.1061137 0.1064483 0.1068096 0.1071727
 0.1075364 0.1078905 0.108203 0.1084311 0.1085448 0.1085529 0.108513 0.1085098 0.1086164 0.1088568
 0.1091903 0.1095347 0.1098168 0.1100013 0.110079 0.1100564 0.1099847 0.1099666 0.1100817 0.1102937
 0.1104617 0.1104561 0.1102441 0.1098642 0.1093551 0.1087382 0.1080544 0.1073837 0.1068169 0.1064111
 0.1061834 0.1061483 0.106342 0.1067858 0.1074247 0.1081334 0.1087893 0.1093126 0.1096304 0.1096551
 0.1093438 0.108758 0.1080313 0.1072875 0.1065981 0.1059801 0.1054042 0.1048354 0.1043125 0.103983
 0.1040351 0.1045869 0.1056278 0.1070265 0.1085719 0.1100392 0.1112759 0.1122576 0.113062 0.1137819
 0.1144619 0.1151124 0.1157504 0.1163921 0.1170166 0.117577 0.118056 0.1184815 0.1188833 0.1192614
 0.1195974 0.1198778 0.120109 0.1203203 0.1205354 0.1207271 0.1208267 0.1207998 0.1206905 0.1205697
 0.1204591 0.120317 0.1200801 0.119714 0.1192549 0.1188318 0.1186381 0.1188482 0.1195229 0.1205751
 0.1218335 0.1231486 0.1244321 0.1256046 0.1265635 0.1272421 0.1276783 0.1279845 0.128258 0.1285388
 0.128831 0.1291311 0.1294333 0.1297286 0.1300122 0.130294 0.1305991 0.1309426 0.131301 0.1316217
 0.131876 0.1320945 0.1323439 0.1326663 0.133042 0.1334137 0.1337505 0.134075 0.1344123 0.1347309
 0.1349721 0.1351325 0.1352811 0.1354928 0.135794 0.1361648 0.1365547 0.1368955 0.1371378 0.1372943
 0.1374288 0.1375987 0.1378182 0.1380716 0.1383395 0.1386079 0.1388695 0.1391307 0.1394109 0.1397167
 0.1400162 0.1402543 0.1404075 0.1405147 0.1406442 0.1408332 0.1410652 0.1413006 0.141521 0.1417467
 0.1420127 0.1423258 0.1426441 0.1429071 0.143087 0.1432094 0.1433262 0.1434749 0.1436608 0.1438673
 0.1440767 0.1442805 0.14448 0.144683 0.1448972 0.1451229 0.1453499 0.1455655 0.1457665 0.1459626
 0.1461656 0.1463774 0.1465946 0.1468271 0.1470945 0.147396 0.1476928 0.1479388 0.1481225 0.1482677
 0.1484013 0.1485373 0.1486831 0.1488433 0.149017 0.149201 0.1493948 0.1495982 0.1498081 0.1500198
 0.1502318 0.1504452 0.1506608 0.150878 0.1510976 0.1513238 0.1515593 0.151795 0.1520131 0.1522048
 0.1523817 0.1525656 0.1527684 0.1529818 0.1531846 0.1533626 0.1535245 0.1536932 0.153882 0.1540838
 0.1542842 0.1544778 0.1546684 0.1548611 0.1550564 0.1552515 0.1554449 0.1556378 0.1558322 0.1560282
 0.1562257 0.1564253 0.1566273 0.1568312 0.157036 0.1572397 0.1574396 0.1576349 0.1578287 0.1580251
 0.1582242 0.1584222 0.1586151 0.1588049 0.1589985 0.1592005 0.1594102 0.1596232 0.1598331 0.1600333
 0.1602239 0.1604141 0.1606122 0.160817 0.161026 0.1612408 0.1614614 0.1616812 0.1618948 0.1621035
 0.1623127 0.1625265 0.162746 0.1629663 0.1631796 0.1633845 0.1635881 0.1637965 0.1640077 0.1642128
 0.1644034 0.1645812 0.1647578 0.1649418 0.1651276 0.1653036 0.1654671 0.165627 0.1657964 0.1659829
 0.166183 0.1663857 0.1665849 0.1667828 0.1669825 0.1671856 0.1673958 0.1676143 0.1678359 0.1680541
 0.1682655 0.1684676 0.1686609 0.1688533 0.169053 0.1692603 0.1694714 0.1696844 0.1698967 0.1701056
 0.1703115 0.1705151 0.1707169 0.1709209 0.1711328 0.17135 0.1715655 0.1717767 0.1719844 0.1721898
 0.1723985 0.1726165 0.1728402 0.1730621 0.1732821 0.1735017 0.1737184 0.1739328 0.1741487 0.1743633
 0.1745724 0.1747796 0.174989 0.1751969 0.1754022 0.1756081 0.1758127 0.1760142 0.1762193 0.1764324
 0.1766468 0.1768551 0.1770523 0.1772269 0.1773457 0.1773016 0.176809 0.1753105 0.1719779 0.1658765
 0.1563279 0.1433344 0.1277312 0.1108947 0.09423946 0.07885291 0.06538718 0.05413469 0.04516053 0.03839446
 0.03369567 0.03094709 0.03014517 0.03149749 0.03554193 0.04283053 0.05270451 0.06220538 0.06722485 0.06574827
 0.05978068 0.05351971 0.04987073 0.04904532 0.04980791 0.05109674 0.0525685 0.0544103 0.0569516 0.06028501
 0.06425135 0.06884888 0.07442714 0.08124295 0.08893684 0.09668589 0.1039081 0.1107141 0.1176364 0.1249879
 0.1325325 0.1397154 0.1461058 0.151618 0.156435 0.1608071 0.1649027 0.1687859 0.1724789 0.1759751
 0.1791587 0.1817629 0.1834999 0.1842837 0.1843347 0.1840565 0.1838 0.1837253 0.183843 0.1841221
 0.1845401 0.1850794 0.1857205 0.1864415 0.1872153 0.1880171 0.1888302 0.1896372 0.1904124 0.1911344
 0.1917951 0.1923955 0.1929417 0.1934439 0.193909 0.1943378 0.1947351 0.1951105 0.1954691 0.195812
 0.1961434 0.1964644 0.1967641 0.1970324 0.1972737 0.1975008 0.1977232 0.1979454 0.1981681 0.198387
 0.1985973 0.1988001 0.1990014 0.1992057 0.1994122 0.1996154 0.199812 0.2000062 0.200205 0.200409
 0.2006147 0.2008225 0.2010343 0.2012459 0.2014493 0.2016407 0.2018214 0.2019957 0.2021703 0.2023519
 0.2025421 0.202737 0.2029312 0.2031218 0.2033128 0.2035147 0.2037336 0.2039623 0.2041899 0.2044137
 0.2046353 0.2048538 0.2050703 0.2052869 0.2054936 0.2056704 0.205812 0.2059435 0.2061035 0.2063126
 0.2065562 0.2067993 0.2070193 0.2072207 0.2074181 0.207617 0.207813 0.2079996 0.2081773 0.2083639
 0.2085841 0.2088365 0.2090878 0.2093152 0.2095297 0.2097496 0.2099789 0.2102164 0.2104543 0.2106643
 0.2108198 0.2109432 0.2111079 0.2113783 0.2117455 0.2121264 0.2124377 0.2126684 0.2128699 0.2130941
 0.2133592 0.2136374 0.2138398 0.2138783 0.2138016 0.2138159 0.2140958 0.2146094 0.2151757 0.2156512
 0.2160146 0.2163129 0.2165798 0.2168002 0.2169276 0.2169389 0.2168944 0.2169425 0.2172169 0.2177007
 0.2182311 0.2186631 0.2189788 0.2192214 0.2194172 0.2195824 0.2196869 0.2195929 0.2192015 0.2187228
 0.2186228 0.2191712 0.2201357 0.2210292 0.2215912 0.2219211 0.2222042 0.2224835 0.2227094 0.222787
 0.222478 0.2215355 0.2201911 0.2192901 0.2195965 0.2210216 0.2227674 0.2241239 0.2249176 0.225329
 0.2255817 0.2257953 0.2258969 0.2256277 0.2248323 0.2238438 0.2234018 0.22397 0.2252161 0.226368
 0.2270031 0.2272714 0.2274821 0.2277577 0.2279532 0.2276101 0.2262137 0.2239492 0.222086 0.2220817
 0.2241536 0.2270222 0.2291847 0.2302075 0.2305994 0.2307008 0.2301793 0.2286248 0.2261671 0.2234126
 0.2212506 0.220737 0.2223976 0.2253499 0.2278029 0.228824 0.2291259 0.2298866 0.2313433 0.2327985
 0.2335237 0.233322 0.2324117 0.2310309 0.2293214 0.2276967 0.2270645 0.2281871 0.2307588 0.2335136
 0.235392 0.2363434 0.2367799 0.2363417 0.2336492 0.2279652 0.2212672 0.2176927 0.2198866 0.2262388
 0.2326154 0.2364215 0.2380194 0.238784 0.2392536 0.2389836 0.2368108 0.2314923 0.2236741 0.2171239
 0.2161816 0.2214658 0.2291727 0.2346272 0.2354578 0.2318388 0.2256598 0.2199724 0.2177367 0.2200193
 0.2255322 0.2319088 0.2371268 0.2400567 0.2404359 0.2387551 0.2362354 0.2345415 0.2345718 0.235131
 0.2338421 0.2301585 0.2262799 0.2239233 0.2216621 0.2175558 0.2134063 0.2135699 0.2192967 0.2266392
 0.2308891 0.2313529 0.2304969 0.2294511 0.2260683 0.2180107 0.2071731 0.199768 0.2008979 0.2092625
 0.2183219 0.222703 0.2224684 0.2211978 0.22121 0.2211973 0.2180629 0.210963 0.2033778 0.2001959
 0.2025122 0.2066467 0.2085046 0.2068417 0.2018277 0.1937395 0.1853282 0.1826712 0.1900497 0.2047173
 0.2190486 0.2268142 0.22546 0.2147544 0.1976913 0.1823314 0.1778809 0.186444 0.2004642 0.2096729
 0.2092381 0.2006377 0.1872812 0.1721788 0.159327 0.1541465 0.1602537 0.1757981 0.1934518 0.2040142
 0.2014964 0.1878143 0.1732712 0.1691434 0.1773805 0.1892249 0.1950142 0.1929547 0.1877653 0.1846242
 0.186183 0.1920625 0.199248 0.2049321 0.208754 0.2096056 0.2026094 0.1849782 0.1637771 0.1512688
 0.1521811 0.1612813 0.1731808 0.1871758 0.2008656 0.2068282 0.2009892 0.1903456 0.1870143 0.1953691
 0.2082945 0.2158893 0.2152673 0.2110912 0.2083783 0.2071618 0.2049737 0.2026114 0.2043507 0.2120403
 0.2218647 0.2285979 0.2310386 0.2315433 0.2320351 0.2325409 0.2325384 0.2318405 0.2305179 0.2290168
 0.2280163 0.2276584 0.2274199 0.2269103 0.225821 0.2226853 0.2152039 0.2034709 0.192021 0.1862303
 0.1866131 0.189189 0.1914006 0.1936119 0.1935947 0.1849624 0.1656037 0.1446207 0.1357087 0.1439202
 0.1619008 0.1782799 0.1863856 0.1848187 0.1740593 0.156675 0.1400336 0.1339895 0.1428433 0.1612152
 0.1797945 0.1933617 0.2013713 0.2034933 0.1986305 0.1880976 0.1768965 0.1708497 0.1730525 0.1825171
 0.1945067 0.2017514 0.198003 0.1842479 0.1714464 0.1724404 0.1884769 0.207127 0.2162609 0.2163345
 0.2154464 0.2167538 0.2169123 0.2149263 0.2156962 0.2232982 0.2349922 0.2439265 0.2451626 0.2376288
 0.2234761 0.2085615 0.2009223 0.2042971 0.2138048 0.2211923 0.2227885 0.2190185 0.2095451 0.1953112
 0.1836833 0.1840175 0.1968224 0.2125527 0.2224568 0.2265479 0.2296105 0.2329661 0.232865 0.2261563
 0.2155415 0.2079107 0.207536 0.2123449 0.2174539 0.2203208 0.2207752 0.2181069 0.2115119 0.2034178
 0.1995033 0.2037627 0.214352 0.2252834 0.231753 0.2331395 0.2316147 0.229324 0.2269409 0.223825
 0.2194471 0.2152535 0.214395 0.2183671 0.2246454 0.2292847 0.2314361 0.2336327 0.2377931 0.2425708
 0.2449912 0.2437013 0.2402605 0.2377812 0.2384299 0.2417118 0.2448417 0.2451131 0.2424644 0.2397802
 0.2402434 0.2443028 0.2495928 0.2536287 0.255837 0.2570571 0.2580885 0.2589816 0.2589986 0.2571788
 0.2537064 0.2506948 0.2506858 0.2541295 0.2589583 0.2627198 0.2645536 0.265048 0.2648947 0.2641748
 0.2627515 0.2609078 0.2593614 0.2587019 0.2589694 0.2597956 0.2607798 0.2616636 0.2623236 0.2627577
 0.263041 0.2632314 0.2633497 0.2634394 0.2635462 0.2636246 0.2635789 0.2634372 0.2633875 0.2635702
 0.2639041 0.2641806 0.2642561 0.2640669 0.2635315 0.2625792 0.2612765 0.2598008 0.2582501 0.2565826
 0.2548486 0.2534449 0.2530014 0.2539077 0.2559431 0.2584054 0.2605948 0.2621691 0.2631341 0.2636465
 0.2638786 0.2639675 0.263987 0.2639421 0.2638108 0.2635891 0.2632929 0.2629372 0.2625361 0.2621221
 0.2617455 0.2614397 0.2611854 0.2609173 0.2605727 0.2601319 0.2596205 0.2590813 0.258539 0.2579781
 0.2573505 0.2566112 0.2557521 0.2548113 0.2538592 0.2529664 0.2521614 0.2514117 0.2506574 0.2498549
 0.2489718 0.247964 0.2468168 0.2456178 0.2445353 0.2436813 0.2430174 0.2424101 0.2417488 0.240991
 0.2401337 0.2391894 0.2381838 0.2371431 0.2360735 0.2349605 0.2337801 0.2325099 0.2311407 0.2296846
 0.2281614 0.226582 0.2249546 0.2232935 0.2215971 0.2198143 0.2178397 0.2155395 0.2127806 0.2094596
 0.2055402 0.2010881 0.1962725 0.1913173 0.1864298 0.181761 0.1774243 0.1735269 0.170169 0.1674233
 0.1653309 0.1639149 0.1631908 0.1631679 0.163847 0.1652069 0.1671841 0.1696628 0.172488 0.175489
 0.1784967 0.1813562 0.1839635 0.1863129 0.1884895 0.1905793 0.1925835 0.1944343 0.1960744 0.1974944
 0.1987074 0.1997246 0.2005625 0.2012525 0.2018312 0.2023262 0.2027535 0.2031245 0.2034493 0.2037287
 0.2039544 0.2041275 0.2042749 0.2044382 0.2046455 0.2048952 0.2051684 0.2054579 0.2057871 0.2061908
 0.2066784 0.2072273 0.2078124 0.2084253 0.2090642 0.2097267 0.2104286 0.2112184 0.2121542 0.2132582
 0.2145012 0.215829 0.2171896 0.2185242 0.2197521 0.2207894 0.221584 0.2221212 0.2224099 0.2224799
 0.2223797 0.222158 0.2218449 0.2214546 0.2209965 0.220482 0.2199238 0.2193299 0.2186941 0.2180045
 0.217268 0.2165206 0.2158011 0.2151176 0.2144475 0.2137724 0.2131028 0.2124639 0.2118661 0.2113006
 0.2107547 0.2102129 0.2096529 0.2090632 0.2084606 0.2078657 0.2072589 0.2065809 0.205784 0.2048647
 0.2038443 0.2027348 0.2015341 0.2002401 0.198857 0.1973915 0.1958527 0.1942547 0.1926127 0.1909283
 0.1891744 0.1873077 0.185319 0.1832721 0.1812754 0.17941 0.1776954 0.1761109 0.1746296 0.1732329
 0.1719112 0.1706515 0.1694313 0.1682373 0.1670883 0.1660148 0.1650209 0.1640838 0.1631912 0.1623631
 0.1616338 0.1610171 0.1604904 0.1600176 0.1595834 0.1591998 0.1588925 0.1586975 0.1586443 0.1587113
 0.15881 0.1588421 0.158771 0.1586309 0.1584828 0.1583691 0.1582983 0.1582591 0.1582326 0.1581783
 0.1580243 0.1576905 0.1571113 0.1562347 0.15503 0.153518 0.1517746 0.1499106 0.14806 0.1463615
 0.1449174 0.1437744 0.1429325 0.1423417 0.1418996 0.1415094 0.1411547 0.1409084 0.140866 0.1410481
 0.1413356 0.1415363 0.1415659 0.1415424 0.1416761 0.1420939 0.1427729 0.1435796 0.1443539 0.1449945
 0.1454796 0.1458198 0.1460333 0.1461594 0.1462329 0.1462454 0.1461677 0.145991 0.1457211 0.1453722
 0.1449735 0.1445423 0.1440603 0.1435035 0.1428659 0.1421398 0.1413219 0.140422 0.1394172 0.1382571
 0.1369961 0.1358645 0.1351421 0.13499 0.1353934 0.1361895 0.1371716 0.1382209 0.1392702 0.1401238
 0.1405203 0.1405233 0.1407078 0.1417428 0.1437591 0.1462099 0.1483591 0.1498166 0.1505796 0.1507377
 0.1503323 0.1494056 0.1479757 0.1460076 0.1435344 0.1407108 0.1376835 0.1345692 0.1315699 0.1289124
 0.1266895 0.1248813 0.1234524 0.1224446 0.122024 0.1218515 0.120025 0.1140797 0.1047827 0.09782031
 0.09899285 0.1076854 0.1173071 0.1222542 0.1223655 0.120627 0.1191123 0.1181382 0.1175888 0.1175971
 0.1182892 0.1195211 0.1209046 0.1220421 0.1227718 0.1231305 0.123068 0.1222182 0.119852 0.1151297
 0.1077695 0.09863471 0.08945218 0.08181504 0.07646179 0.07328108 0.07165647 0.07082845 0.07027193 0.06994531
 0.07016897 0.07123898 0.0731819 0.07584049 0.07903714 0.08252738 0.0858945 0.08871656 0.0908796 0.09258012
 0.09399025 0.09505045 0.09561138 0.0956462 0.09526916 0.09463434 0.09387413 0.093072 0.09221334 0.09119435
 0.08998658 0.08879621 0.08794268 0.08754909 0.08745497 0.08744092 0.08741407 0.08736728 0.08729544 0.08719546
 0.08708762 0.08703524 0.0871525 0.0875209 0.08806708 0.08858577 0.08890869 0.08902525 0.08904299 0.08902231
 0.08883651 0.08829043 0.08745106 0.08668648 0.08619434 0.08566585 0.08468983 0.083386 0.0823518 0.08200604
 0.08221349 0.0825439 0.08267862 0.0825399 0.08225751 0.08213043 0.0824379 0.08310202 0.0836437 0.08364594
</values></Ydata></ScRf><Data_Parameters_AB><parameter name="DPF">1</parameter><parameter name="NPT">3497</parameter><parameter name="FXV">3996</parameter><parameter name="LXV">500</parameter><parameter name="CSF">1</parameter><parameter name="MXY">0.444626599550247</parameter><parameter name="MNY">-0.0794744491577148</parameter><parameter name="DAT">02/06/2022</parameter><parameter name="TIM">12:17:07.184 (GMT+2)</parameter><parameter name="DXU">WN</parameter></Data_Parameters_AB><AB__Qtest><MainReport name="Quality Test Report"><Header><Line><Legend>Test result ok/not ok [1/0]: </Legend><Value>0</Value></Line><Line><Legend>Method file: </Legend><Value>C:\Users\Public\Documents\Bruker\OPUS_8.2.28\QT\IRBT_v3_default.QT</Value></Line></Header><Matrix><Line><Legend></Legend><Legend>min</Legend><Legend>max</Legend><Legend>measured</Legend></Line><Line><Value>Absorption (X-Range 1):</Value><Value>0.400000</Value><Value>2.000000</Value><Value>0.319151</Value></Line><Line><Value>Noise (X-Range 4):</Value><Value></Value><Value>0.000300</Value><Value>0.000058</Value></Line><Line><Value>Signal/Noise (X-Range 2):</Value><Value>200.000000</Value><Value></Value><Value>82.670538</Value></Line><Line><Value>Signal/Noise (X-Range 3):</Value><Value>40.000000</Value><Value></Value><Value>90.257735</Value></Line><Line><Value>Water vapour (X-Range 5):</Value><Value></Value><Value>0.000300</Value><Value>0.000072</Value></Line><Line><Value>Signal/Water (X-Range 2):</Value><Value>100.000000</Value><Value></Value><Value>67.166385</Value></Line><Line><Value>Signal/Water (X-Range 3):</Value><Value>20.000000</Value><Value></Value><Value>73.330668</Value></Line><Line><Value>Fringes (X-Range 6):</Value><Value></Value><Value>0.000100</Value><Value>0.000048</Value></Line></Matrix></MainReport></AB__Qtest><Data_Parameters_ScSm><parameter name="DPF">1</parameter><parameter name="NPT">1814</parameter><parameter name="FXV">3996.33169228125</parameter><parameter name="LXV">499.541461535156</parameter><parameter name="CSF">1</parameter><parameter name="MXY">0.266283571720123</parameter><parameter name="MNY">0.0356015041470528</parameter><parameter name="DAT">02/06/2022</parameter><parameter name="TIM">12:17:07.184 (GMT+2)</parameter><parameter name="DXU">WN</parameter></Data_Parameters_ScSm><Data_Parameters_ScRf><parameter name="DPF">1</parameter><parameter name="NPT">1820</parameter><parameter name="FXV">4004.04661832813</parameter><parameter name="LXV">495.683998511719</parameter><parameter name="CSF">1</parameter><parameter name="MXY">0.265048027038574</parameter><parameter name="MNY">0.0301451683044434</parameter><parameter name="DAT">02/06/2022</parameter><parameter name="TIM">12:16:40.884 (GMT+2)</parameter><parameter name="DXU">WN</parameter></Data_Parameters_ScRf><Optic_Parameters_Rf><parameter name="APR">0</parameter><parameter name="APT">Open</parameter><parameter name="BMS">KBr</parameter><parameter name="DTC">RT-DLaTGS_IR-Biotyper [Microplate reader]</parameter><parameter name="HPF">0</parameter><parameter name="LPF">10.0</parameter><parameter name="LPV">4000</parameter><parameter name="PGR">0</parameter><parameter name="RCH">Module port</parameter><parameter name="RDX">0</parameter><parameter name="SRC">MIR</parameter><parameter name="VEL">10.0</parameter><parameter name="SON">Off</parameter></Optic_Parameters_Rf><Acquisition_Parameters_Rf><parameter name="ADT">1</parameter><parameter name="AQM">DD</parameter><parameter name="CFE">0</parameter><parameter name="COR">0</parameter><parameter name="DEL">0</parameter><parameter name="DLY">0</parameter><parameter name="HFW">8000</parameter><parameter name="LFW">0</parameter><parameter name="NSR">32</parameter><parameter name="PLF">AB</parameter><parameter name="RES">6</parameter><parameter name="RGN">-1</parameter><parameter name="STR">0</parameter><parameter name="TCL">MakeCompatibleScalar (0, {WSV=1.000000, ARV=0});</parameter><parameter name="TDL">37</parameter><parameter name="RPO">0</parameter></Acquisition_Parameters_Rf><FT_-_Parameters_Rf><parameter name="APF">B3</parameter><parameter name="HFQ">500</parameter><parameter name="LFQ">4000</parameter><parameter name="NLI">0</parameter><parameter name="PHR">24</parameter><parameter name="PHZ">ML</parameter><parameter name="SPZ">NO</parameter><parameter name="ZFF">1</parameter></FT_-_Parameters_Rf><Optic_Parameters_><parameter name="APR">0</parameter><parameter name="APT">Open</parameter><parameter name="BMS">KBr</parameter><parameter name="CHN">Module port</parameter><parameter name="DTC">RT-DLaTGS_IR-Biotyper [Microplate reader]</parameter><parameter name="HPF">0</parameter><parameter name="LPF">10.0</parameter><parameter name="LPV">4000</parameter><parameter name="PGN">0</parameter><parameter name="RDX">0</parameter><parameter name="SRC">MIR</parameter><parameter name="VEL">10.0</parameter><parameter name="SON">Off</parameter></Optic_Parameters_><FT_-_Parameters_><parameter name="APF">B3</parameter><parameter name="HFQ">500</parameter><parameter name="LFQ">4000</parameter><parameter name="NLI">0</parameter><parameter name="PHR">24</parameter><parameter name="PHZ">ML</parameter><parameter name="SPZ">NO</parameter><parameter name="ZFF">1</parameter></FT_-_Parameters_><Acquisition_Parameters_><parameter name="ADT">1</parameter><parameter name="AQM">DD</parameter><parameter name="CFE">0</parameter><parameter name="COR">0</parameter><parameter name="DEL">0</parameter><parameter name="DLY">0</parameter><parameter name="HFW">8000</parameter><parameter name="LFW">0</parameter><parameter name="NSS">32</parameter><parameter name="PLF">AB</parameter><parameter name="RES">6</parameter><parameter name="SOT">0</parameter><parameter name="TCL">MakeCompatibleScalar (0, {WSV=1.000000, ARV=0});</parameter><parameter name="TDL">37</parameter><parameter name="SPO">0</parameter><parameter name="SGN">-1</parameter></Acquisition_Parameters_><Instrument_Parameters_Rf><parameter name="HFL">15800.168544</parameter><parameter name="LFL">0</parameter><parameter name="LWN">15800.168544</parameter><parameter name="ABP">32197</parameter><parameter name="SSP">1</parameter><parameter name="ARG">2</parameter><parameter name="ASG">2</parameter><parameter name="ASS">32</parameter><parameter name="GFW">16</parameter><parameter name="GBW">16</parameter><parameter name="BFW">0</parameter><parameter name="BBW">0</parameter><parameter name="PKA">7267</parameter><parameter name="PKL">4996</parameter><parameter name="PRA">7450</parameter><parameter name="PRL">5001</parameter><parameter name="P2A">1</parameter><parameter name="P2L">1</parameter><parameter name="P2R">1</parameter><parameter name="P2K">1</parameter><parameter name="DAQ">0</parameter><parameter name="AG2">1</parameter><parameter name="SSM">1</parameter><parameter name="RSN">26159</parameter><parameter name="CRR">0</parameter><parameter name="SRT">1654172200.884</parameter><parameter name="DUR">19.6379852294922</parameter><parameter name="TSC">28.9</parameter><parameter name="MVD">0.225388690829277</parameter><parameter name="AN1">0.225853021298914</parameter><parameter name="AN2">0</parameter><parameter name="VSN">2.485 Apr  4 2017</parameter><parameter name="SRN">0085</parameter><parameter name="CAM">0</parameter><parameter name="INS">IR-Biotyper</parameter><parameter name="FOC">69</parameter><parameter name="RDY">1</parameter><parameter name="ARS">32</parameter></Instrument_Parameters_Rf><Sample_Parameters_><parameter name="BLD"></parameter><parameter name="CNM">Admin</parameter><parameter name="CPY"></parameter><parameter name="DPM"></parameter><parameter name="EXP">IRBT_v3_32Scans.XPM</parameter><parameter name="LCT"></parameter><parameter name="SFM">Microplate, HTS-XT</parameter><parameter name="SNM">220602-1054_CLA33F (D_18)_A10_2025b97e-dd48-4c52-b7f7-6a59320bf7d8.0</parameter><parameter name="XPP">C:\Users\Public\Documents\Bruker\OPUS_8.2.28\XPM</parameter><parameter name="IST">OK</parameter><parameter name="CPG">1252</parameter><parameter name="UID">cb6c5f95-3bc8-4340-be44-0de222e65ca4</parameter></Sample_Parameters_><Instrument_Parameters_><parameter name="HFL">15800.168544</parameter><parameter name="LFL">0</parameter><parameter name="LWN">15800.168544</parameter><parameter name="ABP">32197</parameter><parameter name="SSP">1</parameter><parameter name="ASG">2</parameter><parameter name="ARG">2</parameter><parameter name="ASS">32</parameter><parameter name="GFW">16</parameter><parameter name="GBW">16</parameter><parameter name="BFW">0</parameter><parameter name="BBW">0</parameter><parameter name="PKA">7077</parameter><parameter name="PKL">4988</parameter><parameter name="PRA">7365</parameter><parameter name="PRL">4993</parameter><parameter name="P2A">1</parameter><parameter name="P2L">1</parameter><parameter name="P2R">1</parameter><parameter name="P2K">1</parameter><parameter name="DAQ">0</parameter><parameter name="AG2">1</parameter><parameter name="SSM">1</parameter><parameter name="RSN">13705</parameter><parameter name="CRR">0</parameter><parameter name="SRT">1654172227.184</parameter><parameter name="DUR">19.6379852294922</parameter><parameter name="TSC">28.9</parameter><parameter name="MVD">0.198190599679947</parameter><parameter name="AN1">0.225825143554092</parameter><parameter name="AN2">0</parameter><parameter name="VSN">2.485 Apr  4 2017</parameter><parameter name="SRN">0085</parameter><parameter name="CAM">0</parameter><parameter name="INS">IR-Biotyper</parameter><parameter name="FOC">69</parameter><parameter name="RDY">1</parameter></Instrument_Parameters_><History/></OPUSDataFile>
