<?xml version="1.0" encoding="UTF-8" ?>
<OPUSDataFile><AB><Ydata ylabel="Absorbance Units"><values byteorder="INTEL" format="FLOAT32" numvalues="3497"> -0.06893345 -0.06893082 -0.06893039 -0.06893279 -0.06892869 -0.06891764 -0.06889966 -0.06887546 -0.06885383 -0.06883558
 -0.06883058 -0.06883734 -0.06885707 -0.06888526 -0.06891176 -0.06893411 -0.06894192 -0.06894013 -0.06892911 -0.06891707
 -0.06891166 -0.06891387 -0.06892759 -0.06894664 -0.06896908 -0.0689928 -0.06901593 -0.06904392 -0.06907762 -0.06911948
 -0.0691703 -0.06922392 -0.06928004 -0.06932928 -0.06937133 -0.06939944 -0.06941395 -0.06941265 -0.0693973 -0.0693718
 -0.0693402 -0.06931332 -0.06929526 -0.06929868 -0.06932217 -0.06937151 -0.06943648 -0.06951264 -0.06958661 -0.06964969
 -0.06969552 -0.06971903 -0.06972171 -0.06970288 -0.06966526 -0.06960873 -0.06953835 -0.06945368 -0.06937125 -0.06929196
 -0.06924114 -0.06921916 -0.06923851 -0.06929512 -0.06937184 -0.06946341 -0.06953996 -0.06960362 -0.06964299 -0.06966634
 -0.0696829 -0.06969721 -0.06972022 -0.06974684 -0.06977847 -0.06980389 -0.06981695 -0.06981189 -0.06978268 -0.06973835
 -0.06967801 -0.06962071 -0.0695691 -0.06953852 -0.06953091 -0.06955317 -0.0696058 -0.0696887 -0.06980088 -0.06993109
 -0.07007509 -0.07020202 -0.07030708 -0.07035226 -0.07034492 -0.07027933 -0.07017522 -0.07006351 -0.06995621 -0.06988204
 -0.0698368 -0.06982944 -0.06984344 -0.06987417 -0.06990138 -0.06991495 -0.06990929 -0.0698778 -0.06983829 -0.06979144
 -0.0697618 -0.06975262 -0.06977026 -0.06981536 -0.06987302 -0.06994253 -0.07001007 -0.070077 -0.0701452 -0.07021558
 -0.07029427 -0.07037736 -0.07045946 -0.07053426 -0.07058641 -0.07061863 -0.07062554 -0.070619 -0.07060934 -0.07059666
 -0.07058747 -0.07056565 -0.07052392 -0.07046198 -0.07037257 -0.07029054 -0.07021837 -0.0702001 -0.07024231 -0.07035284
 -0.07053322 -0.07070049 -0.07084864 -0.07086241 -0.07075535 -0.07055598 -0.07028579 -0.07004456 -0.06983246 -0.06970097
 -0.06963813 -0.06965113 -0.06971618 -0.06981161 -0.06990892 -0.06997378 -0.07000307 -0.06997767 -0.06993236 -0.06987554
 -0.06983657 -0.06982864 -0.06984565 -0.06988972 -0.06994326 -0.07000432 -0.07006618 -0.07012836 -0.07018742 -0.07024249
 -0.07027966 -0.07029755 -0.070278 -0.07022463 -0.07013857 -0.07003035 -0.06992773 -0.06983559 -0.06977812 -0.06974675
 -0.06974064 -0.06975158 -0.06977028 -0.06979916 -0.06983641 -0.06988786 -0.06995675 -0.07004114 -0.0701431 -0.07024977
 -0.07036021 -0.07045822 -0.0705423 -0.07059814 -0.07062481 -0.07061101 -0.07055695 -0.07046363 -0.07033356 -0.07018306
 -0.07001564 -0.06985267 -0.06969739 -0.06956887 -0.06946798 -0.06940702 -0.06937947 -0.06938551 -0.06940952 -0.06943947
 -0.06946155 -0.06946164 -0.06944373 -0.0694032 -0.06935886 -0.06931464 -0.06928513 -0.06927449 -0.06928331 -0.06931257
 -0.06935536 -0.06941138 -0.06947245 -0.0695378 -0.06959496 -0.06964259 -0.06966481 -0.06966241 -0.06962789 -0.06956765
 -0.06949285 -0.06941233 -0.06934746 -0.06930136 -0.06928843 -0.06930229 -0.06934254 -0.06940258 -0.06947606 -0.06956812
 -0.06967992 -0.069814 -0.06997626 -0.07014055 -0.07030585 -0.07043214 -0.07051367 -0.07054065 -0.070512 -0.07043178
 -0.07030014 -0.07011576 -0.06988347 -0.06963386 -0.06937604 -0.06916416 -0.06899928 -0.06891514 -0.06889959 -0.06895211
 -0.06904589 -0.06914808 -0.06923842 -0.06928239 -0.06929111 -0.06925892 -0.06920841 -0.06914879 -0.06908954 -0.06903732
 -0.06898347 -0.06892847 -0.06885638 -0.06876429 -0.06865498 -0.06852797 -0.06841188 -0.0683084 -0.06824979 -0.06823494
 -0.06827533 -0.06836126 -0.06846423 -0.06856665 -0.06860263 -0.06857464 -0.06844687 -0.06825507 -0.06803153 -0.06779882
 -0.06759349 -0.06740595 -0.06724198 -0.06708455 -0.06692519 -0.06676447 -0.06659903 -0.06644201 -0.06629644 -0.06616393
 -0.06604638 -0.06592712 -0.06580531 -0.06566112 -0.06549462 -0.06530726 -0.06510238 -0.06490635 -0.0647191 -0.06455507
 -0.06440994 -0.06427784 -0.06415914 -0.06405236 -0.06395738 -0.06387828 -0.06380022 -0.0637157 -0.06360006 -0.0634318
 -0.06321298 -0.06293371 -0.06262515 -0.06229644 -0.06195772 -0.0616149 -0.06125233 -0.06086861 -0.06045457 -0.06000927
 -0.05953655 -0.05903738 -0.05852945 -0.05801613 -0.057531 -0.05707537 -0.0566765 -0.05632484 -0.05601042 -0.05572005
 -0.0554218 -0.0551163 -0.05479133 -0.05445112 -0.05410049 -0.053726 -0.05332046 -0.05287538 -0.0523788 -0.05185634
 -0.05131267 -0.05076874 -0.05023153 -0.04969608 -0.04916278 -0.04862339 -0.04807701 -0.0475319 -0.04698933 -0.04647608
 -0.04599313 -0.04556464 -0.04518273 -0.04483358 -0.04449535 -0.04409846 -0.04363535 -0.04304386 -0.04236876 -0.04163999
 -0.04090386 -0.04022088 -0.03958931 -0.03903076 -0.03851465 -0.03803642 -0.03755806 -0.03706682 -0.03654387 -0.03598019
 -0.03539177 -0.03477873 -0.03416351 -0.03354812 -0.03293135 -0.03231268 -0.03167763 -0.03102702 -0.03036025 -0.02967995
 -0.02899715 -0.0283132 -0.02763653 -0.02696927 -0.02631977 -0.02568799 -0.02508051 -0.02448659 -0.02389989 -0.02330854
 -0.02269998 -0.02207998 -0.02144733 -0.02081133 -0.02017777 -0.01953513 -0.01888258 -0.01820646 -0.01750265 -0.01678908
 -0.01606628 -0.01536534 -0.01468679 -0.01403464 -0.01340601 -0.01278003 -0.01215435 -0.0115058 -0.01083813 -0.01014681
 -0.009443591 -0.008748692 -0.00807071 -0.007434119 -0.006828221 -0.006257532 -0.005692561 -0.005116673 -0.004507304 -0.003845385
 -0.003142281 -0.002393832 -0.001631323 -0.000860012 -0.0001023806 0.0006376333 0.001352974 0.002042582 0.002711753 0.003360924
 0.003999324 0.00462792 0.005257371 0.005890245 0.00654369 0.007219323 0.007933896 0.008679511 0.009451845 0.01023552
 0.01100647 0.01175943 0.01247772 0.01317186 0.0138436 0.01450279 0.01515579 0.0158016 0.01644157 0.0170713
 0.01768907 0.01829862 0.01889905 0.01950578 0.0201197 0.02075741 0.02141908 0.02210194 0.02280344 0.02350037
 0.02419214 0.02486197 0.02551505 0.02615715 0.02679399 0.02744068 0.02809695 0.02877122 0.02945413 0.030143
 0.03082011 0.03147325 0.03209084 0.03265991 0.03319582 0.03369644 0.03419638 0.03470283 0.03523493 0.0357977
 0.03638285 0.03699046 0.03760422 0.03822342 0.03883666 0.03944399 0.04004022 0.04062678 0.04120729 0.04178319
 0.04236163 0.0429403 0.04351867 0.04409268 0.0446558 0.0452075 0.0457448 0.0462686 0.04677863 0.04727575
 0.0477593 0.04823411 0.04870118 0.04916575 0.04962993 0.05009065 0.05054782 0.05099781 0.05143991 0.05188315
 0.05232807 0.05278713 0.05325956 0.05374458 0.05423925 0.05472986 0.05521378 0.05567555 0.05611582 0.05652652
 0.05691481 0.05728582 0.05764972 0.05801962 0.05839689 0.05878832 0.05918562 0.05958617 0.05998561 0.06038126
 0.06077518 0.06116806 0.06155731 0.06194326 0.06231798 0.06268085 0.0630268 0.06335571 0.06366738 0.06396307
 0.0642526 0.06453956 0.06484693 0.06517543 0.06554297 0.06593948 0.06635564 0.06677619 0.06717412 0.067545
 0.0678717 0.06816471 0.06842461 0.06866567 0.06889515 0.06911971 0.06934401 0.0695652 0.06978319 0.06999622
 0.07020297 0.07041318 0.0706273 0.07085811 0.07110583 0.07136608 0.07163712 0.07190057 0.07215652 0.0723954
 0.07261973 0.0728328 0.0730352 0.07322937 0.07341598 0.07359493 0.07377268 0.07395515 0.07414834 0.07436097
 0.07458583 0.07482522 0.0750585 0.07528044 0.07547282 0.07562921 0.07575006 0.07583283 0.0758974 0.07594496
 0.0759951 0.07604841 0.07610448 0.07616198 0.07620728 0.07624095 0.07625794 0.07626146 0.07625873 0.07625236
 0.07625112 0.0762563 0.07627391 0.07630295 0.0763457 0.07639729 0.07645451 0.0765156 0.0765761 0.0766474
 0.07673189 0.07684039 0.07697979 0.07713038 0.07729376 0.07742146 0.0775097 0.07752333 0.07746145 0.07733689
 0.07715399 0.07696019 0.07675778 0.07658444 0.0764356 0.07631618 0.07622251 0.07614709 0.07609399 0.07606746
 0.07606681 0.07609896 0.07614316 0.07618989 0.0762144 0.07619762 0.07614531 0.07604989 0.0759466 0.07584187
 0.07576068 0.07570999 0.07567894 0.07566822 0.07564723 0.07561456 0.07554883 0.07545111 0.07532278 0.07516813
 0.07500848 0.07484861 0.07471544 0.07460924 0.07454598 0.0745178 0.07452276 0.07454585 0.07457261 0.07458787
 0.0745753 0.07453129 0.07444619 0.07433602 0.07420086 0.07406875 0.07394487 0.07385353 0.07379884 0.07379492
 0.07384349 0.07394966 0.07411347 0.07432564 0.07458296 0.07485224 0.07512633 0.0753514 0.07552301 0.07559408
 0.07557527 0.07545908 0.07527637 0.07506612 0.07486112 0.07471454 0.07462846 0.07463016 0.0746798 0.07477072
 0.0748484 0.07489304 0.07487177 0.07477 0.07459495 0.07434183 0.07405514 0.07373714 0.07344205 0.07317231
 0.07294942 0.07277074 0.07261527 0.07248102 0.07234382 0.07221058 0.07209071 0.07199193 0.07194162 0.07192781
 0.07195304 0.07198013 0.07197428 0.0718993 0.07171199 0.07141592 0.07099084 0.07049133 0.06992562 0.06936202
 0.06881901 0.06832885 0.06790173 0.06752542 0.06720061 0.06689997 0.06662216 0.06634603 0.06607142 0.06578789
 0.06549814 0.06520986 0.06492765 0.06467368 0.06444342 0.0642432 0.06405319 0.06384653 0.06360696 0.06330019
 0.06294089 0.06252042 0.06208365 0.06164753 0.06125578 0.06093056 0.06067976 0.06051616 0.06039641 0.06032053
 0.06021424 0.06007088 0.05984061 0.05952125 0.05912837 0.05866668 0.05819416 0.05771292 0.05726566 0.05684731
 0.05646329 0.05610875 0.05577476 0.05546108 0.05516429 0.05488295 0.05461631 0.05435706 0.05410121 0.05383824
 0.0535622 0.05326538 0.05294298 0.05259527 0.05222015 0.0518269 0.05141587 0.05100039 0.05058159 0.05017003
 0.04976628 0.04937464 0.04899485 0.04862508 0.04826493 0.04791094 0.04756371 0.04722348 0.04689095 0.04656902
 0.04625492 0.04594697 0.04563872 0.0453225 0.0449942 0.04464658 0.04428424 0.04390587 0.04352279 0.04313831
 0.04276188 0.04239731 0.04204408 0.04170397 0.04136414 0.04102394 0.04066735 0.04029354 0.03989736 0.0394799
 0.03905263 0.03861718 0.03818952 0.03776835 0.03735839 0.03695603 0.03655467 0.0361536 0.03574772 0.0353405
 0.03493373 0.03453061 0.034133 0.03374645 0.03337078 0.0330234 0.03270941 0.03244584 0.03224321 0.03207918
 0.03195788 0.03180898 0.03162704 0.0313498 0.03097396 0.03050589 0.02995127 0.02938036 0.02880008 0.02828813
 0.02784118 0.02749469 0.02722891 0.02702155 0.0268426 0.02663286 0.02637845 0.02603113 0.02562076 0.02514621
 0.02466356 0.02420589 0.02379414 0.02345278 0.0231421 0.02285802 0.02256061 0.02223679 0.02191406 0.02159084
 0.02133904 0.02116242 0.02108629 0.02110467 0.02115017 0.02121113 0.02118155 0.02106426 0.02080556 0.02043163
 0.01997312 0.0194611 0.01896378 0.0184857 0.01806541 0.01767495 0.01730493 0.01693222 0.01653375 0.01612901
 0.01571561 0.0153323 0.01499281 0.01469561 0.01444716 0.01420141 0.01395386 0.0136804 0.01337949 0.01308563
 0.01280126 0.01257046 0.01238856 0.01225184 0.01215043 0.01204542 0.01193542 0.0117953 0.01163436 0.01145727
 0.0112706 0.01108806 0.01089921 0.01070593 0.0104799 0.0102074 0.009865732 0.009436616 0.008939466 0.008366729
 0.007788057 0.007210803 0.006706714 0.006286179 0.005957026 0.00572033 0.005508285 0.00531617 0.005061522 0.004748019
 0.004350963 0.003887524 0.00340492 0.002919035 0.002495742 0.002129809 0.001848266 0.001623482 0.001436758 0.001258419
 0.001056518 0.0008222153 0.0005365477 0.0002209772 -0.0001259601 -0.0004623662 -0.0007783162 -0.001043577 -0.001247212 -0.001408329
 -0.00152467 -0.001658448 -0.001813123 -0.002031849 -0.002312411 -0.002632294 -0.002985128 -0.003316687 -0.003631685 -0.003914959
 -0.004182813 -0.004470184 -0.004780989 -0.005145234 -0.005539153 -0.005950398 -0.006347968 -0.006699258 -0.00699834 -0.007228212
 -0.007409952 -0.007547015 -0.007659601 -0.007755194 -0.007835773 -0.007902916 -0.007953455 -0.007985927 -0.008015155 -0.008041755
 -0.008102393 -0.008198904 -0.008366484 -0.00860238 -0.008910523 -0.009280422 -0.009677569 -0.01008957 -0.01046824 -0.01080933
 -0.01108196 -0.01129306 -0.01143732 -0.01152686 -0.01156911 -0.01157477 -0.01155104 -0.01150649 -0.01144463 -0.01137565
 -0.01130156 -0.01123539 -0.01118006 -0.01114101 -0.01112096 -0.01109826 -0.01107207 -0.01099173 -0.010855 -0.01061708
 -0.01028276 -0.009856541 -0.009351701 -0.008819768 -0.008270813 -0.007757994 -0.007277943 -0.006850742 -0.006464494 -0.006112736
 -0.005786284 -0.005475122 -0.005175336 -0.004882832 -0.004593493 -0.004305198 -0.004014092 -0.003716972 -0.003421415 -0.003125358
 -0.002856598 -0.002616629 -0.002441374 -0.002333183 -0.002307868 -0.002364183 -0.002484388 -0.00266512 -0.002875244 -0.003114537
 -0.003366588 -0.003631243 -0.003903846 -0.004174585 -0.00442785 -0.004646769 -0.004802959 -0.004892355 -0.004896579 -0.004835586
 -0.004712848 -0.004555295 -0.004375802 -0.004183908 -0.00398658 -0.003775291 -0.003549685 -0.003301366 -0.003028671 -0.002734978
 -0.002420147 -0.002104759 -0.001791277 -0.001520557 -0.001296708 -0.001168932 -0.001135947 -0.001223428 -0.001418203 -0.001702525
 -0.002058995 -0.002446749 -0.002862604 -0.003280638 -0.003721294 -0.004188316 -0.004714695 -0.005319702 -0.006027095 -0.006854546
 -0.007796688 -0.008861963 -0.01000733 -0.01123177 -0.01246593 -0.01370369 -0.0148804 -0.01599152 -0.01700609 -0.01792437
 -0.01875074 -0.01948731 -0.02014996 -0.02073967 -0.02126645 -0.02173452 -0.02215629 -0.02254351 -0.02292201 -0.02330112
 -0.02370712 -0.0241298 -0.0245744 -0.02501365 -0.02543322 -0.02581406 -0.02614219 -0.02642187 -0.02665023 -0.02684121
 -0.02699745 -0.02712447 -0.02722383 -0.02728982 -0.02732222 -0.02731285 -0.02726226 -0.02717689 -0.02706215 -0.02695606
 -0.02686785 -0.0268562 -0.02692236 -0.02710505 -0.02738697 -0.02776053 -0.0281953 -0.02865308 -0.02910557 -0.02951559
 -0.02986893 -0.03014403 -0.03034814 -0.03047477 -0.03055226 -0.03058436 -0.03060589 -0.03062338 -0.03066007 -0.03071913
 -0.0308141 -0.03094569 -0.03113882 -0.03139585 -0.03176076 -0.03223484 -0.0328536 -0.03360644 -0.0344771 -0.03543888
 -0.03641605 -0.03738392 -0.03825698 -0.03904177 -0.03970306 -0.0402819 -0.04079935 -0.04129596 -0.04180653 -0.0423363
 -0.04290039 -0.0434739 -0.0440544 -0.04461384 -0.04514671 -0.04563589 -0.04607834 -0.04646962 -0.04680899 -0.04710678
 -0.04736421 -0.04760448 -0.04782908 -0.04806084 -0.04829826 -0.04854899 -0.04880736 -0.04906303 -0.0493097 -0.04952907
 -0.04972358 -0.04988482 -0.05002903 -0.05016529 -0.05031337 -0.05049047 -0.05069792 -0.05094552 -0.05120793 -0.05148255
 -0.0517364 -0.05196176 -0.05214608 -0.05228493 -0.05239698 -0.05248281 -0.05257354 -0.05267002 -0.05278641 -0.05292042
 -0.05306091 -0.05320646 -0.05334311 -0.05347588 -0.05361046 -0.05375368 -0.05392333 -0.05411622 -0.0543387 -0.0545766
 -0.05482065 -0.05505679 -0.05527352 -0.05546428 -0.05562313 -0.05574987 -0.05584122 -0.05590884 -0.05595139 -0.0559989
 -0.05605405 -0.05614607 -0.05627767 -0.05644691 -0.05665235 -0.05686152 -0.0570729 -0.05725884 -0.05742268 -0.05756357
 -0.05768596 -0.05780237 -0.0579133 -0.0580255 -0.05813797 -0.05825159 -0.0583669 -0.05848543 -0.05860506 -0.05872697
 -0.05884192 -0.05894637 -0.05903341 -0.05909757 -0.0591496 -0.05918833 -0.05923907 -0.059305 -0.05940061 -0.05952776
 -0.05967216 -0.05983255 -0.05998126 -0.06011858 -0.06023289 -0.06032808 -0.0604146 -0.06049575 -0.06058728 -0.06068723
 -0.06080093 -0.06092092 -0.0610408 -0.06115107 -0.06123958 -0.06130497 -0.06133853 -0.06135745 -0.06136344 -0.06138493
 -0.06143135 -0.06151699 -0.06164913 -0.06181347 -0.06201068 -0.06221187 -0.06241505 -0.0626005 -0.06276787 -0.06291546
 -0.06304465 -0.06316511 -0.06327815 -0.06339484 -0.06351507 -0.06364492 -0.06378208 -0.06392577 -0.06407185 -0.06421473
 -0.06435102 -0.064475 -0.06458719 -0.06468508 -0.06477431 -0.06485583 -0.06493749 -0.06502177 -0.06511383 -0.06521558
 -0.06532632 -0.06544667 -0.06557039 -0.0656972 -0.06581918 -0.06593596 -0.06604143 -0.06613539 -0.06621348 -0.06627585
 -0.06631972 -0.06634762 -0.0663636 -0.06637383 -0.06639155 -0.06642251 -0.0664814 -0.06656636 -0.06668288 -0.06682115
 -0.06697741 -0.06714094 -0.067306 -0.06746678 -0.06762003 -0.06776503 -0.06790081 -0.06802988 -0.06815255 -0.06826941
 -0.06838065 -0.0684821 -0.06857358 -0.06865139 -0.06871647 -0.0687748 -0.06882822 -0.06888875 -0.06895623 -0.06903711
 -0.06912852 -0.06922781 -0.0693328 -0.06943932 -0.06954668 -0.06965306 -0.06975751 -0.06985927 -0.06995662 -0.07004834
 -0.07013468 -0.07021496 -0.0702922 -0.07036669 -0.07044202 -0.07051866 -0.07059902 -0.07068337 -0.0707721 -0.07086515
 -0.07096071 -0.07105847 -0.0711552 -0.07125077 -0.07134271 -0.07143139 -0.07151648 -0.07159856 -0.07167882 -0.07175724
 -0.07183417 -0.07190985 -0.07198394 -0.07205893 -0.07213596 -0.07221824 -0.0723083 -0.07240476 -0.07250874 -0.07261342
 -0.0727177 -0.07281613 -0.07290746 -0.07299263 -0.07307156 -0.0731471 -0.07321931 -0.07328825 -0.07335398 -0.07341657
 -0.07347684 -0.07353856 -0.07360248 -0.07367318 -0.07374994 -0.07383379 -0.07392305 -0.07401595 -0.07411092 -0.07420602
 -0.0742997 -0.07439056 -0.0744771 -0.07455793 -0.0746339 -0.07470472 -0.0747726 -0.07483827 -0.07490108 -0.07496136
 -0.07501503 -0.07506163 -0.07510167 -0.07513538 -0.07517219 -0.07521267 -0.07526669 -0.07533287 -0.07541046 -0.07549652
 -0.07558168 -0.07566475 -0.07573819 -0.07580399 -0.07586129 -0.07591362 -0.07596391 -0.07601534 -0.07607134 -0.0761321
 -0.07619954 -0.0762691 -0.07634012 -0.07640716 -0.07646838 -0.07652406 -0.07657358 -0.07662238 -0.0766709 -0.07672221
 -0.07677639 -0.07683153 -0.07688753 -0.07694284 -0.07699772 -0.07705316 -0.0771087 -0.07716385 -0.07721718 -0.07726507
 -0.07730781 -0.07734314 -0.07737514 -0.07740644 -0.07744187 -0.07748625 -0.07753973 -0.07760516 -0.07767527 -0.07774915
 -0.07781731 -0.07787718 -0.07792541 -0.07796046 -0.07798829 -0.07800906 -0.07803147 -0.07805587 -0.07808628 -0.07812259
 -0.07816511 -0.07821398 -0.07827026 -0.07833378 -0.07840522 -0.07848294 -0.07856411 -0.07864682 -0.07872675 -0.07880414
 -0.07887737 -0.07894816 -0.07901749 -0.0790857 -0.07915328 -0.07921996 -0.07928551 -0.07935097 -0.07941653 -0.07948295
 -0.07955061 -0.07961758 -0.0796838 -0.07974601 -0.07980406 -0.07985729 -0.07990586 -0.07995129 -0.0799937 -0.08003443
 -0.08007354 -0.08011176 -0.08014944 -0.08018741 -0.08022638 -0.08026776 -0.08031199 -0.0803603 -0.08041212 -0.08046796
 -0.08052542 -0.08058402 -0.08063994 -0.08069194 -0.08073701 -0.08077361 -0.08080414 -0.08082783 -0.080855 -0.08088623
 -0.08093356 -0.08099742 -0.08107903 -0.08117683 -0.08127624 -0.08137512 -0.08145418 -0.08151487 -0.08154986 -0.08156583
 -0.08157252 -0.08157731 -0.0815965 -0.08163048 -0.08168801 -0.08175968 -0.08184288 -0.08192523 -0.08199938 -0.08206051
 -0.08210394 -0.08213571 -0.08215544 -0.08217414 -0.08219325 -0.08222087 -0.08225807 -0.08230529 -0.08236247 -0.08242246
 -0.08248469 -0.0825405 -0.08259015 -0.08263008 -0.08266157 -0.08268662 -0.08270669 -0.08272564 -0.08274499 -0.08276863
 -0.08279752 -0.08283497 -0.08287853 -0.0829284 -0.08297923 -0.08302822 -0.0830728 -0.08311062 -0.08314507 -0.08317624
 -0.08320878 -0.08324357 -0.08328167 -0.08332339 -0.08336654 -0.08341101 -0.08345316 -0.08349294 -0.08352827 -0.08355988
 -0.08359031 -0.08362067 -0.08365636 -0.08369657 -0.08374301 -0.08379242 -0.08384061 -0.08388534 -0.08392189 -0.08395184
 -0.08397406 -0.08399301 -0.08401046 -0.08403007 -0.08405384 -0.08408195 -0.08411525 -0.08415047 -0.08418737 -0.0842224
 -0.0842552 -0.08428433 -0.0843097 -0.08433172 -0.08435065 -0.084369 -0.08438793 -0.08441454 -0.08445058 -0.08450586
 -0.08458062 -0.08468109 -0.08480426 -0.08494852 -0.08511046 -0.08528387 -0.08547291 -0.0856747 -0.08590689 -0.08617499
 -0.08650159 -0.08689815 -0.08736645 -0.08791354 -0.08850902 -0.08915073 -0.08980356 -0.09046322 -0.0911258 -0.09179099
 -0.09246597 -0.0931465 -0.09379283 -0.09439048 -0.0948409 -0.09513252 -0.0951682 -0.09496149 -0.09447842 -0.09377864
 -0.09292609 -0.09200405 -0.09112929 -0.09034072 -0.08970925 -0.08922479 -0.08890112 -0.08871731 -0.08867101 -0.0887377
 -0.0889174 -0.08915872 -0.0894587 -0.08974101 -0.08999774 -0.09019107 -0.09031908 -0.09039825 -0.09042998 -0.09043509
 -0.09041354 -0.09037554 -0.09032078 -0.09025434 -0.09017456 -0.09007992 -0.08996953 -0.08984077 -0.08969483 -0.08953216
 -0.0893534 -0.08915847 -0.08895013 -0.08872733 -0.08850157 -0.08827529 -0.08806261 -0.08786754 -0.0876971 -0.08755352
 -0.08743505 -0.08734227 -0.08726505 -0.08720282 -0.08713772 -0.08706914 -0.08698338 -0.08688243 -0.08676919 -0.08664784
 -0.0865343 -0.0864309 -0.0863518 -0.0862947 -0.08626359 -0.08625154 -0.08625363 -0.08626089 -0.08626482 -0.08626071
 -0.08624286 -0.08621375 -0.08617225 -0.08612484 -0.08607261 -0.08602136 -0.08597179 -0.08593019 -0.08589718 -0.08587782
 -0.08587237 -0.08587896 -0.08589695 -0.08591774 -0.08594096 -0.08595978 -0.08597492 -0.08598538 -0.08599178 -0.0859952
 -0.08599556 -0.08599298 -0.08598796 -0.08598086 -0.08597285 -0.08596502 -0.08595788 -0.08595197 -0.08594759 -0.08594479
 -0.08594451 -0.08594708 -0.08595242 -0.08596071 -0.08597039 -0.08598138 -0.08599202 -0.08600224 -0.0860121 -0.08602165
 -0.0860318 -0.08604252 -0.08605433 -0.08606703 -0.08608036 -0.08609389 -0.08610667 -0.08611785 -0.08612572 -0.08612946
 -0.08612728 -0.0861196 -0.08610543 -0.08608795 -0.08606806 -0.0860502 -0.08603626 -0.08602855 -0.08602835 -0.08603457
 -0.08604756 -0.08606369 -0.08608279 -0.08610032 -0.08611605 -0.08612613 -0.0861306 -0.08612881 -0.08612131 -0.08611093
 -0.08609817 -0.08608627 -0.08607553 -0.08606824 -0.08606449 -0.08606577 -0.08607114 -0.08608056 -0.08609178 -0.0861029
 -0.08611286 -0.08611958 -0.08612658 -0.08613412 -0.0861477 -0.08616916 -0.08619948 -0.0862399 -0.08628364 -0.08633041
 -0.08637127 -0.08640569 -0.08642991 -0.08644423 -0.08645203 -0.08645383 -0.08645467 -0.08645427 -0.0864543 -0.08645398
 -0.08645204 -0.08644854 -0.08644257 -0.08643574 -0.08642889 -0.08642524 -0.0864272 -0.08643813 -0.08646108 -0.08649547
 -0.08654314 -0.08659692 -0.0866562 -0.08671114 -0.08675995 -0.08679705 -0.08682133 -0.08683478 -0.08683744 -0.08683711
 -0.08683426 -0.08683717 -0.08684564 -0.08686302 -0.0868879 -0.08691698 -0.08694903 -0.08697917 -0.08700758 -0.08703235
 -0.08705404 -0.0870728 -0.08708846 -0.08710068 -0.08711005 -0.08711609 -0.08712191 -0.0871283 -0.08713868 -0.08715437
 -0.08717568 -0.08720324 -0.08723383 -0.0872673 -0.08729994 -0.08733151 -0.08736015 -0.08738589 -0.08740864 -0.08742864
 -0.08744709 -0.08746445 -0.08748301 -0.08750318 -0.08752743 -0.08755507 -0.08758652 -0.08761961 -0.08765195 -0.08768196
 -0.08770698 -0.08772846 -0.08774585 -0.08776309 -0.08778163 -0.08780384 -0.08783106 -0.08786194 -0.08789663 -0.08793237
 -0.08796883 -0.08800506 -0.08804099 -0.08807743 -0.08811431 -0.08815043 -0.08818532 -0.08821491 -0.08823938 -0.08825655
 -0.08826827 -0.08827801 -0.08828728 -0.08830091 -0.08831747 -0.08833752 -0.08835847 -0.08837771 -0.08839573 -0.08841165
 -0.0884281 -0.08844648 -0.08846612 -0.08848778 -0.08850677 -0.08852217 -0.08853234 -0.0885365 -0.08854081 -0.08854552
 -0.08855979 -0.0885837 -0.08862018 -0.08866806 -0.08872141 -0.08877864 -0.08883049 -0.08887644 -0.08891004 -0.08893269
 -0.08894297 -0.08894496 -0.08894204 -0.08894019 -0.08894552 -0.08896139 -0.0889929 -0.08903546 -0.08909013 -0.08914526
 -0.0891981 -0.08923981 -0.08926735 -0.08928405 -0.0892892 -0.08929575 -0.08930446 -0.08932503 -0.08935717 -0.08939701
 -0.08944295 -0.08948203 -0.0895142 -0.08953146 -0.08953685 -0.08953356 -0.08952535 -0.08952048 -0.08952039 -0.08953068
 -0.08954974 -0.08957864 -0.08961399 -0.08965445 -0.08969658 -0.08973859 -0.08977895 -0.08981694 -0.08985188 -0.08988367
 -0.08991094 -0.08993355 -0.08995013 -0.08996056 -0.08996572 -0.0899658 -0.08996437 -0.08996179 -0.08996207 -0.08996525
 -0.08997399 -0.0899874 -0.09000491 -0.09002496 -0.09004397 -0.0900626 -0.09007917 -0.09009797 -0.09012225 -0.09015454
 -0.09019927 -0.09024995 -0.09030656 -0.09035704 -0.09039746 -0.09042345 -0.09043228 -0.09043239 -0.09042405 -0.09041873
 -0.09041727 -0.09042143 -0.09043091 -0.09043927 -0.0904466 -0.09044997 -0.09045091 -0.0904543 -0.0904607 -0.09047512
 -0.09049463 -0.09051669 -0.09053769 -0.09055114 -0.0905579 -0.09055522 -0.09054895 -0.0905415 -0.09053823 -0.09054282
 -0.09055415 -0.09057362 -0.0905941 -0.09061471 -0.090629 -0.09063583 -0.09063493 -0.09062613 -0.09061395 -0.09059866
 -0.09058476 -0.0905724 -0.09056476 -0.09056161 -0.09056436 -0.09057156 -0.09058075 -0.09058954 -0.09059179 -0.09058781
 -0.09057402 -0.09055593 -0.09053633 -0.09052212 -0.09051927 -0.0905279 -0.09055153 -0.09057996 -0.09061216 -0.09063465
 -0.09064428 -0.09063639 -0.09060933 -0.09057067 -0.09052064 -0.09047155 -0.09042381 -0.09038488 -0.09035426 -0.0903322
 -0.09031786 -0.09030786 -0.09030209 -0.09029835 -0.09029755 -0.09030069 -0.09030768 -0.09031988 -0.09033366 -0.09034692
 -0.09035496 -0.09035335 -0.09034315 -0.09032243 -0.0902985 -0.0902731 -0.09025098 -0.09023397 -0.09021977 -0.0902086
 -0.09019552 -0.09018022 -0.09015971 -0.09013405 -0.09010482 -0.09007285 -0.09004526 -0.09002282 -0.09001332 -0.09001519
 -0.09002916 -0.09005108 -0.09007368 -0.09009383 -0.09010396 -0.09010436 -0.09009239 -0.09007017 -0.09003799 -0.08999864
 -0.08995278 -0.08990473 -0.08985551 -0.08980969 -0.08976855 -0.08973312 -0.08970418 -0.0896759 -0.089648 -0.08961223
 -0.08956854 -0.08951712 -0.0894594 -0.08940661 -0.08935933 -0.08932714 -0.08930718 -0.08929686 -0.08929244 -0.08928508
 -0.08927433 -0.0892557 -0.08923078 -0.08919989 -0.08916324 -0.08912077 -0.08907355 -0.08902111 -0.0889682 -0.08891594
 -0.08886833 -0.08882675 -0.08879033 -0.08875947 -0.08872941 -0.08869984 -0.08866721 -0.08863153 -0.08859356 -0.08855392
 -0.08851777 -0.08848548 -0.08846216 -0.08844604 -0.08843599 -0.08842743 -0.08841123 -0.08838401 -0.08833568 -0.08827061
 -0.0881875 -0.08809648 -0.08800367 -0.08791529 -0.08783659 -0.0877656 -0.08770321 -0.08764479 -0.08758907 -0.08753651
 -0.08748686 -0.08744246 -0.08740356 -0.08736798 -0.08733559 -0.0873029 -0.08727008 -0.08723737 -0.08720411 -0.08716825
 -0.08712751 -0.08707346 -0.0870067 -0.08692289 -0.08682749 -0.08672587 -0.08662269 -0.08652431 -0.0864327 -0.0863508
 -0.08627959 -0.08622091 -0.08617184 -0.08613326 -0.08609577 -0.08605821 -0.08601013 -0.08594973 -0.0858743 -0.08578332
 -0.08568162 -0.08556955 -0.08545406 -0.08533538 -0.08521844 -0.08510311 -0.08499097 -0.08488253 -0.0847794 -0.08468352
 -0.08460021 -0.08452864 -0.08447199 -0.08442277 -0.0843756 -0.08432329 -0.08425785 -0.08418231 -0.08409526 -0.08400394
 -0.08391139 -0.08381662 -0.08372045 -0.08361734 -0.08350598 -0.08339006 -0.08326942 -0.08315687 -0.08305275 -0.08296204
 -0.08288261 -0.08279937 -0.0827089 -0.08258522 -0.08243198 -0.08224329 -0.08203132 -0.08181824 -0.08161005 -0.08142714
 -0.08126213 -0.0811169 -0.08097854 -0.08083801 -0.08069097 -0.08053081 -0.0803668 -0.08019973 -0.08004086 -0.07989421
 -0.07975654 -0.07963001 -0.07948941 -0.07933313 -0.07913834 -0.07890499 -0.0786477 -0.07836892 -0.0780976 -0.07783148
 -0.07757566 -0.07732538 -0.07706861 -0.07680403 -0.0765226 -0.07622659 -0.07591476 -0.07559133 -0.07525893 -0.07492366
 -0.07459132 -0.07426178 -0.07393967 -0.0736098 -0.07326879 -0.07290331 -0.07250693 -0.07209321 -0.07166217 -0.07123502
 -0.07081383 -0.0704002 -0.06999425 -0.06959523 -0.06920402 -0.06883035 -0.06847192 -0.06812664 -0.06778464 -0.06741583
 -0.06701238 -0.06653853 -0.06600711 -0.06541692 -0.06479296 -0.06416237 -0.06353116 -0.06291362 -0.06230141 -0.06169268
 -0.06108593 -0.06047928 -0.05987806 -0.05928626 -0.05868827 -0.05808737 -0.05742234 -0.05668889 -0.05583335 -0.05485595
 -0.05381745 -0.05272503 -0.0516753 -0.05065876 -0.04968088 -0.04872755 -0.04775729 -0.04676805 -0.04573631 -0.04466424
 -0.04355108 -0.04238195 -0.0411514 -0.03981814 -0.03835271 -0.03672823 -0.03490474 -0.03295427 -0.03087407 -0.02880752
 -0.02678746 -0.0248863 -0.02312328 -0.02148166 -0.01996319 -0.01851674 -0.01713865 -0.01574532 -0.01432803 -0.01276259
 -0.01105838 -0.009173062 -0.007165753 -0.005205113 -0.003310996 -0.0016257 -8.90773E-05 0.001327064 0.002670658 0.004006779
 0.005339298 0.006690086 0.008053303 0.009428066 0.01082226 0.01224363 0.0136708 0.01510502 0.01649964 0.01784548
 0.01914197 0.02038763 0.02160526 0.02279473 0.02392367 0.02498773 0.02592861 0.02675085 0.02744474 0.02802101
 0.02850832 0.02891177 0.02925475 0.02954007 0.02977755 0.02997971 0.03015971 0.03033498 0.03052292 0.03072824
 0.03096322 0.03120426 0.03144998 0.03166422 0.03183889 0.03195137 0.03199618 0.03197227 0.03187758 0.03174525
 0.03157728 0.03142267 0.03128003 0.03115576 0.03104342 0.03091322 0.0307633 0.03056932 0.0303403 0.03007913
 0.02980572 0.02954989 0.02932668 0.02916239 0.02906342 0.02903705 0.02910241 0.02926775 0.0295559 0.02998181
 0.03053007 0.03120329 0.03196481 0.03280768 0.03372807 0.03472435 0.03581317 0.03699504 0.0382694 0.03963483
 0.04107624 0.04259313 0.04417596 0.04582391 0.04752956 0.04929178 0.0511027 0.05296677 0.05488627 0.05686793
 0.05892126 0.06104496 0.06324332 0.06550594 0.06783058 0.07020281 0.07261875 0.0750632 0.07753417 0.08001088
 0.08249297 0.08494115 0.08735257 0.08968758 0.0919449 0.09413989 0.09627748 0.09842371 0.1005682 0.1027021
 0.1047899 0.1067036 0.1084414 0.1099292 0.1112022 0.1122902 0.1131981 0.1139467 0.1145194 0.1149091
 0.1151085 0.1151305 0.1148994 0.1144243 0.1134953 0.1120515 0.1100366 0.1073813 0.1045698 0.1016395
 0.09891158 0.09639733 0.09389908 0.09140603 0.08873258 0.08589691 0.08290223 0.07976603 0.07656445 0.07326095
 0.06983545 0.06619293 0.06213841 0.05773235 0.05285351 0.04793016 0.04326422 0.03905066 0.03555583 0.0324735
 0.02975605 0.02715097 0.02456947 0.02200717 0.01944472 0.01697101 0.01459523 0.01232523 0.01016093 0.008037694
 0.005954271 0.003872677 0.001801414 -0.0002348171 -0.002225672 -0.004122416 -0.005924999 -0.00760667 -0.009179048 -0.01064547
 -0.01202428 -0.01333033 -0.01459455 -0.01583317 -0.01710367 -0.01843845 -0.01987673 -0.02147165 -0.02308464 -0.02471193
 -0.02612652 -0.02727282 -0.02819628 -0.02888896 -0.02953026 -0.03012856 -0.03076435 -0.03143214 -0.03209454 -0.0327448
 -0.03332238 -0.03383786 -0.03429681 -0.03470755 -0.03509963 -0.03545486 -0.03576072 -0.03599303 -0.0361129 -0.0361315
 -0.03603873 -0.03586914 -0.03563894 -0.03536714 -0.03506678 -0.03473295 -0.03437111 -0.03395037 -0.03347245 -0.03286653
 -0.03212718 -0.03118399 -0.03003405 -0.02874468 -0.02732911 -0.02596909 -0.02466469 -0.02351107 -0.02249297 -0.02160631
 -0.02084469 -0.02019426 -0.01964815 -0.01919981 -0.01881601 -0.01846982 -0.01810113 -0.01765198 -0.01710125 -0.01640195
 -0.01563539 -0.01481976 -0.01401936 -0.01326319 -0.01252339 -0.01180199 -0.01105207 -0.01026828 -0.009438912 -0.00856333
 -0.007667872 -0.006753854 -0.00584765 -0.004944372 -0.004033816 -0.003102942 -0.002102099 -0.001021837 0.0001909468 0.001520482
 0.002968141 0.004509348 0.006110213 0.007777636 0.009503772 0.01130616 0.013199 0.01516669 0.01721166 0.01929717
 0.02141109 0.02355074 0.02570917 0.02793158 0.03022287 0.03260142 0.03506798 0.0375116 0.03992033 0.04211136
 0.04408347 0.04573821 0.04708143 0.04808967 0.04874913 0.04902081 0.04888057 0.04826542 0.047182 0.0455983
 0.04357477 0.04113498 0.0383671 0.03532077 0.0320603 0.02861816 0.02503068 0.02129985 0.01751283 0.01367005
 0.009942925 0.006348047 0.0030002 -9.37741E-05 -0.002975836 -0.005651981 -0.008215664 -0.01066112 -0.0130044 -0.01522862
 -0.01727667 -0.01915136 -0.02082239 -0.0223207 -0.02368044 -0.02493298 -0.02612895 -0.02727898 -0.02841026 -0.02951399
 -0.03059346 -0.03163541 -0.03263453 -0.03358709 -0.03448936 -0.03535093 -0.03617158 -0.03696912 -0.03774568 -0.03850834
 -0.03925763 -0.03996732 -0.04063419 -0.04120737 -0.04168697 -0.04204533 -0.04229067 -0.04243805 -0.04249401 -0.04248272
 -0.0424035 -0.0422649 -0.04206729 -0.04181038 -0.04150653 -0.04115994 -0.04079754 -0.0404307 -0.04009282 -0.03979708
 -0.03957033 -0.03942136 -0.03936595 -0.03940824 -0.0395541 -0.03980566 -0.04014972 -0.0405857 -0.04107662 -0.04162008
 -0.04217583 -0.04274273 -0.04329495 -0.04383028 -0.0443283 -0.04478454 -0.04517745 -0.04550616 -0.04575747 -0.04593866
 -0.04605148 -0.0461071 -0.04611414 -0.04608269 -0.04602001 -0.04593331 -0.04582642 -0.04570442 -0.04556812 -0.04542619
 -0.04527865 -0.04514312 -0.04502096 -0.04493046 -0.04487276 -0.04485202 -0.04486755 -0.04491039 -0.04497959 -0.04506507
 -0.04516657 -0.04527824 -0.04539941 -0.04552554 -0.04565619 -0.04578815 -0.04592269 -0.04605947 -0.04620149 -0.04635056
 -0.04651025 -0.04668384 -0.04687015 -0.04707181 -0.04727681 -0.04748415 -0.04767626 -0.04784949 -0.04799696 -0.04811668
 -0.04821815 -0.04830181 -0.04838042 -0.04845389 -0.04852359 -0.04858759 -0.04863471 -0.04866292 -0.04865823 -0.04862128
 -0.04854591 -0.04843536 -0.04829264 -0.04811969 -0.04792064 -0.04769433 -0.04744015 -0.04716022 -0.04685301 -0.04652985
 -0.0461931 -0.04585786 -0.04552852 -0.0452139 -0.04491648 -0.04463767 -0.04437795 -0.04413655 -0.04391348 -0.04370715
 -0.04351725 -0.04333912 -0.04317225 -0.04301089 -0.04285545 -0.04270386 -0.04255805 -0.04242191 -0.04229662 -0.04218719
 -0.04209058 -0.04200653 -0.04192813 -0.04184978 -0.04176635 -0.04167252 -0.04156923 -0.04145496 -0.0413344 -0.04120881
 -0.04107973 -0.0409482 -0.04081006 -0.04066507 -0.04050824 -0.04033918 -0.04015995 -0.03997124 -0.03978426 -0.03960035
 -0.03943378 -0.03928529 -0.0391655 -0.03907389 -0.03901488 -0.03898683 -0.03898947 -0.03902001 -0.03907572 -0.03915241
 -0.03924706 -0.03935236 -0.03946463 -0.03957448 -0.03967714 -0.03976827 -0.0398447 -0.039911 -0.03996722 -0.04001935
 -0.04006827 -0.04011469 -0.04015871 -0.04020162 -0.04024384 -0.04029267 -0.04034824 -0.04041582 -0.04049348 -0.04057702
 -0.0406638 -0.04074466 -0.04081913 -0.04088188 -0.04093458 -0.04097746 -0.04101122 -0.04103797 -0.04105316 -0.04105667
 -0.0410379 -0.04099323 -0.04091302 -0.04079318 -0.0406328 -0.04043028 -0.04019216 -0.03991868 -0.03961837 -0.03929175
 -0.03894673 -0.03858349 -0.03820606 -0.03781365 -0.03740281 -0.03697291 -0.0365186 -0.03604214 -0.03554565 -0.03503392
 -0.03451626 -0.03399632 -0.03348273 -0.03297574 -0.032479 -0.03198983 -0.03150772 -0.03103023 -0.0305557 -0.03008533
 -0.02961917 -0.02915836 -0.02870409 -0.02824979 -0.02779533 -0.02732952 -0.02685157 -0.0263572 -0.02584645 -0.02532113
 -0.02478067 -0.02422212 -0.02364427 -0.02304021 -0.02241044 -0.02175248 -0.02106801 -0.02035924 -0.0196266 -0.01887119
 -0.01809409 -0.01729478 -0.01647996 -0.01565009 -0.0148221 -0.01399962 -0.01320832 -0.01245554 -0.01175981 -0.01112782
 -0.0105535 -0.01003815 -0.009559978 -0.009117584 -0.008698503 -0.008302312 -0.00792393 -0.007561086 -0.007195426 -0.006823599
 -0.006419726 -0.005987461 -0.005520319 -0.005030325 -0.004535674 -0.004046855 -0.003586467 -0.003153519 -0.002758392 -0.002385712
 -0.002031553 -0.001675349 -0.001306961 -0.0009172732 -0.0005002571 -6.084429E-05 0.0004010802 0.000880008 0.001375125 0.001885532
 0.002411185 0.00294898 0.003498642 0.004055021 0.004617807 0.00518303 0.005749439 0.006310262 0.006863366 0.007399566
 0.007917725 0.008412873 0.008881161 0.009318448 0.009713822 0.01005716 0.01033842 0.01054619 0.01068474 0.01074986
 0.01076079 0.01071977 0.0106527 0.01056374 0.01047632 0.01039391 0.01032725 0.01027739 0.01024467 0.01022959
 0.01024096 0.01028124 0.01037364 0.01051918 0.01073597 0.01102021 0.01137196 0.01178469 0.01224863 0.01275317
 0.0132853 0.01382428 0.01435242 0.01483947 0.01526607 0.01559955 0.01582372 0.01591176 0.01585113 0.01563673
 0.01526156 0.0147539 0.01411372 0.01339034 0.01258672 0.01175114 0.01088595 0.01003204 0.009190608 0.008391051
 0.007631302 0.006919079 0.006250347 0.00561707 0.005018959 0.004451956 0.003916383 0.00341408 0.002936187 0.002478638
 0.002024128 0.001562794 0.001076466 0.000557134 -1.386662E-05 -0.0006421639 -0.001345295 -0.002128273 -0.00299602 -0.003951186
 -0.004979577 -0.006080927 -0.00722668 -0.008414976 -0.009610288 -0.01081099 -0.01198736 -0.01314064 -0.01425986 -0.015348
 -0.0164089 -0.01744151 -0.01844717 -0.01941999 -0.02035293 -0.02124127 -0.02207677 -0.02286209 -0.02359352 -0.02428509
 -0.02493933 -0.02557745 -0.02620634 -0.02683852 -0.02747939 -0.0281221 -0.02876718 -0.02940031 -0.03002045 -0.03062007
 -0.03119877 -0.03175078 -0.03227514 -0.03276117 -0.0332087 -0.03361034 -0.0339688 -0.03428748 -0.03456973 -0.03482395
 -0.03505099 -0.03525595 -0.03543688 -0.03559399 -0.03572463 -0.0358261 -0.03590054 -0.03594639 -0.03597333 -0.03598319
 -0.03598644 -0.03598569 -0.03598532 -0.03598626 -0.03598977 -0.03599602 -0.03600611 -0.03602 -0.03603586 -0.03605325
 -0.03606795 -0.03607935 -0.03608347 -0.03607818 -0.03605606 -0.03601383 -0.03594031 -0.0358373 -0.03570042 -0.03553862
 -0.03535823 -0.03516737 -0.03497388 -0.03477917 -0.034586 -0.03439274 -0.03419969 -0.034004 -0.03380556 -0.03359952
 -0.03338513 -0.03316019 -0.03292426 -0.03268259 -0.03243567 -0.03219435 -0.03196002 -0.03174815 -0.03156123 -0.03141904
 -0.03132249 -0.03128685 -0.03130577 -0.03137745 -0.03148692 -0.03161513 -0.03174536 -0.03185434 -0.03193513 -0.03197365
 -0.0319789 -0.03195044 -0.0319013 -0.03183753 -0.03175662 -0.03166126 -0.03153289 -0.03136944 -0.0311578 -0.03089625
 -0.03059164 -0.03024473 -0.0298754 -0.02948521 -0.02909566 -0.0287079 -0.02833879 -0.02798816 -0.0276648 -0.02736646
 -0.02709351 -0.02684211 -0.02660802 -0.02638598 -0.02616986 -0.02595524 -0.02573685 -0.02551475 -0.02528763 -0.02505691
 -0.02482368 -0.02458438 -0.02433851 -0.02408272 -0.02381526 -0.02354658 -0.02327684 -0.02302697 -0.02279782 -0.02260192
 -0.02243793 -0.02229979 -0.02218464 -0.02207651 -0.02197317 -0.02186055 -0.02173645 -0.02159072 -0.02142018 -0.02121486
 -0.02097719 -0.02070155 -0.0204053 -0.02009509 -0.01979511 -0.0195209 -0.01927518 -0.01906702 -0.01886901 -0.01867817
 -0.01846601 -0.01822681 -0.01795893 -0.01766116 -0.01734964 -0.01702512 -0.01670123 -0.01637824 -0.016064 -0.01575851
 -0.01546686 -0.0151874 -0.01491893 -0.01465749 -0.01439435 -0.01412697 -0.01384668 -0.01355672 -0.01325549 -0.01295163
 -0.01265015 -0.01235825 -0.01208132 -0.0118197 -0.01157527 -0.01134387 -0.01112557 -0.01091355 -0.01070793 -0.01049415
 -0.01027132 -0.01002264 -0.00974772 -0.009449348 -0.009130085 -0.00881582 -0.008507339 -0.008224155 -0.007960559 -0.007709378
 -0.007465194 -0.007210851 -0.006950627 -0.006681075 -0.006413919 -0.006160033 -0.005926192 -0.005723875 -0.005543062 -0.005385455
 -0.005227712 -0.005062485 -0.004875279 -0.004659284 -0.00442321 -0.004166312 -0.003906903 -0.003646564 -0.003393957 -0.003149392
 -0.002912456 -0.002683 -0.002459828 -0.002242627 -0.002029475 -0.001819727 -0.001610618 -0.001401224 -0.00118915 -0.0009716408
 -0.0007442916 -0.0005035285 -0.0002430071 3.549813E-05 0.0003347318 0.0006452788 0.0009649559 0.001280642 0.00158808 0.001877014
 0.002143763 0.002387397 0.002606402 0.002810306 0.002999824 0.003180687 0.003353062 0.003513651 0.00366322 0.00380713
 0.003948254 0.0041059 0.004278062 0.004470895 0.004675664 0.004875179 0.005067548 0.005239408 0.005401089 0.005558555
 0.005719254 0.005892226 0.006074197 0.006265413 0.006463956 0.006668123 0.006882416 0.007108237 0.007344984 0.007594506
 0.007840132 0.008081468 0.008289019 0.008461416 0.008578772 0.008643748 0.008673915 0.00867615 0.008695587 0.008734256
 0.008823415 0.008958306 0.009143718 0.009374981 0.009648895 0.009957427 0.01029435 0.01064411 0.01099298 0.01133439
 0.011659 0.01197627 0.01228876 0.01259803 0.01290744 0.0132006 0.0134753 0.01372236 0.01394004 0.01413834
 0.01431789 0.01449627 0.01467494 0.01487562 0.0150986 0.01536001 0.01565289 0.01596536 0.01628663 0.01658509
 0.01686128 0.01710003 0.01731198 0.0175047 0.01768025 0.01784509 0.01799009 0.01811218 0.01820529 0.01826529
 0.01829577 0.01829469 0.01827812 0.0182463 0.01822705 0.01822272 0.01825353 0.01832037 0.01842266 0.01855993
 0.01872705 0.01892425 0.01915154 0.01940685 0.01968343 0.01997917 0.02028619 0.02060354 0.02092971 0.02125484
 0.02156805 0.02186231 0.02211918 0.02237081 0.02262005 0.02292612 0.02332246 0.02378608 0.02433064 0.02484782
 0.02531629 0.02572769 0.02607626 0.02642512 0.0267769 0.02714965 0.02753979 0.02791317 0.02826588 0.02855924
 0.02879379 0.0289506 0.029033 0.02903725 0.02897116 0.02884427 0.02866452 0.02844388 0.0281869 0.02789735
 0.02758819 0.02726387 0.02694441 0.02663764 0.02635535 0.02610081 0.02588468 0.02570844 0.02558478 0.02551648
 0.02548628 0.02549304 0.02548593 0.02546403 0.02539811 0.02529453 0.02517284 0.02503938 0.02492661 0.02483415
 0.02477825 0.02475286 0.02476057 0.02478199 0.02480205 0.02479161 0.02471919 0.02458559 0.02437418 0.02412664
 0.02385116 0.02359094 0.02335709 0.02317811 0.02306082 0.02301307 0.02303828 0.02310286 0.02320513 0.02330926
 0.0234178 0.02355223 0.02371502 0.02393648 0.02420455 0.02449165 0.02479151 0.02506917 0.02534264 0.02562746
 0.02593216 0.02628167 0.02664826 0.02702255 0.02737026 0.02766928 0.02790732 0.02807393 0.02817188 0.02819697
 0.02817091 0.0280934 0.02800624 0.02791353 0.02783922 0.02778461 0.02774187 0.02771113 0.0276915 0.02768523
 0.02770733 0.02775488 0.02782654 0.02791674 0.02800981 0.02810794 0.028207 0.02831224 0.0284281 0.02855782
 0.02870598 0.02887169 0.02906263 0.02925005 0.02943256 0.02955532 0.02960156 0.02955493 0.02940376 0.02920022
 0.02894688 0.02870249 0.02847027 0.02827093 0.02810412 0.02797243 0.02787318 0.02779536 0.02773192 0.02765009
 0.02755065 0.02741492 0.02725734 0.02709478 0.02693306 0.02678895 0.026652 0.02651888 0.02638279 0.02623898
 0.02608503 0.02592114 0.02573668 0.02552888 0.02529195 0.02502359 0.02472935 0.02440953 0.02406701 0.02370199
 0.02332965 0.02295299 0.02261664 0.02232118 0.02209751 0.02193429 0.02180897 0.02170866 0.02158868 0.02145124
 0.02127651 0.02108075 0.0208719 0.02067203 0.02050098 0.02037205 0.02030375 0.0202771 0.02029179 0.02031901
 0.02034596 0.02038778 0.02044367 0.02054233 0.02069068 0.02083807 0.02098197</values></Ydata></AB><ScSm><Ydata ylabel="Single channel"><values byteorder="INTEL" format="FLOAT32" numvalues="1814"> 0.07128317 0.07128844 0.071362 0.07152569 0.07174799 0.07196146 0.07210926 0.07218155 0.07219956 0.07217401
 0.07211176 0.07206237 0.07210945 0.07228844 0.07253329 0.0727208 0.0727695 0.07271282 0.07267933 0.07276513
 0.0729012 0.07287762 0.07254274 0.07197957 0.07144993 0.07115284 0.07110231 0.07128681 0.0717973 0.07257686
 0.0731449 0.07294632 0.0720553 0.07119872 0.07094814 0.07117124 0.0713809 0.07129598 0.0709229 0.07043943
 0.07024258 0.07084373 0.07236412 0.07411969 0.07486796 0.07359134 0.07022242 0.06587624 0.06244273 0.06157469
 0.06352109 0.06679036 0.06927018 0.06991383 0.06924219 0.06827538 0.06743598 0.06668012 0.06620435 0.06648201
 0.06760679 0.06885364 0.06905364 0.06759164 0.06513873 0.06317867 0.06265658 0.06338541 0.0648369 0.06671625
 0.06815645 0.06726259 0.06297837 0.05744233 0.05502896 0.05818673 0.06482428 0.07036006 0.07179843 0.06939646
 0.06532215 0.06186219 0.06057227 0.06185597 0.06487989 0.06826723 0.0709389 0.07216729 0.07138699 0.06868193
 0.06527203 0.06292593 0.06287356 0.06531937 0.0693972 0.07325254 0.07488877 0.07364085 0.07061444 0.06751661
 0.06553511 0.06534351 0.06726182 0.07091779 0.07523347 0.07905728 0.08163473 0.08267216 0.08239037 0.08138781
 0.08018841 0.07915929 0.07882996 0.07956229 0.08069746 0.08081071 0.07926401 0.07705653 0.07579231 0.0760207
 0.07680181 0.07685238 0.07584508 0.07418872 0.0717525 0.06785281 0.06281385 0.0583756 0.05595256 0.05556038
 0.0568543 0.05967689 0.06283605 0.06403594 0.06239253 0.06003425 0.05998696 0.06294463 0.06691365 0.06964421
 0.07070794 0.07134011 0.07284412 0.07526007 0.07719836 0.07689146 0.07395336 0.07036748 0.06908336 0.07111724
 0.07457228 0.07696751 0.077851 0.07851654 0.07974748 0.08060548 0.07940878 0.07572927 0.07146832 0.06968418
 0.07192641 0.07668212 0.08047685 0.08045023 0.07627755 0.07023335 0.06541876 0.06362268 0.06483982 0.06844054
 0.07385968 0.07999094 0.08491528 0.08697709 0.08599137 0.08313177 0.07959539 0.07550439 0.07055261 0.06584323
 0.06409545 0.06706759 0.07330358 0.07934868 0.08282837 0.08362773 0.08254524 0.07982151 0.07535462 0.0701078
 0.06657493 0.06684186 0.07006902 0.07296894 0.07324991 0.07170156 0.07049628 0.0704809 0.07087263 0.07092605
 0.07099673 0.07193272 0.07385917 0.07586537 0.07688704 0.07667453 0.07582539 0.07508476 0.07467068 0.07412599
 0.07296403 0.0716453 0.07151258 0.07332081 0.07619885 0.07854654 0.07963573 0.07986546 0.07969753 0.07885407
 0.07673471 0.07356482 0.07085524 0.07027781 0.07204336 0.0747759 0.07694381 0.07795759 0.07800657 0.07749559
 0.07677341 0.07602289 0.07532974 0.07493664 0.07517501 0.07599043 0.07684368 0.07725826 0.07720995 0.07687671
 0.07629673 0.07544276 0.0744683 0.07371275 0.07345587 0.07370619 0.07424159 0.07480846 0.07521269 0.07528739
 0.07495615 0.07435432 0.07374153 0.07326537 0.07292197 0.07272579 0.07275695 0.0730087 0.07331482 0.07348793
 0.07346892 0.07331078 0.07307391 0.07278079 0.07244858 0.07213182 0.07192242 0.0718859 0.0719808 0.07208121
 0.07211832 0.07215002 0.07223144 0.07227976 0.07216057 0.07187397 0.07156633 0.07137041 0.07129861 0.07128169
 0.07124518 0.07112502 0.07085913 0.07043952 0.06999043 0.06972626 0.06977804 0.07009321 0.07052139 0.07093021
 0.07122245 0.07134125 0.07131381 0.07122608 0.07111933 0.07095975 0.07072321 0.07047071 0.07032797 0.07039461
 0.07065657 0.07098736 0.07125011 0.07138658 0.07141342 0.07138942 0.07139625 0.07147871 0.07157905 0.07159178
 0.07150178 0.0714135 0.07142678 0.07152431 0.07159959 0.07157831 0.07150021 0.07147601 0.07156815 0.07173435
 0.07189195 0.07200913 0.07211807 0.07225279 0.07238674 0.07244147 0.07237451 0.07224625 0.07216287 0.07216199
 0.0722024 0.07225795 0.0723588 0.07252435 0.07270525 0.07282509 0.07286388 0.07287583 0.07292052 0.0729908
 0.07302423 0.07297993 0.0728842 0.07280011 0.07277248 0.07280434 0.07286662 0.07291986 0.07293635 0.07291262
 0.07286413 0.07280661 0.07274375 0.07267942 0.07264321 0.07268262 0.07280633 0.07294361 0.07298876 0.07289766
 0.07273008 0.07259072 0.07253189 0.07251596 0.07246862 0.07235876 0.07221892 0.07209812 0.07201582 0.07196391
 0.07192945 0.07190432 0.0718919 0.07191841 0.07201691 0.0721762 0.07232094 0.0723729 0.07233041 0.07226606
 0.07225095 0.07230115 0.07238907 0.07248167 0.0725702 0.07267536 0.07281423 0.07295965 0.07305877 0.07310017
 0.07313269 0.07321151 0.07335575 0.0735573 0.07378753 0.07399016 0.0741149 0.07417604 0.07424542 0.07437398
 0.07454643 0.07472077 0.07488228 0.07504285 0.07521181 0.07539372 0.07560645 0.07587709 0.07621281 0.07658273
 0.07693137 0.07721269 0.07742445 0.07761891 0.07787065 0.07821827 0.07863294 0.07904515 0.07940285 0.0797065
 0.07999313 0.08028993 0.08059303 0.08089767 0.08122995 0.0816222 0.08206449 0.08251093 0.08293363 0.08334368
 0.08375867 0.08417641 0.0845876 0.08499659 0.08542044 0.08587125 0.08633749 0.08678328 0.08717506 0.08751448
 0.08784057 0.08820018 0.08861575 0.08906621 0.08949053 0.08983131 0.09009673 0.0903641 0.09069842 0.09108137
 0.09144696 0.09177469 0.09211159 0.09250196 0.09292863 0.09333824 0.09370366 0.09404489 0.09439518 0.09475824
 0.09510062 0.09538542 0.09561326 0.09582467 0.09606153 0.09634046 0.09666903 0.09706256 0.09751926 0.09799275
 0.0984183 0.09876332 0.09903625 0.09926172 0.09946953 0.09969124 0.09994003 0.1002011 0.1004557 0.1006976
 0.100917 0.1011026 0.1012749 0.1014867 0.1017655 0.1020874 0.1024264 0.1027956 0.1032102 0.10364
 0.1040423 0.1044281 0.1048479 0.105306 0.1057288 0.1060432 0.1062531 0.1064152 0.1065714 0.1067444
 0.1069739 0.1073009 0.1077152 0.1081562 0.1085743 0.1089654 0.1093461 0.1097175 0.1100601 0.1103508
 0.1105794 0.1107567 0.1109121 0.111085 0.1113122 0.1116074 0.1119435 0.112265 0.1125252 0.1127022
 0.1127822 0.1127579 0.1126591 0.1125579 0.1125081 0.1124801 0.1123796 0.1121283 0.1117117 0.1111548
 0.1104797 0.1097036 0.1088674 0.1080495 0.1073448 0.1068314 0.1065577 0.1065544 0.106845 0.1074193
 0.1081978 0.1090411 0.1098078 0.110391 0.1107036 0.1106714 0.1102759 0.1095893 0.1087408 0.1078513
 0.1070023 0.1062353 0.1055565 0.1049665 0.1045179 0.104338 0.1045785 0.1053382 0.1066239 0.1083457
 0.1103282 0.1123487 0.1142146 0.115835 0.1172245 0.118442 0.1195349 0.1205378 0.1214904 0.1224208
 0.1233161 0.1241393 0.1248751 0.1255389 0.1261452 0.1266865 0.1271432 0.1274988 0.1277545 0.1279387
 0.1280925 0.1282376 0.1283708 0.1284939 0.1286231 0.1287554 0.1288422 0.1288125 0.128618 0.1282623
 0.1278147 0.1274224 0.1273 0.1276675 0.1286474 0.1301898 0.1320905 0.1340919 0.1359834 0.1376359
 0.1389925 0.1400596 0.140897 0.1415866 0.1421949 0.1427618 0.1433086 0.1438416 0.1443553 0.1448447
 0.1453155 0.1457817 0.1462577 0.1467497 0.1472469 0.1477236 0.1481603 0.1485676 0.1489829 0.1494381
 0.1499295 0.1504219 0.1508893 0.1513415 0.1517987 0.1522497 0.152661 0.1530247 0.1533735 0.1537478
 0.1541661 0.1546211 0.1550843 0.1555157 0.155891 0.1562221 0.1565425 0.1568767 0.1572298 0.1575961
 0.1579672 0.1583337 0.1586919 0.1590504 0.1594253 0.159821 0.1602147 0.1605694 0.160867 0.1611266
 0.1613889 0.1616816 0.1620009 0.1623247 0.162642 0.1629687 0.1633282 0.1637176 0.1641019 0.1644447
 0.1647399 0.1650119 0.1652909 0.1655918 0.1659134 0.1662487 0.1665916 0.1669343 0.1672694 0.1675947
 0.1679143 0.1682317 0.1685468 0.1688597 0.1691743 0.1694949 0.1698214 0.1701493 0.170476 0.1708083
 0.1711583 0.1715264 0.1718911 0.1722244 0.1725167 0.1727822 0.1730426 0.1733125 0.173599 0.1739054
 0.1742262 0.1745466 0.1748541 0.1751503 0.1754485 0.175759 0.176082 0.1764117 0.1767407 0.1770617
 0.1773732 0.1776844 0.1780073 0.1783395 0.1786643 0.1789681 0.1792543 0.1795385 0.1798335 0.1801389
 0.1804414 0.1807278 0.1810019 0.181283 0.1815863 0.1819055 0.1822206 0.182517 0.1827968 0.1830722
 0.1833533 0.1836429 0.1839389 0.1842383 0.1845392 0.1848414 0.1851447 0.1854454 0.1857386 0.1860239
 0.1863056 0.1865866 0.1868674 0.1871525 0.1874492 0.1877562 0.1880608 0.1883518 0.1886294 0.1889031
 0.1891818 0.189469 0.1897639 0.1900634 0.1903627 0.1906557 0.1909412 0.1912235 0.1915083 0.1917998
 0.1921018 0.1924132 0.1927218 0.1930147 0.1932945 0.1935767 0.193872 0.1941782 0.1944864 0.1947893
 0.195086 0.1953816 0.1956784 0.1959729 0.1962631 0.1965504 0.1968332 0.1971077 0.197374 0.197634
 0.1978885 0.1981432 0.1984081 0.1986857 0.1989678 0.1992471 0.1995218 0.1997934 0.200068 0.200353
 0.2006468 0.2009403 0.2012301 0.2015208 0.2018149 0.2021104 0.2024039 0.2026921 0.2029792 0.2032765
 0.2035871 0.203897 0.2041931 0.204479 0.204767 0.2050658 0.2053751 0.2056829 0.2059742 0.2062502
 0.2065271 0.2068161 0.2071156 0.2074195 0.2077201 0.2080118 0.2082984 0.2085863 0.2088717 0.2091514
 0.2094345 0.2097272 0.2100226 0.2103169 0.2106131 0.2109088 0.2111998 0.2114923 0.2117896 0.2120833
 0.2123708 0.21266 0.2129522 0.2132444 0.2135406 0.2138414 0.2141384 0.2144289 0.2147119 0.2149647
 0.2151327 0.2150886 0.2145144 0.2127741 0.2088941 0.2017499 0.1905024 0.1751169 0.1565627 0.136478
 0.1165655 0.09813698 0.08197102 0.06841242 0.05754951 0.0493252 0.04359606 0.04023545 0.03924828 0.04089713
 0.04584307 0.05475271 0.0668067 0.07838693 0.08449298 0.08269048 0.07543462 0.06783085 0.06340263 0.06240172
 0.06332569 0.06488523 0.06666894 0.06891458 0.07202651 0.07610632 0.08094022 0.08651115 0.09324278 0.1014549
 0.1107173 0.1200354 0.1287111 0.1368836 0.1451875 0.153982 0.1629802 0.171539 0.1791706 0.1857789
 0.1915582 0.1967757 0.2016227 0.2061954 0.2105468 0.21468 0.2184558 0.2215561 0.2236377 0.2245903
 0.2246643 0.2243339 0.2240186 0.2239163 0.2240463 0.224375 0.2248757 0.2255279 0.2263124 0.2272037
 0.2281612 0.2291406 0.2301145 0.2310668 0.2319798 0.2328372 0.2336321 0.2343624 0.2350288 0.2356372
 0.2361939 0.2367045 0.2371798 0.2376344 0.2380734 0.2384942 0.2388974 0.2392852 0.2396524 0.2399897
 0.2402968 0.2405836 0.240862 0.2411366 0.2414034 0.2416599 0.2419157 0.2421854 0.2424708 0.2427592
 0.2430398 0.2433117 0.2435783 0.2438405 0.2440959 0.2443399 0.2445735 0.2448087 0.2450588 0.2453239
 0.2455925 0.2458554 0.2461094 0.2463546 0.2465967 0.2468453 0.2471052 0.2473723 0.2476393 0.2479024
 0.2481644 0.248435 0.2487212 0.2490182 0.2493152 0.2496088 0.2499004 0.250189 0.2504749 0.2507609
 0.2510391 0.2512905 0.2515061 0.2517042 0.2519212 0.2521868 0.2525001 0.2528283 0.2531357 0.253414
 0.253679 0.2539465 0.2542185 0.2544838 0.2547326 0.2549806 0.2552625 0.2555873 0.255923 0.2562427
 0.2565547 0.256873 0.2571943 0.2575134 0.2578241 0.2580994 0.2583129 0.2584903 0.2587139 0.2590584
 0.2595166 0.2599937 0.2603924 0.2607002 0.2609791 0.2612907 0.2616549 0.2620336 0.2623155 0.2623941
 0.2623328 0.2623824 0.2627491 0.2633917 0.2640968 0.2646966 0.2651626 0.2655449 0.2658855 0.2661781
 0.2663771 0.2664504 0.2664537 0.2665522 0.2669114 0.2675278 0.268213 0.268783 0.269201 0.2695165
 0.2697731 0.270004 0.2701768 0.2701176 0.2696952 0.2691541 0.2690547 0.269727 0.2708955 0.2719752
 0.2726522 0.2730451 0.2733745 0.273692 0.2739474 0.2740415 0.2736961 0.2726104 0.271047 0.2700017
 0.2703791 0.272077 0.2741541 0.2757721 0.2767251 0.2772257 0.2775374 0.2777984 0.2779207 0.2776014
 0.2766638 0.2755072 0.2750037 0.2756927 0.2771716 0.2785269 0.2792675 0.2795792 0.2798257 0.2801426
 0.2803497 0.2799065 0.2782131 0.2754984 0.2732733 0.2732749 0.2757654 0.2792121 0.2818031 0.2830081
 0.2834399 0.2835233 0.2828776 0.2810155 0.2780777 0.2747721 0.2721642 0.2715365 0.2735281 0.2770677
 0.2799885 0.2811697 0.2814784 0.2823371 0.2840285 0.2857144 0.2865329 0.2862641 0.2851723 0.2835304
 0.2814908 0.2795357 0.2787464 0.2800382 0.2830529 0.2862824 0.2884666 0.2895509 0.2900312 0.2894793
 0.286247 0.2794474 0.2714278 0.2671162 0.2696681 0.2771661 0.2846833 0.2891299 0.2909423 0.2917679
 0.2922648 0.2919153 0.2893176 0.2829531 0.2735687 0.265667 0.2644524 0.2706808 0.2798086 0.2862415
 0.2871502 0.2827599 0.2753323 0.2684908 0.265743 0.2683546 0.2747979 0.2822641 0.2883478 0.2917003
 0.2920146 0.2898974 0.2868164 0.2847371 0.2847015 0.2852778 0.2836412 0.2791394 0.2743852 0.2714275
 0.2685871 0.2635705 0.2585076 0.2585386 0.2651283 0.2736159 0.2784555 0.2788333 0.2776514 0.2762325
 0.2720416 0.2623315 0.2493508 0.2404187 0.2415237 0.2511165 0.2614968 0.2663461 0.265743 0.2639024
 0.2635503 0.263156 0.2591175 0.2504756 0.2412809 0.2371899 0.2394512 0.243787 0.2454551 0.243045
 0.2368029 0.227071 0.2169859 0.2134698 0.2213672 0.2374844 0.2531077 0.2611947 0.2589409 0.2461818
 0.2263318 0.2083981 0.2025925 0.2111913 0.2257682 0.2349544 0.2334581 0.2229747 0.2072962 0.1897221
 0.1745633 0.1675892 0.1725488 0.1873614 0.2042829 0.2138008 0.2098698 0.1945657 0.1783981 0.1727389
 0.1795245 0.1899886 0.194513 0.1913443 0.1851638 0.1810044 0.1813406 0.1857672 0.1914506 0.1957466
 0.1983048 0.1981605 0.1909029 0.1740227 0.1540563 0.1422932 0.143029 0.1513477 0.1621992 0.1749018
 0.1872919 0.1926421 0.1872766 0.1776063 0.1746857 0.1824768 0.1944512 0.2015606 0.2011844 0.1975827
 0.1952952 0.1942797 0.1922201 0.1898194 0.1909893 0.1974295 0.2056506 0.2108699 0.2119949 0.2111905
 0.2102236 0.2091425 0.2075125 0.2051906 0.2022344 0.1990257 0.1961708 0.1938228 0.1915577 0.1890559
 0.1860893 0.1815566 0.1737531 0.1628417 0.1523748 0.1465182 0.1456895 0.1468218 0.1479052 0.1491882
 0.1489815 0.1424472 0.1280487 0.112824 0.107255 0.1151483 0.1308189 0.1455021 0.1539403 0.1547693
 0.1480053 0.1355543 0.1236877 0.1210389 0.1314741 0.1503361 0.1694555 0.1842057 0.1939409 0.198051
 0.1952923 0.1868573 0.1775706 0.1731592 0.1767924 0.1876266 0.2009943 0.2095461 0.2068611 0.1938923
 0.1819054 0.1841675 0.2019432 0.2222899 0.2325953 0.2333775 0.2331063 0.235047 0.2356661 0.2339385
 0.2350435 0.2432509 0.2556179 0.2648855 0.2658439 0.2573694 0.241724 0.2250541 0.2158025 0.2179632
 0.226585 0.2331987 0.2340456 0.2295741 0.2194033 0.2043935 0.1919697 0.1916545 0.2039996 0.2193049
 0.2286442 0.2319829 0.234151 0.2365363 0.2354638 0.2278281 0.2162781 0.2075621 0.2058342 0.2090131
 0.2122817 0.2131733 0.2116287 0.2071383 0.1990524 0.189629 0.1840453 0.1859339 0.1937051 0.2021311
 0.2071156 0.2083125 0.2077912 0.2074426 0.2076985 0.2077566 0.2069512 0.2064985 0.2092385 0.2164584
 0.2256413 0.2329671 0.2376667 0.2422593 0.2486019 0.2552908 0.259329 0.2593899 0.2571172 0.2557535
 0.2575758 0.2620839 0.2663574 0.2675481 0.2655903 0.263506 0.2646109 0.2693365 0.2751598 0.2794517
 0.2816243 0.2826043 0.2832946 0.2838291 0.2835263 0.2814564 0.277863 0.2749972 0.2755324 0.2798877
 0.2857789 0.2905051 0.2930691 0.2940459 0.2941619 0.293521 0.291998 0.2899181 0.288085 0.2871716
 0.2872599 0.2879954 0.2889858 0.2899642 0.2907742 0.2913785 0.2918352 0.2922009 0.2925032 0.2927941
 0.2931209 0.2934323 0.293626 0.2937255 0.29391 0.2943023 0.2947986 0.2951716 0.2952715 0.2950342
 0.294369 0.2931918 0.2915669 0.2896793 0.2876288 0.2853799 0.2830268 0.2810557 0.2801915 0.2808691
 0.2828404 0.285326 0.2875452 0.2891053 0.289998 0.2903932 0.2904862 0.2904341 0.2903182 0.2901385
 0.2898608 0.2894716 0.2889851 0.2884161 0.2877739 0.2870912 0.2864389 0.2858892 0.2854618 0.2851144
 0.2847803 0.2844124 0.2840021 0.2835629 0.2830984 0.2825831 0.2819715 0.2812247 0.2803376 0.2793584
 0.2783813 0.2774982 0.2767334 0.2760258 0.2752821 0.2744426 0.273479 0.2723503 0.2710248 0.2695668
 0.2681412 0.2668769 0.2657548 0.2646539 0.2634682 0.2621461 0.2606698 0.2590557 0.2573569 0.2556276
 0.2538859 0.2521194 0.2503102 0.2484428 0.2464991 0.2444623 0.2423266 0.240103 0.2378131 0.2354748
 0.2330748 0.2305412 0.2277491 0.2245621 0.2208736 0.2166245 0.211823 0.2065732 0.2010667 0.1955203
 0.1901165 0.1849944 0.1802619 0.1760011 0.1722758 0.1691464 0.1666787 0.1649316 0.1639338 0.1636682
 0.1640874 0.1651389 0.1667624 0.1688584 0.1712768 0.1738374 0.1763582 0.1786881 0.1807582 0.1826106
 0.1843577 0.1860905 0.1878181 0.1894881 0.191048 0.1924716 0.1937346 0.1948014 0.1956558 0.1963207
 0.1968264 0.1971784 0.1973678 0.1973974 0.1972866 0.1970738 0.1968269 0.1966456 0.1966425 0.1969061
 0.1974618 0.1982639 0.199233 0.2002985 0.2014133 0.2025461 0.2036722 0.2047673 0.2058148 0.2068266
 0.2078435 0.2089168 0.21011 0.2115149 0.2132244 0.2152723 0.2176101 0.2201367 0.2227329 0.2252755
 0.2276488 0.2297588 0.2315467 0.2329971 0.2341312 0.2349916 0.2356316 0.2361052 0.2364487 0.2366769
 0.2368014 0.2368337 0.2367657 0.2365707 0.2362371 0.2357863 0.2352565 0.2346819 0.234082 0.2334573
 0.2328019 0.2321269 0.2314638 0.230839 0.2302492 0.229665 0.2290547 0.2284065 0.2277267 0.2270186
 0.2262763 0.2254937 0.2246581 0.2237362 0.2226919 0.2215167 0.2202237 0.2188181 0.2172962 0.2156673
 0.2139612 0.2122209 0.2104881 0.2087823 0.207087 0.2053521 0.2035091 0.2015019 0.1993315 0.1970731
 0.1948296 0.1926687 0.19061 0.1886475 0.1867665 0.184957 0.1832289 0.1816058 0.1800967 0.1786843
 0.1773408 0.1760452 0.1747919 0.173589 0.1724509 0.171395 0.170445 0.1696218 0.1689247 0.1683278
 0.1677987 0.1673157 0.1668779 0.1665107 0.1662483 0.1660912 0.1659862 0.1658547 0.165641 0.1653404
 0.1649945 0.1646562 0.1643535 0.164084 0.1638296 0.163555 0.1631983 0.1626765 0.1619032 0.1608084
 0.1593683 0.1576246 0.1556676 0.1536074 0.1515661 0.1496663 0.1480024 0.1466252 0.145544 0.1447189
 0.1440646 0.1435044 0.1430274 0.1426862 0.1425388 0.1425771 0.1426878 0.1427135 0.1425962 0.1424483
 0.1424579 0.1427366 0.1432572 0.1438947 0.1445083 0.1450118 0.145377 0.1455917 0.145655 0.1456069
 0.1455006 0.1453441 0.1451121 0.1448012 0.1444319 0.1440151 0.1435453 0.1430098 0.1423971 0.1417127
 0.14097 0.1401591 0.1392543 0.1382414 0.1370997 0.1358087 0.1344478 0.1332484 0.132477 0.1322763
 0.1326148 0.1333252 0.1342004 0.1351087 0.1359749 0.136628 0.1368446 0.1367003 0.1367493 0.1376257
 0.1394338 0.1416334 0.1435232 0.1447352 0.1452649 0.1452116 0.1446488 0.1436415 0.1422113 0.140316
 0.1379663 0.1352882 0.132423 0.129489 0.1266545 0.1240946 0.1218891 0.1200509 0.1185805 0.1175201
 0.1169925 0.1166456 0.1147028 0.1088865 0.09992133 0.09312557 0.09395878 0.1018869 0.1107374 0.1152366
 0.1152317 0.1135287 0.112058 0.1111049 0.1105753 0.1106157 0.1113516 0.1126371 0.1140803 0.1152742
 0.1160442 0.1164121 0.1163275 0.1154689 0.113191 0.1087195 0.1017703 0.09313703 0.08444475 0.07720706
 0.07214798 0.06919302 0.06776133 0.06710324 0.06668413 0.06643838 0.06666513 0.06766774 0.06948908 0.07195907
 0.07488348 0.07804915 0.08109903 0.08364366 0.08557014 0.08706994 0.08831218 0.0892461 0.08974628 0.08979158
 0.08946285 0.08887608 0.08814988 0.08736472 0.0865096 0.08550042 0.08431971 0.0831499 0.08228038 0.08183607
 0.08168402 0.08163898 0.08164024 0.08169226 0.08176589 0.08181348 0.0818121 0.08179593 0.08188297 0.0821984
 0.08272076 0.0832693 0.08366914 0.08388254 0.08398484 0.0840272 0.0839074 0.08346156 0.08276717 0.08217949
 0.08186723 0.08149385 0.08064412 0.07944945 0.07850791 0.07823555 0.07850917 0.07890266 0.07908069 0.0789649
 0.07870492 0.07858547 0.07884403 0.07942036</values></Ydata></ScSm><ScRf><Ydata ylabel="Single channel"><values byteorder="INTEL" format="FLOAT32" numvalues="1820"> 0.06051444 0.06067938 0.06078212 0.06082156 0.06082082 0.06082597 0.06088849 0.06103113 0.06122696 0.06141401
 0.061539 0.06159375 0.0616026 0.06158017 0.06153025 0.06148873 0.06152466 0.06167115 0.06187333 0.06202363
 0.06205134 0.06198798 0.06194796 0.0620166 0.06213586 0.06212388 0.06184423 0.06136009 0.06089311 0.06061961
 0.06056123 0.06071362 0.06115451 0.06183437 0.06234107 0.0621926 0.06143912 0.06069539 0.06045855 0.06063063
 0.06080138 0.06072495 0.06040053 0.05998103 0.05981164 0.06033239 0.06164318 0.06315185 0.06379069 0.06268836
 0.05978981 0.05605473 0.05310777 0.05236774 0.05404473 0.05685392 0.0589805 0.05952804 0.0589485 0.05812337
 0.05741695 0.056784 0.05638046 0.05660615 0.05754675 0.05859061 0.05874249 0.05747795 0.05537306 0.05369714
 0.05325342 0.05387551 0.05511261 0.05672201 0.05796847 0.05722356 0.05356747 0.04882253 0.04674315 0.04944474
 0.05514599 0.05991329 0.06116171 0.05910421 0.05561014 0.05265296 0.05156245 0.05266708 0.05524245 0.05811528
 0.06037355 0.06140226 0.06072395 0.05841802 0.05552908 0.05355719 0.05353533 0.05562833 0.05910044 0.06237735
 0.06375865 0.0626758 0.06007276 0.05741012 0.05570545 0.05553652 0.05717994 0.06032094 0.0640379 0.0673395
 0.06956903 0.07046613 0.07022109 0.06935835 0.06833816 0.06747343 0.06720467 0.06783128 0.06879006 0.0688699
 0.06753278 0.06563821 0.06456069 0.06477039 0.06545865 0.06551749 0.06465852 0.0632327 0.06113445 0.05778148
 0.05345221 0.04964107 0.04756464 0.04723727 0.04836488 0.05081621 0.05356631 0.05463196 0.05323914 0.05120933
 0.05114698 0.05366199 0.05705554 0.05939944 0.06032091 0.06087614 0.06218523 0.06428257 0.06596738 0.06571084
 0.06317905 0.0600889 0.05899407 0.06077564 0.06379313 0.06589992 0.06670421 0.0673222 0.06842713 0.06920741
 0.06821619 0.06509146 0.06147408 0.05999273 0.06197482 0.06611666 0.06942655 0.06943437 0.06585592 0.06066388
 0.05655224 0.05506983 0.05620577 0.05941854 0.06423377 0.06970359 0.07415748 0.07613002 0.07542099 0.07303108
 0.07001728 0.06650786 0.06223804 0.05817688 0.0567384 0.05950237 0.06519185 0.07073653 0.07401407 0.07490943
 0.07411699 0.07182574 0.06792454 0.06329169 0.06022032 0.06063429 0.06376928 0.0666035 0.06702128 0.06574439
 0.06478287 0.06493191 0.06547014 0.06569882 0.06594573 0.06700793 0.06900964 0.0710995 0.0722718 0.07227686
 0.07166719 0.0711529 0.07095336 0.07063425 0.06972377 0.06866377 0.06875078 0.07071422 0.07371187 0.07619704
 0.07746922 0.07792175 0.07799967 0.07740927 0.07553656 0.07259894 0.07010796 0.0697452 0.07173596 0.07471088
 0.07712881 0.07838479 0.07866131 0.07836537 0.07785384 0.07732271 0.07686831 0.07673229 0.07723723 0.07832061
 0.07943493 0.08009464 0.08027144 0.08014421 0.07975283 0.07907656 0.07828435 0.0777303 0.07769765 0.07819043
 0.07898217 0.07981618 0.08048983 0.08081482 0.0806881 0.08023922 0.0797556 0.07942119 0.07924728 0.07924685
 0.07949843 0.07998897 0.08053459 0.08093201 0.08111925 0.08115189 0.08109006 0.08095551 0.08076693 0.08058572
 0.08051848 0.08064339 0.0809136 0.08118621 0.08138926 0.08159548 0.08186617 0.08209752 0.08212502 0.08194321
 0.08172554 0.081637 0.08169761 0.08182348 0.08192524 0.08192956 0.08176255 0.08140898 0.08100843 0.0808098
 0.08097377 0.08145665 0.08209524 0.08272491 0.08320742 0.08346138 0.08352287 0.08350465 0.08346228 0.08335532
 0.08315432 0.08293714 0.08285981 0.08303705 0.08344103 0.0839166 0.08430426 0.08453687 0.08463559 0.08467755
 0.08476745 0.08495472 0.08515471 0.0852266 0.08515079 0.08506472 0.08510067 0.08523804 0.08534113 0.08531848
 0.0852235 0.08519568 0.0853145 0.08553049 0.08574078 0.08590505 0.08606976 0.08628406 0.08650319 0.08659941
 0.08649717 0.08627812 0.08610292 0.0860429 0.08605215 0.08609474 0.08621012 0.08642204 0.08665225 0.08678418
 0.08679342 0.0867697 0.08680382 0.08688151 0.08690755 0.08681843 0.08664745 0.08648665 0.08641 0.08643188
 0.08651166 0.08658324 0.08659317 0.08652923 0.08642061 0.08630803 0.08621552 0.08615914 0.08617767 0.0863197
 0.08656978 0.08680306 0.08686019 0.08669113 0.08641184 0.086201 0.08613923 0.08615305 0.08610667 0.08593215
 0.08567004 0.08540937 0.08521083 0.08507948 0.08498603 0.08490588 0.08485174 0.08487266 0.08499914 0.08517285
 0.08525603 0.0851473 0.08488514 0.08461018 0.08443414 0.08437005 0.08436702 0.08437145 0.0843665 0.08438281
 0.08445497 0.08455082 0.08458139 0.0845046 0.08438188 0.08431523 0.08436693 0.08453927 0.08477091 0.08494524
 0.08496932 0.08487016 0.08477019 0.08475705 0.08481649 0.08489362 0.08496831 0.08505114 0.08514476 0.08524341
 0.08535905 0.08552092 0.08574298 0.0859998 0.08623678 0.0864058 0.08650361 0.08658665 0.08673841 0.08700303
 0.08734474 0.08767717 0.0879357 0.08812322 0.08829023 0.08847532 0.08867477 0.08887435 0.08909115 0.08935681
 0.08966851 0.08998738 0.09028594 0.09057082 0.09085755 0.09114657 0.09143208 0.09172508 0.09205987 0.09246489
 0.0929124 0.09331091 0.09357674 0.09371664 0.09382737 0.09401949 0.09434074 0.09474048 0.09509285 0.09529462
 0.09537328 0.09546886 0.09567994 0.09596063 0.0962086 0.09642071 0.09670003 0.09711082 0.09757993 0.09796603
 0.0982015 0.09834395 0.09849706 0.09869813 0.09889177 0.09901173 0.09907041 0.09914364 0.09927741 0.09945423
 0.09966256 0.09994398 0.1003298 0.100767 0.1011555 0.1014409 0.1016387 0.1017863 0.1019057 0.1019983
 0.1020499 0.1020582 0.1020633 0.1021213 0.1022312 0.1023264 0.1023611 0.1023722 0.1024335 0.1025814
 0.1028084 0.1030958 0.1034126 0.1037069 0.1039513 0.1041962 0.1045224 0.1049205 0.1052663 0.1054512
 0.1054989 0.105511 0.1055378 0.1055671 0.1056149 0.1057473 0.1060004 0.1063338 0.1066828 0.1070231
 0.1073662 0.1077143 0.1080349 0.1082729 0.1083882 0.1083912 0.1083478 0.1083462 0.1084534 0.1086847
 0.1089993 0.1093274 0.1096117 0.1098189 0.1099226 0.1099103 0.1098309 0.1097999 0.1099074 0.110117
 0.1102838 0.1102774 0.1100648 0.109681 0.1091632 0.1085367 0.1078478 0.1071784 0.1066163 0.1062151
 0.1059924 0.1059664 0.1061754 0.1066363 0.1072848 0.1079909 0.1086373 0.1091548 0.1094757 0.1095096
 0.1092068 0.1086237 0.1078926 0.1071402 0.1064439 0.1058255 0.1052545 0.1046899 0.1041664 0.1038345
 0.1038871 0.1044426 0.1054864 0.1068844 0.1084249 0.1098822 0.111104 0.1120692 0.1128584 0.1135633
 0.11423 0.1148789 0.1155378 0.1162161 0.1168694 0.1174332 0.1178972 0.1183108 0.1187165 0.1191092
 0.1194577 0.1197408 0.1199645 0.1201625 0.1203639 0.1205472 0.1206475 0.1206305 0.1205322 0.120412
 0.1202871 0.1201264 0.1198849 0.1195365 0.1191072 0.1187077 0.1185216 0.1187269 0.1193923 0.1204356
 0.1216882 0.1230011 0.1242819 0.1254475 0.1263988 0.1270767 0.1275155 0.1278134 0.1280639 0.128325
 0.1286219 0.1289496 0.1292785 0.1295804 0.1298539 0.1301263 0.1304325 0.1307829 0.1311438 0.1314584
 0.1316999 0.131905 0.1321458 0.132468 0.1328501 0.1332283 0.1335646 0.1338794 0.134204 0.1345187
 0.1347723 0.134955 0.135118 0.1353234 0.1356017 0.1359496 0.1363289 0.1366706 0.1369201 0.1370896
 0.1372438 0.1374343 0.1376655 0.137917 0.1381727 0.138423 0.1386628 0.1389025 0.1391687 0.1394757
 0.1397927 0.1400585 0.1402399 0.140369 0.1405118 0.1407044 0.1409302 0.1411509 0.141353 0.1415645
 0.1418276 0.142148 0.1424743 0.1427361 0.1429058 0.1430184 0.1431332 0.1432869 0.1434808 0.1436972
 0.1439171 0.1441269 0.1443232 0.1445142 0.1447135 0.1449262 0.1451449 0.1453585 0.1455626 0.1457609
 0.1459603 0.1461667 0.1463857 0.1466287 0.1469081 0.1472159 0.1475122 0.1477506 0.1479181 0.1480412
 0.1481566 0.1482881 0.1484444 0.1486258 0.1488269 0.1490401 0.1492581 0.1494743 0.1496848 0.1498912
 0.1500981 0.1503077 0.1505175 0.1507239 0.1509287 0.15114 0.1513642 0.1515947 0.1518138 0.1520093
 0.1521868 0.1523634 0.1525531 0.1527558 0.1529585 0.1531495 0.153331 0.1535152 0.1537092 0.1539085
 0.1541046 0.1542931 0.1544753 0.1546583 0.1548503 0.1550528 0.1552589 0.1554599 0.1556536 0.1558434
 0.1560336 0.1562252 0.1564171 0.1566085 0.1568003 0.1569956 0.1571994 0.1574145 0.1576353 0.1578486
 0.1580461 0.1582319 0.1584167 0.1586081 0.1588064 0.1590066 0.1592059 0.1594079 0.1596161 0.1598264
 0.1600308 0.160229 0.160428 0.1606329 0.1608462 0.1610684 0.1612947 0.1615159 0.1617262 0.1619278
 0.1621267 0.1623309 0.1625471 0.162775 0.163007 0.1632358 0.1634578 0.163669 0.1638665 0.1640511
 0.1642273 0.164399 0.1645684 0.1647347 0.1648976 0.1650618 0.1652342 0.1654159 0.1656025 0.1657922
 0.1659845 0.1661787 0.1663778 0.1665868 0.1668025 0.1670147 0.1672185 0.167418 0.1676194 0.1678275
 0.1680446 0.168265 0.1684781 0.1686773 0.1688642 0.1690481 0.169245 0.1694653 0.1696998 0.169927
 0.1701346 0.1703268 0.1705153 0.1707129 0.1709266 0.1711498 0.171369 0.1715779 0.17178 0.1719827
 0.172194 0.1724153 0.1726365 0.1728474 0.1730503 0.1732534 0.1734609 0.1736753 0.1738955 0.1741122
 0.1743204 0.1745278 0.1747423 0.1749594 0.1751727 0.1753809 0.1755843 0.175789 0.1760071 0.1762387
 0.1764692 0.176689 0.1768959 0.1770757 0.1771886 0.1771321 0.1766439 0.1751956 0.1719746 0.1660422
 0.1567056 0.1439511 0.1285956 0.1119922 0.09552982 0.08027862 0.06688955 0.05566722 0.04669125 0.03990059
 0.03516065 0.03236445 0.03152517 0.03286916 0.03694563 0.04430144 0.05425536 0.06382161 0.06887756 0.06741334
 0.06144677 0.05518192 0.05152275 0.05067988 0.05142152 0.05269169 0.05415236 0.05599523 0.05855095 0.06190549
 0.06588729 0.07048489 0.07604496 0.08282405 0.09046168 0.09813625 0.1052728 0.1119896 0.1188202 0.1260726
 0.1335101 0.1405875 0.1468846 0.1523158 0.1570508 0.1613279 0.1653176 0.1690991 0.1727072 0.1761351
 0.179258 0.1818068 0.1835019 0.1842654 0.1843131 0.1840358 0.183776 0.1836952 0.183808 0.1840839
 0.1844991 0.1850359 0.185677 0.1864014 0.1871779 0.1879729 0.1887637 0.1895359 0.1902742 0.1909661
 0.1916081 0.1922022 0.192753 0.1932653 0.1937384 0.1941676 0.1945566 0.1949182 0.1952623 0.1955943
 0.1959208 0.1962445 0.1965561 0.1968423 0.1970986 0.1973307 0.1975499 0.1977658 0.1979786 0.1981807
 0.1983698 0.1985556 0.1987497 0.1989562 0.1991724 0.1993925 0.199611 0.1998261 0.200038 0.2002437
 0.2004399 0.2006276 0.2008085 0.2009818 0.2011504 0.201324 0.2015107 0.201708 0.2019076 0.2021039
 0.202296 0.2024868 0.2026792 0.2028738 0.2030727 0.2032842 0.203513 0.2037491 0.2039768 0.2041918
 0.2044005 0.2046082 0.2048184 0.2050335 0.2052449 0.2054323 0.2055845 0.2057168 0.2058655 0.2060611
 0.2063012 0.2065513 0.2067768 0.2069723 0.2071553 0.2073406 0.2075289 0.2077135 0.207893 0.2080831
 0.2083044 0.2085552 0.2088101 0.2090536 0.2092931 0.2095354 0.2097781 0.2100248 0.2102735 0.2104923
 0.2106443 0.2107461 0.2108762 0.2111126 0.2114612 0.2118448 0.2121721 0.2124136 0.2126074 0.2128098
 0.2130592 0.2133427 0.2135657 0.2136199 0.2135408 0.2135395 0.2138066 0.2143211 0.2149009 0.2153911
 0.2157562 0.2160367 0.2162744 0.2164725 0.2165986 0.2166284 0.2166099 0.2166798 0.216971 0.217474
 0.2180283 0.2184799 0.2188011 0.2190393 0.2192306 0.2193913 0.219486 0.2193849 0.2190059 0.2185585
 0.2184843 0.2190313 0.219972 0.2208416 0.2213897 0.2217031 0.221953 0.2221896 0.222387 0.2224676
 0.2221931 0.2213052 0.2200172 0.2191502 0.2194506 0.2208366 0.2225368 0.2238623 0.2246399 0.2250404
 0.2252846 0.2254978 0.2256133 0.2253714 0.2246088 0.2236452 0.2232076 0.2237604 0.2249879 0.2261363
 0.2267847 0.2270696 0.2272861 0.2275506 0.2277206 0.2273551 0.2259666 0.2237507 0.2219483 0.2219707
 0.224018 0.2268347 0.2289518 0.229947 0.2303236 0.2304229 0.2299215 0.2284091 0.2260021 0.2232945
 0.2211701 0.2206763 0.2223293 0.2252527 0.2276761 0.2286773 0.2289585 0.2296868 0.2311071 0.2325365
 0.2332521 0.2330573 0.2321752 0.230848 0.2292098 0.2276516 0.2270534 0.2281588 0.2306671 0.2333413
 0.2351542 0.2360698 0.2364986 0.2360893 0.233487 0.227959 0.2214261 0.2179308 0.2200686 0.2262748
 0.2325059 0.2362175 0.2377633 0.2384965 0.2389546 0.2387103 0.2366208 0.2314493 0.2238062 0.2173803
 0.2164466 0.2216338 0.229212 0.234581 0.2354071 0.2318653 0.2258136 0.2202419 0.2180482 0.2202796
 0.2256795 0.2319323 0.2370527 0.2399252 0.2402885 0.2386271 0.2361461 0.2344855 0.2345284 0.2350953
 0.2338433 0.2302317 0.2264224 0.2240997 0.2218569 0.2177928 0.2136956 0.2138598 0.2195095 0.2267482
 0.2309366 0.2313957 0.2305612 0.2295472 0.2262299 0.2182959 0.2076148 0.2003206 0.2014469 0.2097023
 0.2186293 0.2229332 0.2226876 0.2214305 0.2214477 0.2214445 0.2183671 0.2113891 0.2039439 0.200841
 0.2031418 0.2072067 0.2090012 0.2073089 0.2023092 0.1942917 0.1859868 0.183387 0.1906864 0.2051441
 0.2192382 0.2268549 0.2255028 0.2149582 0.198166 0.1830686 0.1787326 0.1872115 0.2010432 0.2101184
 0.2096945 0.20122 0.188023 0.1730619 0.1603183 0.1551918 0.1612601 0.1766598 0.1941184 0.2045422
 0.2020282 0.188488 0.1741214 0.170079 0.1782674 0.1899983 0.195715 0.1936706 0.1885468 0.1854453
 0.1869665 0.1927452 0.1998277 0.2054463 0.2092299 0.2100682 0.2031326 0.1856703 0.1646821 0.1523157
 0.1532516 0.1622926 0.1740793 0.1879095 0.201432 0.2073346 0.201593 0.1911058 0.1878299 0.1960827
 0.2088417 0.2163365 0.2157238 0.2116091 0.2089377 0.2077278 0.2055351 0.203154 0.2048212 0.2123751
 0.2220564 0.228708 0.2311355 0.2316481 0.232132 0.232618 0.2326 0.2318884 0.2305387 0.2289932
 0.2279491 0.2275736 0.2273468 0.2268526 0.2257594 0.2226232 0.2152052 0.2036255 0.1923595 0.186693
 0.1871186 0.1897106 0.1919517 0.1941893 0.1941895 0.185619 0.1664105 0.1456163 0.1368235 0.1450283
 0.1629142 0.1791872 0.1872276 0.1856621 0.1749859 0.157751 0.1412509 0.1352449 0.1440076 0.1622288
 0.1806826 0.1941725 0.2021377 0.2042611 0.1994791 0.1890987 0.1780553 0.1720975 0.1742859 0.1836459
 0.1954953 0.2026533 0.1989481 0.1853445 0.1726599 0.1735917 0.1894005 0.2078242 0.2168685 0.2169595
 0.2160852 0.2173723 0.217533 0.2155846 0.2163475 0.2238316 0.2353416 0.2441386 0.2453591 0.2379349
 0.2239694 0.2092283 0.2016417 0.2049153 0.2142579 0.221541 0.2231365 0.2194428 0.2101045 0.1960401
 0.1845256 0.1848138 0.1974265 0.2129508 0.22274 0.2267849 0.2297917 0.2330721 0.2329495 0.2263274
 0.2158656 0.2083534 0.2080003 0.2127504 0.2177708 0.2205566 0.2209658 0.2183222 0.2118323 0.2038736
 0.2000327 0.2042406 0.2146707 0.2254164 0.2317572 0.2331075 0.2316192 0.2293888 0.227057 0.2239953
 0.2197052 0.2156182 0.2148138 0.2187364 0.2248966 0.229427 0.2315069 0.2336365 0.2377127 0.2424219
 0.2448405 0.2436258 0.2402934 0.2378899 0.2385381 0.2417507 0.2448004 0.2450484 0.2424518 0.239841
 0.2403222 0.2443199 0.2495099 0.253463 0.2556288 0.256838 0.2578699 0.2587655 0.2588056 0.2570623
 0.2537159 0.250814 0.2508234 0.2541846 0.2588874 0.2625414 0.2643093 0.2647764 0.2646323 0.2639572
 0.2625987 0.2608105 0.2592891 0.2586241 0.2588691 0.2596674 0.2606264 0.2614951 0.2621506 0.2625816
 0.2628551 0.2630337 0.2631499 0.2632487 0.2633628 0.2634342 0.2633715 0.2632234 0.2631913 0.2634028
 0.2637466 0.2639935 0.2640081 0.2637593 0.2631974 0.2622589 0.2609909 0.2595464 0.2580129 0.2563515
 0.2546172 0.2532097 0.2527614 0.2536637 0.2556975 0.2581643 0.2603675 0.2619625 0.2629434 0.2634527
 0.2636566 0.2637041 0.263693 0.2636437 0.263527 0.2633208 0.2630334 0.2626863 0.2622979 0.2618924
 0.2615097 0.2611834 0.2609081 0.2606356 0.2603084 0.2598954 0.259406 0.2588767 0.2583389 0.2577834
 0.2571614 0.2564246 0.2555655 0.2546239 0.2536712 0.2527819 0.2519895 0.2512597 0.2505194 0.249713
 0.2488122 0.2477905 0.2466452 0.245459 0.2443857 0.2435302 0.242857 0.2422396 0.2415732 0.2408164
 0.2399609 0.2390119 0.2379925 0.2369296 0.2358315 0.2346908 0.2334969 0.232234 0.2308832 0.2294403
 0.2279201 0.2263404 0.2247188 0.2230777 0.2214156 0.2196666 0.2177039 0.2153894 0.2126115 0.2092905
 0.2053912 0.2009589 0.1961445 0.1911704 0.1862539 0.181557 0.1772009 0.1732988 0.169951 0.1672214
 0.1651418 0.1637351 0.163023 0.1630157 0.1637056 0.1650638 0.1670305 0.169503 0.1723322 0.175335
 0.1783216 0.1811319 0.1836823 0.1859971 0.1881768 0.1902967 0.192333 0.1942 0.1958415 0.197261
 0.1984793 0.1995018 0.200333 0.2010007 0.2015536 0.2020364 0.2024699 0.202853 0.2031791 0.203444
 0.2036501 0.2038165 0.2039779 0.2041634 0.2043814 0.2046278 0.2049021 0.2052149 0.2055891 0.2060426
 0.206563 0.2071118 0.207665 0.2082328 0.2088335 0.2094733 0.210169 0.2109671 0.2119204 0.2130453
 0.2143116 0.2156658 0.2170526 0.2184056 0.2196346 0.2206468 0.221392 0.2218806 0.2221572 0.2222654
 0.2222285 0.2220527 0.2217439 0.2213257 0.2208348 0.2202981 0.2197206 0.2190972 0.2184292 0.2177274
 0.2170087 0.2162939 0.215602 0.2149397 0.2142979 0.2136682 0.2130581 0.2124816 0.2119326 0.2113822
 0.2108048 0.2101975 0.2095749 0.2089565 0.2083576 0.2077756 0.2071762 0.2065039 0.2057164 0.2048071
 0.2037927 0.2026859 0.2014867 0.200194 0.1988161 0.1973654 0.1958473 0.1942593 0.192601 0.1908773
 0.1890833 0.1871971 0.1852094 0.1831664 0.1811637 0.1792896 0.1775803 0.1760193 0.1745627 0.1731684
 0.171821 0.1705309 0.1693091 0.1681512 0.1670465 0.1659881 0.1649736 0.1640092 0.1631133 0.1623064
 0.1615975 0.1609801 0.1604383 0.1599569 0.1595287 0.1591549 0.1588518 0.158659 0.15861 0.1586759
 0.1587623 0.1587824 0.1587165 0.1585993 0.1584757 0.158377 0.1583121 0.158268 0.1582209 0.158141
 0.1579824 0.1576771 0.1571386 0.1562825 0.1550702 0.153538 0.1517785 0.1499083 0.1480648 0.1463867
 0.1449614 0.143809 0.142919 0.1422646 0.1417837 0.1414009 0.1410842 0.1408688 0.1408222 0.1409673
 0.1412141 0.1413998 0.1414458 0.1414528 0.1416072 0.1420219 0.1426734 0.1434416 0.1441911 0.1448442
 0.1453827 0.1457939 0.1460635 0.1462114 0.146275 0.1462593 0.146149 0.1459476 0.1456733 0.1453452
 0.1449799 0.1445678 0.1440732 0.1434866 0.1428352 0.142125 0.1413291 0.14043 0.1394111 0.1382501
 0.1370079 0.1358885 0.1351452 0.1349469 0.1353137 0.1361118 0.1371353 0.1382433 0.139342 0.1402265
 0.14065 0.1406962 0.1409376 0.1420113 0.1440165 0.1464072 0.1484802 0.1498809 0.1506197 0.1507771
 0.1503826 0.1494839 0.1481168 0.1462447 0.1438674 0.1411076 0.1381175 0.135041 0.1320852 0.1294535
 0.1272282 0.1254165 0.1240171 0.1230662 0.1226844 0.1224977 0.1206204 0.1146336 0.105321 0.09833817
 0.09945287 0.1080652 0.1176384 0.1226108 0.1228153 0.1211898 0.1197511 0.118788 0.1182009 0.118162
 0.1188223 0.1200352 0.1213992 0.1225067 0.1231904 0.1234884 0.1233609 0.1224495 0.1200211 0.1152305
 0.1078034 0.09861545 0.08939731 0.08174086 0.07638678 0.07322651 0.07164034 0.07085974 0.0703482 0.07005543
 0.07030171 0.0713896 0.07334705 0.07600834 0.07918733 0.0826432 0.08597749 0.0887917 0.09098141 0.09272568
 0.09416474 0.09522314 0.09576384 0.09578048 0.09539243 0.09474339 0.09395599 0.09311613 0.09222181 0.09118012
 0.0899594 0.0887517 0.0878714 0.08745724 0.08736812 0.08738358 0.08739518 0.08739144 0.08737515 0.08733734
 0.08727032 0.08721223 0.08727846 0.08757778 0.08807579 0.08859596 0.08896588 0.08913961 0.0891899 0.08916755
 0.08895576 0.08837652 0.08751655 0.08675557 0.08628374 0.08577625 0.08481484 0.08351795 0.08248006 0.08212574
 0.08233795 0.08269421 0.08286094 0.082746 0.08248487 0.082383 0.08270647 0.08336428 0.08388987 0.08388284
</values></Ydata></ScRf><Data_Parameters_AB><parameter name="DPF">1</parameter><parameter name="NPT">3497</parameter><parameter name="FXV">3996</parameter><parameter name="LXV">500</parameter><parameter name="CSF">1</parameter><parameter name="MXY">0.115130469202995</parameter><parameter name="MNY">-0.0951682031154633</parameter><parameter name="DAT">30/05/2022</parameter><parameter name="TIM">12:15:28.105 (GMT+2)</parameter><parameter name="DXU">WN</parameter></Data_Parameters_AB><AB__Qtest><MainReport name="Quality Test Report"><Header><Line><Legend>Test result ok/not ok [1/0]: </Legend><Value>0</Value></Line><Line><Legend>Method file: </Legend><Value>C:\Users\Public\Documents\Bruker\OPUS_8.2.28\QT\IRBT_v3_default.QT</Value></Line></Header><Matrix><Line><Legend></Legend><Legend>min</Legend><Legend>max</Legend><Legend>measured</Legend></Line><Line><Value>Absorption (X-Range 1):</Value><Value>0.400000</Value><Value>2.000000</Value><Value>0.141747</Value></Line><Line><Value>Noise (X-Range 4):</Value><Value></Value><Value>0.000300</Value><Value>0.000047</Value></Line><Line><Value>Signal/Noise (X-Range 2):</Value><Value>200.000000</Value><Value></Value><Value>46.309238</Value></Line><Line><Value>Signal/Noise (X-Range 3):</Value><Value>40.000000</Value><Value></Value><Value>42.084121</Value></Line><Line><Value>Water vapour (X-Range 5):</Value><Value></Value><Value>0.000300</Value><Value>0.000048</Value></Line><Line><Value>Signal/Water (X-Range 2):</Value><Value>100.000000</Value><Value></Value><Value>45.052469</Value></Line><Line><Value>Signal/Water (X-Range 3):</Value><Value>20.000000</Value><Value></Value><Value>40.942015</Value></Line><Line><Value>Fringes (X-Range 6):</Value><Value></Value><Value>0.000100</Value><Value>0.000054</Value></Line></Matrix></MainReport></AB__Qtest><Data_Parameters_ScSm><parameter name="DPF">1</parameter><parameter name="NPT">1814</parameter><parameter name="FXV">3996.33169228125</parameter><parameter name="LXV">499.541461535156</parameter><parameter name="CSF">1</parameter><parameter name="MXY">0.295271545648575</parameter><parameter name="MNY">0.039248276501894</parameter><parameter name="DAT">30/05/2022</parameter><parameter name="TIM">12:15:28.105 (GMT+2)</parameter><parameter name="DXU">WN</parameter></Data_Parameters_ScSm><Data_Parameters_ScRf><parameter name="DPF">1</parameter><parameter name="NPT">1820</parameter><parameter name="FXV">4004.04661832813</parameter><parameter name="LXV">495.683998511719</parameter><parameter name="CSF">1</parameter><parameter name="MXY">0.264776408672333</parameter><parameter name="MNY">0.0315251722931862</parameter><parameter name="DAT">30/05/2022</parameter><parameter name="TIM">12:15:01.720 (GMT+2)</parameter><parameter name="DXU">WN</parameter></Data_Parameters_ScRf><Optic_Parameters_Rf><parameter name="APR">0</parameter><parameter name="APT">Open</parameter><parameter name="BMS">KBr</parameter><parameter name="DTC">RT-DLaTGS_IR-Biotyper [Microplate reader]</parameter><parameter name="HPF">0</parameter><parameter name="LPF">10.0</parameter><parameter name="LPV">4000</parameter><parameter name="PGR">0</parameter><parameter name="RCH">Module port</parameter><parameter name="RDX">0</parameter><parameter name="SRC">MIR</parameter><parameter name="VEL">10.0</parameter><parameter name="SON">Off</parameter></Optic_Parameters_Rf><Acquisition_Parameters_Rf><parameter name="ADT">1</parameter><parameter name="AQM">DD</parameter><parameter name="CFE">0</parameter><parameter name="COR">0</parameter><parameter name="DEL">0</parameter><parameter name="DLY">0</parameter><parameter name="HFW">8000</parameter><parameter name="LFW">0</parameter><parameter name="NSR">32</parameter><parameter name="PLF">AB</parameter><parameter name="RES">6</parameter><parameter name="RGN">-1</parameter><parameter name="STR">0</parameter><parameter name="TCL">MakeCompatibleScalar (0, {WSV=1.000000, ARV=0});</parameter><parameter name="TDL">37</parameter><parameter name="RPO">0</parameter></Acquisition_Parameters_Rf><FT_-_Parameters_Rf><parameter name="APF">B3</parameter><parameter name="HFQ">500</parameter><parameter name="LFQ">4000</parameter><parameter name="NLI">0</parameter><parameter name="PHR">24</parameter><parameter name="PHZ">ML</parameter><parameter name="SPZ">NO</parameter><parameter name="ZFF">1</parameter></FT_-_Parameters_Rf><Optic_Parameters_><parameter name="APR">0</parameter><parameter name="APT">Open</parameter><parameter name="BMS">KBr</parameter><parameter name="CHN">Module port</parameter><parameter name="DTC">RT-DLaTGS_IR-Biotyper [Microplate reader]</parameter><parameter name="HPF">0</parameter><parameter name="LPF">10.0</parameter><parameter name="LPV">4000</parameter><parameter name="PGN">0</parameter><parameter name="RDX">0</parameter><parameter name="SRC">MIR</parameter><parameter name="VEL">10.0</parameter><parameter name="SON">Off</parameter></Optic_Parameters_><FT_-_Parameters_><parameter name="APF">B3</parameter><parameter name="HFQ">500</parameter><parameter name="LFQ">4000</parameter><parameter name="NLI">0</parameter><parameter name="PHR">24</parameter><parameter name="PHZ">ML</parameter><parameter name="SPZ">NO</parameter><parameter name="ZFF">1</parameter></FT_-_Parameters_><Acquisition_Parameters_><parameter name="ADT">1</parameter><parameter name="AQM">DD</parameter><parameter name="CFE">0</parameter><parameter name="COR">0</parameter><parameter name="DEL">0</parameter><parameter name="DLY">0</parameter><parameter name="HFW">8000</parameter><parameter name="LFW">0</parameter><parameter name="NSS">32</parameter><parameter name="PLF">AB</parameter><parameter name="RES">6</parameter><parameter name="SOT">0</parameter><parameter name="TCL">MakeCompatibleScalar (0, {WSV=1.000000, ARV=0});</parameter><parameter name="TDL">37</parameter><parameter name="SPO">0</parameter><parameter name="SGN">-1</parameter></Acquisition_Parameters_><Instrument_Parameters_Rf><parameter name="HFL">15800.168544</parameter><parameter name="LFL">0</parameter><parameter name="LWN">15800.168544</parameter><parameter name="ABP">32197</parameter><parameter name="SSP">1</parameter><parameter name="ARG">2</parameter><parameter name="ASG">2</parameter><parameter name="ASS">32</parameter><parameter name="GFW">16</parameter><parameter name="GBW">16</parameter><parameter name="BFW">0</parameter><parameter name="BBW">0</parameter><parameter name="PKA">7282</parameter><parameter name="PKL">4996</parameter><parameter name="PRA">7459</parameter><parameter name="PRL">5001</parameter><parameter name="P2A">1</parameter><parameter name="P2L">1</parameter><parameter name="P2R">1</parameter><parameter name="P2K">1</parameter><parameter name="DAQ">0</parameter><parameter name="AG2">1</parameter><parameter name="SSM">1</parameter><parameter name="RSN">25312</parameter><parameter name="CRR">0</parameter><parameter name="SRT">1653912901.721</parameter><parameter name="DUR">19.6369934082031</parameter><parameter name="TSC">28.2</parameter><parameter name="MVD">0.393562108278275</parameter><parameter name="AN1">0.225837777647234</parameter><parameter name="AN2">0</parameter><parameter name="VSN">2.485 Apr  4 2017</parameter><parameter name="SRN">0085</parameter><parameter name="CAM">0</parameter><parameter name="INS">IR-Biotyper</parameter><parameter name="FOC">69</parameter><parameter name="RDY">1</parameter><parameter name="ARS">32</parameter></Instrument_Parameters_Rf><Sample_Parameters_><parameter name="BLD"></parameter><parameter name="CNM">Admin</parameter><parameter name="CPY"></parameter><parameter name="DPM"></parameter><parameter name="EXP">IRBT_v3_32Scans.XPM</parameter><parameter name="LCT"></parameter><parameter name="SFM">Microplate, HTS-XT</parameter><parameter name="SNM">220530-1021_CLA33F (D_12)_G10_d094e6e9-f02d-4900-99aa-46cb9cd110e6.0</parameter><parameter name="XPP">C:\Users\Public\Documents\Bruker\OPUS_8.2.28\XPM</parameter><parameter name="IST">OK</parameter><parameter name="CPG">1252</parameter><parameter name="UID">b12d01b7-b94b-47d6-9040-3085a7b1d6ec</parameter></Sample_Parameters_><Instrument_Parameters_><parameter name="HFL">15800.168544</parameter><parameter name="LFL">0</parameter><parameter name="LWN">15800.168544</parameter><parameter name="ABP">32197</parameter><parameter name="SSP">1</parameter><parameter name="ASG">2</parameter><parameter name="ARG">2</parameter><parameter name="ASS">32</parameter><parameter name="GFW">16</parameter><parameter name="GBW">16</parameter><parameter name="BFW">0</parameter><parameter name="BBW">0</parameter><parameter name="PKA">7985</parameter><parameter name="PKL">4988</parameter><parameter name="PRA">8216</parameter><parameter name="PRL">4993</parameter><parameter name="P2A">1</parameter><parameter name="P2L">1</parameter><parameter name="P2R">1</parameter><parameter name="P2K">1</parameter><parameter name="DAQ">0</parameter><parameter name="AG2">1</parameter><parameter name="SSM">1</parameter><parameter name="RSN">13282</parameter><parameter name="CRR">0</parameter><parameter name="SRT">1653912928.106</parameter><parameter name="DUR">19.6379852294922</parameter><parameter name="TSC">28.2</parameter><parameter name="MVD">0.29471543431282</parameter><parameter name="AN1">0.225788196742788</parameter><parameter name="AN2">0</parameter><parameter name="VSN">2.485 Apr  4 2017</parameter><parameter name="SRN">0085</parameter><parameter name="CAM">0</parameter><parameter name="INS">IR-Biotyper</parameter><parameter name="FOC">69</parameter><parameter name="RDY">1</parameter></Instrument_Parameters_><History/></OPUSDataFile>
