<?xml version="1.0" encoding="UTF-8" ?>
<OPUSDataFile><AB><Ydata ylabel="Absorbance Units"><values byteorder="INTEL" format="FLOAT32" numvalues="3497"> 0.03617476 0.03617784 0.03620062 0.03624327 0.03630396 0.03638259 0.03647139 0.03656932 0.03666163 0.03674703
 0.03681011 0.03685096 0.03686074 0.03684223 0.03679613 0.03672842 0.0366476 0.03656172 0.03648224 0.03641646
 0.03637422 0.03635691 0.03636982 0.03640444 0.0364611 0.03652278 0.03658631 0.03663489 0.0366648 0.03667073
 0.03665105 0.03661532 0.03656398 0.03651066 0.03645546 0.0364027 0.03635143 0.03629762 0.0362418 0.03618284
 0.03612383 0.03607149 0.03602826 0.03600204 0.03599111 0.03599825 0.03601603 0.0360406 0.03606315 0.03607689
 0.03608084 0.03607092 0.03605837 0.03604478 0.03604145 0.0360519 0.03607109 0.03609965 0.03612095 0.03613409
 0.03613044 0.03611068 0.03608237 0.03604656 0.03601428 0.03598372 0.03595463 0.03592359 0.03588156 0.03582833
 0.03575782 0.03567562 0.03558398 0.03549316 0.03541059 0.03534761 0.03531271 0.03531061 0.03534775 0.0354127
 0.03550713 0.03560283 0.03569696 0.03575872 0.03578462 0.03575663 0.03567349 0.03553779 0.03535156 0.03514095
 0.03491228 0.03471646 0.03455962 0.03449659 0.03451693 0.03462957 0.03480576 0.03500188 0.03519689 0.03534666
 0.03545054 0.03549053 0.03548255 0.03542747 0.03535023 0.03525997 0.03517452 0.03510162 0.0350415 0.03499592
 0.03495771 0.03492585 0.03490201 0.03488623 0.03488439 0.03489553 0.03490791 0.0349182 0.03489804 0.03484851
 0.0347541 0.03462739 0.03448882 0.03435462 0.03426606 0.03421868 0.03422946 0.03427155 0.03432609 0.03438248
 0.03442597 0.03446784 0.03451366 0.03455315 0.03459107 0.03458243 0.03452041 0.03437131 0.03412605 0.03382714
 0.03347557 0.03323492 0.03310992 0.03321433 0.03351957 0.03389342 0.03431561 0.03463434 0.03486411 0.03496476
 0.03495734 0.03485381 0.03468564 0.03448699 0.03430248 0.0341822 0.03414368 0.03422544 0.03437241 0.03457942
 0.03476941 0.03491528 0.03500331 0.03502264 0.03500869 0.03496435 0.03491218 0.03485389 0.03478412 0.03470275
 0.03460544 0.034495 0.034387 0.03428584 0.03421696 0.03418143 0.03419653 0.03425672 0.03436446 0.034503
 0.03465728 0.03480268 0.03491369 0.0349763 0.03497213 0.0349095 0.0347832 0.0346212 0.03442634 0.03423738
 0.03405977 0.03393072 0.03385504 0.03385296 0.03392633 0.03405903 0.03424837 0.0344474 0.03465459 0.03483568
 0.03499427 0.03512728 0.03523591 0.03532332 0.03538484 0.0354124 0.03540599 0.03535727 0.03528324 0.03519101
 0.03510797 0.03505347 0.03503789 0.03507577 0.0351432 0.03524081 0.03532575 0.03539009 0.03540927 0.03537791
 0.03530633 0.03519458 0.03507001 0.03493406 0.03481225 0.03470513 0.03463011 0.03458445 0.03456859 0.03457571
 0.03458866 0.03460271 0.03460007 0.03458371 0.03455037 0.03450334 0.03444795 0.03437435 0.03427964 0.03415111
 0.0339771 0.03377592 0.03354326 0.03333339 0.03315597 0.03304308 0.03300212 0.03301243 0.03307287 0.03318425
 0.03334726 0.03358279 0.03388153 0.03419139 0.03449674 0.03470196 0.03481189 0.03478095 0.03464446 0.03443593
 0.03420707 0.03404514 0.03395201 0.03397346 0.03404956 0.03415499 0.03425427 0.03431995 0.03436681 0.03439086
 0.03442382 0.03447228 0.03454727 0.03465308 0.03476637 0.0348863 0.03497474 0.03503019 0.03502429 0.03495956
 0.03483499 0.0346631 0.03448987 0.03433321 0.0342729 0.03429505 0.03442231 0.03460675 0.03479129 0.03495942
 0.03506741 0.03514568 0.03519748 0.03525965 0.03535454 0.03547648 0.03563498 0.03578361 0.03591485 0.03599868
 0.0360273 0.03602542 0.03599325 0.03599542 0.03603385 0.03614771 0.03632765 0.03652469 0.03672831 0.03686462
 0.03694125 0.03694097 0.03687482 0.03675445 0.03658898 0.03638824 0.03617696 0.03597376 0.03581589 0.03573596
 0.03573684 0.03583476 0.03599202 0.03619907 0.03643986 0.03670878 0.03700792 0.0373388 0.03768163 0.03803547
 0.03837385 0.03869575 0.03898524 0.039241 0.0394451 0.03959705 0.0396814 0.03970653 0.03968466 0.03962921
 0.03957201 0.03951732 0.03948132 0.03947049 0.03948945 0.03956334 0.03971402 0.03993792 0.04025136 0.04059187
 0.04094409 0.04126776 0.04154841 0.04179752 0.04201405 0.04221948 0.04241556 0.0426035 0.04278247 0.04293218
 0.04305249 0.04312758 0.04316805 0.0432032 0.04325775 0.0434208 0.04369193 0.04413275 0.04467648 0.04526194
 0.04583481 0.04631188 0.04670913 0.04700667 0.04725018 0.04745371 0.04765297 0.04786375 0.04809105 0.04833984
 0.04859728 0.04886124 0.04913459 0.04941682 0.04973358 0.05008563 0.05048763 0.05093483 0.05139798 0.05187027
 0.05230489 0.05270365 0.05304581 0.05334026 0.05359251 0.05381412 0.05402045 0.05422503 0.05444656 0.0546888
 0.05496322 0.05525528 0.05555982 0.05587192 0.05618303 0.05652397 0.05689984 0.05733198 0.05782963 0.05833732
 0.05885286 0.0592945 0.05966094 0.05994451 0.06015268 0.06034158 0.06051584 0.06072819 0.06097127 0.06125468
 0.06156243 0.06186818 0.0621618 0.0624137 0.0626361 0.06282172 0.0630097 0.06322123 0.06348868 0.06384198
 0.06425177 0.06472342 0.06518812 0.06563153 0.06601959 0.06634305 0.06662104 0.06685347 0.06708363 0.06731329
 0.06757239 0.06785951 0.0681761 0.06852059 0.06888624 0.06927454 0.0696896 0.07012549 0.0705793 0.07102796
 0.07143956 0.0717971 0.07206468 0.07226416 0.07239246 0.07249383 0.07258984 0.07269735 0.07283105 0.07296862
 0.07310801 0.07322972 0.07332791 0.07342391 0.07351787 0.07365696 0.07384278 0.07409965 0.0744226 0.07478324
 0.0751724 0.07553156 0.07586106 0.07612707 0.07634536 0.07653005 0.07669633 0.07687605 0.07706158 0.07726187
 0.07745162 0.07761408 0.07774228 0.07782038 0.07788374 0.07793467 0.07802676 0.07817296 0.07839577 0.07870325
 0.07906844 0.07949102 0.07992006 0.08035322 0.08075092 0.08111326 0.081424 0.08168434 0.08188945 0.082043
 0.08214899 0.08221961 0.082278 0.08234014 0.08244057 0.08257952 0.08277364 0.08300532 0.08326657 0.08354846
 0.08384264 0.08415553 0.08449169 0.08483581 0.08519062 0.08550926 0.08578427 0.08599967 0.08615109 0.08629939
 0.08644816 0.08667895 0.08698765 0.08737916 0.0878344 0.08826707 0.08866447 0.08893597 0.08910065 0.08914533
 0.08911327 0.08906059 0.08901342 0.08902551 0.08907953 0.08918305 0.08930512 0.08942852 0.08955297 0.08967156
 0.08980545 0.08995995 0.09013706 0.09033967 0.09054732 0.09075867 0.09095793 0.09114482 0.09132244 0.09149335
 0.09168021 0.09188784 0.09215288 0.09247422 0.09287494 0.09333426 0.09382734 0.09432098 0.09475502 0.09511793
 0.09536789 0.0955334 0.09561657 0.09565873 0.09568181 0.09570191 0.09573073 0.09576255 0.09579705 0.09583445
 0.09587381 0.09592516 0.09598932 0.09607071 0.09616954 0.09628756 0.09642593 0.09659694 0.0968008 0.09704881
 0.09733257 0.09763586 0.09794369 0.09821513 0.09844782 0.09861236 0.09873745 0.09883382 0.0989472 0.09911644
 0.09935348 0.09968743 0.1000611 0.1004697 0.1008323 0.1011254 0.1013318 0.1014398 0.1015086 0.1015417
 0.1015879 0.1016481 0.1016959 0.1017279 0.1016943 0.1016029 0.1014623 0.1012905 0.1011492 0.1010461
 0.1010315 0.1010914 0.1012311 0.1014237 0.1016456 0.1018742 0.1020835 0.1022754 0.1024383 0.1026036
 0.1027787 0.1029901 0.1032517 0.1035365 0.1038479 0.1041115 0.1043213 0.1044289 0.1044334 0.1043656
 0.1042316 0.104105 0.1039854 0.1039116 0.1038745 0.1038627 0.1038766 0.1039079 0.1039698 0.1040829
 0.1042425 0.1044625 0.1047015 0.104938 0.1051327 0.1052525 0.1053129 0.1053035 0.1052841 0.1052658
 0.1052903 0.1053689 0.1054866 0.105645 0.1057914 0.1059234 0.1059932 0.106002 0.1059392 0.1058134
 0.1056583 0.1054872 0.1053592 0.1052802 0.105297 0.1053952 0.1055814 0.1058174 0.1060714 0.1063012
 0.1064635 0.1065481 0.1065295 0.106449 0.1063085 0.1061707 0.1060502 0.1059832 0.1059783 0.1060375
 0.1061615 0.1063504 0.1066043 0.1069276 0.1073167 0.1077416 0.1081894 0.1085781 0.1088986 0.1090706
 0.109112 0.1090123 0.1088177 0.1085893 0.1083676 0.1082247 0.1081562 0.1081925 0.1082808 0.1084087
 0.1085137 0.1085702 0.1085509 0.1084397 0.1082614 0.1080138 0.1077516 0.1074793 0.1072381 0.10703
 0.1068585 0.1067218 0.106603 0.1065037 0.1064207 0.1063607 0.1063448 0.1063746 0.1064706 0.1066133
 0.1067917 0.1069615 0.1070758 0.1070952 0.1069676 0.1067058 0.1062886 0.1057903 0.1052254 0.1046763
 0.1041668 0.1037312 0.1033804 0.1031048 0.1029049 0.1027609 0.1026716 0.1026089 0.1025701 0.1025135
 0.1024397 0.1023256 0.1021815 0.1020299 0.101877 0.1017544 0.1016458 0.1015432 0.101422 0.1012463
 0.1010221 0.1007316 0.1004225 0.1001092 0.09984581 0.09965774 0.09955886 0.09956494 0.09962915 0.09975231
 0.0998491 0.09991223 0.0998785 0.09974506 0.09952422 0.09922232 0.09891424 0.09860517 0.09836512 0.09818698
 0.09808721 0.09804946 0.09804671 0.09806433 0.09806739 0.09805057 0.09799283 0.09790155 0.09777267 0.09762417
 0.09746252 0.09730636 0.09716433 0.0970435 0.09694913 0.09687116 0.09681048 0.09674431 0.0966709 0.09657042
 0.09644192 0.09628537 0.09610246 0.09591285 0.09571853 0.09554113 0.09537982 0.09524415 0.09513017 0.09503496
 0.09495224 0.09487221 0.09478709 0.09468459 0.09456086 0.09440681 0.09422968 0.09402831 0.09381894 0.09360651
 0.09340418 0.0932171 0.09304556 0.09289138 0.09274418 0.0926034 0.09245742 0.09230563 0.09214273 0.091969
 0.09178595 0.09159416 0.09139764 0.09119638 0.09099246 0.09078569 0.0905764 0.09036527 0.09015337 0.08994152
 0.08973046 0.08952239 0.08931584 0.08912384 0.08894797 0.08881608 0.08873891 0.08873253 0.08881067 0.08893441
 0.08910669 0.08923744 0.08931892 0.08928104 0.08912002 0.0888503 0.08847884 0.08809379 0.08770286 0.08739851
 0.08717452 0.08706537 0.08704556 0.08707847 0.08713203 0.08713543 0.08708076 0.0869214 0.08669438 0.0864057
 0.08611204 0.08584876 0.08563548 0.08549491 0.08539458 0.08533167 0.08527286 0.08520833 0.0851524 0.08510352
 0.08510789 0.08516792 0.08530314 0.08550964 0.08574573 0.08600168 0.08619826 0.08633344 0.08635174 0.08627134
 0.08610218 0.08587326 0.08563865 0.0854082 0.08522072 0.08505432 0.08490464 0.0847516 0.08457571 0.08439511
 0.08420858 0.08404906 0.08392886 0.08384347 0.0837974 0.08375346 0.08370735 0.08364958 0.08357943 0.08353191
 0.08350822 0.0835353 0.08360764 0.08370654 0.08382516 0.08392726 0.08401515 0.0840748 0.08411495 0.08414446
 0.0841677 0.08419612 0.08422181 0.08424716 0.08424862 0.08421677 0.08412535 0.08395739 0.08372134 0.08340634
 0.08307917 0.08274454 0.08248751 0.08231923 0.08226196 0.08231764 0.08241688 0.08255384 0.08263025 0.08264861
 0.082569 0.0824087 0.08220699 0.08198119 0.08179576 0.081649 0.08157155 0.08154286 0.08155228 0.0815794
 0.081602 0.08161721 0.08161386 0.08160815 0.08160118 0.08161704 0.08166268 0.08175024 0.08188631 0.08204862
 0.08223805 0.08240095 0.0825343 0.08260045 0.08260188 0.08256422 0.08249585 0.08246424 0.08246824 0.08254393
 0.08267508 0.08283837 0.08302572 0.08320435 0.08339717 0.083612 0.08388752 0.0842588 0.0847451 0.08536932
 0.08612656 0.08701859 0.0880445 0.08920218 0.09050419 0.09195472 0.09354632 0.09528342 0.09709638 0.09898195
 0.1008059 0.1025596 0.1040937 0.1054046 0.1063913 0.1070632 0.1073962 0.1074104 0.1071388 0.106607
 0.105867 0.1049505 0.103907 0.1027778 0.1016048 0.1004365 0.09930608 0.09825797 0.0973158 0.09650477
 0.09583765 0.09531385 0.09493594 0.09469271 0.094582 0.09461176 0.0947821 0.09513044 0.09565852 0.096401
 0.09735353 0.09850873 0.09985519 0.1013464 0.1029746 0.1046948 0.1065118 0.1084111 0.110407 0.112509
 0.1147344 0.117098 0.1196182 0.1223077 0.1251818 0.1282525 0.1315135 0.134974 0.1385798 0.1423322
 0.1461245 0.1499502 0.1536821 0.1573125 0.160731 0.1639322 0.1668238 0.1693993 0.1715675 0.1733283
 0.1746168 0.175471 0.1759262 0.1760826 0.1761062 0.1761289 0.1763706 0.1769179 0.1779264 0.1793892
 0.1813557 0.1837551 0.1865743 0.1897431 0.1932423 0.1970216 0.2010741 0.2053414 0.2098211 0.2144232
 0.2191429 0.2238598 0.2285664 0.2331307 0.2375452 0.2416957 0.2455784 0.2491187 0.2523146 0.255127
 0.2575459 0.259544 0.2610933 0.2621595 0.2626941 0.2626522 0.2619815 0.2606349 0.2586018 0.2558484
 0.2524603 0.2484294 0.2439525 0.239045 0.2339675 0.228744 0.223613 0.2185911 0.2138211 0.2093044
 0.2050717 0.2011151 0.1973978 0.1939125 0.190613 0.1874924 0.1845145 0.1816652 0.1789055 0.1762209
 0.1735739 0.1709708 0.1683974 0.1658859 0.1634485 0.1611184 0.158912 0.1568459 0.1549249 0.1531694
 0.1515783 0.1502028 0.149045 0.1481823 0.1476197 0.147422 0.1475885 0.1481149 0.1489832 0.1500776
 0.151365 0.1526496 0.1539171 0.1550114 0.1559848 0.1568319 0.157679 0.1586641 0.159927 0.1616375
 0.1638608 0.1667033 0.1701018 0.1740821 0.1784655 0.1832301 0.1881367 0.1931541 0.1980279 0.2027372
 0.2070025 0.2108085 0.21379 0.2159221 0.2167521 0.2162651 0.2141043 0.2103348 0.2049734 0.1982071
 0.190491 0.1820659 0.1735629 0.1651465 0.1572889 0.1500065 0.1434896 0.1376411 0.132466 0.1278369
 0.1237082 0.1199745 0.116602 0.1135125 0.1106882 0.1080758 0.1056671 0.1034329 0.101371 0.09946536
 0.09771516 0.09610447 0.09463152 0.09327681 0.09203756 0.09089279 0.08983923 0.08885767 0.0879462 0.08709291
 0.08629663 0.08555325 0.08485617 0.0842014 0.08357406 0.08296444 0.0823618 0.08175582 0.08115693 0.08056261
 0.08000085 0.07947671 0.07900796 0.07859958 0.07823444 0.07791238 0.07759135 0.07726988 0.07692082 0.07654783
 0.07616462 0.07577698 0.07541905 0.07508737 0.07479366 0.07452323 0.07425394 0.07397583 0.07366252 0.07332377
 0.07295504 0.07258011 0.0722114 0.07186806 0.07156307 0.07129769 0.07107805 0.0708851 0.07071854 0.07054762
 0.07036854 0.07016187 0.06992541 0.06967097 0.06940001 0.06914384 0.06890272 0.06869444 0.06851501 0.06835674
 0.06821636 0.06807977 0.06794908 0.06782134 0.06770042 0.06759115 0.06749334 0.06740952 0.06733544 0.06726908
 0.06720766 0.06714889 0.06709431 0.0670443 0.06699882 0.06695937 0.06691581 0.0668677 0.06680078 0.06671371
 0.06660736 0.06648267 0.06636148 0.06624523 0.06615654 0.06609265 0.06605486 0.06603717 0.0660231 0.06601012
 0.06598383 0.06594937 0.06590666 0.06586351 0.06582894 0.06580169 0.06578708 0.06576987 0.06574601 0.06569923
 0.06562215 0.0655147 0.06537379 0.06521458 0.06503803 0.0648602 0.06468224 0.06451656 0.06436378 0.06423511
 0.0641301 0.06405189 0.06399688 0.06395158 0.06391183 0.06385747 0.0637904 0.06370257 0.06360293 0.06349947
 0.06340086 0.06331927 0.06325497 0.06321371 0.06318627 0.06317114 0.06315628 0.06313717 0.06310973 0.06307138
 0.0630282 0.0629805 0.06293482 0.06289177 0.06285097 0.06281255 0.06277786 0.06274841 0.06273734 0.06274591
 0.06278922 0.06286215 0.06296083 0.06307348 0.06317561 0.06325912 0.06330031 0.06330408 0.06326435 0.06319494
 0.06310235 0.06299865 0.06289057 0.06278507 0.06268524 0.06259573 0.06251843 0.06245263 0.06239932 0.06234865
 0.06230011 0.06224177 0.06217334 0.06209288 0.06200147 0.06190713 0.06181077 0.06172089 0.06163686 0.06156151
 0.0614931 0.06142988 0.06136971 0.06130857 0.06124635 0.06118002 0.06111504 0.06105283 0.06100206 0.0609678
 0.06095187 0.06095821 0.06097482 0.06100149 0.06101879 0.06102431 0.06100428 0.0609572 0.06088264 0.06078103
 0.06066583 0.0605388 0.06042123 0.06031359 0.06023102 0.06016951 0.06012685 0.06009572 0.06006014 0.06001663
 0.05995179 0.05987072 0.05977218 0.05966562 0.05955711 0.05945216 0.0593555 0.05926625 0.05918512 0.05911023
 0.05904089 0.05897849 0.05892314 0.05887629 0.05883829 0.05880476 0.05877531 0.05873979 0.05869791 0.05864231
 0.0585744 0.05849625 0.05841056 0.05832645 0.05824529 0.05817502 0.05811339 0.05806138 0.05801431 0.05796804
 0.05791915 0.0578633 0.05780197 0.05773394 0.05766445 0.05759484 0.05752905 0.05746844 0.05741299 0.05736297
 0.05731698 0.05727494 0.05723606 0.05720025 0.0571657 0.05713193 0.05709376 0.05705107 0.0569998 0.05694173
 0.05687944 0.05681594 0.05675916 0.05670929 0.05667146 0.05664041 0.05661359 0.05658431 0.05654616 0.05649932
 0.05644068 0.05637825 0.05631365 0.05625407 0.05620202 0.05615674 0.05611884 0.0560831 0.05604915 0.05601355
 0.05597619 0.05593646 0.05589445 0.05585055 0.05580531 0.05576133 0.05571928 0.05568311 0.05565173 0.05562568
 0.05560158 0.05557453 0.05554307 0.0555025 0.05545733 0.05540845 0.05536233 0.05532327 0.05529081 0.05526685
 0.05524426 0.05522163 0.05519514 0.05516342 0.05513113 0.05509842 0.05507108 0.05504923 0.05503073 0.05501482
 0.05499312 0.05496553 0.05492663 0.05487805 0.05482177 0.05475973 0.05469745 0.05463446 0.05457309 0.0545105
 0.05444456 0.05437349 0.05429453 0.05421012 0.05411997 0.05402925 0.05393934 0.05385476 0.05377671 0.05370763
 0.05364807 0.05359871 0.05355982 0.05352805 0.05350313 0.05347755 0.05345094 0.0534163 0.05337424 0.0533238
 0.05326643 0.05320622 0.0531439 0.05308321 0.0530236 0.05296566 0.05290915 0.05285375 0.05280021 0.05274921
 0.05270036 0.05265412 0.05260817 0.05256175 0.05251372 0.05246342 0.05241229 0.05236056 0.05230836 0.05225588
 0.05220002 0.05214067 0.05207633 0.05200723 0.05193519 0.05186028 0.05178365 0.05170544 0.05162599 0.05154711
 0.05147254 0.05140436 0.0513484 0.05130244 0.05126767 0.05123764 0.05120805 0.05117483 0.05113388 0.05108776
 0.05103603 0.05098342 0.05093117 0.05088071 0.05083268 0.05078497 0.05073743 0.05068902 0.05063974 0.05059232
 0.05054696 0.05050696 0.05047195 0.0504416 0.0504154 0.05039129 0.05036968 0.05035086 0.05033415 0.05031989
 0.05030397 0.05028215 0.05025188 0.05020771 0.05015684 0.05009979 0.05004885 0.05000965 0.04998339 0.04997359
 0.04996505 0.04995645 0.04993267 0.04989167 0.04983545 0.04976424 0.04969335 0.04962335 0.04956593 0.04951982
 0.0494848 0.04945889 0.04943538 0.04941357 0.04938854 0.04936077 0.04932862 0.04929349 0.04925586 0.04921811
 0.04918199 0.04914951 0.04912244 0.04910045 0.04908403 0.04907143 0.04906237 0.04905554 0.04905106 0.0490453
 0.04903826 0.04902174 0.04899533 0.04895247 0.04889356 0.04882057 0.04873426 0.04864048 0.04853769 0.04842498
 0.04829798 0.04814697 0.04796811 0.04775082 0.04749481 0.04719554 0.04685505 0.0464742 0.04605229 0.04559061
 0.04508277 0.0445272 0.04391761 0.04325084 0.04253149 0.04175767 0.04095135 0.04011288 0.03928166 0.03846007
 0.03770475 0.03701995 0.0364707 0.03606027 0.03584053 0.03581106 0.03600002 0.0364005 0.03702489 0.03783091
 0.0387776 0.0397788 0.04072797 0.041566 0.04220888 0.04265692 0.04288431 0.04292244 0.0427692 0.04248422
 0.04206953 0.04163338 0.04118827 0.04084213 0.04060962 0.0404923 0.04049031 0.04053811 0.04063438 0.04074558
 0.04087318 0.04100875 0.04115156 0.04129302 0.04143506 0.04157653 0.04172282 0.04188211 0.04205741 0.04225566
 0.04247605 0.04272173 0.04298579 0.04326824 0.04355316 0.04383631 0.04410101 0.04434203 0.04455291 0.04473131
 0.04488001 0.04499874 0.04509483 0.04516871 0.0452328 0.04528799 0.04534915 0.04541599 0.04549539 0.04558447
 0.04567751 0.04577104 0.04585379 0.0459255 0.04597955 0.04602042 0.04604981 0.0460737 0.04609758 0.04612375
 0.04615598 0.04619031 0.04622671 0.04625908 0.04628563 0.04630439 0.04631436 0.04631869 0.04631748 0.04631497
 0.04631137 0.04630855 0.04630649 0.04630531 0.04630491 0.04630492 0.04630493 0.04630351 0.04629988 0.04629111
 0.04627772 0.04625837 0.04623635 0.04621454 0.04619626 0.04618617 0.04618196 0.04618499 0.0461876 0.0461873
 0.04617895 0.04615986 0.04613337 0.04609906 0.04606488 0.04603161 0.04600367 0.04598134 0.04596229 0.04594626
 0.04592896 0.04591079 0.04589146 0.04587233 0.04585822 0.04584959 0.04585075 0.04585941 0.04587455 0.04589202
 0.0459068 0.0459159 0.04591479 0.04590425 0.04588264 0.04585459 0.04582081 0.04578748 0.04575625 0.04573097
 0.04571277 0.0457013 0.0456968 0.0456962 0.04569932 0.04570305 0.04570726 0.04570959 0.04570986 0.0457059
 0.04569741 0.04568198 0.04566001 0.04563044 0.0455959 0.04555941 0.04552526 0.04549996 0.0454847 0.0454842
 0.04549251 0.04550872 0.04552415 0.04553477 0.04553809 0.04553182 0.04552091 0.04550572 0.04549095 0.04547737
 0.04546374 0.04545004 0.04543135 0.04540771 0.0453781 0.04534384 0.04531213 0.04528433 0.04527029 0.04526795
 0.0452787 0.04529688 0.04531354 0.04532535 0.04532341 0.04531165 0.04528924 0.04526366 0.04523916 0.04521919
 0.04520698 0.04519933 0.0451967 0.04519256 0.04518596 0.04517193 0.04514955 0.04512043 0.04508456 0.0450507
 0.0450193 0.04499902 0.04498909 0.04498947 0.04499813 0.04500746 0.0450167 0.04501954 0.04501783 0.04501168
 0.04500329 0.04499579 0.04498897 0.04498413 0.04497915 0.04497307 0.04496484 0.0449536 0.04493997 0.04492389
 0.04490642 0.0448876 0.04486924 0.04485144 0.04483686 0.04482565 0.04481851 0.04481514 0.04481138 0.0448066
 0.04479435 0.04477485 0.04474489 0.04470615 0.04466081 0.04461102 0.04456157 0.04451327 0.0444692 0.0444286
 0.04439156 0.04435813 0.04432758 0.04430302 0.04428544 0.0442773 0.04428042 0.04429055 0.04430796 0.04432362
 0.04433646 0.04434229 0.04434074 0.04433597 0.04432823 0.04432273 0.0443191 0.04431745 0.04431734 0.04431669
 0.04431638 0.04431747 0.04432114 0.04433056 0.04434464 0.04436448 0.04438544 0.04440448 0.044417 0.0444189
 0.04441031 0.04438917 0.04436177 0.04432877 0.04429812 0.04427136 0.04425299 0.04424388 0.04424327 0.04425122
 0.04426311 0.04427864 0.04429249 0.04430478 0.04431343 0.04431934 0.04432468 0.04433027 0.04433967 0.0443523
 0.04436947 0.04438866 0.04440786 0.04442369 0.04443255 0.04443277 0.04442169 0.0444016 0.04437194 0.04433864
 0.0443028 0.04427049 0.04424296 0.04422355 0.04421283 0.04421141 0.04421937 0.04423489 0.04425766 0.04428292
 0.04430993 0.04433133 0.04434674 0.04435015 0.04434302 0.0443253 0.04430026 0.04427347 0.04424756 0.04422859
 0.04421593 0.04421169 0.04421273 0.04421794 0.04422438 0.04423043 0.04423526 0.04423809 0.04423996 0.04424065
 0.04424322 0.04424782 0.04425892 0.04427685 0.04430259 0.04433567 0.04436843 0.04439965 0.04441672 0.04442012
 0.04440371 0.0443716 0.04433054 0.04428555 0.04424938 0.04422249 0.04421197 0.04421223 0.04422171 0.04423309
 0.04424145 0.04424306 0.04423431 0.0442181 0.04419366 0.04416869 0.04414434 0.04412703 0.04411807 0.04411551
 0.04411945 0.04412011 0.04411707 0.04410221 0.04407626 0.04403974 0.04399478 0.04394986 0.04390705 0.04387639
 0.04385769 0.04385652 0.04386809 0.0438901 0.04391438 0.04393352 0.043941 0.04392981 0.04390089 0.04385109
 0.04379063 0.04372022 0.0436553 0.04359858 0.04356145 0.04354634 0.04355022 0.0435733 0.04359944 0.04362786
 0.04364373 0.04364795 0.04363902 0.04361971 0.04360036 0.04358272 0.04357765 0.04358309 0.04360151 0.04362716
 0.04365418 0.0436771 0.04368819 0.0436877 0.04367188 0.04364871 0.04361971 0.04359465 0.04357726 0.04356968
 0.04357394 0.04358238 0.04359447 0.04360267 0.04360633 0.04360591 0.04360165 0.04359889 0.04359758 0.04359978
 0.04360492 0.04361176 0.04361998 0.04362837 0.04363612 0.04364166 0.04364311 0.0436369 0.04362346 0.04360035
 0.04357358 0.04354534 0.04352291 0.0435109 0.04350884 0.04351901 0.04353177 0.04354598 0.04355241 0.04354936
 0.04353673 0.04351422 0.04349058 0.04346619 0.04344855 0.04343684 0.0434287 0.04342262 0.04341052 0.04339278
 0.04336574 0.04333169 0.04329305 0.04325193 0.04321171 0.04317452 0.04314294 0.04311957 0.04310767 0.04310518
 0.04311391 0.04312348 0.04313189 0.04312858 0.04311006 0.0430782 0.0430317 0.04298586 0.0429416 0.04291273
 0.04289928 0.04289947 0.04291172 0.042923 0.04293268 0.04293071 0.0429185 0.04289469 0.04286092 0.04281932
 0.04277157 0.04271967 0.04266781 0.04261975 0.04258047 0.04255503 0.04254267 0.04254567 0.04255644 0.04257365
 0.04258972 0.04260278 0.04260981 0.04260993 0.04260509 0.04259527 0.04258498 0.04257425 0.04256345 0.04255138
 0.04252892 0.04249512 0.04243931 0.04236498 0.04227412 0.04217551 0.04208681 0.04201345 0.04197273 0.04195773
 0.0419701 0.04199656 0.04202906 0.0420595 0.0420818 0.04209518 0.04209781 0.04209265 0.04208001 0.04206221
 0.04203977 0.04201166 0.04197791 0.04193454 0.04188137 0.04181498 0.04173631 0.04164973 0.0415591 0.04148341
 0.0414262 0.04141036 0.04142945 0.04148449 0.04156167 0.041642 0.04171899 0.04177902 0.04182339 0.04184933
 0.04185846 0.04185035 0.04182846 0.04179178 0.0417526 0.04171206 0.04168621 0.04167778 0.04169065 0.04172571
 0.0417724 0.04183013 0.04188659 0.04194167 0.04198895 0.04202915 0.0420618 0.04208782 0.04210955 0.0421275
 0.04214337 0.04215822 0.04217367 0.04219171 0.04221586 0.04224378 0.04227693 0.04230607 0.04232677 0.04233554
 0.0423274 0.04231671 0.04230411 0.04231042 0.04233961 0.04239198 0.04246855 0.04254662 0.04262537 0.04269035
 0.0427441 0.04280105 0.04286505 0.04296395 0.04309348 0.04325844 0.04344667 0.04363503 0.04381904 0.04397975
 0.04412641 0.04425959 0.04439261 0.04453612 0.0446921 0.04486623 0.04504813 0.04523423 0.04542374 0.04561128
 0.04582792 0.04607365 0.04640603 0.04682975 0.04737436 0.04803963 0.04879256 0.04963299 0.05053855 0.05152432
 0.05264167 0.05391714 0.05545312 0.05726871 0.05945866 0.06200572 0.06493929 0.06819754 0.07173654 0.07549555
 0.0794158 0.08348615 0.08769496 0.09201688 0.09648149 0.1008759 0.1051942 0.1090668 0.1124407 0.1151199
 0.117079 0.1183771 0.1190192 0.1191413 0.1187544 0.1180041 0.1169041 0.115594 0.1140837 0.1124641
 0.1107612 0.1090553 0.1074029 0.1059238 0.1046294 0.1035891 0.1027447 0.1020782 0.1015412 0.1011039
 0.1007523 0.1004754 0.1002726 0.100139 0.1000954 0.1001397 0.1003325 0.1006796 0.1011983 0.1018849
 0.1025885 0.1032964 0.1038247 0.1041806 0.1043025 0.1042033 0.1038862 0.1033664 0.1026681 0.1018218
 0.1008758 0.09986438 0.09883589 0.09781731 0.0968324 0.0959238 0.09511188 0.0944426 0.09394602 0.0935904
 0.09338386 0.09323297 0.09312625 0.09300093 0.09284998 0.09266173 0.09243633 0.09219766 0.09195118 0.09175611
 0.09161771 0.09160145 0.09169067 0.09187089 0.09212047 0.09237958 0.09265854 0.09294587 0.09325815 0.09361237
 0.09400533 0.0944418 0.09491053 0.09540614 0.09592631 0.09647193 0.09702889 0.09759575 0.09815252 0.09869322
 0.09923596 0.09978132 0.1003568 0.1009623 0.1015599 0.1021438 0.1026381 0.1030472 0.1033475 0.1035568
 0.1037173 0.1038424 0.1039872 0.1041375 0.1042951 0.1044476 0.1045732 0.1046969 0.1048315 0.1049887
 0.1051874 0.1053909 0.1055918 0.1057585 0.1058759 0.1059709 0.1060401 0.1061563 0.106326 0.1065913
 0.1069524 0.1073371 0.1077391 0.1080638 0.1083181 0.1084884 0.1085835 0.1086247 0.1086119 0.108555
 0.1084509 0.1082979 0.1080967 0.1078463 0.1075516 0.107214 0.1068429 0.1064402 0.106023 0.1055965
 0.1051747 0.1047629 0.1043596 0.1039648 0.1035792 0.1032018 0.1028571 0.1025466 0.1023095 0.1021465
 0.1020801 0.1021068 0.1022206 0.1024186 0.1026865 0.1030275 0.1034387 0.1039308 0.1045153 0.10521
 0.1060343 0.1070092 0.1081526 0.1094859 0.1110173 0.1127842 0.11479 0.1171103 0.1197599 0.1228069
 0.1262734 0.1301081 0.1343163 0.1387043 0.1432606 0.1477346 0.1521019 0.1560411 0.1595044 0.1620602
 0.1637108 0.1641964 0.1636371 0.1621461 0.1598756 0.1570728 0.1539139 0.1506475 0.1474506 0.1445443
 0.1419467 0.1397458 0.1378199 0.136142 0.1346369 0.1332604 0.1321135 0.1312002 0.1306502 0.1304832
 0.1306199 0.131057 0.1317083 0.1325792 0.1336981 0.135073 0.1367599 0.138762 0.1411101 0.1438245
 0.1469704 0.1505462 0.1546925 0.1590645 0.1635143 0.1672615 0.1696118 0.1703685 0.1691296 0.1664074
 0.1622575 0.157243 0.151461 0.1455068 0.1394697 0.1338095 0.1285846 0.1238761 0.119688 0.1158771
 0.1124384 0.1092709 0.1063829 0.1037705 0.1014348 0.09938428 0.09759782 0.09604014 0.09467462 0.0934343
 0.09228385 0.0911635 0.0900473 0.08890169 0.08770309 0.08642463 0.08508081 0.08364409 0.08225915 0.08094954
 0.07985178 0.0790083 0.07832831 0.07781016 0.07732861 0.07687793 0.07644405 0.07603167 0.07569151 0.07542375
 0.07525393 0.07517935 0.07519463 0.07531997 0.07558916 0.07604174 0.07675728 0.07774996 0.07907232 0.08070145
 0.08263539 0.08485748 0.08736383 0.09012439 0.09313951 0.09633321 0.09968042 0.1031706 0.1067763 0.1106999
 0.1149575 0.1197268 0.1250133 0.1303907 0.135806 0.140481 0.144428 0.1473077 0.1491938 0.1501437
 0.1502398 0.1496719 0.1485447 0.1470995 0.1454077 0.1436382 0.1418127 0.1399861 0.1382026 0.1364961
 0.1349008 0.1334507 0.1320907 0.1308147 0.1295713 0.1283447 0.1271631 0.1260251 0.1250006 0.1240934
 0.1233389 0.122735 0.1222641 0.1219225 0.1216832 0.1215424 0.121481 0.1214792 0.1214936 0.1214809
 0.121352 0.1210834 0.1205991 0.1199447 0.1191109 0.1182076 0.1172767 0.1164424 0.1157614 0.1152909
 0.1150652 0.1150456 0.1152375 0.1155504 0.1159798 0.1164124 0.1168418 0.1171526 0.1173424 0.117349
 0.1171785 0.1168323 0.1163185 0.1156622 0.1148741 0.1139869 0.1130166 0.1120009 0.1109539 0.1099058
 0.1088624 0.1078393 0.1068309 0.1058412 0.1048521 0.1038579 0.102846 0.1018069 0.100765 0.0997184
 0.09872215 0.09778149 0.09693043 0.09617104 0.09550828 0.09494342 0.09449232 0.0941597 0.09398329 0.09396344
 0.09412791 0.09445975 0.0949444 0.09553849 0.09617904 0.09679756 0.09729868 0.09762279 0.09767964 0.09748806
 0.09700962 0.09636845 0.09559072 0.09481461 0.09408566 0.0934466 0.09291799 0.09245332 0.09205116 0.09165656
 0.09126636 0.09086994 0.09046935 0.0900905 0.08973452 0.08942178 0.08914951 0.08891765 0.08872541 0.08857108
 0.08845463 0.08837822 0.08833355 0.08831517 0.08830701 0.08829528 0.08826806 0.08821381 0.08813283 0.08802081
 0.08788877 0.08773705 0.08758308 0.08742926 0.08729093 0.08717043 0.08706855 0.08698551 0.08690552 0.08682802
 0.08673992 0.0866442 0.08655037 0.08646557 0.08642039 0.08642014 0.08649531 0.08664078 0.08686536 0.0871524
 0.08748905 0.08785369 0.08822764 0.08858907 0.08892282 0.08921101 0.08944257 0.08961346 0.08971783 0.08977178
 0.08977506 0.08975597 0.08971662 0.08968586 0.08966544 0.08967644 0.08971862 0.08979388 0.08989847 0.09001118
 0.09012781 0.09022061 0.09029065 0.0903253 0.09033076 0.09031098 0.09027329 0.09022684 0.09017915 0.09013796
 0.0901115 0.09010568 0.09012727 0.09017993 0.0902678 0.09039291 0.09055562 0.09075711 0.09099095 0.09125724
 0.0915427 0.09184661 0.09215283 0.09246005 0.09274768 0.09301341 0.09323157 0.09340215 0.09350819 0.0935583
 0.09356201 0.09353433 0.09350472 0.09348313 0.09349491 0.09353726 0.09361797 0.0937261 0.09385835 0.09400389
 0.09415834 0.09431335 0.09446623 0.09461107 0.09474616 0.09487066 0.09498373 0.09509314 0.09519923 0.09531605
 0.09544452 0.09560046 0.09578453 0.09601 0.09627475 0.09658134 0.09692008 0.09727228 0.09762045 0.09792715
 0.09817907 0.09834186 0.0984221 0.09840848 0.09832802 0.0981901 0.09802479 0.0978459 0.09767064 0.09750715
 0.09735742 0.09722412 0.09709775 0.09697817 0.09685039 0.09671346 0.09655774 0.09638377 0.09619819 0.09600396
 0.09582316 0.09565894 0.09553597 0.09545319 0.0954231 0.09543635 0.09548556 0.09555427 0.09562039 0.0956713
 0.09568569 0.09566956 0.09561656 0.09554909 0.09547426 0.09540894 0.09536096 0.09532805 0.09531146 0.09530342
 0.09530224 0.09531437 0.09533986 0.09540023 0.09549674 0.09565254 0.09586738 0.09615308 0.09650485 0.09691355
 0.09736825 0.09783794 0.09831174 0.09875441 0.09916685 0.09953276 0.09986717 0.1001756 0.1004758 0.1007797
 0.1010975 0.1014359 0.1017989 0.1021889 0.1026065 0.1030533 0.1035221 0.1040132 0.104508 0.1050056
 0.1054812 0.1059337 0.1063419 0.1067057 0.1070138 0.107268 0.1074686 0.1076181 0.1077238 0.1077845
 0.1078037 0.1077735 0.107686 0.1075329 0.1073013 0.1069964 0.1066126 0.1061754 0.1056905 0.1051892
 0.1046813 0.1041856 0.1037075 0.1032517 0.1028193 0.1024128 0.1020322 0.101685 0.1013713 0.1010987
 0.1008664 0.1006746 0.1005203 0.1003933 0.1002893 0.1001921 0.1000997 0.09999949 0.0998956 0.0997862
 0.09968182 0.09958964 0.09952124 0.09948501 0.09948905 0.09953763 0.09963848 0.09979342 0.1000129 0.1002992
 0.1006575 0.1010895 0.1015845 0.1021421 0.1027433 0.103387 0.1040577 0.1047524 0.1054467 0.1061306
 0.1067514 0.1072997 0.1077175 0.1080164 0.1081822 0.1082518 0.1082629 0.1082526 0.1082691 0.1083233
 0.1084403 0.1086006 0.1088065 0.1090212 0.1092375 0.1094174 0.109553 0.1096187 0.10961 0.109522
 0.1093537 0.1091186 0.108818 0.1084764 0.1080959 0.1077033 0.1073001 0.1069073 0.1065253 0.1061665
 0.1058297 0.1055197 0.1052323 0.1049655 0.1047129 0.1044683 0.1042277 0.1039868 0.1037448 0.1035012
 0.1032525 0.1029983 0.1027318 0.1024512 0.1021564 0.1018461 0.1015334 0.1012188 0.1009218 0.100643
 0.1003938 0.1001722 0.09997098 0.09978542 0.09959174 0.09938804 0.09915379 0.09889728 0.09862061 0.09834145
 0.0980823 0.09785873 0.09769459 0.09759015 0.0975575 0.09757404 0.09763891 0.09771017 0.09777856 0.09780159
 0.09776852 0.09766283 0.09747888 0.0972368 0.09693696 0.09661924 0.09628531 0.09596471 0.0956555 0.09535796
 0.09506673 0.09475951 0.09443224 0.09406216 0.09364885 0.09318135 0.09265985 0.09207977 0.09144302 0.0907459
 0.09000297 0.08921675 0.08841765 0.087617 0.08684359 0.0861097 0.08542233 0.08478673 0.08419003 0.08363158
 0.08309782 0.08258749 0.08210146 0.08164018 0.08121511 0.08082613 0.08047878 0.0801697 0.07988814 0.07962953
 0.07937525 0.07912406 0.0788643 0.07859816 0.07832395 0.07804366 0.0777589 0.07746983 0.07717726 0.07688013
 0.07657814 0.07627036 0.07595574 0.07563729 0.07531448 0.07499611 0.07468305 0.0743832 0.07409742 0.07382353
 0.07356106 0.0732981 0.07303409 0.07275814 0.07247192 0.07217519 0.07187318 0.07157873 0.07129963 0.07105543
 0.07085435 0.07071438 0.07064259 0.07065286 0.07074457 0.07092828 0.07117631 0.07149129 0.0718018 0.07209638
 0.07228024 0.07233272 0.07219525 0.07185242 0.07133103 0.07062933 0.06984828 0.06899361 0.06817694 0.06739931
 0.06672163 0.06613538 0.06563728 0.06521516 0.06483312 0.06448357 0.06413471 0.06378491 0.06341895 0.06303798
 0.06263683 0.06222067 0.06178849 0.06135472 0.06092289 0.06051363 0.0601341 0.05979579 0.05950442 0.05925039
 0.05903447 0.05883489 0.05864998 0.05846722 0.05828654 0.0581135 0.05794939 0.05780742 0.05768786 0.05759906
 0.05753986 0.0575116 0.05751222 0.05753887 0.05758855 0.05765695 0.05773919 0.05783153 0.05792321 0.05800924
 0.05807183 0.05810248 0.05808767 0.05801839 0.05790363 0.05774022 0.05755991 0.05736535 0.05718926 0.05703463
 0.05691325 0.05682512 0.0567598 0.05671676 0.05668465 0.05666798 0.05667999 0.05672824 0.05684618 0.05702739
 0.05728474 0.05758401 0.05788954 0.05815716 0.05832842 0.05838885 0.05830226 0.05810193 0.05778643 0.05741578
 0.05700509 0.05660889 0.05624125 0.05593086 0.05568495 0.05550047 0.05537858 0.05529336 0.05524329 0.05519773
 0.05515564 0.05509446 0.05501524 0.05490913 0.05478103 0.05463904 0.05449115 0.05435736 0.05424237 0.05416334
 0.05411492 0.05410068 0.05410629 0.05412428 0.05414088 0.05414615 0.05413998 0.0541167 0.05409651 0.05408061
 0.05409737 0.05415136 0.05425438 0.05440862 0.05459794 0.05482114 0.05504838 0.05527814 0.05548507 0.05566835
 0.05581087 0.055912 0.0559601 0.05595707 0.0558995 0.05579405 0.05564702 0.05546819 0.05526822 0.05505681
 0.05484309 0.05463394 0.05443518 0.05424799 0.0540749 0.05391059 0.05375499 0.05360007 0.05344496 0.0532825
 0.05311207 0.05292848 0.05273167 0.05252341 0.05230536 0.05209282 0.05188832 0.05171322 0.05156621 0.05145545
 0.05137599 0.05132063 0.05128808 0.05127232 0.05127668 0.05130402 0.05135154 0.05142109 0.05149984 0.05158255
 0.05165929 0.05172393 0.0517805 0.05182741 0.05187803 0.05193387 0.05200546 0.05209414 0.05219903 0.05231984
 0.05244339 0.05256872 0.05268083 0.05278044 0.05286275 0.05292993 0.05298614 0.05303292 0.05307531 0.05311434
 0.05315327 0.05319349 0.0532377 0.05328629 0.05334054 0.05339975 0.05346332 0.05353288 0.05360754 0.05369476
 0.05379519 0.05391929 0.05406927 0.05424614 0.05445115 0.05466385 0.05488299 0.0550782 0.05524969 0.05538617
 0.05549247 0.05558639 0.05567269 0.05577616 0.05589683 0.056047 0.05622395 0.05642988 0.05665912 0.05690883
 0.0571681 0.05742874 0.05768276 0.05792161 0.05815242 0.05837297 0.05860313 0.05884559 0.05912185 0.05943501
 0.05980073 0.06022082 0.06069982 0.06123787 0.06182958 0.06247545 0.06317686 0.06393775 0.06477828 0.06570347
 0.06674055 0.06789023 0.06916953 0.07057076 0.0720951 0.07372011 0.07543181 0.07718655 0.07896188 0.08068612
 0.08233655 0.08379938 0.08504681 0.08593745 0.08643197 0.08646145 0.08599447 0.08514488 0.08391103 0.08254832
 0.08107007 0.07971125 0.07847389 0.07746755 0.07667728 0.07608993 0.07568148 0.07537087 0.07513914 0.07490379
 0.07466453 0.07438186 0.07407298 0.07374001 0.07340238 0.07307553 0.07276874 0.07249271 0.07224185 0.07201927
 0.07180577 0.07159832 0.07137853 0.07114174 0.07089095 0.07062494 0.0703672 0.07011893 0.0699028 0.06971859
 0.069573 0.06946316 0.06937815 0.06931457 0.06925431 0.06919912 0.06914273 0.06909125 0.06905393 0.06902748
 0.06901537 0.06900287 0.06898027 0.06893797 0.06886791 0.06876905 0.06864059 0.06847719 0.06827723 0.06803877
 0.0677601 0.06745175 0.06711476 0.06675128 0.06636143 0.0659412 0.06549274 0.06503618 0.06457807 0.06416675
 0.06380176 0.06351204 0.06328201 0.06309254 0.06292766 0.06275091 0.0625646 0.06235322 0.06213652 0.06192246
 0.06173209 0.06157913 0.06147139 0.06141669 0.06140669 0.06144208 0.06150789 0.06160238 0.06171264 0.06183782
 0.06196238 0.0620854 0.06218722 0.06226759 0.0623172 0.06233748 0.06233281 0.06230139 0.06224114 0.06214589
 0.06199853 0.06180083 0.06154333 0.06124301 0.06091338 0.06057117 0.06023237 0.05990823 0.05960428 0.05934228
 0.05912761 0.05898977 0.05893904 0.05897961 0.05911916 0.05930929 0.05954879 0.05975825 0.05993367 0.06004002
 0.06008207 0.06010643 0.06011816 0.06017515 0.06026527 0.0603791 0.06050035 0.06058134 0.06062905 0.06062899
 0.06060456 0.06057811 0.06055987 0.06056824 0.06059396 0.06063816 0.0606873 0.06073723 0.06077724 0.06080459
 0.06080986 0.06079069 0.06074568 0.06067362 0.06058842 0.06049081 0.06040443 0.06032943 0.06027747 0.06024296
 0.06020159 0.06014561 0.06002988 0.05986377 0.05963773 0.05938542 0.05915613 0.05897388 0.05889519 0.05889477
 0.05898125 0.05909578 0.05920954 0.05928452 0.05929452 0.05925065 0.05914539 0.0590254 0.05889629 0.05879699
 0.05873413 0.05869378 0.05867536 0.05862274 0.05853482 0.05837946 0.05816378 0.0579122 0.05763204 0.05736397
 0.05710498 0.05686836 0.05664802 0.05643655 0.0562394 0.05605558 0.05590333 0.05579741 0.05574641 0.05576854
 0.05582851 0.05592753 0.05599211 0.05600408 0.05591749 0.05571604 0.05542883 0.05505441 0.05466026 0.05425002
 0.05385862 0.0534844 0.05311297 0.05274231 0.05235048 0.05194402 0.05153092 0.05112614 0.05076917 0.05046871
 0.05026323 0.05013518 0.05008636 0.05007884 0.05008455 0.05007511 0.05002502 0.049932 0.0497869 0.04960557
 0.04938737 0.04916111 0.04892878 0.04872986 0.04856809 0.04847402 0.04844956</values></Ydata></AB><ScSm><Ydata ylabel="Single channel"><values byteorder="INTEL" format="FLOAT32" numvalues="1814"> 0.05592141 0.05593763 0.05599671 0.05611246 0.05626526 0.05641506 0.05652615 0.05658852 0.05661189 0.05660135
 0.05656135 0.05652768 0.05656209 0.05669279 0.05687391 0.05701594 0.0570572 0.05701876 0.05699523 0.0570633
 0.05717628 0.05717213 0.05692355 0.05648401 0.0560559 0.05580395 0.05575056 0.05589077 0.05629256 0.05690986
 0.05736943 0.05723522 0.05655385 0.0558832 0.05567361 0.05583653 0.05600215 0.05594862 0.05567055 0.0552983
 0.05514032 0.05559961 0.05677669 0.05814352 0.058734 0.05775265 0.05514111 0.05176312 0.04908895 0.04840644
 0.04991223 0.0524494 0.05437677 0.05487966 0.05436189 0.05361599 0.05296846 0.05238169 0.0520074 0.05221782
 0.05309234 0.05407018 0.05423776 0.05310699 0.05119346 0.04965527 0.04923858 0.04980575 0.0509454 0.0524237
 0.0535612 0.05287602 0.04953624 0.04520311 0.04329464 0.04573947 0.05092132 0.0552633 0.05641286 0.05455815
 0.05138708 0.0486835 0.04766253 0.04864595 0.05099387 0.05363656 0.05572727 0.05669229 0.05609082 0.05399191
 0.05134604 0.04952511 0.04948021 0.05137068 0.05453203 0.05753234 0.05881918 0.05786528 0.05552034 0.05310875
 0.05155557 0.0513895 0.05287049 0.05572137 0.05910521 0.06211327 0.06414308 0.06496084 0.06474385 0.06396482
 0.06303184 0.06222589 0.06195974 0.06252511 0.06341735 0.06352207 0.06232977 0.06061355 0.05962912 0.05981277
 0.06043307 0.06048288 0.05969953 0.058402 0.05649425 0.053444 0.04949889 0.04601705 0.04411239 0.04380368
 0.04481742 0.0470259 0.04950168 0.05045526 0.04919023 0.04736013 0.04732881 0.04964766 0.05276461 0.05491546
 0.05575573 0.05625124 0.0574311 0.05933349 0.06086826 0.06064478 0.05835431 0.05554683 0.05453773 0.056137
 0.05886758 0.06077801 0.06149814 0.0620351 0.06301035 0.06369847 0.0627806 0.05990959 0.05656857 0.05516677
 0.05694438 0.06073012 0.06378642 0.0638371 0.06060138 0.05586593 0.05208983 0.0507005 0.05169893 0.05458722
 0.05892387 0.06384207 0.06782153 0.06953792 0.06883257 0.06663506 0.06389922 0.06071865 0.05683976 0.05313816
 0.0517955 0.05423722 0.05931238 0.06425278 0.06714388 0.06788406 0.06710851 0.06500086 0.061465 0.05727138
 0.05444621 0.05470178 0.0573778 0.05980765 0.06011507 0.05893157 0.05802922 0.05810494 0.05851585 0.0586412
 0.05876669 0.0595951 0.06124448 0.06297758 0.06391672 0.06384342 0.06323901 0.06271754 0.06246538 0.06210664
 0.0612299 0.06020638 0.06015692 0.06173636 0.06424266 0.06633488 0.06737794 0.06768933 0.06765907 0.06705841
 0.06537609 0.06279092 0.06057501 0.06015549 0.061738 0.06417613 0.06616394 0.0671742 0.06734367 0.06700976
 0.0664787 0.06591937 0.06541041 0.0651622 0.06547226 0.06631184 0.06721449 0.06774355 0.06785737 0.0677114
 0.06734651 0.06673454 0.06599712 0.06542735 0.06528526 0.06560517 0.06620841 0.06686355 0.06737911 0.06759688
 0.06744866 0.06705122 0.06662665 0.06629951 0.06606701 0.06595311 0.06604629 0.0663517 0.06672323 0.06699657
 0.06712012 0.0671255 0.06703855 0.06686482 0.06662625 0.06638228 0.06622344 0.0662251 0.06637111 0.0665486
 0.06666528 0.06673897 0.06681993 0.06687486 0.06682579 0.06667547 0.06652126 0.06645247 0.06647928 0.06655093
 0.06659897 0.06655242 0.06634954 0.06599321 0.065612 0.06540866 0.06549673 0.06581315 0.06620878 0.06656919
 0.06682923 0.06695607 0.06697305 0.06694778 0.06691462 0.06684094 0.06669274 0.06651257 0.06641586 0.06650072
 0.06675217 0.06704743 0.06726618 0.06737348 0.06739895 0.06739017 0.06739907 0.06745192 0.06750901 0.06750077
 0.06742072 0.06734645 0.06735639 0.06744632 0.06753474 0.0675476 0.06749818 0.06747142 0.0675258 0.06763579
 0.06774139 0.06782121 0.06789627 0.06798093 0.06804756 0.06804256 0.06794588 0.0678108 0.0677194 0.06769893
 0.06771408 0.06773909 0.06779435 0.06789768 0.06801506 0.068087 0.06809424 0.06807573 0.06807564 0.06808703
 0.06806471 0.06798781 0.06788789 0.06781346 0.0677845 0.06778625 0.06779119 0.06777965 0.06774668 0.06769797
 0.06764095 0.06757867 0.06750999 0.06743892 0.06738736 0.06738965 0.06745639 0.06754214 0.06756684 0.06748523
 0.06733303 0.0671946 0.06712116 0.06708757 0.06703213 0.06692718 0.06679899 0.0666884 0.06661178 0.06655949
 0.0665133 0.06645995 0.06640376 0.06637575 0.0664148 0.06652176 0.06663789 0.06668967 0.06665785 0.06658949
 0.06654347 0.06653991 0.06656113 0.06658539 0.0666154 0.06667618 0.06677741 0.06688236 0.06693831 0.06694044
 0.06693908 0.06698132 0.06707472 0.06720497 0.06734952 0.06746934 0.06752867 0.0675372 0.06754532 0.06758699
 0.06765118 0.0677162 0.06778567 0.06787564 0.06798485 0.06809914 0.06821938 0.06836829 0.06856548 0.06880169
 0.06903811 0.0692313 0.06936869 0.06948689 0.06964779 0.06988661 0.07018223 0.07047911 0.07073542 0.07095132
 0.07115486 0.07136414 0.07157214 0.07177541 0.0720012 0.07228213 0.07260984 0.07293978 0.07324187 0.07352472
 0.07381043 0.07410772 0.07441279 0.07472119 0.07503316 0.0753506 0.07566711 0.07596349 0.07622291 0.07645176
 0.07667723 0.07692643 0.07721142 0.07751936 0.07780692 0.07802615 0.07817943 0.07833182 0.07854117 0.07879003
 0.07901836 0.07921257 0.07942255 0.07968794 0.07998341 0.0802528 0.08047394 0.08067293 0.08088578 0.08111819
 0.08133951 0.08151281 0.08163422 0.08173946 0.08186668 0.08202626 0.08221693 0.08245152 0.08273801 0.08304554
 0.0833191 0.08352676 0.0836733 0.08377758 0.08386195 0.08395498 0.0840769 0.08422166 0.08436555 0.08448465
 0.08455972 0.0845881 0.08460468 0.08466608 0.08479624 0.08496942 0.08515923 0.08537479 0.08562569 0.08588096
 0.0861012 0.08629835 0.08652198 0.08678097 0.0870156 0.08716354 0.08722295 0.08723056 0.08720917 0.08716974
 0.08714178 0.08715659 0.0872003 0.08721353 0.08713955 0.08695523 0.08666164 0.08627105 0.08581254 0.08533998
 0.08492701 0.08465134 0.08457626 0.08473699 0.08513328 0.08572202 0.08641443 0.08709688 0.08767292 0.08808829
 0.08831985 0.08836196 0.08823882 0.08800819 0.08771887 0.08735922 0.08686455 0.08617659 0.08528125 0.08419007
 0.08290792 0.08143561 0.07980151 0.07808241 0.07638916 0.07483047 0.07348964 0.07243448 0.07173553 0.07144858
 0.07155891 0.07193846 0.07236408 0.07258779 0.07241489 0.07175511 0.07063335 0.06915784 0.06746543 0.06568176
 0.06391111 0.06223355 0.060697 0.059329 0.05817704 0.05733444 0.05691584 0.05700973 0.05765356 0.05883001
 0.06046078 0.06240576 0.06449336 0.06657311 0.06855099 0.07038715 0.0720765 0.07363778 0.07510614 0.07651322
 0.0778674 0.07915864 0.08037947 0.08153015 0.08260404 0.08357587 0.08440104 0.08502107 0.08538157 0.08546222
 0.08529634 0.08496423 0.08456694 0.08418101 0.08379808 0.08329663 0.08249826 0.08127965 0.07964836 0.07773849
 0.07576305 0.07397478 0.07265386 0.07210675 0.07262942 0.074397 0.0773286 0.08105111 0.08502479 0.08875151
 0.09192927 0.09448613 0.096516 0.09817656 0.09960521 0.1008835 0.1020434 0.1030903 0.104023 0.1048475
 0.1055819 0.1062543 0.1068929 0.1075125 0.1081058 0.1086536 0.1091488 0.1096102 0.1100705 0.1105503
 0.1110431 0.111526 0.1119861 0.1124297 0.1128614 0.1132664 0.1136279 0.1139566 0.1142843 0.1146348
 0.1150124 0.1154102 0.1158109 0.116186 0.1165124 0.1167929 0.1170515 0.1173113 0.1175838 0.1178708
 0.118165 0.1184523 0.1187213 0.1189779 0.1192409 0.1195191 0.1197937 0.1200341 0.1202324 0.1204127
 0.120604 0.1208113 0.1210183 0.1212111 0.1213957 0.1215956 0.1218334 0.1221105 0.1224013 0.1226695
 0.1228955 0.1230889 0.123277 0.1234807 0.1237014 0.1239282 0.1241518 0.1243714 0.1245906 0.1248115
 0.1250308 0.125242 0.1254431 0.1256398 0.1258382 0.1260376 0.1262346 0.1264303 0.1266288 0.1268334
 0.1270456 0.1272632 0.1274758 0.1276702 0.1278434 0.1280063 0.1281719 0.1283448 0.1285241 0.1287108
 0.1289092 0.1291219 0.1293448 0.1295694 0.1297892 0.1300041 0.1302177 0.1304332 0.1306498 0.1308631
 0.1310687 0.131268 0.131469 0.131679 0.1318988 0.1321233 0.1323458 0.1325612 0.1327684 0.1329719
 0.1331778 0.1333883 0.133602 0.1338171 0.1340325 0.1342469 0.1344568 0.1346579 0.134849 0.1350371
 0.1352326 0.1354403 0.1356556 0.1358698 0.1360781 0.1362827 0.1364919 0.1367114 0.136938 0.1371617
 0.1373754 0.1375788 0.1377769 0.1379767 0.1381818 0.1383905 0.1385976 0.1387996 0.1389954 0.1391874
 0.1393813 0.1395813 0.1397848 0.1399857 0.1401812 0.1403744 0.1405709 0.1407754 0.1409886 0.1412067
 0.1414241 0.1416375 0.1418467 0.1420532 0.142258 0.1424594 0.1426558 0.1428517 0.1430558 0.1432707
 0.1434916 0.1437137 0.1439346 0.1441513 0.1443591 0.1445548 0.1447396 0.1449212 0.1451104 0.1453103
 0.145515 0.1457206 0.145929 0.1461388 0.1463439 0.1465446 0.1467469 0.1469537 0.1471635 0.1473748
 0.1475862 0.1477973 0.1480111 0.1482301 0.1484501 0.1486667 0.1488807 0.1490948 0.1493114 0.1495347
 0.1497657 0.1499998 0.1502336 0.1504678 0.1506997 0.150924 0.1511407 0.1513538 0.1515648 0.1517756
 0.1519903 0.1522095 0.1524304 0.1526507 0.1528673 0.1530778 0.1532865 0.1534984 0.1537069 0.1539051
 0.1541002 0.1543032 0.1545129 0.1547232 0.1549342 0.1551491 0.1553697 0.1555964 0.1558234 0.1560411
 0.1562493 0.156457 0.1566691 0.1568854 0.1571039 0.1573172 0.1575188 0.1577156 0.1579152 0.1581012
 0.1582298 0.1582084 0.1578085 0.1565643 0.1537566 0.148555 0.1403425 0.129094 0.1155163 0.1008022
 0.08619285 0.07265112 0.06075683 0.05077233 0.04276556 0.0366933 0.03245152 0.02995244 0.02920473 0.03040311
 0.03403325 0.04058596 0.04946304 0.05800854 0.06254067 0.06125302 0.05593713 0.05034958 0.04709297 0.04635644
 0.04702899 0.04815845 0.04944811 0.05108333 0.05336677 0.05636841 0.05992132 0.06400799 0.06894433 0.07497361
 0.08178367 0.08864206 0.09503309 0.1010592 0.1071877 0.1136787 0.1203125 0.1266106 0.1322176 0.1370685
 0.1413072 0.1451308 0.1486841 0.1520428 0.1552459 0.1582923 0.1610763 0.1633609 0.1648924 0.1655924
 0.1656498 0.165416 0.1651975 0.1651337 0.165234 0.1654732 0.1658369 0.1663158 0.1668978 0.1675623
 0.1682764 0.1690067 0.1697348 0.1704517 0.1711438 0.1717932 0.1723859 0.1729172 0.1733951 0.1738376
 0.174257 0.1746516 0.175017 0.1753581 0.1756829 0.1759967 0.1763017 0.176596 0.176873 0.1771295
 0.1773695 0.1775967 0.1778111 0.1780148 0.1782122 0.1784054 0.1785952 0.1787852 0.1789788 0.1791766
 0.1793787 0.1795849 0.1797893 0.1799829 0.1801645 0.1803426 0.1805247 0.1807091 0.1808882 0.181058
 0.181225 0.1814032 0.1815999 0.1818079 0.1820114 0.1821996 0.1823758 0.1825531 0.182739 0.1829268
 0.1831072 0.1832863 0.1834788 0.1836877 0.1839033 0.1841171 0.1843252 0.1845234 0.1847136 0.1849059
 0.1851022 0.185288 0.1854522 0.1856071 0.1857829 0.1859985 0.1862409 0.186473 0.1866688 0.1868365
 0.1870018 0.1871764 0.1873513 0.1875135 0.1876652 0.1878295 0.1880305 0.1882607 0.1884859 0.1886901
 0.1888924 0.1891118 0.1893444 0.1895809 0.1898125 0.190015 0.190163 0.1902712 0.1904015 0.1906147
 0.1909127 0.1912318 0.1915036 0.1917188 0.1919196 0.1921464 0.1924092 0.1926779 0.1928704 0.1929041
 0.1928218 0.1928142 0.193051 0.1935152 0.1940445 0.1944976 0.1948393 0.195105 0.195333 0.1955247
 0.1956456 0.1956688 0.1956358 0.1956714 0.1958999 0.1963221 0.1968049 0.1972142 0.1975158 0.1977371
 0.1979074 0.1980536 0.1981565 0.198096 0.1977827 0.1973934 0.1973284 0.1978226 0.198679 0.1994794
 0.2 0.2003221 0.2005922 0.200836 0.2010199 0.2010876 0.2008483 0.2000786 0.1989569 0.1982016
 0.1984736 0.1997055 0.2012195 0.2024101 0.2031224 0.2034973 0.2037176 0.2038917 0.2039724 0.2037472
 0.2030797 0.2022487 0.2018867 0.2023945 0.2034881 0.2045026 0.2050714 0.2053195 0.205511 0.2057516
 0.2059162 0.2056075 0.2043811 0.2024044 0.2007893 0.2008094 0.2026544 0.2052024 0.2071321 0.2080581
 0.2084244 0.2085313 0.2080899 0.2067381 0.2045852 0.2021634 0.2002636 0.1998249 0.20131 0.2039346
 0.2061171 0.2070401 0.2073343 0.2080324 0.2093342 0.210624 0.2112721 0.2111206 0.2103668 0.2092111
 0.2077631 0.206375 0.2058424 0.206838 0.2090952 0.211505 0.2131477 0.2139894 0.2143917 0.2140332
 0.2117026 0.2067543 0.2009185 0.19782 0.199782 0.2053955 0.2110293 0.2143982 0.2158167 0.2164955
 0.2169202 0.2167161 0.2148601 0.2102312 0.2033662 0.1975792 0.1967235 0.2013769 0.2081896 0.2130168
 0.213753 0.210559 0.2051102 0.2000911 0.1981025 0.2000902 0.2049323 0.2105491 0.215151 0.217728
 0.21804 0.2165239 0.2142664 0.2127425 0.2127517 0.2132457 0.2121188 0.2088626 0.2053991 0.2032485
 0.2011669 0.1974489 0.1936827 0.1937096 0.1986374 0.2049952 0.2086359 0.208936 0.2080503 0.2069663
 0.2037972 0.1964832 0.1866706 0.1797852 0.1802726 0.1869586 0.19406 0.1967832 0.1950599 0.1918953
 0.1892777 0.1862353 0.1804291 0.1714068 0.1621547 0.1567428 0.1562599 0.1580284 0.1589227 0.1578655
 0.1547664 0.1495947 0.144261 0.1432952 0.1499067 0.1619465 0.1735366 0.1798772 0.1789953 0.1707106
 0.1573444 0.1451548 0.1413209 0.1475704 0.1581869 0.1653437 0.1653413 0.1592289 0.1494569 0.1382117
 0.1285914 0.1249036 0.1300396 0.1425648 0.1567207 0.16525 0.1633918 0.1526249 0.1411055 0.1377979
 0.1442616 0.1535248 0.1578946 0.1559722 0.1515566 0.1487629 0.1496459 0.1538855 0.15913 0.1631732
 0.1657169 0.1659521 0.1601825 0.1462769 0.1296791 0.119875 0.12054 0.127594 0.136782 0.147512
 0.1579768 0.1625131 0.1579583 0.149623 0.1468079 0.1529466 0.1626667 0.1684095 0.1679522 0.1648492
 0.1629279 0.1621927 0.1607335 0.1591601 0.1607681 0.1669912 0.1748894 0.1804042 0.1825503 0.1830862
 0.1834638 0.1837065 0.183427 0.1824809 0.180897 0.1789783 0.1772065 0.1756481 0.1738315 0.1713412
 0.167874 0.1625072 0.1540116 0.1429819 0.1330082 0.128041 0.1284664 0.1313884 0.1347125 0.1382321
 0.1399243 0.1350026 0.12194 0.1073789 0.1013123 0.1074533 0.1204409 0.1319396 0.137043 0.1347642
 0.1255963 0.1115683 0.09805962 0.0922027 0.09742114 0.110555 0.1254933 0.1383344 0.1478464 0.1528786
 0.1521305 0.1464746 0.1397403 0.1365158 0.1393958 0.1478064 0.1581616 0.1647653 0.1626073 0.1523918
 0.1428813 0.1444578 0.1581736 0.1739519 0.181887 0.1822987 0.1817863 0.1829476 0.1830235 0.1810997
 0.1810441 0.1860503 0.1937818 0.1986728 0.1969443 0.1881413 0.1742558 0.1597294 0.1504305 0.1492936
 0.1533056 0.1570101 0.1578784 0.1559046 0.1503429 0.1414283 0.1342149 0.1354282 0.1455807 0.1579071
 0.1660566 0.1699152 0.172856 0.1757994 0.1759898 0.1711235 0.1632526 0.1575974 0.157484 0.1614784
 0.1659064 0.1686839 0.1694585 0.1675731 0.1624564 0.1560735 0.1528554 0.155929 0.1639815 0.1725429
 0.1779851 0.1797733 0.1794507 0.1785579 0.1775589 0.1759566 0.1733681 0.1709295 0.1710652 0.1748972
 0.1804204 0.1845131 0.186459 0.1881979 0.1912182 0.1945086 0.1958929 0.1945654 0.1919516 0.1904803
 0.1916393 0.1948098 0.1977122 0.1982717 0.1965291 0.1947853 0.1955129 0.1990214 0.2034235 0.2067547
 0.208572 0.2095691 0.2104228 0.2112104 0.2113583 0.2100827 0.2074853 0.2052082 0.205272 0.2080694
 0.2119858 0.2150562 0.216538 0.2168408 0.2165014 0.2156194 0.2141471 0.2123799 0.210951 0.2103497
 0.2105712 0.2112592 0.2120459 0.2127046 0.2131437 0.2133936 0.2135541 0.2136916 0.2138148 0.213931
 0.2140424 0.2140862 0.2139759 0.2137329 0.2135044 0.2134019 0.2133745 0.2132864 0.2130707 0.2127325
 0.2122359 0.2114938 0.2104845 0.2092864 0.2079604 0.2064908 0.204946 0.2036674 0.2031726 0.2037745
 0.2052901 0.2071452 0.2087553 0.2098151 0.2103166 0.2104216 0.2103474 0.2102783 0.2102953 0.2103671
 0.2104163 0.210393 0.2102936 0.2101419 0.2099697 0.2098086 0.2096802 0.209578 0.209457 0.2092561
 0.2089454 0.2085542 0.2081448 0.207756 0.2073737 0.2069513 0.2064471 0.2058385 0.2051141 0.2042711
 0.2033264 0.2023197 0.2012962 0.200289 0.1993144 0.1983675 0.1974069 0.1963601 0.1951783 0.193903
 0.1926555 0.1915426 0.1905793 0.1897104 0.1888808 0.1880635 0.1872444 0.1864222 0.1856251 0.1849002
 0.1842718 0.1837185 0.1831852 0.1826114 0.1819527 0.1811876 0.1803089 0.179314 0.1782119 0.1770296
 0.1757902 0.1744717 0.1729901 0.1712234 0.1690528 0.1663943 0.1632195 0.1595669 0.1555446 0.1513161
 0.1470648 0.142953 0.1391113 0.1356618 0.1327302 0.1304127 0.1287314 0.1276384 0.1270692 0.1269923
 0.1274171 0.1283645 0.1298277 0.1317495 0.1340244 0.1365146 0.1390671 0.1415334 0.1438093 0.1458753
 0.1477866 0.1496021 0.1513226 0.1529079 0.1543387 0.1556318 0.1568015 0.157836 0.1587206 0.159462
 0.1600859 0.1606251 0.1611144 0.1615793 0.1620177 0.1623972 0.1626796 0.1628558 0.1629649 0.1630834
 0.1632862 0.1636063 0.1640231 0.1644934 0.1649988 0.1655606 0.1662106 0.1669581 0.1677956 0.1687235
 0.1697485 0.1708615 0.1720376 0.1732614 0.1745416 0.175892 0.1773067 0.1787543 0.1801873 0.1815491
 0.1827808 0.1838335 0.1846829 0.1853323 0.1858045 0.1861332 0.1863497 0.1864676 0.1864825 0.1863945
 0.1862269 0.1860168 0.1857914 0.1855558 0.1852908 0.1849573 0.1845146 0.1839461 0.1832621 0.1824878
 0.1816726 0.1809193 0.1803711 0.1801285 0.1801644 0.1803314 0.1804596 0.1804566 0.180329 0.1801335
 0.1799225 0.179716 0.179497 0.1792183 0.1788265 0.1782908 0.1776139 0.1768191 0.1759313 0.1749654
 0.1739229 0.1727917 0.1715526 0.1701932 0.1687195 0.1671487 0.1654915 0.1637567 0.1619805 0.1602366
 0.1585974 0.157089 0.155691 0.1543714 0.1531087 0.1518834 0.1506632 0.1494169 0.1481574 0.146965
 0.1459391 0.1451193 0.1444612 0.1438836 0.1433209 0.1427477 0.1421815 0.1416657 0.1412345 0.1408919
 0.14062 0.1403951 0.1402064 0.1400706 0.1400182 0.1400492 0.1401141 0.1401452 0.1400937 0.1399451
 0.1397246 0.1394858 0.139277 0.1391186 0.1390103 0.1389336 0.1388398 0.1386515 0.1382831 0.1376596
 0.1367386 0.1355309 0.1341014 0.1325548 0.1310236 0.1296381 0.1284814 0.1275736 0.1268924 0.1263848
 0.1259755 0.1256078 0.1252835 0.1250584 0.1250001 0.1251238 0.1253389 0.12549 0.125499 0.1254504
 0.1255123 0.1258 0.126316 0.1269681 0.1276267 0.128196 0.1286372 0.1289358 0.1290908 0.1291353
 0.1291097 0.1290129 0.1288208 0.1285389 0.1281989 0.1278287 0.1274386 0.127012 0.1265134 0.1259267
 0.1252626 0.12452 0.1236844 0.1227524 0.1217048 0.1204988 0.119167 0.1178922 0.1169153 0.1163801
 0.1162622 0.11639 0.1165531 0.1166422 0.1166377 0.1164583 0.1159998 0.1154505 0.1154178 0.1165105
 0.1187532 0.1214959 0.1239216 0.1255853 0.1264799 0.126761 0.1265618 0.1259725 0.125004 0.1235908
 0.1217293 0.1195447 0.1171779 0.1147364 0.1123688 0.1102332 0.1084028 0.106896 0.1057257 0.104933
 0.1046203 0.104468 0.102888 0.09784108 0.08998401 0.08410514 0.08512388 0.09257057 0.1008946 0.1053276
 0.1056858 0.1044524 0.1033476 0.1026302 0.1022281 0.102291 0.1029415 0.1040483 0.1052632 0.1062334
 0.1068143 0.1070386 0.1068755 0.1060361 0.1039161 0.09979172 0.09340089 0.08548205 0.07754382 0.07098041
 0.06642343 0.06375153 0.06241071 0.0617373 0.06127436 0.06098033 0.06113683 0.06202479 0.06369171 0.06599872
 0.06877062 0.07178658 0.07469754 0.07715312 0.07905403 0.0805494 0.08176339 0.08264587 0.08309938 0.08312833
 0.08283094 0.08232726 0.08172201 0.08107501 0.08036181 0.07949525 0.07845739 0.07741801 0.07664418 0.07626086
 0.0761666 0.07619043 0.07623558 0.07626443 0.07625776 0.07622495 0.07619848 0.07622312 0.07637309 0.07671662
 0.07721856 0.07772654 0.07808711 0.07826158 0.07832736 0.07835053 0.07824561 0.07785276 0.07722145 0.07665634
 0.07631698 0.07593247 0.07515346 0.07408919 0.07325207 0.07300223 0.07323411 0.07358436 0.07377058 0.07371902
 0.07354606 0.07350646 0.07382092 0.07440586</values></Ydata></ScSm><ScRf><Ydata ylabel="Single channel"><values byteorder="INTEL" format="FLOAT32" numvalues="1820"> 0.06049192 0.06064382 0.06073734 0.06077389 0.06077937 0.06079853 0.06087448 0.06102119 0.06121325 0.06139938
 0.06153265 0.06159776 0.06160685 0.06157244 0.06150898 0.06146368 0.06150664 0.06166447 0.06187776 0.06203947
 0.062079 0.06202367 0.06198308 0.06204284 0.06215039 0.06212967 0.06184675 0.06136441 0.06090271 0.06063539
 0.06058016 0.06072975 0.0611634 0.06183718 0.06234372 0.06220114 0.06145583 0.06071796 0.06048192 0.06065063
 0.06081723 0.06073825 0.06041183 0.05998804 0.05981047 0.06032057 0.06162297 0.06313069 0.06377741 0.06268883
 0.0598066 0.05608775 0.05315193 0.05241215 0.05407932 0.05687781 0.05900126 0.05955205 0.05897378 0.05814181
 0.05742177 0.05677429 0.05636083 0.05658506 0.05753491 0.05859665 0.05876675 0.05751172 0.05540614 0.05372585
 0.0532814 0.05390844 0.05515248 0.05676379 0.05800192 0.0572403 0.05356713 0.04881086 0.04672524 0.04942202
 0.05511937 0.0598865 0.06114061 0.05909339 0.05561104 0.0526652 0.05158469 0.05269574 0.05527157 0.05814041
 0.0603954 0.06142522 0.06075171 0.05845059 0.05556134 0.05358039 0.05354236 0.05561909 0.05908138 0.06235702
 0.06374464 0.06267309 0.06008236 0.05743009 0.05573384 0.05557183 0.05721893 0.06035855 0.06407028 0.06736556
 0.06958881 0.07047848 0.07022373 0.06935146 0.06832765 0.06746767 0.06720661 0.06783649 0.06879432 0.06887506
 0.06754279 0.06565175 0.06457068 0.06476958 0.06544518 0.06549604 0.06463617 0.06321359 0.0611196 0.05777309
 0.05345513 0.04965868 0.04759514 0.04727488 0.04840366 0.05085315 0.05360175 0.05466689 0.05327266 0.05124029
 0.05117744 0.05369586 0.05709311 0.05943635 0.06035324 0.06090409 0.06221014 0.0643032 0.06598221 0.06572334
 0.06319645 0.06011377 0.05902022 0.06079451 0.06380176 0.0659 0.0666973 0.06731036 0.06841524 0.06919965
 0.06821132 0.06508568 0.06146727 0.05998848 0.06197572 0.06612286 0.06943712 0.06944692 0.06586631 0.06066991
 0.05655655 0.0550762 0.05621415 0.05942681 0.06424186 0.06971201 0.07416274 0.07612678 0.07540858 0.07301459
 0.07000327 0.06650239 0.06224759 0.05820493 0.0567791 0.05954032 0.06521105 0.07072945 0.07398352 0.07486427
 0.07406712 0.07178004 0.06789042 0.06327331 0.06021506 0.0606329 0.06376332 0.06659402 0.0670188 0.06575869
 0.06481371 0.06497021 0.06550682 0.06573078 0.0659745 0.06703497 0.06903332 0.0711153 0.07227536 0.0722675
 0.07164852 0.07113054 0.07093306 0.07062189 0.06972387 0.06867613 0.06876983 0.07073285 0.073725 0.07620142
 0.07746188 0.07790136 0.0779701 0.07738047 0.0755184 0.07259211 0.07010273 0.06973171 0.07171455 0.07468952
 0.07711285 0.07837339 0.07865284 0.07836175 0.07785781 0.07733397 0.07688318 0.07674499 0.0772417 0.07831436
 0.07942197 0.08008267 0.08026487 0.08014026 0.07974398 0.07905522 0.07824665 0.07767877 0.07764079 0.07813758
 0.07893804 0.07978059 0.08046104 0.08079135 0.08066771 0.08021888 0.07973349 0.07939886 0.07922953 0.07923886
 0.07950141 0.0799983 0.08054246 0.08093242 0.08111143 0.08113974 0.08107808 0.08094402 0.08075175 0.08056335
 0.08049098 0.08061638 0.08089015 0.08116421 0.08136436 0.08156307 0.08182067 0.08203424 0.08204642 0.08186106
 0.08165333 0.0815803 0.08165342 0.08178635 0.0818902 0.08189063 0.08171389 0.08135039 0.08094798 0.08075963
 0.08094268 0.08144514 0.082095 0.08272304 0.08319257 0.08342838 0.08347432 0.08345117 0.08342078 0.08334193
 0.08317255 0.08297201 0.0828877 0.08304434 0.08343193 0.08390301 0.08429104 0.08451844 0.084604 0.08463177
 0.08471656 0.0849132 0.08513361 0.08522761 0.085168 0.08508943 0.08512326 0.0852477 0.08532894 0.08528416
 0.08517864 0.08515667 0.08528928 0.08551387 0.08572446 0.0858881 0.08605395 0.08626217 0.08646106 0.08653105
 0.0864127 0.08619535 0.08603431 0.08599067 0.0860121 0.08606297 0.08618611 0.08640561 0.08663964 0.08677007
 0.08677571 0.08674936 0.08678068 0.08685318 0.08687294 0.08678004 0.08660936 0.08645141 0.08637881 0.0864068
 0.08649536 0.0865743 0.08658269 0.08650573 0.08638032 0.08625966 0.0861733 0.08613117 0.08616184 0.08630975
 0.08656296 0.08680107 0.08686426 0.08669823 0.08641593 0.08619694 0.08612473 0.08612721 0.08606954 0.08588815
 0.08563099 0.08538873 0.08521189 0.08509146 0.08499362 0.08490115 0.08483547 0.08484682 0.08496267 0.08512601
 0.08520576 0.08510433 0.08485356 0.08458142 0.08439462 0.08431518 0.08430642 0.0843199 0.08433057 0.08435655
 0.08442769 0.08451769 0.08454622 0.08447428 0.08436071 0.08430319 0.08435935 0.08452837 0.08475187 0.08492123
 0.08494694 0.08484998 0.08474621 0.08472646 0.08478539 0.08487059 0.08495477 0.08503959 0.08512458 0.08520731
 0.0853062 0.08545753 0.08567974 0.08594526 0.08619156 0.08636438 0.08646217 0.08654629 0.08670025 0.08696379
 0.08729961 0.08762506 0.08787985 0.08806831 0.08823895 0.08842622 0.0886232 0.08881858 0.08903763 0.0893165
 0.08964574 0.08997314 0.0902632 0.09052713 0.09079343 0.09107429 0.09136778 0.09168114 0.09204043 0.09246443
 0.09291784 0.09330871 0.093562 0.09369633 0.09381361 0.09401828 0.09434675 0.09474222 0.09508155 0.09526774
 0.09533145 0.09541304 0.09561259 0.09588826 0.09613967 0.09635895 0.09664112 0.09704819 0.09751432 0.09790598
 0.09815346 0.09830581 0.09846339 0.09866877 0.09887175 0.09900443 0.09907355 0.09915136 0.09928404 0.09945637
 0.09965888 0.0999333 0.100309 0.100732 0.1011049 0.1013781 0.1015676 0.1017065 0.1018159 0.1019049
 0.1019684 0.1020022 0.1020333 0.1021056 0.1022163 0.1023059 0.1023364 0.1023468 0.1024056 0.1025417
 0.1027482 0.1030169 0.1033286 0.1036348 0.1039008 0.1041642 0.1044978 0.1048947 0.1052379 0.1054213
 0.1054661 0.1054747 0.1055026 0.1055385 0.105592 0.1057244 0.1059749 0.1063076 0.1066571 0.106995
 0.1073318 0.1076733 0.1079905 0.1082281 0.1083436 0.1083461 0.1083012 0.1082959 0.1083964 0.10862
 0.108929 0.109254 0.1095362 0.1097447 0.1098578 0.1098618 0.1097949 0.109761 0.1098492 0.1100336
 0.1101847 0.1101808 0.1099866 0.1096276 0.1091299 0.108512 0.1078207 0.107145 0.1065806 0.1061833
 0.105966 0.1059405 0.1061412 0.1065852 0.1072145 0.1079093 0.1085575 0.109083 0.109407 0.1094371
 0.1091316 0.1085531 0.1078319 0.1070889 0.1063993 0.1057863 0.1052209 0.1046613 0.1041396 0.103803
 0.103844 0.1043846 0.1054159 0.1068068 0.1083455 0.1098049 0.1110319 0.1120039 0.1128013 0.1135172
 0.1141966 0.1148522 0.1155038 0.1161648 0.1168035 0.1173644 0.1178342 0.118255 0.1186666 0.1190634
 0.1194127 0.1196912 0.1199063 0.1200958 0.1202949 0.1204851 0.1205977 0.1205895 0.1204923 0.1203699
 0.1202447 0.1200826 0.1198317 0.1194681 0.11903 0.1186362 0.1184651 0.1186836 0.1193567 0.1204059
 0.1216627 0.1229743 0.1242488 0.1254095 0.1263604 0.127038 0.1274746 0.1277738 0.1280332 0.1283027
 0.1285945 0.1289015 0.1292083 0.1295035 0.1297872 0.1300721 0.1303783 0.1307158 0.1310628 0.1313724
 0.1316179 0.1318311 0.132083 0.1324194 0.1328158 0.1332009 0.1335316 0.1338318 0.1341441 0.1344589
 0.1347239 0.1349178 0.1350825 0.1352808 0.13555 0.1358892 0.1362582 0.1365879 0.1368287 0.1369963
 0.1371527 0.137344 0.137574 0.1378284 0.1380966 0.1383688 0.1386342 0.138894 0.1391655 0.1394598
 0.1397547 0.1400032 0.1401802 0.1403151 0.1404666 0.1406653 0.1408915 0.1411074 0.1413027 0.1415083
 0.1417653 0.1420779 0.1423964 0.142655 0.1428273 0.1429411 0.143048 0.1431878 0.1433753 0.1435995
 0.1438318 0.1440458 0.1442389 0.1444297 0.144636 0.1448571 0.1450798 0.1452935 0.145498 0.1456983
 0.1458982 0.1460996 0.1463104 0.1465507 0.1468383 0.1471601 0.1474656 0.1477045 0.1478698 0.1479945
 0.1481155 0.1482514 0.1484088 0.1485886 0.1487842 0.1489845 0.1491825 0.1493783 0.149575 0.1497756
 0.1499809 0.1501879 0.1503934 0.1506002 0.1508177 0.1510526 0.1512995 0.1515421 0.1517627 0.1519545
 0.1521271 0.1523014 0.1524942 0.1527041 0.1529131 0.1531048 0.1532803 0.1534541 0.1536368 0.153828
 0.1540221 0.1542151 0.1544076 0.1546016 0.1547966 0.1549892 0.1551781 0.1553667 0.1555598 0.1557597
 0.155966 0.1561766 0.1563879 0.1565958 0.1567983 0.1569957 0.1571924 0.157395 0.1576049 0.1578133
 0.1580101 0.1581961 0.1583822 0.1585771 0.1587783 0.1589768 0.1591665 0.1593506 0.1595371 0.1597299
 0.159929 0.160135 0.1603478 0.1605639 0.1607809 0.161 0.16122 0.1614336 0.1616356 0.1618301
 0.1620266 0.1622319 0.1624466 0.162668 0.1628959 0.1631318 0.1633702 0.1635965 0.1637987 0.163977
 0.164141 0.1643017 0.1644664 0.1646336 0.1647994 0.1649675 0.1651477 0.1653422 0.1655455 0.1657532
 0.1659619 0.1661656 0.1663618 0.1665551 0.1667496 0.1669457 0.1671467 0.1673567 0.1675708 0.1677804
 0.1679843 0.1681871 0.1683918 0.1685991 0.1688083 0.1690163 0.1692213 0.1694256 0.1696336 0.169848
 0.1700674 0.1702837 0.1704889 0.1706867 0.1708888 0.1710987 0.1713107 0.1715211 0.17173 0.1719391
 0.1721527 0.1723734 0.1725942 0.1728052 0.1730044 0.1731963 0.1733894 0.1735978 0.1738263 0.1740582
 0.1742736 0.1744747 0.1746759 0.1748827 0.175094 0.1753092 0.1755261 0.175742 0.1759572 0.176169
 0.1763749 0.1765831 0.1767997 0.1770039 0.1771411 0.1770958 0.1766031 0.1751457 0.1719278 0.1660208
 0.1567255 0.1440112 0.1286821 0.1120928 0.09564409 0.08041358 0.06704667 0.05583595 0.04685717 0.04005918
 0.03532106 0.03253914 0.03171675 0.03306759 0.0371374 0.04448078 0.05442629 0.06398905 0.06903856 0.0675614
 0.06158563 0.05533019 0.05169971 0.0508881 0.05164645 0.0529159 0.05436691 0.05620018 0.05875002 0.0621008
 0.06607631 0.0706622 0.07620746 0.08297406 0.09060512 0.09827954 0.1054209 0.1121437 0.1189749 0.1262171
 0.1336338 0.1406874 0.1469673 0.1523908 0.1571219 0.1613912 0.1653668 0.1691287 0.1727107 0.1761074
 0.179204 0.1817431 0.1834453 0.1842236 0.1842874 0.1840248 0.1837721 0.1836841 0.1837792 0.184039
 0.1844457 0.1849762 0.1856067 0.1863179 0.1870851 0.187878 0.1886734 0.1894551 0.1902084 0.1909215
 0.1915853 0.1921899 0.1927314 0.1932189 0.1936647 0.1940743 0.1944548 0.1948187 0.1951756 0.1955264
 0.1958686 0.1961958 0.1964969 0.1967644 0.1970024 0.1972238 0.197444 0.197673 0.1979062 0.1981282
 0.1983328 0.1985309 0.1987338 0.1989406 0.1991443 0.1993442 0.1995462 0.199756 0.1999713 0.2001815
 0.2003774 0.2005609 0.2007393 0.2009178 0.2011002 0.2012907 0.2014887 0.2016887 0.201887 0.2020856
 0.2022868 0.2024915 0.2026977 0.2028992 0.2030929 0.2032871 0.2034944 0.2037154 0.2039396 0.20416
 0.2043751 0.2045847 0.2047918 0.2050002 0.2052012 0.2053743 0.2055122 0.2056394 0.2057954 0.2060018
 0.2062442 0.2064876 0.2067084 0.2069092 0.2071031 0.2072956 0.2074829 0.2076591 0.2078266 0.2080082
 0.2082333 0.2084995 0.2087679 0.2090092 0.2092316 0.2094534 0.2096813 0.2099199 0.2101683 0.2103992
 0.2105768 0.210708 0.2108585 0.2111 0.2114408 0.2118115 0.2121292 0.2123723 0.2125812 0.2128037
 0.2130619 0.2133349 0.2135386 0.2135832 0.2135126 0.2135288 0.2138065 0.2143166 0.2148814 0.215358
 0.2157211 0.2160135 0.2162714 0.216489 0.2166255 0.2166524 0.2166214 0.2166782 0.2169616 0.2174583
 0.2179987 0.2184254 0.2187172 0.2189323 0.219116 0.2192881 0.2194077 0.2193302 0.2189598 0.2185068
 0.2184265 0.2189758 0.21992 0.220782 0.2213163 0.2216304 0.2219068 0.2221828 0.2224094 0.2224982
 0.222216 0.2213126 0.2200053 0.2191188 0.2194059 0.2207879 0.2224878 0.2238097 0.2245809 0.2249777
 0.2252231 0.2254384 0.2255528 0.2253098 0.2245531 0.2236069 0.2231918 0.2237574 0.2249774 0.2261027
 0.2267281 0.2270012 0.2272174 0.2274912 0.2276812 0.2273432 0.2259772 0.223767 0.2219556 0.2219689
 0.2240185 0.2268474 0.2289766 0.2299787 0.2303596 0.2304649 0.2299698 0.2284593 0.2260484 0.2233327
 0.221196 0.2206839 0.2223158 0.2252229 0.2276384 0.228637 0.2289165 0.2296445 0.2310667 0.2325002
 0.2332252 0.233048 0.2321845 0.2308625 0.2292118 0.2276356 0.2270275 0.2281309 0.2306373 0.2333076
 0.2351194 0.2360383 0.2364708 0.2360618 0.2334578 0.2279308 0.2214032 0.2179116 0.2200463 0.2262483
 0.2324868 0.2362187 0.2377826 0.2385163 0.2389597 0.2386982 0.2365981 0.2314222 0.2237774 0.2173506
 0.2164166 0.2216032 0.2291803 0.2345495 0.2353804 0.2318506 0.2258142 0.2202526 0.218058 0.2202789
 0.2256652 0.2319063 0.2370186 0.2398872 0.2402514 0.238597 0.236127 0.2344746 0.2345176 0.2350798
 0.2338293 0.2302319 0.2264457 0.2241478 0.2219278 0.2178809 0.2137863 0.2139319 0.2195498 0.226764
 0.2309483 0.231417 0.2305877 0.2295661 0.2262389 0.2183089 0.207647 0.2003718 0.2015015 0.2097457
 0.2186579 0.2229512 0.2227001 0.2214405 0.2214554 0.2214489 0.2183695 0.211396 0.2039631 0.2008764
 0.2031936 0.2072746 0.2090849 0.2074051 0.2024102 0.194387 0.1860682 0.1834536 0.1907442 0.2051975
 0.2192828 0.2268811 0.2255098 0.2149619 0.1981895 0.1831234 0.1788087 0.1872861 0.2010992 0.2101562
 0.2097296 0.2012702 0.1880958 0.1731535 0.1604193 0.1552902 0.1613438 0.1767241 0.1941716 0.2045988
 0.2021002 0.1885826 0.1742383 0.1702014 0.1783643 0.1900459 0.1957162 0.1936532 0.1885467 0.1854854
 0.1870407 0.192822 0.1998746 0.2054541 0.2092126 0.210047 0.2031245 0.1856836 0.164715 0.1523625
 0.1533132 0.1623747 0.1741782 0.1880083 0.2015169 0.2074097 0.2016702 0.1911803 0.1878734 0.1960682
 0.2087738 0.216254 0.215671 0.2116058 0.2089731 0.2077794 0.2055894 0.2032092 0.2048755 0.2124186
 0.2220771 0.2287015 0.2311086 0.2316146 0.2321033 0.2325933 0.2325677 0.2318425 0.2304885 0.2289522
 0.2279171 0.2275346 0.2272826 0.2267587 0.225654 0.2225406 0.2151735 0.2036465 0.1924127 0.1867565
 0.1871821 0.1897687 0.1919917 0.194194 0.1941575 0.1855805 0.1664114 0.1456797 0.1369269 0.1451226
 0.1629655 0.1792018 0.1872422 0.185714 0.175093 0.1579124 0.1414546 0.1354695 0.1442252 0.1624161
 0.1808332 0.1942962 0.2022506 0.2043757 0.1996013 0.189229 0.1781913 0.1722335 0.1744141 0.1837603
 0.1955984 0.2027566 0.1990666 0.1854869 0.1728202 0.1737526 0.1895491 0.2079646 0.217013 0.2171097
 0.2162335 0.2175219 0.2177022 0.2157818 0.2165493 0.2239957 0.2354409 0.2441783 0.2453663 0.2379402
 0.2239966 0.2092862 0.2017158 0.2049757 0.2142827 0.2215316 0.2231118 0.2194258 0.2101136 0.1960825
 0.1845923 0.1848861 0.1974905 0.2130048 0.2227895 0.226833 0.2298353 0.2331079 0.2329831 0.2263751
 0.2159424 0.2084592 0.2081185 0.2128597 0.2178594 0.2206272 0.22103 0.21839 0.211908 0.203956
 0.200115 0.2043124 0.2147264 0.2254614 0.2318016 0.2331556 0.2316712 0.22945 0.2271382 0.2241012
 0.2198267 0.215738 0.2149197 0.2188283 0.2249795 0.229501 0.2315642 0.2336685 0.2377162 0.2424021
 0.2448111 0.2436019 0.2402788 0.2378725 0.2385007 0.2416866 0.2447175 0.2449649 0.2423894 0.2398151
 0.2403291 0.2443368 0.2495153 0.2534547 0.2556162 0.2568235 0.2578491 0.2587411 0.2587875 0.2570533
 0.2537059 0.2507888 0.2507715 0.2540996 0.2587747 0.262424 0.2642179 0.2647288 0.2646202 0.2639536
 0.2625812 0.2607816 0.2592737 0.2586435 0.2589194 0.2597253 0.2606729 0.2615292 0.2621835 0.2626239
 0.2629101 0.263098 0.2632145 0.2633021 0.2633982 0.2634569 0.2633947 0.2632512 0.2632098 0.2633942
 0.2637126 0.2639601 0.2640052 0.2637965 0.2632583 0.2623188 0.2610377 0.259583 0.2580444 0.2563768
 0.2546331 0.253214 0.2527485 0.2536255 0.2556352 0.258094 0.2603098 0.2619296 0.2629393 0.2634789
 0.2637084 0.2637639 0.2637351 0.2636522 0.2635066 0.2632899 0.2630099 0.2626777 0.262301 0.2618999
 0.2615179 0.2611978 0.2609386 0.260686 0.2603692 0.2599497 0.2594408 0.2588894 0.2583309 0.2577536
 0.2571075 0.2563505 0.2554816 0.2545416 0.2535986 0.2527213 0.2519354 0.2512008 0.2504509 0.2496483
 0.2487757 0.2477963 0.2466836 0.2455033 0.2444111 0.2435273 0.242834 0.2422114 0.2415471 0.2407853
 0.2399111 0.2389386 0.2379071 0.2368509 0.2357697 0.2346412 0.2334528 0.2322013 0.2308772 0.229468
 0.2279712 0.2263967 0.2247679 0.2231155 0.2214443 0.2196914 0.2177267 0.2154007 0.2125927 0.2092297
 0.2052964 0.2008541 0.1960503 0.1910903 0.18618 0.1814886 0.1771522 0.1732834 0.1699653 0.1672494
 0.1651729 0.1637698 0.1630632 0.1630606 0.1637568 0.1651252 0.1670979 0.1695591 0.1723587 0.1753326
 0.1783156 0.1811563 0.1837556 0.1861107 0.188301 0.1903949 0.192377 0.1941842 0.1957878 0.1972027
 0.1984353 0.1994708 0.2003117 0.2009989 0.201583 0.202091 0.202525 0.2028849 0.203184 0.2034419
 0.2036712 0.2038788 0.2040749 0.2042733 0.2044851 0.204716 0.2049697 0.2052575 0.2056043 0.2060351
 0.2065475 0.207109 0.2076867 0.2082705 0.2088687 0.209501 0.2102029 0.2110201 0.2119852 0.2130969
 0.2143252 0.2156331 0.2169828 0.218315 0.2195372 0.2205541 0.221314 0.2218186 0.2221008 0.2222031
 0.2221616 0.2219911 0.2216923 0.2212819 0.2208025 0.2202943 0.2197685 0.2192129 0.2186084 0.2179401
 0.2172076 0.216438 0.2156784 0.2149657 0.2143016 0.213662 0.2130291 0.2124053 0.2117993 0.2112109
 0.2106349 0.210068 0.2095065 0.2089442 0.2083758 0.2077914 0.2071624 0.2064436 0.2056045 0.2046531
 0.2036175 0.2025114 0.2013275 0.2000621 0.1987256 0.1973253 0.1958523 0.1942926 0.192645 0.1909157
 0.1891004 0.187182 0.1851649 0.1831064 0.1811015 0.1792288 0.1775142 0.1759387 0.1744635 0.1730532
 0.1716938 0.1703952 0.1691715 0.1680237 0.1669404 0.1659061 0.1649107 0.1639568 0.1630584 0.1622335
 0.1615008 0.1608748 0.1603529 0.1599095 0.1595142 0.1591563 0.158856 0.158658 0.1585953 0.1586427
 0.1587174 0.1587375 0.1586737 0.1585481 0.158406 0.158288 0.15821 0.1581606 0.1581153 0.1580373
 0.1578697 0.1575406 0.1569786 0.1561238 0.154945 0.1534599 0.151736 0.1498816 0.1480373 0.1463445
 0.1449001 0.1437459 0.142881 0.1422528 0.1417661 0.1413493 0.1410074 0.1407998 0.1407845 0.1409631
 0.141236 0.1414431 0.1415093 0.1415289 0.1416764 0.142065 0.1426927 0.1434611 0.1442312 0.1448999
 0.1454285 0.1458025 0.1460203 0.1461215 0.146161 0.1461506 0.1460643 0.1458834 0.1456091 0.1452615
 0.1448757 0.1444649 0.1440044 0.1434759 0.1428806 0.1421964 0.1413906 0.1404648 0.1394212 0.1382366
 0.1369662 0.1358239 0.1350823 0.1349142 0.1353212 0.1361424 0.1371559 0.1382273 0.1392899 0.1401639
 0.1405985 0.1406477 0.1408588 0.1418774 0.1438377 0.1462229 0.1483269 0.1497674 0.1505295 0.1506909
 0.1502951 0.149398 0.1480285 0.1461479 0.1437756 0.1410568 0.1381346 0.1351134 0.1321712 0.1295183
 0.1272623 0.1254284 0.1240169 0.1230559 0.1226601 0.1224646 0.1206059 0.1146744 0.1054281 0.0984799
 0.09958094 0.1081571 0.1177059 0.1226652 0.1228403 0.1211623 0.1196818 0.1187198 0.1181632 0.1181404
 0.1187786 0.1199467 0.1212732 0.1223675 0.1230587 0.123369 0.1232482 0.1223453 0.1199425 0.1151948
 0.1078054 0.098628 0.0893979 0.08172886 0.07636771 0.07318753 0.07155629 0.07072364 0.07018317 0.06989007
 0.07014013 0.07121276 0.07314375 0.07579936 0.07901174 0.08252001 0.08588903 0.08870695 0.09088328 0.09260882
 0.09402364 0.09505817 0.09558922 0.09561293 0.09524089 0.09462234 0.09389552 0.09313583 0.09229395 0.09123737
 0.08994925 0.08867739 0.08777532 0.08737463 0.08730538 0.087331 0.08734196 0.08732791 0.08729571 0.08724759
 0.08718283 0.08713187 0.08719815 0.08748887 0.08797286 0.08847158 0.0888154 0.08898099 0.08906948 0.08913012
 0.08900627 0.08847673 0.0876164 0.08681919 0.08629028 0.0857136 0.0846827 0.0833331 0.08227424 0.08193484
 0.08218504 0.08257802 0.08276306 0.08264846 0.08237487 0.08224879 0.08254447 0.08318935 0.0837253 0.08374128
</values></Ydata></ScRf><Data_Parameters_AB><parameter name="DPF">1</parameter><parameter name="NPT">3497</parameter><parameter name="FXV">3996</parameter><parameter name="LXV">500</parameter><parameter name="CSF">1</parameter><parameter name="MXY">0.262694090604782</parameter><parameter name="MNY">0.0330021232366562</parameter><parameter name="DAT">30/05/2022</parameter><parameter name="TIM">12:02:40.088 (GMT+2)</parameter><parameter name="DXU">WN</parameter></Data_Parameters_AB><AB__Qtest><MainReport name="Quality Test Report"><Header><Line><Legend>Test result ok/not ok [1/0]: </Legend><Value>0</Value></Line><Line><Legend>Method file: </Legend><Value>C:\Users\Public\Documents\Bruker\OPUS_8.2.28\QT\IRBT_v3_default.QT</Value></Line></Header><Matrix><Line><Legend></Legend><Legend>min</Legend><Legend>max</Legend><Legend>measured</Legend></Line><Line><Value>Absorption (X-Range 1):</Value><Value>0.400000</Value><Value>2.000000</Value><Value>0.077731</Value></Line><Line><Value>Noise (X-Range 4):</Value><Value></Value><Value>0.000300</Value><Value>0.000060</Value></Line><Line><Value>Signal/Noise (X-Range 2):</Value><Value>200.000000</Value><Value></Value><Value>20.973067</Value></Line><Line><Value>Signal/Noise (X-Range 3):</Value><Value>40.000000</Value><Value></Value><Value>23.620130</Value></Line><Line><Value>Water vapour (X-Range 5):</Value><Value></Value><Value>0.000300</Value><Value>0.000109</Value></Line><Line><Value>Signal/Water (X-Range 2):</Value><Value>100.000000</Value><Value></Value><Value>11.603317</Value></Line><Line><Value>Signal/Water (X-Range 3):</Value><Value>20.000000</Value><Value></Value><Value>13.067801</Value></Line><Line><Value>Fringes (X-Range 6):</Value><Value></Value><Value>0.000100</Value><Value>0.000055</Value></Line></Matrix></MainReport></AB__Qtest><Data_Parameters_ScSm><parameter name="DPF">1</parameter><parameter name="NPT">1814</parameter><parameter name="FXV">3996.33169228125</parameter><parameter name="LXV">499.541461535156</parameter><parameter name="CSF">1</parameter><parameter name="MXY">0.218040004372597</parameter><parameter name="MNY">0.0292047280818224</parameter><parameter name="DAT">30/05/2022</parameter><parameter name="TIM">12:02:40.088 (GMT+2)</parameter><parameter name="DXU">WN</parameter></Data_Parameters_ScSm><Data_Parameters_ScRf><parameter name="DPF">1</parameter><parameter name="NPT">1820</parameter><parameter name="FXV">4004.04661832813</parameter><parameter name="LXV">495.683998511719</parameter><parameter name="CSF">1</parameter><parameter name="MXY">0.264728844165802</parameter><parameter name="MNY">0.0317167490720749</parameter><parameter name="DAT">30/05/2022</parameter><parameter name="TIM">12:02:13.944 (GMT+2)</parameter><parameter name="DXU">WN</parameter></Data_Parameters_ScRf><Optic_Parameters_Rf><parameter name="APR">0</parameter><parameter name="APT">Open</parameter><parameter name="BMS">KBr</parameter><parameter name="DTC">RT-DLaTGS_IR-Biotyper [Microplate reader]</parameter><parameter name="HPF">0</parameter><parameter name="LPF">10.0</parameter><parameter name="LPV">4000</parameter><parameter name="PGR">0</parameter><parameter name="RCH">Module port</parameter><parameter name="RDX">0</parameter><parameter name="SRC">MIR</parameter><parameter name="VEL">10.0</parameter><parameter name="SON">Off</parameter></Optic_Parameters_Rf><Acquisition_Parameters_Rf><parameter name="ADT">1</parameter><parameter name="AQM">DD</parameter><parameter name="CFE">0</parameter><parameter name="COR">0</parameter><parameter name="DEL">0</parameter><parameter name="DLY">0</parameter><parameter name="HFW">8000</parameter><parameter name="LFW">0</parameter><parameter name="NSR">32</parameter><parameter name="PLF">AB</parameter><parameter name="RES">6</parameter><parameter name="RGN">-1</parameter><parameter name="STR">0</parameter><parameter name="TCL">MakeCompatibleScalar (0, {WSV=1.000000, ARV=0});</parameter><parameter name="TDL">37</parameter><parameter name="RPO">0</parameter></Acquisition_Parameters_Rf><FT_-_Parameters_Rf><parameter name="APF">B3</parameter><parameter name="HFQ">500</parameter><parameter name="LFQ">4000</parameter><parameter name="NLI">0</parameter><parameter name="PHR">24</parameter><parameter name="PHZ">ML</parameter><parameter name="SPZ">NO</parameter><parameter name="ZFF">1</parameter></FT_-_Parameters_Rf><Optic_Parameters_><parameter name="APR">0</parameter><parameter name="APT">Open</parameter><parameter name="BMS">KBr</parameter><parameter name="CHN">Module port</parameter><parameter name="DTC">RT-DLaTGS_IR-Biotyper [Microplate reader]</parameter><parameter name="HPF">0</parameter><parameter name="LPF">10.0</parameter><parameter name="LPV">4000</parameter><parameter name="PGN">0</parameter><parameter name="RDX">0</parameter><parameter name="SRC">MIR</parameter><parameter name="VEL">10.0</parameter><parameter name="SON">Off</parameter></Optic_Parameters_><FT_-_Parameters_><parameter name="APF">B3</parameter><parameter name="HFQ">500</parameter><parameter name="LFQ">4000</parameter><parameter name="NLI">0</parameter><parameter name="PHR">24</parameter><parameter name="PHZ">ML</parameter><parameter name="SPZ">NO</parameter><parameter name="ZFF">1</parameter></FT_-_Parameters_><Acquisition_Parameters_><parameter name="ADT">1</parameter><parameter name="AQM">DD</parameter><parameter name="CFE">0</parameter><parameter name="COR">0</parameter><parameter name="DEL">0</parameter><parameter name="DLY">0</parameter><parameter name="HFW">8000</parameter><parameter name="LFW">0</parameter><parameter name="NSS">32</parameter><parameter name="PLF">AB</parameter><parameter name="RES">6</parameter><parameter name="SOT">0</parameter><parameter name="TCL">MakeCompatibleScalar (0, {WSV=1.000000, ARV=0});</parameter><parameter name="TDL">37</parameter><parameter name="SPO">0</parameter><parameter name="SGN">-1</parameter></Acquisition_Parameters_><Instrument_Parameters_Rf><parameter name="HFL">15800.168544</parameter><parameter name="LFL">0</parameter><parameter name="LWN">15800.168544</parameter><parameter name="ABP">32197</parameter><parameter name="SSP">1</parameter><parameter name="ARG">2</parameter><parameter name="ASG">2</parameter><parameter name="ASS">32</parameter><parameter name="GFW">16</parameter><parameter name="GBW">16</parameter><parameter name="BFW">0</parameter><parameter name="BBW">0</parameter><parameter name="PKA">7291</parameter><parameter name="PKL">4996</parameter><parameter name="PRA">7461</parameter><parameter name="PRL">5001</parameter><parameter name="P2A">1</parameter><parameter name="P2L">1</parameter><parameter name="P2R">1</parameter><parameter name="P2K">1</parameter><parameter name="DAQ">0</parameter><parameter name="AG2">1</parameter><parameter name="SSM">1</parameter><parameter name="RSN">25284</parameter><parameter name="CRR">0</parameter><parameter name="SRT">1653912133.945</parameter><parameter name="DUR">19.6369934082031</parameter><parameter name="TSC">28.1</parameter><parameter name="MVD">0.278611898422241</parameter><parameter name="AN1">0.225798063365705</parameter><parameter name="AN2">0</parameter><parameter name="VSN">2.485 Apr  4 2017</parameter><parameter name="SRN">0085</parameter><parameter name="CAM">0</parameter><parameter name="INS">IR-Biotyper</parameter><parameter name="FOC">69</parameter><parameter name="RDY">1</parameter><parameter name="ARS">32</parameter></Instrument_Parameters_Rf><Sample_Parameters_><parameter name="BLD"></parameter><parameter name="CNM">Admin</parameter><parameter name="CPY"></parameter><parameter name="DPM"></parameter><parameter name="EXP">IRBT_v3_32Scans.XPM</parameter><parameter name="LCT"></parameter><parameter name="SFM">Microplate, HTS-XT</parameter><parameter name="SNM">220530-1021_CLA33F (D_10)_A9_b4fbadc4-8ce2-4f1c-a278-7944d0e983b9.0</parameter><parameter name="XPP">C:\Users\Public\Documents\Bruker\OPUS_8.2.28\XPM</parameter><parameter name="IST">OK</parameter><parameter name="CPG">1252</parameter><parameter name="UID">c05214ae-45a5-4394-b894-935b6d0afb5d</parameter></Sample_Parameters_><Instrument_Parameters_><parameter name="HFL">15800.168544</parameter><parameter name="LFL">0</parameter><parameter name="LWN">15800.168544</parameter><parameter name="ABP">32197</parameter><parameter name="SSP">1</parameter><parameter name="ASG">4</parameter><parameter name="ARG">2</parameter><parameter name="ASS">32</parameter><parameter name="GFW">16</parameter><parameter name="GBW">16</parameter><parameter name="BFW">0</parameter><parameter name="BBW">0</parameter><parameter name="PKA">6127</parameter><parameter name="PKL">4988</parameter><parameter name="PRA">6348</parameter><parameter name="PRL">5002</parameter><parameter name="P2A">1</parameter><parameter name="P2L">1</parameter><parameter name="P2R">1</parameter><parameter name="P2K">1</parameter><parameter name="DAQ">0</parameter><parameter name="AG2">1</parameter><parameter name="SSM">1</parameter><parameter name="RSN">13268</parameter><parameter name="CRR">0</parameter><parameter name="SRT">1653912160.089</parameter><parameter name="DUR">19.6369934082031</parameter><parameter name="TSC">28.1</parameter><parameter name="MVD">0.262068897485733</parameter><parameter name="AN1">0.225805477500598</parameter><parameter name="AN2">0</parameter><parameter name="VSN">2.485 Apr  4 2017</parameter><parameter name="SRN">0085</parameter><parameter name="CAM">0</parameter><parameter name="INS">IR-Biotyper</parameter><parameter name="FOC">69</parameter><parameter name="RDY">1</parameter></Instrument_Parameters_><History/></OPUSDataFile>
