<?xml version="1.0" encoding="UTF-8" ?>
<OPUSDataFile><AB><Ydata ylabel="Absorbance Units"><values byteorder="INTEL" format="FLOAT32" numvalues="3497"> -0.08184046 -0.08177566 -0.0817117 -0.0816479 -0.08159505 -0.08155367 -0.08151987 -0.08149306 -0.08146383 -0.08143288
 -0.0813989 -0.08136446 -0.0813382 -0.08132118 -0.08132102 -0.08133549 -0.08136469 -0.08140568 -0.081455 -0.08151139
 -0.08157326 -0.08163863 -0.08170711 -0.0817736 -0.08183701 -0.08189038 -0.08193185 -0.081957 -0.08196421 -0.08195627
 -0.08193269 -0.081905 -0.08187381 -0.08185177 -0.08183886 -0.08183847 -0.08184928 -0.08186544 -0.08188593 -0.08190396
 -0.08191946 -0.08192902 -0.08193275 -0.0819286 -0.08191888 -0.08190394 -0.08189029 -0.08188328 -0.08188668 -0.08190686
 -0.08193386 -0.08196823 -0.08198895 -0.08199041 -0.08196153 -0.0818973 -0.08181201 -0.08170533 -0.08160724 -0.08151937
 -0.08146462 -0.08144267 -0.08145545 -0.08149991 -0.08155893 -0.08163009 -0.08169472 -0.08175467 -0.08180435 -0.08184807
 -0.08189094 -0.08193454 -0.08198457 -0.08203533 -0.08208681 -0.08212534 -0.08214458 -0.08213153 -0.08207738 -0.08198648
 -0.08185406 -0.08170932 -0.08155392 -0.08142748 -0.08133384 -0.08130267 -0.08133591 -0.0814399 -0.08161255 -0.08182882
 -0.08208133 -0.08231329 -0.08251777 -0.08263382 -0.08267185 -0.08262079 -0.08250702 -0.08237059 -0.08222696 -0.08211271
 -0.08202389 -0.08197151 -0.08194039 -0.08192626 -0.08191317 -0.08189309 -0.08186149 -0.08181356 -0.08176069 -0.08170294
 -0.08165832 -0.08162896 -0.08162308 -0.08164136 -0.08167417 -0.08172093 -0.08177008 -0.08182339 -0.08188617 -0.08196076
 -0.08206126 -0.0821828 -0.08232436 -0.08247133 -0.08259872 -0.0826964 -0.08273885 -0.08273438 -0.08267977 -0.08258905
 -0.08246806 -0.08233011 -0.08217714 -0.08203632 -0.0819118 -0.08183897 -0.08182517 -0.08188723 -0.08203093 -0.08222353
 -0.08246412 -0.0826368 -0.08273741 -0.08267277 -0.0824626 -0.08218944 -0.08187104 -0.08162162 -0.0814347 -0.0813521
 -0.08135908 -0.0814551 -0.08161229 -0.08180385 -0.08199067 -0.08212937 -0.08220602 -0.08218981 -0.08212219 -0.08200879
 -0.08189822 -0.08180932 -0.08174244 -0.0817024 -0.08166757 -0.08163492 -0.08160608 -0.08158082 -0.08157835 -0.08159858
 -0.08164351 -0.08170927 -0.08177138 -0.08182728 -0.08185239 -0.0818511 -0.0818218 -0.08176997 -0.08170477 -0.0816284
 -0.08154478 -0.08146168 -0.08138453 -0.08132581 -0.08129466 -0.08129612 -0.08133706 -0.08140644 -0.08150586 -0.08160864
 -0.08171207 -0.08178537 -0.08182465 -0.08181398 -0.08175189 -0.08165 -0.08150999 -0.08136111 -0.08120371 -0.08105469
 -0.08091183 -0.08077366 -0.08064222 -0.0805198 -0.08041418 -0.08034123 -0.08030277 -0.08031239 -0.08035347 -0.0804207
 -0.08048717 -0.08053403 -0.08055198 -0.08052811 -0.08048224 -0.0804147 -0.08035553 -0.08031065 -0.08029468 -0.08031101
 -0.08035261 -0.08041947 -0.08049079 -0.08056518 -0.0806172 -0.08064701 -0.08064085 -0.08060429 -0.08055109 -0.08048783
 -0.08044031 -0.08040684 -0.08039748 -0.08040497 -0.08042245 -0.08045016 -0.08048193 -0.08053274 -0.08060879 -0.08072408
 -0.08089101 -0.08109375 -0.08133748 -0.08156974 -0.08178308 -0.08193314 -0.08201174 -0.0820253 -0.08197368 -0.08186807
 -0.08170853 -0.08149147 -0.08122221 -0.08093461 -0.08063756 -0.08038726 -0.08018208 -0.08004873 -0.07997538 -0.0799555
 -0.07997289 -0.08000419 -0.08004135 -0.08006772 -0.08008722 -0.08009854 -0.08010294 -0.08010261 -0.08008976 -0.08006346
 -0.08001357 -0.07993679 -0.07983569 -0.0797084 -0.07957967 -0.07945073 -0.07935384 -0.07928997 -0.07927775 -0.07931467
 -0.07939541 -0.07951114 -0.07962617 -0.07972854 -0.079763 -0.07973789 -0.0796359 -0.07948739 -0.07932698 -0.07916649
 -0.07903332 -0.07891271 -0.07880416 -0.07869124 -0.07856371 -0.07842598 -0.07827431 -0.0781304 -0.07799798 -0.07789025
 -0.07781091 -0.07774703 -0.07769857 -0.07762844 -0.07753534 -0.07739212 -0.07720437 -0.07699915 -0.07678384 -0.07660621
 -0.07646182 -0.07636306 -0.07630301 -0.07627436 -0.07627358 -0.07629599 -0.07633175 -0.07637446 -0.07640496 -0.07640997
 -0.0763778 -0.07629985 -0.07617446 -0.07600153 -0.07577048 -0.07547821 -0.07512477 -0.07470706 -0.07425876 -0.07378152
 -0.07331643 -0.07286527 -0.0724577 -0.07209503 -0.0718025 -0.07157838 -0.07143348 -0.07135624 -0.07132303 -0.07131985
 -0.07130793 -0.07128542 -0.0712367 -0.07115667 -0.07104313 -0.07086848 -0.07061096 -0.07026855 -0.06982198 -0.06933276
 -0.06881374 -0.06831401 -0.06784805 -0.06741973 -0.06703193 -0.06667355 -0.06634402 -0.06603393 -0.06574319 -0.0654714
 -0.06521898 -0.06499249 -0.06478641 -0.064587 -0.06437581 -0.06409181 -0.0637312 -0.06324167 -0.062673 -0.06206595
 -0.06146877 -0.06094817 -0.06050021 -0.06014721 -0.05985511 -0.05961861 -0.05939474 -0.05916972 -0.0589188 -0.05863187
 -0.05832029 -0.05798366 -0.05764032 -0.0572921 -0.05693023 -0.05655368 -0.05613814 -0.05568504 -0.05519289 -0.05466723
 -0.05413138 -0.0535882 -0.05305695 -0.05253857 -0.05204294 -0.05157179 -0.05113268 -0.05072225 -0.05034224 -0.04998235
 -0.04963811 -0.04929744 -0.04895736 -0.04859724 -0.04821356 -0.04777664 -0.04727677 -0.04671775 -0.04609317 -0.04547351
 -0.04486283 -0.0443295 -0.04387421 -0.04349109 -0.04317416 -0.04287385 -0.04258676 -0.04227083 -0.04192943 -0.04154843
 -0.04113717 -0.04070603 -0.04026435 -0.03983045 -0.03940438 -0.03899604 -0.03859187 -0.03818765 -0.03776748 -0.03732089
 -0.03684946 -0.03634862 -0.0358372 -0.03531716 -0.03480858 -0.03431423 -0.03384611 -0.03340563 -0.03298846 -0.0325938
 -0.03220192 -0.03181142 -0.03140214 -0.0309743 -0.03051787 -0.03003461 -0.02952234 -0.02898734 -0.0284375 -0.02788617
 -0.02735463 -0.02685118 -0.02639537 -0.02597588 -0.02559385 -0.02522897 -0.02487042 -0.02451424 -0.0241542 -0.0238055
 -0.02347072 -0.02315828 -0.02287197 -0.02259082 -0.02231427 -0.02200473 -0.02166094 -0.02126417 -0.02081765 -0.02033928
 -0.0198341 -0.01933534 -0.01884274 -0.01837375 -0.01792325 -0.01748843 -0.01706745 -0.01665431 -0.01625546 -0.0158741
 -0.01551784 -0.01519588 -0.01490058 -0.01463619 -0.01437326 -0.01410584 -0.01380271 -0.01345437 -0.01305704 -0.01260657
 -0.01212966 -0.01162747 -0.01113406 -0.01065078 -0.01019683 -0.009771009 -0.009372116 -0.008997691 -0.008636018 -0.008285897
 -0.007937722 -0.007591854 -0.007244478 -0.006896417 -0.006546574 -0.006197689 -0.005851646 -0.005511539 -0.005182081 -0.004857224
 -0.004537474 -0.004208993 -0.003865253 -0.003509081 -0.003136453 -0.002775377 -0.002429449 -0.002114879 -0.001834604 -0.001559924
 -0.001288882 -0.0009743805 -0.0006177677 -0.0002075886 0.0002464695 0.0007064726 0.00116314 0.001566719 0.001920816 0.002204593
 0.002436636 0.002632301 0.002811448 0.003001343 0.003204775 0.003434513 0.003677924 0.003932298 0.004187576 0.004439272
 0.004685768 0.004925708 0.005160866 0.005390756 0.005622278 0.005855694 0.006102458 0.00636285 0.006637159 0.006924185
 0.007211617 0.007501137 0.007792688 0.008092074 0.008419105 0.008771934 0.009161618 0.009570269 0.009979916 0.01036933
 0.0107086 0.01099454 0.01121112 0.01137866 0.01149964 0.01160235 0.01169643 0.01179824 0.01191391 0.01204399
 0.01218988 0.01234453 0.01250759 0.01267221 0.01283822 0.01300449 0.0131723 0.01335246 0.01354686 0.01377231
 0.01402559 0.014309 0.0146113 0.01491084 0.0151991 0.01545054 0.01567435 0.01586619 0.01604902 0.01623874
 0.01644527 0.01668313 0.01693095 0.01718761 0.0174222 0.01762497 0.01779561 0.01792994 0.01806037 0.01818945
 0.01833555 0.01849855 0.01864908 0.01878406 0.01885937 0.0188801 0.01884374 0.01876593 0.01869251 0.01863583
 0.01864737 0.01872092 0.01887503 0.01908373 0.01933045 0.01958705 0.01982543 0.02004318 0.02022541 0.02040366
 0.0205837 0.02079622 0.02105422 0.02134171 0.02166281 0.02195768 0.02222196 0.02240883 0.02251695 0.02255563
 0.02252928 0.0224848 0.02242382 0.02237937 0.02234841 0.02233576 0.02234504 0.02238346 0.02246171 0.02260354
 0.02280068 0.02306368 0.02335079 0.02363918 0.02388916 0.02406798 0.0241874 0.02423611 0.0242703 0.02429948
 0.0243686 0.02448846 0.02465475 0.02486983 0.02508945 0.02531116 0.02548214 0.02560179 0.02564057 0.02560601
 0.02551554 0.02538573 0.02527662 0.02520112 0.02522147 0.02532623 0.02553456 0.02580515 0.02610738 0.02639633
 0.0266266 0.02678895 0.02685941 0.02687329 0.02683349 0.02678617 0.02674175 0.0267299 0.02675539 0.02684087
 0.0269882 0.02722212 0.02754348 0.02795142 0.02844011 0.02895338 0.02947932 0.02992599 0.03028989 0.03050454
 0.03059002 0.03054857 0.03042157 0.03026922 0.03012647 0.03005909 0.03006004 0.03015595 0.03029239 0.03045517
 0.03058155 0.03064524 0.03062017 0.03049061 0.03027981 0.02998563 0.02965858 0.02930236 0.02895999 0.02863346
 0.02833612 0.0280668 0.02781729 0.02758773 0.02737357 0.02717871 0.02701416 0.02688123 0.02679294 0.02673624
 0.02670428 0.02666535 0.02658674 0.02643771 0.02617992 0.02581905 0.0253383 0.02478801 0.02417784 0.02356221
 0.0229573 0.02238171 0.02184146 0.02133262 0.02085501 0.02041199 0.02000368 0.01963004 0.0192892 0.0189597
 0.01864107 0.01831651 0.01799331 0.01768795 0.01740389 0.01716338 0.0169494 0.01674943 0.01653806 0.01627893
 0.01597165 0.01559524 0.01518758 0.01475618 0.01435366 0.01400099 0.01372448 0.01354068 0.0134199 0.01336573
 0.01330261 0.01322475 0.01306811 0.01282973 0.01251111 0.01211745 0.01170725 0.01128522 0.01090882 0.01057377
 0.01029759 0.01007052 0.009879848 0.009717603 0.009566552 0.00942111 0.009269742 0.009107566 0.008927356 0.00872744
 0.008503267 0.008262329 0.008004106 0.007744636 0.007487218 0.007244692 0.007020687 0.006811662 0.006618281 0.006425134
 0.006231471 0.006028252 0.005815976 0.005598006 0.005374708 0.005150022 0.004923039 0.004691737 0.004457429 0.004220674
 0.00398649 0.003763907 0.003553627 0.00336297 0.003181232 0.003004398 0.002818498 0.002613322 0.00238859 0.002139588
 0.001879955 0.001612406 0.001345065 0.001080728 0.0008132161 0.0005422627 0.0002615251 -2.926597E-05 -0.0003231443 -0.0006193596
 -0.0009061814 -0.001184417 -0.001452296 -0.001711837 -0.001969674 -0.002225484 -0.002482588 -0.002737903 -0.002987842 -0.003230528
 -0.003461764 -0.003683224 -0.003896157 -0.004097684 -0.004289553 -0.004457978 -0.004597983 -0.004701797 -0.004761128 -0.004804663
 -0.004831126 -0.004901127 -0.005020425 -0.005228111 -0.005526282 -0.005891413 -0.006318514 -0.006739989 -0.007151767 -0.007493912
 -0.00777119 -0.007963961 -0.008088428 -0.008167782 -0.008225258 -0.008309085 -0.008430138 -0.008627038 -0.008875857 -0.009177785
 -0.009486782 -0.009776018 -0.01002732 -0.01022047 -0.01038672 -0.01052919 -0.01067927 -0.01084741 -0.0110106 -0.01116991
 -0.01126821 -0.01130251 -0.01125449 -0.01112903 -0.01098166 -0.01082187 -0.01073577 -0.01072182 -0.01082631 -0.01102858
 -0.011307 -0.01163542 -0.01195887 -0.0122715 -0.01254014 -0.01278459 -0.01301029 -0.01323203 -0.01346591 -0.01369363
 -0.0139149 -0.01410085 -0.01424014 -0.01433866 -0.01439226 -0.01443799 -0.0144797 -0.0145338 -0.01460138 -0.01465761
 -0.01470098 -0.01470315 -0.01466773 -0.01460068 -0.014509 -0.01442177 -0.01434062 -0.01428554 -0.01425067 -0.01423541
 -0.01423382 -0.01423609 -0.01424744 -0.01426374 -0.01430729 -0.0143867 -0.01452629 -0.01474217 -0.01502459 -0.01538296
 -0.01575541 -0.01613693 -0.01645356 -0.01669527 -0.01684649 -0.01690572 -0.01693572 -0.01694115 -0.01700232 -0.01711619
 -0.01730893 -0.01756656 -0.01785347 -0.01815763 -0.01843028 -0.01867305 -0.01886399 -0.0190169 -0.01913752 -0.01924235
 -0.01934637 -0.01945962 -0.01959397 -0.01974413 -0.01991419 -0.02008251 -0.02024529 -0.02038162 -0.0204849 -0.0205631
 -0.02061419 -0.02067783 -0.02075619 -0.02088082 -0.02105014 -0.02124865 -0.02147113 -0.02167449 -0.02186236 -0.02202161
 -0.0221667 -0.0223287 -0.02251138 -0.02274222 -0.02299944 -0.02327098 -0.02353069 -0.0237494 -0.02392625 -0.02404951
 -0.02413694 -0.02419462 -0.02422731 -0.02424055 -0.02421708 -0.02415501 -0.02403918 -0.02386604 -0.02365065 -0.02339343
 -0.02314623 -0.02291252 -0.02275408 -0.02266939 -0.02268447 -0.02278672 -0.02294612 -0.02314637 -0.02333106 -0.02349579
 -0.02360452 -0.02366859 -0.02368624 -0.02367179 -0.02363779 -0.02358843 -0.02353096 -0.02345994 -0.02337427 -0.02327186
 -0.02315011 -0.02301871 -0.02287864 -0.02274016 -0.02260607 -0.02246141 -0.02230572 -0.02209175 -0.02181709 -0.02143552
 -0.02095126 -0.02036434 -0.01968806 -0.01897173 -0.0182257 -0.01750344 -0.01680015 -0.01613429 -0.01549083 -0.01485825
 -0.01422754 -0.01358557 -0.01293463 -0.01227264 -0.01160255 -0.01092597 -0.01024077 -0.009545262 -0.008845224 -0.00813843
 -0.007451662 -0.006786071 -0.006179427 -0.005634083 -0.005174492 -0.004800399 -0.004510589 -0.004302744 -0.004162008 -0.00408597
 -0.004060659 -0.004078749 -0.004120476 -0.004166847 -0.004178988 -0.004136651 -0.003995687 -0.003760007 -0.003411063 -0.002981405
 -0.002483428 -0.001945347 -0.001384946 -0.0007999002 -0.0001945236 0.0004464102 0.001126722 0.001843743 0.002599005 0.003371427
 0.004159989 0.00493739 0.00570134 0.006414313 0.007071706 0.007623911 0.008068713 0.008368151 0.008529373 0.00854947
 0.00844034 0.008223612 0.007900962 0.007487694 0.006967784 0.00633555 0.005569313 0.004652479 0.003581394 0.002343637
 0.0009716074 -0.0005367777 -0.002112116 -0.003748149 -0.005357642 -0.006931588 -0.008399733 -0.009756821 -0.01098076 -0.01207299
 -0.01305799 -0.01393959 -0.01475542 -0.0155064 -0.0162153 -0.01688242 -0.0175184 -0.01812689 -0.01871945 -0.01929748
 -0.01987001 -0.02042862 -0.02097082 -0.0214844 -0.02196076 -0.02239541 -0.02278423 -0.02312762 -0.02342595 -0.02367473
 -0.0238737 -0.02401629 -0.02410163 -0.02412728 -0.02409304 -0.02399763 -0.02384154 -0.0236303 -0.02336877 -0.02309022
 -0.02280485 -0.02257237 -0.02239626 -0.02232216 -0.02233275 -0.02242453 -0.02256355 -0.02270892 -0.02282936 -0.02288335
 -0.02285809 -0.02273089 -0.02251345 -0.02220037 -0.02182487 -0.02139096 -0.02094292 -0.02048687 -0.02006717 -0.01968752
 -0.01939636 -0.01919628 -0.01915535 -0.01927787 -0.01964439 -0.02025456 -0.02115322 -0.02232117 -0.0237158 -0.02529693
 -0.02694248 -0.0286144 -0.03018412 -0.03164573 -0.03293321 -0.03407631 -0.0350752 -0.03596845 -0.03677966 -0.03753173
 -0.03824035 -0.03891198 -0.03955194 -0.04015819 -0.0407318 -0.04126525 -0.04175785 -0.04220346 -0.04260142 -0.04295692
 -0.0432708 -0.04355949 -0.04382418 -0.04408179 -0.04433179 -0.04458192 -0.04482889 -0.04506868 -0.04529669 -0.04550146
 -0.04568363 -0.04583627 -0.04597067 -0.04609229 -0.04621659 -0.046356 -0.04651395 -0.04669832 -0.04689334 -0.04709846
 -0.04728877 -0.04745927 -0.04759561 -0.04769415 -0.04776315 -0.0478025 -0.04783647 -0.04786605 -0.04790986 -0.0479667
 -0.04803624 -0.04811689 -0.04820046 -0.04828919 -0.04838429 -0.04848984 -0.04861528 -0.0487595 -0.04892731 -0.0491096
 -0.04930183 -0.04949092 -0.04966845 -0.04982347 -0.04994818 -0.05004226 -0.05010114 -0.0501419 -0.05016502 -0.0501977
 -0.05024356 -0.05031678 -0.05041911 -0.0505382 -0.05067291 -0.05079878 -0.05091581 -0.05101199 -0.05109007 -0.0511553
 -0.05121027 -0.05126505 -0.05131985 -0.05137985 -0.05144401 -0.05151344 -0.05158587 -0.05166071 -0.05173279 -0.05179952
 -0.05185458 -0.05189363 -0.05191746 -0.05192292 -0.05192494 -0.05192451 -0.05194217 -0.05198137 -0.05204627 -0.05213806
 -0.05223487 -0.05233542 -0.05241324 -0.05246975 -0.05250273 -0.05251715 -0.0525342 -0.05255524 -0.05259712 -0.05265309
 -0.05271919 -0.05278668 -0.05284098 -0.05288097 -0.0528981 -0.05290153 -0.0528929 -0.05288555 -0.0528854 -0.05290155
 -0.05293883 -0.05299655 -0.05307635 -0.05316966 -0.05327598 -0.0533855 -0.05349746 -0.05360652 -0.05371252 -0.05381368
 -0.05391001 -0.05400074 -0.05408593 -0.05416505 -0.05423861 -0.05430765 -0.05437282 -0.05443617 -0.05449732 -0.05455717
 -0.05461349 -0.05466478 -0.05470848 -0.05474216 -0.05476576 -0.05477782 -0.05478236 -0.05477945 -0.05477626 -0.05477375
 -0.05477985 -0.05479576 -0.05482552 -0.05486975 -0.05492393 -0.05498749 -0.05504737 -0.05510247 -0.05513764 -0.05515351
 -0.05514305 -0.05511113 -0.05506604 -0.05501609 -0.05498132 -0.05496649 -0.05498885 -0.05504187 -0.05512835 -0.05523267
 -0.05534593 -0.0554565 -0.05555541 -0.05564421 -0.0557206 -0.05579276 -0.05586249 -0.05593213 -0.05600283 -0.05606856
 -0.05612899 -0.0561785 -0.05621709 -0.05624758 -0.05627085 -0.05629556 -0.05632184 -0.0563553 -0.05639441 -0.05643769
 -0.05648372 -0.0565285 -0.05657279 -0.05661568 -0.05665894 -0.0567045 -0.05675155 -0.05680084 -0.05684884 -0.05689399
 -0.05693449 -0.0569687 -0.05699992 -0.0570282 -0.05705841 -0.05709137 -0.05712805 -0.0571687 -0.05721069 -0.05725396
 -0.05729714 -0.05734017 -0.05738229 -0.05742287 -0.05745847 -0.05748884 -0.05751035 -0.05752563 -0.05753745 -0.05754981
 -0.05757033 -0.05759865 -0.05763871 -0.0576841 -0.0577321 -0.05777686 -0.05781398 -0.05784487 -0.05786825 -0.05789041
 -0.05791242 -0.05793883 -0.05797062 -0.05800749 -0.05804957 -0.05809376 -0.05813995 -0.05818598 -0.05823194 -0.05827792
 -0.05832383 -0.05836957 -0.05841435 -0.05845588 -0.05849348 -0.05852407 -0.05854903 -0.05856808 -0.05858516 -0.05860358
 -0.05862728 -0.05866075 -0.05870285 -0.05875561 -0.05881125 -0.05886846 -0.05891826 -0.05895799 -0.05898604 -0.05900112
 -0.05901057 -0.05901476 -0.05902204 -0.05903265 -0.05904792 -0.05906735 -0.05908675 -0.05910629 -0.05912406 -0.05914149
 -0.05916209 -0.0591864 -0.05921801 -0.05925456 -0.05929496 -0.059335 -0.05937003 -0.05939789 -0.059415 -0.05942341
 -0.05942243 -0.05941724 -0.0594091 -0.05940271 -0.05939924 -0.05940149 -0.05940998 -0.05942614 -0.05945016 -0.05948196
 -0.05952143 -0.05956495 -0.05961191 -0.05965503 -0.0596939 -0.0597222 -0.05974096 -0.0597496 -0.05975028 -0.05974704
 -0.05974164 -0.05973836 -0.0597379 -0.05974256 -0.0597521 -0.05976773 -0.05978661 -0.05980863 -0.05982784 -0.05984252
 -0.05984766 -0.05984107 -0.05982548 -0.0598002 -0.05977559 -0.05975239 -0.05973922 -0.05973634 -0.05974229 -0.05975629
 -0.05976992 -0.05978319 -0.05979123 -0.05979586 -0.05979995 -0.05980546 -0.05981806 -0.05983806 -0.05986859 -0.05990846
 -0.05995799 -0.06001481 -0.06007805 -0.06014382 -0.06021064 -0.06027393 -0.06033187 -0.06038207 -0.06042338 -0.06045689
 -0.06048243 -0.06050299 -0.06051883 -0.06053197 -0.06054248 -0.06054991 -0.06055423 -0.0605548 -0.06055216 -0.06054853
 -0.06054473 -0.06054471 -0.06054851 -0.06055844 -0.06057335 -0.06059283 -0.06061509 -0.06063851 -0.06066095 -0.06068043
 -0.06069581 -0.06070542 -0.06071143 -0.06071367 -0.06071658 -0.06072124 -0.06072959 -0.06074226 -0.06075801 -0.06077676
 -0.06079775 -0.06082093 -0.0608464 -0.06087403 -0.06090266 -0.06093176 -0.06095815 -0.06098132 -0.06099788 -0.06100785
 -0.06100895 -0.061003 -0.06099105 -0.06097649 -0.06096348 -0.06095319 -0.06094868 -0.06094665 -0.0609463 -0.06094477
 -0.06094001 -0.06093497 -0.06092973 -0.06092828 -0.06093167 -0.06093793 -0.06094716 -0.06095358 -0.06095695 -0.06095564
 -0.06095013 -0.06094501 -0.060941 -0.06094449 -0.06095504 -0.06097541 -0.06100281 -0.06103321 -0.06106273 -0.06108346
 -0.06109424 -0.06108961 -0.06107396 -0.06104776 -0.06101814 -0.06098887 -0.06096395 -0.06094617 -0.06093406 -0.06092798
 -0.06092499 -0.06092463 -0.06092572 -0.06092816 -0.06093058 -0.06093287 -0.06093113 -0.06092541 -0.06091432 -0.06089914
 -0.06088591 -0.06087568 -0.06087618 -0.06088505 -0.06090179 -0.06092177 -0.06093736 -0.06094663 -0.06094357 -0.06093147
 -0.06091005 -0.0608853 -0.0608599 -0.06083878 -0.06082475 -0.06081782 -0.06081928 -0.0608234 -0.06082975 -0.0608321
 -0.06082973 -0.06082122 -0.06080654 -0.06078799 -0.06076589 -0.06074347 -0.06072173 -0.06070686 -0.06070115 -0.060715
 -0.06075069 -0.06081834 -0.06091862 -0.06105724 -0.06123275 -0.06144674 -0.06169429 -0.0619738 -0.06227644 -0.06259745
 -0.06293095 -0.06327166 -0.06362725 -0.06399591 -0.06440048 -0.06484403 -0.06534398 -0.06590359 -0.06650952 -0.06716073
 -0.06780195 -0.06842743 -0.06895656 -0.06938285 -0.06962872 -0.06969301 -0.06952506 -0.06914073 -0.06853449 -0.06776226
 -0.06689615 -0.06601033 -0.06521679 -0.06454135 -0.06404435 -0.06370563 -0.06353175 -0.06349501 -0.06359081 -0.06378406
 -0.06407389 -0.06439046 -0.06472785 -0.06499764 -0.06518912 -0.06528235 -0.06527642 -0.06522188 -0.06512109 -0.06501693
 -0.06490796 -0.06480887 -0.06471632 -0.06462806 -0.06453957 -0.06443915 -0.06432535 -0.0641903 -0.06403577 -0.06386178
 -0.06366698 -0.06344951 -0.06321136 -0.06294867 -0.06268063 -0.0624109 -0.06216359 -0.06194696 -0.06176415 -0.061619
 -0.06149174 -0.06138127 -0.06126656 -0.06114653 -0.06101596 -0.06087593 -0.06073797 -0.06060356 -0.06048746 -0.06038886
 -0.06031382 -0.06025843 -0.06021757 -0.06018607 -0.0601536 -0.06011683 -0.06006726 -0.0600066 -0.05993186 -0.05985105
 -0.05976656 -0.05968805 -0.05962015 -0.05956534 -0.0595264 -0.05949549 -0.05947235 -0.05944612 -0.05941553 -0.05937731
 -0.05933126 -0.05928351 -0.05923465 -0.05919397 -0.05916146 -0.05914227 -0.05913487 -0.05913705 -0.05914684 -0.0591586
 -0.05917119 -0.05918042 -0.05918563 -0.05918492 -0.05917691 -0.05915964 -0.05913344 -0.05909687 -0.0590549 -0.05900844
 -0.05896372 -0.05892272 -0.0588874 -0.05885868 -0.05883455 -0.05881489 -0.05879839 -0.05878497 -0.05877446 -0.05876668
 -0.05875951 -0.05875215 -0.05873882 -0.05871902 -0.05868714 -0.05864481 -0.05859225 -0.05853311 -0.0584735 -0.0584155
 -0.05836465 -0.05831897 -0.05827881 -0.0582417 -0.05820569 -0.05817205 -0.05814068 -0.05811352 -0.05809146 -0.05807313
 -0.05805856 -0.0580456 -0.058034 -0.05802342 -0.05801382 -0.05800377 -0.05799307 -0.05797855 -0.05796033 -0.05793716
 -0.05790984 -0.05788042 -0.05784965 -0.05782004 -0.05779243 -0.05776903 -0.05775087 -0.05774074 -0.05773674 -0.05773969
 -0.05774306 -0.05774396 -0.05773634 -0.05771631 -0.05768519 -0.05764143 -0.05759369 -0.05754267 -0.05749828 -0.0574616
 -0.05743875 -0.05743014 -0.05743455 -0.05745132 -0.05747171 -0.05749456 -0.05750808 -0.05751244 -0.05750107 -0.05747662
 -0.05744154 -0.0573996 -0.05735812 -0.05731936 -0.05728915 -0.05726706 -0.05725497 -0.05725075 -0.0572538 -0.05726212
 -0.05727502 -0.05729049 -0.05730829 -0.05732504 -0.05734047 -0.05734967 -0.05735211 -0.0573446 -0.05732692 -0.05730083
 -0.05726673 -0.05723048 -0.0571927 -0.05716019 -0.05713316 -0.05711637 -0.05710893 -0.05711187 -0.05712226 -0.05713639
 -0.05715 -0.05715644 -0.05715393 -0.05713744 -0.05711152 -0.05707613 -0.05703965 -0.05700551 -0.05697795 -0.05695988
 -0.05694636 -0.05693749 -0.05692504 -0.05690788 -0.05688468 -0.05685526 -0.05682683 -0.05679974 -0.05678081 -0.05676935
 -0.05676458 -0.05676505 -0.05676499 -0.05676363 -0.05675605 -0.05674281 -0.05672205 -0.05669619 -0.05666636 -0.05663737
 -0.05661347 -0.05659783 -0.05659508 -0.05659997 -0.05661338 -0.05662239 -0.0566237 -0.05660919 -0.05657565 -0.05652921
 -0.05646944 -0.056412 -0.05635782 -0.05631788 -0.05629212 -0.0562806 -0.05628246 -0.05629225 -0.05630971 -0.05633135
 -0.05635669 -0.05638368 -0.05640991 -0.05643074 -0.05644326 -0.05644115 -0.05642613 -0.05639573 -0.05635811 -0.0563165
 -0.05627933 -0.05625159 -0.05623356 -0.05622749 -0.05622522 -0.05622596 -0.05622169 -0.05621107 -0.05619474 -0.05617259
 -0.0561521 -0.05613353 -0.05612248 -0.05611826 -0.05611939 -0.05612465 -0.05612852 -0.05613064 -0.05612681 -0.05611857
 -0.05610603 -0.05609252 -0.05608227 -0.05607706 -0.05608124 -0.05609044 -0.0561047 -0.05611529 -0.05611813 -0.05611061
 -0.05608971 -0.05606357 -0.05603279 -0.05600637 -0.0559858 -0.05597093 -0.05596188 -0.05595214 -0.05594156 -0.05592709
 -0.05590939 -0.05589155 -0.0558741 -0.05586097 -0.05585147 -0.05584604 -0.05584336 -0.05584135 -0.05583907 -0.0558345
 -0.05582731 -0.05581637 -0.05580226 -0.05578431 -0.05576571 -0.05574694 -0.05573289 -0.05572537 -0.05572532 -0.05573406
 -0.05574496 -0.05575777 -0.05576332 -0.05576094 -0.05574797 -0.05572483 -0.05569845 -0.0556699 -0.05565009 -0.05563856
 -0.05564043 -0.05565223 -0.05566797 -0.05568412 -0.05569028 -0.05568865 -0.05567621 -0.05566055 -0.05564758 -0.0556411
 -0.05564672 -0.05565914 -0.05567839 -0.05569611 -0.05570991 -0.05571524 -0.05571087 -0.05569492 -0.0556669 -0.05562742
 -0.05557639 -0.05552054 -0.05546048 -0.0554075 -0.05536185 -0.05533123 -0.05531433 -0.05531045 -0.05531719 -0.05532789
 -0.05534105 -0.05535049 -0.05535696 -0.05535844 -0.05535755 -0.05535566 -0.0553555 -0.0553593 -0.05536768 -0.05538223
 -0.05539924 -0.05541885 -0.05543348 -0.05544182 -0.05543852 -0.05542224 -0.05539724 -0.05536359 -0.05533027 -0.05529742
 -0.05526796 -0.05524125 -0.05521382 -0.05518572 -0.05515503 -0.05512302 -0.05509225 -0.05506355 -0.0550398 -0.05502091
 -0.05500811 -0.05500054 -0.05499839 -0.05499908 -0.05500178 -0.05500223 -0.05499854 -0.0549878 -0.05496835 -0.05494133
 -0.05490628 -0.05486747 -0.05482508 -0.05478499 -0.05474759 -0.05471681 -0.05469252 -0.05467204 -0.05465461 -0.05463292
 -0.05460735 -0.05457472 -0.05453796 -0.05450305 -0.05447281 -0.05445641 -0.05445183 -0.05446197 -0.05447903 -0.05449794
 -0.05451047 -0.05450907 -0.05449333 -0.05445951 -0.05441654 -0.0543658 -0.05431601 -0.05426951 -0.05422785 -0.05419171
 -0.05415848 -0.05412799 -0.05409928 -0.05407244 -0.05404964 -0.05403104 -0.05401892 -0.05401262 -0.05401103 -0.05401254
 -0.05401234 -0.05400923 -0.05399857 -0.05398055 -0.05395349 -0.05391825 -0.05387469 -0.05382458 -0.05376814 -0.05370962
 -0.0536504 -0.05359523 -0.05354622 -0.05350354 -0.05346826 -0.05343493 -0.05340321 -0.0533668 -0.05332518 -0.05327684
 -0.05322204 -0.05316645 -0.05311088 -0.05306423 -0.0530265 -0.053003 -0.05299199 -0.05299182 -0.05300004 -0.05301161
 -0.05302413 -0.05303302 -0.05303536 -0.0530269 -0.05300616 -0.05296968 -0.0529221 -0.05286346 -0.05280235 -0.05274153
 -0.05268526 -0.05263542 -0.05258953 -0.05254771 -0.05250554 -0.05246266 -0.05241729 -0.05236951 -0.05232196 -0.05227526
 -0.05223548 -0.05220262 -0.05218078 -0.05216761 -0.05215949 -0.05215257 -0.05213726 -0.05211273 -0.05207256 -0.05202136
 -0.05196071 -0.0518958 -0.05183081 -0.05176718 -0.05170692 -0.05164858 -0.05159223 -0.051536 -0.05147944 -0.051422
 -0.05136335 -0.05130558 -0.0512487 -0.05119828 -0.05115462 -0.05112445 -0.05110706 -0.05110125 -0.05110368 -0.05109906
 -0.05108479 -0.05104338 -0.05097989 -0.05089476 -0.05079611 -0.05069608 -0.05059665 -0.05050369 -0.05041767 -0.05033953
 -0.05027273 -0.0502202 -0.05017911 -0.05015175 -0.05012228 -0.05008847 -0.05003537 -0.04995964 -0.0498652 -0.04975168
 -0.04963556 -0.04951754 -0.04940953 -0.04931114 -0.04922472 -0.0491492 -0.0490813 -0.04902028 -0.04896241 -0.04890746
 -0.04885421 -0.04879999 -0.04874207 -0.04867441 -0.04858925 -0.04848666 -0.04836089 -0.04822611 -0.04808583 -0.04795607
 -0.04784393 -0.0477508 -0.04767986 -0.04761812 -0.04756473 -0.04750606 -0.04744083 -0.04736629 -0.04728245 -0.04719301
 -0.04709724 -0.04699126 -0.04687319 -0.04673071 -0.0465662 -0.04637818 -0.04617415 -0.04596902 -0.04576563 -0.04557546
 -0.04539446 -0.04522254 -0.04505669 -0.04489413 -0.04473582 -0.04458219 -0.04443171 -0.04428531 -0.04413539 -0.04398197
 -0.04381075 -0.04362101 -0.04339144 -0.04312018 -0.04279752 -0.04242387 -0.0420201 -0.04158708 -0.04114382 -0.04068498
 -0.04019658 -0.0396722 -0.03908359 -0.03843337 -0.03771012 -0.03692719 -0.03609617 -0.03523352 -0.03435809 -0.03348288
 -0.03262258 -0.03178076 -0.03096367 -0.03016606 -0.02938445 -0.02862948 -0.02789842 -0.02722888 -0.02662581 -0.02611103
 -0.02568757 -0.02534165 -0.02507252 -0.02486292 -0.0247128 -0.02461615 -0.02457112 -0.02456765 -0.02459993 -0.02464723
 -0.02470149 -0.02473722 -0.02474887 -0.024716 -0.02464306 -0.02452586 -0.02437365 -0.02419237 -0.02398478 -0.0237541
 -0.02349881 -0.02321892 -0.02291406 -0.02258617 -0.0222228 -0.02182589 -0.02135169 -0.02079672 -0.02013085 -0.01935517
 -0.01853923 -0.01768887 -0.01689133 -0.01613677 -0.01542411 -0.01474047 -0.01404557 -0.01333632 -0.01258904 -0.01180091
 -0.0109651 -0.01006004 -0.009072159 -0.007954343 -0.006671349 -0.005191576 -0.00347124 -0.001581135 0.0004842556 0.00257354
 0.004654 0.006638559 0.008506424 0.01026061 0.01189781 0.0134669 0.01497189 0.01651398 0.0181034 0.01989071
 0.02185881 0.0240305 0.02633015 0.02851873 0.03058951 0.03238633 0.03400496 0.03552036 0.03700083 0.0385524
 0.04017469 0.04190301 0.04370846 0.04558536 0.04751363 0.04949383 0.05147386 0.05344636 0.0553516 0.05717476
 0.05893812 0.06064201 0.06231939 0.06396928 0.0655081 0.06692775 0.06811012 0.06906608 0.06978434 0.07028665
 0.07063663 0.07084105 0.07094621 0.07094564 0.07084443 0.07064971 0.07036544 0.07001287 0.06960487 0.06916559
 0.06871035 0.06824985 0.06779651 0.06732577 0.06683981 0.06628524 0.06565677 0.06489933 0.06400591 0.06298351
 0.06183404 0.06065102 0.05943595 0.05824283 0.05706045 0.05585822 0.05463157 0.05334468 0.0520128 0.05064445
 0.04927059 0.04794127 0.0466737 0.04550979 0.04443547 0.04345349 0.04254919 0.04171079 0.04095103 0.04027062
 0.03968603 0.03920527 0.0388112 0.03850405 0.03825471 0.03806015 0.03791422 0.03781681 0.03777999 0.0378037
 0.03789247 0.03804369 0.03824608 0.03849797 0.0387877 0.03911655 0.03948179 0.0398849 0.04032675 0.04080886
 0.04133229 0.04190063 0.04251673 0.04318286 0.04390178 0.04467056 0.0454885 0.04635469 0.04726895 0.04823095
 0.04924277 0.05028486 0.05135662 0.0524247 0.05348777 0.05454109 0.05558703 0.05665394 0.05773582 0.0588216
 0.05989286 0.06087677 0.06177909 0.06256957 0.06327913 0.06394774 0.06457943 0.06520178 0.06578439 0.0663107
 0.06676859 0.06714082 0.06745164 0.06770341 0.06792629 0.06813003 0.06831847 0.0684981 0.06862566 0.0686986
 0.06867416 0.0685504 0.06831586 0.06797024 0.06750579 0.06692195 0.06621082 0.06537343 0.06441285 0.0633214
 0.06209351 0.06069739 0.05907171 0.05722599 0.05510051 0.05286085 0.05061128 0.04845928 0.04652322 0.04469643
 0.04296749 0.04124339 0.03948762 0.03772739 0.03595804 0.03424413 0.03259318 0.03100744 0.02948683 0.02799004
 0.02651722 0.02505453 0.02360799 0.02220444 0.02084534 0.01955332 0.01831753 0.01712633 0.0159668 0.01481304
 0.01366078 0.01249749 0.01131786 0.01012188 0.008880176 0.007579575 0.006192707 0.004681394 0.003154862 0.00161469
 0.0002517742 -0.0008884781 -0.001833513 -0.002575594 -0.0032612 -0.003897233 -0.004559902 -0.005245509 -0.005936721 -0.006626522
 -0.007265117 -0.007857072 -0.008392663 -0.008877203 -0.00932351 -0.009719782 -0.01005576 -0.01031416 -0.01046829 -0.01052107
 -0.01046344 -0.01031108 -0.0100706 -0.009749641 -0.00935421 -0.008879258 -0.008329843 -0.007671663 -0.00690702 -0.005950897
 -0.004794824 -0.00338605 -0.001723059 3.644155E-05 0.001875754 0.00353977 0.005038355 0.006293717 0.007332477 0.008206452
 0.008925224 0.009532707 0.01003531 0.01045239 0.01081376 0.01115186 0.01150917 0.01193956 0.0124255 0.01299069
 0.01353877 0.01403405 0.01444211 0.01473832 0.01497183 0.01514602 0.01530648 0.01545883 0.01561387 0.01577228
 0.01592189 0.01606227 0.0161838 0.01628879 0.01638383 0.01647448 0.01658242 0.01671304 0.0168914 0.01711421
 0.01738845 0.01770624 0.01805852 0.01844903 0.01887678 0.01934896 0.01987308 0.02043797 0.02104461 0.02166843
 0.02230287 0.02293685 0.0235666 0.02419793 0.02483197 0.02546098 0.02608448 0.02665832 0.02717953 0.02759793
 0.02791465 0.02811094 0.02818944 0.02815008 0.02799242 0.02771459 0.02731728 0.02679818 0.0261654 0.02542477
 0.02458964 0.02367215 0.02268014 0.0216222 0.02049607 0.01930061 0.01804189 0.01671374 0.01536328 0.01399171
 0.01267709 0.01142781 0.01028334 0.009246123 0.008293225 0.00742257 0.006600264 0.00582828 0.005100975 0.004422298
 0.003805873 0.003247716 0.002749121 0.00229537 0.001865208 0.001442428 0.0009994571 0.0005311396 2.076622E-05 -0.000518128
 -0.00108625 -0.001658252 -0.00222507 -0.002769914 -0.003284445 -0.003775014 -0.004239611 -0.004700399 -0.005159576 -0.005630338
 -0.006113544 -0.006588916 -0.007053418 -0.007460505 -0.007809719 -0.00807202 -0.00825507 -0.008370102 -0.008425605 -0.008447907
 -0.008439424 -0.008416419 -0.008376384 -0.008322647 -0.008252176 -0.008161804 -0.008055552 -0.007931712 -0.007805307 -0.007680303
 -0.007572392 -0.007487131 -0.007428236 -0.007397882 -0.00739037 -0.007405356 -0.007438526 -0.007489621 -0.00755611 -0.007637374
 -0.007725341 -0.007817852 -0.007898592 -0.007964288 -0.007994183 -0.007987158 -0.007928212 -0.007822922 -0.007671299 -0.007485641
 -0.007278855 -0.007063383 -0.00685316 -0.006655248 -0.006477202 -0.006321375 -0.006190273 -0.006084152 -0.0060036 -0.005947927
 -0.005917452 -0.005908991 -0.005922637 -0.005950772 -0.005992979 -0.006040679 -0.006093838 -0.006150216 -0.006210597 -0.006279218
 -0.006355688 -0.006441288 -0.006534084 -0.006630037 -0.006727674 -0.006823014 -0.00691462 -0.006999805 -0.007076258 -0.007140642
 -0.007193804 -0.007234172 -0.007267326 -0.007295541 -0.007320497 -0.007344631 -0.007359353 -0.00736417 -0.007348006 -0.007309394
 -0.007245156 -0.007154987 -0.007042927 -0.006909424 -0.006761482 -0.006599787 -0.006432315 -0.006259088 -0.006085175 -0.005908589
 -0.005727448 -0.005538911 -0.005337076 -0.005120914 -0.004886409 -0.004635042 -0.004366689 -0.004082867 -0.003784809 -0.003471876
 -0.003144145 -0.002800622 -0.002440047 -0.002067314 -0.001681926 -0.00129631 -0.0009114492 -0.0005393712 -0.0001808883 0.0001605497
 0.0004852204 0.0007970909 0.001096622 0.001388981 0.001673645 0.001952262 0.002222175 0.002479042 0.002717245 0.002925788
 0.003099408 0.003226254 0.003307736 0.003339178 0.003329573 0.003282245 0.003205636 0.003104182 0.002980604 0.002835594
 0.002674241 0.002495935 0.00231606 0.002135821 0.001970972 0.001822673 0.001689771 0.001571322 0.001451422 0.001329451
 0.001193199 0.001044008 0.0008809337 0.0007046178 0.0005168854 0.0003160393 9.99438E-05 -0.000132824 -0.0003855167 -0.0006567063
 -0.0009479533 -0.001252241 -0.00156836 -0.001882451 -0.00219023 -0.002476515 -0.002735757 -0.002962944 -0.00315478 -0.003321648
 -0.003463645 -0.003597592 -0.003724579 -0.003853182 -0.003982932 -0.004106754 -0.004222918 -0.004315946 -0.004385825 -0.004423722
 -0.004431953 -0.00441253 -0.004366038 -0.004295303 -0.004197773 -0.004071108 -0.003914278 -0.003724509 -0.003505263 -0.003257724
 -0.002984822 -0.002688731 -0.002367761 -0.002022188 -0.001648493 -0.001245549 -0.0008147649 -0.000355358 0.0001213043 0.0006146923
 0.001107634 0.001599717 0.002082574 0.002557716 0.003031819 0.003505712 0.00398749 0.004474012 0.004961542 0.005446385
 0.005919396 0.006380988 0.00682769 0.007261801 0.007684877 0.00809627 0.008497063 0.008882677 0.009252183 0.009599387
 0.009921722 0.01021898 0.01048911 0.01074466 0.01098622 0.01123059 0.01147901 0.01173565 0.01200026 0.01226738
 0.01253776 0.01281346 0.0130971 0.01340073 0.01372517 0.0140794 0.01446105 0.01487082 0.01530389 0.01575571
 0.01621923 0.0166868 0.01715421 0.01761489 0.01807464 0.01853305 0.01900065 0.01948144 0.01997614 0.02048734
 0.02100097 0.02151657 0.02201357 0.02249059 0.02293389 0.02334359 0.02372252 0.02407224 0.02440591 0.02472289
 0.02502775 0.02531808 0.02558744 0.02583988 0.02607693 0.02631031 0.02655588 0.02682025 0.02711776 0.02744019
 0.02778943 0.02814735 0.02850748 0.02885518 0.02918289 0.02949427 0.02978632 0.03008204 0.03038369 0.0307086
 0.03105853 0.03142383 0.03180333 0.03217317 0.03253265 0.03286595 0.03317315 0.03344639 0.03368538 0.03388442
 0.03404546 0.03416904 0.03425805 0.03431727 0.03434598 0.03434514 0.03431394 0.0342507 0.03416034 0.03404357
 0.03390803 0.03375553 0.03359336 0.03342254 0.03325167 0.03308199 0.03291774 0.03275947 0.03260193 0.03244496
 0.03228541 0.03212448 0.03197004 0.03182285 0.03169104 0.03157289 0.03146745 0.03137387 0.03128948 0.03121582
 0.03115407 0.03110463 0.03106911 0.03104469 0.03103193 0.03102204 0.03101413 0.03099072 0.03094758 0.03086841
 0.03074862 0.03058532 0.03037755 0.03012666 0.02983297 0.02948673 0.02908736 0.02862236 0.02809273 0.02749948
 0.02684566 0.02614387 0.02539796 0.0246233 0.02382577 0.02302223 0.02221953 0.02143339 0.02066746 0.01993144
 0.01922269 0.01854454 0.0178856 0.01724374 0.01660236 0.0159549 0.01529783 0.01462653 0.01396102 0.01330236
 0.01267436 0.01207907 0.01152062 0.01099879 0.01050624 0.01004306 0.009607629 0.009199847 0.008819969 0.00846463
 0.008125697 0.007797698 0.007466658 0.00712877 0.006772334 0.006398885 0.006003928 0.005595922 0.005177883 0.004759745
 0.004346957 0.003943381 0.003551398 0.003171395 0.002804038 0.002447915 0.002103811 0.001761134 0.00141941 0.001062774
 0.000691049 0.0003044908 -9.448156E-05 -0.0004856536 -0.0008681776 -0.001226517 -0.001564099 -0.001882909 -0.002185511 -0.002478697
 -0.00276106 -0.003033342 -0.003294336 -0.003542281 -0.003779315 -0.004005304 -0.004225522 -0.004441198 -0.004660238 -0.004885273
 -0.005121003 -0.005369483 -0.005628162 -0.005897245 -0.006171428 -0.006450334 -0.006730927 -0.007012936 -0.007291145 -0.007564772
 -0.007825063 -0.008071455 -0.008296676 -0.008500995 -0.008681127 -0.008838307 -0.008972542 -0.009087143 -0.009186354 -0.00927318
 -0.00935298 -0.009423777 -0.009485991 -0.009536952 -0.009573345 -0.009602832 -0.009625296 -0.009655808 -0.009698372 -0.009756393
 -0.009832636 -0.009908768 -0.009984147 -0.01003034 -0.01004633 -0.01001737 -0.009945882 -0.009844851 -0.009718844 -0.009596434
 -0.009477708 -0.009379317 -0.009295127 -0.009220592 -0.009151328 -0.009077711 -0.009002715 -0.008924945 -0.008850237 -0.008781836
 -0.008724272 -0.008680487 -0.008652387 -0.008642694 -0.008644351 -0.008658524 -0.008665394 -0.008662996 -0.008632976 -0.008573305
 -0.008485688 -0.008370693 -0.008246657 -0.008114279 -0.007988269 -0.007866446 -0.007747105 -0.007626726 -0.007493259 -0.007346839
 -0.00718018 -0.006999607 -0.006810057 -0.006618941 -0.006436357 -0.006262649 -0.006102943 -0.005948951 -0.005798584 -0.005643754
 -0.005480346 -0.005309603 -0.005129733 -0.004951931 -0.004777367 -0.004614867 -0.00446554 -0.004326003 -0.004195921 -0.004065341
 -0.003934402 -0.003800045 -0.003663393 -0.003528714 -0.003395556 -0.00326559 -0.003135954 -0.003001858 -0.002860665 -0.002706124
 -0.002538579 -0.002354608 -0.002160135 -0.001956449 -0.001753906 -0.001557276 -0.001374234 -0.001209041 -0.001061065 -0.0009314361
 -0.0008149886 -0.0007113196 -0.0006156182 -0.000527607 -0.0004414037 -0.0003566048 -0.0002645395 -0.0001647636 -4.928554E-05 8.132576E-05
 0.0002297905 0.0003929407 0.0005639425 0.0007373836 0.0008982499 0.001045275 0.00116686 0.001274023 0.001370501 0.001474679
 0.001601423 0.001757472 0.001954373 0.002174038 0.00241648 0.002650412 0.002868608 0.003054533 0.003202772 0.003327383
 0.003428446 0.003532412 0.003640163 0.003758037 0.003884023 0.004000641 0.004107946 0.004194785 0.004267711 0.004340713
 0.004419768 0.004526455 0.004656495 0.004815069 0.004990516 0.005172537 0.00535462 0.005527708 0.005694548 0.005854647
 0.006009475 0.00616007 0.006303789 0.006438858 0.006572065 0.006703051 0.006848007 0.007008797 0.007183994 0.007373069
 0.007550964 0.007717643 0.007861376 0.007986707 0.00811152 0.008236588 0.00837578 0.008522265 0.00866637 0.00880773
 0.008938562 0.009069334 0.009209658 0.009361344 0.009533134 0.009708285 0.009882037 0.01003774 0.01016628 0.01027134
 0.01034926 0.01042357 0.01049622 0.01059202 0.01071378 0.01086493 0.01104527 0.01123523 0.01143356 0.0116211
 0.01179762 0.01195308 0.01208584 0.01218363 0.01224957 0.01227858 0.01228927 0.01230456 0.01234454 0.01244321
 0.01259477 0.01281057 0.01306383 0.01334455 0.01363348 0.01392122 0.01420259 0.01447454 0.01473791 0.01499218
 0.01524145 0.01548647 0.01572138 0.01594563 0.01613807 0.01629947 0.01642657 0.01652668 0.01663589 0.01675905
 0.01693339 0.01715205 0.01741897 0.01772495 0.01805792 0.01841229 0.01878021 0.01915181 0.01951986 0.01987112
 0.02019787 0.0204908 0.02074567 0.02095561 0.02111686 0.02123453 0.02130586 0.02136287 0.02140728 0.02147776
 0.02157599 0.02171327 0.02188797 0.02208767 0.02231026 0.02253929 0.02277264 0.02299436 0.02320496 0.0233963
 0.02357363 0.02374348 0.02390373 0.02405956 0.02419248 0.02429092 0.02434164 0.0243294 0.02427114 0.02416435
 0.02404729 0.0239264 0.02383782 0.02378838 0.02379404 0.02385844 0.02395896 0.02409423 0.02421738 0.02432854
 0.02441049 0.02447003 0.02453517 0.0246094 0.0247204 0.02486364 0.02504327 0.02525236 0.02548465 0.02572816
 0.0259685 0.02619639 0.02639487 0.0265803 0.02675386 0.02694054 0.02715974 0.02737557 0.02758737 0.02773834
 0.02781203 0.02784511 0.02783761 0.02785296 0.02789399 0.02797537 0.02809429 0.02822548 0.02836527 0.02848114
 0.02857252 0.02861831 0.02862467 0.02859196 0.02853345 0.02847205 0.02840985 0.02836196 0.02831315 0.0282529
 0.02818322 0.02809524 0.02802134 0.02797168 0.02796496 0.02801212 0.02809283 0.02820711 0.02832454 0.0284421
 0.028545 0.02863245 0.02870352 0.02875859 0.02880279 0.02883459 0.02884967 0.02884321 0.0287933 0.02870445
 0.02856904 0.02841074 0.02826595 0.02814324 0.02807786 0.02803183 0.02798871 0.02791601 0.02778399 0.02761046
 0.02739099 0.02716292 0.0269311 0.02673878 0.02659092 0.02653552 0.02657942 0.02672045 0.02695833 0.02722974
 0.02753247 0.02782094 0.02809802 0.0283585 0.02860155 0.02881895 0.02901379 0.02918463 0.02934586 0.02952322
 0.02971607 0.02994028 0.03017041 0.03039107 0.0305878 0.03074499 0.03087274 0.03097216 0.03104862 0.03110418
 0.03113792 0.03114864 0.03114717 0.03113453 0.03111683 0.03109438 0.03106 0.03101428 0.03096243 0.03090565
 0.03085614 0.03080914 0.0307532 0.03068689 0.03059601 0.0304949 0.03039963 0.03032321 0.03029001 0.03029458
 0.03034195 0.03042024 0.03052644 0.03064474 0.03077217 0.03088324 0.03097009 0.03102387 0.03103945 0.031037
 0.03101817 0.03099422 0.03096578 0.03092699 0.03087911 0.03083622 0.0308013 0.03080148 0.03083315 0.03089826
 0.03099123 0.03110003 0.03122146 0.03135024 0.03147073 0.03156741 0.0316173 0.0315934 0.03149769 0.03131914
 0.03108344 0.03079759 0.03047951 0.03013474 0.02977331 0.02939661 0.02901774 0.02863818 0.02826394 0.02789544
 0.02754197 0.02720561 0.02691803 0.02667845 0.02650487 0.02638275 0.02627208 0.02615629 0.02596957 0.02572242
 0.02539366 0.0250229 0.02464508 0.02429471 0.02401741 0.02380537 0.02367785 0.02357739 0.02348844 0.02336299
 0.02317512 0.02296335 0.02272316 0.02254779 0.02244849 0.02244596 0.02254188</values></Ydata></AB><ScSm><Ydata ylabel="Single channel"><values byteorder="INTEL" format="FLOAT32" numvalues="1814"> 0.07373631 0.07372784 0.07378709 0.0739436 0.07416764 0.07438588 0.07453501 0.07460555 0.07462306 0.07459851
 0.07453489 0.07448256 0.07453245 0.07472517 0.07498996 0.07519169 0.07523969 0.07516883 0.07511957 0.07520002
 0.07533983 0.07531188 0.07494553 0.07432202 0.07372259 0.07337157 0.07329705 0.07348965 0.07403778 0.07487169
 0.07547776 0.07526563 0.07431071 0.07338377 0.0730978 0.07332021 0.07353528 0.073442 0.07304655 0.07253684
 0.07232991 0.07296452 0.07457045 0.07642481 0.07721052 0.07585036 0.07227811 0.06767779 0.06404571 0.06312375
 0.06517391 0.06862319 0.07124129 0.07192042 0.07120895 0.07018384 0.06928877 0.0684731 0.06794591 0.06821762
 0.06939748 0.07071876 0.07093748 0.06939813 0.0668105 0.06474204 0.06418686 0.06494392 0.06645647 0.06841968
 0.06993285 0.06901366 0.06454659 0.05875396 0.05620902 0.05949047 0.0664307 0.07223434 0.07374534 0.07121961
 0.0669347 0.06329757 0.06193939 0.06327987 0.06644635 0.0699961 0.07279367 0.0740732 0.07324445 0.07039943
 0.06681961 0.06436212 0.06431819 0.06689814 0.07118543 0.0752299 0.07693774 0.07561444 0.07242317 0.06915732
 0.06706165 0.06683937 0.06883044 0.07265987 0.07720849 0.08125797 0.08398993 0.08507821 0.08476131 0.08368856
 0.08242328 0.08134791 0.08100941 0.08178429 0.08298019 0.08309433 0.08144636 0.07908516 0.07771108 0.07792185
 0.07873713 0.07879545 0.07773515 0.07598662 0.07343058 0.06935578 0.06408526 0.05942971 0.05688098 0.05646677
 0.05781527 0.06074311 0.06400292 0.06520902 0.06344953 0.06095517 0.06089252 0.06398594 0.06814182 0.07099783
 0.07210759 0.07277562 0.07437602 0.07694831 0.07902293 0.07872877 0.07564627 0.07185684 0.07047796 0.07260495
 0.07625423 0.07880268 0.07975595 0.08047136 0.08178067 0.08270114 0.08146163 0.07760917 0.07314302 0.07128121
 0.0736569 0.07868159 0.08269908 0.08269662 0.07833281 0.0720059 0.06698108 0.06513387 0.06645095 0.07027429
 0.07602493 0.08254822 0.0878168 0.09007102 0.08910349 0.08614692 0.08246319 0.07817698 0.07295719 0.0679721
 0.0661228 0.06930596 0.07599597 0.08251689 0.08632295 0.08727279 0.08620538 0.08337006 0.07865331 0.07308337
 0.06933293 0.06964996 0.07315347 0.07632414 0.07669078 0.07508992 0.07386124 0.07392628 0.0744395 0.07458316
 0.0747325 0.07580924 0.077961 0.080209 0.08139542 0.08123834 0.08038261 0.07964842 0.07928619 0.07879497
 0.07762244 0.07625344 0.07616583 0.07821885 0.08147958 0.08418155 0.08550043 0.08586626 0.08579166 0.08496486
 0.08270603 0.07925555 0.07629838 0.07571587 0.07776873 0.08093469 0.08349159 0.08475545 0.08492047 0.08443745
 0.08370546 0.0829394 0.08223891 0.08187688 0.0822354 0.08326763 0.08436318 0.08496174 0.08502074 0.0847493
 0.08420334 0.08334807 0.08234255 0.08156578 0.081348 0.08171983 0.08243805 0.0832055 0.08378822 0.08398956
 0.08371709 0.08311775 0.0824858 0.0819945 0.08164554 0.08146613 0.081564 0.08193823 0.08238716 0.08268234
 0.08275399 0.08266427 0.08247779 0.0822155 0.08189632 0.08158199 0.08137953 0.08137517 0.08153477 0.08171265
 0.08181255 0.08188535 0.081998 0.08207615 0.08198367 0.08171955 0.08143574 0.08127192 0.08124258 0.08127393
 0.0812806 0.08118343 0.08090645 0.08044145 0.07993728 0.07964971 0.0797382 0.08014277 0.08067746 0.08117302
 0.08151411 0.08164923 0.08162643 0.08155067 0.08146368 0.0813138 0.08106159 0.08077798 0.08062259 0.08072159
 0.0810502 0.0814428 0.08173431 0.08187068 0.08188868 0.08185886 0.0818629 0.08194204 0.08203483 0.0820307
 0.08191012 0.08178087 0.08175804 0.08184209 0.08192724 0.08191853 0.08183481 0.08178523 0.08184382 0.08197694
 0.08210501 0.0821974 0.08228183 0.08238115 0.08246021 0.08244337 0.08230016 0.08210499 0.08197285 0.0819384
 0.08194599 0.08195689 0.0820033 0.08211686 0.08225472 0.08233491 0.08232856 0.08228603 0.08226559 0.08225811
 0.08220382 0.08207501 0.08191431 0.08178893 0.08172956 0.0817185 0.0817173 0.08169519 0.08163965 0.08155346
 0.08144725 0.081332 0.08121228 0.08109245 0.08099775 0.08097374 0.08103696 0.08112779 0.08114139 0.08102208
 0.08081881 0.08063773 0.08054157 0.08050031 0.08044007 0.08032767 0.08019507 0.08009137 0.08003412 0.08000848
 0.07999039 0.0799645 0.07994112 0.07996486 0.08008313 0.08028516 0.08048573 0.08059447 0.08060063 0.0805739
 0.08058828 0.08066329 0.08077163 0.08088191 0.08099253 0.0811308 0.08130915 0.08148511 0.08159488 0.08163343
 0.08166844 0.08176763 0.08194485 0.08217579 0.08241887 0.08261484 0.0827183 0.08275226 0.0827959 0.08290093
 0.0830468 0.08318804 0.08331446 0.08344688 0.08359928 0.08377209 0.08397371 0.08422543 0.08453794 0.08488856
 0.08522364 0.08548908 0.08567508 0.08583879 0.08606837 0.08640842 0.08682042 0.0872202 0.08755189 0.08782579
 0.08809015 0.08837399 0.0886681 0.08896402 0.08928925 0.0896781 0.09011957 0.09056398 0.09097874 0.09137109
 0.09175823 0.09214182 0.09251889 0.09290083 0.09331277 0.0937708 0.09425454 0.0947073 0.09507912 0.09537419
 0.09564943 0.09597071 0.09636896 0.09681533 0.09722744 0.09752959 0.09773365 0.09793949 0.09822774 0.09857343
 0.09889726 0.0991811 0.09948726 0.09986558 0.1002846 0.1006707 0.1009902 0.1012733 0.1015686 0.101886
 0.1021845 0.1024148 0.1025747 0.102713 0.1028774 0.1030796 0.1033217 0.1036272 0.1040086 0.1044223
 0.1047932 0.1050786 0.105286 0.1054426 0.1055788 0.105726 0.1058997 0.1060891 0.1062772 0.1064528
 0.106598 0.1066977 0.1067783 0.1069038 0.1071128 0.1073872 0.1076973 0.1080445 0.1084315 0.1088236
 0.1091826 0.1095282 0.1099179 0.1103536 0.1107514 0.1110293 0.111193 0.1113058 0.1114111 0.1115274
 0.1116937 0.1119571 0.1123157 0.1127135 0.1130971 0.1134495 0.1137703 0.1140489 0.1142674 0.1144173
 0.1145085 0.1145666 0.114625 0.1147209 0.1148901 0.115147 0.1154616 0.115769 0.1160105 0.1161562
 0.1161902 0.1161067 0.1159385 0.1157614 0.1156307 0.1155148 0.115314 0.1149455 0.1143918 0.1136759
 0.1128197 0.1118441 0.110798 0.1097684 0.1088559 0.1081384 0.1076587 0.1074471 0.1075373 0.1079363
 0.1085731 0.1092996 0.1099518 0.1103997 0.1105459 0.1103213 0.1097192 0.1088211 0.1077613 0.1066652
 0.1056182 0.1046627 0.1038048 0.103047 0.1024495 0.1021547 0.102331 0.1030895 0.1044387 0.1062799
 0.1084186 0.1106074 0.1126315 0.1143869 0.1158865 0.1171971 0.1183791 0.1194764 0.1205273 0.1215496
 0.1225201 0.1233971 0.1241696 0.1248654 0.1255099 0.1260929 0.1265797 0.1269403 0.1271714 0.1273017
 0.1273706 0.1273981 0.1273859 0.1273461 0.127303 0.1272516 0.1271339 0.1268713 0.1264186 0.1257933
 0.1250874 0.1244765 0.1242053 0.1245201 0.1255607 0.1272791 0.1294529 0.13179 0.134037 0.1360199
 0.1376386 0.1388752 0.1398007 0.140535 0.1411782 0.1417791 0.1423526 0.142902 0.1434249 0.1439176
 0.1443818 0.1448291 0.1452772 0.1457381 0.1462027 0.1466436 0.1470443 0.1474236 0.1478231 0.1482665
 0.1487341 0.1491822 0.1495908 0.1499847 0.1503968 0.1508162 0.1511987 0.1515253 0.1518274 0.1521509
 0.1525205 0.1529351 0.1533708 0.1537827 0.1541311 0.1544177 0.1546828 0.1549654 0.1552749 0.1556011
 0.1559332 0.1562635 0.1565872 0.1569094 0.1572466 0.1576055 0.1579607 0.1582691 0.1585137 0.158723
 0.1589428 0.1591959 0.1594722 0.1597494 0.1600185 0.1602954 0.1606055 0.1609534 0.1613064 0.1616183
 0.1618685 0.1620788 0.1622921 0.1625407 0.1628283 0.1631358 0.163438 0.1637186 0.1639785 0.1642331
 0.1644993 0.1647804 0.165065 0.1653389 0.1655967 0.165845 0.1660953 0.1663543 0.166621 0.1668968
 0.1671928 0.1675162 0.1678497 0.1681578 0.1684164 0.1686326 0.1688339 0.1690462 0.1692806 0.1695335
 0.1697942 0.1700532 0.1703081 0.1705633 0.1708248 0.1710942 0.1713668 0.1716369 0.1719036 0.172169
 0.1724355 0.172707 0.1729886 0.1732782 0.1735641 0.1738345 0.1740883 0.1743324 0.1745739 0.1748157
 0.1750571 0.1752975 0.1755392 0.1757857 0.1760369 0.1762883 0.1765371 0.1767851 0.1770355 0.1772891
 0.1775438 0.1777967 0.1780449 0.1782883 0.1785311 0.1787795 0.1790375 0.1793008 0.1795592 0.179806
 0.1800438 0.1802798 0.1805206 0.1807699 0.1810272 0.1812863 0.1815402 0.181787 0.1820289 0.1822684
 0.1825067 0.1827441 0.1829798 0.1832138 0.1834468 0.1836784 0.1839107 0.1841521 0.1844107 0.1846827
 0.1849551 0.185217 0.1854647 0.1857029 0.1859422 0.1861908 0.1864464 0.1867013 0.1869519 0.1872013
 0.1874556 0.1877189 0.1879872 0.1882482 0.1884924 0.1887204 0.1889391 0.1891582 0.189388 0.1896314
 0.1898784 0.1901168 0.1903433 0.190563 0.1907832 0.1910106 0.1912449 0.1914798 0.1917148 0.1919571
 0.192209 0.1924627 0.1927113 0.1929529 0.1931892 0.1934274 0.1936772 0.1939374 0.194197 0.1944495
 0.1946961 0.1949387 0.1951794 0.1954197 0.1956579 0.1958959 0.1961426 0.1964001 0.1966557 0.1968994
 0.1971365 0.197376 0.1976197 0.1978662 0.1981115 0.1983527 0.1985968 0.1988531 0.1991145 0.1993633
 0.1995926 0.1998091 0.2000235 0.2002488 0.2004937 0.2007513 0.2010084 0.201259 0.2014991 0.2017267
 0.2019547 0.2022015 0.2024638 0.2027233 0.2029709 0.2032075 0.2034352 0.2036616 0.203889 0.2040938
 0.2042193 0.2041364 0.2035264 0.2017547 0.1978597 0.1907504 0.1796451 0.1645693 0.1465184 0.1270988
 0.1079378 0.09027031 0.07482855 0.06193699 0.05166508 0.04392837 0.03855616 0.03540207 0.03445654 0.03596153
 0.04053937 0.04882806 0.06008448 0.07093688 0.07668926 0.07502753 0.06823114 0.06109235 0.05693015 0.05598432
 0.05684251 0.05829693 0.05996306 0.06205794 0.06495686 0.0687646 0.07329662 0.07854348 0.08490056 0.09267011
 0.1014542 0.110313 0.1185714 0.1263525 0.1342749 0.1427067 0.1513802 0.1596598 0.1670522 0.1734531
 0.1790513 0.184111 0.1888255 0.1932931 0.1975618 0.2016239 0.205331 0.208364 0.210385 0.2112903
 0.211333 0.2109846 0.2106593 0.2105482 0.2106625 0.2109595 0.2114083 0.211992 0.2126991 0.2135129
 0.2144011 0.2153233 0.2162485 0.2171538 0.218016 0.218819 0.2195593 0.220238 0.2208545 0.2214108
 0.2219149 0.2223788 0.2228151 0.2232307 0.2236264 0.2240035 0.2243657 0.2247112 0.2250306 0.2253197
 0.2255844 0.2258334 0.2260724 0.2263059 0.2265352 0.2267573 0.2269711 0.2271812 0.227394 0.227613
 0.2278385 0.2280663 0.2282898 0.2285061 0.228717 0.2289241 0.2291293 0.2293388 0.2295571 0.2297796
 0.2299982 0.2302114 0.2304223 0.2306305 0.2308329 0.2310286 0.2312226 0.2314249 0.2316418 0.2318652
 0.2320805 0.2322878 0.2325028 0.2327332 0.2329707 0.2332047 0.2334311 0.2336508 0.2338709 0.2341002
 0.2343319 0.2345409 0.2347108 0.2348584 0.2350248 0.2352417 0.235502 0.2357661 0.2360002 0.2362048
 0.2364015 0.2366045 0.2368104 0.2370074 0.2371919 0.2373863 0.2376258 0.2379129 0.2382071 0.2384737
 0.2387186 0.2389617 0.2392123 0.2394737 0.239738 0.239971 0.2401402 0.2402673 0.2404315 0.2407075
 0.2410942 0.2415087 0.2418625 0.2421397 0.2423852 0.2426428 0.2429303 0.2432267 0.243439 0.2434618
 0.2433454 0.2433333 0.2436391 0.2442305 0.2448914 0.2454426 0.2458496 0.2461661 0.2464414 0.2466739
 0.246819 0.246841 0.2467909 0.2468319 0.2471309 0.2476855 0.2483079 0.2488165 0.2491777 0.2494415
 0.2496469 0.2498223 0.2499372 0.2498313 0.2493859 0.2488345 0.2487037 0.2492988 0.250359 0.2513387
 0.2519502 0.2523089 0.2526199 0.2529268 0.2531752 0.2532601 0.2529065 0.251827 0.2502865 0.249253
 0.2495963 0.2512118 0.2531889 0.2547165 0.2555889 0.2560081 0.2562405 0.2564429 0.2565415 0.2562278
 0.2553023 0.2541392 0.2535985 0.2542269 0.2556443 0.2569557 0.2576695 0.2579563 0.258171 0.258453
 0.2586359 0.2582002 0.2565665 0.2539514 0.2518027 0.2517814 0.2541354 0.2573995 0.2598487 0.2609837
 0.2613925 0.2614726 0.2608441 0.2590306 0.2561764 0.2529793 0.2504633 0.2498367 0.2516949 0.2550231
 0.2577712 0.2588766 0.2591629 0.2599836 0.2616061 0.2632241 0.2640054 0.2637354 0.262673 0.2610912
 0.2591438 0.2572874 0.256545 0.2577833 0.260656 0.2637217 0.2657805 0.2667872 0.2672183 0.2666647
 0.2635564 0.2570509 0.2493864 0.2452638 0.2477015 0.2548756 0.2620733 0.2663287 0.2680576 0.268843
 0.2693111 0.2689571 0.2664571 0.2604012 0.2515163 0.2440532 0.2429139 0.2488068 0.2574428 0.2635344
 0.2643965 0.2602309 0.2531736 0.2466598 0.2440269 0.2464953 0.2526312 0.2597648 0.2655933 0.2688153
 0.269124 0.2670899 0.2641155 0.2620876 0.2620165 0.2625523 0.2610099 0.256758 0.2522661 0.2494775
 0.2468034 0.2420684 0.2372878 0.2373337 0.2435956 0.2516507 0.2562295 0.2565526 0.2553819 0.2539996
 0.2500246 0.2408454 0.2285538 0.2200402 0.2209569 0.2298464 0.2394337 0.2437284 0.2427737 0.2405405
 0.2396373 0.2386966 0.2344018 0.2258774 0.2168984 0.2127497 0.2146488 0.2186718 0.2204086 0.2184966
 0.2131127 0.2045377 0.1956466 0.1928479 0.2006689 0.2161842 0.231278 0.2393124 0.2375727 0.2258469
 0.2073405 0.1905663 0.18521 0.1934955 0.2075135 0.2164997 0.2153912 0.20576 0.1912002 0.1748225
 0.1606596 0.1541467 0.1588622 0.1728741 0.1888515 0.197782 0.1939608 0.1793648 0.1639221 0.1583951
 0.1646743 0.174514 0.1787652 0.175659 0.1695706 0.165296 0.1652336 0.1690348 0.1740339 0.1777227
 0.1797774 0.179398 0.1726059 0.1570765 0.138752 0.1279921 0.1287915 0.1366983 0.1471345 0.1594912
 0.1716616 0.1772278 0.1726889 0.1641266 0.1620635 0.1703043 0.1826315 0.1903477 0.190869 0.1882553
 0.1868906 0.1867342 0.1855358 0.1840356 0.1861584 0.1936221 0.2029523 0.2093604 0.2117329 0.2122192
 0.2125795 0.2128477 0.2125597 0.21155 0.209883 0.2079745 0.2064604 0.2054789 0.2045468 0.2032891
 0.2014214 0.197678 0.1901006 0.1788339 0.1678843 0.1619812 0.1616 0.1632525 0.1646522 0.1660948
 0.1657068 0.1580241 0.1412136 0.1230619 0.1153146 0.1223286 0.1378429 0.1521482 0.1595284 0.1587417
 0.1501112 0.1357701 0.122131 0.1179125 0.1269981 0.1446867 0.1627423 0.1764921 0.1853006 0.1886279
 0.1853017 0.1765037 0.16693 0.1621215 0.1651286 0.175153 0.1877357 0.1958138 0.1931739 0.1806848
 0.1691568 0.1713443 0.1884571 0.2080359 0.2179475 0.218708 0.2184811 0.2203895 0.2209929 0.2193059
 0.2203804 0.2283804 0.2404297 0.2494241 0.2502651 0.2418732 0.226478 0.2100538 0.200788 0.2025933
 0.210752 0.2171018 0.2179652 0.2137295 0.2040371 0.189737 0.1779608 0.1778618 0.1900132 0.2051384
 0.2146568 0.2185141 0.2213534 0.2244883 0.2242943 0.2176942 0.2072688 0.1996693 0.1990325 0.2033538
 0.2078885 0.2101585 0.2100239 0.206872 0.199989 0.191709 0.1874466 0.1910273 0.2007555 0.2110087
 0.2172639 0.2189317 0.2180519 0.2166279 0.2152561 0.2132829 0.2101765 0.2073176 0.2077243 0.21279
 0.2199901 0.2254409 0.2283383 0.2312205 0.2359912 0.241295 0.2441793 0.2433435 0.2403994 0.2384818
 0.2397464 0.2436588 0.2473781 0.2481584 0.2459455 0.243665 0.2445264 0.2489534 0.2545205 0.258703
 0.2609403 0.2621109 0.2630435 0.2638068 0.2636773 0.2616962 0.2580565 0.2549258 0.2549248 0.2585266
 0.2635894 0.2675442 0.2694485 0.269876 0.2695498 0.2685896 0.2668897 0.264774 0.2630182 0.2622517
 0.2625091 0.263389 0.2644628 0.2654582 0.2662436 0.2668102 0.2672246 0.2675366 0.2677628 0.2679389
 0.2680963 0.2681893 0.2681457 0.2680144 0.2679719 0.2681247 0.2683671 0.2684911 0.2683768 0.2679907
 0.2672593 0.2660884 0.2645172 0.262722 0.2608192 0.258779 0.25665 0.2548265 0.2539493 0.2544309
 0.2560717 0.258175 0.2600306 0.2612822 0.2619315 0.2621487 0.2621365 0.26207 0.262047 0.2620674
 0.2620796 0.2620468 0.2619601 0.2618122 0.2615973 0.2613448 0.2611227 0.260985 0.2609236 0.2608826
 0.2608115 0.2606971 0.2605547 0.2603983 0.2602115 0.2599412 0.2595238 0.2589275 0.2581751 0.2573318
 0.2564718 0.2556475 0.2548681 0.2540913 0.2532466 0.2522777 0.2511544 0.2498541 0.2483751 0.2467917
 0.2452494 0.2438624 0.2426326 0.2414807 0.2403195 0.2390822 0.23773 0.2362735 0.2347671 0.2332624
 0.2317723 0.230282 0.2287747 0.2272384 0.2256565 0.2240059 0.2222721 0.2204652 0.2186115 0.2167238
 0.2147772 0.2127047 0.2104076 0.2077731 0.2046937 0.2010833 0.1969065 0.192222 0.1871966 0.1820607
 0.1770358 0.1722873 0.1679222 0.1640151 0.1606341 0.1578412 0.1556746 0.1541449 0.1532524 0.1530013
 0.1533979 0.1544301 0.1560386 0.1581043 0.1604751 0.1630008 0.1655405 0.1679649 0.1701949 0.172241
 0.1741809 0.1760816 0.1779405 0.1797012 0.181317 0.1827798 0.18409 0.1852274 0.1861762 0.1869552
 0.1876033 0.188149 0.1886118 0.1890116 0.1893624 0.1896658 0.189919 0.190127 0.1903132 0.1905226
 0.190802 0.1911791 0.1916706 0.1923054 0.1931167 0.1941074 0.1952336 0.1964284 0.1976409 0.1988533
 0.2000667 0.2012891 0.2025519 0.2039178 0.2054383 0.2071074 0.2088739 0.2106839 0.2124849 0.214205
 0.2157583 0.2170789 0.2181463 0.2189795 0.2196094 0.2200613 0.2203614 0.220542 0.2206252 0.2206177
 0.2205293 0.2203799 0.2201775 0.219913 0.2195817 0.219193 0.2187591 0.2182927 0.2178107 0.2173294
 0.2168607 0.2164187 0.2160187 0.2156657 0.215347 0.2150353 0.2146986 0.2143189 0.2139005 0.2134551
 0.2129854 0.2124819 0.2119201 0.2112614 0.2104782 0.2095793 0.2085913 0.2075178 0.2063354 0.205024
 0.2035859 0.2020417 0.2004164 0.198725 0.1969691 0.1951421 0.1932302 0.1912206 0.1891304 0.1870258
 0.1849895 0.1830698 0.1812718 0.1795802 0.1779742 0.1764346 0.1749514 0.1735195 0.1721308 0.1707872
 0.1695116 0.1683257 0.1672198 0.1661633 0.1651449 0.1641923 0.1633459 0.1626168 0.1619799 0.1614089
 0.1609013 0.1604619 0.1600875 0.1597851 0.159578 0.1594689 0.1594127 0.1593426 0.1592164 0.159035
 0.1588275 0.1586229 0.1584317 0.1582544 0.1580928 0.1579324 0.1577148 0.1573425 0.156711 0.1557433
 0.154422 0.1528 0.1509706 0.1490361 0.1471097 0.1453162 0.1437612 0.1425041 0.1415539 0.1408613
 0.140327 0.1398602 0.1394441 0.139137 0.1390123 0.139082 0.1392477 0.139351 0.1393182 0.1392455
 0.1393107 0.1396209 0.1401565 0.140811 0.1414564 0.1420009 0.1424105 0.1426843 0.1428334 0.142885
 0.142864 0.1427655 0.1425722 0.1422905 0.141943 0.1415485 0.1411227 0.1406646 0.1401386 0.1395035
 0.1387517 0.137901 0.136972 0.1359741 0.1348782 0.1336344 0.1322886 0.1310615 0.1302449 0.1300168
 0.13035 0.1310488 0.1318775 0.1327012 0.1334641 0.1340231 0.1341773 0.1340124 0.1340862 0.1350332
 0.1369426 0.1392369 0.1411797 0.142401 0.1429228 0.1428694 0.1423185 0.1413286 0.13992 0.1380576
 0.1357521 0.1331085 0.1302362 0.1272443 0.1243316 0.1217246 0.1195345 0.1177637 0.1163767 0.1153922
 0.1149378 0.1146728 0.1128133 0.1070692 0.09818152 0.09150793 0.09252478 0.1006653 0.1097032 0.1143355
 0.1144178 0.1127807 0.1113717 0.1104741 0.1099782 0.1100206 0.110734 0.1119851 0.1133775 0.1144912
 0.1151611 0.1154483 0.1153346 0.1144897 0.112234 0.1077763 0.1008503 0.09227618 0.08367939 0.07654089
 0.07154319 0.06859268 0.06712286 0.06641838 0.06597477 0.06573388 0.06597655 0.06697652 0.06876092 0.0711733
 0.0740527 0.07721072 0.08028711 0.08286944 0.0848271 0.08635116 0.08761656 0.08856944 0.08907403 0.08910632
 0.08876006 0.08817206 0.08747292 0.08673564 0.0859281 0.08495091 0.08379101 0.08264978 0.08183126 0.08145756
 0.08137783 0.08138336 0.08139171 0.08139618 0.08137859 0.08132367 0.08124047 0.08117267 0.08122486 0.08149926
 0.08195435 0.08240897 0.08272064 0.08289725 0.08302765 0.08312976 0.08305911 0.0826371 0.08194757 0.08135024
 0.08101259 0.08059995 0.07970826 0.07849195 0.07757464 0.07737476 0.07773615 0.07819241 0.07839805 0.07829736
 0.07807015 0.07801852 0.0783715 0.07902793</values></Ydata></ScSm><ScRf><Ydata ylabel="Single channel"><values byteorder="INTEL" format="FLOAT32" numvalues="1820"> 0.06079048 0.06094297 0.06103518 0.06106858 0.06106877 0.06107927 0.06114517 0.0612863 0.06147976 0.0616691
 0.06180203 0.06186587 0.06187788 0.06184766 0.06178042 0.06171967 0.06174244 0.0618855 0.06209437 0.0622599
 0.0623058 0.06225517 0.06221801 0.06228226 0.06239276 0.06236516 0.06206018 0.06154587 0.06105341 0.06076344
 0.06069569 0.06084713 0.06130247 0.06201103 0.06254135 0.06238889 0.06160394 0.06082519 0.06057005 0.06073787
 0.06090362 0.06081469 0.06047367 0.06003939 0.05986605 0.06040853 0.06177458 0.06335217 0.06402773 0.06289031
 0.0598848 0.05601316 0.05295847 0.05218221 0.05389879 0.05678688 0.05898006 0.05955373 0.05896823 0.0581254
 0.05739641 0.05673439 0.05630423 0.05652517 0.05749147 0.05857223 0.0587344 0.05743041 0.05525345 0.05351649
 0.0530531 0.0536956 0.05497713 0.05663853 0.05791971 0.0571588 0.05342532 0.0485829 0.04645901 0.04921113
 0.05502575 0.05988687 0.06114628 0.05901755 0.05541989 0.05238229 0.05126613 0.05240147 0.05504409 0.05799524
 0.06032179 0.06138818 0.06069629 0.05832299 0.05534359 0.05330675 0.05328075 0.0554356 0.0590102 0.06238214
 0.06380379 0.06269281 0.06002067 0.05728967 0.0555454 0.05537615 0.05705962 0.0602755 0.0640898 0.06749112
 0.06979474 0.07071576 0.07044426 0.0695319 0.0684696 0.06758519 0.06732304 0.06797881 0.06896748 0.06904289
 0.06765234 0.06568185 0.06454908 0.06474127 0.06542973 0.06547803 0.06459042 0.06312637 0.06097843 0.05754942
 0.05311993 0.04921731 0.04709118 0.04675876 0.0479086 0.05039261 0.05316568 0.05421963 0.05277871 0.05070337
 0.05064346 0.05321068 0.05666451 0.05904061 0.05997203 0.06054919 0.06191487 0.0640913 0.06583776 0.065584
 0.06298651 0.05980371 0.05865743 0.0604625 0.06354688 0.06570785 0.06653527 0.06717098 0.06830899 0.06911694
 0.06810513 0.06490004 0.06119113 0.05968108 0.06172771 0.06598333 0.06937501 0.06937671 0.06570715 0.06038991
 0.05617791 0.05465107 0.05580247 0.05909228 0.06404616 0.06968702 0.07428218 0.07631275 0.07557249 0.07309617
 0.06997485 0.06634308 0.06193122 0.0577355 0.05623686 0.05906411 0.06491283 0.07062659 0.07401107 0.07493539
 0.07411488 0.07175829 0.06776211 0.06302235 0.05987737 0.06029481 0.06349768 0.06639367 0.0668105 0.06548385
 0.06447891 0.06461895 0.06516452 0.06539179 0.06563309 0.06671153 0.06876294 0.07091566 0.07213179 0.07214656
 0.07152118 0.07098471 0.07076959 0.07043959 0.06951409 0.06844263 0.06855123 0.0705864 0.07367915 0.07623409
 0.07752925 0.07797708 0.07804824 0.07744642 0.07553153 0.07251108 0.06993286 0.06953909 0.07158402 0.07466921
 0.0771961 0.07851814 0.07881037 0.07849898 0.07796556 0.07741565 0.07694178 0.07679071 0.07730428 0.07842743
 0.07959189 0.08028409 0.08046718 0.08032809 0.07991287 0.07920068 0.07836516 0.07777739 0.07774135 0.07826796
 0.07911608 0.08000399 0.08070958 0.08103659 0.0808856 0.08040099 0.07988818 0.0795384 0.07935837 0.07935886
 0.07962403 0.08014189 0.080717 0.0811335 0.08132894 0.08136635 0.08130887 0.081174 0.08097662 0.08078153
 0.08070517 0.08083302 0.08111434 0.081394 0.08159411 0.0817949 0.0820688 0.08231321 0.08235551 0.08218221
 0.08196457 0.08187088 0.08192682 0.0820511 0.08214909 0.08213811 0.08194186 0.08155616 0.08113861 0.08094893
 0.08114302 0.08166282 0.08233361 0.08298713 0.08348381 0.08373918 0.08378918 0.08375444 0.08370112 0.08359109
 0.08338589 0.08315401 0.08305521 0.0832196 0.08363008 0.0841272 0.08453932 0.0847905 0.08489826 0.08493792
 0.08501616 0.08518933 0.08538043 0.08545084 0.08537723 0.08529254 0.08532868 0.08546643 0.0855668 0.08553289
 0.08542243 0.0853895 0.0855206 0.08575565 0.08597754 0.0861437 0.08630481 0.08650962 0.08671257 0.08679286
 0.08668508 0.08647393 0.08631361 0.08626445 0.08627345 0.08630902 0.08642384 0.08664937 0.08690029 0.08704669
 0.08705834 0.08702885 0.08705547 0.08712835 0.08715345 0.08706377 0.08688541 0.08670734 0.08661194 0.08662815
 0.08672048 0.08681153 0.08683085 0.08675935 0.08663113 0.08649488 0.08638115 0.08631299 0.08633423 0.08649045
 0.08675648 0.0870004 0.08706348 0.08689899 0.08662392 0.08641633 0.0863564 0.08636952 0.08631991 0.0861444
 0.0858905 0.0856465 0.08546202 0.08533125 0.08522367 0.08512087 0.08504219 0.08504152 0.08515406 0.08532669
 0.08542615 0.0853506 0.08512652 0.08487277 0.08468594 0.08458596 0.08454575 0.08453108 0.08452584 0.08454886
 0.08462563 0.08472449 0.08476119 0.08469512 0.08458506 0.08452965 0.08458831 0.08476125 0.0849881 0.08515579
 0.08517283 0.08506413 0.0849523 0.08493045 0.08498842 0.0850676 0.085141 0.0852171 0.0853014 0.08539057
 0.08549811 0.08565789 0.08589081 0.08617223 0.08643746 0.08662539 0.08672825 0.08680663 0.08694863 0.08720106
 0.08753292 0.08786331 0.08812681 0.08831938 0.08848637 0.0886663 0.08885665 0.08904548 0.08925614 0.08952762
 0.08985679 0.09019499 0.0905049 0.09079193 0.09107708 0.09136589 0.091655 0.09195836 0.0923128 0.09274187
 0.09320444 0.09359822 0.09384335 0.09396189 0.09406263 0.09425685 0.09458688 0.09499726 0.09535745 0.09555927
 0.09562942 0.09571345 0.09591555 0.0961908 0.09643604 0.09664914 0.09693357 0.09735066 0.09782422 0.09821268
 0.09844871 0.09858897 0.09873708 0.09893285 0.09912407 0.09924544 0.09930752 0.09938343 0.09951781 0.0996936
 0.09989944 0.1001766 0.1005584 0.1009963 0.101392 0.1016872 0.1018912 0.1020397 0.102159 0.1022557
 0.1023174 0.102338 0.1023532 0.102416 0.1025239 0.1026118 0.1026398 0.1026503 0.1027152 0.1028625
 0.1030821 0.1033629 0.1036835 0.1039939 0.1042587 0.1045164 0.1048413 0.1052302 0.1055705 0.1057583
 0.105813 0.1058309 0.1058604 0.1058884 0.1059303 0.1060546 0.1062993 0.1066235 0.1069623 0.1072935
 0.1076307 0.1079777 0.108304 0.1085552 0.1086865 0.1087022 0.1086676 0.1086757 0.1087959 0.1090386
 0.1093562 0.1096777 0.1099508 0.1101491 0.1102494 0.1102373 0.1101576 0.1101244 0.1102298 0.1104396
 0.1106085 0.110603 0.1103898 0.1100069 0.1094919 0.1088661 0.1081736 0.1075001 0.1069389 0.1065441
 0.1063266 0.1062968 0.1064903 0.1069285 0.107557 0.1082555 0.1089105 0.1094458 0.109778 0.1098045
 0.1094809 0.1088811 0.1081495 0.1074084 0.1067248 0.1061166 0.1055556 0.1050013 0.1044851 0.1041549
 0.1042059 0.1047607 0.1058069 0.107208 0.1087475 0.1101972 0.1114077 0.1123648 0.1131564 0.1138766
 0.1145667 0.1152359 0.1158993 0.1165619 0.1171882 0.1177309 0.1181895 0.1186087 0.1190223 0.1194229
 0.119783 0.1200815 0.1203189 0.1205231 0.1207228 0.1208991 0.1209894 0.1209616 0.1208562 0.1207357
 0.1206135 0.1204502 0.1201967 0.1198331 0.1193967 0.1190065 0.1188455 0.119081 0.1197657 0.1208076
 0.1220415 0.1233317 0.124598 0.125762 0.126722 0.1274131 0.1278654 0.1281766 0.1284396 0.1287071
 0.1289995 0.1293142 0.1296322 0.1299319 0.1302077 0.1304766 0.1307691 0.1311007 0.1314471 0.1317579
 0.1320082 0.1322311 0.132493 0.1328332 0.1332267 0.1336088 0.1339418 0.134248 0.1345646 0.1348787
 0.1351388 0.1353252 0.13548 0.1356668 0.1359266 0.1362624 0.1366342 0.1369707 0.1372196 0.137395
 0.1375595 0.1377607 0.1380002 0.1382565 0.1385131 0.1387627 0.1390047 0.1392522 0.13953 0.139845
 0.1401575 0.140405 0.1405667 0.1406918 0.1408499 0.141062 0.1412938 0.1415072 0.1417034 0.141919
 0.1421867 0.1424998 0.1428091 0.1430584 0.1432282 0.1433471 0.1434651 0.1436173 0.1438096 0.144026
 0.1442447 0.1444497 0.1446392 0.1448264 0.1450303 0.1452589 0.1455034 0.1457465 0.145974 0.1461813
 0.1463736 0.146562 0.1467617 0.1469922 0.1472699 0.1475862 0.1478951 0.1481412 0.1483065 0.1484228
 0.1485368 0.1486736 0.1488335 0.1490098 0.1491996 0.1494011 0.1496084 0.1498149 0.1500196 0.1502261
 0.1504357 0.1506441 0.1508472 0.1510473 0.1512518 0.1514673 0.1516947 0.1519261 0.1521495 0.1523575
 0.1525508 0.1527372 0.1529273 0.1531273 0.1533306 0.1535243 0.1537069 0.1538908 0.1540866 0.1542907
 0.1544926 0.1546874 0.1548778 0.155068 0.1552592 0.1554486 0.1556346 0.1558205 0.1560138 0.1562186
 0.1564296 0.156634 0.1568224 0.1569997 0.1571812 0.1573765 0.1575828 0.157793 0.1580046 0.1582171
 0.1584263 0.1586253 0.158812 0.1589924 0.1591778 0.1593751 0.1595823 0.1597917 0.1599964 0.1601916
 0.1603769 0.16056 0.1607527 0.1609619 0.1611843 0.1614101 0.1616292 0.1618381 0.1620417 0.1622461
 0.1624537 0.1626671 0.1628912 0.163126 0.1633632 0.1635952 0.1638201 0.1640381 0.1642468 0.1644416
 0.1646197 0.1647845 0.1649459 0.1651107 0.1652777 0.1654441 0.1656119 0.1657844 0.1659642 0.1661542
 0.1663546 0.1665604 0.1667674 0.1669762 0.1671857 0.1673907 0.1675898 0.1677866 0.1679857 0.1681909
 0.168404 0.1686206 0.1688322 0.1690344 0.1692283 0.1694175 0.1696088 0.1698086 0.1700181 0.170235
 0.1704583 0.1706848 0.1709075 0.1711229 0.1713322 0.1715376 0.1717431 0.1719549 0.1721715 0.172384
 0.1725892 0.1727927 0.1729969 0.1732012 0.1734081 0.1736175 0.1738252 0.1740336 0.1742508 0.174475
 0.1746968 0.1749132 0.1751262 0.1753348 0.1755412 0.1757508 0.1759642 0.1761801 0.1764011 0.1766247
 0.1768414 0.1770477 0.1772442 0.1774181 0.1775295 0.1774686 0.176955 0.1754312 0.1720499 0.1658464
 0.1561299 0.1429265 0.1271195 0.1101296 0.09339178 0.07798563 0.06453706 0.05331136 0.04435953 0.03760955
 0.03291985 0.03016844 0.02934922 0.03067454 0.03468857 0.04194444 0.0517834 0.06125383 0.06625855 0.06478827
 0.05884369 0.05261232 0.04898804 0.04817351 0.04893181 0.05020758 0.05166411 0.05349013 0.0560159 0.05933796
 0.06330043 0.06789984 0.07348162 0.08029981 0.08799322 0.09573814 0.1029573 0.1097727 0.116727 0.1241305
 0.1317348 0.1389777 0.1454351 0.1510311 0.1559436 0.1604054 0.164573 0.1685149 0.1722654 0.1758266
 0.1790844 0.181766 0.1835679 0.184385 0.1844306 0.1841205 0.1838266 0.183724 0.1838272 0.1841035
 0.1845266 0.1850737 0.1857237 0.1864578 0.1872497 0.1880664 0.1888815 0.1896788 0.1904478 0.1911826
 0.1918777 0.1925211 0.1931014 0.1936212 0.1940923 0.1945241 0.1949242 0.1953004 0.1956568 0.1959952
 0.1963218 0.1966396 0.1969422 0.1972216 0.1974782 0.1977141 0.1979296 0.1981312 0.1983338 0.1985487
 0.1987747 0.1990021 0.1992193 0.1994191 0.1996037 0.1997843 0.1999748 0.2001826 0.2004024 0.2006195
 0.2008228 0.2010142 0.2012011 0.201384 0.2015601 0.2017343 0.201918 0.202116 0.2023228 0.2025274
 0.2027226 0.2029091 0.2030923 0.2032756 0.2034625 0.2036628 0.2038837 0.2041148 0.2043389 0.2045533
 0.2047681 0.2049866 0.2052037 0.2054163 0.2056205 0.205805 0.2059644 0.2061156 0.2062887 0.2064978
 0.2067264 0.2069475 0.2071553 0.207367 0.2075928 0.2078193 0.2080248 0.2081983 0.208346 0.2084944
 0.2086802 0.2089174 0.2091837 0.2094491 0.2097014 0.2099382 0.2101637 0.210394 0.2106365 0.2108608
 0.2110264 0.211143 0.2112836 0.2115238 0.2118699 0.2122465 0.2125649 0.2128024 0.213006 0.2132326
 0.2135057 0.2137941 0.2139998 0.2140293 0.2139374 0.2139429 0.2142282 0.2147582 0.2153429 0.2158296
 0.2161932 0.2164834 0.2167429 0.216964 0.2170972 0.2171085 0.2170537 0.2170925 0.2173763 0.2178904
 0.2184505 0.2188893 0.2191916 0.2194221 0.2196167 0.219781 0.2198741 0.219763 0.2193599 0.218881
 0.2187939 0.2193662 0.220356 0.2212633 0.2218211 0.2221334 0.2223951 0.2226577 0.2228761 0.2229521
 0.2226353 0.2216702 0.2202965 0.2193809 0.2196992 0.2211528 0.2229255 0.2242978 0.2250941 0.2254949
 0.225729 0.2259283 0.2260253 0.2257497 0.2249324 0.2239136 0.2234581 0.2240469 0.2253375 0.2265304
 0.2271849 0.2274565 0.2276711 0.2279557 0.228149 0.2277743 0.2263191 0.2239962 0.2221076 0.2221246
 0.2242511 0.2271773 0.2293757 0.230409 0.2307972 0.2308874 0.23034 0.2287381 0.22622 0.2234116
 0.2212204 0.2207125 0.2224106 0.2254095 0.2278866 0.2288999 0.2291865 0.2299552 0.2314454 0.2329334
 0.2336653 0.2334412 0.2324953 0.2310828 0.2293535 0.2277246 0.2271085 0.2282647 0.2308694 0.233636
 0.2355042 0.2364417 0.2368734 0.2364311 0.2337105 0.2279575 0.2211678 0.2175318 0.2197387 0.2261659
 0.2326195 0.2364593 0.2380539 0.2388116 0.2392893 0.2390341 0.2368575 0.2314941 0.2235957 0.2169731
 0.2160142 0.2213463 0.2291306 0.2346459 0.2354908 0.231831 0.2255727 0.2198065 0.2175347 0.2198436
 0.2254323 0.2319 0.2371853 0.2401298 0.2404653 0.2387048 0.2361124 0.2343964 0.2344673 0.2350894
 0.2338198 0.2300828 0.2261133 0.2236794 0.2213635 0.2172087 0.2130294 0.213221 0.2190398 0.2264881
 0.2307989 0.2312635 0.2303728 0.2292813 0.2258413 0.2177025 0.2067721 0.1993124 0.2004709 0.2089329
 0.21809 0.2225117 0.2222616 0.220961 0.2209623 0.2209526 0.2178007 0.2106371 0.2029607 0.1997137
 0.2020263 0.2061993 0.2080907 0.2064299 0.2013928 0.1932704 0.184827 0.1821659 0.1895994 0.2043801
 0.2188359 0.2266781 0.2253165 0.2145151 0.1972961 0.1817881 0.1772773 0.1858979 0.2000411 0.2093468
 0.2089283 0.2002717 0.1868226 0.1716163 0.1586687 0.1534401 0.1595903 0.1752591 0.1930408 0.2036494
 0.2010704 0.187266 0.1726216 0.1684818 0.1768056 0.1887792 0.1946656 0.1926335 0.187415 0.1842328
 0.1857877 0.1917199 0.1989901 0.2047534 0.2086332 0.2095088 0.2024684 0.1847095 0.1633438 0.150704
 0.1515429 0.1606203 0.1725601 0.1866729 0.2005083 0.206548 0.200679 0.1899701 0.1866411 0.1950844
 0.2081061 0.2157245 0.2150531 0.2108199 0.2080901 0.206883 0.2046892 0.2023031 0.2040421 0.2117842
 0.2216907 0.2284941 0.2309837 0.2315331 0.2320701 0.23261 0.2326221 0.231917 0.2305639 0.2290207
 0.2279967 0.2276552 0.2274597 0.2269897 0.2259186 0.2227731 0.2152469 0.2034356 0.1918963 0.1860318
 0.1863593 0.1888848 0.1910535 0.1932449 0.1932211 0.1845511 0.1650985 0.144005 0.1350405 0.1432938
 0.1613782 0.1778601 0.1860202 0.1844401 0.1735997 0.1560881 0.139323 0.1332125 0.1420749 0.1605029
 0.1791496 0.192777 0.2008256 0.2029418 0.1980151 0.1873807 0.1760818 0.1699736 0.1721655 0.1816694
 0.193726 0.2010138 0.1972371 0.1833992 0.1705502 0.171614 0.1878192 0.2066347 0.2158562 0.2159541
 0.2150738 0.2163734 0.2164844 0.2144362 0.2152062 0.2229143 0.2347761 0.2438489 0.245125 0.2375101
 0.2231817 0.20808 0.2003499 0.2037755 0.213414 0.2209112 0.2225465 0.2187475 0.2091851 0.1948234
 0.1830997 0.1834521 0.1963951 0.2122982 0.2223237 0.2264739 0.2295763 0.2329725 0.2328831 0.2261237
 0.2154139 0.2077061 0.2073185 0.2121689 0.2173305 0.2202291 0.2206855 0.2179861 0.2113238 0.2031441
 0.1991719 0.2034451 0.2141195 0.2251599 0.2317083 0.2331208 0.2315834 0.229268 0.2268582 0.2237014
 0.2192596 0.2150043 0.2141326 0.2181526 0.2244935 0.2291573 0.2312996 0.2335036 0.2377133 0.2425489
 0.2449847 0.2436531 0.2401474 0.2376304 0.238297 0.2416379 0.244819 0.2450884 0.242386 0.239649
 0.2401172 0.2442462 0.2496263 0.2537252 0.2559565 0.2571756 0.2582019 0.2590945 0.2591048 0.2572488
 0.2537021 0.2506068 0.2505498 0.2540007 0.2588712 0.2626764 0.2645423 0.2650664 0.2649474 0.2642517
 0.2628186 0.2609322 0.2593446 0.2586754 0.2589612 0.2598135 0.2608255 0.2617462 0.2624506 0.2629218
 0.2632241 0.2634179 0.2635315 0.2636101 0.2636951 0.2637423 0.2636675 0.2635132 0.2634704 0.2636686
 0.2640119 0.2642876 0.2643616 0.2641827 0.2636675 0.2627292 0.2614216 0.2599277 0.2583605 0.2566852
 0.2549494 0.2535461 0.2531048 0.2540157 0.2560604 0.2585381 0.2607454 0.2623339 0.2633039 0.2638088
 0.2640175 0.2640725 0.2640653 0.264018 0.263904 0.2636975 0.2634031 0.2630474 0.2626583 0.2622633
 0.2618974 0.2615889 0.2613269 0.2610582 0.2607257 0.2603081 0.2598231 0.2593037 0.2587716 0.2582139
 0.2575829 0.2568273 0.2559351 0.2549533 0.2539707 0.2530712 0.2522812 0.2515537 0.2508135 0.2500114
 0.2491224 0.2481154 0.2469793 0.2457888 0.2446946 0.2438075 0.2431071 0.2424812 0.2418266 0.2410889
 0.2402425 0.2392861 0.2382535 0.2371897 0.2361123 0.2350062 0.2338444 0.232601 0.2312579 0.2298151
 0.2282889 0.2266983 0.2250622 0.2233992 0.2217066 0.2199306 0.2179649 0.2156741 0.2129193 0.2095919
 0.2056594 0.2011986 0.196383 0.1914294 0.1865385 0.1818675 0.1775391 0.1736554 0.170298 0.1675291
 0.1654018 0.1639622 0.1632363 0.1632241 0.1639061 0.1652469 0.1671866 0.16963 0.1724405 0.1754469
 0.1784647 0.1813292 0.1839391 0.1862943 0.1884788 0.1905723 0.1925718 0.194414 0.1960556 0.197502
 0.1987675 0.1998459 0.2007278 0.201427 0.2019816 0.202436 0.2028242 0.2031661 0.2034726 0.2037485
 0.2039928 0.2042056 0.2043937 0.2045707 0.204755 0.2049668 0.2052235 0.2055392 0.2059288 0.2063966
 0.2069191 0.2074568 0.2079941 0.2085502 0.2091495 0.2098013 0.2105163 0.2113251 0.2122696 0.2133745
 0.2146279 0.2159841 0.2173792 0.2187371 0.2199692 0.2209896 0.221746 0.2222321 0.2224748 0.2225191
 0.2224174 0.2222154 0.2219385 0.2215908 0.2211636 0.2206499 0.2200605 0.2194226 0.2187587 0.2180728
 0.2173642 0.2166443 0.2159328 0.2152417 0.2145707 0.2139167 0.2132843 0.2126816 0.2121049 0.2115337
 0.2109464 0.2103413 0.2097353 0.2091456 0.2085719 0.2079933 0.2073737 0.2066759 0.2058782 0.204976
 0.2039687 0.2028522 0.2016335 0.2003384 0.1989909 0.1975862 0.1961002 0.1945219 0.1928642 0.1911383
 0.18933 0.1874144 0.1853977 0.1833407 0.1813354 0.1794595 0.1777446 0.176173 0.1746981 0.1732812
 0.1719167 0.1706174 0.1693836 0.1682038 0.16708 0.1660272 0.1650477 0.1641252 0.1632488 0.1624314
 0.1617013 0.1610738 0.1605365 0.1600673 0.1596586 0.1593144 0.1590403 0.1588538 0.1587811 0.1588159
 0.1588954 0.158939 0.1589032 0.1587951 0.1586505 0.1585068 0.1583861 0.1582988 0.1582489 0.1582094
 0.1580984 0.1578048 0.157241 0.156366 0.1551798 0.1537128 0.1520148 0.150165 0.1482931 0.1465558
 0.145067 0.1438676 0.1429572 0.1423068 0.1418432 0.1414768 0.1411702 0.1409661 0.1409388 0.1411026
 0.1413557 0.1415449 0.1416128 0.1416554 0.1418266 0.1422243 0.1428496 0.1436086 0.1443581 0.1449977
 0.14551 0.1459019 0.1461632 0.1462956 0.1463256 0.1462753 0.1461574 0.1459831 0.1457528 0.1454622
 0.1451134 0.1446911 0.1441613 0.1435259 0.1428307 0.1421008 0.141321 0.1404696 0.1395048 0.1383743
 0.137129 0.1359908 0.1352422 0.1350698 0.1354893 0.1363398 0.1373795 0.1384494 0.1394743 0.1402834
 0.1406416 0.1406204 0.1407938 0.1418342 0.1438724 0.1463475 0.1485015 0.1499307 0.1506348 0.1507215
 0.1502621 0.1493261 0.1479332 0.1460156 0.1435598 0.1406968 0.1375924 0.134407 0.1313671 0.1286854
 0.126432 0.1245951 0.123168 0.1221984 0.1218244 0.1216725 0.1198243 0.1138208 0.1044552 0.09744896
 0.09861789 0.1073288 0.1169662 0.1219285 0.1220772 0.1204029 0.1189493 0.1180003 0.1174452 0.1174581
 0.1181945 0.1194958 0.1209373 0.1221048 0.1228479 0.1232153 0.1231565 0.1223018 0.1199225 0.1151764
 0.1077737 0.09857712 0.08933388 0.0816648 0.07631376 0.07314869 0.07153487 0.07071492 0.07017387 0.06987692
 0.07015012 0.07128513 0.07327999 0.07594456 0.07910357 0.08255089 0.08590291 0.0887391 0.09092727 0.0926477
 0.09406682 0.09512929 0.09569305 0.09573206 0.09535491 0.09471344 0.09394401 0.09312938 0.09224261 0.09116788
 0.08988423 0.08862652 0.08774304 0.08736575 0.08732292 0.08737617 0.08741601 0.08742661 0.08740089 0.08733071
 0.08722382 0.08713794 0.08720358 0.08753099 0.08806539 0.08860289 0.08896738 0.08913599 0.08919767 0.08919085
 0.08897771 0.08837809 0.08749358 0.08671452 0.08622664 0.08569394 0.08469474 0.08335926 0.08230262 0.08196187
 0.08221117 0.08260193 0.08277552 0.08263229 0.08232292 0.08218715 0.08252625 0.08325273 0.0838583 0.08389487
</values></Ydata></ScRf><Data_Parameters_AB><parameter name="DPF">1</parameter><parameter name="NPT">3497</parameter><parameter name="FXV">3996</parameter><parameter name="LXV">500</parameter><parameter name="CSF">1</parameter><parameter name="MXY">0.0709462091326714</parameter><parameter name="MNY">-0.0827388539910316</parameter><parameter name="DAT">02/06/2022</parameter><parameter name="TIM">13:29:02.851 (GMT+2)</parameter><parameter name="DXU">WN</parameter></Data_Parameters_AB><AB__Qtest><MainReport name="Quality Test Report"><Header><Line><Legend>Test result ok/not ok [1/0]: </Legend><Value>0</Value></Line><Line><Legend>Method file: </Legend><Value>C:\Users\Public\Documents\Bruker\OPUS_8.2.28\QT\IRBT_v3_default.QT</Value></Line></Header><Matrix><Line><Legend></Legend><Legend>min</Legend><Legend>max</Legend><Legend>measured</Legend></Line><Line><Value>Absorption (X-Range 1):</Value><Value>0.400000</Value><Value>2.000000</Value><Value>0.127168</Value></Line><Line><Value>Noise (X-Range 4):</Value><Value></Value><Value>0.000300</Value><Value>0.000059</Value></Line><Line><Value>Signal/Noise (X-Range 2):</Value><Value>200.000000</Value><Value></Value><Value>56.629424</Value></Line><Line><Value>Signal/Noise (X-Range 3):</Value><Value>40.000000</Value><Value></Value><Value>21.599071</Value></Line><Line><Value>Water vapour (X-Range 5):</Value><Value></Value><Value>0.000300</Value><Value>0.000067</Value></Line><Line><Value>Signal/Water (X-Range 2):</Value><Value>100.000000</Value><Value></Value><Value>49.857519</Value></Line><Line><Value>Signal/Water (X-Range 3):</Value><Value>20.000000</Value><Value></Value><Value>19.016194</Value></Line><Line><Value>Fringes (X-Range 6):</Value><Value></Value><Value>0.000100</Value><Value>0.000074</Value></Line></Matrix></MainReport></AB__Qtest><Data_Parameters_ScSm><parameter name="DPF">1</parameter><parameter name="NPT">1814</parameter><parameter name="FXV">3996.33169228125</parameter><parameter name="LXV">499.541461535156</parameter><parameter name="CSF">1</parameter><parameter name="MXY">0.269876003265381</parameter><parameter name="MNY">0.0344565361738205</parameter><parameter name="DAT">02/06/2022</parameter><parameter name="TIM">13:29:02.851 (GMT+2)</parameter><parameter name="DXU">WN</parameter></Data_Parameters_ScSm><Data_Parameters_ScRf><parameter name="DPF">1</parameter><parameter name="NPT">1820</parameter><parameter name="FXV">4004.04661832813</parameter><parameter name="LXV">495.683998511719</parameter><parameter name="CSF">1</parameter><parameter name="MXY">0.265066385269165</parameter><parameter name="MNY">0.0293492246419191</parameter><parameter name="DAT">02/06/2022</parameter><parameter name="TIM">13:28:37.295 (GMT+2)</parameter><parameter name="DXU">WN</parameter></Data_Parameters_ScRf><Optic_Parameters_Rf><parameter name="APR">0</parameter><parameter name="APT">Open</parameter><parameter name="BMS">KBr</parameter><parameter name="DTC">RT-DLaTGS_IR-Biotyper [Microplate reader]</parameter><parameter name="HPF">0</parameter><parameter name="LPF">10.0</parameter><parameter name="LPV">4000</parameter><parameter name="PGR">0</parameter><parameter name="RCH">Module port</parameter><parameter name="RDX">0</parameter><parameter name="SRC">MIR</parameter><parameter name="VEL">10.0</parameter><parameter name="SON">Off</parameter></Optic_Parameters_Rf><Acquisition_Parameters_Rf><parameter name="ADT">1</parameter><parameter name="AQM">DD</parameter><parameter name="CFE">0</parameter><parameter name="COR">0</parameter><parameter name="DEL">0</parameter><parameter name="DLY">0</parameter><parameter name="HFW">8000</parameter><parameter name="LFW">0</parameter><parameter name="NSR">32</parameter><parameter name="PLF">AB</parameter><parameter name="RES">6</parameter><parameter name="RGN">-1</parameter><parameter name="STR">0</parameter><parameter name="TCL">MakeCompatibleScalar (0, {WSV=1.000000, ARV=0});</parameter><parameter name="TDL">37</parameter><parameter name="RPO">0</parameter></Acquisition_Parameters_Rf><FT_-_Parameters_Rf><parameter name="APF">B3</parameter><parameter name="HFQ">500</parameter><parameter name="LFQ">4000</parameter><parameter name="NLI">0</parameter><parameter name="PHR">24</parameter><parameter name="PHZ">ML</parameter><parameter name="SPZ">NO</parameter><parameter name="ZFF">1</parameter></FT_-_Parameters_Rf><Optic_Parameters_><parameter name="APR">0</parameter><parameter name="APT">Open</parameter><parameter name="BMS">KBr</parameter><parameter name="CHN">Module port</parameter><parameter name="DTC">RT-DLaTGS_IR-Biotyper [Microplate reader]</parameter><parameter name="HPF">0</parameter><parameter name="LPF">10.0</parameter><parameter name="LPV">4000</parameter><parameter name="PGN">0</parameter><parameter name="RDX">0</parameter><parameter name="SRC">MIR</parameter><parameter name="VEL">10.0</parameter><parameter name="SON">Off</parameter></Optic_Parameters_><FT_-_Parameters_><parameter name="APF">B3</parameter><parameter name="HFQ">500</parameter><parameter name="LFQ">4000</parameter><parameter name="NLI">0</parameter><parameter name="PHR">24</parameter><parameter name="PHZ">ML</parameter><parameter name="SPZ">NO</parameter><parameter name="ZFF">1</parameter></FT_-_Parameters_><Acquisition_Parameters_><parameter name="ADT">1</parameter><parameter name="AQM">DD</parameter><parameter name="CFE">0</parameter><parameter name="COR">0</parameter><parameter name="DEL">0</parameter><parameter name="DLY">0</parameter><parameter name="HFW">8000</parameter><parameter name="LFW">0</parameter><parameter name="NSS">32</parameter><parameter name="PLF">AB</parameter><parameter name="RES">6</parameter><parameter name="SOT">0</parameter><parameter name="TCL">MakeCompatibleScalar (0, {WSV=1.000000, ARV=0});</parameter><parameter name="TDL">37</parameter><parameter name="SPO">0</parameter><parameter name="SGN">-1</parameter></Acquisition_Parameters_><Instrument_Parameters_Rf><parameter name="HFL">15800.168544</parameter><parameter name="LFL">0</parameter><parameter name="LWN">15800.168544</parameter><parameter name="ABP">32197</parameter><parameter name="SSP">1</parameter><parameter name="ARG">2</parameter><parameter name="ASG">2</parameter><parameter name="ASS">32</parameter><parameter name="GFW">16</parameter><parameter name="GBW">16</parameter><parameter name="BFW">0</parameter><parameter name="BBW">0</parameter><parameter name="PKA">7269</parameter><parameter name="PKL">4996</parameter><parameter name="PRA">7453</parameter><parameter name="PRL">5001</parameter><parameter name="P2A">1</parameter><parameter name="P2L">1</parameter><parameter name="P2R">1</parameter><parameter name="P2K">1</parameter><parameter name="DAQ">0</parameter><parameter name="AG2">1</parameter><parameter name="SSM">1</parameter><parameter name="RSN">26213</parameter><parameter name="CRR">0</parameter><parameter name="SRT">1654176517.295</parameter><parameter name="DUR">19.6389923095703</parameter><parameter name="TSC">29.2</parameter><parameter name="MVD">0.314777404069901</parameter><parameter name="AN1">0.22582433169472</parameter><parameter name="AN2">0</parameter><parameter name="VSN">2.485 Apr  4 2017</parameter><parameter name="SRN">0085</parameter><parameter name="CAM">0</parameter><parameter name="INS">IR-Biotyper</parameter><parameter name="FOC">69</parameter><parameter name="RDY">1</parameter><parameter name="ARS">32</parameter></Instrument_Parameters_Rf><Sample_Parameters_><parameter name="BLD"></parameter><parameter name="CNM">Admin</parameter><parameter name="CPY"></parameter><parameter name="DPM"></parameter><parameter name="EXP">IRBT_v3_32Scans.XPM</parameter><parameter name="LCT"></parameter><parameter name="SFM">Microplate, HTS-XT</parameter><parameter name="SNM">220602-1248_CLA33F (D_21)_D3_96c0af7b-9042-41c7-a367-f62a23a5e9fd.0</parameter><parameter name="XPP">C:\Users\Public\Documents\Bruker\OPUS_8.2.28\XPM</parameter><parameter name="IST">OK</parameter><parameter name="CPG">1252</parameter><parameter name="UID">5a1bb7ef-1f1a-4b7a-a2cf-14b31b85d506</parameter></Sample_Parameters_><Instrument_Parameters_><parameter name="HFL">15800.168544</parameter><parameter name="LFL">0</parameter><parameter name="LWN">15800.168544</parameter><parameter name="ABP">32197</parameter><parameter name="SSP">1</parameter><parameter name="ASG">2</parameter><parameter name="ARG">2</parameter><parameter name="ASS">32</parameter><parameter name="GFW">16</parameter><parameter name="GBW">16</parameter><parameter name="BFW">0</parameter><parameter name="BBW">0</parameter><parameter name="PKA">7684</parameter><parameter name="PKL">4988</parameter><parameter name="PRA">8010</parameter><parameter name="PRL">4993</parameter><parameter name="P2A">1</parameter><parameter name="P2L">1</parameter><parameter name="P2R">1</parameter><parameter name="P2K">1</parameter><parameter name="DAQ">0</parameter><parameter name="AG2">1</parameter><parameter name="SSM">1</parameter><parameter name="RSN">13732</parameter><parameter name="CRR">0</parameter><parameter name="SRT">1654176542.852</parameter><parameter name="DUR">19.6389923095703</parameter><parameter name="TSC">29.2</parameter><parameter name="MVD">0.394431710243225</parameter><parameter name="AN1">0.225814022541944</parameter><parameter name="AN2">0</parameter><parameter name="VSN">2.485 Apr  4 2017</parameter><parameter name="SRN">0085</parameter><parameter name="CAM">0</parameter><parameter name="INS">IR-Biotyper</parameter><parameter name="FOC">69</parameter><parameter name="RDY">1</parameter></Instrument_Parameters_><History/></OPUSDataFile>
