<?xml version="1.0" encoding="UTF-8" ?>
<OPUSDataFile><AB><Ydata ylabel="Absorbance Units"><values byteorder="INTEL" format="FLOAT32" numvalues="3497"> -0.08909959 -0.08911041 -0.0891176 -0.08912177 -0.08911394 -0.08909367 -0.08905423 -0.08899625 -0.08892477 -0.08884278
 -0.0887704 -0.08870959 -0.08868006 -0.08867683 -0.08870006 -0.08873968 -0.08877864 -0.08881263 -0.08882774 -0.08883122
 -0.0888233 -0.08881391 -0.08881011 -0.08881156 -0.08882174 -0.08882934 -0.08883231 -0.08882176 -0.08879479 -0.08875611
 -0.08870528 -0.08865586 -0.08860858 -0.08857153 -0.08854458 -0.08852705 -0.08851905 -0.08852116 -0.08853393 -0.08856124
 -0.08860004 -0.08864678 -0.08869436 -0.08872887 -0.08874798 -0.08874117 -0.08871625 -0.0886748 -0.08862735 -0.08858085
 -0.08853833 -0.08850309 -0.08847253 -0.08844671 -0.08842275 -0.08840014 -0.08837751 -0.0883544 -0.08833364 -0.08831533
 -0.08830855 -0.08831359 -0.08833785 -0.08837938 -0.08843108 -0.08848912 -0.08853509 -0.08856881 -0.08857892 -0.08857159
 -0.08855112 -0.08852517 -0.0885055 -0.08849259 -0.08849318 -0.0884972 -0.08850207 -0.08849595 -0.08847226 -0.08843123
 -0.08836947 -0.08830161 -0.08822865 -0.08816837 -0.08812261 -0.08810318 -0.08811083 -0.08814956 -0.08821882 -0.08831327
 -0.08842975 -0.088548 -0.08866204 -0.08873793 -0.08877541 -0.08875242 -0.08868286 -0.08857781 -0.08845503 -0.08834059
 -0.0882416 -0.08817529 -0.08813258 -0.08811586 -0.08810561 -0.08809389 -0.08807263 -0.08803483 -0.08799738 -0.08796103
 -0.08794811 -0.08796229 -0.08799969 -0.08806039 -0.08811335 -0.08815774 -0.0881736 -0.08816488 -0.08814617 -0.08812208
 -0.0881198 -0.08813567 -0.08817727 -0.08823232 -0.0882823 -0.08832174 -0.08833265 -0.08832711 -0.08830902 -0.08828881
 -0.08827716 -0.08826523 -0.08825222 -0.0882291 -0.08818978 -0.08814913 -0.08810671 -0.08809096 -0.08810573 -0.08815911
 -0.08825222 -0.08833338 -0.08839874 -0.08837448 -0.08826958 -0.08810372 -0.08789201 -0.08770398 -0.08754145 -0.08744465
 -0.08740631 -0.08743641 -0.08751541 -0.08762916 -0.08774733 -0.08783955 -0.08789042 -0.08787563 -0.0878189 -0.08771993
 -0.08761687 -0.08752169 -0.08744682 -0.08739786 -0.08736543 -0.08734912 -0.08734114 -0.08734096 -0.0873485 -0.08736374
 -0.08738698 -0.08741735 -0.08744976 -0.08748249 -0.08750644 -0.08752017 -0.08751505 -0.08749173 -0.08744609 -0.08738296
 -0.08730461 -0.08722065 -0.08713844 -0.08706879 -0.08701976 -0.08699744 -0.0870077 -0.08704551 -0.0871134 -0.08719154
 -0.08727846 -0.08734844 -0.08739854 -0.08741274 -0.08738979 -0.08733089 -0.08723699 -0.08712386 -0.08699305 -0.08686273
 -0.08673325 -0.0866154 -0.08650909 -0.08641949 -0.08634654 -0.08629338 -0.0862575 -0.08623887 -0.08622994 -0.08622551
 -0.08621684 -0.0861968 -0.08616329 -0.08611257 -0.0860505 -0.08597685 -0.08590192 -0.08582655 -0.08576413 -0.08571594
 -0.08569434 -0.08570027 -0.08573695 -0.08580361 -0.08588818 -0.08598807 -0.08607955 -0.08616162 -0.08621623 -0.08624715
 -0.08625419 -0.08624277 -0.08622288 -0.08619635 -0.08616934 -0.08614203 -0.08611459 -0.0860934 -0.08608003 -0.08608723
 -0.08612212 -0.08618554 -0.08628403 -0.08638915 -0.08649912 -0.08657587 -0.08661366 -0.08660578 -0.08655126 -0.08645971
 -0.08633139 -0.0861683 -0.08597344 -0.08576662 -0.08555454 -0.08537561 -0.08523133 -0.08514773 -0.08511616 -0.08513708
 -0.0851916 -0.08525666 -0.08531874 -0.08535495 -0.08537102 -0.08536347 -0.08534159 -0.08530933 -0.08526882 -0.08522158
 -0.08516701 -0.08510501 -0.08503628 -0.08496054 -0.08488199 -0.08480074 -0.08472729 -0.0846625 -0.08462297 -0.08460874
 -0.08463097 -0.08468373 -0.08475281 -0.08482519 -0.08485623 -0.08484583 -0.08476567 -0.0846413 -0.08449424 -0.08434242
 -0.08421409 -0.08410013 -0.08400556 -0.08391026 -0.08380452 -0.08368585 -0.083548 -0.08341201 -0.08328062 -0.08317083
 -0.08308645 -0.08301947 -0.08296999 -0.0829121 -0.08284502 -0.08275364 -0.08264112 -0.08252392 -0.08240432 -0.08230191
 -0.08221304 -0.08213671 -0.08207195 -0.08201539 -0.08197003 -0.08194087 -0.08192258 -0.08191701 -0.08190362 -0.08187079
 -0.0818039 -0.08169002 -0.08154052 -0.08135553 -0.08114849 -0.08092284 -0.08067981 -0.08041946 -0.08014664 -0.07986147
 -0.07957689 -0.07929366 -0.07902548 -0.07877325 -0.07855046 -0.07835712 -0.07820214 -0.07808153 -0.07799048 -0.07792237
 -0.07786294 -0.07780779 -0.07774764 -0.07767426 -0.07758108 -0.07745051 -0.07726628 -0.07703167 -0.07673579 -0.07642112
 -0.07609703 -0.0757966 -0.07553009 -0.07529777 -0.07510206 -0.0749262 -0.0747693 -0.07461498 -0.07446297 -0.07431063
 -0.07415868 -0.07401363 -0.0738719 -0.07372489 -0.07356222 -0.07334761 -0.07308281 -0.07274472 -0.07236443 -0.07197289
 -0.07159424 -0.07126615 -0.07098315 -0.07075497 -0.07056343 -0.07040443 -0.07025891 -0.07012086 -0.06997741 -0.06982482
 -0.06965905 -0.06947961 -0.06928053 -0.06906159 -0.06880968 -0.06852457 -0.06820261 -0.06784639 -0.06747428 -0.06708911
 -0.06671312 -0.06634614 -0.06599814 -0.06566972 -0.06536673 -0.06508896 -0.06484167 -0.06461446 -0.06440214 -0.06418879
 -0.06396116 -0.0637165 -0.06344912 -0.06316596 -0.06286962 -0.0625565 -0.06222638 -0.06187442 -0.06149765 -0.06111871
 -0.06073846 -0.0603925 -0.06008155 -0.05981357 -0.05958516 -0.05937401 -0.05917592 -0.05896027 -0.05872703 -0.05845804
 -0.05816127 -0.05784154 -0.05751088 -0.05718819 -0.05687823 -0.05659577 -0.05632913 -0.05607815 -0.05582195 -0.05554939
 -0.05525569 -0.05493375 -0.05460133 -0.05426041 -0.0539271 -0.05360464 -0.05329154 -0.0529882 -0.05268361 -0.05237746
 -0.0520656 -0.05174876 -0.05143196 -0.05111453 -0.05079698 -0.05047639 -0.05014331 -0.04979892 -0.04943838 -0.04907106
 -0.04870714 -0.04835502 -0.04802835 -0.04772405 -0.04744579 -0.04718336 -0.04693267 -0.04668868 -0.04644807 -0.04621405
 -0.04598694 -0.04576866 -0.04556058 -0.0453524 -0.04514379 -0.04491608 -0.04466871 -0.04439372 -0.0440933 -0.04378168
 -0.04346181 -0.04315579 -0.04286186 -0.04258794 -0.04232748 -0.04207141 -0.04181492 -0.04154574 -0.04126759 -0.04097739
 -0.04068665 -0.04040223 -0.04013107 -0.03988089 -0.0396422 -0.03941552 -0.03918338 -0.03894129 -0.03868503 -0.03841227
 -0.03813523 -0.03785462 -0.0375812 -0.0373152 -0.03705626 -0.03680399 -0.03655461 -0.03630887 -0.03606819 -0.03583364
 -0.03560977 -0.03539559 -0.03519224 -0.03499604 -0.03480236 -0.03460866 -0.03440972 -0.03420828 -0.03400449 -0.03380125
 -0.03360116 -0.0334007 -0.03319922 -0.03299412 -0.03278327 -0.0325755 -0.03237165 -0.03217966 -0.03200091 -0.03182147
 -0.03164028 -0.03143067 -0.03119357 -0.03092343 -0.0306268 -0.03033067 -0.0300408 -0.02979085 -0.02957592 -0.02940558
 -0.02926439 -0.02913512 -0.02900554 -0.02885401 -0.02868654 -0.02849736 -0.02830585 -0.02812012 -0.0279509 -0.02780578
 -0.02767646 -0.02756363 -0.02745231 -0.02734035 -0.02722072 -0.0270925 -0.02695793 -0.02681715 -0.0266739 -0.02652758
 -0.02637466 -0.02621342 -0.02603273 -0.02583357 -0.02561053 -0.02537126 -0.02512741 -0.02488833 -0.02467357 -0.02448402
 -0.02432982 -0.02420195 -0.02409806 -0.02400842 -0.0239276 -0.02385126 -0.02377665 -0.02370354 -0.02363125 -0.02356163
 -0.02349484 -0.02343272 -0.02337572 -0.02331874 -0.02326127 -0.02318813 -0.02309869 -0.02297933 -0.02283294 -0.02266445
 -0.02248036 -0.02230303 -0.02213615 -0.02200026 -0.02188983 -0.02180814 -0.02174199 -0.0216802 -0.02161129 -0.02152237
 -0.02141374 -0.0212789 -0.02113467 -0.02098292 -0.02084698 -0.02073313 -0.02064973 -0.02060073 -0.02056938 -0.02055499
 -0.02053674 -0.02051407 -0.02048929 -0.02046423 -0.02045837 -0.02047081 -0.0205094 -0.02056747 -0.0206297 -0.02068856
 -0.02071983 -0.02072313 -0.02068428 -0.0206153 -0.02051997 -0.02041812 -0.02032549 -0.02025102 -0.02020754 -0.02017838
 -0.0201632 -0.02013626 -0.02008945 -0.02002217 -0.0199305 -0.01984411 -0.01976487 -0.01971974 -0.01970955 -0.01973132
 -0.01978279 -0.01984062 -0.01990407 -0.0199569 -0.02000129 -0.02003655 -0.02006255 -0.02007962 -0.02008464 -0.02007102
 -0.02004296 -0.01999795 -0.01995384 -0.01992138 -0.0199158 -0.01995174 -0.02001786 -0.02011846 -0.02021851 -0.02031154
 -0.02037064 -0.0203889 -0.02037232 -0.02031961 -0.02026249 -0.02020258 -0.02017095 -0.02016713 -0.0201997 -0.02026424
 -0.02034438 -0.02043428 -0.02050653 -0.02055966 -0.02057509 -0.02055998 -0.02051421 -0.02045231 -0.02038797 -0.0203346
 -0.02030748 -0.02030749 -0.02034167 -0.02039657 -0.02047073 -0.02054658 -0.02062042 -0.02067892 -0.02072015 -0.02073276
 -0.0207157 -0.02065979 -0.02056485 -0.02043794 -0.02028202 -0.02012897 -0.0199831 -0.01988517 -0.01983312 -0.01984585
 -0.01990988 -0.02000862 -0.02012318 -0.02021731 -0.02028276 -0.02029275 -0.02026155 -0.0201861 -0.02009728 -0.02000765
 -0.01994477 -0.01992187 -0.01994754 -0.02002866 -0.02015097 -0.0203153 -0.02049244 -0.02068029 -0.02085263 -0.02100826
 -0.02113925 -0.02124658 -0.02133773 -0.02141346 -0.02148192 -0.02154198 -0.0215944 -0.02163747 -0.02166692 -0.02168413
 -0.02168659 -0.02168371 -0.02168179 -0.02169593 -0.02173967 -0.0218197 -0.02194661 -0.02210676 -0.02230027 -0.02250413
 -0.02271298 -0.02291318 -0.0231016 -0.02327501 -0.02343278 -0.02357452 -0.0237003 -0.0238173 -0.02392642 -0.02404168
 -0.02416139 -0.02428576 -0.02440886 -0.02450934 -0.02458778 -0.02463011 -0.02465175 -0.02466887 -0.02469709 -0.02476404
 -0.02486211 -0.02500027 -0.02514864 -0.0252955 -0.02541627 -0.02549657 -0.02553953 -0.02553952 -0.02552553 -0.0254993
 -0.02549718 -0.02552281 -0.02559615 -0.02571803 -0.02587668 -0.02606934 -0.02626142 -0.02645108 -0.02660938 -0.02673943
 -0.02683536 -0.02690317 -0.0269528 -0.02698976 -0.02702651 -0.02706679 -0.02711988 -0.02718514 -0.02726674 -0.02735689
 -0.02745314 -0.02754796 -0.02763614 -0.02772322 -0.0278075 -0.0279067 -0.02802321 -0.02816974 -0.02834834 -0.02855504
 -0.02878962 -0.02903758 -0.02929815 -0.02955801 -0.02981726 -0.03006943 -0.03031497 -0.03055231 -0.03078086 -0.03099934
 -0.0312051 -0.03139316 -0.03156263 -0.03170803 -0.03183776 -0.03195336 -0.03207174 -0.03220229 -0.03235428 -0.03253621
 -0.03273673 -0.03295663 -0.03317447 -0.03338665 -0.03358266 -0.03376059 -0.03392517 -0.0340766 -0.03422294 -0.03436428
 -0.03450373 -0.03464124 -0.03477786 -0.03491434 -0.03505386 -0.03519698 -0.035347 -0.03550296 -0.03566518 -0.03583153
 -0.03599998 -0.03616846 -0.03633561 -0.03649742 -0.03665339 -0.0367934 -0.03691416 -0.037007 -0.03706645 -0.03710404
 -0.03711768 -0.03714321 -0.03718339 -0.03727037 -0.03740587 -0.03758736 -0.03781203 -0.03804515 -0.03828347 -0.03848972
 -0.03866572 -0.03879576 -0.03888864 -0.03895465 -0.03900648 -0.03906902 -0.03914955 -0.03926891 -0.03941869 -0.03960267
 -0.03980006 -0.04000117 -0.04019107 -0.04036045 -0.04051045 -0.0406392 -0.04075276 -0.04085278 -0.04093553 -0.04100126
 -0.04103875 -0.04104741 -0.04102531 -0.04097431 -0.04091553 -0.04085367 -0.04082725 -0.04083814 -0.04091679 -0.04105446
 -0.04124974 -0.04148468 -0.04172978 -0.04197278 -0.04218528 -0.04237276 -0.04252842 -0.04266628 -0.04279408 -0.04291364
 -0.0430292 -0.04313109 -0.04321603 -0.04328626 -0.04333961 -0.04339631 -0.04345838 -0.0435367 -0.04363194 -0.04372635
 -0.0438186 -0.043885 -0.04392796 -0.04394889 -0.04395325 -0.04396253 -0.04397729 -0.04401126 -0.04405805 -0.04411316
 -0.04417155 -0.04422302 -0.04427345 -0.04432074 -0.04438205 -0.04446576 -0.0445846 -0.04474941 -0.04494702 -0.045181
 -0.04541164 -0.0456337 -0.04581403 -0.04594701 -0.046039 -0.04609001 -0.04613928 -0.04618856 -0.04627159 -0.04638559
 -0.04653252 -0.04670532 -0.04687983 -0.04705123 -0.04719439 -0.04731235 -0.04739696 -0.04745815 -0.04750371 -0.04754271
 -0.0475858 -0.04763467 -0.04769428 -0.04775936 -0.04782984 -0.04789773 -0.04796078 -0.04801479 -0.04805729 -0.04809718
 -0.04813404 -0.04819054 -0.04826797 -0.04838306 -0.04853465 -0.04871098 -0.04890781 -0.04909227 -0.04926364 -0.04939962
 -0.04950715 -0.04959124 -0.04965989 -0.04973012 -0.04980257 -0.04988597 -0.04997441 -0.05006609 -0.05015564 -0.0502394
 -0.05031521 -0.05038182 -0.05043686 -0.05047999 -0.05050703 -0.050517 -0.05050883 -0.05048158 -0.05044459 -0.05039826
 -0.05036423 -0.05034383 -0.05036087 -0.05041451 -0.05051349 -0.05065213 -0.05081595 -0.05099638 -0.05116561 -0.05131783
 -0.0514299 -0.05150262 -0.05152627 -0.05150876 -0.05145114 -0.05136729 -0.05126363 -0.05115506 -0.05104883 -0.05095275
 -0.05087126 -0.05080145 -0.05074423 -0.0506908 -0.05064071 -0.0505834 -0.05051826 -0.05043254 -0.05032566 -0.05018593
 -0.05001458 -0.04981216 -0.04958274 -0.0493415 -0.04909189 -0.04885085 -0.04861743 -0.0483981 -0.04818956 -0.04799004
 -0.04779789 -0.04761143 -0.04742902 -0.04725045 -0.04707051 -0.04688744 -0.04669645 -0.04649444 -0.04628715 -0.04607343
 -0.04587104 -0.04568139 -0.04552168 -0.04539314 -0.04529649 -0.04523053 -0.04517617 -0.04513121 -0.04507096 -0.04499643
 -0.04489721 -0.04477795 -0.04464576 -0.04450265 -0.04435743 -0.04420444 -0.04404119 -0.04386021 -0.0436528 -0.04341999
 -0.04315774 -0.04287668 -0.04257884 -0.04227705 -0.0419744 -0.04168224 -0.04140251 -0.04114539 -0.04091211 -0.04070919
 -0.04053707 -0.04039981 -0.04029811 -0.04024311 -0.04023699 -0.04030053 -0.04043382 -0.04065112 -0.04094499 -0.0413066
 -0.04172265 -0.04216648 -0.04262821 -0.04308378 -0.04353382 -0.04396921 -0.04439882 -0.04482473 -0.04525603 -0.0456975
 -0.04615146 -0.04662085 -0.0470985 -0.04758484 -0.04806522 -0.04853858 -0.04898882 -0.0494148 -0.04980845 -0.05017006
 -0.05050452 -0.05081297 -0.05110578 -0.05138259 -0.05164752 -0.05189937 -0.05213601 -0.05235934 -0.05257122 -0.05277487
 -0.0529769 -0.05317337 -0.05336556 -0.05354183 -0.05369545 -0.05381978 -0.05390825 -0.05396848 -0.054 -0.05401652
 -0.05402087 -0.05401883 -0.05401205 -0.05399456 -0.05396615 -0.05391694 -0.05384702 -0.05375614 -0.05364707 -0.05353817
 -0.05343344 -0.0533599 -0.05331645 -0.05331672 -0.05335104 -0.05341011 -0.05348156 -0.05354584 -0.05359703 -0.05362166
 -0.0536241 -0.05360119 -0.05356536 -0.05351957 -0.05347849 -0.05344638 -0.05343361 -0.05344236 -0.05348011 -0.05354731
 -0.05365575 -0.05380606 -0.05401498 -0.05428294 -0.05461874 -0.05501974 -0.05547394 -0.05597438 -0.05648844 -0.05700755
 -0.0574923 -0.05793956 -0.05832245 -0.05865065 -0.05892248 -0.05915658 -0.05936839 -0.05957117 -0.05977885 -0.05999118
 -0.06021215 -0.06043515 -0.06065933 -0.06087853 -0.06109214 -0.06129169 -0.06147648 -0.06163682 -0.06177188 -0.0618812
 -0.06196541 -0.06203729 -0.06209807 -0.06216329 -0.06223238 -0.06231224 -0.06239977 -0.0624908 -0.06258166 -0.06266327
 -0.06273483 -0.06279014 -0.06283434 -0.06286865 -0.06290118 -0.06293771 -0.06298146 -0.06303674 -0.06309759 -0.06316411
 -0.0632263 -0.063282 -0.06332678 -0.06335927 -0.06338443 -0.06340243 -0.06341999 -0.06343717 -0.06345418 -0.06347059
 -0.06348258 -0.06349127 -0.06349868 -0.06350793 -0.06352906 -0.06356277 -0.06361672 -0.06368559 -0.06376673 -0.06385213
 -0.0639334 -0.0640068 -0.06406678 -0.06411538 -0.06415176 -0.06417997 -0.06420093 -0.06421774 -0.06423081 -0.06424404
 -0.06425778 -0.06427619 -0.06429967 -0.06432775 -0.06436015 -0.06439076 -0.06441924 -0.06443974 -0.06445313 -0.06445994
 -0.06446151 -0.06446217 -0.0644617 -0.06446192 -0.06446158 -0.06445947 -0.06445549 -0.06444887 -0.06444064 -0.06443118
 -0.06442131 -0.06441109 -0.0644026 -0.06439574 -0.06439573 -0.0644035 -0.06442298 -0.06445533 -0.06449649 -0.06454645
 -0.06459424 -0.0646394 -0.06467406 -0.06469893 -0.0647156 -0.06472536 -0.06473515 -0.06474466 -0.06475738 -0.06477056
 -0.06478078 -0.06478542 -0.06477857 -0.06476226 -0.06473423 -0.06470329 -0.06467324 -0.06465419 -0.06465247 -0.06466924
 -0.064708 -0.06475785 -0.06481782 -0.06487548 -0.06492872 -0.06497517 -0.06501435 -0.06505201 -0.06508828 -0.0651258
 -0.06516383 -0.06519773 -0.06522677 -0.06524487 -0.06525292 -0.06524963 -0.06523758 -0.06522053 -0.06520181 -0.06518724
 -0.06517927 -0.06518276 -0.06519677 -0.06522317 -0.06525669 -0.06529621 -0.06533471 -0.06536967 -0.0653979 -0.0654178
 -0.06543223 -0.06544113 -0.06544911 -0.06545656 -0.06546462 -0.06547319 -0.06547941 -0.06548294 -0.06547996 -0.06547037
 -0.06545135 -0.06542381 -0.06538782 -0.06534663 -0.06530589 -0.06526974 -0.06524687 -0.06523728 -0.06524552 -0.06526569
 -0.06529558 -0.06532967 -0.06536409 -0.06539968 -0.06543551 -0.06547531 -0.06552019 -0.06556947 -0.06562372 -0.06567682
 -0.0657285 -0.06577135 -0.06580507 -0.06582477 -0.06583094 -0.06582491 -0.06580843 -0.06578992 -0.06577078 -0.06576039
 -0.06575679 -0.06576143 -0.06576974 -0.06577531 -0.06577726 -0.06577032 -0.06576179 -0.06575408 -0.06575567 -0.06577299
 -0.06580245 -0.06584665 -0.0658894 -0.06592786 -0.06595031 -0.06595358 -0.06594468 -0.06592349 -0.06590796 -0.06589875
 -0.06590541 -0.06592679 -0.06595729 -0.0659952 -0.06602967 -0.06606063 -0.06608213 -0.0660954 -0.06610002 -0.06609712
 -0.06608792 -0.06607363 -0.06605519 -0.06603522 -0.06601514 -0.06599868 -0.06598788 -0.06598482 -0.06599114 -0.06600474
 -0.06602604 -0.06604924 -0.06607384 -0.0660937 -0.06610827 -0.06611452 -0.06611243 -0.06610376 -0.066089 -0.06607302
 -0.06605599 -0.06604149 -0.06602874 -0.06601723 -0.06600632 -0.06599378 -0.06598126 -0.06596962 -0.06596179 -0.06596176
 -0.06596871 -0.06598497 -0.06600352 -0.06602231 -0.06603393 -0.06603476 -0.06602514 -0.06600352 -0.06597789 -0.06594903
 -0.0659237 -0.06590264 -0.06588605 -0.06587385 -0.06586242 -0.06585172 -0.06583979 -0.0658268 -0.06581251 -0.0657969
 -0.06577951 -0.06576074 -0.0657404 -0.06572091 -0.0657054 -0.06569619 -0.06569776 -0.06570779 -0.06572762 -0.06574949
 -0.06577028 -0.06578409 -0.06578735 -0.06578243 -0.06576876 -0.06575201 -0.06573317 -0.06571286 -0.0656913 -0.06566602
 -0.06563704 -0.06560714 -0.06557683 -0.06555249 -0.06553363 -0.06552166 -0.06551484 -0.06550811 -0.06550138 -0.06549139
 -0.0654804 -0.06547067 -0.06546273 -0.06545894 -0.06545608 -0.06545272 -0.06544617 -0.06543381 -0.06541837 -0.06539962
 -0.06538288 -0.06536968 -0.06536064 -0.06535656 -0.06535237 -0.06534775 -0.06533884 -0.06532556 -0.06530957 -0.06529114
 -0.0652739 -0.06525733 -0.06524097 -0.06522365 -0.06520122 -0.06517383 -0.06513894 -0.06509953 -0.06505808 -0.06501921
 -0.06498838 -0.06496859 -0.06496457 -0.06497378 -0.06499785 -0.06502753 -0.06506105 -0.0650875 -0.06510373 -0.06510621
 -0.0650931 -0.06507215 -0.06504359 -0.06501924 -0.06499956 -0.06498904 -0.06498697 -0.06498832 -0.06499237 -0.06499286
 -0.0649903 -0.06498316 -0.06497188 -0.06495694 -0.06493794 -0.06491416 -0.06488622 -0.06485366 -0.06481975 -0.06478618
 -0.06475671 -0.06473394 -0.06471846 -0.06471175 -0.06470992 -0.06471302 -0.0647141 -0.06471229 -0.06470215 -0.06468289
 -0.06465644 -0.064623 -0.06459156 -0.0645624 -0.06454226 -0.06453014 -0.06452484 -0.06452505 -0.06452575 -0.06452718
 -0.06452747 -0.06452711 -0.0645267 -0.06452473 -0.06452016 -0.06451092 -0.06449476 -0.06447215 -0.06444231 -0.0644078
 -0.0643694 -0.06432849 -0.06428546 -0.06424116 -0.06419531 -0.06415246 -0.0641128 -0.06408294 -0.06406314 -0.06405394
 -0.06405466 -0.06405836 -0.06406455 -0.06406662 -0.06406564 -0.06406165 -0.06405543 -0.06404918 -0.06404189 -0.06403305
 -0.0640217 -0.06400635 -0.06398743 -0.06396485 -0.06393888 -0.06390949 -0.06387726 -0.06384169 -0.06380656 -0.06377225
 -0.06374381 -0.06372245 -0.06370766 -0.06369974 -0.06369314 -0.06368758 -0.06367926 -0.06366824 -0.06365427 -0.06363711
 -0.06361523 -0.06358813 -0.06355261 -0.06351002 -0.06346089 -0.06340861 -0.06335861 -0.06331301 -0.06327687 -0.06324831
 -0.06322813 -0.06321237 -0.06319918 -0.06318628 -0.06317247 -0.06315681 -0.06313909 -0.06311756 -0.06309193 -0.06306126
 -0.06302518 -0.06298803 -0.06295006 -0.06291921 -0.0628956 -0.06288357 -0.06288239 -0.06289015 -0.06290635 -0.06292776
 -0.06295563 -0.06299058 -0.06303531 -0.06309398 -0.063169 -0.06326478 -0.06338159 -0.0635221 -0.06368197 -0.06386161
 -0.06405015 -0.06424539 -0.06443307 -0.06460888 -0.06476752 -0.06490548 -0.06503924 -0.06516905 -0.06532478 -0.06550777
 -0.06572255 -0.06596492 -0.06618955 -0.06639066 -0.06651031 -0.06655335 -0.0665049 -0.0663735 -0.0661706 -0.06590258
 -0.06557801 -0.06521803 -0.06484412 -0.06448419 -0.06416594 -0.0639037 -0.0637119 -0.06359493 -0.06355818 -0.06359834
 -0.06372019 -0.06389349 -0.06411947 -0.0643317 -0.06452437 -0.0646494 -0.06470441 -0.06469889 -0.06463465 -0.06453567
 -0.06440192 -0.06424367 -0.0640627 -0.06386813 -0.06366682 -0.06347877 -0.06330865 -0.06317606 -0.06307214 -0.06299797
 -0.06293482 -0.06286861 -0.06278823 -0.06268084 -0.06255566 -0.06241105 -0.06226562 -0.06212358 -0.06199662 -0.06188782
 -0.06179743 -0.06172613 -0.06166743 -0.06162098 -0.06157622 -0.06153275 -0.06148211 -0.06142492 -0.06135994 -0.06128855
 -0.06121497 -0.0611397 -0.06106614 -0.06099374 -0.06092298 -0.06085373 -0.06078564 -0.06071968 -0.06065644 -0.06059673
 -0.0605417 -0.0604896 -0.06044069 -0.06039063 -0.06033828 -0.06028156 -0.06021915 -0.06015696 -0.06009503 -0.06004439
 -0.06000564 -0.05998399 -0.0599787 -0.05998211 -0.05999246 -0.05999527 -0.0599907 -0.05997052 -0.05993837 -0.05989827
 -0.05985415 -0.0598152 -0.05978015 -0.05975226 -0.0597257 -0.05969637 -0.05966225 -0.05961934 -0.05957447 -0.05952864
 -0.05948996 -0.05946157 -0.05944267 -0.05943442 -0.05942819 -0.05942326 -0.05941335 -0.05939808 -0.05937823 -0.05935407
 -0.05932974 -0.05930501 -0.05928095 -0.05925639 -0.05922769 -0.05919405 -0.05915101 -0.05910026 -0.0590417 -0.05897931
 -0.05891754 -0.05885895 -0.0588078 -0.05876229 -0.05872311 -0.05868637 -0.05865042 -0.05861423 -0.05857668 -0.05854085
 -0.05850709 -0.05847756 -0.05845277 -0.05843009 -0.0584094 -0.05838493 -0.05835659 -0.05832155 -0.05828055 -0.05823631
 -0.0581897 -0.05814542 -0.05810333 -0.05806558 -0.05803138 -0.0580003 -0.05797191 -0.0579453 -0.05792093 -0.05789891
 -0.05787948 -0.05786334 -0.05784857 -0.05783533 -0.05781883 -0.05779791 -0.05776932 -0.05773174 -0.05768846 -0.0576393
 -0.05759246 -0.05754841 -0.05751315 -0.0574866 -0.05746889 -0.05745938 -0.05745455 -0.05745376 -0.05745305 -0.05745178
 -0.05744639 -0.0574366 -0.05742011 -0.05739763 -0.05736872 -0.05733526 -0.05729833 -0.05726032 -0.05722265 -0.05718743
 -0.05715574 -0.05712869 -0.05710686 -0.05709019 -0.0570791 -0.05707086 -0.05706549 -0.05705727 -0.05704586 -0.0570263
 -0.05699875 -0.05696437 -0.05692383 -0.05688228 -0.05683932 -0.05679642 -0.05675234 -0.05670387 -0.05665253 -0.05659832
 -0.05654575 -0.05650062 -0.05646428 -0.05644153 -0.05642623 -0.05641715 -0.05640615 -0.05638922 -0.05636444 -0.05632967
 -0.05628965 -0.05624456 -0.05620037 -0.05615773 -0.05611991 -0.05608714 -0.05605894 -0.05603512 -0.05601268 -0.05599142
 -0.05596841 -0.05594413 -0.0559186 -0.05589261 -0.05586813 -0.05584542 -0.05582604 -0.05580937 -0.05579541 -0.05578326
 -0.05577236 -0.05576164 -0.0557505 -0.05573779 -0.0557229 -0.05570533 -0.0556847 -0.0556616 -0.05563606 -0.05560873
 -0.05557973 -0.05554912 -0.05551691 -0.05548352 -0.05544905 -0.05541506 -0.05538172 -0.05535087 -0.05532251 -0.05529774
 -0.05527624 -0.05525803 -0.0552422 -0.05522756 -0.05521242 -0.05519428 -0.05517222 -0.05514388 -0.05511162 -0.0550753
 -0.05504 -0.05500789 -0.05498121 -0.05496186 -0.05494556 -0.05493227 -0.05491529 -0.05489366 -0.0548663 -0.05483302
 -0.05480034 -0.0547686 -0.05474488 -0.05472858 -0.05471982 -0.05471662 -0.05471162 -0.05470322 -0.05468299 -0.05465224
 -0.05460835 -0.05455599 -0.05449925 -0.05444323 -0.05439395 -0.05435287 -0.05432324 -0.0543021 -0.05428951 -0.05428083
 -0.05427498 -0.05426827 -0.05425993 -0.05424762 -0.05423091 -0.05420991 -0.05418459 -0.05415767 -0.0541293 -0.05410231
 -0.05407643 -0.05405128 -0.05402615 -0.05399795 -0.05396648 -0.05392923 -0.05388733 -0.05384127 -0.05379308 -0.05374556
 -0.05369964 -0.05365743 -0.05361778 -0.05358057 -0.05354479 -0.05350946 -0.0534765 -0.05344617 -0.05342064 -0.05340088
 -0.05338417 -0.05337059 -0.05335409 -0.05333423 -0.05330961 -0.05328052 -0.05325268 -0.05322634 -0.05320669 -0.05319222
 -0.05318005 -0.05316793 -0.05314782 -0.0531203 -0.05308148 -0.0530361 -0.05298821 -0.05294232 -0.05290464 -0.05287432
 -0.05285362 -0.05283701 -0.0528229 -0.05280677 -0.05278689 -0.0527619 -0.05273109 -0.05269542 -0.05265465 -0.05261308
 -0.05257094 -0.05253428 -0.05250318 -0.05247903 -0.05246083 -0.05244196 -0.05242181 -0.05239347 -0.05235894 -0.05231943
 -0.05227808 -0.05224184 -0.05221049 -0.05218773 -0.05216887 -0.05215132 -0.05213077 -0.05210302 -0.0520692 -0.05202811
 -0.05198441 -0.05193924 -0.05189538 -0.05185375 -0.051814 -0.05177617 -0.05173969 -0.0517045 -0.05166996 -0.05163592
 -0.05159984 -0.05156157 -0.0515187 -0.05147192 -0.05142244 -0.05137144 -0.05132259 -0.05127653 -0.05123612 -0.05120154
 -0.05117461 -0.05115408 -0.05114068 -0.05112941 -0.05111825 -0.05110087 -0.05107355 -0.05103529 -0.05098387 -0.0509261
 -0.05086239 -0.05080146 -0.05074448 -0.05069561 -0.05065528 -0.0506215 -0.05059393 -0.05056598 -0.0505372 -0.05050067
 -0.05045715 -0.0504054 -0.0503477 -0.05028942 -0.05023233 -0.05018255 -0.05013971 -0.05010642 -0.05007991 -0.05005916
 -0.05004015 -0.05002041 -0.04999646 -0.04996585 -0.04992862 -0.04988376 -0.04983475 -0.049782 -0.04972866 -0.04967523
 -0.04962273 -0.04957125 -0.04952041 -0.04947028 -0.04942205 -0.04937616 -0.04933666 -0.04930375 -0.04928129 -0.04926759
 -0.04926098 -0.04925772 -0.04925008 -0.04923567 -0.04920724 -0.04916691 -0.04911318 -0.0490513 -0.04898369 -0.04891539
 -0.04884908 -0.04878771 -0.04873301 -0.04868452 -0.04864302 -0.04860358 -0.04856601 -0.04852332 -0.04847495 -0.04841926
 -0.04835651 -0.04829294 -0.04822903 -0.04817182 -0.04812052 -0.04807581 -0.04803602 -0.04799666 -0.04795728 -0.04791467
 -0.04786983 -0.04782283 -0.04777433 -0.04772508 -0.04767502 -0.04762397 -0.04757313 -0.0475228 -0.04747448 -0.04742911
 -0.04738517 -0.04734285 -0.04729857 -0.04725183 -0.04720129 -0.04714676 -0.04708988 -0.04703076 -0.04697141 -0.04691192
 -0.0468538 -0.04679684 -0.04674125 -0.04668599 -0.04662814 -0.0465673 -0.04650003 -0.04642981 -0.046359 -0.04629286
 -0.04623827 -0.04619429 -0.04616398 -0.04613953 -0.04611866 -0.04609416 -0.04606303 -0.04602351 -0.04597454 -0.04591751
 -0.04585237 -0.04578123 -0.04570409 -0.04562673 -0.04554958 -0.04548159 -0.04542258 -0.04537612 -0.04533991 -0.04530606
 -0.04527198 -0.04522527 -0.0451675 -0.04509491 -0.04501238 -0.04492482 -0.04483601 -0.04475095 -0.04467224 -0.0446029
 -0.04454422 -0.04449858 -0.04446163 -0.04443394 -0.04440479 -0.04437228 -0.04432812 -0.04427037 -0.04420162 -0.04412173
 -0.04403986 -0.04395641 -0.04387819 -0.04380492 -0.0437377 -0.04367559 -0.04361516 -0.04355551 -0.04349197 -0.04342497
 -0.04335285 -0.04327693 -0.0431986 -0.04311806 -0.04303617 -0.04295238 -0.04286597 -0.04277867 -0.04269062 -0.04260505
 -0.04252309 -0.04244599 -0.04237436 -0.04230731 -0.04224478 -0.04218631 -0.04213192 -0.04208041 -0.04203156 -0.04198011
 -0.04192514 -0.04185626 -0.04177339 -0.0416691 -0.04154705 -0.04141326 -0.04127243 -0.04113765 -0.04100868 -0.04089152
 -0.04078205 -0.04067831 -0.04057746 -0.04047644 -0.04037597 -0.04027523 -0.04017702 -0.0400822 -0.03999196 -0.03990737
 -0.03982449 -0.0397438 -0.03965357 -0.03955302 -0.03943143 -0.03928873 -0.03913055 -0.03895814 -0.03878518 -0.03861119
 -0.03844124 -0.03827367 -0.03810611 -0.03793771 -0.03776575 -0.03758979 -0.0374078 -0.03722068 -0.0370276 -0.03683262
 -0.03663811 -0.03644721 -0.03626332 -0.03608204 -0.03590316 -0.03572059 -0.03553188 -0.03534098 -0.03514777 -0.03495915
 -0.03477592 -0.03459445 -0.03441452 -0.03423022 -0.03404211 -0.03385312 -0.03366379 -0.03347956 -0.0332974 -0.03311197
 -0.03291857 -0.03270339 -0.03246863 -0.03220926 -0.03193527 -0.03165501 -0.03137431 -0.03110013 -0.03083276 -0.03057371
 -0.03032345 -0.03008283 -0.0298501 -0.02962715 -0.02939926 -0.02916671 -0.02889846 -0.02859184 -0.0282305 -0.02781498
 -0.0273822 -0.02693472 -0.02651376 -0.02611412 -0.0257325 -0.02536315 -0.0249864 -0.024602 -0.02420085 -0.0237827
 -0.02334647 -0.02288327 -0.02238658 -0.02184172 -0.02123417 -0.02056473 -0.01982214 -0.01904301 -0.0182328 -0.01743694
 -0.01666774 -0.01594061 -0.01526032 -0.01462197 -0.01402596 -0.01346015 -0.01292339 -0.01238596 -0.01184381 -0.01124358
 -0.01058819 -0.009854408 -0.009066519 -0.008290008 -0.007535393 -0.006864031 -0.006253527 -0.005697262 -0.005175516 -0.004663988
 -0.004158331 -0.003648598 -0.003134321 -0.002612983 -0.002085051 -0.001547033 -0.001015419 -0.0004920508 3.732905E-06 0.0004672136
 0.0009050136 0.001317013 0.00171723 0.002105736 0.002468046 0.002802232 0.003081891 0.00331006 0.003485545 0.00361732
 0.003731613 0.003836289 0.003964256 0.00410805 0.004273206 0.004444346 0.004604669 0.004754336 0.004887498 0.00500995
 0.005124499 0.005229561 0.005325605 0.005408867 0.005477822 0.005534918 0.005579663 0.005620316 0.005657542 0.005696907
 0.005738486 0.005776369 0.005809898 0.005830129 0.005837364 0.005828401 0.005804104 0.005764536 0.005712474 0.005652352
 0.005589928 0.005535669 0.005492745 0.005468813 0.005462824 0.005474999 0.005508485 0.005563424 0.005647788 0.00576522
 0.005915881 0.006101368 0.006314532 0.006554109 0.006819576 0.007110667 0.007430583 0.007779338 0.008152589 0.008549572
 0.008960708 0.009385966 0.009820169 0.01026397 0.01071663 0.01117896 0.01165169 0.01213709 0.01263826 0.01315855
 0.01370282 0.01427212 0.01486984 0.01549185 0.01613842 0.0168006 0.01747621 0.01815591 0.01883749 0.01951421
 0.02018528 0.02084284 0.02148617 0.02210922 0.02271198 0.02330711 0.02389665 0.02450977 0.02514235 0.02579299
 0.02644694 0.02705263 0.02760779 0.02807779 0.02847872 0.02882171 0.02911508 0.02937492 0.02959445 0.02977473
 0.02990584 0.02998764 0.02999594 0.02993115 0.02973509 0.02939198 0.02887728 0.02817172 0.02739264 0.02654828
 0.02573173 0.02494636 0.02414834 0.02333437 0.02245319 0.02150941 0.02050163 0.0194354 0.01833308 0.01718515
 0.01598822 0.01471548 0.0133117 0.01179734 0.01013925 0.008468445 0.006878091 0.005428701 0.004203063 0.00310519
 0.002120066 0.001168174 0.000220451 -0.0007176678 -0.001651807 -0.002545441 -0.003394513 -0.004197716 -0.004955209 -0.005697952
 -0.006426786 -0.007162663 -0.0079019 -0.008636237 -0.009360741 -0.01005396 -0.01071581 -0.01133477 -0.01191506 -0.0124579
 -0.0129678 -0.01344851 -0.01390763 -0.01434829 -0.0147876 -0.01523388 -0.01570254 -0.01620924 -0.01672128 -0.01724022
 -0.01769971 -0.01808498 -0.01839852 -0.01863712 -0.01884646 -0.01902867 -0.01920682 -0.01937984 -0.01954245 -0.01969357
 -0.01982412 -0.01993608 -0.02003229 -0.02011283 -0.02018075 -0.02023156 -0.02025902 -0.02026143 -0.02023267 -0.02017866
 -0.02010196 -0.02000714 -0.01989877 -0.0197731 -0.01963114 -0.0194634 -0.01926942 -0.01903374 -0.01875581 -0.01840921
 -0.01799122 -0.01748529 -0.01689088 -0.01625055 -0.01556913 -0.01491926 -0.01429847 -0.01373047 -0.0132088 -0.01272197
 -0.012271 -0.01185367 -0.01147021 -0.01112574 -0.01080377 -0.01049248 -0.01016612 -0.009794896 -0.009387029 -0.008928071
 -0.00847265 -0.00803997 -0.00765364 -0.007328104 -0.00704017 -0.006788612 -0.006551228 -0.006325184 -0.006107667 -0.005898461
 -0.005705519 -0.005528573 -0.005368022 -0.005220856 -0.005071865 -0.004915479 -0.00472477 -0.00449616 -0.004205735 -0.003859338
 -0.003454624 -0.003000849 -0.002509732 -0.001979946 -0.001414035 -0.0008099923 -0.0001633098 0.0005113502 0.001212128 0.001917088
 0.002618869 0.00331421 0.003999755 0.004691921 0.005392468 0.006106758 0.006835022 0.007543114 0.008227753 0.008838206
 0.009373839 0.009806127 0.01013529 0.01034872 0.01044285 0.0104029 0.010227 0.009903065 0.009438442 0.008833562
 0.008104798 0.007262416 0.00632562 0.005305866 0.00421901 0.003071388 0.00187901 0.0006423182 -0.0006035981 -0.001856761
 -0.003063516 -0.004217923 -0.005293712 -0.006289239 -0.007226473 -0.008106997 -0.008958893 -0.009778871 -0.01056231 -0.01130369
 -0.01197822 -0.01258975 -0.0131324 -0.01361846 -0.01406567 -0.01448165 -0.01488358 -0.01526893 -0.01564199 -0.01599613
 -0.01632859 -0.01663571 -0.01691512 -0.01716706 -0.01739041 -0.01759019 -0.01776613 -0.01792943 -0.01808112 -0.01823
 -0.01837663 -0.01851383 -0.01864033 -0.01873637 -0.01880256 -0.01883088 -0.01882618 -0.01880153 -0.01876092 -0.01872132
 -0.01868141 -0.01864767 -0.01861458 -0.01857837 -0.01853448 -0.01847642 -0.01840764 -0.01832571 -0.01824404 -0.01816601
 -0.01810556 -0.01806757 -0.01805565 -0.01807195 -0.01811029 -0.01817063 -0.01824291 -0.01832657 -0.0184133 -0.01850287
 -0.01859055 -0.01867618 -0.01875679 -0.01883138 -0.01889472 -0.01894619 -0.01898075 -0.01900067 -0.0190067 -0.0190031
 -0.01899561 -0.01898523 -0.01897563 -0.01896305 -0.01894669 -0.01892243 -0.01888821 -0.01884302 -0.01878585 -0.01871853
 -0.01864067 -0.01855802 -0.01847072 -0.01838834 -0.01831141 -0.01824852 -0.01819955 -0.01816508 -0.01814386 -0.01812842
 -0.01811772 -0.01810308 -0.01808629 -0.01806628 -0.0180477 -0.01803819 -0.01804 -0.01806078 -0.01809484 -0.01814178
 -0.01819103 -0.01823641 -0.01827198 -0.01829285 -0.01830215 -0.01829921 -0.01829045 -0.0182769 -0.01826251 -0.01824786
 -0.01823419 -0.01822158 -0.01821104 -0.01820247 -0.01819476 -0.01818708 -0.01817402 -0.01815446 -0.0181208 -0.01807371
 -0.01801047 -0.01793361 -0.01784622 -0.01775009 -0.01764883 -0.01754248 -0.01743201 -0.01731791 -0.01720034 -0.01708087
 -0.01696004 -0.01683919 -0.01671871 -0.0165996 -0.01648218 -0.01636641 -0.0162527 -0.01613584 -0.0160156 -0.01588121
 -0.01573211 -0.01555776 -0.01535858 -0.01513053 -0.0148771 -0.01460639 -0.01432749 -0.01406488 -0.01383007 -0.01365562
 -0.01354243 -0.01351011 -0.01353802 -0.01362076 -0.01372472 -0.01383059 -0.01391299 -0.01395626 -0.01395441 -0.01390163
 -0.01380508 -0.01366445 -0.01349092 -0.01328552 -0.0130574 -0.01280722 -0.01253782 -0.01224878 -0.01193361 -0.01159128
 -0.01121053 -0.01079328 -0.01033697 -0.009852691 -0.009361783 -0.008885913 -0.008470478 -0.008134134 -0.007923121 -0.007827672
 -0.007865774 -0.007988597 -0.008179403 -0.008379572 -0.008558961 -0.00869785 -0.008778404 -0.00883384 -0.008864627 -0.008918308
 -0.00900152 -0.009127193 -0.009297079 -0.00947652 -0.009662544 -0.009800877 -0.009892077 -0.009908763 -0.009862766 -0.009782075
 -0.009684171 -0.009630687 -0.009623752 -0.009702424 -0.009842082 -0.01003079 -0.01023952 -0.01043497 -0.01061583 -0.01076751
 -0.01091249 -0.01105832 -0.0112139 -0.01138782 -0.0115576 -0.01172238 -0.01185125 -0.01193994 -0.01197847 -0.0119657
 -0.01191441 -0.01182559 -0.01171725 -0.01158962 -0.01145281 -0.01130622 -0.01115259 -0.01099191 -0.0108252 -0.01065344
 -0.01047882 -0.01030202 -0.01012527 -0.009947193 -0.009768095 -0.009584213 -0.009393392 -0.009193243 -0.008981252 -0.008760982
 -0.008532078 -0.008302099 -0.008072279 -0.007848047 -0.007630255 -0.007420575 -0.007219191 -0.007025931 -0.006840519 -0.006658247
 -0.006478146 -0.006290697 -0.006096051 -0.00588882 -0.00567176 -0.005449346 -0.00522384 -0.005002389 -0.004783092 -0.004567304
 -0.004350252 -0.004128421 -0.003897985 -0.003655281 -0.003399938 -0.003130182 -0.002849921 -0.002559629 -0.002263688 -0.001963132
 -0.00165926 -0.001352204 -0.00104373 -0.0007338457 -0.0004295476 -0.0001311378 0.0001554186 0.0004308023 0.0006972306 0.0009553328
 0.001209371 0.001458233 0.001701084 0.001936822 0.002162755 0.002379147 0.00258505 0.00278157 0.002968596 0.003149515
 0.003326176 0.003501446 0.003678596 0.003851757 0.004020368 0.00417698 0.004318126 0.004453599 0.004583008 0.00472821
 0.004890874 0.005075842 0.005282196 0.005489988 0.005697777 0.005884412 0.006052434 0.006199881 0.006332502 0.006464792
 0.006600227 0.006754112 0.006921192 0.007103442 0.007287966 0.007464079 0.007622816 0.007753887 0.007860064 0.007939469
 0.007998612 0.008039402 0.00806399 0.008072941 0.008067935 0.008048964 0.008020092 0.007981567 0.007936924 0.007886403
 0.007834075 0.007780529 0.007732131 0.007689291 0.007656512 0.007635056 0.007628621 0.00764299 0.0076889 0.007775122
 0.007918262 0.00812063 0.008394185 0.008724583 0.009114281 0.00952308 0.009944484 0.01030971 0.01060382 0.01075162
 0.01073498 0.01051913 0.01009288 0.009494056 0.008722728 0.007874308 0.00695426 0.006065052 0.005208042 0.004443392
 0.003763999 0.003173637 0.002662 0.002202671 0.00179032 0.001402584 0.00103869 0.0006893003 0.0003534327 2.728147E-05
 -0.000289881 -0.0005997584 -0.0009016278 -0.001195257 -0.00148129 -0.001759751 -0.002031766 -0.00229775 -0.002556826 -0.002808653
 -0.003055379 -0.003296922 -0.003542479 -0.0037924 -0.004053004 -0.004323483 -0.004600383 -0.00488267 -0.005163912 -0.005444152
 -0.005720426 -0.005992744 -0.006259693 -0.006521494 -0.006777422 -0.007029058 -0.007277763 -0.007524152 -0.007769739 -0.008012004
 -0.008250913 -0.008481647 -0.008703535 -0.008909567 -0.009098407 -0.009264389 -0.009405831 -0.009528174 -0.009631303 -0.009732395
 -0.009832208 -0.009944438 -0.01006824 -0.01020333 -0.0103477 -0.01049274 -0.01063652 -0.01076949 -0.01089039 -0.01099135
 -0.01107487 -0.01113925 -0.01119243 -0.01124034 -0.01129111 -0.0113521 -0.01142609 -0.01151699 -0.01162138 -0.0117405
 -0.01186384 -0.01199074 -0.01210567 -0.01220658 -0.0122838 -0.01233619 -0.01236648 -0.01237499 -0.01237027 -0.01235284
 -0.01233033 -0.01230307 -0.01227735 -0.01225193 -0.01222742 -0.01220046 -0.01216393 -0.01211799 -0.01205777 -0.01199068
 -0.01192165 -0.01185735 -0.01180546 -0.01176248 -0.01172983 -0.01169913 -0.01166757 -0.01163247 -0.01159206 -0.01155078
 -0.01150896 -0.01147058 -0.01143617 -0.01140285 -0.01137031 -0.01133044 -0.0112832 -0.01122423 -0.01115502 -0.01107982
 -0.01100023 -0.01092301 -0.01084877 -0.01078126 -0.01072218 -0.01067528 -0.01064195 -0.01062705 -0.01062381 -0.01063204
 -0.01063623 -0.01062971 -0.01060108 -0.01054399 -0.01046053 -0.01034911 -0.0102194 -0.01007239 -0.009915311 -0.009748778
 -0.009576996 -0.009400285 -0.009224984 -0.009051686 -0.008888738 -0.008735678 -0.008595237 -0.008465687 -0.008342563 -0.008226571
 -0.008115495 -0.008014494 -0.007930383 -0.007865204 -0.007826576 -0.007804387 -0.007797149 -0.007786413 -0.007763737 -0.007716291
 -0.007636467 -0.007527435 -0.007385808 -0.007233819 -0.007072325 -0.006933612 -0.006820348 -0.006751718 -0.006727851 -0.006736849
 -0.006775576 -0.006811304 -0.006842332 -0.006842153 -0.006814168 -0.006753229 -0.00666659 -0.006565752 -0.006457425 -0.006356631
 -0.006264373 -0.006188563 -0.006123028 -0.00606678 -0.006011798 -0.005953628 -0.005889489 -0.005816325 -0.005739712 -0.005659285
 -0.005586369 -0.005522681 -0.005473929 -0.005441462 -0.005410225 -0.005379028 -0.005316355 -0.005222221 -0.005080883 -0.004899083
 -0.004699405 -0.004490292 -0.004311947 -0.004160829 -0.004053321 -0.003971514 -0.003896911 -0.003815889 -0.003703116 -0.003569006
 -0.003408357 -0.003248638 -0.003102343 -0.00298391 -0.002904721 -0.002849881 -0.002820135 -0.002789572 -0.002754136 -0.002703212
 -0.002635 -0.002558907 -0.002475473 -0.002398409 -0.002327327 -0.002264587 -0.002208101 -0.002148462 -0.00208533 -0.002011568
 -0.001930823 -0.001847869 -0.00176406 -0.001686911 -0.001606099 -0.00151657 -0.0014022 -0.001246824 -0.001053547 -0.0008121349
 -0.000559292 -0.0003010094 -8.188462E-05 8.445986E-05 0.000190146 0.0002284232 0.0002368863 0.0002174589 0.0002113517 0.0002199699
 0.0002478666 0.0002927136 0.0003326818 0.0003682998 0.0003891553 0.0004012873 0.0004178003 0.0004438234 0.0004980414 0.000577995
 0.0006906341 0.0008247815 0.0009735604 0.001122655 0.001259277 0.001377904 0.001470184 0.001545337 0.001603367 0.001658292
 0.001713609 0.001775435 0.001845768 0.001920916 0.002001004 0.002077339 0.002149486 0.002209539 0.00225788 0.002294769
 0.002321762 0.002346748 0.002370784 0.002400741 0.002437989 0.002487824 0.002553255 0.002642295 0.002752706 0.002888434
 0.003036317 0.003188836 0.003334989 0.00346492 0.003583933 0.003690149 0.003796896 0.003907087 0.00402774 0.004160599
 0.004306004 0.004464465 0.004629395 0.004800285 0.004961452 0.005112023 0.005237075 0.005337087 0.005406965 0.005447126
 0.005455126 0.00543355 0.005383371 0.00531547 0.005244521 0.005183692 0.005154291 0.005156023 0.005198182 0.005266939
 0.005358389 0.005460118 0.005566681 0.005673483 0.005778251 0.005881468 0.00598284 0.006084182 0.006185845 0.006284613
 0.006380328 0.006468963 0.00655142 0.006635607 0.006722961 0.006827137 0.006944588 0.007072274 0.007203551 0.007321291
 0.007424775 0.007505043 0.007564887 0.007605167 0.007624583 0.007621285 0.007598391 0.007553674 0.007502935 0.007450526
 0.007409582 0.007385073 0.007376133 0.007383183 0.007405051 0.007441429 0.007496867 0.00757147 0.007661781 0.007766388
 0.00786927 0.007968577 0.008045304 0.008100662 0.00812481 0.008128487 0.008127346 0.00813771 0.008195257 0.008297562
 0.008461999 0.008661308 0.008881466 0.009100884 0.009301418 0.009487214 0.009654642 0.009816239 0.009975999 0.01013169
 0.01028385 0.01042703 0.01056081 0.01068106 0.01078754 0.01087523 0.01094502 0.01100484 0.0110563 0.01111531
 0.01117653 0.01123211 0.01127305 0.0112721 0.01123306 0.01114649 0.0110281 0.01089107 0.01074727 0.01060975
 0.01048369 0.01037501 0.01028492 0.01021525 0.01016455 0.01013135 0.01012301 0.01013957 0.0101951 0.01029221
 0.01041729 0.01056941 0.01070278 0.0108168 0.01088731 0.01092087 0.01094237 0.0109548 0.01098667 0.0110244
 0.01105301 0.01105644 0.01099492 0.01088355 0.01071319 0.01053254 0.01037501 0.01027365 0.01026504 0.01032039
 0.01044535 0.01057583 0.01069487 0.01077731 0.01081238 0.01083072 0.01083414 0.01084711 0.01087079 0.010897
 0.01092627 0.01096224 0.0110073 0.01107981 0.01117568 0.0112909 0.01141987 0.011547 0.01167157 0.01178965
 0.01189072 0.01196512 0.01199522 0.01195751 0.01186683 0.01171387 0.01155568 0.01140831 0.01132073 0.0113121
 0.01138232 0.01153878 0.01173599 0.01197237 0.01218233 0.01236237 0.01247045 0.0125092 0.01249733 0.0124421
 0.01239652 0.01235964 0.0123576 0.01238218 0.01242626 0.01248603 0.0125537 0.01262416 0.01269146 0.01274443
 0.0127697 0.01277103 0.01274183 0.01270714 0.01267592 0.01265921 0.01266639 0.01267167 0.01267401 0.01263847
 0.01256003 0.01243978 0.01227772 0.01212476 0.01198408 0.01191363 0.01190741 0.01196526 0.01206996 0.01215992
 0.01222729 0.01221761 0.01214654 0.01201157 0.01183881 0.01165533 0.01148252 0.01134669 0.01125428 0.01122204
 0.01122445 0.01126202 0.01128609 0.01128366 0.01123011 0.01111597 0.01096045 0.01076353 0.01055602 0.0103396
 0.01013314 0.009937295 0.009765572 0.009617694 0.009500473 0.00941074 0.009341679 0.009289024 0.009240018 0.009190801
 0.009129466 0.00905437 0.008955432 0.008844296 0.008723524 0.00861359 0.008530254 0.008470139 0.008441137 0.008411093
 0.008372751 0.008307673 0.008209602 0.008088424 0.007944777 0.00778247 0.00760175</values></Ydata></AB><ScSm><Ydata ylabel="Single channel"><values byteorder="INTEL" format="FLOAT32" numvalues="1814"> 0.07473592 0.07475442 0.07483424 0.07499561 0.07520971 0.07541575 0.07556285 0.07564195 0.07567041 0.07565342
 0.07559384 0.07554109 0.07558227 0.07575683 0.07600018 0.07618812 0.07623753 0.07618026 0.07614417 0.07622795
 0.07636942 0.07636528 0.07606235 0.07553153 0.07502057 0.07472455 0.07466486 0.07483724 0.07533263 0.07609536
 0.07665692 0.07647561 0.07562117 0.07479841 0.07456198 0.07478315 0.07498761 0.07489909 0.07452106 0.07402876
 0.07381642 0.07438934 0.07586864 0.07758746 0.07833016 0.07709216 0.07379318 0.06952085 0.06614174 0.06529706
 0.06723523 0.07047521 0.07292251 0.07354285 0.0728555 0.0718751 0.07103115 0.0702943 0.06985919 0.07017366
 0.07130867 0.07254711 0.07274704 0.07130174 0.06886256 0.0668979 0.06636661 0.06710365 0.06857951 0.07047626
 0.0719033 0.07095129 0.06656779 0.06092806 0.05846215 0.06164343 0.06835296 0.07396927 0.07548464 0.07315657
 0.06913631 0.06568971 0.06437714 0.0656274 0.06862636 0.07200225 0.07467483 0.07591282 0.07514659 0.07245895
 0.06906554 0.0667177 0.06662562 0.06899713 0.07299694 0.07680364 0.07843389 0.07721769 0.07424675 0.07120907
 0.06927362 0.06910434 0.07102095 0.07465128 0.07891791 0.08268126 0.08521228 0.08623916 0.08598481 0.08503266
 0.08388634 0.08289132 0.0825564 0.08323896 0.08430842 0.08438754 0.08286346 0.0807143 0.07950221 0.07975788
 0.08055705 0.08063942 0.07967841 0.07805812 0.07562022 0.07167805 0.06657992 0.06208826 0.05961631 0.05917338
 0.0604326 0.06326517 0.06647708 0.06773262 0.06610397 0.0636989 0.06354856 0.06637886 0.07024941 0.07295277
 0.07405744 0.0747577 0.07632008 0.07877782 0.08075456 0.0804937 0.07760242 0.0740386 0.07272637 0.0746858
 0.07805908 0.08040511 0.08127525 0.08193836 0.08316901 0.08405495 0.08294114 0.07938452 0.07523511 0.07351074
 0.07576843 0.08054008 0.08438882 0.08445208 0.08037323 0.07440144 0.06963851 0.06788744 0.06915101 0.07279744
 0.07825936 0.08443761 0.08942649 0.09157471 0.09068573 0.08792147 0.08448187 0.08049386 0.07564172 0.07101766
 0.06934893 0.07241002 0.07874498 0.08488607 0.08845409 0.08933899 0.08833126 0.0856391 0.08113113 0.07579546
 0.07221603 0.07256316 0.07598954 0.07911813 0.07958919 0.07820815 0.07719355 0.07738501 0.0779399 0.07807596
 0.07818352 0.07918109 0.08122919 0.08339474 0.08457097 0.08448631 0.08374187 0.08309622 0.08277502 0.08231505
 0.08122519 0.07999349 0.08001653 0.08207247 0.085245 0.08786017 0.08915472 0.08954356 0.08950966 0.08876351
 0.08667736 0.08348888 0.08078462 0.08032097 0.08232126 0.08534046 0.08776513 0.0889692 0.08914798 0.0887282
 0.0880823 0.08741114 0.08681045 0.08653338 0.08692409 0.08792673 0.08897701 0.08956815 0.08966333 0.0894445
 0.08895591 0.08817464 0.08726531 0.08658755 0.08643888 0.08682956 0.08752482 0.08825758 0.08882333 0.08903977
 0.08881211 0.08827312 0.08770326 0.08727671 0.08700373 0.08690286 0.08705462 0.08744472 0.08789062 0.0881929
 0.08829252 0.08824533 0.08810723 0.08789368 0.0876229 0.08736089 0.08721533 0.08726086 0.08745061 0.08764534
 0.08777209 0.08789706 0.08807881 0.08822139 0.08817394 0.08793552 0.0876665 0.08751488 0.08750156 0.08755884
 0.08760524 0.08755995 0.08734239 0.08694093 0.08649915 0.08626091 0.08637562 0.08679146 0.08734836 0.08789699
 0.0883148 0.08852288 0.08854788 0.08849531 0.08842268 0.08829474 0.08808163 0.08785284 0.08775261 0.08788811
 0.08823339 0.08864459 0.08897698 0.08917215 0.08924854 0.08927275 0.0893406 0.08949926 0.08966857 0.08971564
 0.08962554 0.0895312 0.08955665 0.08968084 0.089776 0.08975565 0.0896678 0.0896407 0.08974613 0.08993796
 0.09012625 0.09027912 0.09043495 0.09062858 0.09081772 0.09089536 0.09080003 0.09060407 0.09044841 0.09039648
 0.09040882 0.09045529 0.09057263 0.09078221 0.09101385 0.09116226 0.09120033 0.09119874 0.09123107 0.09128565
 0.09128767 0.09119403 0.09104302 0.09091553 0.09086855 0.09090447 0.09098011 0.09103615 0.09103221 0.09096813
 0.09087507 0.09078391 0.09070411 0.090641 0.09063055 0.09072898 0.09093827 0.09115253 0.09121905 0.09107478
 0.09081184 0.09059408 0.0905087 0.09050332 0.09046033 0.09031755 0.09011076 0.0899169 0.08978002 0.0896923
 0.08962332 0.08955608 0.08950879 0.08952917 0.08964724 0.08981626 0.08992077 0.08987456 0.08970549 0.0895234
 0.0894158 0.08939512 0.08942518 0.08946584 0.08950406 0.08956378 0.08966886 0.0897862 0.08984154 0.0898087
 0.08974767 0.08974129 0.08983052 0.09001094 0.0902378 0.09042472 0.09049601 0.09046565 0.09042859 0.09045938
 0.09055032 0.09065638 0.09076145 0.09087849 0.0910127 0.09115669 0.0913184 0.09152997 0.09181743 0.09216518
 0.09251529 0.09280641 0.09302394 0.09321851 0.09346919 0.0938171 0.09422939 0.09462863 0.09495932 0.09522947
 0.09548919 0.09577148 0.09606647 0.09636007 0.09667512 0.09704639 0.09746531 0.09788254 0.09826569 0.09862737
 0.09899494 0.09937601 0.09976172 0.1001525 0.1005706 0.1010378 0.1015333 0.1019847 0.1023268 0.1025691
 0.1027932 0.1030874 0.103485 0.1039415 0.1043549 0.1046431 0.1048295 0.1050289 0.1053206 0.105664
 0.1059746 0.1062535 0.1065893 0.1070356 0.1075335 0.1079707 0.108294 0.1085487 0.1088141 0.1091152
 0.1094015 0.1096146 0.109761 0.1099031 0.1100859 0.1103078 0.1105691 0.1109045 0.1113334 0.111804
 0.1122265 0.1125515 0.1127904 0.1129772 0.1131391 0.1132915 0.1134333 0.1135573 0.1136782 0.1138258
 0.1139961 0.1141455 0.1142527 0.1143558 0.1145057 0.1147151 0.1149774 0.1152979 0.1156693 0.1160438
 0.1163792 0.1167037 0.1170854 0.117523 0.1179162 0.1181721 0.1183062 0.1184007 0.1184988 0.1185963
 0.1187156 0.1189186 0.1192335 0.1196163 0.1200035 0.1203723 0.1207356 0.1210996 0.1214407 0.1217147
 0.1218871 0.1219618 0.1219888 0.1220421 0.1221841 0.1224319 0.1227455 0.123056 0.1233099 0.1234818
 0.1235507 0.1235045 0.1233852 0.1232959 0.123314 0.1234017 0.1234282 0.123281 0.1229331 0.1224116
 0.1217444 0.1209561 0.1200989 0.1192614 0.1185392 0.1179992 0.1176762 0.1175987 0.117798 0.1182695
 0.1189308 0.1196442 0.1202844 0.120763 0.1209916 0.1208767 0.1203871 0.1196058 0.118686 0.117767
 0.1169313 0.1162036 0.115564 0.1149961 0.1145586 0.1144022 0.1146953 0.1155312 0.1168893 0.1186403
 0.1205689 0.1224323 0.1240557 0.1253991 0.1265309 0.1275394 0.1284758 0.1293679 0.1302462 0.131123
 0.1319626 0.1327104 0.133352 0.1339198 0.1344452 0.1349259 0.1353379 0.1356596 0.135892 0.1360671
 0.1362239 0.1363626 0.1364436 0.1364432 0.1363879 0.1363137 0.1362129 0.1360366 0.1357388 0.1353147
 0.1348262 0.1344221 0.13432 0.1347246 0.1357159 0.1371943 0.1389393 0.1407328 0.1424292 0.1439327
 0.1451628 0.1460826 0.1467394 0.1472391 0.1476771 0.1481029 0.1485303 0.1489553 0.1493671 0.1497584
 0.1501318 0.1505001 0.150883 0.1512933 0.1517147 0.1521057 0.1524413 0.1527474 0.1530831 0.1534844
 0.1539297 0.1543626 0.1547535 0.1551271 0.155517 0.1559076 0.1562484 0.1565218 0.1567689 0.1570496
 0.157399 0.157814 0.1582496 0.1586374 0.1589347 0.1591612 0.159375 0.1596173 0.1598919 0.1601851
 0.1604862 0.1607873 0.1610827 0.1613777 0.1616907 0.1620311 0.1623736 0.1626702 0.1628996 0.163094
 0.1633062 0.1635568 0.1638214 0.164067 0.1642918 0.1645324 0.1648305 0.1651896 0.1655602 0.165876
 0.1661075 0.1662824 0.1664551 0.1666619 0.1669046 0.1671645 0.1674218 0.167666 0.1678991 0.1681343
 0.1683866 0.1686592 0.1689388 0.1692067 0.1694547 0.169691 0.1699298 0.1701783 0.1704367 0.1707094
 0.1710046 0.1713178 0.1716237 0.1718935 0.1721185 0.172312 0.1724935 0.172679 0.1728812 0.173108
 0.1733576 0.1736173 0.1738722 0.1741151 0.1743495 0.1745831 0.1748201 0.1750603 0.1753036 0.1755527
 0.1758122 0.1760834 0.1763588 0.1766254 0.1768739 0.1771064 0.177334 0.1775684 0.1778139 0.1780629
 0.1782997 0.1785152 0.1787186 0.1789297 0.1791596 0.1794024 0.1796441 0.1798742 0.1800902 0.1802989
 0.1805119 0.1807367 0.1809707 0.1812045 0.1814331 0.1816603 0.181893 0.1821294 0.1823588 0.1825743
 0.1827808 0.182989 0.1832057 0.1834319 0.1836652 0.1839006 0.1841316 0.1843536 0.184567 0.1847795
 0.1850014 0.1852349 0.1854706 0.1856993 0.185922 0.1861438 0.1863656 0.1865858 0.1868057 0.1870285
 0.187257 0.1874935 0.1877372 0.1879824 0.1882216 0.1884492 0.1886671 0.1888869 0.1891211 0.1893707
 0.1896265 0.1898826 0.1901368 0.190383 0.1906123 0.19082 0.1910083 0.1911852 0.1913636 0.1915551
 0.1917628 0.1919806 0.192198 0.1924067 0.1926088 0.1928162 0.1930348 0.1932577 0.1934784 0.1936978
 0.1939164 0.1941323 0.1943468 0.1945635 0.1947831 0.1950067 0.195235 0.195463 0.1956854 0.1959081
 0.1961409 0.1963828 0.1966246 0.1968602 0.1970895 0.1973167 0.197546 0.1977753 0.1980005 0.1982264
 0.1984593 0.1986935 0.1989205 0.1991426 0.1993641 0.1995836 0.1998037 0.2000302 0.2002586 0.2004801
 0.200698 0.2009206 0.2011476 0.2013766 0.2016092 0.2018445 0.2020815 0.2023224 0.2025627 0.2027904
 0.2030047 0.2032164 0.2034326 0.203656 0.2038887 0.2041217 0.2043419 0.2045541 0.2047687 0.2049664
 0.2050874 0.2050003 0.2043888 0.2026195 0.1987228 0.1915901 0.1804202 0.1652267 0.147008 0.1273912
 0.1080341 0.09019709 0.07462171 0.06163096 0.0512925 0.04352007 0.03813538 0.03498017 0.03403889 0.03556137
 0.04018768 0.04856607 0.05993561 0.070878 0.07665229 0.07493734 0.06804844 0.06082584 0.05661529 0.05565359
 0.05651017 0.05796175 0.05962045 0.06171152 0.06462242 0.06846456 0.07305072 0.07836497 0.08479711 0.09264314
 0.1014972 0.1104165 0.1187331 0.126578 0.1345664 0.1430548 0.151766 0.1600631 0.1674554 0.1738439
 0.179426 0.1844754 0.1891861 0.1936473 0.1978951 0.201919 0.2055815 0.2085803 0.210586 0.2114892
 0.2115277 0.2111604 0.2108003 0.2106481 0.2107281 0.2110067 0.2114562 0.2120561 0.2127856 0.2136167
 0.2145111 0.2154317 0.2163534 0.217254 0.218107 0.2188945 0.2196153 0.2202741 0.2208754 0.2214254
 0.2219293 0.222391 0.2228195 0.2232279 0.2236215 0.2239963 0.2243488 0.224677 0.2249779 0.2252518
 0.2255051 0.2257449 0.2259753 0.2262005 0.2264231 0.2266391 0.2268431 0.2270373 0.2272312 0.2274328
 0.2276435 0.2278584 0.2280726 0.2282857 0.2284982 0.2287048 0.2288985 0.2290796 0.2292559 0.2294358
 0.2296259 0.2298296 0.2300412 0.2302475 0.2304402 0.2306234 0.2308074 0.2309971 0.2311888 0.2313779
 0.2315693 0.2317773 0.2320085 0.2322488 0.2324778 0.2326901 0.2328948 0.2331026 0.2333185 0.2335398
 0.2337489 0.233924 0.234064 0.2341973 0.2343611 0.2345716 0.2348128 0.2350523 0.2352698 0.2354688
 0.2356617 0.2358545 0.2360452 0.2362265 0.2363943 0.2365662 0.2367752 0.2370297 0.2372998 0.2375558
 0.2377989 0.2380426 0.2382916 0.2385457 0.2387924 0.2389984 0.2391401 0.2392501 0.2394094 0.2396819
 0.2400523 0.2404331 0.2407423 0.2409732 0.2411788 0.2414106 0.2416918 0.2419982 0.2422329 0.2422898
 0.2422092 0.2422069 0.2424741 0.2429873 0.2435621 0.2440458 0.2444089 0.2446969 0.2449513 0.2451704
 0.2453148 0.2453525 0.2453254 0.2453741 0.2456456 0.2461417 0.2466998 0.2471551 0.2474708 0.2476922
 0.2478647 0.2480195 0.248125 0.248035 0.2476471 0.2471693 0.247062 0.2475944 0.2485435 0.2494323
 0.2499976 0.2503264 0.250595 0.2508504 0.2510565 0.2511275 0.250819 0.2498718 0.2485137 0.2475958
 0.2478866 0.2493 0.2510388 0.2523891 0.2531708 0.2535644 0.2537998 0.2540001 0.2540915 0.2538136
 0.2530086 0.2520062 0.2515445 0.2520914 0.25332 0.2544615 0.2550897 0.2553444 0.255527 0.255766
 0.2559289 0.2555613 0.2541393 0.2518395 0.2499365 0.2499064 0.2519812 0.2548724 0.2570511 0.2580674
 0.2584346 0.2585064 0.2579607 0.2563881 0.2538985 0.2510653 0.2487773 0.2481491 0.2497765 0.2527825
 0.2553135 0.2563747 0.2566674 0.257394 0.2588124 0.2602294 0.2609181 0.2606884 0.2597615 0.2583651
 0.256625 0.2549529 0.2542762 0.2553785 0.2579499 0.2606965 0.2625386 0.2634345 0.2638161 0.263324
 0.2605563 0.2547659 0.2479609 0.2443335 0.246553 0.2529736 0.2594005 0.263209 0.2647707 0.2654795
 0.2658914 0.2655749 0.2633436 0.257884 0.2498055 0.2429698 0.2418931 0.2472734 0.2551992 0.2608148
 0.2616614 0.2579486 0.2516395 0.2458332 0.2435088 0.2457405 0.25124 0.2576281 0.2628527 0.2657535
 0.2660687 0.2643222 0.2617582 0.2600318 0.2600194 0.2605095 0.2591168 0.2553086 0.2513191 0.2488615
 0.2464409 0.2420787 0.23766 0.2376736 0.2433966 0.2507848 0.2550385 0.2554674 0.2545774 0.2534701
 0.2499006 0.2414785 0.2301919 0.2224438 0.223456 0.2318664 0.2409626 0.2452613 0.2448559 0.2434095
 0.2432541 0.2430234 0.2396014 0.2322297 0.2245073 0.22134 0.2236927 0.2277176 0.2292581 0.2271206
 0.2215349 0.2128325 0.2039009 0.2009951 0.2084074 0.2231717 0.237436 0.2449435 0.2432393 0.2321495
 0.2146841 0.1989585 0.1942354 0.2025859 0.2163692 0.2252953 0.2245632 0.2156101 0.2017317 0.1859221
 0.172326 0.1664952 0.172002 0.1868895 0.2038523 0.2138283 0.2109235 0.1970108 0.1822204 0.1776192
 0.1850813 0.1960101 0.2010243 0.1985022 0.1931026 0.189751 0.1908315 0.1959179 0.2022145 0.2071337
 0.2103423 0.2107731 0.2037974 0.1867826 0.1664768 0.154598 0.1556473 0.1645011 0.1758118 0.1888495
 0.2015356 0.2070789 0.201648 0.1916812 0.1884737 0.1961831 0.2082455 0.2154334 0.2150044 0.211239
 0.2087587 0.2075623 0.2053531 0.2029189 0.2043056 0.2112683 0.2202299 0.2262691 0.2282256 0.2282832
 0.2282446 0.2281628 0.227585 0.2263584 0.2245442 0.2225302 0.2209214 0.2198506 0.2188605 0.2176184
 0.2158731 0.2123537 0.2050485 0.1940469 0.1833672 0.1778032 0.1778517 0.1799757 0.1818461 0.183719
 0.1835649 0.1756956 0.1583141 0.139688 0.1321422 0.140162 0.1570599 0.1725604 0.1806334 0.1799802
 0.1709549 0.1558213 0.1413571 0.1367865 0.1462462 0.164774 0.1835925 0.1976826 0.2064288 0.2094502
 0.2056496 0.1962434 0.1860582 0.1808204 0.1836302 0.1935176 0.2057939 0.2133323 0.210022 0.1967954
 0.184395 0.1855393 0.201596 0.2203421 0.2296894 0.2299638 0.2291859 0.2306159 0.2310354 0.2293623
 0.2302303 0.2375564 0.2487304 0.257176 0.2581213 0.2504768 0.2362627 0.2211439 0.212972 0.2154672
 0.223971 0.2305126 0.2315424 0.2274719 0.2179376 0.2037785 0.1920804 0.19193 0.2038874 0.2187479
 0.2280161 0.2316471 0.2342351 0.2370917 0.2366762 0.2299942 0.2196101 0.2120719 0.2114165 0.215606
 0.2199299 0.22198 0.2216869 0.2184795 0.2116352 0.2034155 0.1991081 0.2024222 0.2116539 0.2213165
 0.2270805 0.2284752 0.227532 0.2261792 0.2249644 0.2232385 0.2204571 0.2178801 0.2183447 0.2231929
 0.2300765 0.2353409 0.2382147 0.2410815 0.2457422 0.2509288 0.2538429 0.2532073 0.2504766 0.2485697
 0.2495316 0.2529114 0.2560993 0.2565613 0.2542568 0.2519031 0.2524765 0.2563853 0.2614145 0.2652487
 0.2673567 0.268517 0.2694696 0.2702772 0.270294 0.2686633 0.2655598 0.2629221 0.2630804 0.2664338
 0.2710591 0.2746838 0.2765032 0.2770464 0.2769458 0.2762814 0.2749321 0.2731615 0.2716419 0.2709281
 0.271057 0.2716891 0.2724744 0.273206 0.2737803 0.2741757 0.2744368 0.2746149 0.2747438 0.2748654
 0.2750004 0.2750893 0.2750508 0.2749301 0.2749031 0.2750822 0.2753738 0.2755809 0.2755778 0.2753124
 0.2747057 0.2736813 0.2722884 0.270681 0.2689425 0.2670415 0.2650628 0.263442 0.2628275 0.2636012
 0.2655225 0.2678675 0.2699082 0.2712703 0.2719563 0.2721833 0.2722225 0.2722722 0.2723737 0.2724321
 0.2723294 0.2720217 0.2715402 0.2709368 0.2702474 0.2694978 0.2687128 0.2679072 0.2670825 0.266259
 0.2655111 0.2649317 0.2645407 0.2642404 0.2638888 0.2634112 0.2628276 0.2621872 0.2615018 0.2607426
 0.2598839 0.2589552 0.2580495 0.2572611 0.2566004 0.2559769 0.2552695 0.2544073 0.2534064 0.2523648
 0.251408 0.2506011 0.2499024 0.2492062 0.2484184 0.24749 0.2464176 0.2452368 0.2439993 0.2427345
 0.2414346 0.2400757 0.2386408 0.2371219 0.2355145 0.2338217 0.232058 0.2302461 0.2284067 0.2265503
 0.2246591 0.2226659 0.2204554 0.2178949 0.2148635 0.2112683 0.207075 0.2023492 0.1972586 0.1920205
 0.1868435 0.1819007 0.177327 0.1732256 0.1696794 0.1667541 0.1644952 0.1629315 0.16208 0.1619415
 0.1624982 0.1637149 0.165527 0.1678186 0.1704294 0.1731896 0.175944 0.1785601 0.1809511 0.1831082
 0.1850947 0.1869829 0.1887881 0.1904698 0.1919905 0.1933488 0.1945487 0.1955759 0.196429 0.1971451
 0.1977676 0.1983078 0.1987549 0.199099 0.1993312 0.1994362 0.1994042 0.1992584 0.1990866 0.1990452
 0.1992997 0.1999298 0.2008802 0.202004 0.2031544 0.2042503 0.2052753 0.2062396 0.2071587 0.2080601
 0.2089778 0.2099346 0.2109484 0.2120514 0.2132808 0.2146549 0.2161671 0.2177903 0.2194672 0.2211084
 0.2226144 0.2239042 0.224933 0.2256967 0.226218 0.2265264 0.2266563 0.226649 0.2265386 0.2263399
 0.2260604 0.2257094 0.2252909 0.2248038 0.2242537 0.2236509 0.2230058 0.2223393 0.2216848 0.2210672
 0.2204866 0.2199275 0.2193744 0.2188168 0.2182516 0.2176779 0.2170922 0.2164926 0.2158833 0.2152658
 0.2146331 0.2139772 0.2132832 0.2125164 0.211639 0.2106434 0.2095474 0.2083656 0.2071029 0.2057654
 0.2043565 0.2028671 0.2012849 0.199614 0.1978755 0.1960852 0.194224 0.1922459 0.1901353 0.187952
 0.1858031 0.1837757 0.1819019 0.1801684 0.1785419 0.1769942 0.1755137 0.1740958 0.1727366 0.1714459
 0.1702473 0.1691481 0.1681208 0.1671262 0.1661533 0.165235 0.1644253 0.1637503 0.163183 0.1626761
 0.1622096 0.1617947 0.1614519 0.1612095 0.161095 0.1610964 0.161143 0.1611464 0.1610584 0.1608915
 0.1606959 0.1605153 0.1603555 0.1601985 0.1600369 0.1598645 0.1596352 0.1592549 0.1586198 0.1576591
 0.1563632 0.1547832 0.1530022 0.1511135 0.1492301 0.1474796 0.1459623 0.1447239 0.1437673 0.1430579
 0.1425205 0.1420733 0.1416833 0.1413859 0.1412515 0.141315 0.141505 0.1416687 0.1417112 0.1417004
 0.1418047 0.1421477 0.1427304 0.1434477 0.1441579 0.1447639 0.1452371 0.1455723 0.1457616 0.1458201
 0.1457856 0.1456807 0.14551 0.1452856 0.1450202 0.1447119 0.1443514 0.1439198 0.1433876 0.1427431
 0.1420064 0.1411982 0.1403244 0.139384 0.1383464 0.1371597 0.1358642 0.1346727 0.1338709 0.133648
 0.1340124 0.1348055 0.1358036 0.1368563 0.1378762 0.1386757 0.1390071 0.1389354 0.1390385 0.1399962
 0.1419424 0.1443233 0.146397 0.1477675 0.1484302 0.148493 0.1480243 0.147074 0.1456532 0.1437199
 0.141292 0.1385038 0.1355043 0.1324275 0.1294643 0.1268039 0.1245223 0.1226267 0.1211282 0.1200926
 0.1196591 0.119442 0.1175523 0.1115996 0.1023708 0.09545327 0.09653537 0.1050105 0.1144056 0.1192246
 0.1193219 0.1176229 0.1161402 0.1151805 0.1146516 0.1147 0.1154494 0.1167505 0.1182083 0.1194166
 0.1202065 0.1206024 0.1205444 0.1196852 0.1173337 0.1126646 0.1053845 0.0963558 0.08731586 0.07984797
 0.07465728 0.071602 0.07005821 0.06928522 0.06878002 0.06849273 0.06871442 0.06973479 0.07159807 0.07415241
 0.0772178 0.08057068 0.08382884 0.08658957 0.08873658 0.09044041 0.09183162 0.09283803 0.0933485 0.09337294
 0.09301692 0.09240875 0.09166724 0.09086414 0.08998169 0.0889388 0.08772567 0.08653119 0.08565213 0.08522058
 0.08510038 0.08508475 0.0850835 0.08508845 0.08509026 0.08508015 0.0850611 0.08506081 0.08516705 0.08547619
 0.08596027 0.086456 0.08680964 0.0869851 0.0870402 0.08701554 0.08682552 0.08633362 0.08561821 0.0850034
 0.08463697 0.08420354 0.0833192 0.08210535 0.08111883 0.08076136 0.08094425 0.08128716 0.08146999 0.08139426
 0.08117749 0.08108857 0.08137297 0.08198038</values></Ydata></ScSm><ScRf><Ydata ylabel="Single channel"><values byteorder="INTEL" format="FLOAT32" numvalues="1820"> 0.06057434 0.06072897 0.06082751 0.0608687 0.06087435 0.06088664 0.06095104 0.0610882 0.06127775 0.06146707
 0.06160398 0.06167146 0.06168547 0.06166168 0.06161056 0.06156994 0.06160406 0.06174385 0.06194229 0.06210321
 0.06215701 0.06212299 0.06210119 0.0621721 0.06228457 0.06227143 0.06201141 0.06157155 0.06115935 0.06092995
 0.06089348 0.06104327 0.06145434 0.06208283 0.06254723 0.06240397 0.06170538 0.06102366 0.06081577 0.06098617
 0.0611532 0.06108745 0.06078357 0.06038145 0.06020801 0.060683 0.0619068 0.06332882 0.06394704 0.06293406
 0.06022325 0.05670858 0.0539252 0.05322523 0.05481795 0.05748905 0.0595137 0.06003497 0.05947771 0.05868115
 0.05800157 0.0574078 0.0570486 0.0572912 0.05820685 0.05921878 0.05938759 0.05820488 0.0562012 0.05458708
 0.05415296 0.05475903 0.05596632 0.05751833 0.05869304 0.05792521 0.05434211 0.04971948 0.047695 0.0503109
 0.05583593 0.06046888 0.06172381 0.0598046 0.05648876 0.05365483 0.05258966 0.05363455 0.05610786 0.05888028
 0.06107031 0.06208284 0.0614522 0.05924676 0.05646408 0.05454068 0.05446951 0.0564223 0.05971474 0.06285027
 0.06419556 0.06319507 0.06074509 0.05823862 0.05664433 0.05651169 0.05810213 0.06110641 0.06463585 0.06775101
 0.0698494 0.07070469 0.07050039 0.06972159 0.0687893 0.06798961 0.06773692 0.06831883 0.06921026 0.06927317
 0.06800303 0.06621122 0.06519297 0.06539176 0.06604842 0.06612295 0.06534283 0.06402111 0.0620232 0.05877859
 0.05457413 0.05086948 0.04883705 0.04848574 0.04954511 0.05191078 0.05459673 0.05566562 0.05433906 0.05235255
 0.05221414 0.05453299 0.05771609 0.05994636 0.0608673 0.06146001 0.06276548 0.06480955 0.0664544 0.0662446
 0.06385225 0.06090102 0.05982073 0.06146149 0.06428032 0.06624812 0.06699328 0.06757275 0.06862916 0.06939922
 0.06850512 0.06558313 0.06217403 0.06077825 0.06267767 0.06665225 0.06985867 0.06992657 0.0665562 0.06161341
 0.05768078 0.05626146 0.05735686 0.06044256 0.06505279 0.07027672 0.07452194 0.07639782 0.0757229 0.07345714
 0.07060727 0.0672912 0.06325365 0.05941578 0.05807199 0.06071626 0.0661211 0.07136028 0.07442446 0.07522224
 0.07442418 0.07220449 0.06844722 0.06399115 0.06103643 0.06142891 0.06443982 0.06718472 0.06764911 0.06652116
 0.06569906 0.06590745 0.06643375 0.06661525 0.06679116 0.06774864 0.0696187 0.07159187 0.07270968 0.07272986
 0.07216477 0.07167599 0.07147318 0.07116198 0.07031356 0.06935006 0.06948543 0.0713893 0.0742515 0.07660948
 0.07780835 0.0782274 0.0782977 0.07775764 0.07603687 0.07332937 0.07103394 0.07071388 0.07257915 0.07535417
 0.07760589 0.07877719 0.07904308 0.07878131 0.0783181 0.07783194 0.07741413 0.07729214 0.07776466 0.07877229
 0.07980964 0.08042866 0.0805996 0.08048348 0.08011829 0.07948941 0.07875621 0.07824732 0.0782229 0.07868002
 0.07940342 0.08015937 0.08077142 0.08107282 0.08096592 0.0805628 0.0801241 0.07982118 0.07966767 0.07967389
 0.07990745 0.08035588 0.08085403 0.08121715 0.08138742 0.08141583 0.08135834 0.08123331 0.0810563 0.08088584
 0.0808237 0.08094122 0.08119 0.08143617 0.08162091 0.08182232 0.08209708 0.08233589 0.08237424 0.08220717
 0.08200264 0.0819186 0.08197532 0.08209467 0.08218983 0.08218884 0.08202602 0.0816955 0.08133097 0.08115973
 0.08132563 0.08178786 0.08239816 0.0830045 0.08347368 0.08372308 0.08378326 0.08376309 0.08372196 0.08362743
 0.08345011 0.08325474 0.08318181 0.08334325 0.08372314 0.08418027 0.08455962 0.08479039 0.08489054 0.084938
 0.08503906 0.08524211 0.085459 0.08554476 0.08547737 0.085394 0.0854267 0.0855539 0.08564096 0.08560158
 0.08549525 0.08546407 0.08558562 0.08580622 0.08601853 0.08617942 0.08633557 0.08653985 0.08675432 0.08685704
 0.08677041 0.08656549 0.08639334 0.08632601 0.08632672 0.08636738 0.08648767 0.08670512 0.0869348 0.08705895
 0.08705708 0.08702283 0.08704793 0.08711872 0.08714198 0.08705472 0.08688828 0.08673346 0.08666608 0.08670169
 0.086795 0.08687143 0.08687396 0.08679708 0.0866799 0.08656612 0.08647601 0.08642355 0.08644913 0.08660039
 0.08685552 0.08708413 0.0871292 0.08694948 0.0866681 0.08646402 0.08641362 0.08643928 0.08640195 0.08623192
 0.08597235 0.0857176 0.08552835 0.08540294 0.08530733 0.08521982 0.08515747 0.0851686 0.08528118 0.08543994
 0.08551718 0.08542094 0.08518635 0.08493568 0.0847635 0.08468486 0.08466546 0.08466207 0.08465351 0.08466399
 0.08473139 0.08483121 0.08487491 0.08481303 0.08470176 0.08464396 0.0847016 0.08487193 0.08509315 0.08525769
 0.08527978 0.08518099 0.08507527 0.08505278 0.08510934 0.08519323 0.08527736 0.08536499 0.08545873 0.08555757
 0.08567579 0.08584055 0.08606365 0.08632071 0.08655944 0.08673249 0.08683597 0.08692223 0.08706657 0.087309
 0.08762348 0.08794096 0.0882026 0.08839934 0.08856705 0.08874291 0.08893369 0.08913513 0.08936587 0.08965242
 0.08998427 0.09031462 0.09061093 0.09088235 0.0911544 0.09143683 0.09172451 0.09202237 0.09236017 0.09276621
 0.09321328 0.09360806 0.09386598 0.09399769 0.09410521 0.09429836 0.09461832 0.09501155 0.09535878 0.0955651
 0.0956547 0.09575285 0.09594887 0.09620787 0.09644895 0.09667593 0.09697767 0.09740354 0.09788172 0.09827771
 0.09851942 0.09865449 0.09878847 0.09897374 0.09916826 0.09930626 0.09938966 0.09948207 0.09962294 0.09979516
 0.09999049 0.1002539 0.1006209 0.101042 0.1014177 0.1016923 0.1018824 0.102028 0.1021502 0.1022441
 0.1022933 0.1023003 0.1023124 0.1023855 0.1025126 0.1026225 0.1026689 0.1026859 0.1027422 0.1028721
 0.1030748 0.1033428 0.1036548 0.103962 0.1042303 0.1044927 0.1048144 0.1051869 0.1055014 0.1056612
 0.1056915 0.1056947 0.1057279 0.10578 0.1058529 0.1059934 0.1062312 0.1065339 0.1068488 0.1071584
 0.1074783 0.1078151 0.1081392 0.108392 0.1085218 0.1085261 0.1084659 0.1084372 0.1085202 0.1087388
 0.1090508 0.1093778 0.1096536 0.109845 0.1099345 0.1099188 0.1098455 0.1098181 0.1099157 0.1101026
 0.1102469 0.110231 0.1100239 0.1096524 0.1091443 0.1085239 0.1078435 0.107188 0.1066385 0.10624
 0.1060097 0.1059731 0.1061756 0.1066348 0.1072851 0.1079953 0.1086454 0.1091611 0.1094738 0.1095005
 0.1092018 0.1086374 0.1079339 0.1072075 0.1065277 0.1059128 0.1053349 0.1047615 0.1042369 0.1039114
 0.1039676 0.1045148 0.1055404 0.106918 0.1084414 0.1098874 0.1111054 0.1120747 0.1128733 0.1135891
 0.1142641 0.1149143 0.1155634 0.1162236 0.1168602 0.1174185 0.117889 0.118316 0.1187377 0.119147
 0.1195087 0.1197973 0.1200185 0.1202097 0.1204042 0.1205824 0.1206814 0.120669 0.1205844 0.1204879
 0.1203908 0.1202497 0.1200099 0.1196493 0.1192099 0.1188144 0.1186431 0.1188602 0.119527 0.1205671
 0.1218211 0.123142 0.1244324 0.1256053 0.126562 0.1272456 0.1276921 0.1280003 0.1282611 0.1285273
 0.1288211 0.1291396 0.1294599 0.1297594 0.1300337 0.1303001 0.1305877 0.130914 0.1312592 0.1315746
 0.1318316 0.1320582 0.132317 0.1326448 0.1330184 0.1333823 0.1337104 0.1340275 0.1343589 0.1346787
 0.1349354 0.1351214 0.1352879 0.1354966 0.1357776 0.1361233 0.1364909 0.1368165 0.1370586 0.1372348
 0.137402 0.1376018 0.1378366 0.1380894 0.138349 0.1386105 0.1388697 0.13913 0.1394058 0.1397023
 0.1399914 0.1402268 0.1403945 0.1405344 0.1407009 0.1409096 0.1411315 0.1413348 0.1415242 0.1417388
 0.1420143 0.14234 0.1426568 0.142903 0.1430653 0.1431827 0.1433059 0.1434606 0.1436456 0.1438504
 0.1440651 0.1442811 0.1444933 0.1447028 0.1449147 0.1451305 0.1453459 0.1455549 0.1457559 0.145953
 0.1461535 0.1463619 0.146582 0.1468221 0.1470925 0.1473877 0.1476758 0.1479184 0.148103 0.1482487
 0.1483819 0.1485171 0.1486609 0.1488207 0.149002 0.1492031 0.1494168 0.1496348 0.1498486 0.1500532
 0.1502523 0.1504563 0.1506706 0.1508875 0.1510965 0.1513005 0.1515138 0.151741 0.1519669 0.1521721
 0.1523546 0.1525319 0.1527214 0.1529244 0.1531278 0.153321 0.1535087 0.1537028 0.1539059 0.154109
 0.1543022 0.1544838 0.1546598 0.1548401 0.1550323 0.1552368 0.1554469 0.1556555 0.1558605 0.1560624
 0.15626 0.1564512 0.156637 0.1568233 0.1570158 0.157214 0.1574147 0.157618 0.1578262 0.1580375
 0.1582468 0.1584505 0.1586479 0.1588391 0.159026 0.1592122 0.1594017 0.1595973 0.1597985 0.1600026
 0.1602089 0.1604184 0.1606286 0.1608342 0.1610367 0.161245 0.1614621 0.1616794 0.1618875 0.1620865
 0.1622835 0.1624855 0.162696 0.162914 0.163138 0.1633677 0.1635993 0.1638234 0.1640332 0.1642308
 0.1644204 0.1646021 0.1647745 0.1649385 0.1650985 0.1652631 0.1654404 0.1656297 0.1658234 0.166016
 0.1662067 0.1663965 0.1665879 0.1667841 0.1669853 0.1671906 0.1674 0.1676105 0.1678149 0.1680117
 0.1682068 0.1684057 0.1686117 0.1688275 0.1690497 0.1692683 0.1694778 0.16968 0.1698777 0.1700745
 0.1702772 0.170489 0.1707069 0.1709313 0.1711649 0.1714012 0.1716262 0.171833 0.1720249 0.1722104
 0.1724005 0.1726002 0.1728025 0.1730014 0.1732026 0.1734131 0.1736324 0.1738573 0.1740835 0.1743027
 0.174514 0.1747268 0.1749428 0.1751526 0.1753579 0.1755723 0.1757989 0.1760292 0.1762558 0.1764716
 0.1766723 0.176867 0.1770673 0.1772589 0.1773915 0.177345 0.1768346 0.1753063 0.1719241 0.1657342
 0.1560433 0.1428597 0.1270476 0.1100217 0.09322838 0.07776931 0.06429081 0.05306572 0.04413757 0.03741894
 0.03275502 0.03001832 0.02920282 0.03052337 0.0345316 0.04179474 0.05166344 0.0611758 0.06620853 0.06473194
 0.05874742 0.05246137 0.04879034 0.0479494 0.04869958 0.04997872 0.05144894 0.05330041 0.05585837 0.05921008
 0.0631955 0.06781445 0.07341757 0.08026202 0.08798672 0.09576403 0.1030097 0.1098393 0.1167945 0.1241928
 0.1317962 0.1390477 0.1455165 0.1511149 0.1560137 0.1604482 0.1645849 0.1685029 0.1722399 0.1757904
 0.1790265 0.1816686 0.1834218 0.184202 0.1842382 0.1839416 0.1836627 0.1835601 0.1836519 0.1839202
 0.1843476 0.1849065 0.1855644 0.1862965 0.1870815 0.187897 0.1887204 0.1895267 0.1902917 0.1910062
 0.1916759 0.1923029 0.1928795 0.1934016 0.1938748 0.1943092 0.1947157 0.1951012 0.1954668 0.1958132
 0.1961461 0.1964679 0.196771 0.1970479 0.1973006 0.1975363 0.1977603 0.1979758 0.1981844 0.1983861
 0.1985847 0.1987883 0.1990004 0.1992151 0.1994237 0.1996217 0.1998111 0.1999989 0.2001924 0.2003911
 0.2005887 0.2007807 0.200968 0.2011528 0.2013381 0.2015266 0.2017177 0.2019096 0.2021026 0.2022985
 0.2024982 0.202704 0.2029176 0.2031318 0.2033366 0.2035369 0.2037488 0.2039773 0.2042107 0.2044374
 0.2046554 0.2048678 0.2050799 0.2052942 0.2054999 0.2056774 0.2058218 0.2059554 0.2061113 0.2063064
 0.2065293 0.2067543 0.2069651 0.2071638 0.2073603 0.2075595 0.2077589 0.2079491 0.2081235 0.2082956
 0.208495 0.208733 0.2089894 0.2092428 0.2094904 0.2097334 0.2099705 0.2102078 0.210446 0.2106577
 0.2108115 0.2109247 0.2110697 0.2113172 0.2116693 0.212051 0.2123771 0.212624 0.2128305 0.2130461
 0.2133002 0.2135793 0.2138026 0.2138765 0.2138318 0.2138545 0.2141146 0.2145969 0.2151431 0.2156157
 0.2159813 0.2162752 0.2165354 0.2167623 0.2169181 0.2169703 0.2169603 0.2170228 0.21729 0.2177541
 0.218263 0.2186779 0.2189815 0.219219 0.2194176 0.2195882 0.2197003 0.2196351 0.2193122 0.2189197
 0.2188638 0.2193755 0.220247 0.2210539 0.2215749 0.2218986 0.2221769 0.2224363 0.2226395 0.222721
 0.222477 0.2216779 0.2205169 0.2197426 0.2200376 0.221327 0.2229048 0.2241418 0.2248819 0.2252819
 0.2255381 0.2257532 0.2258581 0.2256235 0.2249213 0.2240607 0.2237024 0.2242509 0.2253997 0.2264561
 0.2270443 0.2273006 0.2275058 0.2277751 0.2279783 0.227697 0.22646 0.2244305 0.2227557 0.2227611
 0.2246561 0.2272868 0.2292839 0.230243 0.2306218 0.2307328 0.2302804 0.2288929 0.2266748 0.224157
 0.2221483 0.2216439 0.2231647 0.2259154 0.2282314 0.2292224 0.2295237 0.2302233 0.2315553 0.2328883
 0.233559 0.2333962 0.232607 0.2314017 0.2298921 0.2284445 0.2278897 0.2289281 0.2312796 0.2337867
 0.2354881 0.2363487 0.2367528 0.2363734 0.2339485 0.2288057 0.2227533 0.2195621 0.221624 0.2274457
 0.2332532 0.2367011 0.2381406 0.2388314 0.2392715 0.2390675 0.2371389 0.2322842 0.2250463 0.2189217
 0.2180041 0.2229308 0.2301667 0.2353174 0.2361497 0.2328434 0.2271773 0.22197 0.2199285 0.2220215
 0.2270733 0.2329231 0.2377136 0.2404011 0.2407566 0.2392553 0.2370182 0.2355415 0.235621 0.2361566
 0.2349782 0.2315977 0.2280417 0.2258664 0.223719 0.2198133 0.2158785 0.2160033 0.2213405 0.2281921
 0.2321791 0.2326753 0.2319685 0.231062 0.2279028 0.220305 0.2100855 0.2031067 0.2041589 0.2120024
 0.2204889 0.2245902 0.2243865 0.2232338 0.2232744 0.2232549 0.2203002 0.2136961 0.2067552 0.2040093
 0.2063538 0.2102381 0.2118302 0.21003 0.2050367 0.1971424 0.1890296 0.1865238 0.1936322 0.2076084
 0.2211444 0.2283966 0.2270482 0.2169135 0.200808 0.1863558 0.1822622 0.1904709 0.2037948 0.2125543
 0.2122235 0.2041351 0.1913778 0.1767865 0.1643188 0.1592911 0.1651486 0.1800496 0.1969822 0.2071705
 0.2048492 0.1918029 0.1779142 0.174017 0.1819408 0.1932274 0.1986438 0.196595 0.1916822 0.1887936
 0.1903207 0.1958427 0.2025513 0.2078597 0.2114425 0.2121903 0.2053837 0.1883568 0.1679607 0.1560715
 0.1572486 0.1663083 0.177845 0.191128 0.204051 0.209726 0.2042666 0.1942032 0.190988 0.1988293
 0.211063 0.2183282 0.217847 0.2139733 0.2114156 0.2101896 0.2079715 0.2055654 0.2070861 0.2143245
 0.2236564 0.2300885 0.2324363 0.2329016 0.2332995 0.2336735 0.2335577 0.2327952 0.2314546 0.2299459
 0.2289002 0.2284508 0.2281059 0.2274974 0.2263439 0.2232893 0.2161882 0.2051285 0.1943811 0.1890283
 0.189559 0.192187 0.1944566 0.1966694 0.1966444 0.1882617 0.1695604 0.1493609 0.1408523 0.1488507
 0.1662109 0.181952 0.189676 0.1881096 0.177779 0.1611485 0.1452419 0.139509 0.1481442 0.1660372
 0.1841969 0.1975019 0.2053938 0.2076181 0.2031611 0.1932391 0.1826102 0.1768986 0.1791128 0.1882591
 0.199736 0.2066206 0.2030173 0.1898488 0.1774864 0.1781893 0.1932867 0.2110324 0.2198027 0.2198961
 0.2190041 0.2202567 0.2205738 0.2189209 0.219736 0.2267696 0.237525 0.2457149 0.2467818 0.2396897
 0.2263786 0.2122923 0.2049804 0.2079992 0.2168071 0.2236679 0.2251284 0.22156 0.2125864 0.1990557
 0.1879509 0.1881854 0.2002819 0.2151845 0.2245529 0.2283579 0.2311228 0.2341269 0.2338732 0.2274282
 0.2173703 0.210213 0.2099661 0.2146124 0.2194828 0.2221751 0.2225737 0.2200367 0.2137957 0.2061335
 0.202417 0.2064087 0.2163443 0.2265741 0.2326082 0.2339059 0.2325236 0.2304585 0.2283244 0.2255258
 0.2215724 0.2177839 0.2170482 0.2207415 0.2265418 0.2308128 0.2327775 0.2347961 0.2386668 0.2431563
 0.2455115 0.2444689 0.2414406 0.2392584 0.2398945 0.2429077 0.245778 0.2460546 0.243687 0.2412972
 0.2417714 0.2455108 0.2503661 0.254083 0.2561401 0.2572973 0.2582819 0.2591499 0.2592495 0.2577224
 0.254724 0.252127 0.2521867 0.2553008 0.2596341 0.2630178 0.2646956 0.265186 0.265089 0.2644637
 0.2631848 0.2615121 0.2601005 0.2594852 0.2596985 0.2604031 0.2612435 0.2620029 0.2625815 0.262975
 0.2632444 0.2634375 0.2635649 0.2636493 0.2637225 0.2637587 0.2637011 0.2635898 0.2635795 0.263768
 0.2640622 0.2642713 0.264278 0.2640453 0.2635142 0.2626155 0.2613862 0.259963 0.258422 0.25673
 0.2549645 0.2535406 0.253081 0.2539554 0.255945 0.258377 0.2605721 0.262175 0.2631599 0.2636654
 0.2638667 0.2639166 0.2639067 0.2638493 0.2637149 0.2634894 0.2631918 0.2628471 0.2624694 0.262077
 0.261708 0.2613986 0.2611447 0.2608958 0.2605911 0.2601988 0.2597276 0.2592095 0.2586728 0.2581165
 0.2575006 0.2567726 0.2559145 0.2549694 0.2540226 0.2531498 0.2523661 0.2516204 0.2508466 0.2500153
 0.2491148 0.2481088 0.2469694 0.2457668 0.2446649 0.2437895 0.2431219 0.2425351 0.2419014 0.2411519
 0.2402762 0.2393054 0.2382839 0.2372356 0.236155 0.2350285 0.2338462 0.232594 0.2312518 0.2298107
 0.2282814 0.2266867 0.2250569 0.2234197 0.2217656 0.2200171 0.218046 0.2157207 0.2129327 0.2096
 0.2056887 0.2012548 0.1964541 0.1914982 0.1865909 0.1818953 0.17754 0.1736341 0.1702686 0.1675102
 0.1654029 0.1639769 0.1632534 0.1632416 0.1639307 0.1652796 0.1672138 0.1696292 0.1723934 0.1753431
 0.1782945 0.1810834 0.18362 0.1859201 0.1880721 0.1901457 0.1921253 0.1939416 0.1955538 0.1969698
 0.1981982 0.1992276 0.2000628 0.200748 0.2013347 0.2018457 0.202279 0.202636 0.202935 0.2031986
 0.2034361 0.2036458 0.2038338 0.2040226 0.2042362 0.2044843 0.2047661 0.2050889 0.2054762 0.2059477
 0.2064914 0.2070669 0.2076449 0.2082317 0.2088512 0.2095217 0.2102614 0.2111009 0.2120752 0.2132031
 0.2144735 0.2158436 0.2172459 0.2185978 0.2198128 0.2208179 0.2215727 0.2220747 0.222343 0.2224047
 0.2222988 0.2220769 0.2217868 0.2214542 0.221077 0.220634 0.2201051 0.2194908 0.218814 0.218105
 0.2173886 0.2166827 0.2159978 0.215333 0.2146769 0.2140189 0.2133636 0.2127293 0.2121306 0.211563
 0.2110079 0.2104492 0.2098807 0.2093047 0.2087286 0.2081499 0.2075367 0.206835 0.2060106 0.2050711
 0.2040406 0.2029269 0.2017283 0.2004555 0.1991244 0.1977319 0.1962579 0.1946936 0.1930516 0.1913387
 0.1895304 0.1875946 0.1855464 0.1834675 0.1814617 0.179599 0.1778988 0.1763408 0.1748829 0.173486
 0.172136 0.1708352 0.1695805 0.1683689 0.1672147 0.1661414 0.165155 0.1642413 0.1633878 0.162597
 0.1618785 0.1612335 0.1606522 0.160132 0.159688 0.1593348 0.1590717 0.1589008 0.158838 0.1588787
 0.1589671 0.1590225 0.158991 0.1588696 0.1587009 0.1585478 0.1584549 0.1584213 0.1584056 0.158347
 0.1581842 0.1578619 0.157318 0.1564766 0.1552849 0.1537662 0.1520184 0.1501674 0.1483401 0.1466529
 0.1451902 0.1439956 0.1430836 0.1424272 0.1419448 0.1415489 0.1412236 0.1410337 0.1410527 0.1412705
 0.1415576 0.1417459 0.1417802 0.1417751 0.1419053 0.142271 0.1428636 0.1435965 0.1443524 0.1450394
 0.14561 0.14603 0.1462763 0.1463726 0.1463751 0.1463156 0.1461952 0.1460158 0.1457811 0.1454902
 0.1451437 0.1447323 0.1442352 0.143651 0.1429996 0.1422806 0.1414795 0.1405982 0.1396214 0.1385064
 0.1372943 0.136192 0.1354712 0.135308 0.1357053 0.136501 0.1374743 0.1384994 0.1395225 0.1403645
 0.1407591 0.140753 0.1409228 0.1419574 0.1439955 0.1464728 0.1486328 0.1500829 0.1508324 0.1509832
 0.1505793 0.1496585 0.1482327 0.1462579 0.1437575 0.14089 0.1378257 0.1347015 0.1317096 0.1290452
 0.1267802 0.1249048 0.1234113 0.1223618 0.1219233 0.1217465 0.1199171 0.113956 0.1046231 0.09762551
 0.09880193 0.1075479 0.117239 0.1222349 0.1223739 0.1206604 0.1191713 0.1182101 0.1176542 0.1176493
 0.1183441 0.1196072 0.1210456 0.1222478 0.1230413 0.123459 0.1234525 0.1226514 0.1203019 0.1155358
 0.1080778 0.09883405 0.08956668 0.08187377 0.07649142 0.07331716 0.07174043 0.07098796 0.07050475 0.07022135
 0.07045089 0.07150428 0.07342447 0.07605918 0.07923519 0.08272135 0.08611444 0.08899346 0.0912217 0.09294863
 0.09431392 0.09529288 0.09581995 0.09591188 0.09564202 0.09509005 0.09434659 0.09350179 0.09257846 0.09151224
 0.09028563 0.08908374 0.08820248 0.08776407 0.08762829 0.08760171 0.08760239 0.08760518 0.08757567 0.08750558
 0.08743366 0.0874271 0.08757155 0.08791764 0.08839639 0.08884428 0.08913681 0.08927023 0.08931861 0.089306
 0.08910518 0.08855394 0.08774471 0.08703227 0.08658215 0.08608107 0.08514062 0.08387866 0.08285271 0.08246231
 0.08261046 0.08291753 0.08307622 0.08298779 0.08275019 0.08262262 0.08285927 0.08341084 0.08386715 0.08385201
</values></Ydata></ScRf><Data_Parameters_AB><parameter name="DPF">1</parameter><parameter name="NPT">3497</parameter><parameter name="FXV">3996</parameter><parameter name="LXV">500</parameter><parameter name="CSF">1</parameter><parameter name="MXY">0.0299959406256676</parameter><parameter name="MNY">-0.0891217663884163</parameter><parameter name="DAT">20/05/2022</parameter><parameter name="TIM">11:08:00.466 (GMT+2)</parameter><parameter name="DXU">WN</parameter></Data_Parameters_AB><AB__Qtest><MainReport name="Quality Test Report"><Header><Line><Legend>Test result ok/not ok [1/0]: </Legend><Value>0</Value></Line><Line><Legend>Method file: </Legend><Value>C:\Users\Public\Documents\Bruker\OPUS_8.2.28\QT\IRBT_v3_default.QT</Value></Line></Header><Matrix><Line><Legend></Legend><Legend>min</Legend><Legend>max</Legend><Legend>measured</Legend></Line><Line><Value>Absorption (X-Range 1):</Value><Value>0.400000</Value><Value>2.000000</Value><Value>0.066567</Value></Line><Line><Value>Noise (X-Range 4):</Value><Value></Value><Value>0.000300</Value><Value>0.000038</Value></Line><Line><Value>Signal/Noise (X-Range 2):</Value><Value>200.000000</Value><Value></Value><Value>21.385732</Value></Line><Line><Value>Signal/Noise (X-Range 3):</Value><Value>40.000000</Value><Value></Value><Value>31.006424</Value></Line><Line><Value>Water vapour (X-Range 5):</Value><Value></Value><Value>0.000300</Value><Value>0.000036</Value></Line><Line><Value>Signal/Water (X-Range 2):</Value><Value>100.000000</Value><Value></Value><Value>22.537458</Value></Line><Line><Value>Signal/Water (X-Range 3):</Value><Value>20.000000</Value><Value></Value><Value>32.676271</Value></Line><Line><Value>Fringes (X-Range 6):</Value><Value></Value><Value>0.000100</Value><Value>0.000061</Value></Line></Matrix></MainReport></AB__Qtest><Data_Parameters_ScSm><parameter name="DPF">1</parameter><parameter name="NPT">1814</parameter><parameter name="FXV">3996.33169228125</parameter><parameter name="LXV">499.541461535156</parameter><parameter name="CSF">1</parameter><parameter name="MXY">0.27704644203186</parameter><parameter name="MNY">0.0340388864278793</parameter><parameter name="DAT">20/05/2022</parameter><parameter name="TIM">11:08:00.466 (GMT+2)</parameter><parameter name="DXU">WN</parameter></Data_Parameters_ScSm><Data_Parameters_ScRf><parameter name="DPF">1</parameter><parameter name="NPT">1820</parameter><parameter name="FXV">4004.04661832813</parameter><parameter name="LXV">495.683998511719</parameter><parameter name="CSF">1</parameter><parameter name="MXY">0.265185952186584</parameter><parameter name="MNY">0.0292028188705444</parameter><parameter name="DAT">20/05/2022</parameter><parameter name="TIM">11:07:34.612 (GMT+2)</parameter><parameter name="DXU">WN</parameter></Data_Parameters_ScRf><Optic_Parameters_Rf><parameter name="APR">0</parameter><parameter name="APT">Open</parameter><parameter name="BMS">KBr</parameter><parameter name="DTC">RT-DLaTGS_IR-Biotyper [Microplate reader]</parameter><parameter name="HPF">0</parameter><parameter name="LPF">10.0</parameter><parameter name="LPV">4000</parameter><parameter name="PGR">0</parameter><parameter name="RCH">Module port</parameter><parameter name="RDX">0</parameter><parameter name="SRC">MIR</parameter><parameter name="VEL">10.0</parameter><parameter name="SON">Off</parameter></Optic_Parameters_Rf><Acquisition_Parameters_Rf><parameter name="ADT">1</parameter><parameter name="AQM">DD</parameter><parameter name="CFE">0</parameter><parameter name="COR">0</parameter><parameter name="DEL">0</parameter><parameter name="DLY">0</parameter><parameter name="HFW">8000</parameter><parameter name="LFW">0</parameter><parameter name="NSR">32</parameter><parameter name="PLF">AB</parameter><parameter name="RES">6</parameter><parameter name="RGN">-1</parameter><parameter name="STR">0</parameter><parameter name="TCL">MakeCompatibleScalar (0, {WSV=1.000000, ARV=0});</parameter><parameter name="TDL">37</parameter><parameter name="RPO">0</parameter></Acquisition_Parameters_Rf><FT_-_Parameters_Rf><parameter name="APF">B3</parameter><parameter name="HFQ">500</parameter><parameter name="LFQ">4000</parameter><parameter name="NLI">0</parameter><parameter name="PHR">24</parameter><parameter name="PHZ">ML</parameter><parameter name="SPZ">NO</parameter><parameter name="ZFF">1</parameter></FT_-_Parameters_Rf><Optic_Parameters_><parameter name="APR">0</parameter><parameter name="APT">Open</parameter><parameter name="BMS">KBr</parameter><parameter name="CHN">Module port</parameter><parameter name="DTC">RT-DLaTGS_IR-Biotyper [Microplate reader]</parameter><parameter name="HPF">0</parameter><parameter name="LPF">10.0</parameter><parameter name="LPV">4000</parameter><parameter name="PGN">0</parameter><parameter name="RDX">0</parameter><parameter name="SRC">MIR</parameter><parameter name="VEL">10.0</parameter><parameter name="SON">Off</parameter></Optic_Parameters_><FT_-_Parameters_><parameter name="APF">B3</parameter><parameter name="HFQ">500</parameter><parameter name="LFQ">4000</parameter><parameter name="NLI">0</parameter><parameter name="PHR">24</parameter><parameter name="PHZ">ML</parameter><parameter name="SPZ">NO</parameter><parameter name="ZFF">1</parameter></FT_-_Parameters_><Acquisition_Parameters_><parameter name="ADT">1</parameter><parameter name="AQM">DD</parameter><parameter name="CFE">0</parameter><parameter name="COR">0</parameter><parameter name="DEL">0</parameter><parameter name="DLY">0</parameter><parameter name="HFW">8000</parameter><parameter name="LFW">0</parameter><parameter name="NSS">32</parameter><parameter name="PLF">AB</parameter><parameter name="RES">6</parameter><parameter name="SOT">0</parameter><parameter name="TCL">MakeCompatibleScalar (0, {WSV=1.000000, ARV=0});</parameter><parameter name="TDL">37</parameter><parameter name="SPO">0</parameter><parameter name="SGN">-1</parameter></Acquisition_Parameters_><Instrument_Parameters_Rf><parameter name="HFL">15800.168544</parameter><parameter name="LFL">0</parameter><parameter name="LWN">15800.168544</parameter><parameter name="ABP">32197</parameter><parameter name="SSP">1</parameter><parameter name="ARG">2</parameter><parameter name="ASG">2</parameter><parameter name="ASS">32</parameter><parameter name="GFW">16</parameter><parameter name="GBW">16</parameter><parameter name="BFW">0</parameter><parameter name="BBW">0</parameter><parameter name="PKA">7382</parameter><parameter name="PKL">4990</parameter><parameter name="PRA">7524</parameter><parameter name="PRL">5001</parameter><parameter name="P2A">1</parameter><parameter name="P2L">1</parameter><parameter name="P2R">1</parameter><parameter name="P2K">1</parameter><parameter name="DAQ">0</parameter><parameter name="AG2">1</parameter><parameter name="SSM">1</parameter><parameter name="RSN">24523</parameter><parameter name="CRR">0</parameter><parameter name="SRT">1653044854.613</parameter><parameter name="DUR">19.6379852294922</parameter><parameter name="TSC">28.9</parameter><parameter name="MVD">0.241850510239601</parameter><parameter name="AN1">0.225755516147216</parameter><parameter name="AN2">0</parameter><parameter name="VSN">2.485 Apr  4 2017</parameter><parameter name="SRN">0085</parameter><parameter name="CAM">0</parameter><parameter name="INS">IR-Biotyper</parameter><parameter name="FOC">69</parameter><parameter name="RDY">1</parameter><parameter name="ARS">32</parameter></Instrument_Parameters_Rf><Sample_Parameters_><parameter name="BLD"></parameter><parameter name="CNM">Admin</parameter><parameter name="CPY"></parameter><parameter name="DPM"></parameter><parameter name="EXP">IRBT_v3_32Scans.XPM</parameter><parameter name="LCT"></parameter><parameter name="SFM">Microplate, HTS-XT</parameter><parameter name="SNM">220520-0930(v.3)_CLA33F (D_1)_D5_b4d9faa0-f6d7-4f69-9f09-4455dc8c26d2.0</parameter><parameter name="XPP">C:\Users\Public\Documents\Bruker\OPUS_8.2.28\XPM</parameter><parameter name="IST">OK</parameter><parameter name="CPG">1252</parameter><parameter name="UID">dddeb60f-6183-4ace-a34f-ecc9b5b9ef71</parameter></Sample_Parameters_><Instrument_Parameters_><parameter name="HFL">15800.168544</parameter><parameter name="LFL">0</parameter><parameter name="LWN">15800.168544</parameter><parameter name="ABP">32197</parameter><parameter name="SSP">1</parameter><parameter name="ASG">2</parameter><parameter name="ARG">2</parameter><parameter name="ASS">32</parameter><parameter name="GFW">16</parameter><parameter name="GBW">16</parameter><parameter name="BFW">0</parameter><parameter name="BBW">0</parameter><parameter name="PKA">8057</parameter><parameter name="PKL">4990</parameter><parameter name="PRA">8288</parameter><parameter name="PRL">4993</parameter><parameter name="P2A">1</parameter><parameter name="P2L">1</parameter><parameter name="P2R">1</parameter><parameter name="P2K">1</parameter><parameter name="DAQ">0</parameter><parameter name="AG2">1</parameter><parameter name="SSM">1</parameter><parameter name="RSN">12886</parameter><parameter name="CRR">0</parameter><parameter name="SRT">1653044880.466</parameter><parameter name="DUR">19.6369934082031</parameter><parameter name="TSC">28.9</parameter><parameter name="MVD">0.277396470308304</parameter><parameter name="AN1">0.225789196857917</parameter><parameter name="AN2">0</parameter><parameter name="VSN">2.485 Apr  4 2017</parameter><parameter name="SRN">0085</parameter><parameter name="CAM">0</parameter><parameter name="INS">IR-Biotyper</parameter><parameter name="FOC">69</parameter><parameter name="RDY">1</parameter></Instrument_Parameters_><History/></OPUSDataFile>
