<?xml version="1.0" encoding="UTF-8" ?>
<OPUSDataFile><AB><Ydata ylabel="Absorbance Units"><values byteorder="INTEL" format="FLOAT32" numvalues="3497"> -0.04464849 -0.04465661 -0.04465576 -0.0446457 -0.04462992 -0.0446086 -0.04458422 -0.04455692 -0.04452857 -0.0444997
 -0.04447448 -0.04445278 -0.04443673 -0.04442484 -0.04441429 -0.04440485 -0.04439386 -0.04438446 -0.04437955 -0.04438031
 -0.04439096 -0.04440353 -0.04441606 -0.04441801 -0.0444029 -0.04437458 -0.04433009 -0.04428976 -0.04425622 -0.04424546
 -0.04426024 -0.04429487 -0.04434915 -0.04440381 -0.04445841 -0.04450157 -0.04453501 -0.04456311 -0.04458744 -0.0446169
 -0.04464952 -0.04468604 -0.04472176 -0.04474899 -0.04476557 -0.04476418 -0.04475031 -0.04472448 -0.04469623 -0.0446718
 -0.04465338 -0.044645 -0.04463804 -0.04463092 -0.04461785 -0.04459609 -0.04457548 -0.04455626 -0.04455362 -0.04456843
 -0.04459954 -0.0446456 -0.04468728 -0.04472401 -0.04474122 -0.04474256 -0.04473365 -0.0447176 -0.04470575 -0.04469625
 -0.04469087 -0.04468779 -0.04468434 -0.04468305 -0.04468582 -0.04469216 -0.0447042 -0.04471382 -0.04471802 -0.04471315
 -0.04469568 -0.04467616 -0.04465507 -0.04464642 -0.04465192 -0.04467642 -0.04472032 -0.04478068 -0.0448569 -0.04494095
 -0.04503042 -0.04510709 -0.04516776 -0.04518831 -0.04517356 -0.04511943 -0.04504063 -0.04496036 -0.04488748 -0.0448445
 -0.04482472 -0.04483336 -0.04485204 -0.04487224 -0.04488047 -0.04486587 -0.04483924 -0.0447983 -0.04477048 -0.0447608
 -0.0447817 -0.04483664 -0.04490765 -0.04499395 -0.04506745 -0.04512786 -0.04516559 -0.04518292 -0.04518905 -0.04518611
 -0.04518637 -0.0451913 -0.04521087 -0.0452447 -0.04529917 -0.04536606 -0.04544148 -0.04550875 -0.04555338 -0.0455638
 -0.04552564 -0.04544929 -0.04532972 -0.04520249 -0.04507288 -0.04498155 -0.04493637 -0.04496108 -0.04506145 -0.04522027
 -0.04543753 -0.04561307 -0.04574163 -0.0457161 -0.0455532 -0.04530661 -0.04499766 -0.04473945 -0.04452903 -0.04441716
 -0.04438852 -0.044444 -0.04455875 -0.04470744 -0.04486147 -0.04498745 -0.04507514 -0.04510426 -0.04509475 -0.04504752
 -0.04498961 -0.0449301 -0.04487544 -0.04482912 -0.04478409 -0.04473957 -0.0446953 -0.04465114 -0.04461618 -0.04459066
 -0.04458029 -0.0445838 -0.04459602 -0.04461506 -0.04463079 -0.04464293 -0.04464572 -0.04463955 -0.04462219 -0.04459492
 -0.04455652 -0.04451401 -0.04447083 -0.04443865 -0.04442517 -0.04443693 -0.04448048 -0.0445485 -0.04464277 -0.04474312
 -0.04484701 -0.04493606 -0.04500792 -0.04505346 -0.04507199 -0.04505845 -0.04501306 -0.04493771 -0.04483446 -0.04471727
 -0.04458879 -0.0444668 -0.04435204 -0.04425566 -0.04417609 -0.04411654 -0.04407289 -0.04404214 -0.04401895 -0.04399719
 -0.04397586 -0.04395109 -0.0439294 -0.04391253 -0.04390528 -0.04391091 -0.0439228 -0.0439407 -0.04395598 -0.04396704
 -0.04397697 -0.04398582 -0.04400046 -0.04402066 -0.04404328 -0.04406731 -0.04408357 -0.04409327 -0.04409581 -0.04409425
 -0.04409707 -0.04410423 -0.04412061 -0.04414217 -0.04416601 -0.04418841 -0.04420341 -0.04421514 -0.04422217 -0.04423653
 -0.04426333 -0.04430798 -0.04437584 -0.04445302 -0.04453901 -0.04461444 -0.04467657 -0.04472131 -0.04474842 -0.04474684
 -0.04471534 -0.04462754 -0.04448711 -0.04430353 -0.04408799 -0.04389149 -0.04371858 -0.04361056 -0.04355726 -0.04356411
 -0.0436077 -0.04366046 -0.04370799 -0.04372367 -0.04371832 -0.04368994 -0.04365353 -0.04361579 -0.04358166 -0.04355452
 -0.04353209 -0.04351522 -0.04349592 -0.04347339 -0.04344141 -0.0433993 -0.0433544 -0.04330766 -0.04327755 -0.04326425
 -0.0432808 -0.04332127 -0.04337244 -0.04342097 -0.04342208 -0.04337482 -0.0432485 -0.04307012 -0.04286018 -0.04264383
 -0.04245347 -0.0422909 -0.04216951 -0.04207302 -0.04199845 -0.04193014 -0.04186118 -0.04179318 -0.04172465 -0.04166452
 -0.04161466 -0.04156968 -0.04152974 -0.04147126 -0.04139325 -0.04127562 -0.04112129 -0.04094118 -0.04073998 -0.04054325
 -0.0403517 -0.04017855 -0.04002616 -0.03990375 -0.03981568 -0.03977453 -0.03977226 -0.03981353 -0.03986648 -0.03991626
 -0.03992989 -0.03988595 -0.0397853 -0.03962169 -0.03941355 -0.03916379 -0.0388821 -0.03856979 -0.03823355 -0.03787373
 -0.03750096 -0.03711626 -0.03673779 -0.03636803 -0.03603426 -0.03573719 -0.03549734 -0.03530724 -0.03515922 -0.03504184
 -0.03492891 -0.03481766 -0.03469402 -0.03455836 -0.03440955 -0.03423809 -0.03403711 -0.03380334 -0.0335293 -0.03323412
 -0.0329224 -0.03260501 -0.03228664 -0.03195864 -0.03162034 -0.03126582 -0.0308942 -0.03051811 -0.03013881 -0.02978265
 -0.02945066 -0.02916526 -0.02892211 -0.02871991 -0.02854371 -0.02835306 -0.02813503 -0.02783706 -0.02748046 -0.02706609
 -0.02663067 -0.0262123 -0.02581915 -0.02547233 -0.02515176 -0.02485634 -0.02455853 -0.02424785 -0.02391927 -0.02356728
 -0.02321272 -0.0228578 -0.02251436 -0.02218399 -0.0218504 -0.02151261 -0.02114908 -0.02076165 -0.02035407 -0.01993051
 -0.01951171 -0.01909797 -0.01870122 -0.01831868 -0.017951 -0.0175945 -0.01724535 -0.01689878 -0.01654816 -0.01619382
 -0.01583176 -0.01547177 -0.01511813 -0.01477367 -0.01444392 -0.01410929 -0.01376794 -0.0133971 -0.0129914 -0.01256311
 -0.01211199 -0.01167547 -0.01125468 -0.01086651 -0.0105083 -0.01016705 -0.009839052 -0.00950072 -0.009152033 -0.008778802
 -0.008387721 -0.007983292 -0.007575667 -0.007181229 -0.006803226 -0.006454516 -0.006121519 -0.005803376 -0.005474356 -0.005121376
 -0.004735155 -0.004305589 -0.003854779 -0.003383944 -0.00292067 -0.002469353 -0.002038251 -0.001628699 -0.001230689 -0.0008436763
 -0.0004562966 -6.893238E-05 0.0003202308 0.0007103924 0.001098671 0.001485462 0.001870448 0.002254239 0.002637854 0.003021699
 0.003406907 0.003793128 0.004181272 0.004568202 0.004953168 0.005330328 0.005697035 0.006049228 0.006384534 0.006704106
 0.007006917 0.007299954 0.007583008 0.007870983 0.008164731 0.00848181 0.008822613 0.009190186 0.009582284 0.009981681
 0.01038628 0.01077652 0.01115445 0.01151533 0.01186331 0.01220446 0.01254101 0.01287946 0.01321775 0.01355783
 0.0138923 0.01421677 0.01452672 0.01481527 0.01509633 0.01536927 0.0156627 0.01598307 0.0163441 0.01675083
 0.01718406 0.0176434 0.0180954 0.01853873 0.01895341 0.01934027 0.01969774 0.02002676 0.02033027 0.02060912
 0.02086542 0.02110381 0.02133246 0.02156007 0.02180296 0.02206364 0.0223532 0.02266175 0.02298686 0.02331754
 0.02364674 0.02397452 0.02429988 0.02462262 0.0249443 0.02525275 0.0255462 0.02581927 0.02607044 0.02632245
 0.02657671 0.02686528 0.02718659 0.02754293 0.02792653 0.02830289 0.02866551 0.02897444 0.02923488 0.02943396
 0.0295901 0.02972187 0.02984803 0.02999602 0.03016734 0.03037421 0.03060235 0.03084848 0.03110026 0.03135285
 0.03160102 0.03184358 0.03207387 0.03229093 0.03248954 0.03266874 0.03283689 0.03299475 0.03316209 0.03333979
 0.03354419 0.0337744 0.03403595 0.03432537 0.03463716 0.0349642 0.03529101 0.03560895 0.03589879 0.03615762
 0.03637334 0.03655388 0.03669817 0.03682321 0.03693516 0.03705103 0.03717834 0.0373222 0.03748669 0.03766148
 0.0378464 0.03802648 0.03820033 0.03836265 0.03851342 0.03865889 0.03879971 0.03894475 0.03909336 0.03924774
 0.03940537 0.03955999 0.03970954 0.03984561 0.0399707 0.04008297 0.04019056 0.04030054 0.04041958 0.04055617
 0.04070694 0.04087477 0.04104619 0.04121808 0.04137831 0.04152261 0.04165164 0.04176397 0.04187101 0.04197369
 0.04207782 0.04218337 0.04228006 0.04236691 0.04242909 0.0424684 0.04248444 0.04248221 0.04247679 0.04247146
 0.04248151 0.04250426 0.04254325 0.04259255 0.04264677 0.04270405 0.04275948 0.0428198 0.04288596 0.04296749
 0.04306912 0.04318986 0.04333296 0.04347973 0.0436294 0.04375548 0.04385558 0.04391525 0.04393423 0.04392364
 0.04388583 0.04384881 0.04381296 0.04379646 0.04379481 0.04380301 0.04381821 0.04382956 0.04384293 0.04386241
 0.04389282 0.04394456 0.04400723 0.04407948 0.04414311 0.04418701 0.04420823 0.04420038 0.04417958 0.04414768
 0.04412072 0.04410208 0.04409323 0.04409509 0.04409672 0.04409746 0.04408193 0.0440499 0.0439921 0.04391155
 0.0438166 0.04371422 0.04363085 0.04357059 0.04355843 0.04358551 0.04365411 0.04374182 0.04382765 0.04389267
 0.0439126 0.04389433 0.04382911 0.04375011 0.04366529 0.04360383 0.04357617 0.04358215 0.04362455 0.04368579
 0.04376416 0.04385564 0.04396022 0.04409029 0.04424503 0.0444233 0.04461871 0.04479879 0.04495673 0.04505082
 0.04508561 0.04504563 0.04495059 0.0448201 0.04467815 0.04455844 0.04446973 0.04443403 0.04443308 0.04446856
 0.04450423 0.04452925 0.04451521 0.04445116 0.04433827 0.04417258 0.04398262 0.04376997 0.04356557 0.04337081
 0.04319673 0.04304237 0.04290109 0.04277225 0.04264833 0.04253151 0.04242467 0.04233068 0.04225951 0.04220676
 0.04217478 0.04214559 0.04210421 0.04202847 0.04189438 0.04170143 0.04143611 0.04113123 0.04079085 0.04045941
 0.0401484 0.03988127 0.03966511 0.03949304 0.03936622 0.03925689 0.03916346 0.03904971 0.03891504 0.0387377
 0.03852315 0.03828719 0.03803845 0.03781654 0.03761895 0.03746431 0.03733467 0.03721071 0.03707851 0.03691099
 0.03671756 0.03649193 0.03626083 0.03603514 0.0358367 0.03567778 0.03555861 0.0354856 0.03543042 0.0353925
 0.03532679 0.03522892 0.03507343 0.03485931 0.03460911 0.03432649 0.03406143 0.03381379 0.03361117 0.03344546
 0.03330449 0.03318094 0.03305081 0.03291568 0.0327672 0.03261008 0.03244783 0.03227931 0.03210536 0.03192258
 0.03172717 0.03152582 0.03131774 0.03111922 0.03093438 0.03077128 0.03063316 0.03051091 0.03040428 0.0303008
 0.03019985 0.03009782 0.02999441 0.02988603 0.02977111 0.02963817 0.02948753 0.02931238 0.02911826 0.02891422
 0.02870497 0.02850381 0.02830717 0.02811719 0.02792653 0.02772915 0.02752438 0.02730884 0.02708921 0.02686718
 0.02664746 0.0264323 0.02621919 0.02600834 0.02579495 0.02557836 0.02535893 0.02513669 0.02491814 0.02470358
 0.02449904 0.02430379 0.02411715 0.02393757 0.02375913 0.02358153 0.02340067 0.02321843 0.02303596 0.02285498
 0.02267822 0.02250546 0.02233658 0.02217393 0.02201632 0.02187481 0.02175263 0.02165975 0.02160267 0.02156652
 0.02155374 0.02152006 0.02146212 0.02133937 0.02114964 0.02089383 0.02057567 0.02023977 0.0198918 0.01958835
 0.01932825 0.01914231 0.01901536 0.01893244 0.01886897 0.01877757 0.01864765 0.01844066 0.01818252 0.01787369
 0.01756107 0.01727243 0.01702596 0.01684145 0.01669052 0.01657064 0.01645307 0.01632866 0.01621569 0.01611328
 0.01606613 0.01607657 0.01615128 0.01628553 0.01642189 0.01655281 0.01660178 0.01657305 0.01643548 0.01620961
 0.01592585 0.01560528 0.01529883 0.01500755 0.01475593 0.01452693 0.01431372 0.01410699 0.01389542 0.01369226
 0.01349902 0.01333085 0.01319506 0.01308173 0.01299236 0.01290055 0.0128032 0.01269225 0.01256713 0.01244831
 0.01233706 0.0122561 0.01220336 0.01217885 0.01217803 0.01218455 0.01219632 0.01220009 0.01219654 0.01218159
 0.01215484 0.0121157 0.01205952 0.01198406 0.01188073 0.0117446 0.01156916 0.01134794 0.01109111 0.010795
 0.01049655 0.01019876 0.009947341 0.009748234 0.009614829 0.009548257 0.009509259 0.009494171 0.009442651 0.009355522
 0.009204007 0.00899833 0.008758535 0.008496194 0.008250514 0.008022877 0.007835425 0.007678646 0.007551041 0.007441202
 0.007338918 0.007239311 0.007135458 0.00703189 0.006926825 0.00683347 0.006754219 0.006701998 0.006681253 0.006684611
 0.006713828 0.006732526 0.006738753 0.006695556 0.006603797 0.006466714 0.006290424 0.006115501 0.005943528 0.005804807
 0.005690179 0.005591876 0.005503335 0.005405394 0.005308524 0.005214547 0.005142064 0.005108443 0.005119258 0.005184653
 0.005295833 0.005451194 0.005645517 0.005875673 0.006147692 0.006462502 0.006822907 0.007230935 0.007666192 0.008127811
 0.008568719 0.008986011 0.009327992 0.009595424 0.009764305 0.009842757 0.009846357 0.00978537 0.00969353 0.009573915
 0.00944853 0.009311697 0.009165184 0.009003451 0.00882018 0.008619833 0.008400322 0.008176633 0.00795277 0.007744421
 0.007556557 0.007397007 0.007267612 0.007172904 0.007112601 0.007101481 0.007140276 0.007254354 0.00744443 0.007726845
 0.008098398 0.00854832 0.009070336 0.00963529 0.01023945 0.01085857 0.0114933 0.01213448 0.01278242 0.01343487
 0.01408973 0.0147435 0.01539856 0.01605288 0.01671797 0.01739733 0.01810121 0.01883567 0.01959168 0.02037191
 0.02114372 0.02190538 0.02261549 0.02327148 0.02384338 0.02433092 0.02472618 0.02503128 0.02525507 0.02540038
 0.02548098 0.02550185 0.02547864 0.02542375 0.02536163 0.02531158 0.02530603 0.02535724 0.02548941 0.02569558
 0.02598109 0.02632721 0.02672777 0.02717013 0.02764941 0.02816147 0.0287057 0.02927475 0.02986862 0.03047194
 0.03108393 0.03168353 0.03226925 0.03281507 0.03331982 0.03376066 0.03414146 0.03446186 0.03473288 0.03498255
 0.03521774 0.03546978 0.03572207 0.03597706 0.03618813 0.03632506 0.03632903 0.03615849 0.03577758 0.03515459
 0.03430978 0.03323108 0.03200171 0.03062699 0.02922005 0.02779254 0.02643233 0.02514597 0.02396367 0.02288467
 0.02189582 0.02099499 0.02016192 0.01939659 0.01868982 0.01803942 0.01743798 0.0168767 0.01633829 0.01581229
 0.01527712 0.01473285 0.01416869 0.01359958 0.01302901 0.01247683 0.01195167 0.01146604 0.01102532 0.01063334
 0.01029133 0.01000177 0.009764404 0.009588304 0.009473869 0.009437473 0.009479363 0.009607265 0.009816362 0.01008059
 0.01038855 0.01068077 0.01095049 0.01114439 0.01127571 0.01133655 0.01136027 0.01138156 0.01143531 0.01156485
 0.01178367 0.01211736 0.012547 0.01307653 0.01366383 0.01430028 0.0149462 0.01559294 0.01621987 0.01682485
 0.0173868 0.0179053 0.01831475 0.01860871 0.01866802 0.01848666 0.01795607 0.01709157 0.01588397 0.01437884
 0.01268266 0.01084862 0.00902234 0.007229628 0.005566377 0.004020966 0.002617986 0.001331214 0.0001512379 -0.0009400992
 -0.001952291 -0.002895509 -0.003773053 -0.004596561 -0.005368167 -0.006098297 -0.006788689 -0.007441696 -0.008057669 -0.008633325
 -0.009168598 -0.009661833 -0.01011386 -0.01052937 -0.01091014 -0.01126612 -0.01159802 -0.01191344 -0.01221065 -0.01248958
 -0.01274968 -0.01298803 -0.01321119 -0.01342208 -0.01363181 -0.01384889 -0.0140765 -0.01432108 -0.01456934 -0.01482078
 -0.01505451 -0.01526581 -0.01544651 -0.01559362 -0.01572104 -0.01582925 -0.01594036 -0.01605478 -0.01617889 -0.01631063
 -0.01643689 -0.01655751 -0.01666245 -0.01675817 -0.01685621 -0.01696406 -0.01710354 -0.01727129 -0.01747558 -0.01770021
 -0.01793522 -0.01816337 -0.01837062 -0.01854992 -0.01869376 -0.01880554 -0.01888316 -0.01893882 -0.01897271 -0.01900585
 -0.01904021 -0.01909601 -0.01917506 -0.0192785 -0.01940547 -0.01953588 -0.0196684 -0.01978294 -0.01988137 -0.01996043
 -0.02002371 -0.02007961 -0.02012981 -0.02018147 -0.02023452 -0.02029195 -0.02035256 -0.02041728 -0.02048161 -0.02054407
 -0.02059768 -0.02063826 -0.02066519 -0.0206754 -0.02068042 -0.02068093 -0.0206929 -0.02071871 -0.02076423 -0.02083037
 -0.02090816 -0.02099689 -0.0210818 -0.02116255 -0.02122941 -0.02128357 -0.02132436 -0.02135415 -0.02137898 -0.02140079
 -0.02142681 -0.02145567 -0.02148953 -0.02152369 -0.02155399 -0.02157911 -0.02159465 -0.02160931 -0.02162438 -0.02165248
 -0.02169841 -0.02176562 -0.02185702 -0.02196339 -0.02208456 -0.02220692 -0.02232955 -0.02244141 -0.02254209 -0.02262545
 -0.02269183 -0.02274077 -0.02277354 -0.0227951 -0.02280709 -0.02281655 -0.0228243 -0.0228352 -0.0228493 -0.02286851
 -0.02289297 -0.02292319 -0.02296002 -0.02300407 -0.02305604 -0.02311701 -0.02318469 -0.02325969 -0.02333477 -0.02340914
 -0.02347418 -0.02352852 -0.02356904 -0.02359521 -0.02361195 -0.02361959 -0.02362571 -0.02363011 -0.02363504 -0.02363932
 -0.02363854 -0.02363265 -0.02361778 -0.02359771 -0.02357687 -0.02356122 -0.02356116 -0.02357885 -0.02362176 -0.0236841
 -0.02376604 -0.02385644 -0.02395108 -0.02404007 -0.02411903 -0.02418558 -0.02423766 -0.02428086 -0.02431534 -0.02434878
 -0.02438184 -0.02441721 -0.0244549 -0.02449299 -0.02453148 -0.02456948 -0.02460736 -0.02464658 -0.02468713 -0.02472978
 -0.0247742 -0.02482017 -0.02486739 -0.02491574 -0.02496385 -0.02501069 -0.0250543 -0.02509234 -0.02512637 -0.02515535
 -0.02518555 -0.02521867 -0.02525895 -0.02530854 -0.02536275 -0.02542172 -0.02547628 -0.02552559 -0.02556757 -0.02560236
 -0.02563663 -0.02567071 -0.02571064 -0.02575546 -0.02580373 -0.02585466 -0.02590477 -0.02595488 -0.02600523 -0.02605602
 -0.02610829 -0.02616005 -0.02620976 -0.02625598 -0.02629683 -0.02633335 -0.02636588 -0.02639396 -0.02641783 -0.02643539
 -0.02644552 -0.02645162 -0.02645328 -0.02646036 -0.02647367 -0.0264978 -0.02653269 -0.02657195 -0.02661487 -0.02665224
 -0.02668452 -0.02670869 -0.02672607 -0.02673882 -0.02674831 -0.02675798 -0.02676941 -0.02678629 -0.02680935 -0.02684139
 -0.02687998 -0.02692495 -0.02697204 -0.02701917 -0.02706393 -0.02710497 -0.02714208 -0.02717513 -0.02720338 -0.02722678
 -0.02724425 -0.02725562 -0.0272622 -0.02726411 -0.02726529 -0.02726599 -0.02727026 -0.02727811 -0.02729158 -0.02731077
 -0.02733715 -0.02737054 -0.02741203 -0.02745944 -0.02751128 -0.02756256 -0.02760784 -0.02764397 -0.02766543 -0.02767724
 -0.02767905 -0.02768062 -0.02768565 -0.02769701 -0.02771709 -0.02773894 -0.02776192 -0.02778073 -0.0277946 -0.02780746
 -0.02781949 -0.0278355 -0.02785488 -0.02787413 -0.02789229 -0.02790234 -0.02790517 -0.02789946 -0.0278874 -0.02787288
 -0.02785715 -0.02784375 -0.02783279 -0.02782545 -0.02782205 -0.02782284 -0.02782894 -0.02784079 -0.02785975 -0.02788677
 -0.0279207 -0.02796243 -0.02800474 -0.02804728 -0.02807968 -0.02810086 -0.0281079 -0.02810092 -0.02808928 -0.02807393
 -0.028068 -0.02807083 -0.02808686 -0.0281131 -0.0281431 -0.02817387 -0.02819536 -0.02820805 -0.02820685 -0.02819753
 -0.0281831 -0.02817097 -0.02816758 -0.02817572 -0.02819963 -0.02823458 -0.0282808 -0.02832993 -0.02838045 -0.02842519
 -0.02846284 -0.02849016 -0.02850657 -0.02851467 -0.0285147 -0.02851381 -0.02851227 -0.02851556 -0.02852307 -0.02853484
 -0.02854973 -0.02856408 -0.02857741 -0.02858649 -0.0285926 -0.02859546 -0.02859853 -0.0286049 -0.0286179 -0.02864202
 -0.02867455 -0.02871708 -0.0287599 -0.02880049 -0.0288305 -0.02884645 -0.02885128 -0.02884407 -0.02883647 -0.02882938
 -0.02883117 -0.02884209 -0.02886009 -0.02888455 -0.02890842 -0.02893168 -0.02895053 -0.02896541 -0.02897597 -0.02898194
 -0.02898247 -0.02897742 -0.02896548 -0.02894891 -0.02892892 -0.0289093 -0.02889325 -0.02888262 -0.0288794 -0.02888309
 -0.0288939 -0.02891133 -0.02893537 -0.02896541 -0.02900177 -0.02904038 -0.02908117 -0.02911675 -0.02914673 -0.02916462
 -0.02917058 -0.02916352 -0.02914462 -0.0291191 -0.0290884 -0.02905998 -0.02903415 -0.02901551 -0.02900294 -0.02899683
 -0.02899577 -0.02899848 -0.02900386 -0.02901097 -0.02901836 -0.02902533 -0.02903 -0.02903143 -0.02902935 -0.02902314
 -0.02901526 -0.02900589 -0.0289977 -0.02899108 -0.02898514 -0.0289798 -0.0289702 -0.02895625 -0.02893457 -0.02890617
 -0.02887414 -0.02884004 -0.0288108 -0.02878674 -0.02877204 -0.02876589 -0.02876868 -0.02878009 -0.02880022 -0.02882789
 -0.02886363 -0.02890184 -0.02894102 -0.02897287 -0.02899378 -0.02900105 -0.02899211 -0.0289744 -0.02894804 -0.02892417
 -0.02890402 -0.02889078 -0.02888456 -0.02887896 -0.0288736 -0.0288616 -0.02884404 -0.02882247 -0.02879954 -0.02878411
 -0.02877934 -0.02879613 -0.02883684 -0.02891025 -0.02901567 -0.02915683 -0.02932862 -0.02952841 -0.02975243 -0.02999579
 -0.03026592 -0.03056313 -0.03089936 -0.03127984 -0.03169782 -0.03215611 -0.03262103 -0.03309038 -0.03353102 -0.03394126
 -0.0343079 -0.03463022 -0.03489773 -0.03510699 -0.0352344 -0.03527547 -0.03520202 -0.03501382 -0.03468859 -0.034249
 -0.0337094 -0.03311984 -0.03253918 -0.03200109 -0.03155233 -0.03119476 -0.03094162 -0.0307853 -0.0307268 -0.03075557
 -0.03087409 -0.03104763 -0.03127619 -0.03149294 -0.03169167 -0.03182952 -0.03190438 -0.03192978 -0.03190779 -0.03186632
 -0.03180626 -0.03174655 -0.03168682 -0.03163733 -0.03159409 -0.03155503 -0.03151182 -0.03145096 -0.0313658 -0.03124218
 -0.03108312 -0.03088315 -0.03065756 -0.03041077 -0.03016143 -0.02991739 -0.02968789 -0.02947669 -0.0292864 -0.02911759
 -0.02897401 -0.02885634 -0.02876303 -0.02869393 -0.0286349 -0.02858499 -0.02852809 -0.02846524 -0.02839375 -0.02831603
 -0.02823929 -0.02816415 -0.028096 -0.02803346 -0.02797676 -0.02792451 -0.02787499 -0.02782818 -0.02778302 -0.02774149
 -0.0277042 -0.02767323 -0.02765034 -0.02763262 -0.02762042 -0.02760677 -0.02759035 -0.02756887 -0.02754161 -0.02751383
 -0.02748579 -0.02746277 -0.02744465 -0.02743134 -0.02742246 -0.02741574 -0.02741109 -0.02740726 -0.02740389 -0.02739972
 -0.02739411 -0.02738532 -0.02737351 -0.02735799 -0.02733977 -0.02731909 -0.02729769 -0.02727621 -0.02725698 -0.02724117
 -0.02722919 -0.0272219 -0.02721602 -0.02721145 -0.02720333 -0.0271912 -0.02717172 -0.02714468 -0.02710957 -0.02706663
 -0.02701835 -0.02696547 -0.0269134 -0.02686287 -0.02681944 -0.02678298 -0.02675617 -0.02673786 -0.02672785 -0.02672378
 -0.02672351 -0.02672369 -0.02672095 -0.02671358 -0.02669888 -0.02667981 -0.02665624 -0.02663357 -0.02661327 -0.02659785
 -0.02658828 -0.02658266 -0.02658095 -0.02658049 -0.02658113 -0.02658224 -0.02658387 -0.02658652 -0.02658995 -0.02659339
 -0.0265959 -0.02659373 -0.02658605 -0.02656855 -0.02654217 -0.02650555 -0.02646255 -0.02641635 -0.02637189 -0.02633429
 -0.02630556 -0.02628928 -0.02628132 -0.02628191 -0.02628324 -0.02628344 -0.02627708 -0.02626252 -0.02624091 -0.0262119
 -0.02618139 -0.02614969 -0.02612291 -0.02610113 -0.02608717 -0.02608043 -0.02607901 -0.02608174 -0.0260833 -0.02608317
 -0.02607701 -0.02606596 -0.02604964 -0.02603017 -0.02600989 -0.02599024 -0.02597323 -0.02595928 -0.02594924 -0.02594264
 -0.02593959 -0.02593922 -0.02594139 -0.02594524 -0.02595071 -0.02595648 -0.02596251 -0.02596637 -0.02596794 -0.02596593
 -0.02596045 -0.02595294 -0.02594327 -0.02593186 -0.02591761 -0.02589629 -0.0258678 -0.02582843 -0.02578193 -0.02573193
 -0.0256843 -0.02564814 -0.0256244 -0.02561855 -0.02562414 -0.02563988 -0.02565757 -0.02567324 -0.02568443 -0.02568919
 -0.02569031 -0.02568791 -0.02568486 -0.02568154 -0.02567834 -0.02567529 -0.02567286 -0.0256711 -0.02567111 -0.02567257
 -0.02567427 -0.02567536 -0.02567173 -0.02566333 -0.02564745 -0.02562574 -0.02559958 -0.02557082 -0.02554238 -0.02551481
 -0.02548954 -0.02546647 -0.0254456 -0.02542789 -0.02541337 -0.02540436 -0.02540147 -0.02540631 -0.02541971 -0.02543894
 -0.02546417 -0.02548806 -0.0255102 -0.02552417 -0.02553 -0.02552704 -0.0255159 -0.0255002 -0.0254802 -0.0254587
 -0.02543574 -0.02541239 -0.02538957 -0.025369 -0.02535211 -0.02534142 -0.02533745 -0.02534205 -0.0253532 -0.02537101
 -0.02539095 -0.02541162 -0.02542864 -0.02544022 -0.025446 -0.0254453 -0.0254411 -0.02543364 -0.02542514 -0.02541575
 -0.02540407 -0.02539003 -0.02537186 -0.02534996 -0.02532602 -0.02530075 -0.02527803 -0.02525765 -0.02524138 -0.02522783
 -0.02521532 -0.02520299 -0.02518867 -0.02517349 -0.02515738 -0.02514245 -0.02513008 -0.02512089 -0.02511591 -0.02511303
 -0.0251121 -0.0251103 -0.02510697 -0.02510151 -0.02509356 -0.02508573 -0.02507817 -0.02507362 -0.02507191 -0.02507079
 -0.02506958 -0.02506209 -0.02504876 -0.02502712 -0.02499987 -0.02497244 -0.02494742 -0.02493278 -0.02492712 -0.02493312
 -0.02494507 -0.02495918 -0.02497094 -0.02497563 -0.02497503 -0.024968 -0.02496015 -0.02495328 -0.0249486 -0.0249474
 -0.02494387 -0.02493756 -0.02492304 -0.02489983 -0.02487013 -0.02483438 -0.02480054 -0.02476889 -0.02474542 -0.02472918
 -0.02471976 -0.02471568 -0.02471255 -0.02471039 -0.02470652 -0.02470335 -0.02470295 -0.02470688 -0.02471834 -0.02473419
 -0.02475407 -0.02477322 -0.02478894 -0.02480138 -0.02480946 -0.0248174 -0.024826 -0.02483662 -0.02484979 -0.02486236
 -0.02487416 -0.02488328 -0.02488984 -0.02489592 -0.02490174 -0.02491017 -0.02492049 -0.02493181 -0.02494231 -0.02494667
 -0.02494405 -0.02492955 -0.02490565 -0.02487279 -0.02483533 -0.02479753 -0.02476099 -0.02472811 -0.02469807 -0.02467062
 -0.02464689 -0.02462692 -0.02461285 -0.02460556 -0.02460285 -0.02460493 -0.02460551 -0.0246042 -0.02459684 -0.02458348
 -0.02456515 -0.02454243 -0.02451975 -0.0244977 -0.02448134 -0.02447014 -0.02446572 -0.02446605 -0.02446824 -0.02447067
 -0.02446971 -0.02446602 -0.02445878 -0.02444949 -0.02443909 -0.02442766 -0.02441559 -0.02440213 -0.02438715 -0.02436994
 -0.0243503 -0.02432813 -0.02430335 -0.02427653 -0.02424766 -0.02421852 -0.02418922 -0.02416195 -0.02413682 -0.02411603
 -0.02409918 -0.02408639 -0.02407589 -0.02406323 -0.02404679 -0.02402057 -0.02398664 -0.02394407 -0.02389847 -0.02385449
 -0.02381586 -0.02378723 -0.02376619 -0.02375371 -0.02374349 -0.02373405 -0.02372049 -0.02370119 -0.02367681 -0.02364678
 -0.0236173 -0.02358869 -0.02356761 -0.02355411 -0.02354854 -0.02355008 -0.02355278 -0.02355604 -0.02355397 -0.0235473
 -0.02353447 -0.02351766 -0.02350005 -0.0234835 -0.02347272 -0.0234654 -0.02346251 -0.02345719 -0.02344509 -0.02342309
 -0.02338702 -0.02334375 -0.02329364 -0.02324637 -0.02320434 -0.02317006 -0.02314466 -0.02312281 -0.0231043 -0.02308279
 -0.02305813 -0.0230283 -0.02299382 -0.02295752 -0.02292008 -0.02288597 -0.022855 -0.02282918 -0.02280739 -0.02278842
 -0.02277157 -0.02275545 -0.02273973 -0.02272408 -0.02270709 -0.02268805 -0.02266506 -0.02263686 -0.02260356 -0.02256455
 -0.02252235 -0.0224772 -0.02243187 -0.02238677 -0.02234282 -0.02230016 -0.0222578 -0.02221578 -0.02217464 -0.02213505
 -0.02210238 -0.02207717 -0.02206558 -0.02206552 -0.02207596 -0.02209114 -0.02209987 -0.02209773 -0.02207242 -0.0220277
 -0.02196103 -0.021882 -0.02179588 -0.02170929 -0.02162694 -0.02154936 -0.02147773 -0.02141069 -0.02134772 -0.0212907
 -0.02123967 -0.02119783 -0.02116551 -0.02114142 -0.02112534 -0.02111266 -0.02110315 -0.02109346 -0.02108281 -0.02106656
 -0.02104296 -0.02100367 -0.02094994 -0.02087859 -0.02079571 -0.02070817 -0.02062042 -0.02053972 -0.02046583 -0.02040084
 -0.02034292 -0.02029196 -0.02024558 -0.02020377 -0.0201615 -0.02011817 -0.02006776 -0.02000916 -0.01994158 -0.0198647
 -0.01978425 -0.01970055 -0.01961988 -0.01954205 -0.01946841 -0.01939798 -0.0193267 -0.01925446 -0.01917782 -0.01909947
 -0.01902288 -0.01895058 -0.01888928 -0.01883467 -0.01878672 -0.01873625 -0.01867622 -0.0186047 -0.01851724 -0.01842212
 -0.01832078 -0.01822042 -0.01812348 -0.01802871 -0.01793647 -0.01784265 -0.01774688 -0.01764894 -0.01754888 -0.01744874
 -0.01734795 -0.01724315 -0.01713264 -0.01700646 -0.01686482 -0.01670187 -0.01652174 -0.01632956 -0.01612925 -0.01592875
 -0.01572879 -0.01553318 -0.0153405 -0.01515154 -0.01496253 -0.01477291 -0.01457626 -0.01437129 -0.01415037 -0.01391306
 -0.01364652 -0.01335059 -0.01300108 -0.01259624 -0.012116 -0.01156018 -0.01093829 -0.0102511 -0.009512483 -0.00871627
 -0.007843182 -0.006883128 -0.005793591 -0.004576319 -0.003205766 -0.00171106 -0.0001130269 0.001539196 0.003194345 0.004811222
 0.006346403 0.007785041 0.009108336 0.01032126 0.01142247 0.01241469 0.01329988 0.0140691 0.01472175 0.01524822
 0.01564776 0.01591365 0.01604578 0.01604426 0.01591093 0.01566287 0.01530059 0.01483824 0.01426921 0.01357488
 0.0127644 0.01182974 0.01082761 0.009832139 0.008889541 0.00808587 0.007394887 0.006827896 0.006343274 0.005920642
 0.005548955 0.005220384 0.004934006 0.004690461 0.004476324 0.004289025 0.00412658 0.003987051 0.003910677 0.00389929
 0.003987812 0.004171952 0.004426261 0.00474581 0.005092921 0.005469194 0.005860304 0.006269122 0.006694057 0.007138971
 0.007606625 0.008105684 0.008642571 0.009232897 0.009887516 0.01062166 0.01145074 0.01235936 0.01335399 0.01438003
 0.0154282 0.01645414 0.01744897 0.0184044 0.01931829 0.02020504 0.02106598 0.02193649 0.02282068 0.02377533
 0.02479577 0.02589941 0.02705856 0.02819194 0.02929273 0.03029771 0.03123868 0.03213609 0.03301268 0.03390301
 0.03480441 0.03572426 0.03665988 0.03760857 0.0385814 0.03958591 0.04060744 0.0416484 0.04266837 0.04366017
 0.04461665 0.04553592 0.04643562 0.04731579 0.0481593 0.04896289 0.04968633 0.05033195 0.05088887 0.05136443
 0.05177549 0.05212717 0.05243714 0.05270998 0.05295761 0.05318825 0.05341323 0.05364111 0.05388259 0.05413685
 0.0544099 0.05468404 0.05495726 0.05520478 0.05542184 0.0555873 0.05569783 0.05573798 0.05570503 0.05561334
 0.05546445 0.05531433 0.05516407 0.05504809 0.05495976 0.05488352 0.05481434 0.05472606 0.05462373 0.05450189
 0.05437594 0.05426586 0.05418328 0.05414888 0.05416302 0.05423108 0.05435457 0.0545349 0.05477512 0.05507896
 0.0554359 0.05584497 0.05629354 0.0567784 0.0573043 0.05787122 0.05848743 0.05915314 0.05986261 0.06061485
 0.06139719 0.06220992 0.06304755 0.06391168 0.06480388 0.06572676 0.06668609 0.06768499 0.0687316 0.06982428
 0.07096604 0.07214937 0.07336994 0.07462229 0.07590183 0.07720923 0.0785433 0.07990773 0.08130351 0.08273166
 0.08419447 0.08567459 0.08717204 0.08864839 0.09010169 0.091501 0.09284591 0.09412438 0.09533166 0.0964384
 0.09743644 0.09827834 0.09897336 0.09951392 0.09992293 0.1002312 0.1004555 0.1006237 0.1007463 0.100842
 0.1009054 0.1009518 0.1009222 0.1008175 0.10051 0.09996332 0.09913611 0.09798929 0.09677379 0.09550809
 0.09437559 0.09338292 0.09243648 0.0915297 0.09055923 0.08953283 0.08843987 0.08728854 0.08610883 0.08488224
 0.08359753 0.08219896 0.08058598 0.07875381 0.07660819 0.07432531 0.07200638 0.06977091 0.06774643 0.06581812
 0.06397188 0.06211583 0.06020835 0.05830853 0.05641435 0.05462578 0.05295488 0.05140497 0.04997579 0.04859536
 0.04726163 0.04592561 0.04459476 0.04328208 0.04199811 0.04078597 0.0396467 0.0386068 0.03765466 0.0367869
 0.03598491 0.03523192 0.03450195 0.03377854 0.03301928 0.03219946 0.03128949 0.03025061 0.02918038 0.02807932
 0.02711946 0.02634113 0.02572421 0.0252762 0.02486477 0.02448377 0.02406882 0.0236245 0.02318301 0.02275049
 0.02238162 0.02206687 0.02180221 0.02157804 0.02136365 0.02117316 0.02101061 0.02090246 0.02088295 0.02095596
 0.02113921 0.02141602 0.02178149 0.02222583 0.02274255 0.02333557 0.02400053 0.02476493 0.02562626 0.02665743
 0.0278646 0.02931095 0.03099879 0.03282453 0.0347721 0.03661564 0.03835398 0.03986332 0.04115915 0.04222791
 0.04308395 0.04374605 0.04423922 0.04460412 0.04487567 0.0451052 0.04531903 0.0455566 0.04581614 0.04611246
 0.04641562 0.04671625 0.04700148 0.04726263 0.04751766 0.04776686 0.04803537 0.04832571 0.04865204 0.04901513
 0.04941129 0.04983974 0.05028969 0.05076137 0.05125065 0.05175837 0.05228632 0.05283258 0.05339467 0.05396808
 0.05454285 0.05512109 0.0556983 0.05628682 0.05689386 0.05753068 0.05820647 0.05892155 0.05967927 0.06047211
 0.06129908 0.0621537 0.06303602 0.06393377 0.06484794 0.06573721 0.06659926 0.06736434 0.06802998 0.0685458
 0.06891435 0.06912572 0.06918106 0.06908027 0.06881984 0.0683912 0.06779237 0.06701361 0.06606247 0.06493884
 0.06366432 0.06225125 0.06072855 0.05911506 0.0574257 0.05567077 0.05385088 0.05196143 0.05003743 0.0480754
 0.04617001 0.04432941 0.04262905 0.04107334 0.03965332 0.03836588 0.03716613 0.03605584 0.03502165 0.0340711
 0.03322699 0.03248736 0.03186557 0.03133994 0.0308868 0.03047369 0.0300561 0.0296106 0.02910003 0.02853084
 0.02788914 0.02721468 0.02651485 0.02583693 0.02519495 0.02461148 0.02409471 0.02363376 0.02322939 0.02285583
 0.02251168 0.02218386 0.02187331 0.0215898 0.02133473 0.02112199 0.02094996 0.02081987 0.02073014 0.02067727
 0.02066142 0.02068249 0.02073757 0.02082573 0.02093732 0.02106723 0.0211996 0.02132706 0.02143039 0.02150204
 0.02152576 0.02149569 0.02140555 0.02125234 0.02104224 0.02077455 0.02046836 0.02012466 0.01977059 0.0194074
 0.0190576 0.01872162 0.01841258 0.01813196 0.01789143 0.01769358 0.01755165 0.01746381 0.01743541 0.01745688
 0.01752084 0.01761507 0.01772801 0.01785065 0.01797593 0.01809622 0.01820826 0.01830332 0.01837907 0.01842796
 0.01844808 0.01843754 0.01839545 0.0183282 0.01823606 0.01813172 0.0180158 0.0178997 0.01778301 0.01766886
 0.01755633 0.01744339 0.01733018 0.01721628 0.01710167 0.01698687 0.01686961 0.01674769 0.0166187 0.01647879
 0.01633064 0.01617282 0.01601492 0.01585886 0.01571758 0.01559437 0.01549933 0.01543501 0.01540436 0.01540851
 0.015441 0.01550159 0.01557488 0.01565978 0.01573719 0.01580714 0.01585901 0.01589618 0.01592464 0.0159493
 0.01598567 0.01603538 0.01610904 0.01620395 0.01632111 0.01645743 0.01661054 0.01677894 0.01696157 0.01715625
 0.017363 0.01757579 0.01779414 0.01800814 0.01821642 0.0184095 0.01858595 0.01874367 0.01888238 0.01900986
 0.01912689 0.01924636 0.01936922 0.01950786 0.01966245 0.01984129 0.02004159 0.02026251 0.02049675 0.02073273
 0.02096186 0.02116862 0.02135062 0.02149937 0.02161996 0.02171275 0.02178321 0.02183408 0.02186618 0.02187987
 0.02187669 0.02185593 0.02182619 0.021788 0.02175144 0.02171719 0.02168608 0.02165772 0.02162509 0.02158825
 0.02154377 0.02149297 0.02143939 0.0213834 0.02132821 0.02127236 0.02121447 0.02115427 0.02109008 0.02102449
 0.02095901 0.02089587 0.02083733 0.02078245 0.02073123 0.02068319 0.02063706 0.02059884 0.02056879 0.02055594
 0.02056169 0.02058681 0.02063152 0.02068756 0.02075483 0.02083053 0.02091609 0.02102044 0.02114362 0.02129195
 0.02146125 0.02164426 0.02183684 0.02202748 0.02221685 0.02240056 0.02258229 0.02276277 0.02294797 0.02314013
 0.02334834 0.02357673 0.0238307 0.02411438 0.02441986 0.0247475 0.02508228 0.02542243 0.02575996 0.02609418
 0.02642555 0.02675401 0.02707925 0.02740076 0.0277146 0.02802082 0.02831716 0.02860493 0.02888663 0.02916281
 0.0294373 0.02970545 0.02996523 0.0302062 0.0304192 0.030596 0.03072785 0.03081623 0.03085827 0.03086303
 0.03083127 0.03077559 0.03069724 0.03061237 0.03052258 0.0304423 0.03037266 0.03031692 0.03027478 0.0302405
 0.03021336 0.03018625 0.03015804 0.03012056 0.03007284 0.0300071 0.02992602 0.02982957 0.02972388 0.02961593
 0.0295121 0.02941804 0.02934455 0.02929593 0.0292922 0.02934139 0.02946063 0.02965858 0.02993169 0.03028345
 0.03068888 0.03114693 0.03162361 0.03211681 0.03259485 0.03305659 0.03348221 0.03387237 0.03422207 0.03453266
 0.03480598 0.03504445 0.03525362 0.03543944 0.03561445 0.03578483 0.03596362 0.03615338 0.03635969 0.03658646
 0.0368377 0.03711492 0.03742461 0.03774552 0.03807756 0.03838037 0.03864561 0.03885302 0.03899695 0.03909559
 0.03914944 0.03918855 0.03921391 0.03924201 0.03927208 0.03930651 0.03934393 0.03937997 0.0394142 0.03944251
 0.03946706 0.03949052 0.0395133 0.03953918 0.03956133 0.03957614 0.03957475 0.0395496 0.03949994 0.03942193
 0.03932397 0.03920607 0.03908306 0.03895666 0.03884418 0.03874809 0.03867615 0.03862928 0.038602 0.03859416
 0.03860274 0.03862853 0.03867745 0.03874847 0.0388412 0.03895254 0.03907242 0.03920243 0.03933986 0.03948956
 0.03965946 0.03984478 0.04004795 0.04025139 0.04044681 0.04061572 0.04074834 0.04083456 0.04086932 0.04084994
 0.04077515 0.04064436 0.04045742 0.04021301 0.03991077 0.03955854 0.03915771 0.03873773 0.03830146 0.03788574
 0.03748952 0.03712882 0.03679887 0.03649418 0.03621261 0.03594835 0.03569896 0.03546156 0.03522673 0.03498577
 0.03472978 0.03444968 0.03414514 0.03381423 0.03345692 0.03307379 0.03265992 0.03221382 0.03173639 0.03122674
 0.03069538 0.03014291 0.02957877 0.02900333 0.02842166 0.02783474 0.0272514 0.02667448 0.02612057 0.02559239
 0.02510788 0.02466352 0.02426469 0.02389726 0.02354612 0.02319682 0.02282737 0.02244147 0.0220317 0.0216166
 0.02120356 0.02080089 0.02041431 0.02003746 0.01966932 0.01930892 0.01895524 0.01861693 0.01829464 0.01799112
 0.01770618 0.01743348 0.01717279 0.01691925 0.01667375 0.016437 0.01621127 0.01600244 0.01581406 0.01565638
 0.01552968 0.01544098 0.0153822 0.01535017 0.01533248 0.01532046 0.01530593 0.01528269 0.01524938 0.01520392
 0.01514914 0.015085 0.01501575 0.01494182 0.01486682 0.01479091 0.01471962 0.01465334 0.01460004 0.01455945
 0.01453341 0.01452005 0.0145114 0.01450739 0.01450303 0.01450078 0.01450464 0.01451241 0.0145244 0.01453346
 0.01453087 0.0145187 0.01449264 0.01446696 0.01444809 0.01444122 0.01445266 0.01446605 0.01447962 0.01447708
 0.01445423 0.01442112 0.01437744 0.01435361 0.0143507 0.01438547 0.01445445 0.01453694 0.01462674 0.01468285
 0.01470638 0.01467604 0.01460369 0.0145015 0.01438211 0.01426861 0.01416598 0.01408732 0.01403263 0.01400633
 0.01400441 0.01402809 0.01406578 0.01411506 0.01416351 0.01420702 0.01424616 0.01427939 0.01432011 0.01436919
 0.01443711 0.01452404 0.01462751 0.0147465 0.01487093 0.01500065 0.0151293 0.01525834 0.01538933 0.01552226
 0.01565913 0.01579599 0.01592842 0.01605262 0.01616229 0.01625905 0.01634079 0.01641425 0.01648032 0.01655052
 0.01662709 0.01672525 0.01684957 0.017003 0.01718922 0.01738118 0.01757783 0.01773965 0.01786552 0.01794745
 0.01798944 0.01802415 0.01805438 0.01811285 0.01819365 0.01829649 0.01841407 0.0185289 0.01864407 0.01875549
 0.01887074 0.01899877 0.0191351 0.01928232 0.01942557 0.01955717 0.01967334 0.01976862 0.01985618 0.01993759
 0.02002463 0.02011972 0.02022304 0.02033483 0.02045337 0.0205786 0.02071085 0.02084935 0.02098777 0.02112462
 0.02124849 0.02136058 0.02145742 0.02154358 0.02162671 0.02171014 0.02180273 0.02190323 0.02201438 0.02213175
 0.02225334 0.02237527 0.02249509 0.02261131 0.02272305 0.02282936 0.02292978 0.02302458 0.02311319 0.0232014
 0.02328941 0.02338633 0.02349248 0.02361092 0.02374092 0.02387705 0.02401831 0.02415719 0.02429281 0.02441818
 0.02453379 0.02463561 0.02472894 0.02481893 0.02491184 0.02501814 0.02513378 0.02526122 0.02538869 0.02550944
 0.02562302 0.02572529 0.0258308 0.02594263 0.02606715 0.02620731 0.02634959 0.02649326 0.02662434 0.0267426
 0.0268567 0.02696867 0.02710317 0.02725873 0.02744371 0.02764987 0.02785555 0.02805584 0.0282265 0.02837589
 0.02850506 0.02862452 0.0287486 0.0288731 0.02900063 0.02912206 0.0292309 0.0293326 0.02942634 0.0295236
 0.02962789 0.02973918 0.02985841 0.02997957 0.03010199 0.03022657 0.03035342 0.03048833 0.03063169 0.03078977
 0.03096194 0.03115025 0.03135004 0.03154925 0.03174089 0.03190284 0.0320353 0.03212566 0.03218652 0.03222273
 0.03225528 0.03229796 0.03237252 0.03249446 0.03266921 0.0329067 0.0331829 0.03349626 0.03381533 0.03413416
 0.03444593 0.03474929 0.03504839 0.03534314 0.03562192 0.03588472 0.03612486 0.03634712 0.03657358 0.03680648
 0.03706693 0.0373486 0.03764654 0.03795891 0.03827781 0.03861191 0.03896863 0.0393503 0.03976563 0.04019822
 0.04064729 0.04108061 0.04149082 0.04184007 0.04211823 0.04230488 0.04239269 0.04239967 0.0423254 0.04221043
 0.0420569 0.04190271 0.04174981 0.04163304 0.0415519 0.04152624 0.0415466 0.04159421 0.04165829 0.041702
 0.04173173 0.04173876 0.04173845 0.04174774 0.04176442 0.04179527 0.04182515 0.04184668 0.04185576 0.04184859
 0.04182849 0.04179629 0.04175001 0.04168881 0.04161663 0.04153301 0.04145469 0.04138253 0.04133237 0.04130435
 0.04130623 0.04133648 0.04139277 0.04147078 0.04155442 0.0416426 0.04172193 0.04180153 0.04188922 0.04199316
 0.04212683 0.04228844 0.04248095 0.04270134 0.04295236 0.04321799 0.04350034 0.04375356 0.04396268 0.0441266
 0.04423712 0.0443551 0.04448656 0.04465026 0.04484674 0.04503356 0.04520857 0.04533137 0.04540688 0.04544224
 0.04544054 0.0454191 0.04536993 0.04528289 0.04515273 0.04496457 0.04472338 0.04442648 0.04408681 0.04370778
 0.04331662 0.042925 0.0425619 0.04224307 0.04196895 0.0417446 0.04155211 0.04138803 0.04125227 0.04114387
 0.04107665 0.04105119 0.04106805 0.0411256 0.04120763 0.04130927 0.0413988 0.04146703 0.04146403 0.04139021
 0.04121104 0.04095941 0.04066496 0.04037238 0.040149 0.03999621 0.03994611 0.03995537 0.04001451 0.04007299
 0.04011121 0.04009745 0.04001373 0.03988618 0.03970946 0.03956709 0.03946698 0.03945545 0.03953464 0.03965961
 0.03982617 0.03997115 0.04009528 0.04017113 0.04020115 0.04017588 0.0401039 0.03999496 0.03986825 0.039759
 0.03967719 0.0396507 0.03967064 0.03973903 0.03984661 0.03998947 0.04016031 0.04036028 0.04056421 0.04076996
 0.04093937 0.04106673 0.04112361 0.0411059 0.04101008 0.04083604 0.04062356 0.04037731 0.04016864 0.03999585
 0.03989057 0.03983792 0.03980025 0.03977286 0.03972052 0.03966028 0.03960668 0.03956627 0.03955713 0.03956459
 0.03958108 0.03960213 0.03962321 0.03964414 0.03966914 0.03967379 0.03965262 0.03958985 0.03947813 0.03934457
 0.03919034 0.03904693 0.03891606 0.03880932 0.03872751 0.03868582 0.03868238 0.03871965 0.0387851 0.0388355
 0.03886275 0.03881996 0.03872273 0.03857206 0.03839282 0.03821343 0.03804967 0.03792479 0.03783847 0.03780458
 0.03778796 0.03778512 0.03774068 0.03763513 0.03746454 0.03721881 0.03695901 0.03669018 0.03645498 0.03625596
 0.03607961 0.03592535 0.03578154 0.03565034 0.03554182 0.03545272 0.03537593 0.03530889 0.03523714 0.03517254
 0.03513002 0.03511364 0.0351431 0.03518949 0.03524047 0.03526074 0.03522272 0.03512698 0.03496023 0.03476295
 0.03453983 0.03433776 0.03416774 0.03403663 0.03394882 0.03386144 0.03377227</values></Ydata></AB><ScSm><Ydata ylabel="Single channel"><values byteorder="INTEL" format="FLOAT32" numvalues="1814"> 0.06729864 0.06731818 0.06739435 0.06754582 0.06774471 0.06793305 0.06806333 0.06812929 0.06815111 0.06813796
 0.06809349 0.06805802 0.06810221 0.06825684 0.06846859 0.06863706 0.06869354 0.06866048 0.0686414 0.0687198
 0.06884316 0.06883461 0.06855934 0.06808035 0.06761797 0.06734736 0.06729156 0.06745055 0.06790487 0.06860006
 0.06911264 0.06895521 0.06818764 0.06744099 0.06721821 0.06741272 0.06760104 0.06752775 0.06718832 0.06674239
 0.06655424 0.06708558 0.06844321 0.07001536 0.07069199 0.06955829 0.0665458 0.06265079 0.05957314 0.05880202
 0.06056174 0.06350916 0.06574233 0.0663166 0.06569701 0.06480414 0.06403337 0.06336368 0.06297308 0.06326561
 0.06430216 0.0654274 0.06560007 0.06427097 0.06204384 0.06026409 0.05979639 0.06046977 0.06179192 0.06348696
 0.0647679 0.06390934 0.05994824 0.0548494 0.05262994 0.05553358 0.06163356 0.06672937 0.06808759 0.06594606
 0.06226902 0.05912422 0.0579311 0.05907488 0.06181122 0.06489062 0.06732735 0.06845175 0.06774402 0.06528346
 0.06218365 0.06004544 0.05997395 0.06215648 0.06582503 0.06931092 0.07080048 0.06968263 0.06695823 0.06417562
 0.06240886 0.06226516 0.06403054 0.06735875 0.07126532 0.07471313 0.07703687 0.07798331 0.07774974 0.07686713
 0.0758009 0.07487845 0.0745761 0.07522121 0.07622467 0.07631212 0.074919 0.07294766 0.07183538 0.07206767
 0.07279362 0.07285799 0.07196683 0.0704795 0.06825599 0.06466687 0.06002533 0.05593911 0.05370071 0.05331862
 0.05448771 0.0570816 0.06000997 0.06115021 0.05966292 0.05747014 0.05733469 0.05992102 0.06345946 0.06592982
 0.06693371 0.06756696 0.06899586 0.07125188 0.07306785 0.07282701 0.07016701 0.06688514 0.06566676 0.06745116
 0.07053788 0.07269131 0.07350124 0.07412739 0.07527043 0.07608458 0.07505184 0.07177532 0.06796068 0.06637402
 0.06843292 0.0727836 0.07628015 0.07631515 0.07257754 0.06712903 0.06279595 0.06121183 0.06237145 0.06569831
 0.07067634 0.07630045 0.08082861 0.08275657 0.08191311 0.0793637 0.07620085 0.07253736 0.06808908 0.06385824
 0.06233096 0.06511754 0.0708825 0.07645793 0.0796701 0.08042076 0.07944426 0.07695045 0.07283261 0.06798453
 0.0647337 0.0650297 0.0680986 0.07088982 0.07127728 0.06999169 0.06903642 0.06917188 0.06964311 0.06974661
 0.06982894 0.07070924 0.07252736 0.0744446 0.07546914 0.07536022 0.07466069 0.07405455 0.07374704 0.07332353
 0.07233999 0.07122542 0.07122172 0.07302199 0.07581063 0.07809931 0.07921254 0.07952297 0.07946103 0.0787674
 0.07688104 0.07401192 0.0715723 0.0711262 0.07287163 0.07552107 0.07763955 0.07867408 0.07880309 0.07840773
 0.07781753 0.07720995 0.07667056 0.07642019 0.07675174 0.07760435 0.07848196 0.07895361 0.07900059 0.07878144
 0.07832305 0.07759763 0.07675386 0.07611898 0.07596172 0.07628837 0.07688464 0.0775114 0.07798894 0.07815661
 0.07793121 0.07743315 0.07691111 0.07651236 0.07623778 0.07610442 0.07619217 0.07649587 0.07685658 0.07709853
 0.07716805 0.07710791 0.0769591 0.07673436 0.07645716 0.07619169 0.07603084 0.07603598 0.07616648 0.07630338
 0.07638308 0.07646175 0.07659127 0.07669178 0.07663535 0.07642129 0.0761847 0.07604714 0.0760214 0.07604783
 0.07605825 0.07598548 0.07576212 0.07538059 0.07496755 0.07473482 0.07481058 0.07514815 0.07560782 0.07605942
 0.07639664 0.07655373 0.07655747 0.0764983 0.07641972 0.07628737 0.0760785 0.07585799 0.07575187 0.0758531
 0.07614062 0.07648908 0.0767683 0.07692286 0.07696712 0.07696012 0.07698895 0.07710077 0.07722975 0.07725815
 0.0771677 0.07707183 0.07707985 0.07717469 0.07724463 0.07721393 0.07712587 0.07709563 0.07718797 0.07735862
 0.07751853 0.07763175 0.07773475 0.07786916 0.07800716 0.07805848 0.07796974 0.07780224 0.0776735 0.07763238
 0.07764101 0.07767253 0.07775901 0.0779213 0.07810202 0.07821115 0.07822526 0.07821018 0.07823747 0.0782977
 0.07831569 0.07824278 0.07811064 0.07799516 0.07794909 0.07797283 0.07802905 0.07807311 0.07807688 0.07803662
 0.0779653 0.07787934 0.07779156 0.07771993 0.07770157 0.07777743 0.07793871 0.07809424 0.07812503 0.07799091
 0.07777506 0.0776087 0.07755204 0.07755371 0.07752021 0.07740863 0.07724921 0.07709793 0.07698757 0.07691847
 0.07687449 0.07684244 0.0768291 0.07686472 0.07697376 0.07712774 0.07724136 0.07724029 0.0771337 0.07700258
 0.07692194 0.07691146 0.07694952 0.07700698 0.07707086 0.07715308 0.07726684 0.07738631 0.07745654 0.07745922
 0.07744185 0.07746986 0.07757632 0.07775798 0.07797645 0.07815734 0.07823663 0.07822847 0.0782164 0.07826651
 0.07837521 0.07850523 0.07863814 0.07877725 0.07892516 0.07908172 0.07925636 0.07946604 0.07971754 0.07999341
 0.08025463 0.08046331 0.08061729 0.08076544 0.08097643 0.08128207 0.08165082 0.08201571 0.08232716 0.0825844
 0.08282223 0.0830687 0.08332261 0.08357893 0.08385974 0.0841945 0.08457536 0.08495946 0.0853167 0.08565295
 0.08598669 0.08632396 0.08666237 0.08700789 0.0873803 0.0877958 0.08823618 0.08864377 0.0889667 0.0892119
 0.08944312 0.0897284 0.09009298 0.0905027 0.09087893 0.09115404 0.09134044 0.09152927 0.09179489 0.09211642
 0.0924222 0.09269439 0.09298847 0.09335023 0.09375039 0.09411683 0.09441255 0.094667 0.09493512 0.09523247
 0.09551537 0.09573075 0.09588091 0.09602154 0.09619762 0.0964106 0.09665694 0.09696032 0.09733328 0.09773216
 0.09808594 0.09836115 0.09857466 0.09875711 0.09892748 0.09909052 0.09923868 0.0993658 0.09948681 0.09962405
 0.09976886 0.0998875 0.09997706 0.1000839 0.1002511 0.1004782 0.100748 0.1010609 0.1014115 0.1017592
 0.1020651 0.1023501 0.1026731 0.1030403 0.1033763 0.1036073 0.1037403 0.1038327 0.1039155 0.1039928
 0.1040927 0.1042635 0.1045148 0.1047988 0.1050598 0.1052767 0.1054544 0.1055956 0.1056927 0.1057351
 0.1057214 0.105672 0.1056343 0.1056724 0.1058409 0.1061534 0.1065658 0.1069969 0.1073724 0.1076491
 0.1078012 0.1078153 0.1077202 0.1075978 0.1075196 0.1074665 0.107337 0.1070371 0.1065449 0.1058875
 0.1050923 0.1041798 0.1031921 0.1022081 0.1013223 0.1006108 0.1001188 0.09988 0.09992966 0.1002746
 0.1008494 0.1015237 0.1021594 0.102643 0.1028727 0.1027621 0.1022915 0.1015388 0.1006353 0.09969696
 0.09879662 0.09796751 0.09720659 0.09649961 0.09587935 0.09545895 0.09539118 0.09579328 0.09670423 0.09807786
 0.09978322 0.101622 0.1033907 0.104963 0.1063214 0.1075141 0.1085921 0.109591 0.1105436 0.11147
 0.1123564 0.1131726 0.1139138 0.1146026 0.1152522 0.1158457 0.1163528 0.1167502 0.1170317 0.1172126
 0.1173158 0.1173496 0.1173121 0.1172198 0.1171053 0.1169719 0.1167687 0.1164252 0.1159042 0.1152264
 0.1144719 0.1137815 0.1133541 0.1134143 0.1141347 0.115543 0.1174873 0.1197032 0.1219233 0.1239423
 0.1256318 0.1269523 0.1279605 0.1287703 0.1294844 0.1301571 0.1308038 0.1314211 0.1319993 0.1325326
 0.1330277 0.1335023 0.133976 0.1344569 0.1349323 0.135375 0.1357714 0.1361428 0.1365333 0.1369707
 0.1374393 0.137895 0.1383125 0.1387106 0.139118 0.1395253 0.1398944 0.1402122 0.1405106 0.1408327
 0.1411996 0.1416057 0.1420214 0.142401 0.1427145 0.1429746 0.1432229 0.1434891 0.1437742 0.1440677
 0.1443659 0.1446701 0.144978 0.1452878 0.145606 0.1459368 0.146261 0.1465422 0.1467654 0.146959
 0.1471678 0.1474083 0.1476619 0.1479042 0.1481348 0.1483785 0.1486623 0.1489864 0.149317 0.1496123
 0.1498571 0.1500717 0.1502879 0.150521 0.1507655 0.1510096 0.1512477 0.1514805 0.1517134 0.1519539
 0.1522066 0.1524675 0.1527277 0.1529821 0.1532311 0.1534759 0.1537161 0.1539517 0.1541882 0.1544382
 0.1547139 0.155011 0.1553032 0.155562 0.1557805 0.1559735 0.1561605 0.1563534 0.1565589 0.1567812
 0.1570188 0.1572642 0.1575104 0.1577567 0.1580073 0.1582654 0.1585283 0.1587899 0.1590454 0.1592933
 0.1595373 0.159786 0.1600462 0.1603127 0.1605703 0.1608087 0.1610323 0.1612549 0.1614877 0.1617328
 0.1619835 0.1622303 0.1624684 0.1627003 0.1629293 0.163153 0.1633686 0.1635807 0.163798 0.1640228
 0.1642518 0.1644831 0.1647167 0.1649477 0.165169 0.1653826 0.1656004 0.1658288 0.1660615 0.1662897
 0.1665134 0.1667365 0.166961 0.1671877 0.1674197 0.1676577 0.1678965 0.1681278 0.1683481 0.1685617
 0.1687758 0.1689941 0.1692168 0.1694447 0.1696767 0.1699083 0.1701375 0.1703686 0.1706028 0.1708325
 0.1710526 0.1712683 0.1714874 0.1717113 0.1719376 0.1721658 0.1723981 0.1726373 0.1728841 0.1731341
 0.1733809 0.1736225 0.1738604 0.1740953 0.1743271 0.1745533 0.1747649 0.1749543 0.1751286 0.1753069
 0.1755036 0.1757205 0.1759495 0.1761784 0.1763991 0.1766123 0.1768232 0.177036 0.1772563 0.1774872
 0.177721 0.1779453 0.1781608 0.1783787 0.1786046 0.1788344 0.1790629 0.1792891 0.1795172 0.1797518
 0.1799897 0.180221 0.1804432 0.1806625 0.1808826 0.1811038 0.1813305 0.1815654 0.1818038 0.1820428
 0.182285 0.1825291 0.182768 0.1829979 0.1832158 0.1834195 0.1836164 0.1838207 0.1840375 0.184262
 0.1844904 0.1847185 0.1849403 0.1851584 0.1853817 0.1856098 0.1858369 0.1860632 0.1862891 0.1865101
 0.1867276 0.1869498 0.1871768 0.1874048 0.1876374 0.1878753 0.1881094 0.1883335 0.1885465 0.1887363
 0.1888626 0.1888086 0.1882781 0.1866908 0.1831679 0.1766952 0.1665187 0.1526186 0.1358846 0.1178045
 0.09991707 0.08340849 0.06898375 0.05694876 0.04736459 0.04015158 0.03515077 0.03222264 0.03135362 0.03276863
 0.0370535 0.04480744 0.055328 0.06544845 0.07077418 0.06915598 0.06274493 0.05603033 0.05211267 0.05121248
 0.05201001 0.05337858 0.05495939 0.05695254 0.05970429 0.06331062 0.06760088 0.07256626 0.07856713 0.08587032
 0.09409711 0.1023831 0.1101213 0.117433 0.1248712 0.1327451 0.1407909 0.1484281 0.1552187 0.1610807
 0.1661969 0.1708168 0.1751202 0.1791956 0.1830839 0.1867795 0.1901532 0.1929173 0.1947592 0.195576
 0.1955946 0.1952469 0.1949151 0.1947793 0.1948584 0.1951213 0.1955417 0.1961006 0.1967832 0.1975682
 0.1984166 0.1992828 0.200137 0.200966 0.2017609 0.2025127 0.2032124 0.2038504 0.2044222 0.2049348
 0.2054008 0.205832 0.2062406 0.2066355 0.2070169 0.2073817 0.2077311 0.2080651 0.2083759 0.2086538
 0.2088968 0.2091118 0.2093142 0.2095212 0.2097387 0.2099559 0.2101609 0.2103542 0.2105459 0.2107465
 0.2109618 0.211188 0.2114124 0.2116236 0.2118205 0.2120068 0.212186 0.2123651 0.212554 0.2127562
 0.2129648 0.2131719 0.2133744 0.2135715 0.2137631 0.2139511 0.2141387 0.2143275 0.2145172 0.2147091
 0.2149101 0.2151283 0.2153619 0.2155963 0.215819 0.2160323 0.216246 0.2164646 0.2166884 0.2169154
 0.2171337 0.2173243 0.2174806 0.2176216 0.2177797 0.2179771 0.218209 0.2184489 0.2186748 0.218886
 0.2190926 0.2192968 0.2194922 0.2196734 0.219845 0.2200285 0.2202496 0.2205101 0.2207853 0.221057
 0.2213261 0.22159 0.2218367 0.2220675 0.2222897 0.2224894 0.2226431 0.2227661 0.2229238 0.2231819
 0.2235405 0.2239239 0.2242486 0.2244982 0.2247186 0.224959 0.2252373 0.225527 0.2257418 0.2257935
 0.2257261 0.2257375 0.2259993 0.2264875 0.2270341 0.2275033 0.2278735 0.2281883 0.2284793 0.2287329
 0.2289042 0.2289622 0.2289499 0.2290042 0.2292668 0.2297392 0.2302658 0.2306936 0.2309983 0.2312335
 0.2314427 0.2316435 0.2317899 0.2317356 0.231389 0.2309594 0.2308881 0.2314223 0.2323413 0.233196
 0.2337505 0.2340963 0.2343958 0.2346797 0.2349032 0.2349828 0.2346918 0.233794 0.2325181 0.2316779
 0.2319954 0.2333718 0.2350412 0.2363345 0.2370949 0.237498 0.2377559 0.2379765 0.2380847 0.2378336
 0.2370795 0.2361436 0.2357315 0.2362849 0.2374855 0.2385945 0.2392059 0.2394607 0.2396541 0.239905
 0.2400759 0.2397299 0.2383785 0.2362022 0.2344158 0.234415 0.236412 0.2391783 0.241262 0.2422406
 0.242608 0.2427036 0.2422181 0.2407554 0.2384189 0.2357624 0.2336375 0.2330941 0.2346772 0.2375431
 0.2399421 0.2409499 0.2412433 0.2419585 0.2433294 0.2446941 0.2453672 0.245172 0.2443153 0.2430084
 0.2413719 0.239802 0.2391794 0.2402413 0.2426904 0.2453051 0.2470685 0.2479385 0.2483181 0.2478654
 0.2452543 0.2397758 0.2333347 0.2299118 0.23204 0.2381478 0.2442469 0.2478519 0.2493283 0.2500067
 0.2504178 0.2501529 0.2480795 0.2429374 0.2352977 0.2288291 0.2278221 0.232938 0.2404621 0.2457824
 0.2465576 0.2429811 0.2369299 0.2313767 0.2291732 0.2313312 0.2365971 0.2426902 0.2476635 0.2504216
 0.2507123 0.2490304 0.2465695 0.2449173 0.2449066 0.2453722 0.2440351 0.2403877 0.2365584 0.2341815
 0.2318425 0.2276669 0.2234478 0.2234423 0.2288501 0.2358165 0.2397783 0.2400831 0.2391183 0.2379345
 0.2343969 0.2262283 0.2153071 0.2076906 0.2082938 0.2157795 0.2237542 0.2270033 0.2255928 0.2229804
 0.2214357 0.2198468 0.2154987 0.2077828 0.1999744 0.196482 0.1981587 0.2015529 0.2029537 0.2012915
 0.1967379 0.1895547 0.1823376 0.1807166 0.1885026 0.2029165 0.2167752 0.2243503 0.2233352 0.2135099
 0.1976689 0.1833953 0.1793167 0.1873301 0.2002878 0.2086042 0.2078434 0.199399 0.1863836 0.1715951
 0.1588737 0.1533631 0.1583696 0.1720576 0.1876188 0.1966303 0.1936499 0.1804666 0.1665016 0.1619898
 0.1686289 0.1784488 0.1827832 0.1801468 0.174847 0.1714181 0.1720306 0.1762764 0.1816029 0.1856602
 0.1881584 0.1881722 0.1815801 0.1660453 0.1476326 0.1368331 0.1376485 0.1454736 0.1555268 0.1671466
 0.1784362 0.1833037 0.1783674 0.1694599 0.1667091 0.1737806 0.1847233 0.191245 0.1909113 0.187581
 0.1853863 0.1843001 0.1822555 0.1799735 0.1810951 0.1871887 0.1950309 0.200202 0.2016702 0.201406
 0.2010323 0.2005991 0.1997006 0.1981962 0.1961385 0.193878 0.1919588 0.1904985 0.1890866 0.1874216
 0.1852794 0.1815745 0.174626 0.1645953 0.1549973 0.1499511 0.1498514 0.1516357 0.1532792 0.15496
 0.154902 0.1482386 0.1334783 0.1177292 0.1115066 0.1185818 0.1331991 0.1465784 0.1535743 0.1530618
 0.1453242 0.132324 0.1199571 0.1162397 0.1247782 0.1413088 0.1582646 0.1712765 0.1796896 0.1830069
 0.1801785 0.1722866 0.163637 0.1593399 0.1621847 0.1713414 0.1826397 0.1896911 0.1869955 0.1753909
 0.164562 0.1659609 0.1807786 0.1979586 0.2066198 0.2071078 0.2066673 0.208185 0.2087089 0.2072904
 0.2081769 0.214905 0.2250262 0.2325002 0.2329885 0.2255528 0.2120729 0.1976644 0.1893643 0.1905314
 0.1971138 0.2021633 0.2026353 0.1988943 0.1905207 0.1781478 0.1679812 0.1680216 0.1787308 0.1919492
 0.2001636 0.2033296 0.2054915 0.2078033 0.2071675 0.2009988 0.1916129 0.184799 0.184093 0.1876756
 0.191395 0.1931291 0.1927935 0.1898634 0.1837194 0.1763979 0.172583 0.1755399 0.1837684 0.1924542
 0.197799 0.1993787 0.1989583 0.1982155 0.1976182 0.1965838 0.1946351 0.1929087 0.1939311 0.1988634
 0.2055531 0.2106962 0.2136023 0.2164227 0.2207736 0.2255084 0.2281346 0.2275785 0.2252409 0.2237959
 0.2250561 0.2285317 0.231781 0.2324746 0.2305978 0.2286632 0.2293986 0.2331571 0.2378816 0.2414319
 0.2433274 0.2443174 0.2451276 0.2458483 0.2458991 0.2444974 0.2418055 0.2395988 0.2400022 0.2433571
 0.2478635 0.2514011 0.2532108 0.2537742 0.2536752 0.2529956 0.251644 0.2498998 0.2484248 0.2477622
 0.2479577 0.2486854 0.2495915 0.2504486 0.2511421 0.2516577 0.252051 0.252371 0.2526372 0.2528811
 0.2531307 0.2533441 0.2534447 0.2534529 0.253505 0.2536918 0.2539325 0.2540643 0.2539998 0.2537186
 0.2531575 0.2522295 0.2509521 0.2494488 0.2477929 0.2459636 0.2440537 0.2424772 0.2418377 0.2424909
 0.2442241 0.2463811 0.2482964 0.2496209 0.2503327 0.2505795 0.2505531 0.2504245 0.250292 0.2501622
 0.2499943 0.2497633 0.2494809 0.2491698 0.2488457 0.2485278 0.2482473 0.2480237 0.2478374 0.2476364
 0.2473735 0.2470345 0.2466381 0.2462155 0.2457828 0.2453182 0.2447629 0.2440577 0.2431912 0.2422135
 0.2412032 0.2402224 0.2392892 0.2383792 0.2374505 0.2364726 0.2354193 0.2342463 0.232925 0.2315195
 0.2301843 0.2290382 0.2280627 0.2271463 0.2261939 0.2251655 0.2240523 0.2228661 0.2216434 0.2204292
 0.2192504 0.2181069 0.2169797 0.2158374 0.2146457 0.2133805 0.2120363 0.2106246 0.2091673 0.2076882
 0.2061892 0.2046174 0.2028582 0.2007701 0.1982217 0.195104 0.1913524 0.1869993 0.1822059 0.1772218
 0.1723007 0.1676369 0.1633555 0.1595428 0.1562739 0.1536082 0.1515763 0.1501875 0.1494413 0.1493253
 0.1498177 0.1509029 0.1525561 0.1547003 0.157194 0.1598673 0.1625559 0.1651147 0.1674474 0.1695459
 0.1714835 0.1733436 0.1751482 0.1768568 0.1784221 0.1798209 0.1810342 0.1820358 0.1828245 0.1834392
 0.1839248 0.1843029 0.1845869 0.1847971 0.1849487 0.1850464 0.185103 0.185153 0.1852444 0.1854177
 0.1856898 0.1860584 0.1865223 0.1870838 0.1877317 0.1884411 0.1891873 0.1899481 0.1907027 0.1914515
 0.1922265 0.1930697 0.1940177 0.1951125 0.196399 0.1978943 0.1995718 0.2013721 0.2032152 0.2050017
 0.2066221 0.2079868 0.209063 0.2098864 0.2105206 0.2110026 0.211336 0.2115231 0.2115762 0.2115094
 0.2113398 0.2110908 0.2107789 0.2104081 0.209981 0.2095017 0.2089693 0.208387 0.2077733 0.2071507
 0.2065314 0.2059216 0.2053331 0.2047789 0.2042601 0.2037602 0.2032572 0.2027428 0.2022231 0.2016965
 0.2011484 0.2005697 0.1999552 0.1992798 0.198505 0.1976168 0.1966357 0.1955811 0.1944445 0.1932028
 0.191851 0.1904179 0.1889478 0.1874638 0.1859539 0.1843826 0.1827054 0.180886 0.178937 0.1769414
 0.1750066 0.1731935 0.1715011 0.1699028 0.168377 0.1669158 0.1655218 0.1641965 0.1629305 0.1617147
 0.1605527 0.1594549 0.1584244 0.1574509 0.1565201 0.1556348 0.1548275 0.1541357 0.1535585 0.1530583
 0.1526035 0.1521949 0.1518553 0.151614 0.1514892 0.151462 0.1514714 0.1514466 0.1513474 0.1511778
 0.1509735 0.150773 0.1505928 0.1504323 0.1502897 0.150148 0.1499473 0.1495922 0.1489915 0.1480893
 0.1468752 0.1453817 0.1436743 0.1418505 0.1400393 0.138371 0.1369318 0.1357602 0.1348681 0.1342278
 0.1337511 0.1333358 0.1329495 0.1326556 0.13255 0.1326556 0.1328589 0.1329795 0.1329409 0.1328525
 0.1329003 0.1331888 0.1336948 0.1343159 0.1349329 0.1354619 0.1358713 0.136153 0.1363046 0.136345
 0.1363063 0.1361977 0.1360103 0.1357474 0.135424 0.1350501 0.1346311 0.1341647 0.133639 0.1330497
 0.1323989 0.1316663 0.1308217 0.1298617 0.1287874 0.1275791 0.1262798 0.1250812 0.1242489 0.1239531
 0.1241789 0.1247599 0.1254974 0.1262748 0.1270167 0.1275452 0.1276501 0.1274369 0.1274733 0.1283813
 0.1302522 0.1325451 0.134556 0.1359014 0.1365624 0.13664 0.1362143 0.135346 0.1340464 0.132271
 0.1300358 0.1274726 0.1247278 0.1219233 0.119222 0.1167884 0.1146967 0.1129614 0.1115892 0.1106313
 0.1102182 0.1100086 0.1082692 0.1027866 0.09427053 0.08786897 0.08883457 0.09661048 0.1052208 0.1096012
 0.1096459 0.1080846 0.1067771 0.1059817 0.1055883 0.1057283 0.1065261 0.1078484 0.1093189 0.1105457
 0.1113681 0.1118171 0.1118391 0.1110949 0.1089255 0.1045782 0.09782566 0.08950358 0.08121233 0.07437355
 0.06960435 0.06677334 0.06532639 0.06460251 0.06415246 0.06393355 0.06420311 0.06521156 0.06699279 0.0694123
 0.07230973 0.07547426 0.07853843 0.08111158 0.08307232 0.08457924 0.08577256 0.08661436 0.08702542 0.08702884
 0.08672979 0.08624235 0.08564975 0.08498356 0.08421484 0.08328138 0.08218254 0.0810842 0.08025566 0.07983148
 0.07970336 0.07969177 0.0797178 0.07976562 0.07980509 0.07981274 0.07979637 0.07979501 0.07989524 0.08018549
 0.08063954 0.08110592 0.0814418 0.081616 0.08168942 0.0817094 0.08159412 0.08118632 0.08051722 0.07988247
 0.07946295 0.07901061 0.07817482 0.07705188 0.07614839 0.0758288 0.07599827 0.07630552 0.07647667 0.07643928
 0.07629582 0.07627393 0.07658212 0.07715832</values></Ydata></ScSm><ScRf><Ydata ylabel="Single channel"><values byteorder="INTEL" format="FLOAT32" numvalues="1820"> 0.06043062 0.06058277 0.06068018 0.06071948 0.06072429 0.06074004 0.06081146 0.06095377 0.06114052 0.06131824
 0.06144194 0.06150507 0.06152747 0.06151837 0.06147882 0.06144366 0.06148116 0.06162583 0.06182862 0.06198871
 0.06203549 0.06199157 0.06195971 0.06202079 0.06212504 0.06210857 0.06185032 0.06141239 0.06099736 0.06076053
 0.0607162 0.06086189 0.06127419 0.06190717 0.06237425 0.06222817 0.06152385 0.0608404 0.06063806 0.06081722
 0.0609899 0.06092487 0.06061927 0.06021581 0.0600431 0.06052202 0.06175155 0.06317504 0.06378344 0.06274845
 0.06001121 0.05647691 0.05368759 0.05299376 0.05459659 0.0572731 0.05929527 0.05980974 0.05924675 0.05844612
 0.05776032 0.05715731 0.05679139 0.05703449 0.05795351 0.05896214 0.05911778 0.057919 0.05590482 0.05428629
 0.0538478 0.05444689 0.05565011 0.05720726 0.05839225 0.05762662 0.05403053 0.04939098 0.04736736 0.05001151
 0.05557609 0.06023035 0.06147211 0.05951487 0.05615843 0.05329622 0.05221714 0.0532598 0.05574113 0.05853023
 0.06074011 0.06176622 0.06113452 0.05891374 0.05611216 0.05417962 0.05411585 0.05609095 0.05941223 0.06256924
 0.06391515 0.06289193 0.06040772 0.05787167 0.05626135 0.05612744 0.05772981 0.06075695 0.0643163 0.06746274
 0.06958736 0.07045802 0.07025534 0.06946443 0.06850807 0.06767857 0.06740329 0.06798129 0.06888472 0.06896073
 0.06769596 0.06590794 0.06489983 0.06510973 0.06576392 0.06581639 0.06500465 0.06365737 0.06164642 0.0583965
 0.0541884 0.05048099 0.04844812 0.04809811 0.04915989 0.05153041 0.05422349 0.0552974 0.05396972 0.05197957
 0.05184539 0.05418256 0.0573901 0.05963387 0.06054893 0.06112665 0.062426 0.06447892 0.06613524 0.06592145
 0.06350392 0.06052093 0.05942668 0.06108413 0.06394024 0.06594445 0.06671245 0.06730261 0.06836128 0.06912115
 0.06819814 0.06523354 0.06178839 0.06038567 0.06231281 0.066331 0.06956676 0.06963031 0.06622626 0.06124179
 0.05727949 0.05584969 0.05695146 0.06005689 0.06469744 0.06995696 0.07423425 0.07612921 0.07545472 0.07317249
 0.07029636 0.06694999 0.06288059 0.05901498 0.0576581 0.06031073 0.0657413 0.07101335 0.07410868 0.07492985
 0.07414353 0.07192229 0.06814966 0.06366555 0.06067768 0.06104533 0.06404735 0.06679328 0.06725892 0.06613293
 0.0653217 0.06555194 0.06610192 0.06629808 0.06647676 0.06742976 0.06929238 0.07125514 0.07236012 0.07237162
 0.07181062 0.07133913 0.07115697 0.07085866 0.07001132 0.06903924 0.06916036 0.07104889 0.0738996 0.07625343
 0.07745456 0.07787789 0.07795045 0.07740961 0.0756854 0.07297147 0.07066721 0.0703402 0.07220523 0.07498588
 0.07724298 0.07841509 0.07867952 0.07841967 0.07796423 0.07748862 0.07707869 0.07695803 0.07742444 0.07841941
 0.07944088 0.0800469 0.08021256 0.08009734 0.07973228 0.07909808 0.07835628 0.07784197 0.07782001 0.07828693
 0.07902236 0.07978635 0.08039863 0.08069238 0.08057372 0.08016074 0.07971916 0.07942162 0.07927986 0.07930094
 0.07954788 0.08000326 0.08049999 0.0808558 0.0810166 0.08103545 0.08096969 0.08084032 0.08066545 0.08050281
 0.08044872 0.08056803 0.08081067 0.08104749 0.0812254 0.08142391 0.08169813 0.08193774 0.08197778 0.08181161
 0.08160476 0.0815148 0.08156512 0.08168327 0.08178562 0.08179443 0.08163175 0.08128567 0.08089815 0.08071098
 0.08087394 0.08134073 0.08195531 0.0825626 0.08302942 0.08327382 0.08332846 0.08330606 0.08326919 0.08318612
 0.08302571 0.08284855 0.08278853 0.08295156 0.08332079 0.08376031 0.08412247 0.08434027 0.08442987 0.08446494
 0.08454995 0.08473621 0.08494146 0.08502613 0.08496918 0.08490262 0.0849507 0.08508781 0.0851813 0.08514857
 0.08504958 0.08502299 0.08514172 0.08535108 0.08554931 0.0857014 0.08585566 0.08605846 0.08626615 0.08635984
 0.08627004 0.08607253 0.08591694 0.0858694 0.08588383 0.08592347 0.0860288 0.08623019 0.08645664 0.08659145
 0.08660303 0.08657489 0.08659845 0.08666523 0.08668453 0.08659175 0.08641638 0.08625063 0.0861741 0.08620499
 0.08629763 0.08637573 0.0863817 0.08631063 0.08620209 0.08609895 0.08601832 0.08596905 0.08598913 0.08613118
 0.08638252 0.08661681 0.08667125 0.08649397 0.08620195 0.08597731 0.08590627 0.08592144 0.08588947 0.08573791
 0.08549845 0.08525229 0.08505728 0.08492177 0.08482368 0.08474375 0.08469227 0.08470908 0.08481793 0.08496603
 0.08503156 0.08492547 0.08468181 0.08442505 0.08425748 0.0841974 0.08420187 0.08421414 0.08420651 0.08420517
 0.08425279 0.084331 0.08435953 0.08429503 0.08419083 0.08414046 0.08420059 0.08437088 0.08459061 0.08474755
 0.08475462 0.0846428 0.0845366 0.08452512 0.08459386 0.08468403 0.08476964 0.0848573 0.08494962 0.08504359
 0.08515389 0.08531096 0.08552891 0.08578368 0.08602493 0.08620882 0.08632976 0.086432 0.08658539 0.08683224
 0.08714925 0.08746483 0.08771887 0.08790826 0.08807485 0.08825268 0.08843929 0.08862601 0.08883648 0.08910631
 0.0894312 0.08976497 0.09007119 0.09035323 0.09063212 0.090917 0.09120603 0.09150791 0.09185311 0.09226771
 0.09272224 0.09312275 0.09338368 0.09351333 0.09361389 0.09380077 0.09412132 0.09451964 0.09486512 0.09505415
 0.09511709 0.09519785 0.09539945 0.09568214 0.09594814 0.0961908 0.0965005 0.09692851 0.09739794 0.09777282
 0.09799336 0.09812367 0.09827138 0.09847406 0.09867439 0.09880537 0.09887871 0.09896578 0.09910669 0.09928235
 0.09948216 0.09974609 0.1001045 0.1005116 0.1008798 0.1011624 0.1013723 0.1015385 0.1016743 0.1017741
 0.1018219 0.1018193 0.1018135 0.1018666 0.1019814 0.1020916 0.1021447 0.1021664 0.1022215 0.1023466
 0.102544 0.1028085 0.1031189 0.1034248 0.103689 0.1039449 0.1042645 0.1046484 0.1049898 0.1051834
 0.1052404 0.1052543 0.1052814 0.1053166 0.1053721 0.1055058 0.1057531 0.106079 0.1064217 0.1067549
 0.1070877 0.1074251 0.1077407 0.1079814 0.1080996 0.1080965 0.1080381 0.1080246 0.1081335 0.1083785
 0.1087076 0.1090404 0.1093167 0.1095103 0.1096048 0.1095925 0.1095169 0.1094832 0.1095777 0.1097694
 0.1099257 0.1099253 0.1097337 0.1093737 0.1088683 0.1082389 0.1075403 0.1068647 0.1063041 0.1059108
 0.1056978 0.1056764 0.1058785 0.1063209 0.1069486 0.1076429 0.1082902 0.1088137 0.1091368 0.1091684
 0.1088676 0.1083 0.1075975 0.106875 0.1061963 0.1055781 0.1049947 0.1044133 0.103874 0.1035291
 0.1035716 0.1041163 0.1051437 0.1065202 0.1080421 0.1094935 0.1107243 0.1117062 0.1125105 0.1132249
 0.1138965 0.1145466 0.1152009 0.1158698 0.1165161 0.1170816 0.1175522 0.1179674 0.118366 0.1187489
 0.1190922 0.1193763 0.1196052 0.1198102 0.1200198 0.1202116 0.1203194 0.1203063 0.1202095 0.1200921
 0.1199732 0.1198164 0.1195695 0.1192065 0.1187636 0.1183611 0.1181816 0.1183935 0.1190603 0.120103
 0.1213565 0.1226694 0.1239457 0.1251043 0.126051 0.1267286 0.1271736 0.1274872 0.1277588 0.128031
 0.1283162 0.1286145 0.128918 0.1292157 0.1295035 0.1297905 0.1300961 0.1304296 0.1307686 0.131069
 0.1313096 0.131525 0.1317818 0.1321177 0.132504 0.1328754 0.133201 0.1335126 0.1338461 0.1341754
 0.134437 0.1346137 0.1347612 0.1349521 0.135223 0.1355679 0.1359442 0.1362842 0.1365359 0.13671
 0.1368683 0.137061 0.137292 0.1375404 0.1377929 0.1380471 0.1383011 0.1385603 0.1388413 0.1391508
 0.1394576 0.1397081 0.1398804 0.1400115 0.1401605 0.1403543 0.1405752 0.1407915 0.1409937 0.1412042
 0.1414567 0.1417555 0.1420578 0.1423064 0.1424803 0.1426085 0.1427376 0.1428953 0.143084 0.1432927
 0.1435091 0.1437246 0.1439374 0.1441515 0.1443699 0.1445871 0.1447934 0.1449866 0.1451761 0.1453741
 0.1455843 0.1458016 0.1460224 0.1462565 0.1465207 0.1468139 0.1471023 0.1473415 0.1475144 0.1476413
 0.1477575 0.1478903 0.1480511 0.1482382 0.1484406 0.148648 0.1488553 0.1490629 0.1492731 0.1494878
 0.149705 0.1499199 0.1501309 0.1503405 0.150551 0.1507623 0.1509742 0.1511869 0.1513972 0.1515977
 0.151785 0.1519653 0.1521508 0.1523478 0.1525497 0.1527468 0.1529383 0.15313 0.1533243 0.1535196
 0.1537158 0.1539132 0.1541078 0.1542963 0.1544832 0.1546782 0.1548846 0.1550945 0.1552952 0.1554822
 0.1556627 0.1558456 0.1560322 0.1562189 0.1564067 0.1566005 0.1568034 0.1570145 0.1572314 0.1574498
 0.1576616 0.1578569 0.1580321 0.1581963 0.1583683 0.1585606 0.1587683 0.1589773 0.1591809 0.1593826
 0.1595875 0.1597953 0.1600016 0.1602045 0.1604076 0.1606169 0.1608334 0.161052 0.1612682 0.1614802
 0.1616879 0.1618916 0.1620934 0.1622987 0.1625154 0.1627456 0.1629784 0.1631973 0.1633977 0.1635877
 0.1637743 0.1639559 0.1641292 0.1642954 0.1644597 0.1646289 0.1648077 0.1649957 0.1651903 0.165389
 0.1655871 0.1657813 0.1659773 0.1661836 0.1663971 0.166605 0.1667997 0.1669834 0.1671633 0.1673505
 0.1675539 0.1677701 0.1679876 0.1681994 0.1684048 0.168604 0.1688 0.1689996 0.1692077 0.1694255
 0.1696526 0.1698828 0.1701066 0.1703207 0.1705284 0.1707293 0.1709228 0.1711157 0.1713141 0.1715171
 0.1717234 0.1719347 0.1721488 0.1723614 0.172572 0.1727798 0.1729825 0.1731862 0.1733998 0.1736201
 0.1738377 0.1740541 0.1742763 0.1745039 0.1747332 0.174961 0.1751807 0.1753882 0.1755873 0.1757813
 0.1759717 0.1761678 0.1763751 0.1765722 0.1767054 0.1766607 0.1761691 0.1746967 0.1714169 0.1653651
 0.1558192 0.1427545 0.127014 0.1100116 0.09320289 0.07769729 0.06414986 0.05285116 0.04386629 0.03711866
 0.03244879 0.02971718 0.0289081 0.0302334 0.03424707 0.04151843 0.05139472 0.06090688 0.06592751 0.06443032
 0.05842454 0.05212132 0.04843622 0.04758316 0.04832728 0.04961111 0.05109375 0.05295733 0.05552632 0.05889969
 0.06293038 0.06761593 0.07328792 0.08018567 0.08794853 0.09576329 0.1030546 0.109932 0.1169224 0.1243295
 0.1319097 0.1391118 0.1455179 0.1510498 0.1558807 0.160245 0.1643077 0.1681475 0.171806 0.1752875
 0.1784746 0.1810909 0.1828349 0.1836097 0.1836313 0.1833078 0.1830004 0.1828814 0.1829694 0.1832334
 0.183645 0.184182 0.1848291 0.1855709 0.1863786 0.1872147 0.1880522 0.1888745 0.1896641 0.1904033
 0.1910794 0.1916848 0.1922225 0.1927085 0.1931605 0.193586 0.1939867 0.1943661 0.1947266 0.1950693
 0.1953965 0.1957079 0.195998 0.1962648 0.1965136 0.1967512 0.1969814 0.1972059 0.1974223 0.1976264
 0.1978207 0.1980162 0.1982215 0.1984374 0.1986594 0.1988795 0.1990895 0.1992882 0.1994818 0.1996734
 0.19986 0.2000426 0.2002284 0.2004209 0.2006153 0.2008056 0.2009914 0.2011758 0.2013608 0.2015463
 0.2017355 0.2019371 0.2021553 0.20238 0.2025965 0.202803 0.2030085 0.2032165 0.2034227 0.2036257
 0.2038301 0.2040389 0.2042513 0.2044642 0.2046692 0.2048553 0.2050205 0.2051787 0.2053533 0.2055617
 0.2057983 0.2060364 0.2062505 0.2064369 0.2066096 0.2067828 0.2069613 0.207141 0.2073202 0.207514
 0.2077437 0.2080065 0.2082729 0.2085223 0.208759 0.2089898 0.2092129 0.2094315 0.2096478 0.209845
 0.2100032 0.2101389 0.2103109 0.210574 0.2109259 0.2112993 0.2116195 0.2118697 0.2120884 0.2123195
 0.2125833 0.2128603 0.2130702 0.2131257 0.2130642 0.2130767 0.2133354 0.2138204 0.214361 0.214813
 0.2151539 0.2154385 0.2157105 0.2159568 0.2161246 0.2161813 0.216177 0.2162503 0.2165312 0.2170076
 0.2175221 0.2179318 0.2182221 0.2184477 0.2186436 0.2188203 0.2189395 0.2188739 0.2185385 0.218124
 0.2180444 0.2185376 0.2193987 0.2201998 0.2207137 0.2210299 0.2213129 0.2216008 0.2218466 0.2219586
 0.2217149 0.2208926 0.2197052 0.2189179 0.2192168 0.2205194 0.2221096 0.2233532 0.2240935 0.2244871
 0.2247321 0.2249382 0.2250429 0.2248138 0.2241117 0.2232393 0.2228651 0.2234082 0.2245682 0.2256455
 0.2262528 0.2265192 0.2267199 0.2269686 0.2271457 0.2268494 0.2256149 0.2235966 0.2219309 0.221942
 0.2238434 0.2264827 0.2284855 0.2294402 0.2298023 0.2298928 0.2294302 0.2280503 0.2258526 0.223353
 0.2213488 0.2208377 0.2223532 0.2251066 0.2274294 0.2284258 0.2287301 0.229428 0.2307533 0.2320822
 0.2327587 0.2326063 0.2318173 0.2305954 0.2290587 0.2275853 0.2270151 0.2280531 0.2304185 0.2329475
 0.2346688 0.2355399 0.2359444 0.2355553 0.233101 0.2278972 0.2217619 0.2185065 0.2205639 0.2264425
 0.2323308 0.2358446 0.2373238 0.2380349 0.238479 0.238261 0.2363041 0.2314167 0.2241502 0.2180093
 0.2170972 0.2220494 0.2293112 0.2344657 0.2352703 0.2319086 0.2261755 0.2209186 0.2188726 0.2210083
 0.2261222 0.232026 0.2368557 0.2395701 0.239931 0.2383999 0.2361045 0.2345734 0.2346303 0.23517
 0.2339931 0.2305947 0.227015 0.2248297 0.2226827 0.2187704 0.2148212 0.2149477 0.2203205 0.227226
 0.231249 0.2317429 0.2310054 0.2300579 0.2268483 0.2191798 0.208881 0.2018591 0.202942 0.2108701
 0.2194292 0.2235468 0.2233213 0.2221571 0.2222193 0.2222362 0.2192946 0.2126558 0.2056431 0.2028285
 0.2051399 0.2090192 0.2106003 0.2087669 0.2037356 0.1958244 0.1877231 0.1852495 0.1924011 0.206423
 0.2199984 0.2272753 0.2259274 0.2157586 0.1995872 0.185067 0.180944 0.1891741 0.2025334 0.2112881
 0.2108946 0.2027194 0.1898953 0.1752645 0.1627661 0.1577177 0.1635912 0.1785536 0.1955597 0.2057872
 0.2034503 0.1903498 0.1764094 0.1725016 0.1804587 0.191788 0.1972206 0.1951504 0.1901898 0.1872538
 0.188766 0.1943153 0.2010662 0.2064002 0.2099948 0.2107608 0.2039726 0.1869336 0.1664786 0.1544975
 0.1555826 0.1645924 0.1761597 0.1895506 0.202592 0.2083087 0.2027899 0.1926345 0.1893905 0.197296
 0.2096318 0.2169633 0.2164904 0.2125964 0.2100199 0.2087786 0.2065452 0.2041404 0.2057021 0.2130166
 0.2224243 0.2289005 0.2312597 0.2317238 0.2321244 0.2325083 0.2324077 0.2316669 0.2303556 0.2288784
 0.2278575 0.2274221 0.227086 0.226492 0.2253625 0.2223233 0.2151956 0.2040525 0.1931944 0.1877545
 0.1882474 0.1908776 0.1931707 0.1954156 0.195414 0.1870241 0.1682797 0.1480283 0.1395023 0.1475429
 0.1649903 0.1808207 0.1885956 0.1870197 0.1766117 0.1598475 0.1437972 0.1379772 0.1466159 0.1645761
 0.1828139 0.1961798 0.2041126 0.2063503 0.2018641 0.1918739 0.181167 0.1754031 0.1776168 0.1868257
 0.1984114 0.2053946 0.2018135 0.1885759 0.1761155 0.1767767 0.1919117 0.2097179 0.218513 0.2186029
 0.2177222 0.2190026 0.2193227 0.2176392 0.2184409 0.2255256 0.2363799 0.2446568 0.2457567 0.2386407
 0.2252678 0.2111106 0.2037489 0.2067507 0.2155551 0.2223997 0.2238321 0.220243 0.2112631 0.197737
 0.1866566 0.1869491 0.1991263 0.2141011 0.2235159 0.2273482 0.2301354 0.2331636 0.2329337 0.2265037
 0.2164459 0.2092773 0.2090124 0.2136319 0.2184658 0.221121 0.22149 0.2189313 0.2126787 0.2050268
 0.2013523 0.2054098 0.2154109 0.2256827 0.2317305 0.2330255 0.2316315 0.2295421 0.227372 0.2245407
 0.2205718 0.2167847 0.2160595 0.2197694 0.2255962 0.2299064 0.2319158 0.2339699 0.2378588 0.2423557
 0.2447106 0.2436479 0.2405729 0.2383377 0.2389445 0.2419586 0.2448436 0.2451342 0.2427814 0.2404125
 0.2409094 0.2446599 0.2495049 0.2531958 0.2552294 0.2563817 0.2573817 0.2582746 0.2583939 0.2568718
 0.2538628 0.2512473 0.2512918 0.254398 0.258722 0.2620816 0.2637224 0.2641833 0.2640804 0.2634658
 0.2621948 0.2605202 0.2591053 0.2584941 0.258716 0.2594258 0.260267 0.2610291 0.2616168 0.2620224
 0.2623001 0.2624997 0.2626411 0.2627484 0.2628402 0.2628775 0.2628053 0.2626778 0.2626628 0.2628625
 0.2631796 0.2634116 0.2634265 0.2631824 0.2626311 0.2617207 0.2604946 0.2590801 0.2575428 0.2558538
 0.254102 0.2527038 0.252267 0.2531447 0.2551126 0.2575025 0.2596468 0.2612079 0.2621788 0.2627047
 0.2629481 0.2630403 0.2630605 0.2630231 0.2628996 0.2626687 0.2623469 0.2619769 0.2615966 0.2612284
 0.2608911 0.260599 0.2603395 0.2600641 0.2597196 0.259289 0.2587988 0.2582896 0.2577782 0.2572407
 0.256628 0.2558969 0.2550378 0.2540872 0.2531229 0.2522276 0.25143 0.2506842 0.2499184 0.2490911
 0.2481825 0.2471633 0.2460269 0.2448554 0.2437975 0.242949 0.2422734 0.2416523 0.2409831 0.2402154
 0.239336 0.2383631 0.2373408 0.2363033 0.2352456 0.2341392 0.2329614 0.2316976 0.2303389 0.2288926
 0.2273811 0.2258234 0.2242322 0.2226182 0.2209671 0.2192088 0.2172257 0.2148885 0.2120807 0.2087155
 0.2047663 0.2002991 0.1954752 0.1905128 0.1856243 0.1809689 0.1766559 0.1727771 0.1694236 0.1666771
 0.1645982 0.1632236 0.1625681 0.1626301 0.1633928 0.1648126 0.1668065 0.1692577 0.1720305 0.1749784
 0.177945 0.1807754 0.1833575 0.1856767 0.1878178 0.1898755 0.1918588 0.1937009 0.1953425 0.1967707
 0.1979906 0.1990039 0.1998242 0.2004879 0.2010401 0.201513 0.2019186 0.2022622 0.2025581 0.2028254
 0.203071 0.2032931 0.2035001 0.2037103 0.2039331 0.2041635 0.2043985 0.2046553 0.204972 0.2053826
 0.2058865 0.2064488 0.207034 0.2076294 0.2082409 0.2088857 0.2095955 0.2104129 0.2113763 0.2125034
 0.2137807 0.2151601 0.2165659 0.2179107 0.2191128 0.2201122 0.2208781 0.221404 0.2217017 0.2218032
 0.22175 0.2215676 0.2212624 0.2208478 0.220356 0.2198163 0.2192357 0.2186101 0.2179453 0.2172596
 0.2165737 0.2159004 0.2152403 0.2145831 0.2139164 0.2132397 0.2125693 0.2119263 0.2113191 0.2107408
 0.2101814 0.2096344 0.209092 0.2085447 0.2079838 0.2073953 0.2067534 0.2060314 0.2052166 0.2043084
 0.2033028 0.2021921 0.2009825 0.1996977 0.1983558 0.1969488 0.1954549 0.1938695 0.1922118 0.1904962
 0.1887066 0.1868135 0.1848235 0.1828016 0.180837 0.1789917 0.177283 0.1756978 0.1742098 0.1727963
 0.1714514 0.1701786 0.1689692 0.1678038 0.1666748 0.1655929 0.1645722 0.163621 0.1627473 0.1619588
 0.1612546 0.1606239 0.1600579 0.1595603 0.1591394 0.1587926 0.1585193 0.158347 0.1583094 0.1583835
 0.1584824 0.1585225 0.1584774 0.1583674 0.1582319 0.1581095 0.1580167 0.1579438 0.1578745 0.1577885
 0.157636 0.1573303 0.156778 0.1559128 0.1547161 0.1532179 0.1514854 0.1496217 0.1477702 0.1460787
 0.1446417 0.1434931 0.1426364 0.142034 0.1415903 0.1412079 0.140868 0.1406363 0.1405983 0.1407751
 0.1410625 0.1412778 0.1413255 0.1413067 0.1414298 0.1418327 0.1424981 0.1432883 0.1440471 0.1446913
 0.1452087 0.1455907 0.1458218 0.1459267 0.1459537 0.1459145 0.1457931 0.1455938 0.1453394 0.1450474
 0.1447235 0.1443462 0.1438724 0.1432851 0.1426057 0.1418515 0.1410288 0.1401472 0.1391806 0.138069
 0.1368471 0.1357249 0.1349798 0.1347943 0.1351793 0.1359778 0.1369682 0.1380169 0.1390552 0.1398959
 0.1402868 0.1402968 0.1404985 0.1415497 0.1435676 0.146 0.1481172 0.1495414 0.1502744 0.1503987
 0.1499533 0.1489992 0.1475768 0.145642 0.1431918 0.1403627 0.1373191 0.1341945 0.1311742 0.1284569
 0.1261399 0.1242454 0.1227754 0.1217683 0.1213563 0.1211774 0.1193393 0.1133987 0.1041215 0.09716871
 0.09832399 0.1069862 0.1165914 0.1215476 0.1216897 0.1200013 0.1185537 0.1176492 0.1171532 0.1171952
 0.1179131 0.1191732 0.1205936 0.1217808 0.1225675 0.122974 0.1229411 0.1221088 0.1197518 0.1150211
 0.1076279 0.0984486 0.08923961 0.08161803 0.07631993 0.07320752 0.07163964 0.07085304 0.07033122 0.07004017
 0.07030768 0.07143463 0.07343645 0.07613075 0.07932268 0.08277294 0.08608753 0.08887077 0.0910175 0.09270343
 0.09407495 0.09508258 0.09561686 0.09566954 0.09533125 0.09472542 0.09397651 0.09317291 0.0923029 0.09126703
 0.09003986 0.08881819 0.08791031 0.08745285 0.0873206 0.08731507 0.08733176 0.08734067 0.08732598 0.08728445
 0.08723477 0.08722961 0.08736113 0.08769123 0.08815745 0.08860146 0.08890031 0.0890474 0.08911625 0.08913159
 0.08895879 0.08841912 0.08758881 0.08682086 0.08630458 0.0857628 0.08482026 0.08357579 0.08257115 0.08221441
 0.0824122 0.08275954 0.08292377 0.0828193 0.08258473 0.08250092 0.08280019 0.08339015 0.08383458 0.08376136
</values></Ydata></ScRf><Data_Parameters_AB><parameter name="DPF">1</parameter><parameter name="NPT">3497</parameter><parameter name="FXV">3996</parameter><parameter name="LXV">500</parameter><parameter name="CSF">1</parameter><parameter name="MXY">0.100951753556728</parameter><parameter name="MNY">-0.0457416251301765</parameter><parameter name="DAT">27/05/2022</parameter><parameter name="TIM">11:22:11.306 (GMT+2)</parameter><parameter name="DXU">WN</parameter></Data_Parameters_AB><AB__Qtest><MainReport name="Quality Test Report"><Header><Line><Legend>Test result ok/not ok [1/0]: </Legend><Value>0</Value></Line><Line><Legend>Method file: </Legend><Value>C:\Users\Public\Documents\Bruker\OPUS_8.2.28\QT\IRBT_v3_default.QT</Value></Line></Header><Matrix><Line><Legend></Legend><Legend>min</Legend><Legend>max</Legend><Legend>measured</Legend></Line><Line><Value>Absorption (X-Range 1):</Value><Value>0.400000</Value><Value>2.000000</Value><Value>0.092127</Value></Line><Line><Value>Noise (X-Range 4):</Value><Value></Value><Value>0.000300</Value><Value>0.000049</Value></Line><Line><Value>Signal/Noise (X-Range 2):</Value><Value>200.000000</Value><Value></Value><Value>24.591835</Value></Line><Line><Value>Signal/Noise (X-Range 3):</Value><Value>40.000000</Value><Value></Value><Value>21.310165</Value></Line><Line><Value>Water vapour (X-Range 5):</Value><Value></Value><Value>0.000300</Value><Value>0.000052</Value></Line><Line><Value>Signal/Water (X-Range 2):</Value><Value>100.000000</Value><Value></Value><Value>23.089926</Value></Line><Line><Value>Signal/Water (X-Range 3):</Value><Value>20.000000</Value><Value></Value><Value>20.008678</Value></Line><Line><Value>Fringes (X-Range 6):</Value><Value></Value><Value>0.000100</Value><Value>0.000051</Value></Line></Matrix></MainReport></AB__Qtest><Data_Parameters_ScSm><parameter name="DPF">1</parameter><parameter name="NPT">1814</parameter><parameter name="FXV">3996.33169228125</parameter><parameter name="LXV">499.541461535156</parameter><parameter name="CSF">1</parameter><parameter name="MXY">0.254064321517944</parameter><parameter name="MNY">0.031353622674942</parameter><parameter name="DAT">27/05/2022</parameter><parameter name="TIM">11:22:11.306 (GMT+2)</parameter><parameter name="DXU">WN</parameter></Data_Parameters_ScSm><Data_Parameters_ScRf><parameter name="DPF">1</parameter><parameter name="NPT">1820</parameter><parameter name="FXV">4004.04661832813</parameter><parameter name="LXV">495.683998511719</parameter><parameter name="CSF">1</parameter><parameter name="MXY">0.264183282852173</parameter><parameter name="MNY">0.0289081018418074</parameter><parameter name="DAT">27/05/2022</parameter><parameter name="TIM">11:21:44.332 (GMT+2)</parameter><parameter name="DXU">WN</parameter></Data_Parameters_ScRf><Optic_Parameters_Rf><parameter name="APR">0</parameter><parameter name="APT">Open</parameter><parameter name="BMS">KBr</parameter><parameter name="DTC">RT-DLaTGS_IR-Biotyper [Microplate reader]</parameter><parameter name="HPF">0</parameter><parameter name="LPF">10.0</parameter><parameter name="LPV">4000</parameter><parameter name="PGR">0</parameter><parameter name="RCH">Module port</parameter><parameter name="RDX">0</parameter><parameter name="SRC">MIR</parameter><parameter name="VEL">10.0</parameter><parameter name="SON">Off</parameter></Optic_Parameters_Rf><Acquisition_Parameters_Rf><parameter name="ADT">1</parameter><parameter name="AQM">DD</parameter><parameter name="CFE">0</parameter><parameter name="COR">0</parameter><parameter name="DEL">0</parameter><parameter name="DLY">0</parameter><parameter name="HFW">8000</parameter><parameter name="LFW">0</parameter><parameter name="NSR">32</parameter><parameter name="PLF">AB</parameter><parameter name="RES">6</parameter><parameter name="RGN">-1</parameter><parameter name="STR">0</parameter><parameter name="TCL">MakeCompatibleScalar (0, {WSV=1.000000, ARV=0});</parameter><parameter name="TDL">37</parameter><parameter name="RPO">0</parameter></Acquisition_Parameters_Rf><FT_-_Parameters_Rf><parameter name="APF">B3</parameter><parameter name="HFQ">500</parameter><parameter name="LFQ">4000</parameter><parameter name="NLI">0</parameter><parameter name="PHR">24</parameter><parameter name="PHZ">ML</parameter><parameter name="SPZ">NO</parameter><parameter name="ZFF">1</parameter></FT_-_Parameters_Rf><Optic_Parameters_><parameter name="APR">0</parameter><parameter name="APT">Open</parameter><parameter name="BMS">KBr</parameter><parameter name="CHN">Module port</parameter><parameter name="DTC">RT-DLaTGS_IR-Biotyper [Microplate reader]</parameter><parameter name="HPF">0</parameter><parameter name="LPF">10.0</parameter><parameter name="LPV">4000</parameter><parameter name="PGN">0</parameter><parameter name="RDX">0</parameter><parameter name="SRC">MIR</parameter><parameter name="VEL">10.0</parameter><parameter name="SON">Off</parameter></Optic_Parameters_><FT_-_Parameters_><parameter name="APF">B3</parameter><parameter name="HFQ">500</parameter><parameter name="LFQ">4000</parameter><parameter name="NLI">0</parameter><parameter name="PHR">24</parameter><parameter name="PHZ">ML</parameter><parameter name="SPZ">NO</parameter><parameter name="ZFF">1</parameter></FT_-_Parameters_><Acquisition_Parameters_><parameter name="ADT">1</parameter><parameter name="AQM">DD</parameter><parameter name="CFE">0</parameter><parameter name="COR">0</parameter><parameter name="DEL">0</parameter><parameter name="DLY">0</parameter><parameter name="HFW">8000</parameter><parameter name="LFW">0</parameter><parameter name="NSS">32</parameter><parameter name="PLF">AB</parameter><parameter name="RES">6</parameter><parameter name="SOT">0</parameter><parameter name="TCL">MakeCompatibleScalar (0, {WSV=1.000000, ARV=0});</parameter><parameter name="TDL">37</parameter><parameter name="SPO">0</parameter><parameter name="SGN">-1</parameter></Acquisition_Parameters_><Instrument_Parameters_Rf><parameter name="HFL">15800.168544</parameter><parameter name="LFL">0</parameter><parameter name="LWN">15800.168544</parameter><parameter name="ABP">32197</parameter><parameter name="SSP">1</parameter><parameter name="ARG">2</parameter><parameter name="ASG">2</parameter><parameter name="ASS">32</parameter><parameter name="GFW">16</parameter><parameter name="GBW">16</parameter><parameter name="BFW">0</parameter><parameter name="BBW">0</parameter><parameter name="PKA">7271</parameter><parameter name="PKL">4996</parameter><parameter name="PRA">7450</parameter><parameter name="PRL">5001</parameter><parameter name="P2A">1</parameter><parameter name="P2L">1</parameter><parameter name="P2R">1</parameter><parameter name="P2K">1</parameter><parameter name="DAQ">0</parameter><parameter name="AG2">1</parameter><parameter name="SSM">1</parameter><parameter name="RSN">24834</parameter><parameter name="CRR">0</parameter><parameter name="SRT">1653650504.333</parameter><parameter name="DUR">19.635986328125</parameter><parameter name="TSC">27.2</parameter><parameter name="MVD">0.285455733537674</parameter><parameter name="AN1">0.225775838381112</parameter><parameter name="AN2">0</parameter><parameter name="VSN">2.485 Apr  4 2017</parameter><parameter name="SRN">0085</parameter><parameter name="CAM">0</parameter><parameter name="INS">IR-Biotyper</parameter><parameter name="FOC">69</parameter><parameter name="RDY">1</parameter><parameter name="ARS">32</parameter></Instrument_Parameters_Rf><Sample_Parameters_><parameter name="BLD"></parameter><parameter name="CNM">Admin</parameter><parameter name="CPY"></parameter><parameter name="DPM"></parameter><parameter name="EXP">IRBT_v3_32Scans.XPM</parameter><parameter name="LCT"></parameter><parameter name="SFM">Microplate, HTS-XT</parameter><parameter name="SNM">220527-1039(v.2)_CLA33F (D_2)_A3_9f80e592-637e-448f-a842-e4462268ba11.0</parameter><parameter name="XPP">C:\Users\Public\Documents\Bruker\OPUS_8.2.28\XPM</parameter><parameter name="IST">OK</parameter><parameter name="CPG">1252</parameter><parameter name="UID">9c47929f-4dbf-4ff3-99e1-3e1b92f24dd6</parameter></Sample_Parameters_><Instrument_Parameters_><parameter name="HFL">15800.168544</parameter><parameter name="LFL">0</parameter><parameter name="LWN">15800.168544</parameter><parameter name="ABP">32197</parameter><parameter name="SSP">1</parameter><parameter name="ASG">2</parameter><parameter name="ARG">2</parameter><parameter name="ASS">32</parameter><parameter name="GFW">16</parameter><parameter name="GBW">16</parameter><parameter name="BFW">0</parameter><parameter name="BBW">0</parameter><parameter name="PKA">7206</parameter><parameter name="PKL">4988</parameter><parameter name="PRA">7505</parameter><parameter name="PRL">4993</parameter><parameter name="P2A">1</parameter><parameter name="P2L">1</parameter><parameter name="P2R">1</parameter><parameter name="P2K">1</parameter><parameter name="DAQ">0</parameter><parameter name="AG2">1</parameter><parameter name="SSM">1</parameter><parameter name="RSN">13043</parameter><parameter name="CRR">0</parameter><parameter name="SRT">1653650531.307</parameter><parameter name="DUR">19.6349945068359</parameter><parameter name="TSC">27.2</parameter><parameter name="MVD">0.29410582780838</parameter><parameter name="AN1">0.225826236310722</parameter><parameter name="AN2">0</parameter><parameter name="VSN">2.485 Apr  4 2017</parameter><parameter name="SRN">0085</parameter><parameter name="CAM">0</parameter><parameter name="INS">IR-Biotyper</parameter><parameter name="FOC">69</parameter><parameter name="RDY">1</parameter></Instrument_Parameters_><History/></OPUSDataFile>
