<?xml version="1.0" encoding="UTF-8" ?>
<OPUSDataFile><AB><Ydata ylabel="Absorbance Units"><values byteorder="INTEL" format="FLOAT32" numvalues="3497"> -0.05587978 -0.05590283 -0.05591963 -0.05593134 -0.05592016 -0.05588521 -0.05582185 -0.05573194 -0.05563749 -0.05554136
 -0.05547342 -0.05543049 -0.05541903 -0.05543045 -0.05544657 -0.05546483 -0.0554707 -0.05547141 -0.0554702 -0.05547139
 -0.05548217 -0.05549502 -0.05550808 -0.05551425 -0.05550827 -0.05549666 -0.05547902 -0.05546724 -0.0554639 -0.05547057
 -0.05548811 -0.05550965 -0.05553485 -0.05555951 -0.05558372 -0.0556076 -0.05563128 -0.05565556 -0.05568045 -0.05570687
 -0.05573392 -0.05576132 -0.05578496 -0.05579846 -0.05579777 -0.05577314 -0.05573105 -0.05566999 -0.05560737 -0.05555283
 -0.05551521 -0.05550382 -0.05550392 -0.05551518 -0.05551594 -0.05550094 -0.05547009 -0.05542154 -0.05537734 -0.05533861
 -0.05532598 -0.0553391 -0.05537885 -0.05544217 -0.05551124 -0.05558372 -0.05564063 -0.05568428 -0.05570968 -0.0557225
 -0.05573042 -0.05573596 -0.05574728 -0.05575779 -0.05576663 -0.05576245 -0.05573693 -0.05569029 -0.05561675 -0.05553677
 -0.05545273 -0.05538926 -0.05535134 -0.05534919 -0.05538484 -0.05545618 -0.05556323 -0.05569797 -0.05585874 -0.05602365
 -0.05618706 -0.05630274 -0.05636767 -0.05633863 -0.0562332 -0.05606708 -0.05586932 -0.05569918 -0.0555639 -0.05549997
 -0.05548973 -0.05553452 -0.05560582 -0.05569024 -0.0557617 -0.05580556 -0.05581602 -0.05578513 -0.05573429 -0.05566382
 -0.05560671 -0.0555668 -0.05556018 -0.05558811 -0.05563508 -0.05569996 -0.05576201 -0.05582338 -0.05588751 -0.0559573
 -0.05604832 -0.05615506 -0.05627493 -0.05639444 -0.05648795 -0.05655127 -0.05656533 -0.05654325 -0.05648972 -0.05641476
 -0.05632533 -0.05622619 -0.05611554 -0.05601845 -0.05593764 -0.05591011 -0.05594523 -0.05604727 -0.05622277 -0.05640283
 -0.05658432 -0.05663571 -0.05655796 -0.05633681 -0.05599625 -0.05569319 -0.05542772 -0.05528631 -0.05524629 -0.05529406
 -0.05541233 -0.055569 -0.05574568 -0.05591266 -0.05604582 -0.05611339 -0.05611043 -0.05601428 -0.05587034 -0.05568581
 -0.05551825 -0.05538835 -0.05530635 -0.05527977 -0.05528742 -0.0553276 -0.05538788 -0.05546739 -0.05556196 -0.05567056
 -0.0557773 -0.05587977 -0.05595323 -0.05599823 -0.05600268 -0.05597066 -0.05590661 -0.05581292 -0.05569319 -0.05555534
 -0.05540576 -0.05526373 -0.05514652 -0.05506894 -0.05504683 -0.05507663 -0.05516402 -0.05528812 -0.05544765 -0.05561072
 -0.05577336 -0.05590213 -0.05599294 -0.05602563 -0.05599849 -0.05591907 -0.05578909 -0.05563795 -0.05546691 -0.05529866
 -0.05513245 -0.05497602 -0.05483124 -0.05470584 -0.0546037 -0.05453644 -0.05450242 -0.05450753 -0.05453921 -0.05459211
 -0.0546461 -0.05468897 -0.05470522 -0.05468309 -0.05462753 -0.05453281 -0.05443168 -0.05432718 -0.05425667 -0.0542259
 -0.05424112 -0.05430346 -0.05438641 -0.05448809 -0.05457409 -0.05464441 -0.05468063 -0.05468749 -0.05467272 -0.05464254
 -0.05461726 -0.05459887 -0.05460053 -0.05462086 -0.05466202 -0.05472614 -0.05481402 -0.05493275 -0.05508893 -0.05527874
 -0.05550944 -0.05574524 -0.05598377 -0.05616645 -0.05628001 -0.05630482 -0.0562335 -0.05610754 -0.05592921 -0.05572423
 -0.05549317 -0.05524025 -0.05497103 -0.05472703 -0.05451388 -0.0543809 -0.05431911 -0.05433533 -0.05440661 -0.05449735
 -0.05458551 -0.05462206 -0.05461863 -0.05456223 -0.05448862 -0.05441814 -0.05436504 -0.05434462 -0.05434064 -0.05435476
 -0.05435531 -0.05433601 -0.05428076 -0.054184 -0.05407495 -0.05395464 -0.05387513 -0.05383771 -0.05386778 -0.05395968
 -0.05409003 -0.05424587 -0.05436209 -0.05443204 -0.05439413 -0.05427597 -0.05409402 -0.05388702 -0.0537193 -0.05358718
 -0.05351664 -0.05347216 -0.05344067 -0.0533918 -0.05330474 -0.05318595 -0.05302773 -0.05286951 -0.0527173 -0.0525997
 -0.05252338 -0.05247303 -0.05244889 -0.0523966 -0.05231438 -0.05216556 -0.05195882 -0.05173944 -0.05151766 -0.05136482
 -0.0512722 -0.05125377 -0.05129533 -0.05137835 -0.05149074 -0.05161457 -0.05172845 -0.0518104 -0.05183826 -0.05178585
 -0.05166718 -0.05147699 -0.05125162 -0.05100461 -0.05073672 -0.05045148 -0.05013472 -0.04978285 -0.0494135 -0.04902721
 -0.04865477 -0.04829733 -0.04797351 -0.04768376 -0.04744055 -0.04724347 -0.0470997 -0.04700393 -0.04694783 -0.0469216
 -0.04690573 -0.04688758 -0.04684848 -0.04676469 -0.04660985 -0.04636608 -0.04599878 -0.04556131 -0.04505766 -0.0445745
 -0.0441463 -0.04377898 -0.0434847 -0.0432163 -0.04296957 -0.0427104 -0.04243563 -0.04214646 -0.04184416 -0.04155811
 -0.04128932 -0.04106345 -0.040872 -0.04069806 -0.04052223 -0.04027717 -0.03996466 -0.03954203 -0.03905782 -0.03856036
 -0.03807954 -0.03766992 -0.03730831 -0.0369992 -0.03670687 -0.03641485 -0.03610959 -0.03578 -0.03544241 -0.03509779
 -0.03476359 -0.03444433 -0.03412539 -0.03380688 -0.03344553 -0.03304001 -0.03256629 -0.03203051 -0.03146827 -0.03088825
 -0.03034911 -0.02984845 -0.02941163 -0.02902775 -0.02868917 -0.02838415 -0.0280952 -0.02781221 -0.02751833 -0.02721427
 -0.02689339 -0.02656734 -0.02624363 -0.02591376 -0.02558359 -0.02520875 -0.0247801 -0.024275 -0.02368252 -0.02307007
 -0.02244044 -0.02188815 -0.021415 -0.02103574 -0.02074277 -0.02048291 -0.02025041 -0.01998988 -0.01970683 -0.01938493
 -0.01903957 -0.01869323 -0.01835516 -0.01805309 -0.01777179 -0.01751443 -0.01724241 -0.01693137 -0.01655871 -0.01609831
 -0.01558528 -0.01501922 -0.01445843 -0.01391597 -0.01341744 -0.01296942 -0.01256408 -0.01220181 -0.01185918 -0.0115349
 -0.01120475 -0.0108685 -0.01051331 -0.01014024 -0.009747462 -0.009334975 -0.008901031 -0.008446978 -0.007971694 -0.007484224
 -0.006994681 -0.006514411 -0.006059994 -0.0056297 -0.005229922 -0.004847066 -0.004475639 -0.004110139 -0.00374531 -0.003392287
 -0.003052813 -0.002733791 -0.002438676 -0.002146208 -0.001855733 -0.001530681 -0.001170135 -0.0007640747 -0.000317117 0.0001372341
 0.0005938496 0.001009249 0.001388027 0.001718014 0.002012665 0.002291968 0.002567188 0.002864236 0.003181647 0.003530406
 0.003895843 0.004272519 0.0046461 0.005006489 0.00535568 0.005689802 0.006025129 0.006364 0.006720145 0.007096313
 0.007493326 0.007911813 0.008341644 0.008782042 0.009215711 0.009641711 0.01004405 0.01042356 0.01077498 0.01110081
 0.0114053 0.01169074 0.01196325 0.01222504 0.0124811 0.01273418 0.0129881 0.01324604 0.01351006 0.01378593
 0.014076 0.01438691 0.0147231 0.01507866 0.0154556 0.01583189 0.01620466 0.01656082 0.01689831 0.01723224
 0.01756347 0.01791263 0.01827785 0.01865251 0.01903139 0.0193854 0.01971425 0.01999928 0.02024938 0.02047217
 0.02067853 0.02088885 0.02110332 0.02133296 0.02156378 0.02178987 0.02200001 0.02218409 0.022351 0.02249889
 0.02264895 0.0228054 0.02298132 0.02317953 0.02340127 0.02364702 0.0239125 0.0241973 0.02449098 0.02479272
 0.02509006 0.02538416 0.02567373 0.02596064 0.02625193 0.02654357 0.02683259 0.02711023 0.02736134 0.02758486
 0.02777097 0.02793189 0.02807153 0.0282043 0.02833895 0.02847925 0.02862902 0.02878428 0.02894411 0.02910977
 0.02928071 0.0294645 0.02966191 0.02987311 0.0300978 0.03032382 0.03055071 0.03076872 0.03097932 0.03118523
 0.03138659 0.03158652 0.03178116 0.03196345 0.03213202 0.03227925 0.03241313 0.03253718 0.03266302 0.03280125
 0.03295306 0.03312487 0.033302 0.03348216 0.03364879 0.0337962 0.03392582 0.03403551 0.03414438 0.03425409
 0.03437236 0.03449894 0.03461221 0.03471053 0.03476754 0.03478687 0.03477054 0.03472675 0.03468122 0.03463988
 0.03462745 0.03464533 0.03470726 0.03480832 0.03495159 0.03512243 0.03531263 0.03550888 0.03569909 0.03589184
 0.0360851 0.03629913 0.03654153 0.03680348 0.0370888 0.03734987 0.0375834 0.03774888 0.03784516 0.03787958
 0.03785565 0.03781115 0.03774666 0.03768511 0.03762342 0.03756059 0.03750148 0.03745183 0.03742674 0.03745298
 0.03753377 0.03769057 0.03789493 0.03813886 0.03838164 0.03859821 0.0387786 0.03890807 0.03901703 0.03910832
 0.03921431 0.0393426 0.03948794 0.03965211 0.03979488 0.03991431 0.03997467 0.03997812 0.0399297 0.03983786
 0.039747 0.03966422 0.03963732 0.03966235 0.03975771 0.03990718 0.04009782 0.04030796 0.04051198 0.04069255
 0.04082773 0.04091649 0.04094844 0.04094449 0.04090616 0.04086463 0.04082611 0.04081565 0.04083708 0.04090924
 0.04103388 0.04122717 0.04148965 0.04181883 0.04221012 0.04261925 0.04303578 0.04338254 0.04365443 0.04378795
 0.04380021 0.04368714 0.0434918 0.04327214 0.04307102 0.04296193 0.04294222 0.04304718 0.04321285 0.04342493
 0.0436031 0.04371424 0.0437254 0.04361613 0.04341964 0.04313402 0.04282336 0.04249287 0.04218876 0.04191309
 0.04167335 0.04146796 0.04128253 0.04111731 0.0409652 0.04083016 0.04072222 0.04064245 0.04060253 0.04059017
 0.04059814 0.04059825 0.04056124 0.04045924 0.04025868 0.03996098 0.03954922 0.03906671 0.03851875 0.03796472
 0.03741899 0.03691833 0.03647159 0.03608386 0.03575715 0.03547832 0.03524658 0.03503533 0.03484262 0.03463621
 0.03441822 0.03418021 0.03393115 0.03369809 0.03348251 0.03330763 0.03315367 0.03300269 0.03283243 0.03260574
 0.03233198 0.03199735 0.0316453 0.03129144 0.03097666 0.03072198 0.03053294 0.03041977 0.0303489 0.03032021
 0.03027823 0.03021844 0.03009511 0.02990607 0.02964709 0.02932212 0.02897244 0.02860398 0.02827143 0.02797397
 0.02774096 0.02756092 0.02742539 0.02731776 0.02720833 0.02708792 0.02693193 0.02674909 0.02653454 0.02631015
 0.02608538 0.02587664 0.02569365 0.02553535 0.02540489 0.02528871 0.02518583 0.02508125 0.02497358 0.0248524
 0.02471713 0.02456237 0.0243882 0.02419318 0.02397839 0.02374765 0.02350409 0.02325959 0.0230177 0.02279348
 0.02258528 0.02239946 0.02222662 0.02205961 0.02188928 0.02170482 0.02150732 0.02129265 0.02107099 0.02084517
 0.02062176 0.02040366 0.02018917 0.01997842 0.01976928 0.01956127 0.01935779 0.019159 0.01896617 0.01877873
 0.01858995 0.01839938 0.0182001 0.01799402 0.01778388 0.01757181 0.017365 0.01716193 0.01696384 0.01676751
 0.0165686 0.01636893 0.01616599 0.01597022 0.01578441 0.01562369 0.01549494 0.01540349 0.01535613 0.01532952
 0.01532488 0.01529187 0.0152262 0.01508741 0.01487336 0.01459311 0.01425105 0.01390272 0.01355309 0.01326091
 0.01302261 0.01286103 0.01276105 0.01270255 0.0126654 0.01260752 0.01252049 0.01237252 0.01218297 0.01195111
 0.01171283 0.01148962 0.0112935 0.01114016 0.01100109 0.01087254 0.01072899 0.01056085 0.01039497 0.01023068
 0.01012818 0.01009067 0.01013905 0.01026839 0.0104233 0.01059404 0.01069304 0.01072194 0.01063376 0.01044977
 0.01019231 0.009889172 0.009597718 0.009326749 0.009114117 0.008940346 0.008804158 0.008681941 0.008556325 0.008430137
 0.008297441 0.008178857 0.008080783 0.008004025 0.007952292 0.007901094 0.007848041 0.007780351 0.007697211 0.007620454
 0.007551877 0.007522252 0.00752937 0.007577572 0.007659611 0.007752705 0.007850493 0.007925856 0.007978588 0.007995227
 0.007981071 0.00793768 0.007867657 0.007776897 0.007655208 0.007500215 0.007298009 0.007038197 0.00673367 0.006378156
 0.00602665 0.005684583 0.005411687 0.005216699 0.005104185 0.005074943 0.005066989 0.005076283 0.005031351 0.004935641
 0.004770403 0.004548655 0.004307157 0.004055295 0.003836903 0.003646469 0.003496569 0.003373371 0.003265107 0.003163639
 0.003057547 0.002947106 0.002829189 0.002706677 0.002578891 0.002453055 0.002329682 0.002220917 0.002130226 0.002055074
 0.001997571 0.001925082 0.001835882 0.001695971 0.001506606 0.001277399 0.001014558 0.0007635401 0.0005236216 0.0003196115
 0.0001394709 -3.535317E-05 -0.0002100938 -0.0004073183 -0.0006122903 -0.0008180356 -0.001007513 -0.001160514 -0.001281517 -0.001364579
 -0.001427676 -0.001477932 -0.00152048 -0.001560331 -0.001585004 -0.001593044 -0.001575007 -0.001528357 -0.001466705 -0.001390544
 -0.001336006 -0.001305001 -0.001333342 -0.00141883 -0.001568889 -0.001774031 -0.002005033 -0.002250667 -0.002468006 -0.002653905
 -0.002781312 -0.002858717 -0.002884113 -0.002870394 -0.002828236 -0.002763286 -0.00268289 -0.002583695 -0.002465072 -0.002327695
 -0.002169028 -0.002004548 -0.00183594 -0.001679286 -0.001538021 -0.001401053 -0.001268168 -0.001099724 -0.0008940095 -0.0006168862
 -0.0002720509 0.0001360646 0.0005985775 0.001079859 0.001574376 0.002048854 0.002506825 0.002938407 0.003351254 0.003751389
 0.004142278 0.004529118 0.004912065 0.005290769 0.005671586 0.006055212 0.006453697 0.006871871 0.007309203 0.0077696
 0.008226242 0.008678182 0.00908636 0.009448313 0.009742598 0.009969916 0.01013886 0.01025218 0.01033206 0.01037954
 0.01040922 0.01042284 0.01042881 0.01043608 0.01046154 0.01051774 0.01062843 0.0107943 0.01102774 0.01131283
 0.0116446 0.01200798 0.01239354 0.01280348 0.01323549 0.01369988 0.01419902 0.01473339 0.01530438 0.01589779
 0.01651309 0.01712274 0.01772436 0.01827761 0.01877922 0.01918681 0.01950041 0.01969589 0.01977883 0.01974996
 0.01961743 0.01939528 0.01909009 0.01871645 0.01827409 0.01777111 0.01719373 0.01653918 0.01578569 0.01492114
 0.01394415 0.01284407 0.01166642 0.01041108 0.009159471 0.007919049 0.006761284 0.005691418 0.004732655 0.003883728
 0.003122916 0.00244718 0.001825365 0.001257618 0.0007287533 0.000239149 -0.0002157167 -0.000640875 -0.001046221 -0.001438417
 -0.001831459 -0.002223196 -0.00261925 -0.003007107 -0.003382382 -0.003730963 -0.004046449 -0.004319532 -0.004546063 -0.004723618
 -0.004849993 -0.004933289 -0.00497372 -0.004983475 -0.004963505 -0.004912404 -0.004829714 -0.00470381 -0.004537951 -0.004345266
 -0.004137091 -0.003966109 -0.003839409 -0.003808426 -0.003858366 -0.003993067 -0.004179123 -0.004378145 -0.004561926 -0.004690804
 -0.00475913 -0.004749607 -0.004675849 -0.004537434 -0.004354807 -0.00413195 -0.003889951 -0.003631092 -0.00338238 -0.003144831
 -0.002961506 -0.002834633 -0.002824125 -0.00293302 -0.003218025 -0.003677323 -0.004331138 -0.005165404 -0.006141219 -0.007232239
 -0.008352507 -0.009478511 -0.01052449 -0.01149159 -0.01234078 -0.01309963 -0.01377797 -0.01440166 -0.01499305 -0.01555145
 -0.01608399 -0.01657574 -0.017022 -0.01742183 -0.01777246 -0.01808882 -0.01837218 -0.01863471 -0.01887736 -0.01910382
 -0.01931443 -0.01951478 -0.01970581 -0.01989783 -0.02009038 -0.02028845 -0.02048815 -0.02068226 -0.02086632 -0.02102733
 -0.02116713 -0.02127999 -0.02137729 -0.0214657 -0.02155819 -0.02166642 -0.02179049 -0.02193675 -0.02208734 -0.02224015
 -0.02237285 -0.02247975 -0.02255509 -0.02259576 -0.02262073 -0.02263078 -0.0226538 -0.02269041 -0.02275089 -0.02283268
 -0.02292134 -0.02301497 -0.02309592 -0.02316883 -0.0232359 -0.02330503 -0.02339344 -0.02350158 -0.02363982 -0.02379796
 -0.02397227 -0.02414876 -0.02431864 -0.02447038 -0.0245973 -0.02469255 -0.0247512 -0.02477886 -0.02477315 -0.02475796
 -0.02473479 -0.0247323 -0.02475283 -0.02480572 -0.02489044 -0.02499233 -0.02510977 -0.0252232 -0.02533332 -0.02543248
 -0.02552273 -0.02560607 -0.02568309 -0.02575582 -0.02582405 -0.02588789 -0.02594837 -0.02600657 -0.02606291 -0.02611921
 -0.02617086 -0.02621687 -0.02625129 -0.02627041 -0.0262798 -0.02627765 -0.0262849 -0.02630367 -0.02635096 -0.02642867
 -0.02652752 -0.02664627 -0.02675647 -0.02685769 -0.02693215 -0.02698391 -0.02702075 -0.02704722 -0.02708138 -0.02712164
 -0.02717522 -0.0272343 -0.02729153 -0.02734094 -0.02737212 -0.02739003 -0.02739204 -0.02739314 -0.0273989 -0.02742071
 -0.02746487 -0.02752762 -0.02761055 -0.02770021 -0.02779509 -0.02788653 -0.02797368 -0.02805597 -0.02813337 -0.02820581
 -0.02827303 -0.02833246 -0.02838465 -0.02843008 -0.02847076 -0.02851275 -0.02855723 -0.02861026 -0.02866951 -0.02873513
 -0.02880259 -0.02886751 -0.02892757 -0.02897922 -0.02902453 -0.02906299 -0.02909902 -0.0291339 -0.02917019 -0.02920877
 -0.02924971 -0.02929326 -0.02933775 -0.02938313 -0.02942676 -0.02946847 -0.02950538 -0.02953714 -0.02955977 -0.02957307
 -0.02957323 -0.02956199 -0.02954083 -0.0295149 -0.02949421 -0.02948404 -0.0294968 -0.02953154 -0.02959356 -0.02967464
 -0.02977219 -0.02987585 -0.02998081 -0.03007924 -0.03016767 -0.03024299 -0.03030336 -0.03035207 -0.03038874 -0.03042204
 -0.03045254 -0.03048739 -0.03052676 -0.03057206 -0.03062291 -0.03067709 -0.03073411 -0.03079078 -0.03084655 -0.03089792
 -0.03094533 -0.03098714 -0.03102627 -0.03106585 -0.03110842 -0.03115841 -0.03121414 -0.031277 -0.03134099 -0.03140419
 -0.03146075 -0.03150845 -0.03154412 -0.03156622 -0.03157668 -0.03157474 -0.03157018 -0.03156345 -0.03156829 -0.03158515
 -0.03162021 -0.03167216 -0.03173301 -0.03180061 -0.03186046 -0.03191274 -0.03194954 -0.03197452 -0.03199062 -0.03200264
 -0.03201884 -0.03204095 -0.03207485 -0.03211635 -0.03216549 -0.03221481 -0.03226036 -0.03229975 -0.03232999 -0.03235788
 -0.03238408 -0.03241554 -0.03245401 -0.03249596 -0.03254155 -0.03258051 -0.03261252 -0.03263317 -0.03264319 -0.03264713
 -0.03264589 -0.03264598 -0.03264758 -0.03265448 -0.03266656 -0.03268564 -0.03271089 -0.03274237 -0.03277801 -0.03281589
 -0.03285443 -0.03289176 -0.03292806 -0.03296316 -0.03299663 -0.03302851 -0.03305751 -0.03308303 -0.03310644 -0.0331275
 -0.0331508 -0.03317675 -0.0332069 -0.03324116 -0.03327442 -0.03330631 -0.03333104 -0.03334957 -0.03336309 -0.03337324
 -0.03338597 -0.03340103 -0.03342133 -0.03344459 -0.03346843 -0.03349234 -0.03351426 -0.03353652 -0.0335603 -0.03358659
 -0.03361715 -0.03364818 -0.03367903 -0.03370569 -0.03372648 -0.03374365 -0.03375687 -0.03377253 -0.03379121 -0.03381519
 -0.03384445 -0.03387449 -0.03390498 -0.03393087 -0.03395281 -0.03397105 -0.03398681 -0.03400405 -0.03402299 -0.03404615
 -0.03407274 -0.03410295 -0.03413529 -0.03416881 -0.03420104 -0.03423053 -0.03425378 -0.0342686 -0.03427365 -0.03426714
 -0.03425306 -0.03423116 -0.03420955 -0.03418906 -0.03417746 -0.03417554 -0.03418588 -0.03420845 -0.03423778 -0.03427299
 -0.03430301 -0.03432777 -0.03434007 -0.03434258 -0.03433915 -0.03433331 -0.03433509 -0.03434413 -0.0343657 -0.03439398
 -0.03442542 -0.03445421 -0.03447396 -0.03448604 -0.03448774 -0.0344884 -0.03449021 -0.03450137 -0.03452509 -0.0345595
 -0.03460551 -0.0346536 -0.03470306 -0.03474704 -0.03478528 -0.03481667 -0.03484127 -0.03485915 -0.03487038 -0.03487454
 -0.03487292 -0.0348688 -0.03486425 -0.03486562 -0.03487308 -0.03489027 -0.03491467 -0.03494502 -0.03497928 -0.03501522
 -0.03505323 -0.03509307 -0.03513485 -0.03517939 -0.03522265 -0.03526417 -0.03529909 -0.03532622 -0.03534659 -0.03535999
 -0.03537225 -0.03538358 -0.03539516 -0.03540633 -0.03541024 -0.03540708 -0.03539307 -0.03537137 -0.03534995 -0.03533169
 -0.03532811 -0.03533607 -0.03535743 -0.0353841 -0.03540812 -0.03542507 -0.03542749 -0.03542043 -0.03540281 -0.03538594
 -0.03537337 -0.0353725 -0.03538676 -0.03541259 -0.03545089 -0.03548949 -0.0355275 -0.03555505 -0.03557173 -0.03557745
 -0.03557289 -0.03556521 -0.03555476 -0.03554718 -0.03554161 -0.03553807 -0.03553583 -0.03553276 -0.03553015 -0.03552879
 -0.03553069 -0.03553895 -0.03555245 -0.03557229 -0.03559401 -0.03561563 -0.03563452 -0.03564867 -0.03566034 -0.03566967
 -0.03567893 -0.03568891 -0.03569683 -0.03570265 -0.03570178 -0.03569406 -0.03567987 -0.03565979 -0.03564002 -0.0356208
 -0.03560708 -0.03559765 -0.03559114 -0.03558653 -0.03558001 -0.03557367 -0.03556851 -0.03556785 -0.03557676 -0.03559334
 -0.03561925 -0.03564738 -0.03567449 -0.03569627 -0.03570958 -0.03571711 -0.03571875 -0.03571817 -0.03571606 -0.03571289
 -0.03570866 -0.03570502 -0.03570209 -0.03570482 -0.03571342 -0.03573202 -0.03576033 -0.03579888 -0.03584764 -0.03590633
 -0.03597626 -0.03605987 -0.03615905 -0.03627805 -0.03641715 -0.03657822 -0.03676089 -0.03696399 -0.03719222 -0.03744524
 -0.03773606 -0.03806988 -0.03845191 -0.03888845 -0.03935642 -0.03985598 -0.0403455 -0.04082076 -0.04126389 -0.04167403
 -0.0420618 -0.04242567 -0.04275608 -0.04304341 -0.04323111 -0.04330953 -0.04321181 -0.04294632 -0.04248399 -0.0418749
 -0.04117178 -0.04044716 -0.03980407 -0.039269 -0.03890095 -0.03867798 -0.03860625 -0.03865363 -0.0388135 -0.03904966
 -0.03935898 -0.0396814 -0.04001125 -0.04027605 -0.04046719 -0.04056363 -0.04056434 -0.04050594 -0.04039085 -0.04025829
 -0.04010793 -0.03995877 -0.03980777 -0.03965468 -0.03949723 -0.03932893 -0.03915215 -0.03896805 -0.03877831 -0.03858643
 -0.03838951 -0.038184 -0.03797605 -0.03776398 -0.03756817 -0.03739626 -0.03725797 -0.03716064 -0.03708654 -0.03703556
 -0.03698034 -0.03691809 -0.03683526 -0.03673112 -0.03660933 -0.03647092 -0.03632897 -0.03618445 -0.03604981 -0.03592456
 -0.03581381 -0.03571623 -0.03563091 -0.03555781 -0.03549659 -0.03544718 -0.03541094 -0.03538294 -0.03536098 -0.03533775
 -0.03530745 -0.03527128 -0.03522642 -0.03518444 -0.03514796 -0.03512328 -0.03511324 -0.03510821 -0.03510798 -0.03509747
 -0.03507589 -0.03504055 -0.03499255 -0.03494481 -0.03489864 -0.03486894 -0.03485435 -0.03485909 -0.03487896 -0.03490676
 -0.03493828 -0.03496342 -0.03498061 -0.03498343 -0.03497457 -0.03495288 -0.03492511 -0.03489403 -0.03486609 -0.03484505
 -0.03483044 -0.03482347 -0.03481893 -0.03481575 -0.03481357 -0.03481195 -0.0348161 -0.03482628 -0.03484221 -0.03486302
 -0.03487722 -0.03488403 -0.034872 -0.03484336 -0.034799 -0.03474334 -0.0346873 -0.03463337 -0.03459147 -0.03455929
 -0.03453896 -0.03452493 -0.03451366 -0.0345009 -0.03448261 -0.03445997 -0.03443178 -0.03440302 -0.03437471 -0.03435033
 -0.0343311 -0.03431478 -0.0343015 -0.03428581 -0.03426742 -0.03424488 -0.03421875 -0.03419591 -0.03417726 -0.03417229
 -0.0341797 -0.03420104 -0.03423221 -0.03426454 -0.03429461 -0.03431206 -0.03431807 -0.03430888 -0.0342898 -0.03426345
 -0.03423494 -0.03420825 -0.03418409 -0.03416433 -0.03414514 -0.03412585 -0.03410383 -0.03407794 -0.03405169 -0.03402502
 -0.03400519 -0.03399261 -0.03398991 -0.0339966 -0.03400691 -0.03402004 -0.03402789 -0.03403105 -0.03402676 -0.03401722
 -0.03400623 -0.03399544 -0.03398979 -0.0339884 -0.03399261 -0.03399982 -0.03400821 -0.03401654 -0.03402317 -0.03402943
 -0.03403576 -0.03404186 -0.03404838 -0.03405125 -0.03405 -0.03404076 -0.03402271 -0.0339989 -0.03396939 -0.03394318
 -0.03392062 -0.03390897 -0.03390749 -0.03391563 -0.03393192 -0.03395064 -0.03397107 -0.03398854 -0.03400328 -0.03401376
 -0.03402005 -0.03402179 -0.03401867 -0.03401003 -0.03399659 -0.03397798 -0.03395701 -0.03393422 -0.03391352 -0.03389587
 -0.03388448 -0.03388019 -0.03388373 -0.03389546 -0.03391313 -0.03393666 -0.03396153 -0.03398738 -0.03400836 -0.03402415
 -0.03402946 -0.03402484 -0.03400875 -0.03398355 -0.0339537 -0.0339223 -0.03389707 -0.03387849 -0.03387123 -0.03387134
 -0.03387768 -0.03388533 -0.03389065 -0.03389288 -0.03389037 -0.03388591 -0.03388016 -0.03387393 -0.03386774 -0.03385957
 -0.03384915 -0.03383643 -0.03382138 -0.03380704 -0.03379349 -0.03378271 -0.03377447 -0.03376811 -0.03376387 -0.03376239
 -0.03376399 -0.03377055 -0.03378038 -0.03379191 -0.03380229 -0.03380698 -0.03380599 -0.03379688 -0.03378354 -0.03376722
 -0.03375179 -0.03373912 -0.03373093 -0.03372815 -0.03373075 -0.03373918 -0.03375079 -0.03376562 -0.0337781 -0.0337879
 -0.03379093 -0.03378731 -0.03377829 -0.03376445 -0.03375017 -0.0337358 -0.03372503 -0.03371779 -0.03371587 -0.03371885
 -0.03372711 -0.03373935 -0.03375454 -0.03377072 -0.03378592 -0.03379905 -0.03380866 -0.03381537 -0.03381901 -0.03382065
 -0.03382076 -0.0338188 -0.03381475 -0.03380811 -0.03379861 -0.03378876 -0.03377868 -0.03377169 -0.03376772 -0.03376551
 -0.03376467 -0.03376118 -0.03375593 -0.03374982 -0.03374469 -0.03374641 -0.03375428 -0.03377065 -0.03379166 -0.03381345
 -0.03383352 -0.0338475 -0.03385756 -0.03386318 -0.03386852 -0.03387538 -0.03388541 -0.03389979 -0.03391689 -0.03393677
 -0.03395678 -0.03397661 -0.03399497 -0.03401177 -0.03402742 -0.03404194 -0.03405582 -0.03406886 -0.03408014 -0.03408936
 -0.03409494 -0.03409664 -0.03409293 -0.03408401 -0.0340691 -0.03404948 -0.0340258 -0.03400091 -0.03397701 -0.03395732
 -0.03394426 -0.03393997 -0.03394618 -0.03396238 -0.03398954 -0.03402278 -0.03406204 -0.03409902 -0.03413292 -0.03415699
 -0.03417073 -0.03417244 -0.03416226 -0.03414255 -0.03411401 -0.03408204 -0.03404786 -0.03401932 -0.03399689 -0.03398653
 -0.03398642 -0.03399645 -0.03401375 -0.03403464 -0.0340574 -0.03407932 -0.03409964 -0.03411746 -0.03413154 -0.03414129
 -0.0341455 -0.03414347 -0.03413576 -0.03412201 -0.03410528 -0.03408571 -0.03406749 -0.0340509 -0.03403786 -0.03402832
 -0.03402059 -0.03401468 -0.03400953 -0.03400582 -0.03400609 -0.03401024 -0.03402034 -0.03403353 -0.03404587 -0.03405434
 -0.03405251 -0.03404188 -0.03402027 -0.03399374 -0.03396512 -0.03393936 -0.03392008 -0.03390579 -0.03389747 -0.03388956
 -0.03388097 -0.03386935 -0.03385387 -0.03383869 -0.03382403 -0.0338136 -0.03380724 -0.03380135 -0.03379533 -0.03378259
 -0.03376409 -0.03373966 -0.03371198 -0.03368807 -0.03366967 -0.0336639 -0.03366926 -0.03368792 -0.03371434 -0.03374576
 -0.03377352 -0.03379151 -0.03379472 -0.03377766 -0.03374691 -0.03370187 -0.03365575 -0.03361122 -0.03357492 -0.03354859
 -0.03352805 -0.03351319 -0.03349756 -0.03348108 -0.0334629 -0.03344357 -0.03342706 -0.03341337 -0.03340495 -0.03340084
 -0.03339988 -0.03340099 -0.03340177 -0.03340146 -0.0333982 -0.0333915 -0.03337994 -0.03336468 -0.03334544 -0.03332553
 -0.03330649 -0.03328975 -0.0332768 -0.03326394 -0.03325099 -0.03323297 -0.03320893 -0.03317961 -0.03314486 -0.03311171
 -0.03308051 -0.03305778 -0.03304294 -0.03303513 -0.03303242 -0.03302605 -0.03301493 -0.03299025 -0.03295521 -0.0329105
 -0.03286253 -0.03282067 -0.03278705 -0.03276897 -0.03275966 -0.03275799 -0.03275474 -0.0327447 -0.03272649 -0.03269726
 -0.03266484 -0.03262998 -0.03260063 -0.03257826 -0.03256284 -0.03255462 -0.0325472 -0.03254047 -0.03253282 -0.03252523
 -0.03252534 -0.03253287 -0.03255253 -0.03257951 -0.03260344 -0.03261889 -0.03260809 -0.03257548 -0.03251668 -0.03244558
 -0.03237393 -0.0323095 -0.03226255 -0.03222877 -0.03220969 -0.03219644 -0.03218676 -0.03217448 -0.03215778 -0.03213502
 -0.03210545 -0.03207208 -0.03203489 -0.03200202 -0.03197395 -0.03196038 -0.03196058 -0.03197457 -0.03199865 -0.03201649
 -0.03202529 -0.03200604 -0.0319647 -0.03190248 -0.03182883 -0.0317584 -0.03169268 -0.03163889 -0.0315938 -0.03155684
 -0.03152711 -0.03150432 -0.03148707 -0.0314761 -0.0314642 -0.03145064 -0.0314263 -0.03138966 -0.03133793 -0.03127059
 -0.03119298 -0.03110559 -0.03101912 -0.03093403 -0.0308594 -0.03079418 -0.03073882 -0.03069134 -0.03064599 -0.03060262
 -0.03055827 -0.03051338 -0.03046805 -0.03042057 -0.03036866 -0.03031334 -0.03025294 -0.0301946 -0.0301414 -0.03009701
 -0.03006479 -0.03003791 -0.03001599 -0.02999048 -0.02995987 -0.0299231 -0.02987996 -0.02983167 -0.02977809 -0.02971451
 -0.02964053 -0.02954946 -0.02944314 -0.02932484 -0.02919957 -0.02908417 -0.02898015 -0.02890103 -0.02883926 -0.02879192
 -0.02874722 -0.0286917 -0.0286221 -0.02852884 -0.02842476 -0.02831182 -0.0282062 -0.02811513 -0.0280389 -0.02798153
 -0.02792281 -0.02786213 -0.02776866 -0.0276395 -0.0274671 -0.02725237 -0.02703078 -0.02680396 -0.02660377 -0.02642452
 -0.02625775 -0.02609534 -0.02590822 -0.0256945 -0.02543457 -0.02513536 -0.02479659 -0.02442973 -0.02404508 -0.02365221
 -0.02326217 -0.02287346 -0.02249098 -0.02209933 -0.02169313 -0.02126899 -0.02082041 -0.02038012 -0.01995092 -0.01956398
 -0.01922289 -0.018921 -0.01865778 -0.01841588 -0.01819583 -0.01799654 -0.01781768 -0.01766011 -0.01751668 -0.0173683
 -0.01720511 -0.01699518 -0.01674133 -0.01642986 -0.0160787 -0.01570123 -0.01530822 -0.01491239 -0.01451302 -0.01411201
 -0.0137104 -0.01330848 -0.01290944 -0.01251691 -0.01211502 -0.01170631 -0.01123621 -0.01070061 -0.01005803 -0.009309122
 -0.008519283 -0.007694678 -0.006924347 -0.006198109 -0.005514104 -0.004858807 -0.004189085 -0.003502581 -0.002775328 -0.002006462
 -0.001192629 -0.0003111051 0.0006505696 0.001743961 0.003009235 0.00447293 0.00618159 0.008043813 0.01005778 0.01206487
 0.01402595 0.01587572 0.01759494 0.01920858 0.02071564 0.02216925 0.02357333 0.0250185 0.02651399 0.02819541
 0.03004762 0.03209334 0.03426307 0.0363386 0.0383123 0.04003845 0.04160397 0.0430759 0.04451477 0.04601645
 0.04757467 0.049218 0.05091382 0.05265162 0.05441589 0.05620521 0.0579837 0.05974698 0.06144741 0.0630734
 0.06464157 0.066152 0.06763367 0.0690859 0.07044422 0.07170219 0.07276594 0.0736451 0.0743344 0.07485443
 0.07526788 0.07558239 0.07584829 0.07605283 0.07619528 0.07627334 0.07627854 0.07622914 0.07613523 0.07600969
 0.07586402 0.07569295 0.07550019 0.075265 0.07498591 0.07463337 0.07420373 0.0736706 0.07302987 0.07229906
 0.07148001 0.07064216 0.06978562 0.06894064 0.06809837 0.06722856 0.06632766 0.06536466 0.06435122 0.06329099
 0.06221092 0.06115179 0.06013235 0.05919195 0.058321 0.05752653 0.05679037 0.05610253 0.05546279 0.0548673
 0.05432678 0.05384492 0.05341691 0.05304379 0.0527094 0.05241226 0.05214597 0.05191038 0.05171203 0.05155128
 0.05143465 0.05136105 0.05132845 0.05133533 0.05137584 0.05144938 0.05155164 0.05168319 0.05184192 0.05203173
 0.05225401 0.05251752 0.05282854 0.05319398 0.05362024 0.05410478 0.05464939 0.05524492 0.05589088 0.05657377
 0.05729314 0.05802603 0.0587705 0.05950833 0.06023906 0.06097982 0.06173353 0.06254238 0.06339914 0.06429432
 0.06520642 0.06605419 0.06684011 0.0675227 0.06813185 0.06870047 0.06923467 0.0697618 0.07025302 0.07069419
 0.07106948 0.07136133 0.07158724 0.0717466 0.07186792 0.07195763 0.07203468 0.07210602 0.07215136 0.0721708
 0.07212395 0.07200897 0.0718088 0.07152324 0.07114436 0.07067125 0.07009446 0.06941353 0.0686248 0.0677218
 0.06669568 0.06552295 0.06415394 0.06260296 0.06082811 0.05896948 0.0571199 0.05536219 0.05379312 0.05231879
 0.05092755 0.04953945 0.04812388 0.04669771 0.04525635 0.04384814 0.04247841 0.0411519 0.03986878 0.03860739
 0.03736852 0.03615402 0.03496687 0.0338269 0.03273024 0.03167629 0.0306562 0.0296492 0.02865209 0.02765066
 0.02664575 0.02563595 0.02461367 0.0235802 0.02250483 0.02137343 0.02016048 0.01883102 0.01748247 0.01611684
 0.01489986 0.01387161 0.01300251 0.0122986 0.01163239 0.01099795 0.01033872 0.009658534 0.008983703 0.008318441
 0.007702106 0.007127348 0.006587729 0.00608034 0.00558894 0.005130765 0.004723886 0.004386832 0.004152359 0.004011603
 0.003971666 0.004010183 0.004116484 0.004279555 0.004491688 0.004755119 0.005065135 0.00544711 0.005898789 0.006486493
 0.00721615 0.008139467 0.009258252 0.01047124 0.01176579 0.01295439 0.01404333 0.01496946 0.01575374 0.01643674
 0.01702541 0.01755509 0.01802484 0.01844105 0.01882232 0.01918301 0.01956226 0.02000254 0.02049785 0.02107483
 0.02164681 0.02218501 0.02264689 0.02300752 0.02330661 0.02354549 0.02376852 0.02398083 0.0241959 0.02441454
 0.0246252 0.02482727 0.02500889 0.0251721 0.02532068 0.02546021 0.02561102 0.02577854 0.02598777 0.02623433
 0.02652381 0.0268465 0.02719019 0.0275594 0.02795157 0.02837881 0.02885033 0.02936033 0.02991261 0.03048313
 0.03106651 0.03164793 0.03222302 0.03279595 0.03336716 0.03393517 0.0344998 0.03502911 0.03552049 0.03593189
 0.03626359 0.03649636 0.03663163 0.03666536 0.03659593 0.03641725 0.0361286 0.03572373 0.03520963 0.03458899
 0.03387607 0.0330817 0.03221836 0.03129578 0.03031876 0.02928956 0.02821602 0.02709575 0.02596045 0.0248115
 0.02369804 0.02262548 0.02161768 0.02067616 0.01978756 0.01895092 0.01814948 0.01738503 0.01665965 0.01597588
 0.01534553 0.01476578 0.01423826 0.0137534 0.01329791 0.01286066 0.01242377 0.01198188 0.01152324 0.01105307
 0.01056931 0.01008408 0.009601566 0.009128996 0.008670066 0.008221461 0.007783483 0.007349828 0.006919253 0.006496646
 0.006082206 0.005699264 0.005349206 0.005057551 0.00482218 0.004644423 0.004519199 0.004428435 0.004370512 0.004332348
 0.004315366 0.004316643 0.004336515 0.004374392 0.004430179 0.004503788 0.004594648 0.004704131 0.00482525 0.00495714
 0.00508836 0.005215324 0.005333996 0.005441864 0.005548203 0.005653157 0.005771577 0.005904317 0.006059942 0.00623852
 0.006441853 0.006670782 0.006930687 0.00722402 0.007563507 0.007948712 0.008388428 0.008872336 0.009391598 0.009925749
 0.01045132 0.01094391 0.01137982 0.01173445 0.01198982 0.01212695 0.01213222 0.01200825 0.01174808 0.01138563
 0.01092217 0.0104077 0.009846726 0.009280503 0.008711641 0.008162166 0.007632251 0.007128227 0.00664945 0.006195341
 0.005765664 0.005359636 0.004976719 0.004615676 0.004275019 0.003951081 0.003644656 0.003353826 0.00308403 0.002839104
 0.002622649 0.002439555 0.002284247 0.002156602 0.002047876 0.001955075 0.001876944 0.001812637 0.001764249 0.001732485
 0.001711092 0.0016998 0.001685326 0.001667569 0.00164173 0.001610212 0.001585286 0.001570123 0.001584024 0.001626118
 0.001705435 0.001816061 0.001952135 0.002108658 0.002276531 0.002455917 0.002644195 0.002841864 0.003050378 0.003263202
 0.003479264 0.003688914 0.00388852 0.004077232 0.004252983 0.00442712 0.004600228 0.004785914 0.004985072 0.005201729
 0.005435286 0.00567737 0.005926327 0.00616762 0.006400022 0.006611062 0.00680089 0.0069636 0.007099969 0.007209071
 0.007290553 0.007343783 0.007368037 0.00736149 0.007327198 0.007264504 0.007182911 0.007084873 0.006981545 0.006876536
 0.006775158 0.006679264 0.006587985 0.006501392 0.006418645 0.006339672 0.006266473 0.006199013 0.006137462 0.006080878
 0.006023589 0.00596388 0.005892204 0.005807516 0.005702168 0.005576606 0.005427808 0.005257556 0.005065947 0.004857146
 0.004632774 0.00440198 0.004168815 0.003945185 0.003736888 0.003549938 0.003388302 0.003247335 0.003127394 0.003019881
 0.00292376 0.002835062 0.002753395 0.0026825 0.002622933 0.002584582 0.002567719 0.002580356 0.002619729 0.002680158
 0.002757234 0.002834801 0.002915457 0.002993311 0.003080527 0.003189639 0.003329581 0.003515158 0.003740233 0.004007084
 0.00430263 0.004621106 0.004958536 0.005311381 0.005686253 0.006083801 0.006509454 0.006964507 0.00744462 0.007949769
 0.008465923 0.008992198 0.009512523 0.01002666 0.0105246 0.01100783 0.01147586 0.0119325 0.01238658 0.01284242
 0.01331294 0.01379675 0.0143 0.0148119 0.01532622 0.01583203 0.01631946 0.01678909 0.0172379 0.0176726
 0.01809563 0.01850552 0.01890329 0.01928022 0.01963504 0.01996616 0.02027314 0.02056964 0.02085699 0.02115916
 0.02147716 0.02183067 0.02221756 0.02264067 0.02309573 0.02357273 0.02406968 0.02457841 0.02509863 0.02562776
 0.02616302 0.02670124 0.02724058 0.02777792 0.02831703 0.02885937 0.02940528 0.0299574 0.03050316 0.03104147
 0.0315574 0.03204855 0.03251266 0.03294921 0.0333689 0.03377256 0.0341759 0.03457915 0.03499293 0.03541409
 0.03583622 0.03625467 0.03665189 0.0370304 0.03738475 0.03772394 0.03805942 0.03839083 0.03872546 0.03904907
 0.03935503 0.03963337 0.0398754 0.04008941 0.04027404 0.04044744 0.04061275 0.04078189 0.04095727 0.04113736
 0.04132231 0.0415056 0.04168736 0.0418704 0.04205571 0.04225343 0.04246151 0.04267867 0.04289847 0.0431034
 0.04328811 0.04343413 0.04354086 0.04359914 0.04361326 0.0435821 0.04351557 0.04341871 0.04330062 0.04316784
 0.04301823 0.04285283 0.0426661 0.04245509 0.04223068 0.04199263 0.041763 0.04154344 0.04134266 0.04116033
 0.04098738 0.040823 0.04065654 0.04048889 0.04031727 0.04014465 0.03997656 0.03981776 0.03968036 0.03956536
 0.0394817 0.03942053 0.03937839 0.03934365 0.03930681 0.03926615 0.03921789 0.03916649 0.03911429 0.03905579
 0.03899259 0.03890448 0.03879008 0.03862569 0.03840943 0.03813205 0.03779399 0.03740729 0.03697353 0.03651099
 0.0360187 0.03550205 0.0349593 0.03438651 0.03378719 0.03316451 0.03252599 0.0318827 0.03123974 0.03060574
 0.02998216 0.02937216 0.02877615 0.02819484 0.02762879 0.02707757 0.02654522 0.02603187 0.02554438 0.02508386
 0.02465168 0.02424813 0.02386895 0.02351408 0.02318394 0.0228786 0.02260023 0.02234621 0.02210701 0.02187862
 0.02164398 0.0214035 0.02114964 0.02088522 0.02061249 0.02032895 0.02003449 0.01972231 0.01938757 0.01902777
 0.01863964 0.01822692 0.01778972 0.01733297 0.01685791 0.01636577 0.01585689 0.01533085 0.01478739 0.01423367
 0.01367049 0.01311598 0.01257096 0.01205102 0.01155455 0.01108286 0.01063369 0.01020142 0.009784581 0.009379397
 0.008980679 0.008581152 0.008173712 0.007747081 0.007304432 0.00684106 0.006373532 0.005907283 0.005456769 0.005028643
 0.004624299 0.004245962 0.003886616 0.003545773 0.003216797 0.002899043 0.002591909 0.002295588 0.00201633 0.001754154
 0.001512686 0.001290212 0.001080965 0.0008834149 0.0006899647 0.0005007578 0.0003133063 0.000126128 -6.308406E-05 -0.0002574752
 -0.0004619147 -0.0006746156 -0.0008972107 -0.001122782 -0.001349054 -0.001569732 -0.0017832 -0.001982336 -0.002166489 -0.002324309
 -0.002454155 -0.002549785 -0.002610243 -0.002642689 -0.00264768 -0.002638075 -0.002614229 -0.002584595 -0.002548939 -0.002510553
 -0.002469421 -0.002426895 -0.002383788 -0.002342112 -0.00230307 -0.002269887 -0.002240975 -0.002217149 -0.002193039 -0.002164106
 -0.002131316 -0.00209077 -0.002057687 -0.002035332 -0.002037889 -0.002071611 -0.002125942 -0.002202408 -0.002269833 -0.002325999
 -0.002348478 -0.002336851 -0.002294364 -0.002222569 -0.002136738 -0.002036475 -0.001928076 -0.001809693 -0.001677592 -0.001534149
 -0.001380768 -0.001224083 -0.001074336 -0.0009346287 -0.0008128757 -0.0007056809 -0.000613342 -0.000531786 -0.000459774 -0.0003925261
 -0.0003296445 -0.0002615069 -0.000186226 -9.637735E-05 1.008855E-05 0.0001287241 0.0002595801 0.0003927012 0.0005277029 0.0006597042
 0.0007887141 0.0009129031 0.001032053 0.001143418 0.001248145 0.001347267 0.001444104 0.001545231 0.001654528 0.001780106
 0.001924263 0.002093795 0.002283919 0.002496789 0.002716204 0.002936672 0.003141337 0.003321668 0.003478794 0.003609445
 0.003730719 0.003844543 0.003962516 0.004086115 0.004211574 0.004338688 0.004461143 0.004579774 0.004699416 0.004821777
 0.004958637 0.00510863 0.005275528 0.005453145 0.005630961 0.005803612 0.005957455 0.006094739 0.006211427 0.006314995
 0.006409725 0.006499486 0.006588179 0.006673077 0.006754214 0.006828349 0.006893963 0.006954317 0.007008937 0.007067688
 0.00713134 0.007206623 0.007293588 0.007385812 0.007482648 0.007574278 0.007662605 0.007751197 0.007843416 0.007952536
 0.008077686 0.008223826 0.008387941 0.008566627 0.008761002 0.008970789 0.009197741 0.009444815 0.009706572 0.009983117
 0.01026251 0.01054221 0.01080825 0.01105738 0.01127969 0.01147209 0.01164139 0.011787 0.01193464 0.01208547
 0.01225941 0.0124544 0.01265987 0.01287089 0.01305642 0.01321651 0.01333213 0.01341285 0.01346768 0.01350937
 0.01356221 0.01362802 0.01372114 0.01382799 0.01394442 0.01405634 0.01415406 0.01423743 0.01430344 0.01435892
 0.0144047 0.01444639 0.01448408 0.01452865 0.01458078 0.0146533 0.0147465 0.01485421 0.014974 0.01507894
 0.01516799 0.01521973 0.01523942 0.01523 0.01520204 0.01517816 0.01516798 0.01519741 0.01526441 0.01538115
 0.01552775 0.01569682 0.01586349 0.01601226 0.01613532 0.01622319 0.01629224 0.01634159 0.01640238 0.01647852
 0.016595 0.01675547 0.01695179 0.01718304 0.01740767 0.01762406 0.01779835 0.01793507 0.01803849 0.01811575
 0.01819158 0.01826956 0.01836967 0.01849114 0.01864382 0.01881834 0.01901158 0.01920677 0.0193897 0.0195547
 0.01969239 0.01981408 0.01992152 0.02002391 0.02012371 0.02022486 0.02032669 0.02044549 0.02058236 0.0207542
 0.02096159 0.02119848 0.0214634 0.02173877 0.02202419 0.02230997 0.02259442 0.02286799 0.02312717 0.02335874
 0.02356343 0.02373719 0.02388017 0.02399392 0.02406942 0.02409919 0.02408213 0.02400868 0.02390831 0.02378446
 0.02368002 0.02360648 0.0235831 0.02361669 0.02369391 0.02381516 0.0239514 0.02410114 0.02424052 0.02436963
 0.02448154 0.02457701 0.02465651 0.0247199 0.02476387 0.02479471 0.02482097 0.02485717 0.02493117 0.02504614
 0.02521848 0.02543828 0.02570006 0.02600713 0.02636174 0.02676008 0.02721732 0.02765237 0.02805186 0.028341
 0.02849649 0.02857084 0.0285652 0.02854953 0.02852706 0.02851644 0.0285167 0.02852376 0.02853605 0.0285452
 0.02854718 0.02852221 0.02847252 0.02838792 0.02828602 0.0281911 0.02811138 0.02807225 0.02805206 0.02804125
 0.02802742 0.02799242 0.02796821 0.02795931 0.02800328 0.02811478 0.02828568 0.02852154 0.0287712 0.02903198
 0.02924304 0.02940125 0.02946972 0.02945074 0.02935579 0.02919279 0.02900963 0.02881325 0.02865143 0.02852708
 0.02847126 0.02848011 0.02856765 0.0287102 0.02889395 0.02908052 0.0292345 0.02934146 0.02938005 0.02936658
 0.02930021 0.02920422 0.0290794 0.0289674 0.02887159 0.02884723 0.02890164 0.02903804 0.02925645 0.02949676
 0.02975604 0.0299825 0.03017661 0.03031488 0.03039809 0.03040967 0.0303651 0.03028326 0.03019747 0.03017118
 0.03021731 0.03038475 0.03064046 0.03098249 0.03135657 0.03173706 0.03207821 0.03235833 0.03255288 0.03264724
 0.03265967 0.03258606 0.03248487 0.03236089 0.03225857 0.03218034 0.03212996 0.03210692 0.03210652 0.03212806
 0.03216755 0.03222084 0.03226959 0.03231498 0.03234711 0.032378 0.0324252 0.03248977 0.03258447 0.03269208
 0.03280216 0.03290667 0.03299772 0.03307603 0.03314336 0.03318635 0.03320194 0.03318148 0.03312108 0.03303466
 0.03292331 0.03279451 0.0326487 0.03248438 0.03230358 0.03213115 0.03197062 0.03185828 0.03178979 0.03176962
 0.03179086 0.03183971 0.03191184 0.03199929 0.03208582 0.03215278 0.03218156 0.03214472 0.03205731 0.03191521
 0.03175225 0.03158498 0.03141147 0.0312386 0.03103423 0.030793 0.03050211 0.03015824 0.02977882 0.02936468
 0.02894817 0.0285315 0.02815178 0.02780906 0.02752473 0.02729309 0.02710619 0.02695729 0.0268268 0.02671092
 0.02659674 0.02647798 0.02634316 0.02618735 0.02600074 0.02578939 0.0255528 0.02530085 0.02503594 0.02476916
 0.02450056 0.02425525 0.02403728 0.0238647 0.02374225 0.02363757 0.02354903</values></Ydata></AB><ScSm><Ydata ylabel="Single channel"><values byteorder="INTEL" format="FLOAT32" numvalues="1814"> 0.06943959 0.06944142 0.06951212 0.06967163 0.06988537 0.07008673 0.07022338 0.07028879 0.07030313 0.07027294
 0.07020124 0.07013676 0.07016546 0.07032673 0.07055843 0.07074025 0.07079095 0.07074008 0.07071094 0.07079771
 0.07093327 0.07090831 0.07056607 0.06998178 0.0694157 0.06907684 0.06899419 0.06916378 0.06967334 0.07045978
 0.07103796 0.07084628 0.06995157 0.06908189 0.06881911 0.06903806 0.06924802 0.06916122 0.06878199 0.06828749
 0.06807372 0.06865653 0.07016885 0.07193444 0.07270553 0.07145149 0.06809595 0.0637508 0.06030328 0.05940585
 0.06131745 0.06456406 0.06704316 0.06770188 0.06704798 0.06609191 0.06524952 0.06447232 0.06396115 0.06420478
 0.06531178 0.06656015 0.06677482 0.06533316 0.06289826 0.06094512 0.06041444 0.06112186 0.06254464 0.06439746
 0.06583595 0.06499066 0.06079482 0.05532414 0.05289089 0.05595348 0.06249515 0.06799187 0.06944081 0.06706438
 0.0630164 0.05958203 0.05830251 0.05956483 0.06254201 0.06588164 0.06852357 0.06974567 0.06898002 0.06630234
 0.06292046 0.06059256 0.06054095 0.06296395 0.06699959 0.07081516 0.07243781 0.0712048 0.06820402 0.06512503
 0.06314523 0.06293121 0.06480645 0.0684194 0.07271393 0.07653947 0.07912552 0.0801658 0.0798808 0.07887433
 0.07767215 0.07663599 0.0762897 0.07700086 0.07812528 0.07824324 0.07670399 0.07449141 0.07320881 0.07341819
 0.07419119 0.07424325 0.07323782 0.0715881 0.06918608 0.06535707 0.06039597 0.05600538 0.05359532 0.0531945
 0.05445267 0.05720472 0.06028727 0.06144954 0.05981171 0.05746035 0.05738573 0.06028637 0.06419537 0.06688192
 0.06792219 0.06854913 0.07006253 0.07250117 0.07447819 0.0742247 0.07133506 0.06776278 0.06645127 0.06845042
 0.07190182 0.0743245 0.07523541 0.07590869 0.0771386 0.07800928 0.07684928 0.07322121 0.06900442 0.06723942
 0.06947919 0.07423516 0.07805741 0.07808964 0.07398988 0.06801103 0.06324408 0.06147925 0.06271701 0.06633724
 0.07179074 0.07798564 0.08300135 0.08516173 0.08425729 0.08145329 0.07795788 0.07390234 0.06896887 0.06424754
 0.06248062 0.06547999 0.07182024 0.07802205 0.0816584 0.08257801 0.08157053 0.07887974 0.07440722 0.06912984
 0.06558106 0.06589643 0.06924438 0.07227997 0.07264321 0.07111932 0.06993795 0.06999274 0.0704917 0.07065172
 0.07081363 0.07184504 0.07389216 0.07603525 0.07717744 0.07704617 0.07624778 0.07555913 0.07522264 0.07477055
 0.07368031 0.07240371 0.07233417 0.07428956 0.07739632 0.07998399 0.08126216 0.08162718 0.0815662 0.08079551
 0.07867505 0.0754216 0.0726217 0.07206548 0.07401659 0.0770385 0.07949059 0.08071338 0.08088599 0.08043768
 0.07975309 0.07904276 0.07840259 0.07808594 0.07844777 0.07944024 0.08048618 0.08105945 0.08112413 0.08087709
 0.08036351 0.07954445 0.07857548 0.07782906 0.07762802 0.07800146 0.07871443 0.07948128 0.08007239 0.08028737
 0.08002858 0.07944132 0.07882328 0.07835443 0.07803814 0.07789029 0.07800135 0.07836591 0.07879717 0.07908601
 0.07917017 0.07910703 0.07895257 0.07872055 0.07842667 0.0781341 0.07795087 0.07795757 0.07811348 0.07827707
 0.07836657 0.07844432 0.07857678 0.07868031 0.07860762 0.07835062 0.07806352 0.07789709 0.07787703 0.07793243
 0.07797261 0.07791025 0.07766343 0.07722111 0.07673004 0.07644279 0.07651888 0.07690775 0.07743885 0.0779517
 0.07832478 0.07849025 0.07848251 0.07840553 0.07831331 0.07816967 0.07793976 0.07768241 0.07753859 0.07762726
 0.07793491 0.07831492 0.0786121 0.0787686 0.07881247 0.07881029 0.07884399 0.07895261 0.07906798 0.07907498
 0.07895847 0.07883444 0.07881901 0.07890553 0.07898451 0.07896805 0.07888617 0.07885294 0.07893778 0.07909676
 0.0792402 0.07933462 0.0794149 0.07951495 0.07960493 0.07960516 0.07947607 0.07928435 0.07914431 0.07909958
 0.07910933 0.07914385 0.07922852 0.07937528 0.0795254 0.07959892 0.07958311 0.07954197 0.07953592 0.07955115
 0.07952325 0.07941878 0.07927111 0.0791412 0.07906653 0.07904723 0.07905757 0.07906193 0.07903305 0.07896595
 0.07887496 0.07877615 0.07867387 0.0785709 0.07849435 0.0784926 0.07858145 0.07869648 0.07872831 0.07862079
 0.07842531 0.07824932 0.07815541 0.0781157 0.07805975 0.07795227 0.07781672 0.07769626 0.07761298 0.07756369
 0.0775335 0.07750724 0.07748681 0.0775062 0.07760706 0.077779 0.07794033 0.07800629 0.07797252 0.07791083
 0.07789005 0.07792292 0.0779822 0.07804322 0.07811086 0.07821496 0.07836824 0.07852764 0.07862655 0.07865221
 0.07866209 0.07872016 0.07884993 0.07904302 0.07926458 0.07944812 0.07953861 0.07955715 0.07958466 0.07967021
 0.07978884 0.07989877 0.08000283 0.08013101 0.08028923 0.08045673 0.08062788 0.08083014 0.08109154 0.08139992
 0.0817012 0.08193985 0.08210813 0.08226135 0.0824777 0.08279406 0.08317724 0.08355502 0.08387317 0.08412981
 0.08436289 0.08460627 0.08486336 0.08513056 0.08542906 0.0857864 0.08619069 0.0865933 0.08696066 0.08730129
 0.08764024 0.08798799 0.0883415 0.08870399 0.0890937 0.08952527 0.08997753 0.09039158 0.09071916 0.09097131
 0.09121019 0.0914997 0.09186609 0.09227945 0.09265926 0.09292947 0.09309816 0.09326281 0.09350873 0.09382066
 0.09412409 0.09439442 0.09468313 0.09503707 0.09543121 0.0957983 0.09610451 0.09637575 0.09665491 0.09694537
 0.09720244 0.09738286 0.09749843 0.09760803 0.09775718 0.09794914 0.09818426 0.09848984 0.09887657 0.0992901
 0.09964737 0.09991215 0.1001061 0.1002643 0.1004127 0.1005709 0.1007418 0.1009085 0.1010607 0.1012057
 0.1013399 0.1014424 0.101519 0.1016187 0.1017827 0.102009 0.1022844 0.1026145 0.102991 0.1033629
 0.1036893 0.1040024 0.1043708 0.1047933 0.1051771 0.1054376 0.1055836 0.1056798 0.1057683 0.105868
 0.1060182 0.1062655 0.1066079 0.1069925 0.1073712 0.1077322 0.1080799 0.108407 0.1086938 0.1089198
 0.109076 0.1091727 0.1092414 0.10933 0.1094868 0.1097326 0.1100363 0.1103301 0.1105552 0.1106879
 0.1107211 0.1106527 0.1105133 0.1103787 0.1103112 0.1102858 0.1102007 0.1099643 0.1095538 0.1089932
 0.1083059 0.1075097 0.1066445 0.105784 0.1050163 0.1044132 0.1040201 0.1038726 0.1040038 0.1044145
 0.1050332 0.1057255 0.1063517 0.1068049 0.1069974 0.106855 0.1063577 0.1055746 0.104632 0.1036498
 0.1027088 0.1018495 0.1010772 0.1003904 0.09984104 0.09956216 0.09971569 0.1004052 0.1016309 0.1032931
 0.1052132 0.107171 0.1089733 0.1105226 0.1118291 0.1129587 0.1139751 0.1149239 0.1158392 0.1167323
 0.1175776 0.1183386 0.1190129 0.1196309 0.1202123 0.120739 0.1211744 0.1214954 0.1217114 0.1218604
 0.1219795 0.1220732 0.1221219 0.122124 0.1221054 0.1220779 0.1220067 0.1218289 0.1214961 0.1210049
 0.1204207 0.1198961 0.119657 0.1199298 0.1208358 0.1223201 0.1241757 0.1261462 0.1280228 0.1296693
 0.1310095 0.1320293 0.1327835 0.133368 0.1338695 0.1343403 0.1348014 0.1352535 0.1356896 0.1361084
 0.1365179 0.1369284 0.1373468 0.1377719 0.1381876 0.1385691 0.1389077 0.1392296 0.1395791 0.1399791
 0.1404089 0.1408244 0.1412054 0.1415747 0.1419594 0.1423439 0.1426861 0.1429767 0.143256 0.1435709
 0.1439375 0.1443415 0.1447476 0.1451111 0.1454044 0.1456442 0.1458767 0.1461356 0.1464238 0.1467282
 0.1470383 0.147347 0.1476496 0.1479509 0.148267 0.1486045 0.1489391 0.1492308 0.1494657 0.1496719
 0.149891 0.1501394 0.1504022 0.1506552 0.1508934 0.1511412 0.1514305 0.1517654 0.1521093 0.1524147
 0.1526609 0.1528658 0.1530657 0.1532882 0.1535389 0.1538055 0.1540719 0.1543282 0.154575 0.1548211
 0.1550761 0.1553405 0.1556055 0.1558617 0.1561093 0.1563568 0.156613 0.1568796 0.1571527 0.1574325
 0.1577253 0.1580295 0.1583256 0.1585895 0.1588164 0.159022 0.1592231 0.1594251 0.159629 0.1598404
 0.1600664 0.1603092 0.1605652 0.1608281 0.1610901 0.1613457 0.1615969 0.1618527 0.1621189 0.16239
 0.1626564 0.1629183 0.1631827 0.1634504 0.1637124 0.1639607 0.1641973 0.1644286 0.1646582 0.1648852
 0.1651078 0.1653279 0.1655517 0.1657826 0.1660164 0.1662457 0.1664707 0.1666963 0.1669238 0.1671497
 0.1673726 0.1675954 0.1678209 0.1680495 0.1682791 0.1685085 0.1687393 0.1689734 0.1692093 0.1694432
 0.1696755 0.1699106 0.1701514 0.1703968 0.1706424 0.1708834 0.1711173 0.1713442 0.1715668 0.1717903
 0.1720202 0.1722575 0.1724972 0.172734 0.1729665 0.1731968 0.1734278 0.1736602 0.1738908 0.1741171
 0.1743452 0.1745844 0.1748343 0.1750841 0.1753276 0.1755669 0.1758056 0.1760454 0.1762882 0.1765348
 0.1767845 0.1770384 0.1772954 0.1775472 0.1777829 0.1779992 0.1782009 0.1783957 0.1785909 0.1787901
 0.1789926 0.1792003 0.1794174 0.1796431 0.1798716 0.1801008 0.1803321 0.1805639 0.1807926 0.1810169
 0.1812379 0.1814594 0.1816882 0.1819271 0.1821722 0.1824214 0.1826742 0.1829241 0.1831625 0.1833915
 0.1836188 0.1838468 0.184076 0.1843102 0.1845489 0.1847856 0.185016 0.1852404 0.1854619 0.1856896
 0.1859334 0.1861899 0.1864447 0.1866881 0.1869191 0.18714 0.1873563 0.1875744 0.187796 0.1880226
 0.1882592 0.1885042 0.1887478 0.1889874 0.1892264 0.189461 0.1896878 0.1899161 0.1901539 0.1903957
 0.1906345 0.1908678 0.1910914 0.1913075 0.1915301 0.1917641 0.1919978 0.1922246 0.1924477 0.1926532
 0.1927898 0.1927301 0.1921685 0.1905071 0.186839 0.1801306 0.1696387 0.1553849 0.1383093 0.119931
 0.1017928 0.08507039 0.07046254 0.05827626 0.0485732 0.04126907 0.03619818 0.03321818 0.0323194 0.03373513
 0.03805989 0.04590069 0.05655656 0.06683928 0.07230335 0.07075047 0.06432968 0.05757682 0.05363912 0.05274506
 0.05355408 0.05492134 0.05648571 0.05845436 0.06118094 0.06476477 0.06903771 0.07400174 0.08003837 0.08742914
 0.0957818 0.1041912 0.112014 0.119373 0.1268624 0.1348385 0.14305 0.1508905 0.1578853 0.1639376
 0.1692378 0.1740432 0.1785289 0.1827766 0.1868297 0.1906865 0.1942081 0.1970876 0.1990017 0.199857
 0.1999024 0.1995886 0.1992995 0.1992036 0.199308 0.1995832 0.2000142 0.200589 0.2012892 0.202089
 0.2029528 0.2038438 0.2047334 0.2055969 0.2064112 0.2071645 0.2078603 0.2085063 0.2091071 0.2096653
 0.2101788 0.2106436 0.211064 0.2114531 0.2118201 0.2121677 0.2125011 0.2128282 0.2131504 0.2134592
 0.2137428 0.2139939 0.2142175 0.2144285 0.2146392 0.2148526 0.2150674 0.2152839 0.2155013 0.2157203
 0.215945 0.2161757 0.2164037 0.2166201 0.2168275 0.2170349 0.217247 0.2174633 0.2176803 0.2178935
 0.2180988 0.2182975 0.2184926 0.2186852 0.2188758 0.219069 0.2192734 0.2194945 0.2197272 0.2199556
 0.2201692 0.2203754 0.2205892 0.2208126 0.2210377 0.2212624 0.2214911 0.221726 0.2219682 0.2222154
 0.2224517 0.2226522 0.2228112 0.2229561 0.2231286 0.2233502 0.2236042 0.2238521 0.224071 0.2242697
 0.2244672 0.2246686 0.2248661 0.2250505 0.2252232 0.22541 0.225646 0.2259306 0.2262211 0.2264852
 0.2267309 0.2269775 0.2272322 0.2274984 0.2277673 0.2279982 0.2281528 0.2282558 0.2283977 0.228663
 0.229053 0.2294784 0.2298374 0.2301048 0.230332 0.2305824 0.2308852 0.2312076 0.231438 0.231466
 0.2313462 0.2313187 0.2315925 0.2321477 0.2327913 0.2333523 0.2337809 0.2341127 0.2343954 0.2346372
 0.2347986 0.2348404 0.2348059 0.234851 0.2351393 0.2356726 0.2362722 0.2367631 0.2371121 0.2373678
 0.2375684 0.2377408 0.2378549 0.2377572 0.2373348 0.2368159 0.2367124 0.2373185 0.2383723 0.2393324
 0.2399182 0.240254 0.2405542 0.2408635 0.2411201 0.2412163 0.2408866 0.2398528 0.2383648 0.2373538
 0.2376666 0.2392133 0.2411205 0.2426051 0.2434703 0.2439134 0.2441832 0.2444101 0.2445103 0.2441988
 0.2433092 0.2422108 0.2417146 0.2423282 0.243687 0.2449449 0.2456373 0.2459262 0.2461473 0.2464313
 0.2466173 0.246209 0.2446542 0.2421598 0.2401077 0.2400892 0.2423521 0.2455022 0.2478814 0.2489963
 0.249403 0.249488 0.2488938 0.2471646 0.24444 0.2413937 0.2390074 0.2384293 0.240222 0.2434173
 0.2460617 0.2471419 0.247444 0.2482604 0.2498431 0.2514147 0.2521734 0.251913 0.2508839 0.2493545
 0.2474834 0.2457164 0.2450275 0.2462326 0.2489976 0.2519556 0.2539683 0.2549864 0.2554523 0.254968
 0.2520301 0.2458282 0.2384997 0.2345478 0.2368768 0.2437578 0.2506861 0.2548138 0.2565211 0.2573085
 0.2577732 0.2574427 0.2550604 0.2492747 0.2407719 0.2336225 0.2325373 0.2382118 0.2465383 0.2524352
 0.2533091 0.2493397 0.2425783 0.2363369 0.2338329 0.2362395 0.242172 0.2490612 0.2546968 0.257832
 0.258172 0.2562614 0.2534451 0.251539 0.2515181 0.2520816 0.2506368 0.2465729 0.2422797 0.2396429
 0.237128 0.232618 0.2280456 0.2281275 0.2342333 0.2421018 0.246625 0.2470253 0.2459692 0.2447172
 0.2409865 0.232246 0.2204952 0.2123905 0.2134265 0.2222372 0.2318087 0.2363388 0.2358513 0.2341769
 0.2338218 0.2334104 0.2296559 0.2216714 0.2131577 0.2093185 0.2113619 0.2154309 0.2171832 0.2152751
 0.209881 0.2012816 0.1923146 0.1893016 0.1967202 0.2117158 0.2263251 0.2340425 0.2322288 0.2206949
 0.2025714 0.1861656 0.1809417 0.1890764 0.2028285 0.2116515 0.2105816 0.2011672 0.1869434 0.1709558
 0.1571374 0.150807 0.1554876 0.1693023 0.1850595 0.1939008 0.1902182 0.1759563 0.1608673 0.1555119
 0.1617319 0.1714241 0.1756188 0.1726055 0.1666998 0.1626184 0.1627116 0.1666198 0.1717032 0.175494
 0.1776778 0.1774366 0.1707895 0.155415 0.1372086 0.1264456 0.1270892 0.1347366 0.1448603 0.1568635
 0.1686808 0.1739955 0.169355 0.1607273 0.1584424 0.1662366 0.1780253 0.185308 0.1855739 0.1827998
 0.1812686 0.1809469 0.179652 0.1781053 0.1801124 0.1873326 0.1963938 0.2026594 0.2050606 0.2056864
 0.206237 0.2067313 0.2067044 0.2059833 0.2046233 0.2030304 0.2018296 0.2011536 0.2005181 0.1995503
 0.1979776 0.1945548 0.1873299 0.1764172 0.1657659 0.1600624 0.1597919 0.161516 0.1629826 0.1644847
 0.1641551 0.1565723 0.1399281 0.1219575 0.1143132 0.121307 0.1367112 0.1508786 0.1581319 0.1572425
 0.1485472 0.1341844 0.1205162 0.1161556 0.1249147 0.1421267 0.1596529 0.1728958 0.181265 0.1842763
 0.1808071 0.1720172 0.1624921 0.1576395 0.1604315 0.1700764 0.1822065 0.1899316 0.1872215 0.1749467
 0.1636166 0.1656063 0.1820949 0.2010159 0.2106059 0.2113391 0.2111067 0.2129434 0.213535 0.2119278
 0.2130066 0.2208148 0.2325911 0.2414683 0.2425004 0.2346246 0.2199946 0.2044237 0.1958838 0.1981503
 0.2065452 0.213038 0.2140271 0.2099188 0.2003946 0.1863187 0.1747157 0.1745815 0.1864761 0.2012872
 0.21059 0.2143303 0.2170606 0.2200676 0.2198032 0.213266 0.2030019 0.1955344 0.1949093 0.1991509
 0.2036096 0.2058668 0.2057918 0.2027759 0.1961042 0.1880535 0.1839259 0.1874662 0.1970049 0.2070229
 0.2130857 0.2146241 0.2136505 0.2121355 0.2106613 0.2085821 0.2053748 0.2023934 0.2026057 0.2074006
 0.214329 0.2195885 0.2223703 0.2251466 0.229795 0.2350073 0.2378806 0.2370983 0.2341974 0.2322408
 0.2333648 0.2370812 0.2406308 0.241326 0.239097 0.2367898 0.2375471 0.2418067 0.247215 0.2512996
 0.2534958 0.2546536 0.2555802 0.2563338 0.2561931 0.2542139 0.2505799 0.2473943 0.2471953 0.2504324
 0.2550203 0.2584698 0.2598853 0.2598556 0.2591237 0.2578547 0.2560003 0.2539252 0.2524104 0.2520531
 0.2528285 0.2542664 0.2558852 0.2573868 0.2586336 0.259613 0.2603865 0.2610021 0.2614811 0.2618679
 0.2622018 0.2624412 0.2625169 0.2624865 0.2625399 0.2627968 0.2631628 0.2634391 0.2635022 0.2632949
 0.2627188 0.2616799 0.2602385 0.2585859 0.2568356 0.2549539 0.2529962 0.251363 0.250682 0.251336
 0.2531048 0.2552968 0.2572246 0.2585541 0.2592961 0.2596179 0.2597097 0.2597293 0.2597619 0.2598025
 0.2597958 0.259701 0.2595186 0.2592695 0.258973 0.2586557 0.2583643 0.2581432 0.2579945 0.2578706
 0.2577127 0.2574931 0.2572223 0.2569218 0.256593 0.2562063 0.2557159 0.2550877 0.2543209 0.2534514
 0.2525349 0.2516268 0.25076 0.2499242 0.2490633 0.2481071 0.2470011 0.2457122 0.2442471 0.2426922
 0.2411958 0.2398617 0.2386709 0.2375276 0.2363532 0.2351125 0.2337878 0.2323697 0.2308683 0.2293114
 0.2277316 0.2261505 0.2245654 0.2229551 0.2213007 0.2195956 0.2178357 0.2160145 0.2141327 0.2122003
 0.2102106 0.2081089 0.2057904 0.2031345 0.2000402 0.1964389 0.1923094 0.1877113 0.1827999 0.1777861
 0.1728704 0.1682048 0.1638936 0.1600177 0.1566556 0.1538776 0.1517236 0.1502024 0.1493199 0.1490957
 0.1495438 0.150639 0.1523 0.1544019 0.1568058 0.1593753 0.1619653 0.1644262 0.1666591 0.1686748
 0.1705741 0.1724483 0.1742979 0.1760505 0.1776458 0.1790793 0.180365 0.1814917 0.1824429 0.1832356
 0.183912 0.1845047 0.1850261 0.1854764 0.1858487 0.186139 0.1863619 0.1865494 0.186735 0.1869449
 0.1872033 0.1875366 0.1879715 0.1885285 0.1892175 0.1900376 0.190973 0.1919899 0.1930481 0.1941237
 0.1952119 0.1963182 0.1974646 0.198697 0.2000573 0.2015475 0.20313 0.2047497 0.2063444 0.2078493
 0.2092084 0.2103787 0.2113296 0.212054 0.2125818 0.2129703 0.2132748 0.213523 0.2137135 0.213838
 0.213902 0.2139145 0.2138695 0.2137564 0.2135769 0.2133377 0.2130448 0.2127225 0.2124167 0.2121543
 0.2119155 0.211661 0.2113755 0.2110726 0.2107689 0.2104625 0.2101384 0.2097904 0.2094263 0.209053
 0.2086678 0.2082608 0.2078111 0.207283 0.2066448 0.205887 0.2050085 0.2040011 0.2028615 0.2016037
 0.2002425 0.1987795 0.1972161 0.1955687 0.1938625 0.1921077 0.1902795 0.1883375 0.1862888 0.1842211
 0.1822512 0.180439 0.1787639 0.1771691 0.1756133 0.1740911 0.1726243 0.1712317 0.1699134 0.1686615
 0.1674746 0.1663516 0.1652854 0.1642688 0.1633023 0.1623981 0.1615772 0.160853 0.1602184 0.159661
 0.1591811 0.1587812 0.1584537 0.1581943 0.1580102 0.1578938 0.1578056 0.157696 0.1575375 0.157335
 0.1571182 0.1569217 0.15676 0.1566213 0.1564813 0.1563089 0.1560572 0.1556568 0.1550243 0.154087
 0.1528207 0.1512671 0.1495104 0.14765 0.1458022 0.144091 0.1426106 0.1414023 0.1404605 0.139738
 0.1391547 0.1386421 0.1381908 0.1378501 0.1376837 0.1377039 0.1378247 0.1379036 0.1378708 0.1378042
 0.1378585 0.1381404 0.138651 0.1392991 0.1399523 0.1405095 0.1409383 0.1412455 0.1414423 0.1415423
 0.141558 0.1414867 0.1413219 0.1410721 0.1407573 0.1404026 0.1400306 0.1396326 0.1391626 0.138585
 0.1379022 0.1371267 0.1362676 0.1353346 0.1343045 0.1331267 0.1318395 0.1306533 0.1298513 0.1296149
 0.1299379 0.1306494 0.1315295 0.1324491 0.1333472 0.1340578 0.1343473 0.1342778 0.1343975 0.1353367
 0.1371865 0.13939 0.1412484 0.1424249 0.1429459 0.1429123 0.1423747 0.1413825 0.1399635 0.1380914
 0.1357783 0.1331259 0.130244 0.1272481 0.1243403 0.1217355 0.119528 0.1177235 0.1163142 0.1153397
 0.1149181 0.1146775 0.1128099 0.1070269 0.09809434 0.09139433 0.09240465 0.1005464 0.1095944 0.1142587
 0.1143902 0.1127916 0.1113918 0.1104899 0.1100019 0.1100611 0.1107701 0.11198 0.1133189 0.1144002
 0.1150613 0.1153424 0.1152237 0.1144001 0.1122052 0.1078236 0.1009477 0.09237392 0.08373219 0.07652328
 0.07144897 0.06842919 0.06690867 0.06618078 0.06573768 0.06549965 0.06572211 0.06667687 0.06842178 0.07083686
 0.07376488 0.07698336 0.0800958 0.08268296 0.08462913 0.08613756 0.0873874 0.08832926 0.08883029 0.08886166
 0.08851054 0.08791564 0.08721614 0.08648975 0.0856986 0.08472732 0.0835467 0.08235754 0.08148439 0.0810741
 0.08098182 0.0809852 0.08099046 0.08099727 0.08100203 0.08099252 0.08096433 0.08094198 0.08101621 0.08128697
 0.08172688 0.08217814 0.0825059 0.08269514 0.08280565 0.08285876 0.08274442 0.08230883 0.08162741 0.0810404
 0.08071564 0.08033594 0.07950004 0.07833077 0.07740939 0.07714966 0.07744293 0.07787535 0.07810515 0.07803862
 0.07782623 0.07777178 0.07811813 0.07877439</values></Ydata></ScSm><ScRf><Ydata ylabel="Single channel"><values byteorder="INTEL" format="FLOAT32" numvalues="1820"> 0.06081297 0.06096213 0.06104771 0.06107134 0.06105716 0.06105278 0.06111273 0.06126256 0.06147371 0.06167636
 0.06180981 0.06186623 0.06187407 0.06184673 0.06178366 0.06172371 0.06174605 0.06188998 0.06209821 0.06225872
 0.06229866 0.06224712 0.06221479 0.06228455 0.06239694 0.06236755 0.06205966 0.06154426 0.06105547 0.06077413
 0.06071452 0.06086612 0.06131244 0.06200922 0.06253067 0.06237177 0.061581 0.06079967 0.06054942 0.06072931
 0.0609093 0.06083121 0.06049469 0.06005884 0.05987957 0.06041224 0.06176436 0.06332742 0.06399548 0.06286225
 0.0598687 0.05600893 0.0529628 0.05219384 0.05391789 0.0568107 0.05900178 0.05956656 0.0589704 0.05812068
 0.05738848 0.0567214 0.05628054 0.05648851 0.05744687 0.05852889 0.05869957 0.05740621 0.05523743 0.05350401
 0.05303912 0.05367516 0.05494723 0.05660155 0.05788315 0.05712864 0.05340092 0.04856089 0.04643954 0.04919621
 0.05501314 0.05987004 0.06112067 0.0589848 0.05538739 0.05236008 0.05126134 0.05241257 0.05506125 0.05800741
 0.06032287 0.06137731 0.06067513 0.05829377 0.05530807 0.05326694 0.05324124 0.05540413 0.05899356 0.06238099
 0.06381134 0.06269807 0.06001364 0.05726514 0.05550365 0.05532197 0.05700155 0.06022374 0.064051 0.06746501
 0.06977859 0.07071107 0.07045378 0.0695495 0.06847937 0.06757534 0.0672981 0.0679544 0.06895476 0.069041
 0.06765398 0.06568188 0.06454714 0.06473897 0.06542657 0.06546884 0.0645671 0.06308432 0.06092207 0.05749144
 0.05307491 0.04919508 0.04709297 0.04677697 0.04793185 0.05041312 0.05318072 0.0542255 0.05276805 0.05067342
 0.05060397 0.05317706 0.05664121 0.05901583 0.05993128 0.06049148 0.06185285 0.06403748 0.06579438 0.06554677
 0.06295413 0.05978024 0.05864683 0.06046413 0.06355511 0.06571364 0.06653024 0.06715433 0.06828971 0.06910479
 0.0681002 0.06489465 0.06118048 0.05966723 0.06171407 0.06597012 0.06936038 0.06935807 0.06568189 0.06035871
 0.05614731 0.05462901 0.05579115 0.05908794 0.06404531 0.06968974 0.07428904 0.07632175 0.07558021 0.07310036
 0.0699748 0.06633957 0.06192787 0.05773827 0.05624852 0.05907854 0.06491803 0.07061589 0.07398982 0.0749145
 0.07409842 0.07173962 0.06773196 0.0629778 0.05982196 0.06023248 0.06343053 0.06632543 0.06674844 0.0654343
 0.06444195 0.06459036 0.06514364 0.06538609 0.06565431 0.06676593 0.06884308 0.0710002 0.0721954 0.07217462
 0.07151732 0.07096536 0.07075071 0.0704274 0.0695063 0.06843644 0.06854901 0.07059424 0.07370161 0.07627022
 0.07757233 0.07801706 0.07807565 0.07745533 0.07552005 0.07248177 0.06989473 0.06950612 0.07156625 0.07466453
 0.07719332 0.07850805 0.07879087 0.07847157 0.07793166 0.07737745 0.07690342 0.07675718 0.07727914 0.0784111
 0.07958236 0.08028089 0.08047403 0.08034866 0.07994395 0.07923353 0.07839368 0.07780042 0.0777557 0.07826433
 0.07908729 0.07995598 0.08066077 0.08100552 0.08087919 0.08041306 0.07990632 0.07955213 0.07936427 0.07936083
 0.0796285 0.08015183 0.08073018 0.08114585 0.08133753 0.08136874 0.08130166 0.08115485 0.08094838 0.08075278
 0.08068535 0.08082682 0.08112153 0.08141406 0.08162817 0.08184088 0.08211605 0.08234641 0.08236592 0.08217423
 0.0819504 0.08185939 0.08191829 0.0820417 0.0821385 0.08213153 0.08194444 0.08156671 0.08114976 0.08095357
 0.0811402 0.08165686 0.08232725 0.08297639 0.08346111 0.08370216 0.08374479 0.08371341 0.08367106 0.08357734
 0.08339561 0.08319332 0.08312139 0.08329989 0.08370881 0.08419267 0.08458584 0.08481972 0.08491969 0.08496435
 0.08505487 0.08523761 0.0854289 0.08549123 0.08540756 0.08531544 0.08534542 0.08547593 0.08557139 0.08553997
 0.08543535 0.08540168 0.08552515 0.08575697 0.08598607 0.08616167 0.08632523 0.08652811 0.08673282 0.08681976
 0.08671719 0.08650267 0.08632727 0.08625497 0.08624259 0.08626696 0.08638059 0.08660968 0.08686747 0.0870268
 0.08705802 0.08705024 0.08709376 0.08717142 0.08718529 0.08707452 0.08688147 0.08670747 0.08662927 0.08665769
 0.08674677 0.08682612 0.08683938 0.08677354 0.08665907 0.08653858 0.08643763 0.08637438 0.08638988 0.08653373
 0.08678899 0.08702661 0.08708102 0.08689874 0.08660154 0.08638148 0.08632752 0.08636012 0.08633022 0.08616404
 0.08590667 0.08565095 0.08545481 0.0853209 0.08522366 0.08514236 0.08508658 0.08509927 0.08521166 0.08537496
 0.08546096 0.08536833 0.08512437 0.08485555 0.0846678 0.08458091 0.08455621 0.08454791 0.08453974 0.08456029
 0.08464313 0.0847544 0.08480049 0.08473432 0.08461635 0.08455102 0.08460133 0.08476804 0.08499193 0.0851624
 0.08518807 0.08508918 0.08498242 0.08495907 0.08501145 0.08508393 0.08515118 0.08522363 0.08530898 0.08540382
 0.08551849 0.08568407 0.08592118 0.08620581 0.08647265 0.08665876 0.08675532 0.08682467 0.08695942 0.08721001
 0.08754423 0.08787613 0.0881364 0.08832096 0.08847724 0.08864684 0.08883306 0.08903073 0.08926409 0.08956239
 0.08990823 0.09024625 0.09054409 0.09081627 0.09108913 0.09136966 0.0916553 0.09195908 0.09231451 0.09274314
 0.09320605 0.0936036 0.09385455 0.0939776 0.09408055 0.09427488 0.09460245 0.09500904 0.0953688 0.09557533
 0.09564897 0.09572721 0.09591555 0.09617868 0.09641902 0.09663036 0.09691079 0.0973231 0.09779631 0.09819063
 0.09843659 0.09858905 0.0987516 0.09896336 0.09916851 0.09929712 0.09935839 0.0994287 0.0995568 0.09972772
 0.09993176 0.1002136 0.100608 0.1010617 0.1014683 0.1017654 0.1019626 0.1020981 0.1022021 0.1022851
 0.1023354 0.1023451 0.1023508 0.1024117 0.1025294 0.1026326 0.1026691 0.1026753 0.1027281 0.102865
 0.1030811 0.1033657 0.1036952 0.1040146 0.1042841 0.1045435 0.1048724 0.1052676 0.1056088 0.1057837
 0.1058108 0.105794 0.1057945 0.105812 0.1058672 0.1060208 0.1062966 0.106644 0.1069986 0.1073412
 0.1076859 0.1080338 0.1083533 0.1085922 0.1087102 0.1087141 0.1086667 0.1086599 0.108768 0.1090095
 0.1093365 0.1096708 0.1099551 0.1101648 0.1102789 0.1102805 0.1102098 0.1101771 0.1102736 0.1104681
 0.1106231 0.1106132 0.1104064 0.1100345 0.1095278 0.1089061 0.108216 0.1075443 0.1069809 0.1065762
 0.106344 0.1063031 0.1064955 0.1069424 0.107585 0.1082975 0.1089597 0.1094912 0.1098134 0.1098345
 0.1095141 0.1089202 0.1081899 0.1074463 0.1067598 0.1061475 0.1055787 0.1050157 0.104494 0.1041577
 0.1041931 0.1047234 0.1057501 0.1071504 0.1087082 0.1101844 0.1114188 0.11239 0.113182 0.1138903
 0.1145634 0.1152197 0.1158794 0.1165471 0.117184 0.1177372 0.1182017 0.1186229 0.1190393 0.1194465
 0.1198131 0.1201095 0.120334 0.1205252 0.1207282 0.1209289 0.1210507 0.1210409 0.1209337 0.1208033
 0.1206778 0.1205197 0.1202711 0.119905 0.1194609 0.1190605 0.118884 0.1190969 0.119763 0.1208069
 0.1220657 0.1233861 0.1246668 0.1258211 0.126753 0.1274115 0.1278438 0.1281583 0.1284425 0.1287323
 0.1290347 0.1293454 0.1296511 0.1299399 0.1302157 0.1304987 0.1308112 0.1311551 0.1314984 0.1317946
 0.1320304 0.13225 0.1325223 0.1328776 0.133277 0.1336492 0.1339644 0.1342602 0.1345802 0.1349036
 0.1351678 0.1353537 0.1355124 0.135712 0.1359878 0.136338 0.1367248 0.1370789 0.1373422 0.1375192
 0.1376692 0.1378462 0.1380612 0.1382996 0.1385487 0.1388014 0.139051 0.139301 0.1395724 0.1398794
 0.1401936 0.1404537 0.1406268 0.1407496 0.1408928 0.1410909 0.141319 0.1415325 0.1417205 0.1419196
 0.1421754 0.1424887 0.1428047 0.1430606 0.1432389 0.1433716 0.1435038 0.1436629 0.1438546 0.1440701
 0.1442926 0.1445045 0.1446991 0.1448866 0.1450847 0.1453004 0.1455238 0.1457405 0.1459467 0.1461499
 0.1463602 0.1465824 0.1468168 0.1470686 0.1473474 0.1476474 0.1479336 0.1481642 0.1483295 0.1484556
 0.1485756 0.1487079 0.1488593 0.1490317 0.1492215 0.1494216 0.149627 0.1498345 0.1500414 0.1502471
 0.1504541 0.1506648 0.1508774 0.1510871 0.1512941 0.1515076 0.1517399 0.1519895 0.152236 0.1524552
 0.1526419 0.1528126 0.1529894 0.1531807 0.1533783 0.1535696 0.1537519 0.1539328 0.1541199 0.1543123
 0.1545022 0.1546852 0.1548661 0.1550539 0.1552526 0.1554591 0.1556673 0.1558721 0.1560693 0.1562586
 0.156446 0.1566374 0.156832 0.1570271 0.1572247 0.1574273 0.1576321 0.157836 0.1580414 0.1582508
 0.1584594 0.1586594 0.1588499 0.15904 0.1592372 0.1594393 0.1596395 0.1598376 0.1600383 0.1602413
 0.1604413 0.160636 0.160828 0.1610212 0.1612202 0.1614282 0.1616411 0.1618495 0.1620508 0.1622525
 0.1624647 0.1626922 0.162932 0.1631734 0.163405 0.1636241 0.1638374 0.1640518 0.1642658 0.1644693
 0.1646511 0.1648126 0.1649707 0.1651423 0.1653283 0.1655168 0.1656985 0.1658736 0.1660491 0.1662325
 0.1664273 0.1666321 0.1668431 0.1670533 0.1672534 0.1674421 0.1676292 0.1678222 0.1680181 0.168215
 0.1684183 0.1686289 0.1688381 0.1690405 0.1692421 0.1694539 0.1696799 0.16991 0.1701274 0.1703271
 0.1705237 0.1707316 0.1709488 0.1711656 0.171378 0.1715863 0.1717935 0.1720049 0.1722199 0.1724307
 0.1726345 0.1728375 0.1730438 0.1732524 0.1734622 0.173672 0.1738805 0.1740907 0.1743035 0.1745123
 0.1747175 0.1749335 0.1751672 0.1754047 0.1756328 0.1758519 0.1760629 0.1762642 0.1764594 0.176654
 0.1768494 0.177049 0.1772533 0.1774442 0.1775731 0.1775199 0.1769958 0.1754447 0.1720312 0.1658054
 0.1560832 0.1428859 0.127087 0.1100955 0.09333445 0.07788156 0.06438196 0.0531306 0.04419179 0.03747792
 0.03281972 0.03007921 0.02925238 0.03056298 0.03456606 0.04182003 0.0516643 0.06114122 0.0661488 0.06467681
 0.05872707 0.05248908 0.04885966 0.04804365 0.04880336 0.05008171 0.05154265 0.05337606 0.05590886 0.05923311
 0.06319559 0.06780171 0.07339977 0.08023541 0.08793747 0.09568128 0.102895 0.1097052 0.1166582 0.1240714
 0.1317016 0.1389827 0.1454757 0.1510889 0.1559958 0.1604412 0.1646 0.1685489 0.1723124 0.1758775
 0.1791278 0.1818014 0.1836041 0.1844301 0.1844865 0.1841844 0.1838931 0.1837877 0.1838863 0.1841601
 0.1845824 0.1851287 0.1857805 0.1865212 0.187319 0.1881331 0.1889381 0.1897292 0.1905017 0.1912411
 0.1919299 0.1925575 0.1931271 0.1936528 0.1941441 0.1945978 0.1950099 0.1953859 0.1957372 0.1960746
 0.1964045 0.196723 0.1970166 0.1972775 0.1975125 0.1977349 0.197954 0.198173 0.1983905 0.1986051
 0.1988214 0.1990441 0.1992675 0.1994809 0.1996839 0.1998866 0.2000939 0.2003011 0.2005025 0.2006971
 0.2008881 0.2010806 0.2012755 0.201467 0.201652 0.201838 0.2020346 0.2022379 0.2024338 0.2026153
 0.2027915 0.2029782 0.2031792 0.2033831 0.2035812 0.2037815 0.2039968 0.2042234 0.2044462 0.2046569
 0.2048576 0.2050542 0.2052554 0.2054694 0.2056902 0.2058961 0.2060713 0.206225 0.2063878 0.2065864
 0.2068174 0.2070494 0.2072572 0.2074472 0.2076396 0.2078394 0.2080344 0.2082129 0.208377 0.2085492
 0.2087595 0.2090127 0.2092797 0.2095341 0.2097763 0.2100151 0.2102522 0.2104905 0.2107262 0.2109313
 0.2110772 0.2111845 0.2113289 0.211582 0.2119417 0.2123253 0.2126427 0.2128765 0.2130786 0.2133074
 0.2135878 0.2138903 0.2141122 0.2141472 0.2140404 0.2140163 0.2142742 0.2147928 0.2153828 0.2158836
 0.2162599 0.216555 0.2168112 0.2170273 0.2171622 0.2171819 0.2171312 0.2171567 0.2174091 0.2178895
 0.2184347 0.2188858 0.2192155 0.219469 0.2196783 0.2198593 0.2199744 0.2198752 0.219457 0.2189402
 0.2188132 0.2193605 0.2203434 0.2212573 0.2218315 0.2221655 0.2224467 0.2227185 0.2229342 0.223002
 0.222681 0.2217174 0.220345 0.2194241 0.2197317 0.2211777 0.2229509 0.2243298 0.2251337 0.2255403
 0.2257776 0.2259772 0.2260762 0.2258122 0.2250171 0.224019 0.2235685 0.2241453 0.2254172 0.2265949
 0.2272426 0.2275165 0.2277386 0.2280282 0.2282208 0.2278422 0.2263804 0.2240425 0.2221316 0.2221352
 0.2242733 0.2272314 0.2294603 0.2305085 0.230902 0.231 0.2304642 0.2288685 0.2263452 0.2235243
 0.2213195 0.2207971 0.2224765 0.2254542 0.2279167 0.2289316 0.2292363 0.230027 0.2315247 0.2329976
 0.2337052 0.2334745 0.2325533 0.2311836 0.2294873 0.227863 0.2272264 0.2283568 0.2309513 0.2337295
 0.2356193 0.2365734 0.237013 0.2365709 0.2338383 0.2280592 0.2212427 0.2175998 0.2198245 0.2262791
 0.232754 0.2366048 0.2382014 0.2389515 0.2394145 0.2391455 0.2369609 0.2315874 0.2236671 0.2170156
 0.2160402 0.2213802 0.2291876 0.2347214 0.2355697 0.2319001 0.2256233 0.2198339 0.2175419 0.219846
 0.2254524 0.2319527 0.2372716 0.2402454 0.2406094 0.2388761 0.2362996 0.2345781 0.2346208 0.235199
 0.2338834 0.2301149 0.2261398 0.2237216 0.221427 0.2172864 0.213113 0.2133058 0.2191194 0.2265492
 0.2308286 0.2312667 0.2303777 0.2293173 0.2259092 0.2177728 0.2068163 0.1993307 0.2004883 0.2089716
 0.2181496 0.2225756 0.2223194 0.2210194 0.2210314 0.2210238 0.2178451 0.2106317 0.2029117 0.1996509
 0.2019775 0.2061772 0.2081009 0.2064767 0.2014666 0.193339 0.1848564 0.1821516 0.1895702 0.2043698
 0.218858 0.2267243 0.2253685 0.2145523 0.1973021 0.1817622 0.1772402 0.185877 0.2000471 0.2093661
 0.2089394 0.2002667 0.1868101 0.1716109 0.1586831 0.1534828 0.1596615 0.1753476 0.1931284 0.2037199
 0.2011154 0.187284 0.1726153 0.1684543 0.176757 0.1887084 0.1945769 0.19254 0.1873318 0.1841676
 0.1857395 0.1916834 0.1989584 0.2047211 0.2086018 0.2094857 0.2024549 0.1846923 0.1633077 0.1506502
 0.1514894 0.1605902 0.1725746 0.1867464 0.2006325 0.2066829 0.2007743 0.1900036 0.1866328 0.195075
 0.2081264 0.2157813 0.2151357 0.2109127 0.2081839 0.2069784 0.2047948 0.2024267 0.2041804 0.2119205
 0.221806 0.2285809 0.2310475 0.2315841 0.2321205 0.2326739 0.2327088 0.232021 0.2306689 0.2291189
 0.2281008 0.2277871 0.2276303 0.2271883 0.226118 0.222942 0.2153633 0.2035004 0.1919351 0.1860768
 0.1864266 0.1889719 0.1911536 0.1933532 0.1933215 0.1846127 0.1650981 0.1439516 0.1349683 0.1432326
 0.1613374 0.1778365 0.1860067 0.1844218 0.1735529 0.1559964 0.1391951 0.1330799 0.1419673 0.1604291
 0.1791004 0.1927397 0.2007879 0.2028884 0.1979344 0.187277 0.1759744 0.1698821 0.1721012 0.1816384
 0.193728 0.2010328 0.197242 0.1833641 0.1704789 0.1715391 0.1877738 0.2066246 0.2158636 0.2159659
 0.2150935 0.2164025 0.2165056 0.2144274 0.2151664 0.2228665 0.2347445 0.2438397 0.2451281 0.2375111
 0.2231722 0.2080648 0.2003487 0.2038089 0.2134821 0.2209947 0.222631 0.2188354 0.2092746 0.1948938
 0.1831328 0.1834593 0.1964083 0.2123385 0.2223903 0.226556 0.2296633 0.2330533 0.2329454 0.2261608
 0.2154322 0.2077223 0.2073418 0.2121893 0.217332 0.2202149 0.2206793 0.2180079 0.211374 0.2032106
 0.1992446 0.2035215 0.214202 0.2252512 0.2318075 0.2332238 0.2316855 0.2293629 0.2269376 0.2237603
 0.2193035 0.2150467 0.2141859 0.2182201 0.2245666 0.2292178 0.2313293 0.2334983 0.2376907 0.2425424
 0.2450233 0.2437416 0.2402644 0.2377454 0.2383879 0.2416933 0.2448354 0.2450751 0.242369 0.239658
 0.2401646 0.2443216 0.2497107 0.2538086 0.2560402 0.257263 0.258292 0.2591841 0.2591929 0.2573333
 0.2537771 0.2506709 0.2506185 0.2541004 0.2590151 0.2628533 0.26473 0.2652505 0.2651245 0.2644243
 0.2629915 0.2611069 0.2595133 0.2588246 0.2590846 0.259916 0.2609154 0.2618292 0.2625344 0.2630201
 0.2633476 0.2635626 0.2636784 0.2637398 0.2638032 0.2638409 0.2637734 0.2636377 0.2636188 0.2638394
 0.2641911 0.2644473 0.264476 0.2642491 0.2637112 0.2627845 0.2615088 0.2600486 0.2585091 0.2568546
 0.2551245 0.2536997 0.2532108 0.2540697 0.256085 0.2585682 0.2608061 0.262426 0.2634076 0.2639052
 0.2641079 0.2641732 0.2641845 0.2641444 0.2640212 0.2638032 0.2635065 0.2631527 0.2627599 0.2623588
 0.2619959 0.2617021 0.2614569 0.2611938 0.260847 0.2603928 0.2598566 0.2592885 0.2587246 0.2581542
 0.2575242 0.2567819 0.2559181 0.2549763 0.2540328 0.2531568 0.2523654 0.251613 0.2508389 0.250014
 0.2491238 0.2481292 0.2470048 0.245823 0.244744 0.2438842 0.2432161 0.2426143 0.2419664 0.2412165
 0.240348 0.2393738 0.2383328 0.2372601 0.2361607 0.2350224 0.2338366 0.2325933 0.2312715 0.2298494
 0.2283205 0.2267047 0.2250474 0.2233936 0.2217377 0.2199989 0.2180465 0.2157419 0.2129644 0.2096308
 0.2057198 0.201292 0.1964903 0.1915161 0.1865834 0.1818758 0.1775327 0.1736574 0.1703252 0.1675909
 0.1654986 0.164082 0.1633571 0.1633262 0.1639873 0.1653226 0.1672696 0.1697104 0.1724937 0.1754621
 0.1784608 0.181338 0.1839789 0.1863624 0.1885638 0.1906656 0.1926703 0.1945171 0.1961595 0.1975927
 0.1988239 0.1998575 0.2007107 0.2014178 0.2020118 0.202512 0.2029291 0.2032769 0.2035727 0.2038257
 0.2040347 0.2042053 0.2043638 0.2045444 0.2047643 0.2050178 0.2052935 0.2055972 0.2059585 0.2064051
 0.2069281 0.2074852 0.2080438 0.2086062 0.2091901 0.2098114 0.2104969 0.2112971 0.2122638 0.2134108
 0.2147012 0.2160713 0.2174562 0.21879 0.2199938 0.2209901 0.2217326 0.2222177 0.2224719 0.2225381
 0.222465 0.2222875 0.2220141 0.2216405 0.2211734 0.2206367 0.2200577 0.2194527 0.2188255 0.2181712
 0.2174837 0.216766 0.2160377 0.2153257 0.2146434 0.213984 0.2133392 0.2127117 0.2121063 0.2115196
 0.2109467 0.2103857 0.2098332 0.2092819 0.2087226 0.208138 0.2074967 0.2067638 0.205922 0.204976
 0.2039396 0.2028241 0.2016367 0.2003794 0.1990452 0.197621 0.1961018 0.1945007 0.1928383 0.191119
 0.1893201 0.1874133 0.1854057 0.1833605 0.1813706 0.1795097 0.1778024 0.176224 0.1747284 0.1732886
 0.171917 0.170636 0.1694392 0.1682988 0.1671999 0.1661436 0.1651306 0.1641622 0.1632531 0.1624265
 0.1616985 0.1610696 0.1605262 0.1600529 0.1596472 0.1593153 0.1590616 0.1588968 0.1588381 0.1588731
 0.1589361 0.1589488 0.1588809 0.1587582 0.1586263 0.1585167 0.1584375 0.1583837 0.1583453 0.1582932
 0.158161 0.1578568 0.1572924 0.1564058 0.1551806 0.1536572 0.1519165 0.1500636 0.1482284 0.1465444
 0.1451004 0.1439279 0.1430277 0.1423679 0.1418726 0.1414676 0.1411435 0.1409538 0.140957 0.1411503
 0.141427 0.1416278 0.1416881 0.1417163 0.1418928 0.142314 0.1429451 0.1436718 0.1443754 0.1449887
 0.1454956 0.1458871 0.1461507 0.1462954 0.1463412 0.1462933 0.1461584 0.1459594 0.1457085 0.1453994
 0.1450319 0.1446058 0.1441092 0.1435428 0.1429188 0.1422213 0.1414184 0.1405023 0.1394663 0.1382945
 0.1370552 0.1359574 0.1352508 0.1350905 0.1354782 0.1362672 0.1372541 0.138315 0.1393732 0.1402255
 0.140611 0.1406047 0.140793 0.1418434 0.1438721 0.1463166 0.1484388 0.1498632 0.1506014 0.1507421
 0.1503184 0.1493748 0.1479385 0.1459668 0.1434696 0.140594 0.1375123 0.1343716 0.1313698 0.1287009
 0.1264395 0.124585 0.1231303 0.1221177 0.1216889 0.1214861 0.1196112 0.1136209 0.1043088 0.09737778
 0.09861755 0.1073783 0.1170428 0.1220139 0.1221539 0.1204523 0.1189589 0.1179735 0.1174026 0.1174206
 0.1181614 0.1194458 0.1208574 0.1220143 0.1227861 0.1232131 0.1232227 0.1224252 0.1200711 0.1153066
 0.1078624 0.09864227 0.08940811 0.08175358 0.07639558 0.07321057 0.0715905 0.07078867 0.07027759 0.06999788
 0.07025413 0.07134061 0.0732892 0.07594237 0.0791148 0.08255679 0.08586247 0.08864123 0.09081262 0.09257744
 0.09407362 0.09519561 0.0957693 0.09577279 0.09534503 0.09467165 0.09390762 0.09313276 0.092301 0.09127358
 0.09001426 0.08875545 0.08785401 0.08745354 0.08738758 0.08741457 0.08742326 0.08740629 0.08736821 0.08730158
 0.08720291 0.08711724 0.08716698 0.08746165 0.08795978 0.08847976 0.08885193 0.08903277 0.08909273 0.08908294
 0.08888843 0.08832271 0.08745788 0.08667159 0.08616653 0.08562942 0.08464678 0.08334231 0.08231761 0.08199894
 0.08225767 0.08264463 0.08279952 0.08263175 0.08231102 0.08217666 0.08249688 0.08315718 0.08366895 0.08363136
</values></Ydata></ScRf><Data_Parameters_AB><parameter name="DPF">1</parameter><parameter name="NPT">3497</parameter><parameter name="FXV">3996</parameter><parameter name="LXV">500</parameter><parameter name="CSF">1</parameter><parameter name="MXY">0.0762785449624062</parameter><parameter name="MNY">-0.056635707616806</parameter><parameter name="DAT">02/06/2022</parameter><parameter name="TIM">13:39:47.943 (GMT+2)</parameter><parameter name="DXU">WN</parameter></Data_Parameters_AB><AB__Qtest><MainReport name="Quality Test Report"><Header><Line><Legend>Test result ok/not ok [1/0]: </Legend><Value>0</Value></Line><Line><Legend>Method file: </Legend><Value>C:\Users\Public\Documents\Bruker\OPUS_8.2.28\QT\IRBT_v3_default.QT</Value></Line></Header><Matrix><Line><Legend></Legend><Legend>min</Legend><Legend>max</Legend><Legend>measured</Legend></Line><Line><Value>Absorption (X-Range 1):</Value><Value>0.400000</Value><Value>2.000000</Value><Value>0.110451</Value></Line><Line><Value>Noise (X-Range 4):</Value><Value></Value><Value>0.000300</Value><Value>0.000057</Value></Line><Line><Value>Signal/Noise (X-Range 2):</Value><Value>200.000000</Value><Value></Value><Value>52.382052</Value></Line><Line><Value>Signal/Noise (X-Range 3):</Value><Value>40.000000</Value><Value></Value><Value>20.743039</Value></Line><Line><Value>Water vapour (X-Range 5):</Value><Value></Value><Value>0.000300</Value><Value>0.000057</Value></Line><Line><Value>Signal/Water (X-Range 2):</Value><Value>100.000000</Value><Value></Value><Value>51.684690</Value></Line><Line><Value>Signal/Water (X-Range 3):</Value><Value>20.000000</Value><Value></Value><Value>20.466887</Value></Line><Line><Value>Fringes (X-Range 6):</Value><Value></Value><Value>0.000100</Value><Value>0.000074</Value></Line></Matrix></MainReport></AB__Qtest><Data_Parameters_ScSm><parameter name="DPF">1</parameter><parameter name="NPT">1814</parameter><parameter name="FXV">3996.33169228125</parameter><parameter name="LXV">499.541461535156</parameter><parameter name="CSF">1</parameter><parameter name="MXY">0.263502240180969</parameter><parameter name="MNY">0.0323193967342377</parameter><parameter name="DAT">02/06/2022</parameter><parameter name="TIM">13:39:47.943 (GMT+2)</parameter><parameter name="DXU">WN</parameter></Data_Parameters_ScSm><Data_Parameters_ScRf><parameter name="DPF">1</parameter><parameter name="NPT">1820</parameter><parameter name="FXV">4004.04661832813</parameter><parameter name="LXV">495.683998511719</parameter><parameter name="CSF">1</parameter><parameter name="MXY">0.265250474214554</parameter><parameter name="MNY">0.0292523764073849</parameter><parameter name="DAT">02/06/2022</parameter><parameter name="TIM">13:39:22.089 (GMT+2)</parameter><parameter name="DXU">WN</parameter></Data_Parameters_ScRf><Optic_Parameters_Rf><parameter name="APR">0</parameter><parameter name="APT">Open</parameter><parameter name="BMS">KBr</parameter><parameter name="DTC">RT-DLaTGS_IR-Biotyper [Microplate reader]</parameter><parameter name="HPF">0</parameter><parameter name="LPF">10.0</parameter><parameter name="LPV">4000</parameter><parameter name="PGR">0</parameter><parameter name="RCH">Module port</parameter><parameter name="RDX">0</parameter><parameter name="SRC">MIR</parameter><parameter name="VEL">10.0</parameter><parameter name="SON">Off</parameter></Optic_Parameters_Rf><Acquisition_Parameters_Rf><parameter name="ADT">1</parameter><parameter name="AQM">DD</parameter><parameter name="CFE">0</parameter><parameter name="COR">0</parameter><parameter name="DEL">0</parameter><parameter name="DLY">0</parameter><parameter name="HFW">8000</parameter><parameter name="LFW">0</parameter><parameter name="NSR">32</parameter><parameter name="PLF">AB</parameter><parameter name="RES">6</parameter><parameter name="RGN">-1</parameter><parameter name="STR">0</parameter><parameter name="TCL">MakeCompatibleScalar (0, {WSV=1.000000, ARV=0});</parameter><parameter name="TDL">37</parameter><parameter name="RPO">0</parameter></Acquisition_Parameters_Rf><FT_-_Parameters_Rf><parameter name="APF">B3</parameter><parameter name="HFQ">500</parameter><parameter name="LFQ">4000</parameter><parameter name="NLI">0</parameter><parameter name="PHR">24</parameter><parameter name="PHZ">ML</parameter><parameter name="SPZ">NO</parameter><parameter name="ZFF">1</parameter></FT_-_Parameters_Rf><Optic_Parameters_><parameter name="APR">0</parameter><parameter name="APT">Open</parameter><parameter name="BMS">KBr</parameter><parameter name="CHN">Module port</parameter><parameter name="DTC">RT-DLaTGS_IR-Biotyper [Microplate reader]</parameter><parameter name="HPF">0</parameter><parameter name="LPF">10.0</parameter><parameter name="LPV">4000</parameter><parameter name="PGN">0</parameter><parameter name="RDX">0</parameter><parameter name="SRC">MIR</parameter><parameter name="VEL">10.0</parameter><parameter name="SON">Off</parameter></Optic_Parameters_><FT_-_Parameters_><parameter name="APF">B3</parameter><parameter name="HFQ">500</parameter><parameter name="LFQ">4000</parameter><parameter name="NLI">0</parameter><parameter name="PHR">24</parameter><parameter name="PHZ">ML</parameter><parameter name="SPZ">NO</parameter><parameter name="ZFF">1</parameter></FT_-_Parameters_><Acquisition_Parameters_><parameter name="ADT">1</parameter><parameter name="AQM">DD</parameter><parameter name="CFE">0</parameter><parameter name="COR">0</parameter><parameter name="DEL">0</parameter><parameter name="DLY">0</parameter><parameter name="HFW">8000</parameter><parameter name="LFW">0</parameter><parameter name="NSS">32</parameter><parameter name="PLF">AB</parameter><parameter name="RES">6</parameter><parameter name="SOT">0</parameter><parameter name="TCL">MakeCompatibleScalar (0, {WSV=1.000000, ARV=0});</parameter><parameter name="TDL">37</parameter><parameter name="SPO">0</parameter><parameter name="SGN">-1</parameter></Acquisition_Parameters_><Instrument_Parameters_Rf><parameter name="HFL">15800.168544</parameter><parameter name="LFL">0</parameter><parameter name="LWN">15800.168544</parameter><parameter name="ABP">32197</parameter><parameter name="SSP">1</parameter><parameter name="ARG">2</parameter><parameter name="ASG">2</parameter><parameter name="ASS">32</parameter><parameter name="GFW">16</parameter><parameter name="GBW">16</parameter><parameter name="BFW">0</parameter><parameter name="BBW">0</parameter><parameter name="PKA">7270</parameter><parameter name="PKL">4996</parameter><parameter name="PRA">7455</parameter><parameter name="PRL">5001</parameter><parameter name="P2A">1</parameter><parameter name="P2L">1</parameter><parameter name="P2R">1</parameter><parameter name="P2K">1</parameter><parameter name="DAQ">0</parameter><parameter name="AG2">1</parameter><parameter name="SSM">1</parameter><parameter name="RSN">26237</parameter><parameter name="CRR">0</parameter><parameter name="SRT">1654177162.09</parameter><parameter name="DUR">19.6389923095703</parameter><parameter name="TSC">29.2</parameter><parameter name="MVD">0.363407403230667</parameter><parameter name="AN1">0.225829995201458</parameter><parameter name="AN2">0</parameter><parameter name="VSN">2.485 Apr  4 2017</parameter><parameter name="SRN">0085</parameter><parameter name="CAM">0</parameter><parameter name="INS">IR-Biotyper</parameter><parameter name="FOC">69</parameter><parameter name="RDY">1</parameter><parameter name="ARS">32</parameter></Instrument_Parameters_Rf><Sample_Parameters_><parameter name="BLD"></parameter><parameter name="CNM">Admin</parameter><parameter name="CPY"></parameter><parameter name="DPM"></parameter><parameter name="EXP">IRBT_v3_32Scans.XPM</parameter><parameter name="LCT"></parameter><parameter name="SFM">Microplate, HTS-XT</parameter><parameter name="SNM">220602-1248_CLA33F (D_21)_D6_2a36232b-bdcc-4b98-94ea-0a02cb273c9b.0</parameter><parameter name="XPP">C:\Users\Public\Documents\Bruker\OPUS_8.2.28\XPM</parameter><parameter name="IST">OK</parameter><parameter name="CPG">1252</parameter><parameter name="UID">464ac201-d961-4aab-ae9f-0f2d7500fbfa</parameter></Sample_Parameters_><Instrument_Parameters_><parameter name="HFL">15800.168544</parameter><parameter name="LFL">0</parameter><parameter name="LWN">15800.168544</parameter><parameter name="ABP">32197</parameter><parameter name="SSP">1</parameter><parameter name="ASG">2</parameter><parameter name="ARG">2</parameter><parameter name="ASS">32</parameter><parameter name="GFW">16</parameter><parameter name="GBW">16</parameter><parameter name="BFW">0</parameter><parameter name="BBW">0</parameter><parameter name="PKA">7385</parameter><parameter name="PKL">4988</parameter><parameter name="PRA">7679</parameter><parameter name="PRL">4993</parameter><parameter name="P2A">1</parameter><parameter name="P2L">1</parameter><parameter name="P2R">1</parameter><parameter name="P2K">1</parameter><parameter name="DAQ">0</parameter><parameter name="AG2">1</parameter><parameter name="SSM">1</parameter><parameter name="RSN">13744</parameter><parameter name="CRR">0</parameter><parameter name="SRT">1654177187.943</parameter><parameter name="DUR">19.6389923095703</parameter><parameter name="TSC">29.2</parameter><parameter name="MVD">0.244052335619926</parameter><parameter name="AN1">0.225828698125098</parameter><parameter name="AN2">0</parameter><parameter name="VSN">2.485 Apr  4 2017</parameter><parameter name="SRN">0085</parameter><parameter name="CAM">0</parameter><parameter name="INS">IR-Biotyper</parameter><parameter name="FOC">69</parameter><parameter name="RDY">1</parameter></Instrument_Parameters_><History/></OPUSDataFile>
