<?xml version="1.0" encoding="UTF-8" ?>
<OPUSDataFile><AB><Ydata ylabel="Absorbance Units"><values byteorder="INTEL" format="FLOAT32" numvalues="3497"> 0.02458836 0.02459224 0.02461107 0.02464522 0.02468976 0.02474443 0.02479786 0.02484925 0.02488539 0.02490612
 0.02490251 0.02487725 0.02483379 0.02477722 0.02472159 0.02466879 0.02462976 0.02459949 0.02457684 0.02455615
 0.0245307 0.02450394 0.02447392 0.02445196 0.02444182 0.02445093 0.02448357 0.02453328 0.02460133 0.02466838
 0.02473318 0.02477458 0.02479137 0.02477507 0.02472673 0.02465706 0.02456862 0.02448203 0.02439821 0.02433197
 0.02428126 0.02424914 0.024232 0.02422554 0.02422676 0.0242307 0.02423558 0.02423815 0.02423869 0.02423592
 0.02423267 0.02422908 0.02423006 0.0242373 0.02425157 0.02427433 0.02429673 0.0243185 0.02432596 0.02431834
 0.02428889 0.0242381 0.02417064 0.02408809 0.02400181 0.02391339 0.02383429 0.02376552 0.02371615 0.02368384
 0.0236704 0.02366894 0.02367148 0.02367562 0.02367296 0.02367665 0.02369036 0.02372904 0.02380405 0.02390136
 0.02402466 0.02413222 0.02421802 0.02425166 0.02422814 0.02414951 0.02401556 0.02384875 0.02365114 0.02345404
 0.02326137 0.0231132 0.02301151 0.02299039 0.02303722 0.02314295 0.02328497 0.02341872 0.02353784 0.02361303
 0.02365961 0.02367845 0.02368976 0.02370743 0.02373442 0.02377934 0.02382088 0.02385606 0.02386365 0.02383707
 0.02378383 0.02370211 0.02362684 0.02355994 0.02352839 0.02353079 0.02355257 0.0235884 0.02359626 0.02357598
 0.02350094 0.02338259 0.02323292 0.02306829 0.0229242 0.02280322 0.02272537 0.02267852 0.02265696 0.0226588
 0.02268112 0.02272544 0.02279911 0.02286996 0.02293634 0.02294464 0.02288305 0.02273454 0.02248997 0.02222314
 0.02193699 0.02180621 0.02183241 0.02208189 0.02252277 0.02297492 0.02342569 0.02372711 0.02390097 0.02392589
 0.02382882 0.02363888 0.02339351 0.02314308 0.02292717 0.0228013 0.02276305 0.0228397 0.02296812 0.02313212
 0.02327643 0.02337725 0.02343979 0.02345968 0.02346147 0.02344841 0.02342165 0.02338149 0.02332097 0.02324114
 0.02315635 0.02306991 0.02301182 0.02298142 0.02299384 0.02304257 0.02311918 0.02321797 0.02332699 0.02343882
 0.02354241 0.02362576 0.02367399 0.02368478 0.02364937 0.02358175 0.0234841 0.02337307 0.02325454 0.02313223
 0.02300749 0.02288116 0.02275171 0.02264211 0.02255344 0.02252157 0.02254675 0.02263775 0.02278987 0.02297733
 0.02319396 0.02340361 0.0236008 0.0237533 0.02385982 0.02390008 0.02388515 0.02381553 0.02371606 0.0236054
 0.02350782 0.02344481 0.02341986 0.02344388 0.02349427 0.0235703 0.02363677 0.02368751 0.0236988 0.023666
 0.023593 0.02347944 0.02335109 0.02320984 0.02308971 0.02299155 0.02294004 0.02293045 0.02295929 0.02301792
 0.02308185 0.02314742 0.02319612 0.02323038 0.02324747 0.0232456 0.02322552 0.0231755 0.02308865 0.02295806
 0.02277409 0.0225569 0.02230461 0.02206301 0.02183964 0.02166721 0.02155146 0.0214926 0.0214908 0.0215575
 0.02169279 0.02190465 0.02218442 0.02247639 0.0227705 0.02299264 0.0231494 0.02321603 0.02321344 0.02316504
 0.02309355 0.02304088 0.02300637 0.02300875 0.02302496 0.02304553 0.02305677 0.02304804 0.02302528 0.02298524
 0.0229498 0.02292138 0.02292352 0.02296078 0.02302836 0.02312688 0.02321626 0.02329441 0.02332084 0.02329844
 0.02322382 0.02310945 0.0230025 0.0229149 0.0229114 0.02297309 0.02310236 0.02326115 0.02339555 0.02350155
 0.02355006 0.02357011 0.02356978 0.02357653 0.02360784 0.02366063 0.02374162 0.02382149 0.0238955 0.02394514
 0.02396546 0.02397315 0.0239684 0.02399409 0.02405114 0.0241595 0.02431152 0.02446023 0.02459932 0.02467328
 0.02469195 0.02465321 0.0245685 0.02445803 0.02432765 0.02419046 0.02405573 0.02393413 0.02383678 0.02377491
 0.02374823 0.02375861 0.02380624 0.02388887 0.02402172 0.02421014 0.024445 0.02472921 0.02501466 0.02529835
 0.02554635 0.02575846 0.02593679 0.02608221 0.02620235 0.02629588 0.02635967 0.02639545 0.02640433 0.0263932
 0.02637476 0.02635526 0.02634552 0.02635564 0.02639504 0.02648023 0.02663026 0.02683094 0.02708963 0.02735436
 0.0276096 0.02783192 0.02801082 0.02816232 0.02828651 0.02840446 0.02851783 0.02863168 0.02874549 0.0288458
 0.02893229 0.02899272 0.02903448 0.02907762 0.02913903 0.02928119 0.02950007 0.0298324 0.03022733 0.03063236
 0.03101266 0.0313079 0.03153798 0.03169297 0.03181376 0.03191577 0.03202512 0.03215599 0.03230194 0.03246494
 0.03262921 0.03279123 0.03296115 0.03313892 0.03335334 0.03360483 0.03389844 0.0342295 0.03456288 0.03489609
 0.03519727 0.03547321 0.03572637 0.0359636 0.03620061 0.03643647 0.03667696 0.03691777 0.0371577 0.03739086
 0.03761411 0.03782044 0.03800242 0.03817145 0.03832265 0.03850094 0.03871396 0.03899635 0.03935907 0.03975737
 0.04019032 0.04057088 0.04089686 0.04113973 0.04130583 0.04143189 0.04152418 0.04163076 0.04174922 0.04190008
 0.04207204 0.04225334 0.04243458 0.04259449 0.04274011 0.04286447 0.04299492 0.04314628 0.04333927 0.0435943
 0.04388816 0.04422281 0.04455329 0.04486942 0.04515343 0.04540018 0.04562039 0.04581415 0.04599988 0.04617843
 0.04636445 0.04655859 0.04677252 0.04700699 0.04727278 0.047568 0.04789641 0.04824769 0.04860722 0.04895767
 0.04926805 0.04953276 0.04972909 0.04987881 0.04998542 0.05008071 0.05018226 0.05029799 0.05043799 0.05058092
 0.05072387 0.0508514 0.05095823 0.05106731 0.05117912 0.05133686 0.05154153 0.0518038 0.05211775 0.05243922
 0.05276192 0.05303031 0.0532515 0.05341326 0.0535344 0.05364666 0.05376138 0.05391198 0.05408823 0.05429654
 0.05451197 0.05472007 0.05490418 0.05504897 0.05516503 0.05524797 0.05533141 0.05542044 0.05554479 0.05571041
 0.0559194 0.05617325 0.05644671 0.05673826 0.05701597 0.05727915 0.05750809 0.05770417 0.05786196 0.05798538
 0.05808073 0.05815596 0.05822898 0.05830683 0.05840952 0.05853154 0.05867736 0.05883218 0.05898475 0.05913529
 0.05927689 0.05943025 0.05960231 0.05979824 0.06002495 0.06025146 0.06047456 0.06067035 0.06083513 0.06099836
 0.06116216 0.06138014 0.06165029 0.06198161 0.06236201 0.06274022 0.06310707 0.06340481 0.0636417 0.06380304
 0.06390945 0.06398429 0.06404015 0.06410133 0.06416077 0.06422184 0.06427301 0.06430639 0.06432842 0.06433619
 0.06435271 0.06438171 0.06444255 0.06453922 0.06467337 0.06484614 0.06503956 0.06525248 0.06545755 0.06565534
 0.06583661 0.06600817 0.06619737 0.06640957 0.06668074 0.06699815 0.06735939 0.06773536 0.06808374 0.06838583
 0.06860245 0.06874485 0.06880434 0.06881039 0.06877321 0.06871817 0.06865449 0.06860002 0.06855885 0.06854804
 0.06857055 0.06863526 0.06874378 0.06888506 0.06905831 0.06924298 0.06943895 0.06963717 0.06983878 0.07004628
 0.07025683 0.07046471 0.07066329 0.07083423 0.07097864 0.07108524 0.07117216 0.07125039 0.0713428 0.0714723
 0.07163732 0.07185012 0.07207502 0.0723049 0.072505 0.07266232 0.07278484 0.07286894 0.07295515 0.07304702
 0.07316137 0.07329796 0.07342254 0.07353234 0.07358427 0.07358363 0.07353035 0.07343747 0.073345 0.07326094
 0.0732241 0.07322817 0.07328347 0.07337318 0.0734846 0.0736041 0.07371534 0.07382254 0.0739198 0.07402883
 0.07415571 0.07431482 0.07451458 0.07473537 0.07497887 0.07519742 0.07538731 0.07551385 0.07557609 0.0755837
 0.07554024 0.07548472 0.07541805 0.07536595 0.07532481 0.07529416 0.0752766 0.07527443 0.07529852 0.07536968
 0.07548355 0.07565289 0.07584099 0.07602928 0.07618058 0.07626431 0.07629346 0.07625696 0.07621444 0.07617682
 0.07618765 0.07625895 0.07637293 0.07653109 0.07667516 0.0768024 0.07686864 0.0768759 0.07682493 0.07672359
 0.07661019 0.07649295 0.07641862 0.07638805 0.07642946 0.07652976 0.07668702 0.07687427 0.07706603 0.07723529
 0.07735205 0.07741354 0.07740381 0.07735516 0.07727068 0.07719555 0.07714086 0.07713121 0.07717324 0.0772634
 0.07740229 0.07757856 0.07779166 0.07803418 0.07830431 0.07858392 0.07886668 0.07911114 0.07931145 0.07942263
 0.07945361 0.0793943 0.07927412 0.07912918 0.07899037 0.07890823 0.07888253 0.07893863 0.07903363 0.07915868
 0.07925832 0.07930981 0.07929044 0.0791849 0.07902346 0.07880456 0.07858832 0.07837979 0.07821991 0.07811029
 0.07804308 0.07801536 0.07799245 0.07797479 0.07794461 0.0779093 0.07788338 0.07787278 0.07790129 0.07796102
 0.07805694 0.07816167 0.07825315 0.07829681 0.07825821 0.07812719 0.07788007 0.07755613 0.07715543 0.07674815
 0.07634958 0.07600912 0.07573902 0.07553966 0.07541378 0.07532783 0.07528001 0.07522938 0.07517479 0.07508804
 0.07497314 0.07483429 0.07468022 0.07454406 0.07442533 0.07434528 0.07428398 0.07422165 0.07413862 0.07399942
 0.07381657 0.07357911 0.07333221 0.07309342 0.07290296 0.07278298 0.0727336 0.07276534 0.07283279 0.07293455
 0.07300301 0.07303198 0.07297603 0.07283315 0.0726188 0.07233861 0.07206009 0.07178797 0.07158606 0.07144742
 0.07138588 0.07138528 0.07141683 0.07146867 0.07150777 0.07153583 0.07154033 0.07153239 0.07151623 0.071501
 0.07149407 0.07149404 0.07150386 0.07151226 0.07151826 0.07150706 0.07147638 0.07141593 0.07132403 0.07120337
 0.07105414 0.07089216 0.07071852 0.07055123 0.07038996 0.07024288 0.0701078 0.06998194 0.06986314 0.06974505
 0.06962695 0.06950492 0.06937925 0.06924917 0.0691141 0.06897401 0.06882637 0.06866999 0.06850278 0.06832301
 0.06813292 0.06793184 0.06772695 0.06751866 0.06731705 0.067123 0.06694531 0.06678444 0.06664138 0.06651506
 0.0663937 0.06627533 0.06614196 0.0659943 0.0658235 0.06563517 0.0654369 0.06523526 0.0650452 0.06486676
 0.06470735 0.06455983 0.06441967 0.06428631 0.06415362 0.0640405 0.06395107 0.06390553 0.06391475 0.06395978
 0.06404457 0.06410723 0.06414275 0.06410029 0.06397713 0.06378236 0.06352039 0.0632471 0.06296712 0.06273653
 0.0625534 0.06244435 0.06239706 0.06240123 0.06243436 0.0624564 0.06245196 0.0623817 0.06226195 0.06208563
 0.06189355 0.06170729 0.0615464 0.06142885 0.06133277 0.06125641 0.06117828 0.06109083 0.06101399 0.06094759
 0.06093099 0.06096629 0.06105904 0.0612057 0.06136355 0.06152662 0.06163717 0.06169571 0.0616696 0.06157128
 0.06140991 0.06120525 0.06099394 0.06078624 0.06061232 0.06046049 0.06033323 0.06021225 0.06008466 0.05995356
 0.0598138 0.05968648 0.05957768 0.0594916 0.05943248 0.05937813 0.05932662 0.05926379 0.05918877 0.05912017
 0.05905981 0.05903777 0.05905251 0.05911177 0.05920926 0.05932719 0.05946017 0.05958609 0.05970435 0.05980412
 0.05988689 0.05995223 0.05999584 0.06001771 0.060003 0.05994466 0.05982924 0.05964549 0.05940756 0.05910992
 0.05880488 0.05849716 0.05824719 0.05806286 0.05796173 0.05794528 0.05796935 0.05802991 0.05806071 0.05806295
 0.05800712 0.05790439 0.05777844 0.05763997 0.0575289 0.05744284 0.05739878 0.05738229 0.05738413 0.05739026
 0.0573853 0.05736554 0.05732205 0.05726581 0.05719618 0.0571348 0.057087 0.05706758 0.05708265 0.05711741
 0.05717275 0.05721024 0.0572277 0.05720418 0.05714169 0.05706477 0.05697777 0.05692278 0.0568957 0.05690643
 0.05694314 0.05697922 0.05701387 0.05702785 0.05704089 0.05706624 0.05712638 0.05724574 0.05743024 0.05769017
 0.05802327 0.05842824 0.05891421 0.05948203 0.06014572 0.06091018 0.06176615 0.06271625 0.06371117 0.06474852
 0.06574749 0.06670324 0.06753128 0.06822979 0.06874212 0.06907433 0.06921516 0.06917815 0.06898778 0.06866032
 0.06823139 0.06771775 0.06714923 0.06654564 0.06592865 0.06532192 0.06474211 0.06421003 0.06373792 0.06333327
 0.06300186 0.06273624 0.06253581 0.06239465 0.06231046 0.06230143 0.0623683 0.06255161 0.06285278 0.06330208
 0.06389504 0.06462102 0.06546965 0.06639646 0.06739482 0.06842327 0.06948784 0.07057687 0.07170691 0.07289155
 0.07414775 0.07549293 0.07693987 0.07849877 0.08018173 0.0819957 0.08394706 0.08604357 0.08826206 0.09060675
 0.09300768 0.09546174 0.09787201 0.1002327 0.1024574 0.1045424 0.1064219 0.108092 0.1094925 0.1106227
 0.111438 0.1119622 0.1122144 0.1122607 0.1122083 0.1121464 0.112221 0.1124937 0.1130703 0.113954
 0.1151808 0.1167162 0.1185558 0.1206671 0.1230416 0.1256547 0.1285043 0.1315524 0.1347978 0.1381748
 0.1416799 0.1452206 0.1487906 0.152284 0.155695 0.1589334 0.1619978 0.1648369 0.1674486 0.1698083
 0.1718991 0.1736892 0.175142 0.1762071 0.1768393 0.1769864 0.1766156 0.1756879 0.1742121 0.172167
 0.1696352 0.1666153 0.1632702 0.1596157 0.1558515 0.1519975 0.148222 0.1445366 0.1410362 0.1377223
 0.134623 0.1317345 0.1290483 0.1265578 0.1242374 0.122076 0.1200362 0.1181036 0.116236 0.1144253
 0.112642 0.1108943 0.1091763 0.1075056 0.105891 0.1043432 0.102868 0.1014718 0.1001536 0.09893727
 0.09782273 0.09685744 0.0960451 0.09543616 0.09503417 0.09486831 0.09493751 0.09522807 0.0957289 0.09636305
 0.09710994 0.09784515 0.0985605 0.09915818 0.09967436 0.1001111 0.100551 0.1010875 0.1018091 0.1028244
 0.1041787 0.1059384 0.1080802 0.1106245 0.1134803 0.1166416 0.1199655 0.123437 0.1268846 0.1302958
 0.1334731 0.1364057 0.1388268 0.140717 0.1417252 0.1418367 0.1407522 0.1385166 0.1351092 0.1306693
 0.1255198 0.1198407 0.114098 0.1084102 0.1031236 0.09824411 0.09390507 0.09003343 0.0866283 0.08360195
 0.08092136 0.07851746 0.07636785 0.07441951 0.07266142 0.07105055 0.06958137 0.06822204 0.06697012 0.06580591
 0.06472886 0.06373046 0.06281053 0.06196442 0.06119003 0.06047682 0.05982148 0.05920921 0.05863978 0.05810574
 0.05760859 0.05714939 0.05672313 0.0563285 0.05595284 0.05558808 0.05522642 0.0548602 0.054497 0.05413561
 0.05379296 0.05347231 0.05318309 0.05292807 0.05269723 0.05249042 0.05228456 0.05207887 0.05185893 0.05162678
 0.05139043 0.05115256 0.05093025 0.05072074 0.0505268 0.05034108 0.05015056 0.04995222 0.04973473 0.04950413
 0.0492602 0.04901405 0.04877159 0.04854319 0.04833486 0.04815108 0.04799626 0.04786176 0.04774871 0.04763566
 0.04752041 0.04738551 0.04722922 0.04705481 0.04686317 0.04667441 0.04648952 0.04632603 0.04618226 0.04606107
 0.04595887 0.04586742 0.04578424 0.04570021 0.04561621 0.04552892 0.04544205 0.04535746 0.04527925 0.04521073
 0.0451534 0.04510941 0.04507597 0.04505384 0.0450348 0.04501818 0.04499287 0.04495717 0.04490672 0.04484078
 0.04476846 0.04469053 0.0446234 0.04456708 0.04453028 0.04451043 0.04450176 0.0445007 0.04449401 0.04448084
 0.04445202 0.04441195 0.04436179 0.04430813 0.04425838 0.04421346 0.04417836 0.04414402 0.04410873 0.04406131
 0.04399709 0.04391462 0.04381134 0.04369811 0.04357537 0.0434573 0.043345 0.04324537 0.04315835 0.0430801
 0.04300972 0.04293798 0.04286497 0.0427855 0.0427018 0.04261696 0.04253381 0.04245954 0.04239472 0.04234394
 0.04230419 0.04227515 0.04225143 0.04222983 0.04220586 0.04217638 0.04214087 0.04209803 0.04205083 0.04199932
 0.04194791 0.04189704 0.04185076 0.0418094 0.04177537 0.04174873 0.04172955 0.04171782 0.04171344 0.04171664
 0.04172907 0.04174969 0.0417776 0.04180889 0.04183605 0.04185498 0.04185597 0.0418402 0.04180415 0.04175372
 0.04169136 0.04162244 0.04154973 0.04147676 0.04140458 0.04133774 0.04127721 0.04122657 0.04118694 0.04115472
 0.04112994 0.04110339 0.04107471 0.04103838 0.040995 0.04094724 0.04089564 0.04084451 0.04079264 0.04073896
 0.04068193 0.040617 0.0405462 0.04046933 0.04039157 0.0403178 0.04025149 0.04019674 0.04015343 0.04012236
 0.04010331 0.04009646 0.04010112 0.04011825 0.04014026 0.04016702 0.04018528 0.04019397 0.04018573 0.04016051
 0.04012234 0.04007184 0.04001607 0.03995497 0.0398916 0.03982613 0.03976011 0.03969477 0.0396336 0.03957657
 0.03952578 0.03947885 0.0394344 0.03939006 0.0393434 0.03929485 0.03924384 0.03919186 0.03913966 0.03908629
 0.03903204 0.03897368 0.0389108 0.03884133 0.03876494 0.03868385 0.0385983 0.03851466 0.03843348 0.03836272
 0.03830215 0.03825573 0.03822145 0.03819615 0.0381767 0.03815512 0.03813035 0.03809666 0.03805682 0.03801083
 0.03796333 0.03791775 0.03787586 0.03784005 0.03780764 0.03777863 0.0377489 0.03771739 0.03768297 0.03764514
 0.03760564 0.03756456 0.03752334 0.037482 0.03744015 0.03739797 0.03735647 0.03731624 0.03728088 0.03725045
 0.03722766 0.0372105 0.03719667 0.03718324 0.0371646 0.03714041 0.03710725 0.03706894 0.03702671 0.03698474
 0.03694596 0.03690995 0.03687792 0.03684516 0.03681081 0.03677211 0.03672814 0.03668161 0.03663256 0.0365853
 0.03653996 0.03649705 0.03645634 0.03641582 0.03637591 0.03633747 0.03630164 0.03627269 0.03625055 0.03623829
 0.03623244 0.03623003 0.03622635 0.03621492 0.03619535 0.03616367 0.03612688 0.03608645 0.0360511 0.0360247
 0.03600859 0.03600469 0.03600622 0.03601272 0.03601679 0.03601768 0.03601342 0.03600396 0.03599052 0.03597304
 0.03595156 0.03592568 0.03589308 0.03585418 0.03580854 0.03575778 0.03570527 0.03565175 0.03560047 0.03554934
 0.03549729 0.03544308 0.03538385 0.035325 0.03526731 0.03521928 0.03518496 0.03516414 0.03515912 0.03515777
 0.03515898 0.03515127 0.03513329 0.03510462 0.03506533 0.03502162 0.03497357 0.03492428 0.03487343 0.03482054
 0.03476623 0.03471217 0.03465914 0.03461027 0.03456391 0.03451921 0.03447383 0.03442407 0.03437175 0.0343159
 0.03426232 0.0342141 0.03417281 0.03414089 0.03411235 0.03408648 0.03405749 0.03402387 0.03398776 0.03394901
 0.03391388 0.03388258 0.03385615 0.03383384 0.03380849 0.03377941 0.03373849 0.03368723 0.03362519 0.03355613
 0.03348796 0.03342285 0.03336847 0.0333224 0.03328552 0.03325352 0.03322281 0.03319328 0.03316295 0.03313649
 0.03311521 0.03310173 0.03309781 0.03309896 0.03310536 0.03310795 0.03310592 0.03309401 0.03307201 0.0330422
 0.03300491 0.03296424 0.03291996 0.03287242 0.03282207 0.03276958 0.03271777 0.03267322 0.03263764 0.03261815
 0.03261019 0.03261301 0.0326184 0.03261976 0.0326138 0.032596 0.0325706 0.03253758 0.03250301 0.03246846
 0.03243645 0.03240805 0.03238007 0.03235253 0.03231886 0.03227879 0.03222948 0.03217165 0.03211167 0.03205099
 0.03200078 0.03196114 0.03193896 0.03193188 0.0319391 0.03195599 0.03197603 0.03199377 0.03200066 0.03199502
 0.03197131 0.03193565 0.03188851 0.03183948 0.03179253 0.03175072 0.0317163 0.03168458 0.0316551 0.03162457
 0.03159233 0.03156259 0.03153556 0.03151614 0.03150355 0.03149177 0.03147835 0.03144696 0.0313965 0.03131362
 0.03120151 0.03106006 0.03089412 0.03071187 0.03051409 0.03030616 0.03008284 0.02984329 0.02957869 0.02928578
 0.02895357 0.02857782 0.02815061 0.02766646 0.02713818 0.02656278 0.02598683 0.02541299 0.02489597 0.02443851
 0.02406361 0.02377036 0.02355531 0.02341801 0.0233544 0.02336567 0.02345113 0.02361798 0.02388478 0.02424967
 0.02473301 0.02528725 0.02587731 0.02644124 0.02691949 0.02728596 0.02750861 0.02759443 0.02753433 0.02736055
 0.02707109 0.0267361 0.02636134 0.02603386 0.02576352 0.02558125 0.0254887 0.02546177 0.02549903 0.02557855
 0.02569851 0.02583924 0.02599659 0.02614481 0.02628426 0.02640103 0.02650265 0.02659476 0.02668381 0.02677956
 0.02688361 0.02700031 0.02712921 0.02727245 0.02742418 0.02758477 0.02774068 0.02788918 0.02801874 0.02812611
 0.02821426 0.02828251 0.02834499 0.02840244 0.02846711 0.02853886 0.02861975 0.0287088 0.02880193 0.0288981
 0.02899232 0.02908288 0.02916371 0.02923314 0.02928508 0.02932117 0.02933969 0.02934629 0.02934425 0.02933917
 0.02933503 0.02933404 0.02933788 0.02934702 0.0293619 0.0293824 0.02940901 0.02943783 0.02946886 0.02949433
 0.02951383 0.02952168 0.02951803 0.02950288 0.02947691 0.02944371 0.02940426 0.02936332 0.02932244 0.02928757
 0.02925931 0.02924229 0.02923343 0.02923203 0.0292324 0.02922955 0.02922133 0.02920386 0.02918237 0.0291572
 0.0291358 0.02912049 0.02911326 0.02911529 0.02912272 0.02913538 0.02914894 0.02916316 0.0291761 0.02918763
 0.02919586 0.02920035 0.02919742 0.02918717 0.02916726 0.02913988 0.02910823 0.02907612 0.0290513 0.02903547
 0.02903504 0.02904541 0.02906688 0.02908936 0.02910774 0.02911462 0.0291046 0.0290813 0.02904308 0.02900285
 0.02896234 0.02893146 0.02891192 0.02890109 0.0288989 0.0288942 0.02888676 0.02887014 0.02884579 0.0288188
 0.02879081 0.02877113 0.02875873 0.02875666 0.02876111 0.02876734 0.02877207 0.02876897 0.02875892 0.02873945
 0.02871576 0.02868941 0.02866649 0.0286502 0.02864143 0.02864207 0.02864579 0.02865226 0.02865327 0.02864781
 0.02863297 0.02860854 0.02857801 0.02854177 0.02850552 0.02846969 0.02843974 0.02841564 0.0284009 0.02839383
 0.02839298 0.02839482 0.0283926 0.02838489 0.02836587 0.02834027 0.02830897 0.02827939 0.02825678 0.02824211
 0.02823841 0.02823817 0.02824015 0.02823801 0.02822981 0.02821758 0.02820118 0.02818525 0.02817008 0.02815497
 0.02813976 0.02812149 0.02810072 0.0280795 0.02805874 0.02804345 0.02803265 0.02802689 0.02802411 0.02802064
 0.02801654 0.02800968 0.02800282 0.02799761 0.02799559 0.02799879 0.02800518 0.02801491 0.02802414 0.02803167
 0.02803639 0.02803757 0.02803771 0.02803698 0.02803759 0.0280397 0.02804003 0.02803813 0.02802657 0.02800534
 0.02796992 0.02792192 0.02786404 0.02779945 0.02773668 0.02767927 0.02763743 0.02761191 0.02760936 0.02762368
 0.02765406 0.0276889 0.02772156 0.02774443 0.0277518 0.02774609 0.02772607 0.02769922 0.02766664 0.02763307
 0.02759912 0.02756717 0.02753736 0.0275131 0.02749449 0.02748412 0.02748143 0.02748451 0.02749216 0.02749877
 0.02750399 0.02750364 0.02749912 0.02749062 0.02748034 0.02747106 0.02746389 0.02746114 0.02746144 0.02746502
 0.02746907 0.02747248 0.02747373 0.02747199 0.02746783 0.02746117 0.02745306 0.02744369 0.0274327 0.02742007
 0.02740637 0.02739182 0.02738032 0.02737211 0.02737099 0.02737607 0.02738631 0.02740002 0.02741222 0.02742252
 0.02742758 0.02742886 0.02742679 0.02742285 0.02741849 0.02741439 0.02741125 0.0274096 0.02740993 0.02741193
 0.02741592 0.0274199 0.02742383 0.02742446 0.0274215 0.02741178 0.02739505 0.02737094 0.02733974 0.02730636
 0.02727173 0.02724452 0.02722502 0.02721968 0.02722651 0.02724466 0.02726995 0.02729516 0.02731613 0.02732435
 0.02731942 0.02729665 0.02726185 0.02721579 0.02716786 0.02712186 0.02708408 0.02705756 0.02704184 0.02703778
 0.02704065 0.02705018 0.02706115 0.02707321 0.02708363 0.02709248 0.02710119 0.0271102 0.02712345 0.0271407
 0.02716355 0.02719053 0.02721905 0.02724686 0.02726911 0.02728351 0.02728496 0.02727353 0.027246 0.02720826
 0.02716134 0.02711534 0.02707485 0.02704502 0.02702934 0.02702334 0.02702729 0.02703335 0.02704062 0.02704486
 0.02704572 0.02704194 0.02703351 0.02702002 0.02700176 0.02698044 0.02695633 0.02693156 0.02690558 0.02687791
 0.02684844 0.02681571 0.02678278 0.02675253 0.02672851 0.0267165 0.02671269 0.02671836 0.02672267 0.02672116
 0.02670806 0.02667885 0.02664206 0.02659757 0.02655958 0.02653003 0.02651373 0.02651128 0.02651761 0.02653249
 0.02655144 0.02657446 0.02660001 0.02662731 0.02665247 0.02667438 0.02668756 0.02669271 0.02668821 0.0266762
 0.02665936 0.02663744 0.02661165 0.02657967 0.02653936 0.02649309 0.02643922 0.026389 0.02634455 0.02631759
 0.02631175 0.0263258 0.02636099 0.02640346 0.02645245 0.02649477 0.02653009 0.02655346 0.02656512 0.02656439
 0.02655161 0.02652709 0.02649257 0.02645218 0.02640887 0.02637044 0.02633713 0.0263135 0.02629547 0.02628118
 0.0262668 0.02624838 0.02622798 0.02620447 0.02618455 0.02616999 0.02616486 0.02617094 0.02618512 0.02620772
 0.02623047 0.0262529 0.02626656 0.02627121 0.02626283 0.02624195 0.02621022 0.02616893 0.02612402 0.0260769
 0.02603462 0.02599732 0.02596896 0.02594804 0.02593426 0.02592608 0.0259222 0.0259211 0.02592205 0.02592211
 0.0259197 0.02591366 0.0259023 0.02589086 0.02587961 0.02587581 0.02588099 0.02589268 0.02591109 0.02592264
 0.02592676 0.02591258 0.02588124 0.02583565 0.02577849 0.02572275 0.02566957 0.02562981 0.02560049 0.02558192
 0.02556886 0.02555399 0.02553557 0.02550807 0.02547592 0.02543979 0.0254053 0.02537545 0.02535177 0.02533551
 0.02532587 0.02532282 0.0253261 0.02533584 0.02535052 0.0253702 0.0253888 0.02540579 0.02541054 0.02540248
 0.02537122 0.02531822 0.02524221 0.02514889 0.02505195 0.02495897 0.02489263 0.02485177 0.02484794 0.02486638
 0.02489823 0.02493025 0.02494951 0.02495651 0.02494665 0.02493015 0.02490874 0.02489197 0.02488263 0.02488192
 0.02489114 0.02490138 0.02491235 0.02490972 0.02489297 0.02485241 0.02478953 0.02470994 0.02461817 0.02453691
 0.02446936 0.02443902 0.02443967 0.02447231 0.02452529 0.02458284 0.02463895 0.02468233 0.02471163 0.02472291
 0.02471636 0.02468965 0.02464973 0.024596 0.0245451 0.02449992 0.02447366 0.0244694 0.02448307 0.02451492
 0.0245512 0.02459136 0.02462651 0.02465673 0.02467861 0.02469236 0.02469653 0.02469211 0.02468074 0.02466426
 0.02464676 0.02462993 0.02461759 0.02461105 0.02461333 0.02462335 0.02464263 0.02466514 0.02468913 0.02470799
 0.02471836 0.02472166 0.02471661 0.02471221 0.02470959 0.02471347 0.02472455 0.02473721 0.02475123 0.02476233
 0.02477187 0.02478958 0.02481736 0.02487108 0.02494708 0.02504479 0.02515585 0.02526229 0.02536209 0.0254428
 0.02551174 0.0255707 0.02562851 0.02569292 0.02576396 0.02584528 0.02592785 0.02600938 0.02608419 0.02614854
 0.02621352 0.02627789 0.026373 0.02650092 0.02668995 0.02694055 0.02724657 0.02760657 0.02800253 0.02843943
 0.02892769 0.0294795 0.03013449 0.03090399 0.03183215 0.0329157 0.03417427 0.03558408 0.03713074 0.03879138
 0.04054219 0.04238717 0.04432418 0.0463542 0.04849664 0.0506548 0.05283031 0.05483142 0.05663215 0.0581191
 0.05927818 0.06013465 0.06069089 0.06101673 0.06111633 0.06105255 0.06082913 0.06049554 0.06005565 0.05954056
 0.058966 0.05837023 0.05778555 0.05727698 0.05685245 0.05655108 0.05634381 0.05622272 0.05616397 0.05615326
 0.05618302 0.05624817 0.05634582 0.05647327 0.05663771 0.05683783 0.05710015 0.05742744 0.05782221 0.05828249
 0.05873324 0.05916995 0.05951795 0.05978328 0.0599565 0.06004363 0.06005764 0.06000082 0.05988127 0.05970628
 0.05948585 0.05923567 0.05897028 0.0587137 0.05848099 0.05830565 0.05820823 0.05820271 0.05830742 0.05847793
 0.05871233 0.05894792 0.05917494 0.05936464 0.05951316 0.05962305 0.05969492 0.0597514 0.05979658 0.0598775
 0.05999737 0.06020363 0.06048207 0.06081469 0.06118642 0.06155051 0.06191837 0.06228624 0.06266793 0.06307994
 0.06351803 0.06398536 0.06447279 0.06497497 0.06549361 0.06603061 0.06657618 0.0671308 0.06767227 0.06819583
 0.06870516 0.06919973 0.06969563 0.07019281 0.0706701 0.07112445 0.07151517 0.0718461 0.07211237 0.07232502
 0.07251733 0.07269253 0.07287894 0.07306033 0.07322222 0.07335969 0.07345478 0.07353155 0.07360197 0.07368154
 0.07378618 0.07390043 0.07402356 0.07413693 0.07423278 0.07432207 0.07440261 0.07451098 0.07465053 0.074838
 0.07507303 0.0753074 0.07553776 0.07571071 0.07583047 0.07589179 0.07589814 0.07585821 0.07577092 0.07563616
 0.07545729 0.0752364 0.0749843 0.07471301 0.0744288 0.07414127 0.0738472 0.0735474 0.07323834 0.07291812
 0.07258868 0.07224955 0.07190554 0.07155634 0.07121291 0.07087533 0.07056731 0.07029019 0.07007248 0.06991423
 0.06982772 0.06981011 0.06985353 0.06995548 0.07010329 0.07029782 0.07053297 0.07081525 0.07114806 0.0715472
 0.07202636 0.07260823 0.07331111 0.07415463 0.07514986 0.07631812 0.07766212 0.07922594 0.0810174 0.08308214
 0.08543432 0.08804343 0.0909136 0.09391459 0.0970386 0.1001119 0.1031177 0.1058339 0.1082283 0.1100071
 0.1111713 0.1115429 0.1112018 0.1102199 0.1087009 0.1068098 0.1046709 0.1024563 0.1002927 0.09833658
 0.09660153 0.09515134 0.09389595 0.09281817 0.09184719 0.09095056 0.09017197 0.08950696 0.08905773 0.08883668
 0.08883299 0.08904609 0.08943009 0.08998729 0.09072803 0.09165671 0.09280095 0.09416296 0.09575759 0.09759975
 0.09973305 0.1021582 0.1049727 0.1079446 0.1109764 0.1135391 0.1151653 0.1157134 0.1149093 0.1130876
 0.1102799 0.1068669 0.1029109 0.09883138 0.09469037 0.09081639 0.08725179 0.08404496 0.08119808 0.07858875
 0.07621326 0.07398864 0.07192504 0.07003619 0.06832839 0.06683678 0.06554419 0.06443658 0.06348 0.06261919
 0.06182378 0.06104272 0.06025538 0.05943407 0.05856013 0.05761239 0.05660085 0.05550304 0.05443313 0.05340851
 0.05254389 0.05187367 0.05133095 0.05091549 0.05052138 0.0501437 0.04975935 0.04937225 0.04902063 0.04870684
 0.04846372 0.04828789 0.04817992 0.04814808 0.04820408 0.04837392 0.04870251 0.04920871 0.04993382 0.05087241
 0.05203416 0.05340729 0.05499269 0.05676393 0.05871982 0.06080467 0.06300066 0.06529621 0.06767316 0.07025582
 0.07305463 0.0761684 0.07959979 0.08305573 0.08650254 0.08943894 0.09187448 0.09359927 0.09466147 0.09510265
 0.09498041 0.09442827 0.09352043 0.0924286 0.09120087 0.08995451 0.08870397 0.08748709 0.08633319 0.08526761
 0.08430165 0.08345632 0.08267795 0.08195803 0.08125305 0.08055072 0.0798641 0.07919145 0.0785766 0.07802179
 0.07755408 0.07717249 0.07687264 0.07665258 0.07650035 0.07641383 0.07638458 0.0764006 0.07643765 0.0764681
 0.07643722 0.07632844 0.07609309 0.07575663 0.07531139 0.07482083 0.07430824 0.07384669 0.07346829 0.07321084
 0.07309471 0.07310351 0.07324161 0.07345934 0.0737545 0.07406104 0.07437526 0.07463225 0.07483075 0.07493771
 0.07495512 0.07487778 0.0747062 0.07443795 0.07407511 0.0736181 0.07307689 0.0724646 0.07179714 0.07109599
 0.07037468 0.06965119 0.06892909 0.06821679 0.06750654 0.06679774 0.06608156 0.06535327 0.06462162 0.06388491
 0.0631706 0.06248074 0.06183963 0.06124869 0.06072439 0.06026819 0.05990317 0.05963096 0.0594757 0.05943274
 0.05950262 0.059671 0.0599095 0.06019549 0.0604858 0.0607495 0.06093837 0.0610253 0.06096746 0.06077472
 0.06042805 0.05999179 0.05947817 0.05896579 0.05847876 0.05804996 0.05769235 0.05738478 0.0571278 0.05688238
 0.05664637 0.05639802 0.0561382 0.05587323 0.05560574 0.0553545 0.05512016 0.05491491 0.05473775 0.05459271
 0.05447751 0.05439154 0.05432909 0.0542848 0.05425034 0.05421804 0.05418098 0.05413314 0.05407213 0.05399452
 0.05390551 0.05380381 0.05370492 0.05361028 0.05353796 0.05349057 0.0534705 0.05347807 0.05349398 0.05351714
 0.05352688 0.05352499 0.05351032 0.05348824 0.05347666 0.05348129 0.05352538 0.05360994 0.05374963 0.05393561
 0.05416725 0.05442476 0.05469529 0.05495524 0.05518879 0.05538086 0.05552083 0.05560882 0.05564156 0.05562925
 0.05557211 0.05548485 0.05536809 0.05524341 0.05511202 0.05499978 0.05490743 0.05485123 0.05482911 0.05483752
 0.05487238 0.05491752 0.05496938 0.05501134 0.05504206 0.05505115 0.05504081 0.05500834 0.05496022 0.05489951
 0.05483533 0.05477247 0.05472047 0.05468331 0.05466934 0.05468182 0.0547232 0.05479549 0.05489071 0.05500885
 0.05513575 0.0552706 0.05540177 0.05552882 0.05564363 0.05574584 0.05582839 0.05589204 0.05593456 0.05595953
 0.05597387 0.05598197 0.05599467 0.05601353 0.05604522 0.0560878 0.05614208 0.05620519 0.05627585 0.05635175
 0.05643225 0.05651375 0.05659565 0.05667301 0.05674458 0.05680965 0.0568675 0.0569253 0.05698342 0.05705037
 0.05712639 0.05721582 0.0573193 0.05744312 0.05758821 0.05776427 0.05796555 0.0581876 0.05841287 0.05861066
 0.05876504 0.05883979 0.05884321 0.05876354 0.05863344 0.05846633 0.05829227 0.05812751 0.05798151 0.05786058
 0.05776247 0.05768785 0.05763303 0.05759827 0.05757364 0.05755867 0.05753719 0.05750915 0.05747026 0.05742437
 0.05739374 0.05738403 0.05743125 0.05753254 0.05770486 0.0579281 0.05818021 0.05843121 0.05863489 0.05877694
 0.05882246 0.05879362 0.05868725 0.05854745 0.05839185 0.05824497 0.05812109 0.05800661 0.05790258 0.0577854
 0.05765092 0.05750459 0.05734602 0.0572152 0.0571146 0.0570899 0.05713984 0.05728195 0.05750676 0.05779016
 0.05811754 0.05843954 0.05874795 0.05900293 0.05921142 0.05936368 0.05947587 0.05955851 0.05962289 0.05967887
 0.05973037 0.05977959 0.05983407 0.05989428 0.05997559 0.06008084 0.06021998 0.06039557 0.06059849 0.06082857
 0.06106222 0.06129831 0.06151611 0.06171579 0.06188852 0.06203525 0.06215499 0.06224858 0.06231721 0.06236239
 0.06238716 0.06239298 0.06238362 0.06235735 0.06231473 0.06225144 0.0621646 0.06205319 0.06191446 0.06175549
 0.06157586 0.06139065 0.06120123 0.06102679 0.0608695 0.06074341 0.06064971 0.06058903 0.06056095 0.0605565
 0.06057553 0.06061235 0.06066813 0.06074486 0.0608426 0.06096328 0.06110464 0.06126366 0.06143809 0.06162366
 0.06181981 0.06202465 0.06223811 0.06245972 0.0626893 0.06292617 0.06317244 0.06342771 0.06369811 0.06398406
 0.0642943 0.06462973 0.0649977 0.0653988 0.06583533 0.06630687 0.06680661 0.06733159 0.06785984 0.06838472
 0.06886834 0.06930459 0.06965544 0.06992527 0.07009929 0.07019812 0.07023787 0.07024651 0.07025436 0.07027677
 0.07033598 0.07042036 0.07053446 0.0706484 0.07075544 0.07083134 0.07086971 0.07086355 0.07081091 0.0707139
 0.0705724 0.07039452 0.07018146 0.06995525 0.06971813 0.06949817 0.06929404 0.06911641 0.06895982 0.06881399
 0.06867758 0.06854148 0.06841145 0.06829167 0.06818558 0.06810037 0.06802865 0.06797054 0.06791048 0.06784312
 0.06775372 0.06763666 0.06748582 0.06729796 0.06707916 0.0668289 0.06656215 0.06627973 0.06599885 0.06572032
 0.0654588 0.06521386 0.06499038 0.06478503 0.06458682 0.06439233 0.06418406 0.06396715 0.0637388 0.06351589
 0.0633169 0.06316064 0.06307189 0.06305583 0.06312818 0.06326818 0.06347896 0.06370912 0.06395116 0.06413628
 0.06425095 0.06424724 0.0641145 0.06386268 0.06349028 0.06306189 0.06258128 0.06212142 0.06168218 0.06129829
 0.06096245 0.06066386 0.06039304 0.06011916 0.05983592 0.05951746 0.05916107 0.05875168 0.05829277 0.05777875
 0.05722546 0.0566371 0.05603979 0.0554442 0.05487264 0.05433451 0.05383736 0.05338532 0.05297242 0.05259923
 0.05225164 0.05192886 0.05161509 0.05130982 0.05100512 0.05070223 0.05040693 0.05012102 0.0498562 0.04961144
 0.04939137 0.04919063 0.04900251 0.04881946 0.04862915 0.04842589 0.04819926 0.04795 0.04767347 0.04737947
 0.04706903 0.04675822 0.04645146 0.04616159 0.04589315 0.04564415 0.04541627 0.0451916 0.04496915 0.04473023
 0.04447445 0.04419837 0.04390342 0.04359922 0.04328718 0.04297757 0.04267256 0.04238147 0.04211048 0.0418743
 0.04168127 0.0415494 0.04148091 0.04148777 0.04155744 0.04169159 0.04185766 0.04204847 0.04221457 0.04234334
 0.04238607 0.04232985 0.04215454 0.04185284 0.04144975 0.04094529 0.04039694 0.03980774 0.03923441 0.03867759
 0.03816794 0.03770328 0.03729043 0.03692724 0.0366126 0.03634201 0.03610963 0.03590328 0.03570591 0.03550375
 0.03527506 0.03502176 0.03473417 0.0344336 0.03412611 0.03383171 0.03355983 0.03331044 0.03308636 0.03287575
 0.03267703 0.03248602 0.032302 0.03213174 0.03197549 0.03183772 0.03171792 0.03161281 0.03152298 0.0314482
 0.03139202 0.03136535 0.03136928 0.03141445 0.03149144 0.03159491 0.03170785 0.03181241 0.03189718 0.03194774
 0.03196562 0.03194674 0.03190007 0.03182697 0.03173678 0.03163137 0.03151814 0.03139816 0.03127654 0.03115358
 0.03103554 0.03092306 0.03083051 0.03075957 0.03073125 0.03074566 0.03081652 0.0309388 0.03110769 0.03131213
 0.03153069 0.03174833 0.031937 0.03208293 0.03216175 0.03217115 0.03209775 0.03196055 0.03176008 0.03153115
 0.03128321 0.03104578 0.03082784 0.03063677 0.03047565 0.03033597 0.03021725 0.03011428 0.03002702 0.02995858
 0.02990856 0.02987548 0.02985699 0.02984082 0.02982598 0.02980159 0.02977174 0.02973889 0.02970852 0.02969109
 0.0296846 0.02969356 0.02970642 0.02971694 0.02971627 0.02969511 0.02966444 0.02962208 0.02959627 0.02959255
 0.0296304 0.0297154 0.02983587 0.02999225 0.03015195 0.03031355 0.03045391 0.03057395 0.03067295 0.03075216
 0.03081817 0.03086854 0.03089975 0.03090816 0.03088307 0.0308266 0.03073461 0.0306177 0.0304833 0.03034411
 0.03021212 0.03009022 0.02998572 0.02988582 0.02978957 0.02967876 0.02954807 0.02939429 0.02921447 0.02902648
 0.02883119 0.02864935 0.02848174 0.02833492 0.02820853 0.02810146 0.02801439 0.02795077 0.02791041 0.02789639
 0.02790383 0.0279254 0.02795397 0.02797605 0.02798805 0.02797981 0.02795601 0.02791342 0.02786867 0.02782599
 0.02780829 0.02782503 0.02788426 0.02799309 0.02812999 0.02829498 0.02845192 0.02859786 0.02870989 0.02878727
 0.02883075 0.02884199 0.02883657 0.02881656 0.02879975 0.02878773 0.02879437 0.02882069 0.02887607 0.02895889
 0.02907366 0.02921002 0.02936303 0.02951261 0.0296441 0.02974237 0.0297925 0.02980394 0.02977205 0.02972895
 0.02967957 0.02965397 0.02965818 0.02969859 0.02977713 0.02987704 0.02999744 0.03011847 0.03024017 0.03035591
 0.03046602 0.03056982 0.03066496 0.03074297 0.03080341 0.03083744 0.03085577 0.03086762 0.03088955 0.0309439
 0.03103407 0.03117385 0.03134572 0.03154748 0.03175412 0.03195626 0.03214158 0.03230252 0.03245376 0.0325937
 0.0327595 0.03295396 0.03320714 0.03352014 0.03389076 0.03431745 0.03478206 0.03528644 0.03582943 0.03641655
 0.03706559 0.03777815 0.03856846 0.03943 0.04036202 0.04135046 0.04238382 0.0434421 0.04451299 0.04556604
 0.04659437 0.04753628 0.04838252 0.04903271 0.04946459 0.04960235 0.04942216 0.04897109 0.0482446 0.04740943
 0.04647435 0.04560762 0.04481033 0.04415703 0.04363648 0.04323193 0.04293106 0.04268485 0.04249083 0.0423192
 0.04217456 0.04205389 0.041954 0.04187409 0.04180012 0.04172086 0.04163025 0.04151885 0.04139967 0.04127548
 0.04115521 0.04104498 0.04092702 0.04080073 0.04064073 0.04044345 0.04021607 0.03995943 0.0397215 0.03950546
 0.03936443 0.03929504 0.03931116 0.03939957 0.03952627 0.03967755 0.03980543 0.03990771 0.03995749 0.03996604
 0.03993229 0.03987614 0.03980879 0.03975381 0.03972863 0.03973574 0.03979153 0.03983601 0.03986038 0.03980691
 0.03965858 0.03944822 0.03917598 0.03889323 0.03860233 0.0383183 0.03803992 0.03775762 0.0374718 0.03717766
 0.0368813 0.03659936 0.03633913 0.03612701 0.03596087 0.03585253 0.03578751 0.03575499 0.03574323 0.03573733
 0.03574144 0.03575375 0.03578 0.03582418 0.03587867 0.03594212 0.0360099 0.03607998 0.03616106 0.03625458
 0.03635379 0.03645809 0.03652985 0.03656764 0.03654071 0.03645397 0.03631699 0.03613799 0.03594987 0.03575606
 0.03558171 0.03542259 0.03528534 0.03515839 0.03503125 0.03489693 0.03473989 0.03458169 0.03442397 0.0343051
 0.0342438 0.03424107 0.03430792 0.03439438 0.03449574 0.03456355 0.03459115 0.03457847 0.03452553 0.03447007
 0.03441411 0.03439355 0.0344065 0.03446202 0.03455495 0.03467169 0.03481111 0.03496359 0.03513118 0.03531699
 0.03551115 0.03570864 0.03588745 0.03602671 0.03612196 0.03615874 0.0361647 0.03614517 0.03612717 0.03612084
 0.03612512 0.0361419 0.03616111 0.03618109 0.03620981 0.03624766 0.03630846 0.03639066 0.03648138 0.03657513
 0.03663181 0.03665219 0.03661231 0.0365283 0.03642388 0.0363158 0.03624668 0.03620924 0.0362159 0.03624325
 0.03627468 0.03630292 0.03631827 0.03632545 0.03632772 0.03631257 0.03627869 0.03620971 0.03610016 0.03596315
 0.03579855 0.03563176 0.03546407 0.03529349 0.03511874 0.03492031 0.03470121 0.0344663 0.03422518 0.03401475
 0.0338397 0.03373412 0.03368502 0.03369123 0.03372721 0.03376327 0.03378447 0.03376617 0.03371545 0.03362956
 0.03351742 0.03338448 0.03322338 0.03303261 0.0328094 0.03255022 0.03227771 0.03199292 0.03172476 0.03147485
 0.03124993 0.03104901 0.03085969 0.03068176 0.03050678 0.03033757 0.03018012 0.03003583 0.02991541 0.02980762
 0.02970354 0.02958079 0.02940621 0.02917965 0.02887714 0.02854865 0.02820687 0.02791853 0.02771688 0.02761481
 0.02763213 0.02770675 0.02783548 0.02793866 0.02800646 0.02801552 0.02796408</values></Ydata></AB><ScSm><Ydata ylabel="Single channel"><values byteorder="INTEL" format="FLOAT32" numvalues="1814"> 0.05750485 0.05751036 0.05756345 0.05768653 0.05785953 0.05803126 0.05815643 0.05822374 0.05824422 0.05822254
 0.05816644 0.05812146 0.05815708 0.05829835 0.05848778 0.05862655 0.05865476 0.0586057 0.0585851 0.05866687
 0.05878892 0.05877697 0.05850686 0.05804597 0.05760768 0.05735702 0.05730955 0.05745541 0.0578637 0.05848913
 0.05895218 0.05881004 0.05811444 0.057438 0.05723811 0.05741672 0.0575886 0.05752512 0.05722504 0.05682763
 0.05665224 0.05711445 0.05832195 0.05973571 0.06035782 0.05935782 0.05666647 0.05317392 0.05040321 0.04969137
 0.05124734 0.05387716 0.05587948 0.05640305 0.05585989 0.05507297 0.05439036 0.05378187 0.05340356 0.05363052
 0.05453554 0.05553875 0.05570449 0.05453768 0.05257401 0.05100529 0.05059309 0.05118535 0.05235275 0.0538598
 0.05501918 0.05431161 0.05087556 0.04641303 0.04444097 0.04694878 0.0522763 0.05674265 0.05792563 0.05601652
 0.0527507 0.04996688 0.0489214 0.04994619 0.05237588 0.05510309 0.05725709 0.05825023 0.05762595 0.05544972
 0.05270135 0.05080349 0.0507467 0.05269899 0.05597151 0.05907977 0.06041517 0.05943196 0.05701306 0.05453419
 0.05295146 0.0528002 0.05433489 0.05726404 0.06073099 0.06381245 0.06589897 0.06675112 0.06654294 0.06575182
 0.06479587 0.06396794 0.06369502 0.06427538 0.06518729 0.06528457 0.06404579 0.06226888 0.06124732 0.06143068
 0.06206584 0.06211457 0.06130559 0.05996848 0.05800585 0.05486976 0.05081501 0.04723994 0.04528887 0.04497729
 0.04602498 0.04830693 0.05086834 0.05185455 0.05053706 0.04862326 0.04856416 0.05093892 0.05414786 0.05636888
 0.05724515 0.0577693 0.05899619 0.06096207 0.06254598 0.06231637 0.05995154 0.05704693 0.05599489 0.05763917
 0.06046035 0.06244306 0.0632001 0.0637659 0.06477968 0.06549428 0.06455132 0.0615939 0.05815254 0.05671266
 0.05855197 0.06245865 0.06560621 0.06564898 0.06230532 0.05742677 0.05355154 0.05214429 0.0531963 0.05619151
 0.06068022 0.06577564 0.06991099 0.07171209 0.07100235 0.06873521 0.06590285 0.06261326 0.05860603 0.05477858
 0.05338271 0.05590072 0.06115708 0.0662967 0.06933261 0.07014281 0.06936962 0.06719863 0.06353591 0.05919077
 0.05627429 0.0565671 0.05938147 0.0619434 0.06229901 0.06109963 0.06018486 0.06028242 0.06072966 0.06088399
 0.06104307 0.06193849 0.06369127 0.06552711 0.06652417 0.06645373 0.06582545 0.06529104 0.06505095 0.06471029
 0.06383362 0.06280479 0.06279077 0.06446988 0.06710695 0.06930824 0.07041975 0.07077499 0.07077559 0.07017635
 0.06844045 0.06575688 0.06346263 0.06305768 0.06475623 0.06734811 0.06945701 0.0705324 0.07072671 0.07039979
 0.06987181 0.06931655 0.06881532 0.06858747 0.06894007 0.06983693 0.07078818 0.07134151 0.07145911 0.07130548
 0.0709224 0.07028116 0.0695139 0.06893325 0.06881206 0.06917793 0.06983241 0.07052836 0.07106859 0.07129157
 0.0711273 0.07070166 0.07025559 0.0699265 0.06971076 0.06962657 0.06975965 0.07011117 0.07052484 0.07082455
 0.07095449 0.07095326 0.07085988 0.07069007 0.07046895 0.07025505 0.07013599 0.0701794 0.07035705 0.07055083
 0.07067956 0.07077919 0.07090186 0.07099126 0.07094276 0.07075773 0.07055965 0.07046512 0.07049151 0.07058025
 0.07065485 0.07063697 0.07045163 0.07009031 0.06968784 0.06947041 0.06957224 0.06993259 0.07038864 0.07080714
 0.07110897 0.07125954 0.07129119 0.07127859 0.07125171 0.07116935 0.07099795 0.07079174 0.0706805 0.07077177
 0.07105248 0.07139444 0.07166609 0.07181861 0.07187161 0.07187594 0.07190061 0.07198504 0.07208025 0.07209348
 0.07200924 0.07191877 0.07191581 0.071996 0.07207093 0.07206836 0.07201189 0.07199489 0.07207584 0.0722197
 0.07235164 0.0724428 0.0725238 0.07262553 0.07272126 0.0727385 0.07264127 0.0724885 0.07237956 0.07234979
 0.07236071 0.07238609 0.07245232 0.07257915 0.07272433 0.07281798 0.07283802 0.07282797 0.07283716 0.07285772
 0.07283594 0.07274104 0.07260481 0.07249048 0.07243803 0.07244302 0.07247303 0.07249265 0.07247891 0.0724261
 0.07234395 0.07224849 0.07215141 0.07206458 0.07201727 0.07204941 0.07216372 0.07229011 0.07232586 0.07222567
 0.07204624 0.07189318 0.07182343 0.07180199 0.07175145 0.07163299 0.07147183 0.07131658 0.07119453 0.07110512
 0.07103561 0.07097552 0.07093091 0.07093142 0.07100451 0.07112816 0.07122485 0.07122557 0.07113543 0.07102135
 0.07094511 0.07092443 0.07094395 0.07098039 0.07102413 0.07108828 0.07118306 0.07127838 0.07132216 0.0713051
 0.07127729 0.07129373 0.07137409 0.07151183 0.07167841 0.07181544 0.07187003 0.07185319 0.07183139 0.07185236
 0.07190716 0.07196854 0.07203315 0.07211109 0.07219934 0.07228878 0.07238997 0.07253312 0.0727383 0.07299028
 0.07324228 0.07344633 0.07359061 0.07371582 0.07388875 0.07414798 0.07447103 0.07479428 0.07506637 0.07528496
 0.07548441 0.07569183 0.07590578 0.07612224 0.07636211 0.07665116 0.07698219 0.07732001 0.07764005 0.07794353
 0.07824029 0.0785358 0.07883491 0.07914558 0.079477 0.07983217 0.08019455 0.08052532 0.080791 0.08099853
 0.08119549 0.08143398 0.08173447 0.08206925 0.08237225 0.08258612 0.08272241 0.08286103 0.08306705 0.0833208
 0.08355789 0.08376644 0.08400448 0.08431572 0.08466353 0.08497013 0.08520328 0.08540184 0.08562082 0.0858665
 0.08609185 0.08625183 0.08635516 0.08645257 0.08658125 0.08674298 0.08693966 0.08719547 0.08751819 0.08786137
 0.08815693 0.0883748 0.08853039 0.08865052 0.08875733 0.08887015 0.08899638 0.08912656 0.08925055 0.0893645
 0.08945612 0.08951078 0.08954512 0.08960684 0.08972535 0.08988789 0.09007868 0.09031077 0.09059231 0.09088743
 0.09115004 0.09138864 0.09165491 0.09195909 0.0922351 0.09241265 0.09249339 0.09252811 0.09254955 0.09256762
 0.09260873 0.09270886 0.09286557 0.09303008 0.09315083 0.09320437 0.09318706 0.0931004 0.09295164 0.09276082
 0.09256475 0.09241652 0.09237526 0.09248888 0.0927773 0.09321861 0.09374508 0.09426486 0.09470226 0.09501746
 0.09519152 0.09521653 0.09511712 0.09495948 0.09480198 0.09463106 0.09436575 0.09392863 0.09329563 0.09247783
 0.09148385 0.09031972 0.08901679 0.08764449 0.08629414 0.08505342 0.08399579 0.08319161 0.08271676 0.0826247
 0.08289078 0.0833852 0.08390745 0.08424719 0.08422902 0.08374563 0.08278932 0.08145222 0.07987663 0.0781963
 0.0765131 0.07489694 0.07338546 0.07200038 0.07079379 0.06988079 0.06941237 0.06950994 0.07021858 0.07149754
 0.07322837 0.07523409 0.07732254 0.07934434 0.08122525 0.082949 0.08452219 0.08596373 0.08730912 0.08859206
 0.08981566 0.09095916 0.09201389 0.0929946 0.09391277 0.0947526 0.09547336 0.09602606 0.09637471 0.09651633
 0.09648375 0.09632966 0.09611151 0.09587546 0.09562124 0.09527168 0.09469645 0.09378479 0.0925066 0.09092951
 0.08920956 0.08757597 0.08631419 0.08574159 0.08614901 0.08768674 0.09025037 0.0934753 0.09687223 0.1000103
 0.1026361 0.1046942 0.1062746 0.1075262 0.1085814 0.1095248 0.1103968 0.1112047 0.1119367 0.1125855
 0.1131648 0.1137042 0.1142286 0.1147441 0.1152377 0.1156899 0.1160963 0.1164809 0.1168835 0.1173257
 0.1177896 0.1182344 0.11864 0.1190244 0.1194104 0.1197872 0.1201238 0.1204161 0.120699 0.1210126
 0.1213709 0.1217605 0.1221507 0.1225049 0.1228028 0.1230574 0.1233021 0.1235605 0.1238335 0.1241118
 0.124389 0.1246614 0.1249263 0.1251865 0.1254545 0.1257389 0.126024 0.126275 0.1264723 0.126636
 0.126808 0.1270111 0.1272332 0.1274487 0.1276498 0.1278573 0.1281013 0.1283883 0.1286875 0.1289549
 0.129172 0.1293572 0.1295425 0.1297452 0.1299641 0.1301915 0.1304208 0.130646 0.1308628 0.1310739
 0.1312879 0.1315106 0.1317381 0.1319618 0.1321766 0.1323828 0.1325831 0.1327808 0.1329825 0.1331975
 0.1334324 0.1336826 0.1339306 0.1341549 0.134345 0.1345075 0.1346593 0.1348159 0.1349854 0.1351709
 0.1353733 0.1355899 0.1358117 0.1360287 0.1362393 0.136453 0.1366783 0.1369123 0.1371422 0.1373578
 0.1375598 0.1377589 0.1379661 0.138184 0.138405 0.1386194 0.1388243 0.1390262 0.139233 0.139444
 0.13965 0.1398446 0.1400322 0.1402224 0.1404192 0.1406211 0.1408278 0.1410419 0.141264 0.1414906
 0.1417149 0.1419317 0.1421412 0.1423476 0.1425539 0.1427603 0.1429673 0.1431747 0.1433803 0.1435829
 0.1437861 0.1439938 0.1442047 0.1444154 0.1446252 0.1448342 0.1450393 0.1452383 0.1454333 0.1456307
 0.1458345 0.1460412 0.1462442 0.1464421 0.1466405 0.1468445 0.1470541 0.1472672 0.1474814 0.1476938
 0.1479041 0.1481151 0.1483272 0.1485366 0.1487422 0.1489483 0.1491589 0.149373 0.1495853 0.1497899
 0.1499868 0.1501825 0.1503837 0.1505901 0.1507983 0.1510058 0.1512087 0.1514047 0.1515986 0.1517972
 0.1519995 0.1521982 0.1523898 0.1525772 0.152766 0.1529625 0.1531693 0.1533845 0.1536052 0.1538281
 0.1540475 0.1542602 0.1544702 0.1546818 0.1548944 0.1551094 0.1553306 0.1555546 0.1557727 0.1559823
 0.1561889 0.1563985 0.1566161 0.1568434 0.1570742 0.1573014 0.1575253 0.1577488 0.1579688 0.1581833
 0.1583947 0.1586037 0.1588086 0.1590119 0.1592185 0.1594309 0.1596503 0.1598737 0.1600901 0.1602941
 0.1604962 0.1607075 0.1609257 0.1611445 0.1613626 0.1615799 0.1617986 0.162026 0.1622611 0.1624899
 0.1627042 0.1629101 0.1631155 0.1633261 0.1635458 0.1637698 0.1639864 0.1641958 0.1644038 0.1645978
 0.1647342 0.1647098 0.1642787 0.1629567 0.1600033 0.1545576 0.1459716 0.1342129 0.1200227 0.1046551
 0.08941045 0.07529143 0.0628982 0.05249866 0.04415773 0.03782764 0.0334022 0.0307942 0.03001691 0.03127689
 0.03507835 0.041921 0.05116692 0.06004568 0.0647341 0.06336733 0.05781988 0.05200151 0.0486156 0.04785476
 0.04856154 0.04974353 0.05108859 0.05278811 0.05516169 0.05829171 0.06201168 0.06630113 0.07147707 0.07778073
 0.08488508 0.09203367 0.09869246 0.104964 0.1113339 0.1180815 0.1249863 0.1315464 0.1373803 0.1424186
 0.1468247 0.150818 0.1545486 0.1580794 0.1614335 0.1646042 0.1674883 0.1698508 0.1714348 0.1721601
 0.1722223 0.1719848 0.171762 0.1716964 0.1718018 0.1720624 0.1724657 0.1729892 0.1736024 0.1742779
 0.1749919 0.1757231 0.1764575 0.1771844 0.1778899 0.1785596 0.1791813 0.1797449 0.1802496 0.1807092
 0.1811422 0.1815577 0.1819563 0.1823336 0.1826845 0.18301 0.1833215 0.1836279 0.1839218 0.1841888
 0.1844231 0.1846333 0.1848356 0.1850445 0.1852631 0.1854831 0.1856978 0.1859093 0.186121 0.1863314
 0.1865392 0.1867453 0.1869467 0.1871386 0.187323 0.187511 0.1877109 0.1879183 0.1881201 0.1883087
 0.1884907 0.1886785 0.1888755 0.1890744 0.1892686 0.1894574 0.1896433 0.1898301 0.1900216 0.1902168
 0.1904131 0.1906138 0.1908236 0.191036 0.1912402 0.1914361 0.1916322 0.191833 0.1920397 0.1922554
 0.1924746 0.192679 0.1928553 0.193013 0.1931775 0.1933689 0.1935856 0.1938077 0.1940186 0.194221
 0.194426 0.1946323 0.1948236 0.1949861 0.1951271 0.1952815 0.1954875 0.1957448 0.1960109 0.1962483
 0.1964573 0.1966598 0.1968734 0.1971065 0.19735 0.1975701 0.1977358 0.1978612 0.1980108 0.1982491
 0.1985796 0.1989335 0.1992308 0.1994527 0.1996416 0.1998477 0.2000954 0.2003632 0.2005658 0.200615
 0.2005542 0.2005769 0.2008445 0.2013234 0.2018445 0.2022804 0.2026203 0.202912 0.2031838 0.2034152
 0.2035567 0.2035824 0.2035462 0.2035884 0.2038415 0.2042971 0.2048019 0.2052107 0.2054993 0.2057145
 0.2058965 0.2060695 0.2062003 0.20615 0.2058182 0.2053934 0.2053031 0.2058017 0.2066877 0.2075213
 0.2080589 0.208382 0.2086573 0.2089295 0.2091575 0.2092511 0.2089874 0.2081441 0.2069411 0.2061514
 0.2064615 0.2077787 0.2093717 0.2105971 0.2113044 0.2116691 0.2119024 0.212111 0.2122207 0.211993
 0.2112902 0.210417 0.2100398 0.2105734 0.2117149 0.2127683 0.2133549 0.2136136 0.2138263 0.2141033
 0.2143047 0.2140032 0.2127283 0.2106598 0.2089678 0.2089859 0.2109091 0.2135612 0.2155599 0.2165048
 0.2168684 0.2169765 0.2165331 0.2151536 0.2129366 0.2104222 0.2084296 0.2079463 0.2094734 0.2122052
 0.2144848 0.2154397 0.2157203 0.21642 0.2177701 0.2191329 0.2198339 0.2196855 0.2188849 0.2176522
 0.2161222 0.2146763 0.214142 0.2152102 0.2175955 0.2201353 0.2218586 0.2227224 0.2231149 0.2227227
 0.2202902 0.2151302 0.2090314 0.2057751 0.2077965 0.213636 0.2195082 0.2230267 0.2245154 0.2252324
 0.2256795 0.2254627 0.2235146 0.2186702 0.2114962 0.2054555 0.2045681 0.2094312 0.2165452 0.221588
 0.2223675 0.2190504 0.2133787 0.2081506 0.206084 0.2081721 0.2132463 0.2191326 0.223959 0.2266689
 0.227011 0.2254423 0.2231018 0.221534 0.2215687 0.2220995 0.2209236 0.2175246 0.2139283 0.211725
 0.2096006 0.2057617 0.201874 0.2019674 0.207201 0.2139288 0.2177989 0.2181669 0.2173093 0.2162724
 0.2130751 0.205554 0.1954464 0.1884677 0.1893044 0.1967364 0.204713 0.2082509 0.2073571 0.2052655
 0.2040743 0.2026327 0.1982377 0.1902339 0.1818014 0.1773615 0.1780131 0.1806546 0.1817525 0.1801756
 0.1759792 0.1693071 0.1624535 0.1605885 0.167328 0.1802382 0.192717 0.1994081 0.1981447 0.1887634
 0.1738656 0.1603969 0.1562839 0.1633606 0.1751822 0.1829845 0.1826462 0.1753983 0.1640773 0.1511984
 0.1401937 0.1357507 0.1409824 0.1542859 0.1693708 0.1783567 0.1761126 0.1642774 0.1516807 0.1479829
 0.1548438 0.1647459 0.1694102 0.1673247 0.1625587 0.1595312 0.1604612 0.1650155 0.1706727 0.1750735
 0.1779017 0.1782568 0.1721145 0.157167 0.1393008 0.1287515 0.1294724 0.1370682 0.1469756 0.1585659
 0.1698676 0.1747539 0.1698389 0.1608989 0.1579802 0.1647476 0.1753514 0.1816152 0.1811566 0.1778346
 0.1757837 0.1749939 0.1733915 0.1716397 0.1733118 0.1799674 0.1884362 0.1943385 0.1966189 0.1971891
 0.1976288 0.1979673 0.1977867 0.1969378 0.1954668 0.1937137 0.1922012 0.1910024 0.1896245 0.1876558
 0.1847836 0.1799303 0.1715859 0.1602364 0.1497563 0.1444986 0.1448913 0.1477453 0.1508306 0.1540693
 0.1553479 0.1494232 0.1346214 0.1182957 0.1114846 0.1182647 0.1326928 0.1455657 0.1514825 0.1493558
 0.1396896 0.1246653 0.110208 0.1042088 0.110365 0.1249489 0.1409887 0.1541907 0.1634508 0.1677984
 0.165987 0.1590373 0.151126 0.1471931 0.1499713 0.1587606 0.1696377 0.176458 0.1738705 0.1626779
 0.1522868 0.1537908 0.1682892 0.1850093 0.1933953 0.1938135 0.1933034 0.1946174 0.19482 0.1929841
 0.1932982 0.1992161 0.2082589 0.2144453 0.2136231 0.2051432 0.1910615 0.1762866 0.1673889 0.1675754
 0.1732751 0.1781807 0.179402 0.1770202 0.1703553 0.159838 0.1512695 0.1522307 0.1632341 0.1766225
 0.1852875 0.1891755 0.1921248 0.1951826 0.1952673 0.1897992 0.1810377 0.1747354 0.1745162 0.1787382
 0.1833429 0.1861074 0.1867438 0.1845788 0.1789628 0.1720032 0.168518 0.171891 0.1806278 0.1897927
 0.1954325 0.1970322 0.1963468 0.1950839 0.193739 0.1917498 0.1886843 0.1857784 0.1856845 0.1896413
 0.1954789 0.1998124 0.2018803 0.2038155 0.2072606 0.2111148 0.2129446 0.2117419 0.2089442 0.2071916
 0.2082103 0.2114426 0.2144465 0.2149313 0.2129056 0.2108733 0.2115442 0.2152659 0.219989 0.2235824
 0.2255632 0.2266663 0.2275991 0.228431 0.2285472 0.2271145 0.2242531 0.2217387 0.2217501 0.2247063
 0.2288636 0.2321155 0.233689 0.2340461 0.2337563 0.2329009 0.2314124 0.2296044 0.2281497 0.227566
 0.2278573 0.2286643 0.2296085 0.2304434 0.231046 0.231413 0.2316284 0.2317754 0.2318973 0.232029
 0.232182 0.2322904 0.2322613 0.2321153 0.2320072 0.2320543 0.2321958 0.2322739 0.2321965 0.2319397
 0.2314406 0.2306118 0.2294737 0.2281614 0.2267617 0.2252437 0.2236535 0.2223417 0.2218657 0.2225721
 0.2242718 0.2263508 0.2281837 0.2294389 0.230093 0.2303051 0.2303087 0.2303115 0.2303985 0.2305184
 0.2305737 0.2305121 0.2303377 0.2300783 0.2297717 0.2294657 0.2291948 0.2289384 0.2286179 0.2281662
 0.2276085 0.227056 0.2266065 0.2262621 0.2259461 0.225582 0.225137 0.2246078 0.2239869 0.2232542
 0.2223971 0.2214388 0.2204439 0.2194847 0.2185966 0.2177591 0.2169104 0.215981 0.2149416 0.2138405
 0.2127835 0.2118531 0.2110496 0.2103108 0.2095698 0.2087838 0.2079358 0.2070391 0.2061305 0.2052398
 0.2043652 0.2034869 0.2025866 0.2016438 0.2006264 0.1995027 0.1982617 0.1969176 0.1954978 0.1940247
 0.1924929 0.1908508 0.189004 0.1868414 0.1842632 0.1811996 0.1776285 0.1735969 0.1692284 0.1646987
 0.1601867 0.155841 0.1517809 0.1481178 0.144964 0.1424172 0.1405311 0.1392997 0.1386758 0.1386196
 0.1391306 0.1402252 0.1418827 0.1440176 0.1464972 0.1491665 0.1518586 0.1544168 0.1567458 0.1588526
 0.1608169 0.1626994 0.1644833 0.1661112 0.1675631 0.1688726 0.1700729 0.1711567 0.1720992 0.1728963
 0.1735682 0.1741433 0.1746506 0.1751162 0.1755449 0.1759043 0.1761417 0.1762306 0.1762108 0.1761891
 0.1762959 0.1766143 0.17713 0.1777534 0.1784001 0.1790487 0.1797221 0.1804417 0.1812183 0.182069
 0.1830137 0.1840537 0.1851706 0.1863471 0.1875837 0.1888946 0.1902878 0.1917456 0.1932194 0.1946367
 0.1959159 0.1969896 0.1978319 0.1984656 0.1989356 0.1992753 0.1994948 0.1995897 0.1995583 0.1994186
 0.1992103 0.1989727 0.198721 0.1984453 0.1981248 0.1977342 0.1972486 0.1966583 0.1959785 0.1952445
 0.1945106 0.1938543 0.1933599 0.1930728 0.1929592 0.1929196 0.1928515 0.1927035 0.1924772 0.1921938
 0.1918729 0.1915293 0.1911605 0.1907342 0.1902085 0.1895661 0.1888163 0.1879669 0.1870129 0.1859507
 0.1847877 0.1835328 0.1821841 0.1807312 0.1791719 0.1775213 0.1757968 0.1740038 0.1721565 0.1703097
 0.1685409 0.1668979 0.1653793 0.1639579 0.1626023 0.161281 0.1599683 0.1586543 0.1573568 0.1561288
 0.1550407 0.1541261 0.1533471 0.1526274 0.1519202 0.1512381 0.1506236 0.1501007 0.1496574 0.1492695
 0.148928 0.1486361 0.1483989 0.1482354 0.1481753 0.148215 0.1482908 0.1483185 0.1482517 0.1480977
 0.1478984 0.1477014 0.1475345 0.1474032 0.1473054 0.1472288 0.147128 0.1469186 0.1464977 0.1457775
 0.144722 0.1433687 0.1418108 0.140163 0.1385469 0.1370749 0.1358178 0.1347955 0.1340006 0.1334059
 0.132957 0.1325954 0.1323028 0.1321123 0.1320773 0.1322061 0.1324073 0.1325335 0.1325248 0.1324858
 0.1325907 0.1329401 0.1335135 0.1342044 0.1348813 0.1354533 0.1358953 0.1362141 0.1364212 0.1365341
 0.1365612 0.1364893 0.1363167 0.1360753 0.1357923 0.1354653 0.1350888 0.1346647 0.1341837 0.1336278
 0.132979 0.1322183 0.1313483 0.1304002 0.1293705 0.1282029 0.1269134 0.1256907 0.1248028 0.1244202
 0.1245241 0.1249254 0.1253881 0.1257899 0.1261086 0.1262448 0.1260452 0.1256463 0.125645 0.1266889
 0.1288533 0.1315182 0.1338804 0.1355092 0.1363996 0.1366731 0.1364073 0.1356639 0.1344776 0.1328312
 0.1307458 0.1283324 0.1257101 0.1230003 0.1203986 0.1180938 0.1161429 0.1145248 0.1132304 0.1123171
 0.1119317 0.1117569 0.1100749 0.1046577 0.09618264 0.08979696 0.09081185 0.09874763 0.1076414 0.1123459
 0.1126471 0.1112325 0.109985 0.1091888 0.1087381 0.1087672 0.1094069 0.1105306 0.111779 0.1127811
 0.1133825 0.1136128 0.1134375 0.1125522 0.1103152 0.105951 0.09917425 0.09076521 0.0823241 0.07533358
 0.07047506 0.06763113 0.06621124 0.0654961 0.06499414 0.06467333 0.06484665 0.06580687 0.06758521 0.07002638
 0.07295527 0.07614559 0.07921408 0.08177102 0.08371985 0.08525699 0.08654518 0.08752216 0.08804728 0.08809583
 0.08776276 0.08717256 0.08643968 0.08565477 0.08483401 0.08390257 0.08281954 0.08173569 0.08092554 0.08052085
 0.08040444 0.08039322 0.08041047 0.08044928 0.08048867 0.08050077 0.08048684 0.08049829 0.0806352 0.08097009
 0.08144709 0.08190791 0.0822283 0.08240087 0.08249795 0.08255041 0.08244106 0.08200327 0.08130734 0.08069076
 0.08032459 0.07990971 0.07906041 0.07789257 0.07697098 0.07670334 0.07698391 0.07740586 0.07763304 0.07755953
 0.07730929 0.0771816 0.07744904 0.07804823</values></Ydata></ScSm><ScRf><Ydata ylabel="Single channel"><values byteorder="INTEL" format="FLOAT32" numvalues="1820"> 0.06054356 0.06071118 0.06081542 0.06085496 0.06085479 0.0608622 0.06092759 0.06107215 0.06126885 0.06145678
 0.06158382 0.06164078 0.06164775 0.06161549 0.06155023 0.06149554 0.06152583 0.06167403 0.06188423 0.06204922
 0.06209575 0.06204811 0.06201405 0.06207753 0.06218363 0.06215578 0.06186393 0.06137604 0.06091382 0.06064924
 0.06059827 0.06075191 0.061186 0.06185333 0.06234827 0.06219556 0.06144666 0.06071008 0.06047539 0.06064486
 0.06081602 0.06074722 0.06043126 0.06001157 0.05983234 0.06034211 0.06164995 0.06316555 0.06381568 0.06272218
 0.05982754 0.05609299 0.05314428 0.0524 0.05407168 0.05687818 0.05900796 0.0595649 0.05899677 0.05817683
 0.0574629 0.05681258 0.05639371 0.05661762 0.05757256 0.05863942 0.05881025 0.05755138 0.05544004 0.05375452
 0.05330537 0.05392664 0.05516392 0.05676993 0.05800498 0.0572399 0.05356249 0.04880826 0.04673914 0.04946397
 0.05518488 0.05995522 0.0611906 0.05911544 0.055611 0.05265554 0.0515755 0.05269251 0.05527849 0.0581618
 0.06043168 0.06146869 0.06078926 0.05847193 0.05556508 0.05357321 0.05353491 0.05562183 0.05910046 0.06239138
 0.06378834 0.06272209 0.06013749 0.05749097 0.05579149 0.05561169 0.05723384 0.0603571 0.06407045 0.06738096
 0.06962198 0.07052484 0.07027823 0.06941019 0.06838611 0.06752159 0.06725492 0.06788053 0.06883273 0.06890195
 0.0675538 0.06565081 0.06456847 0.06477602 0.06546457 0.06552771 0.06467643 0.06325652 0.06115835 0.05780225
 0.05347209 0.0496632 0.04758871 0.04726144 0.04839056 0.05084963 0.05361453 0.05469612 0.05331153 0.05127847
 0.05120621 0.05371225 0.05710024 0.05943901 0.06035291 0.06089965 0.06220381 0.06430286 0.0659951 0.06574808
 0.06322409 0.06013676 0.05903811 0.06081148 0.06382202 0.06592539 0.06672534 0.06733395 0.06842852 0.06920446
 0.06821455 0.06508993 0.06146897 0.05998474 0.06196792 0.06611226 0.06942274 0.06943028 0.06585417 0.06066781
 0.05656163 0.0550806 0.05621553 0.0594321 0.06425914 0.06974104 0.07419614 0.07615843 0.07543775 0.07304306
 0.0700319 0.06653054 0.06227266 0.05822113 0.05678009 0.05952683 0.0651954 0.07072952 0.07400985 0.0749127
 0.07412382 0.07183188 0.06793085 0.06330173 0.06023446 0.06064748 0.06377619 0.06660637 0.06703106 0.06577122
 0.06482515 0.06497701 0.06550677 0.06572655 0.06597153 0.06703533 0.06903373 0.07111272 0.07227265 0.07227194
 0.07166523 0.07115826 0.07096492 0.07064927 0.06974169 0.06868686 0.06878164 0.07075244 0.07375264 0.07623245
 0.07749022 0.07792141 0.07797913 0.07738121 0.07551818 0.07259791 0.070117 0.06975208 0.07173644 0.07471018
 0.07713357 0.07839616 0.0786754 0.07837947 0.07787164 0.07735157 0.07690945 0.07677551 0.07726851 0.07833451
 0.07943755 0.08009624 0.08027808 0.08015507 0.07976332 0.07908404 0.07829157 0.07774223 0.07771534 0.0782093
 0.07899655 0.0798241 0.08049423 0.08082286 0.08070789 0.0802734 0.07979699 0.07945766 0.07927245 0.0792649
 0.07951736 0.08001125 0.08055542 0.08094539 0.08112349 0.08114943 0.0810833 0.08094299 0.08074424 0.08055125
 0.08047834 0.08060843 0.08089073 0.08117443 0.08138439 0.08159518 0.08187014 0.08210705 0.08214432 0.08197662
 0.08177046 0.0816828 0.08173418 0.08184797 0.08193852 0.08193097 0.0817526 0.08139503 0.08100255 0.08082073
 0.08100227 0.08149709 0.08213885 0.08276325 0.08323583 0.0834796 0.08353093 0.08350046 0.08344664 0.08333752
 0.08314718 0.08294551 0.08287741 0.08305582 0.08345971 0.08393942 0.08433412 0.08457169 0.08467004 0.08470684
 0.08478989 0.08497092 0.08516678 0.08523977 0.08517364 0.08510251 0.08514853 0.08528386 0.08537584 0.08534203
 0.08524269 0.08521814 0.08534211 0.08555636 0.08575445 0.0859012 0.08604906 0.0862471 0.08645113 0.08654165
 0.08645111 0.0862563 0.08610278 0.08605074 0.08605549 0.08609098 0.08620587 0.08642541 0.08666517 0.08680228
 0.08681251 0.08679076 0.08683039 0.08691253 0.08693323 0.08682501 0.08662796 0.08644789 0.08636868 0.0864045
 0.08650722 0.08660057 0.08662058 0.08654903 0.08642016 0.08628921 0.08619148 0.08614093 0.08616497 0.08630489
 0.0865488 0.08678068 0.08684502 0.08668734 0.08641726 0.08621236 0.08615625 0.08617478 0.08612633 0.08594063
 0.08566652 0.08540444 0.08521599 0.08509562 0.08500487 0.08492035 0.08486141 0.08488011 0.08500585 0.0851802
 0.08526725 0.08516513 0.08490665 0.08462622 0.08443739 0.08436461 0.08436717 0.0843889 0.08439967 0.08442009
 0.08448628 0.08457378 0.08459822 0.08451784 0.08439428 0.08433059 0.0843877 0.08456381 0.08479482 0.08496378
 0.08497596 0.08485571 0.08472927 0.08469668 0.08475384 0.0848428 0.08493145 0.0850227 0.08512075 0.08522445
 0.08534713 0.08551647 0.08574486 0.08600633 0.08624722 0.08642209 0.08652981 0.08662395 0.08678047 0.08703926
 0.08737032 0.08769795 0.08796103 0.08815446 0.08831643 0.08847998 0.08864881 0.08882587 0.08904207 0.08932783
 0.08966564 0.09000117 0.09030031 0.09057267 0.09084339 0.09112437 0.09141567 0.09172472 0.09207739 0.09249499
 0.09294605 0.09333941 0.09359711 0.09373365 0.09384747 0.09404285 0.09436224 0.09475814 0.09511124 0.09531814
 0.09539774 0.09548237 0.09567205 0.09593111 0.09616816 0.0963832 0.09667234 0.09708952 0.09755795 0.09794085
 0.09817606 0.09832244 0.09848282 0.09869395 0.09889831 0.09902547 0.09908439 0.0991504 0.09927132 0.09943295
 0.09962653 0.09989423 0.1002684 0.1007009 0.101097 0.1014013 0.1016205 0.1017831 0.1019087 0.1020027
 0.1020578 0.102073 0.1020817 0.102132 0.1022258 0.1023107 0.1023516 0.1023806 0.1024553 0.1025977
 0.1028026 0.1030694 0.1033857 0.1037004 0.1039693 0.1042226 0.1045338 0.1049036 0.1052252 0.1054012
 0.105455 0.1054794 0.1055172 0.1055542 0.1056073 0.1057412 0.1059891 0.1063118 0.1066525 0.1069933
 0.1073428 0.1076946 0.1080123 0.108245 0.1083579 0.1083622 0.1083209 0.1083202 0.1084277 0.1086599
 0.1089765 0.1093073 0.1095941 0.1098039 0.1099112 0.1099029 0.1098241 0.1097867 0.1098832 0.1100851
 0.1102536 0.1102566 0.1100558 0.1096838 0.1091762 0.1085574 0.1078758 0.1072181 0.1066717 0.1062823
 0.1060595 0.1060211 0.1062113 0.1066526 0.1072849 0.1079823 0.1086298 0.109153 0.1094737 0.1094943
 0.1091698 0.1085696 0.1078375 0.107102 0.1064332 0.105842 0.1052897 0.1047327 0.1042076 0.1038664
 0.1039039 0.1044421 0.1054703 0.1068551 0.1083852 0.1098405 0.1110739 0.1120585 0.1128618 0.1135696
 0.1142338 0.1148826 0.1155425 0.1162189 0.1168681 0.1174318 0.1179013 0.1183195 0.11872 0.1190955
 0.1194235 0.1196947 0.1199188 0.1201231 0.1203305 0.1205205 0.120631 0.1206258 0.1205398 0.1204347
 0.1203276 0.1201792 0.119936 0.1195726 0.1191221 0.1187007 0.1184963 0.1186922 0.1193606 0.1204142
 0.121674 0.1229862 0.1242625 0.1254261 0.1263788 0.1270574 0.1274948 0.1277947 0.1280558 0.1283312
 0.1286346 0.128954 0.1292675 0.1295617 0.1298405 0.1301213 0.1304243 0.1307559 0.1310935 0.1313956
 0.1316436 0.131871 0.1321418 0.1324922 0.1328919 0.1332707 0.1335915 0.1338836 0.1341909 0.1345016
 0.1347628 0.1349561 0.135126 0.1353345 0.1356142 0.1359586 0.1363246 0.1366477 0.136885 0.1370543
 0.137215 0.1374127 0.1376505 0.1379071 0.1381635 0.1384126 0.1386562 0.1389054 0.1391775 0.1394794
 0.1397838 0.140039 0.1402175 0.140352 0.1405072 0.1407176 0.1409613 0.141193 0.1413935 0.1415906
 0.1418308 0.1421266 0.1424329 0.1426854 0.1428595 0.1429878 0.143122 0.1432899 0.1434856 0.14369
 0.1438904 0.1440854 0.1442805 0.1444843 0.1447032 0.1449341 0.1451647 0.1453829 0.1455865 0.1457813
 0.1459754 0.1461757 0.1463895 0.1466274 0.146898 0.1471931 0.1474807 0.1477226 0.1479039 0.1480401
 0.1481594 0.1482851 0.148433 0.148611 0.1488162 0.1490348 0.1492506 0.1494554 0.1496525 0.14985
 0.1500518 0.1502569 0.1504622 0.150665 0.1508683 0.1510839 0.1513227 0.1515781 0.1518253 0.1520443
 0.1522364 0.1524173 0.1526 0.1527868 0.1529727 0.1531527 0.153328 0.1535039 0.1536843 0.1538694
 0.1540578 0.1542483 0.154439 0.1546287 0.1548184 0.1550126 0.1552155 0.155426 0.155635 0.1558348
 0.1560283 0.156224 0.1564242 0.1566248 0.1568241 0.1570242 0.1572256 0.1574264 0.1576258 0.1578253
 0.1580267 0.1582301 0.158433 0.1586329 0.1588297 0.1590252 0.1592194 0.1594119 0.1596029 0.1597936
 0.1599873 0.1601869 0.1603906 0.1605932 0.1607959 0.161008 0.1612326 0.161458 0.1616707 0.1618705
 0.1620716 0.1622871 0.1625152 0.1627415 0.1629556 0.1631616 0.1633678 0.1635736 0.1637726 0.1639622
 0.1641438 0.1643192 0.1644909 0.1646632 0.1648428 0.1650357 0.1652396 0.165442 0.1656331 0.1658181
 0.1660074 0.1662033 0.1664026 0.1666047 0.1668072 0.1670042 0.1671937 0.1673818 0.1675777 0.167787
 0.1680062 0.1682234 0.1684309 0.1686341 0.1688398 0.1690446 0.1692431 0.1694385 0.169638 0.1698457
 0.1700614 0.1702798 0.1704955 0.1707124 0.170938 0.1711673 0.171386 0.171589 0.1717844 0.1719803
 0.172179 0.1723803 0.1725838 0.1727936 0.1730147 0.1732413 0.1734609 0.1736711 0.1738801 0.1740921
 0.1743055 0.1745192 0.1747287 0.1749288 0.1751271 0.1753395 0.175571 0.1758123 0.1760497 0.1762684
 0.1764642 0.1766539 0.1768509 0.177036 0.1771578 0.1771108 0.1766362 0.1752034 0.1719924 0.1660625
 0.1567283 0.143981 0.128635 0.1120403 0.09558972 0.08035571 0.06698249 0.05576622 0.04678898 0.04000087
 0.03527406 0.03249824 0.0316771 0.03302768 0.03709598 0.04443542 0.0543756 0.06393388 0.06897984 0.06749673
 0.06150769 0.05522994 0.05157406 0.05074502 0.05150105 0.05278072 0.05424451 0.05608428 0.05863398 0.06198586
 0.06597076 0.07057221 0.07613094 0.08290346 0.09053355 0.09820369 0.1053415 0.1120652 0.1189038 0.1261592
 0.1335928 0.1406617 0.1469479 0.1523661 0.1570888 0.1613589 0.165348 0.1691295 0.1727303 0.1761436
 0.1792534 0.1817969 0.1834902 0.1842469 0.1842825 0.1839951 0.1837318 0.1836514 0.183764 0.1840386
 0.1844545 0.1849948 0.1856394 0.1863638 0.1871373 0.1879309 0.1887258 0.1895072 0.1902543 0.1909494
 0.191587 0.1921728 0.1927166 0.1932269 0.1937021 0.1941348 0.1945283 0.1948986 0.1952569 0.1956014
 0.1959274 0.196235 0.1965254 0.196798 0.1970502 0.1972795 0.19749 0.1976945 0.197906 0.1981286
 0.1983586 0.1985889 0.1988093 0.199013 0.1992039 0.1993927 0.1995855 0.199782 0.1999796 0.2001757
 0.2003691 0.2005632 0.2007609 0.2009596 0.2011544 0.2013471 0.2015431 0.2017417 0.201935 0.2021183
 0.2022981 0.2024866 0.2026874 0.2028922 0.2030953 0.2033059 0.2035335 0.2037687 0.2039926 0.2042027
 0.2044116 0.2046271 0.2048452 0.2050568 0.2052494 0.2054105 0.2055444 0.2056828 0.2058636 0.2060973
 0.2063549 0.206595 0.2068005 0.2069866 0.2071744 0.2073672 0.2075539 0.2077234 0.2078794 0.2080489
 0.2082655 0.2085308 0.2088067 0.2090582 0.2092842 0.2095025 0.209728 0.20997 0.2102205 0.2104433
 0.2106067 0.2107325 0.2108953 0.2111609 0.2115232 0.2119028 0.2122167 0.212449 0.2126478 0.212868
 0.2131355 0.2134237 0.2136358 0.2136723 0.2135791 0.2135713 0.2138367 0.2143498 0.2149263 0.2154123
 0.2157758 0.2160595 0.2163041 0.2165087 0.2166362 0.2166601 0.2166302 0.2166864 0.2169645 0.2174584
 0.2180118 0.2184719 0.2188064 0.2190528 0.2192416 0.2193945 0.2194885 0.2193986 0.2190322 0.2185836
 0.2184938 0.2190249 0.2199598 0.2208298 0.2213788 0.2216974 0.2219619 0.222219 0.2224346 0.2225259
 0.2222506 0.2213487 0.2200396 0.2191588 0.2194614 0.2208586 0.2225654 0.2238901 0.2246687 0.225079
 0.2253349 0.2255479 0.2256449 0.2253743 0.2245848 0.2236046 0.2231644 0.2237285 0.2249754 0.2261418
 0.2268004 0.2270886 0.2273043 0.2275667 0.2277381 0.2273819 0.2260066 0.2237948 0.2219784 0.2219757
 0.2240064 0.2268303 0.2289752 0.2300003 0.2303911 0.2304864 0.2299756 0.2284636 0.2260703 0.2233771
 0.2212512 0.2207356 0.2223572 0.2252536 0.2276621 0.228666 0.2289694 0.2297286 0.2311648 0.2325815
 0.2332696 0.2330569 0.2321738 0.2308506 0.2292109 0.2276475 0.2270451 0.2281494 0.230663 0.2333533
 0.2351904 0.2361256 0.236558 0.2361343 0.2335046 0.2279458 0.2213914 0.217893 0.2200413 0.2262574
 0.2324916 0.236206 0.2377618 0.2385128 0.238995 0.2387743 0.2366929 0.2315017 0.2238195 0.2173592
 0.2164112 0.2216001 0.2291854 0.2345613 0.2353911 0.2318482 0.2257929 0.2202206 0.2180313 0.2202698
 0.2256775 0.2319382 0.2370626 0.2399288 0.2402752 0.2385967 0.2361099 0.2344567 0.2345148 0.2350998
 0.2338642 0.2302617 0.2264534 0.2241315 0.2218958 0.2178422 0.2137519 0.2139175 0.2195646 0.2267969
 0.2309761 0.2314262 0.2305851 0.2295679 0.2262541 0.2183313 0.2076611 0.2003655 0.2014763 0.2097141
 0.2186345 0.2229446 0.2227119 0.2214684 0.2214969 0.2215004 0.2184233 0.2114426 0.204 0.2009089
 0.2032242 0.2072972 0.2090928 0.2074003 0.2023987 0.1943699 0.1860432 0.1834267 0.1907311 0.2052121
 0.219326 0.226943 0.2255784 0.2150269 0.1982405 0.1831514 0.1788095 0.1872632 0.2010632 0.21012
 0.2097001 0.2012415 0.1880545 0.1730922 0.1603442 0.155216 0.1612831 0.1766823 0.1941461 0.2045802
 0.202075 0.1885386 0.1741716 0.1701218 0.1782927 0.1900031 0.1957082 0.1936634 0.1885448 0.1854508
 0.1869787 0.1927563 0.1998275 0.2054324 0.2092096 0.2100487 0.2031181 0.1856654 0.1646922 0.152344
 0.1532983 0.1623541 0.1741463 0.1879689 0.2014737 0.207357 0.2016034 0.1911132 0.1878354 0.1960772
 0.2088162 0.2162946 0.215679 0.2115718 0.2089108 0.2077159 0.2055487 0.2031985 0.2048844 0.212432
 0.2220857 0.228704 0.2311067 0.2316096 0.2320953 0.232583 0.2325564 0.2318302 0.2304756 0.2289439
 0.2279238 0.2275642 0.2273353 0.2268273 0.2257273 0.2226052 0.2152167 0.2036613 0.1923995 0.1867201
 0.1871282 0.1897032 0.191926 0.1941457 0.1941403 0.1855899 0.1664259 0.1456787 0.1369078 0.145098
 0.1629459 0.1791846 0.1872148 0.1856652 0.1750173 0.1578074 0.1413189 0.1353104 0.1440634 0.1622756
 0.1807241 0.1942134 0.2021878 0.204331 0.1995643 0.1891758 0.178105 0.1721281 0.1743258 0.1837137
 0.1955836 0.2027406 0.1990216 0.1854106 0.1727327 0.1736767 0.1894934 0.2079244 0.2169804 0.2170804
 0.2162045 0.2174898 0.2176637 0.2157346 0.2164953 0.2239456 0.235413 0.2441869 0.2454085 0.2379974
 0.2240506 0.2093352 0.201775 0.2050613 0.2143967 0.2216596 0.2232297 0.2195093 0.2101505 0.1960852
 0.1845944 0.1849184 0.1975557 0.2130769 0.2228373 0.2268439 0.2298171 0.2330718 0.2329311 0.2263055
 0.2158603 0.208376 0.2080463 0.21281 0.2178425 0.2206426 0.2210595 0.2184076 0.2118971 0.203916
 0.2000534 0.2042378 0.2146474 0.2253877 0.2317405 0.2331086 0.2316346 0.2294186 0.2271065 0.2240654
 0.2197882 0.2157044 0.2148968 0.2188111 0.2249581 0.2294774 0.2315599 0.233709 0.2378056 0.2425166
 0.2449187 0.2436866 0.2403446 0.2379299 0.2385584 0.2417541 0.2448049 0.2450738 0.2425058 0.2399155
 0.2403954 0.2443671 0.2495234 0.2534573 0.2556205 0.2568259 0.2578436 0.2587258 0.2587647 0.2570285
 0.2536889 0.2507941 0.2508119 0.2541781 0.2588803 0.2625362 0.2643168 0.2648033 0.2646706 0.2639891
 0.2626124 0.2608139 0.2593056 0.2586696 0.258932 0.2597173 0.2606426 0.2614839 0.2621358 0.262585
 0.262887 0.2630942 0.2632302 0.2633325 0.2634332 0.2634873 0.2634189 0.2632753 0.2632401 0.2634302
 0.2637463 0.2639829 0.264016 0.2638032 0.2632708 0.2623402 0.2610643 0.2596142 0.2580881 0.2564429
 0.2547237 0.2533203 0.2528572 0.2537286 0.2557338 0.2581918 0.2604007 0.2619972 0.2629704 0.2634746
 0.2636814 0.2637302 0.2637105 0.2636493 0.2635266 0.2633206 0.263037 0.2626995 0.262329 0.2619471
 0.2615883 0.261282 0.2610168 0.2607386 0.2603926 0.2599604 0.2594609 0.2589305 0.2583941 0.2578374
 0.2572056 0.2564477 0.2555664 0.2546214 0.2536906 0.2528287 0.2520431 0.2512951 0.2505317 0.2497177
 0.2488267 0.2478205 0.2466838 0.245492 0.2443992 0.2435215 0.2428418 0.2422422 0.2416043 0.2408606
 0.2399899 0.2390115 0.2379771 0.2369298 0.2358662 0.2347526 0.233564 0.2322913 0.2309293 0.22948
 0.2279582 0.2263815 0.2247645 0.2231225 0.2214515 0.2196932 0.2177297 0.2154212 0.2126456 0.2093187
 0.2054121 0.200981 0.1961764 0.1912131 0.186307 0.1816302 0.1773065 0.1734294 0.1700744 0.1673071
 0.1651865 0.1637557 0.1630323 0.1630157 0.1636989 0.165059 0.1670325 0.1695035 0.1723143 0.175292
 0.1782712 0.1811083 0.1837071 0.1860609 0.1882507 0.1903589 0.1923785 0.1942316 0.1958645 0.1972854
 0.198518 0.1995616 0.2004116 0.2010926 0.2016532 0.202133 0.2025454 0.2028924 0.2031856 0.2034413
 0.2036647 0.2038559 0.2040277 0.2042061 0.2044127 0.2046524 0.2049189 0.2052135 0.2055601 0.2059909
 0.2065091 0.2070778 0.2076543 0.2082263 0.2088128 0.2094483 0.2101702 0.2110103 0.2119902 0.2131188
 0.2143809 0.2157292 0.2170954 0.2184094 0.219601 0.2206014 0.2213627 0.2218777 0.2221694 0.2222691
 0.2222076 0.2220153 0.221719 0.2213379 0.2208851 0.2203715 0.2198077 0.2192011 0.2185502 0.2178509
 0.2171128 0.2163682 0.2156543 0.2149863 0.2143511 0.2137276 0.2131086 0.2125006 0.2119076 0.2113201
 0.2107255 0.2101226 0.2095256 0.2089523 0.2084028 0.2078455 0.2072244 0.2064938 0.2056478 0.204711
 0.2036999 0.2026049 0.2014131 0.2001302 0.1987708 0.1973398 0.195837 0.1942701 0.1926491 0.1909667
 0.1891921 0.187294 0.1852831 0.183233 0.1812445 0.1793825 0.1776543 0.176041 0.1745305 0.1731183
 0.1717923 0.1705269 0.1692962 0.1680993 0.1669625 0.1659053 0.1649138 0.1639621 0.1630486 0.1622015
 0.1614571 0.160834 0.1603219 0.1598906 0.1595137 0.1591812 0.158905 0.1587218 0.1586652 0.1587121
 0.1587764 0.1587801 0.1587122 0.158609 0.1585024 0.1584023 0.158309 0.1582265 0.1581595 0.1580881
 0.1579489 0.1576501 0.1571028 0.1562416 0.1550392 0.1535207 0.1517614 0.149879 0.1480248 0.1463436
 0.1449188 0.1437703 0.1428932 0.1422593 0.1417969 0.1414219 0.1411 0.1408697 0.140811 0.1409658
 0.1412507 0.1414859 0.1415653 0.141573 0.1416953 0.1420586 0.1426635 0.1434148 0.1441844 0.1448774
 0.1454481 0.1458661 0.1461123 0.1462116 0.146213 0.146142 0.1460072 0.1458242 0.145599 0.1453198
 0.1449783 0.1445654 0.1440646 0.1434784 0.1428269 0.1421062 0.1412984 0.1404014 0.139392 0.1382242
 0.1369563 0.1358245 0.1351165 0.1350002 0.1354599 0.1363154 0.1373283 0.1383589 0.1393551 0.1401662
 0.1405663 0.1406141 0.1408443 0.1418841 0.1438551 0.1462405 0.1483431 0.1497859 0.1505506 0.1507112
 0.1503146 0.1494228 0.1480657 0.1461986 0.1438307 0.1410986 0.1381462 0.1350887 0.1321153 0.1294432
 0.1271852 0.1253687 0.12399 0.1230677 0.1227063 0.1225293 0.1206612 0.1146911 0.1053967 0.09842131
 0.09953608 0.1081607 0.1177631 0.1227528 0.1229292 0.1212316 0.1197152 0.1187081 0.1181219 0.1181094
 0.1187924 0.1200116 0.1213762 0.1224898 0.123178 0.1234677 0.1233279 0.1224189 0.1200055 0.1152189
 0.1077692 0.09854761 0.0893174 0.08168539 0.076373 0.07323979 0.0716563 0.070868 0.0703459 0.07002734
 0.07022284 0.07124794 0.0731566 0.07580192 0.07900175 0.08250494 0.08589146 0.08873904 0.09093022 0.09264961
 0.09406058 0.09511478 0.09568372 0.09574343 0.09539056 0.09476572 0.09400183 0.0931854 0.09230366 0.09126172
 0.09004109 0.08884245 0.0879686 0.08754046 0.08741874 0.08740536 0.08740783 0.08740656 0.08738662 0.08733463
 0.08725113 0.08718014 0.08723633 0.0875269 0.0880153 0.08852252 0.08888038 0.0890543 0.08912161 0.08912249
 0.08892643 0.08835264 0.08749399 0.08673459 0.08626273 0.08574846 0.084773 0.08346593 0.08243723 0.08210897
 0.08233617 0.08267215 0.08279614 0.08265403 0.08239655 0.08230338 0.08261061 0.08323084 0.08372103 0.08369078
</values></Ydata></ScRf><Data_Parameters_AB><parameter name="DPF">1</parameter><parameter name="NPT">3497</parameter><parameter name="FXV">3996</parameter><parameter name="LXV">500</parameter><parameter name="CSF">1</parameter><parameter name="MXY">0.176986381411552</parameter><parameter name="MNY">0.0214907974004745</parameter><parameter name="DAT">30/05/2022</parameter><parameter name="TIM">12:09:58.134 (GMT+2)</parameter><parameter name="DXU">WN</parameter></Data_Parameters_AB><AB__Qtest><MainReport name="Quality Test Report"><Header><Line><Legend>Test result ok/not ok [1/0]: </Legend><Value>0</Value></Line><Line><Legend>Method file: </Legend><Value>C:\Users\Public\Documents\Bruker\OPUS_8.2.28\QT\IRBT_v3_default.QT</Value></Line></Header><Matrix><Line><Legend></Legend><Legend>min</Legend><Legend>max</Legend><Legend>measured</Legend></Line><Line><Value>Absorption (X-Range 1):</Value><Value>0.400000</Value><Value>2.000000</Value><Value>0.051459</Value></Line><Line><Value>Noise (X-Range 4):</Value><Value></Value><Value>0.000300</Value><Value>0.000061</Value></Line><Line><Value>Signal/Noise (X-Range 2):</Value><Value>200.000000</Value><Value></Value><Value>14.232796</Value></Line><Line><Value>Signal/Noise (X-Range 3):</Value><Value>40.000000</Value><Value></Value><Value>17.410176</Value></Line><Line><Value>Water vapour (X-Range 5):</Value><Value></Value><Value>0.000300</Value><Value>0.000096</Value></Line><Line><Value>Signal/Water (X-Range 2):</Value><Value>100.000000</Value><Value></Value><Value>9.103539</Value></Line><Line><Value>Signal/Water (X-Range 3):</Value><Value>20.000000</Value><Value></Value><Value>11.135845</Value></Line><Line><Value>Fringes (X-Range 6):</Value><Value></Value><Value>0.000100</Value><Value>0.000070</Value></Line></Matrix></MainReport></AB__Qtest><Data_Parameters_ScSm><parameter name="DPF">1</parameter><parameter name="NPT">1814</parameter><parameter name="FXV">3996.33169228125</parameter><parameter name="LXV">499.541461535156</parameter><parameter name="CSF">1</parameter><parameter name="MXY">0.234046146273613</parameter><parameter name="MNY">0.0300169121474028</parameter><parameter name="DAT">30/05/2022</parameter><parameter name="TIM">12:09:58.134 (GMT+2)</parameter><parameter name="DXU">WN</parameter></Data_Parameters_ScSm><Data_Parameters_ScRf><parameter name="DPF">1</parameter><parameter name="NPT">1820</parameter><parameter name="FXV">4004.04661832813</parameter><parameter name="LXV">495.683998511719</parameter><parameter name="CSF">1</parameter><parameter name="MXY">0.264803290367126</parameter><parameter name="MNY">0.0316771008074284</parameter><parameter name="DAT">30/05/2022</parameter><parameter name="TIM">12:09:31.651 (GMT+2)</parameter><parameter name="DXU">WN</parameter></Data_Parameters_ScRf><Optic_Parameters_Rf><parameter name="APR">0</parameter><parameter name="APT">Open</parameter><parameter name="BMS">KBr</parameter><parameter name="DTC">RT-DLaTGS_IR-Biotyper [Microplate reader]</parameter><parameter name="HPF">0</parameter><parameter name="LPF">10.0</parameter><parameter name="LPV">4000</parameter><parameter name="PGR">0</parameter><parameter name="RCH">Module port</parameter><parameter name="RDX">0</parameter><parameter name="SRC">MIR</parameter><parameter name="VEL">10.0</parameter><parameter name="SON">Off</parameter></Optic_Parameters_Rf><Acquisition_Parameters_Rf><parameter name="ADT">1</parameter><parameter name="AQM">DD</parameter><parameter name="CFE">0</parameter><parameter name="COR">0</parameter><parameter name="DEL">0</parameter><parameter name="DLY">0</parameter><parameter name="HFW">8000</parameter><parameter name="LFW">0</parameter><parameter name="NSR">32</parameter><parameter name="PLF">AB</parameter><parameter name="RES">6</parameter><parameter name="RGN">-1</parameter><parameter name="STR">0</parameter><parameter name="TCL">MakeCompatibleScalar (0, {WSV=1.000000, ARV=0});</parameter><parameter name="TDL">37</parameter><parameter name="RPO">0</parameter></Acquisition_Parameters_Rf><FT_-_Parameters_Rf><parameter name="APF">B3</parameter><parameter name="HFQ">500</parameter><parameter name="LFQ">4000</parameter><parameter name="NLI">0</parameter><parameter name="PHR">24</parameter><parameter name="PHZ">ML</parameter><parameter name="SPZ">NO</parameter><parameter name="ZFF">1</parameter></FT_-_Parameters_Rf><Optic_Parameters_><parameter name="APR">0</parameter><parameter name="APT">Open</parameter><parameter name="BMS">KBr</parameter><parameter name="CHN">Module port</parameter><parameter name="DTC">RT-DLaTGS_IR-Biotyper [Microplate reader]</parameter><parameter name="HPF">0</parameter><parameter name="LPF">10.0</parameter><parameter name="LPV">4000</parameter><parameter name="PGN">0</parameter><parameter name="RDX">0</parameter><parameter name="SRC">MIR</parameter><parameter name="VEL">10.0</parameter><parameter name="SON">Off</parameter></Optic_Parameters_><FT_-_Parameters_><parameter name="APF">B3</parameter><parameter name="HFQ">500</parameter><parameter name="LFQ">4000</parameter><parameter name="NLI">0</parameter><parameter name="PHR">24</parameter><parameter name="PHZ">ML</parameter><parameter name="SPZ">NO</parameter><parameter name="ZFF">1</parameter></FT_-_Parameters_><Acquisition_Parameters_><parameter name="ADT">1</parameter><parameter name="AQM">DD</parameter><parameter name="CFE">0</parameter><parameter name="COR">0</parameter><parameter name="DEL">0</parameter><parameter name="DLY">0</parameter><parameter name="HFW">8000</parameter><parameter name="LFW">0</parameter><parameter name="NSS">32</parameter><parameter name="PLF">AB</parameter><parameter name="RES">6</parameter><parameter name="SOT">0</parameter><parameter name="TCL">MakeCompatibleScalar (0, {WSV=1.000000, ARV=0});</parameter><parameter name="TDL">37</parameter><parameter name="SPO">0</parameter><parameter name="SGN">-1</parameter></Acquisition_Parameters_><Instrument_Parameters_Rf><parameter name="HFL">15800.168544</parameter><parameter name="LFL">0</parameter><parameter name="LWN">15800.168544</parameter><parameter name="ABP">32197</parameter><parameter name="SSP">1</parameter><parameter name="ARG">2</parameter><parameter name="ASG">2</parameter><parameter name="ASS">32</parameter><parameter name="GFW">16</parameter><parameter name="GBW">16</parameter><parameter name="BFW">0</parameter><parameter name="BBW">0</parameter><parameter name="PKA">7288</parameter><parameter name="PKL">4996</parameter><parameter name="PRA">7462</parameter><parameter name="PRL">5001</parameter><parameter name="P2A">1</parameter><parameter name="P2L">1</parameter><parameter name="P2R">1</parameter><parameter name="P2K">1</parameter><parameter name="DAQ">0</parameter><parameter name="AG2">1</parameter><parameter name="SSM">1</parameter><parameter name="RSN">25300</parameter><parameter name="CRR">0</parameter><parameter name="SRT">1653912571.652</parameter><parameter name="DUR">19.6369934082031</parameter><parameter name="TSC">28.2</parameter><parameter name="MVD">0.649154543876648</parameter><parameter name="AN1">0.225820479096351</parameter><parameter name="AN2">0</parameter><parameter name="VSN">2.485 Apr  4 2017</parameter><parameter name="SRN">0085</parameter><parameter name="CAM">0</parameter><parameter name="INS">IR-Biotyper</parameter><parameter name="FOC">69</parameter><parameter name="RDY">1</parameter><parameter name="ARS">32</parameter></Instrument_Parameters_Rf><Sample_Parameters_><parameter name="BLD"></parameter><parameter name="CNM">Admin</parameter><parameter name="CPY"></parameter><parameter name="DPM"></parameter><parameter name="EXP">IRBT_v3_32Scans.XPM</parameter><parameter name="LCT"></parameter><parameter name="SFM">Microplate, HTS-XT</parameter><parameter name="SNM">220530-1021_CLA33F (D_10)_A10_2f020e8d-05f3-4ad6-b37a-9e5bbe7c5641.0</parameter><parameter name="XPP">C:\Users\Public\Documents\Bruker\OPUS_8.2.28\XPM</parameter><parameter name="IST">OK</parameter><parameter name="CPG">1252</parameter><parameter name="UID">f4e0b923-5603-422d-b9bb-dc20a60f9d2d</parameter></Sample_Parameters_><Instrument_Parameters_><parameter name="HFL">15800.168544</parameter><parameter name="LFL">0</parameter><parameter name="LWN">15800.168544</parameter><parameter name="ABP">32197</parameter><parameter name="SSP">1</parameter><parameter name="ASG">2</parameter><parameter name="ARG">2</parameter><parameter name="ASS">32</parameter><parameter name="GFW">16</parameter><parameter name="GBW">16</parameter><parameter name="BFW">0</parameter><parameter name="BBW">0</parameter><parameter name="PKA">6519</parameter><parameter name="PKL">4988</parameter><parameter name="PRA">6723</parameter><parameter name="PRL">5002</parameter><parameter name="P2A">1</parameter><parameter name="P2L">1</parameter><parameter name="P2R">1</parameter><parameter name="P2K">1</parameter><parameter name="DAQ">0</parameter><parameter name="AG2">1</parameter><parameter name="SSM">1</parameter><parameter name="RSN">13276</parameter><parameter name="CRR">0</parameter><parameter name="SRT">1653912598.135</parameter><parameter name="DUR">19.6369934082031</parameter><parameter name="TSC">28.2</parameter><parameter name="MVD">0.259072124958038</parameter><parameter name="AN1">0.22581268015443</parameter><parameter name="AN2">0</parameter><parameter name="VSN">2.485 Apr  4 2017</parameter><parameter name="SRN">0085</parameter><parameter name="CAM">0</parameter><parameter name="INS">IR-Biotyper</parameter><parameter name="FOC">69</parameter><parameter name="RDY">1</parameter></Instrument_Parameters_><History/></OPUSDataFile>
