<?xml version="1.0" encoding="UTF-8" ?>
<OPUSDataFile><AB><Ydata ylabel="Absorbance Units"><values byteorder="INTEL" format="FLOAT32" numvalues="3497"> -0.05020579 -0.05015447 -0.05009712 -0.05003406 -0.04996045 -0.04987607 -0.04978076 -0.04967549 -0.0495718 -0.04947159
 -0.0493923 -0.04933362 -0.04930492 -0.0493022 -0.04932124 -0.04935753 -0.04940181 -0.04945194 -0.04950257 -0.04955129
 -0.04959555 -0.04963087 -0.04965384 -0.04966326 -0.04965644 -0.04964037 -0.0496153 -0.04959235 -0.04957344 -0.04956494
 -0.04956811 -0.04957973 -0.0495997 -0.04961609 -0.04962835 -0.04962543 -0.04960857 -0.04957872 -0.04953905 -0.04950178
 -0.04946786 -0.0494469 -0.04943489 -0.04943001 -0.04942729 -0.04941916 -0.04940641 -0.04938552 -0.04936394 -0.04934489
 -0.04933328 -0.0493338 -0.04933885 -0.04934875 -0.04934921 -0.04933688 -0.04931099 -0.04926989 -0.04923313 -0.04920172
 -0.0491964 -0.04921678 -0.04926302 -0.0493318 -0.04940331 -0.04947514 -0.04952747 -0.0495619 -0.0495713 -0.04956077
 -0.04953419 -0.04949943 -0.04946719 -0.04944186 -0.04943349 -0.04943274 -0.04943992 -0.04943663 -0.04941373 -0.04936997
 -0.04929917 -0.04922738 -0.04915687 -0.04911545 -0.04910699 -0.04913633 -0.04920397 -0.04929569 -0.04941018 -0.04952762
 -0.04964573 -0.04974141 -0.04981172 -0.04983093 -0.04980372 -0.0497237 -0.0496082 -0.04948234 -0.04936104 -0.04927415
 -0.04922022 -0.0492116 -0.04923031 -0.04927195 -0.04931439 -0.04934679 -0.0493628 -0.04935602 -0.04934105 -0.04931855
 -0.04930663 -0.04930796 -0.04932335 -0.04935305 -0.04937898 -0.0494005 -0.04940404 -0.04939219 -0.04937409 -0.04935307
 -0.04934818 -0.04935656 -0.04938269 -0.04941794 -0.04944843 -0.04947183 -0.0494774 -0.0494732 -0.04946398 -0.04945041
 -0.04943655 -0.04941244 -0.04937215 -0.04932203 -0.04925828 -0.04921146 -0.04918582 -0.04920609 -0.04927792 -0.04938206
 -0.04951819 -0.04960326 -0.04963485 -0.04955528 -0.04937907 -0.04917338 -0.04894843 -0.04878124 -0.04866403 -0.04861626
 -0.04862662 -0.04868719 -0.04878284 -0.04889574 -0.0490064 -0.04909244 -0.04914505 -0.04914816 -0.04911928 -0.04905928
 -0.04899308 -0.04892932 -0.04887239 -0.04882494 -0.04878158 -0.04874124 -0.04871003 -0.04868821 -0.04868736 -0.04870721
 -0.04874555 -0.04879989 -0.04885309 -0.04890304 -0.04893215 -0.04894131 -0.0489232 -0.04888118 -0.04881614 -0.04873527
 -0.04864576 -0.04855813 -0.04848349 -0.04842781 -0.04839842 -0.04839389 -0.048416 -0.04845966 -0.04852519 -0.04860194
 -0.04869033 -0.04876661 -0.04882926 -0.04884862 -0.0488226 -0.0487454 -0.04861887 -0.04847311 -0.04831102 -0.04816722
 -0.04804052 -0.04794478 -0.04787699 -0.04783701 -0.04782121 -0.04782509 -0.04784114 -0.04786006 -0.04787198 -0.04786441
 -0.0478357 -0.04777844 -0.04770505 -0.04761714 -0.04753147 -0.04745328 -0.04739045 -0.04734585 -0.04731759 -0.04730596
 -0.04730665 -0.0473194 -0.04734245 -0.04737572 -0.04741809 -0.04746873 -0.04752183 -0.04757605 -0.04762224 -0.0476615
 -0.04769114 -0.04771487 -0.04773865 -0.04776344 -0.04779402 -0.04782656 -0.0478589 -0.04788971 -0.04791621 -0.04794328
 -0.0479727 -0.04800598 -0.04804506 -0.04808368 -0.04812093 -0.04815334 -0.04818092 -0.04819694 -0.04820138 -0.04816288
 -0.0480806 -0.04793395 -0.04773068 -0.04751416 -0.04729388 -0.04713469 -0.04703091 -0.04700556 -0.04703736 -0.04710194
 -0.04717486 -0.04721072 -0.04721188 -0.04715861 -0.04707994 -0.04698863 -0.04690204 -0.04683267 -0.04677781 -0.04674046
 -0.04670868 -0.04668122 -0.04664605 -0.0466013 -0.04654425 -0.04647442 -0.04640111 -0.04632507 -0.04626036 -0.04620682
 -0.04617158 -0.04615083 -0.04613408 -0.04611579 -0.04607258 -0.04600997 -0.04592366 -0.04582961 -0.04574881 -0.04568443
 -0.0456506 -0.04563245 -0.04562707 -0.0456151 -0.04558639 -0.0455358 -0.04545701 -0.04536506 -0.04526067 -0.04516337
 -0.04507617 -0.04500378 -0.04494713 -0.04488815 -0.04482571 -0.04473607 -0.04462213 -0.04449236 -0.04435304 -0.04423733
 -0.04414263 -0.04408036 -0.04404186 -0.04401653 -0.04399814 -0.04397417 -0.0439428 -0.0438968 -0.04384094 -0.04377549
 -0.04370691 -0.04364153 -0.04356793 -0.04348748 -0.04337274 -0.043217 -0.04301471 -0.04276211 -0.04248615 -0.04218821
 -0.04189534 -0.04160842 -0.04134053 -0.04109268 -0.04087881 -0.04069952 -0.04056798 -0.04047739 -0.04041868 -0.0403795
 -0.04033167 -0.04027084 -0.040179 -0.04005931 -0.03990993 -0.03972987 -0.03951645 -0.03927497 -0.03900329 -0.03872187
 -0.03843647 -0.03815886 -0.03789342 -0.03763661 -0.03738838 -0.03714624 -0.03690977 -0.03668662 -0.0364774 -0.03629502
 -0.03613899 -0.03601423 -0.03591486 -0.03582272 -0.03572453 -0.03557219 -0.03536344 -0.03506052 -0.03469708 -0.03429878
 -0.03390116 -0.03355045 -0.03324893 -0.03301535 -0.03282866 -0.03268776 -0.032561 -0.03243973 -0.03230023 -0.03213517
 -0.03194219 -0.03171969 -0.03147359 -0.03120418 -0.03091626 -0.03061032 -0.03029605 -0.02997447 -0.02965891 -0.02934846
 -0.0290463 -0.02875086 -0.02845802 -0.02817025 -0.02789018 -0.02762057 -0.02736837 -0.02712848 -0.02689967 -0.02667432
 -0.02644552 -0.02621535 -0.02598354 -0.0257509 -0.0255211 -0.02527607 -0.02501357 -0.02471495 -0.02437473 -0.02401391
 -0.02363273 -0.02327797 -0.02295106 -0.02267343 -0.0224419 -0.02224175 -0.02206826 -0.02189285 -0.02171463 -0.02151464
 -0.02129875 -0.02106854 -0.02083154 -0.02060035 -0.0203738 -0.02015854 -0.01994117 -0.01971583 -0.01947012 -0.01919346
 -0.01889513 -0.01857273 -0.01825074 -0.01793395 -0.01763624 -0.01736114 -0.01710277 -0.01686136 -0.01661907 -0.0163751
 -0.01611534 -0.01584055 -0.01555012 -0.01524599 -0.01493639 -0.01462248 -0.01431139 -0.01400398 -0.01370469 -0.01341528
 -0.01314007 -0.0128795 -0.01263636 -0.01240766 -0.01219318 -0.01198728 -0.01178752 -0.0115899 -0.01139208 -0.01119546
 -0.0109995 -0.01080918 -0.01062556 -0.0104473 -0.01027478 -0.01009464 -0.009906169 -0.00969529 -0.009463111 -0.009211419
 -0.008944154 -0.008680164 -0.008421669 -0.008186742 -0.007970599 -0.007774651 -0.007588007 -0.007395943 -0.007192438 -0.006963124
 -0.006717321 -0.006454592 -0.006191565 -0.005937291 -0.005695099 -0.005470537 -0.005249377 -0.005029524 -0.004800818 -0.004560306
 -0.004316921 -0.00407079 -0.00383854 -0.003620662 -0.003422599 -0.003243041 -0.003073191 -0.002911825 -0.002748125 -0.002583333
 -0.002415495 -0.002246197 -0.002079188 -0.001911295 -0.001740933 -0.001561695 -0.0013655 -0.001152857 -0.0009190402 -0.000675393
 -0.0004247999 -0.0001799275 5.438776E-05 0.0002726393 0.0004726105 0.0006539387 0.0008158414 0.0009628999 0.001094953 0.001226803
 0.001359426 0.001514354 0.001691532 0.00190168 0.002140277 0.002393711 0.00265465 0.002893601 0.003108643 0.003278736
 0.003413718 0.003516527 0.003601735 0.003685638 0.003773673 0.003875831 0.003987473 0.004108374 0.004236097 0.00436939
 0.004509341 0.004657127 0.004806233 0.004956715 0.005095831 0.005222416 0.005331843 0.005424341 0.00551185 0.005596463
 0.005701781 0.005829153 0.005999652 0.006208502 0.006456344 0.006729119 0.007000333 0.007255781 0.007461071 0.007618821
 0.00771417 0.007769512 0.007793193 0.007810136 0.007834938 0.007877574 0.007945592 0.008034937 0.00814666 0.008272161
 0.008410884 0.008552682 0.008696893 0.008832376 0.008958704 0.009071081 0.009170484 0.009263639 0.009352081 0.009447313
 0.009548634 0.00966076 0.009780285 0.009902713 0.01002485 0.01013928 0.0102472 0.01034562 0.01044113 0.01053748
 0.01063882 0.01075058 0.01086402 0.0109793 0.0110801 0.01116177 0.01122147 0.0112566 0.01128322 0.01130245
 0.01132571 0.01135314 0.01137503 0.01139056 0.01138675 0.01136645 0.011336 0.01130012 0.01127765 0.01126849
 0.01128294 0.01131516 0.01136167 0.01141587 0.01146916 0.01152 0.01156288 0.01160481 0.01164616 0.01169905
 0.0117681 0.01185812 0.01197337 0.01210023 0.0122391 0.01236313 0.01247029 0.01253885 0.0125681 0.01255792
 0.01251046 0.01244623 0.01236724 0.01229505 0.01222783 0.01217073 0.01212224 0.01207972 0.01204761 0.01203138
 0.0120343 0.01206527 0.0121141 0.01217895 0.01224278 0.012295 0.01233322 0.01235155 0.01236513 0.01237602
 0.01239713 0.01243176 0.01247607 0.0125306 0.01257904 0.01262055 0.01263806 0.01263181 0.01259606 0.01253445
 0.01246092 0.01238128 0.01232211 0.01228415 0.01228497 0.01231456 0.01236807 0.01243012 0.01248239 0.01251771
 0.01252248 0.01250515 0.01246432 0.01241633 0.01236637 0.01232475 0.01229509 0.01227947 0.01227808 0.01229624
 0.01233397 0.01240446 0.01250828 0.01265191 0.01283303 0.01303251 0.01324387 0.01342408 0.01356881 0.01363823
 0.0136403 0.01356718 0.01344211 0.01329334 0.01314628 0.0130406 0.01298078 0.01298896 0.01303849 0.01312665
 0.01321336 0.01328426 0.01331599 0.01329772 0.01323761 0.01313325 0.01301305 0.01287907 0.01275491 0.01264159
 0.01254266 0.01245713 0.01237563 0.01229822 0.01221929 0.01214188 0.01207246 0.01201458 0.01198103 0.01196868
 0.0119831 0.01200666 0.01202682 0.01201839 0.01195687 0.01183613 0.01163903 0.01139773 0.01111442 0.01083819
 0.01058199 0.0103682 0.0102049 0.0100747 0.009977628 0.009883644 0.00979131 0.009684522 0.009564027 0.009431502
 0.009289649 0.009153253 0.009024579 0.008920978 0.008837931 0.008777391 0.008725755 0.008663157 0.008580009 0.008454129
 0.008296159 0.008101521 0.007899504 0.007701938 0.007535186 0.007413084 0.007339363 0.007321403 0.007333374 0.007375325
 0.007402843 0.007412261 0.007368268 0.007269211 0.007114584 0.006907275 0.006678728 0.006432458 0.006204156 0.005993414
 0.005818788 0.005675459 0.005563491 0.005474342 0.005396355 0.005319546 0.005227817 0.005118945 0.004982968 0.004832184
 0.004667821 0.004509334 0.004364255 0.004242365 0.004149064 0.00407782 0.004029441 0.003988867 0.003954912 0.003915527
 0.003870093 0.003815766 0.003752942 0.003685561 0.003613622 0.003539798 0.003462297 0.003376823 0.003281072 0.003166651
 0.003035227 0.002883916 0.002720006 0.002549207 0.002380343 0.002222536 0.002078235 0.001952704 0.001839405 0.001738236
 0.001638878 0.001538932 0.001431424 0.001314503 0.001188178 0.001051895 0.0009125691 0.000770574 0.0006362882 0.0005099095
 0.0003975889 0.0002978721 0.0002064568 0.0001206603 2.892658E-05 -6.989146E-05 -0.0001850174 -0.0003138806 -0.0004575031 -0.0006103498
 -0.0007676 -0.000922657 -0.00106989 -0.001202541 -0.00131587 -0.001405468 -0.001467093 -0.001506374 -0.001521172 -0.001532236
 -0.001541038 -0.001574204 -0.001634715 -0.001734616 -0.001874585 -0.002042622 -0.002236668 -0.002428672 -0.002616395 -0.002771769
 -0.002896198 -0.002976535 -0.003022276 -0.0030459 -0.003062305 -0.003102362 -0.003170411 -0.003288936 -0.003438599 -0.003615141
 -0.003791028 -0.00394715 -0.004080547 -0.004181634 -0.004273364 -0.004360626 -0.00445496 -0.00456225 -0.004659829 -0.004746998
 -0.004791355 -0.004791156 -0.004741927 -0.004646472 -0.004537819 -0.004421428 -0.004346339 -0.004313849 -0.004358115 -0.004468955
 -0.004643569 -0.004862385 -0.005092499 -0.005321347 -0.005518389 -0.005690963 -0.005833674 -0.005959912 -0.006078539 -0.006186458
 -0.006285947 -0.00636589 -0.006421127 -0.006460515 -0.006482612 -0.006513229 -0.006555509 -0.00661572 -0.006694349 -0.00676587
 -0.006828921 -0.006857447 -0.006854544 -0.006824129 -0.00677261 -0.006725437 -0.006684864 -0.0066705 -0.006677312 -0.006706728
 -0.006751015 -0.006801046 -0.006854379 -0.006904005 -0.006956998 -0.007013946 -0.007085969 -0.007178628 -0.007293009 -0.007433481
 -0.007581577 -0.007736722 -0.007870653 -0.007979989 -0.008053273 -0.008089639 -0.008111179 -0.008120299 -0.008155985 -0.008217757
 -0.008324873 -0.008469964 -0.008637752 -0.008819888 -0.008987762 -0.009140189 -0.009261299 -0.00935625 -0.009424402 -0.009472139
 -0.009503542 -0.009525482 -0.009542201 -0.009559784 -0.009582401 -0.009608743 -0.009640494 -0.009668285 -0.009690315 -0.009703681
 -0.009706946 -0.009713161 -0.009722983 -0.009750752 -0.009795902 -0.00985394 -0.009922137 -0.009980472 -0.01002911 -0.0100566
 -0.01006797 -0.01007038 -0.0100661 -0.01006541 -0.0100594 -0.01004399 -0.01000475 -0.009927507 -0.009807724 -0.009636266
 -0.00942365 -0.009171174 -0.008890361 -0.008585433 -0.0082571 -0.007905826 -0.00753186 -0.007133726 -0.006732245 -0.006328367
 -0.00596513 -0.005644732 -0.005407796 -0.00525286 -0.005193149 -0.005222093 -0.005323911 -0.005490643 -0.005695248 -0.00593304
 -0.006183847 -0.006447068 -0.006714772 -0.006986424 -0.007261084 -0.007532192 -0.00779852 -0.008045632 -0.008268739 -0.008454191
 -0.008596553 -0.008693999 -0.008744373 -0.008756598 -0.008731454 -0.008674906 -0.008587442 -0.0084619 -0.008297561 -0.008081416
 -0.007814336 -0.007493815 -0.007124452 -0.006720857 -0.006289452 -0.005853363 -0.00541619 -0.004996045 -0.004589135 -0.004200456
 -0.003818096 -0.003435001 -0.003039002 -0.002619524 -0.002176753 -0.001705384 -0.001221114 -0.0007254094 -0.0002386868 0.0002359828
 0.0006814805 0.001096203 0.001463146 0.001781228 0.002036009 0.002227774 0.002358072 0.002430124 0.002465152 0.00246662
 0.002458729 0.00244309 0.002434639 0.002436285 0.002458912 0.002506331 0.002588937 0.002703662 0.002853531 0.003027939
 0.003220786 0.00342805 0.003644189 0.003879626 0.004135898 0.004422558 0.004743767 0.005088256 0.005456806 0.005820267
 0.006176951 0.006502321 0.006796082 0.007051856 0.007270561 0.007455659 0.007606463 0.007722214 0.007801356 0.007838652
 0.00783536 0.007791128 0.007707882 0.007590537 0.007431962 0.007231845 0.006971036 0.00663903 0.006220935 0.005703995
 0.005100285 0.004404653 0.003660598 0.002871676 0.002092259 0.001328363 0.0006181109 -3.552372E-05 -0.0006247558 -0.001150478
 -0.001628051 -0.002059299 -0.002464011 -0.002842288 -0.003204893 -0.003551121 -0.003883892 -0.004204239 -0.004515034 -0.004817881
 -0.005116877 -0.005409836 -0.005697281 -0.005973812 -0.006235968 -0.006481922 -0.006709663 -0.006921027 -0.007117147 -0.007294348
 -0.007453677 -0.007581121 -0.007675848 -0.007720757 -0.007714686 -0.007646944 -0.007517927 -0.007332536 -0.007095107 -0.006835647
 -0.006562093 -0.006322862 -0.006120581 -0.005991233 -0.005921916 -0.005910726 -0.005932898 -0.0059578 -0.005965887 -0.005927811
 -0.005841821 -0.005695549 -0.005504393 -0.005269182 -0.005013325 -0.004742075 -0.004477323 -0.004223253 -0.003996064 -0.003797215
 -0.003644627 -0.003539108 -0.003513735 -0.003570957 -0.003756526 -0.004071005 -0.004544789 -0.005168437 -0.005926212 -0.006796158
 -0.007716178 -0.00866299 -0.009564061 -0.01041379 -0.01117074 -0.01185429 -0.01246417 -0.01302844 -0.01356535 -0.01408718
 -0.01460662 -0.01511289 -0.015607 -0.01607048 -0.01649931 -0.01688671 -0.01723019 -0.01754145 -0.01782081 -0.01808967
 -0.01834881 -0.0186129 -0.01888086 -0.01915245 -0.01942532 -0.01968973 -0.01994452 -0.02018146 -0.020401 -0.02059988
 -0.02077966 -0.02094018 -0.02108543 -0.0212176 -0.02134372 -0.02146842 -0.02159687 -0.02173384 -0.02187507 -0.02202181
 -0.02216175 -0.02229275 -0.0224065 -0.02250093 -0.02258153 -0.02264835 -0.02271361 -0.02277754 -0.0228438 -0.0229113
 -0.02297283 -0.02302877 -0.02307531 -0.02311688 -0.02316312 -0.0232185 -0.02329784 -0.0233976 -0.02352213 -0.02365869
 -0.02379845 -0.02392903 -0.02403891 -0.02412682 -0.02418736 -0.02423136 -0.02425972 -0.02428675 -0.02431524 -0.02435453
 -0.02440649 -0.02447151 -0.02454995 -0.02463339 -0.02472126 -0.02480217 -0.02487617 -0.02493808 -0.02498933 -0.02503337
 -0.02507132 -0.0251084 -0.02514402 -0.02517955 -0.02521382 -0.02524551 -0.0252748 -0.02530157 -0.02532551 -0.02534701
 -0.02536357 -0.02537421 -0.02537709 -0.02537016 -0.02535939 -0.0253443 -0.02533867 -0.02534419 -0.02536993 -0.02541703
 -0.02547676 -0.02554813 -0.02560941 -0.02566022 -0.02568639 -0.02569122 -0.02568056 -0.02565915 -0.0256441 -0.02563558
 -0.02564378 -0.025662 -0.02568646 -0.02570897 -0.02571912 -0.0257174 -0.02569832 -0.02567414 -0.02564759 -0.02563286
 -0.02563577 -0.02565892 -0.02570532 -0.02576415 -0.02583502 -0.02590358 -0.02596874 -0.02602223 -0.02606395 -0.02609418
 -0.02611386 -0.02613028 -0.02614477 -0.02616715 -0.02619755 -0.02624232 -0.02629871 -0.0263657 -0.0264377 -0.02650733
 -0.02656959 -0.02661647 -0.02664817 -0.0266612 -0.02666183 -0.02665108 -0.0266375 -0.02662384 -0.0266153 -0.02661364
 -0.02661943 -0.02663328 -0.02665175 -0.02667473 -0.02669634 -0.02671627 -0.0267288 -0.02673395 -0.02672884 -0.02671423
 -0.02669124 -0.02666177 -0.0266312 -0.02660228 -0.02658301 -0.02657451 -0.02658261 -0.02660418 -0.02663922 -0.02668216
 -0.02672962 -0.02677738 -0.02682296 -0.02686358 -0.02689805 -0.02692438 -0.02694152 -0.02695158 -0.02695412 -0.02695703
 -0.02696077 -0.02697331 -0.02699482 -0.02702661 -0.02706805 -0.02711464 -0.02716552 -0.02721458 -0.02726118 -0.02730034
 -0.0273319 -0.02735278 -0.02736445 -0.02736684 -0.02736371 -0.02735794 -0.02735412 -0.02735646 -0.02736617 -0.02738588
 -0.02741088 -0.02744074 -0.02746914 -0.02749413 -0.02751573 -0.02753326 -0.02755225 -0.02757317 -0.02759756 -0.02762524
 -0.02764957 -0.02767016 -0.02768017 -0.02768086 -0.02767378 -0.02766157 -0.02765281 -0.02764895 -0.02765773 -0.02767708
 -0.02770818 -0.02774636 -0.02778765 -0.02782851 -0.0278646 -0.02789724 -0.02792521 -0.02795339 -0.02798312 -0.02801754
 -0.02805813 -0.02810249 -0.028151 -0.02819664 -0.02823897 -0.02827129 -0.02829344 -0.02830446 -0.02830514 -0.02830184
 -0.02829543 -0.02829386 -0.02829619 -0.02830445 -0.02831582 -0.02832549 -0.0283318 -0.02832945 -0.02832063 -0.02830466
 -0.02828662 -0.02826959 -0.02825726 -0.0282528 -0.028255 -0.02826496 -0.02827708 -0.02829074 -0.0282996 -0.0283025
 -0.0282979 -0.02828536 -0.02827053 -0.02825378 -0.02824327 -0.02823891 -0.02824371 -0.02825676 -0.02827517 -0.02829864
 -0.02832473 -0.02835383 -0.02838628 -0.02842071 -0.02845618 -0.02848904 -0.02851539 -0.02853291 -0.02853798 -0.02853287
 -0.02851665 -0.02849592 -0.02847194 -0.02845242 -0.02843944 -0.02843599 -0.02844344 -0.0284559 -0.02847325 -0.02848538
 -0.02849199 -0.02849104 -0.02848352 -0.02847834 -0.02847594 -0.0284843 -0.02850081 -0.02852226 -0.02854506 -0.02855954
 -0.02856572 -0.02855858 -0.02854211 -0.02851842 -0.02849086 -0.02846253 -0.02843451 -0.02840748 -0.02838392 -0.02836389
 -0.02835326 -0.02835351 -0.02836717 -0.02839568 -0.02843138 -0.0284741 -0.02851083 -0.02854104 -0.02855789 -0.02856201
 -0.02855634 -0.02854183 -0.02852472 -0.02850504 -0.02848603 -0.02846738 -0.02844959 -0.02843326 -0.02841904 -0.0284087
 -0.02840412 -0.02840694 -0.02841931 -0.02844036 -0.02847119 -0.02850695 -0.02854696 -0.02858468 -0.02861841 -0.0286452
 -0.02866416 -0.02867651 -0.02868226 -0.02868285 -0.02867833 -0.02866819 -0.02865263 -0.028633 -0.02861025 -0.02859005
 -0.02857296 -0.02856425 -0.02856267 -0.02856826 -0.02857938 -0.02859349 -0.02861003 -0.02862788 -0.02864592 -0.0286637
 -0.02867826 -0.02868799 -0.02869142 -0.02868714 -0.02867743 -0.0286622 -0.02864549 -0.02862771 -0.02861269 -0.02860067
 -0.02859612 -0.02859923 -0.02861236 -0.02863493 -0.02866235 -0.02869341 -0.02871931 -0.02873985 -0.02874928 -0.02874936
 -0.02874063 -0.02872595 -0.02870963 -0.02869393 -0.02868324 -0.02867714 -0.02867743 -0.02868051 -0.02868518 -0.02868847
 -0.02868847 -0.02868694 -0.02868365 -0.02868217 -0.02868327 -0.02868659 -0.02869241 -0.02869568 -0.02869617 -0.0286895
 -0.02867589 -0.02865565 -0.02862959 -0.02860194 -0.02857334 -0.02854814 -0.02852621 -0.02850926 -0.02849723 -0.02849047
 -0.02848961 -0.0284958 -0.02850824 -0.02852764 -0.02855005 -0.02857407 -0.02859553 -0.02861244 -0.02862384 -0.02862893
 -0.02862894 -0.02862386 -0.02861517 -0.02860292 -0.0285895 -0.02857506 -0.02856335 -0.0285545 -0.02855139 -0.02855369
 -0.0285614 -0.0285736 -0.02858765 -0.02860227 -0.02861323 -0.02862029 -0.02862089 -0.02861618 -0.02860643 -0.02859258
 -0.0285757 -0.0285552 -0.02853075 -0.02850304 -0.02847143 -0.02844048 -0.02841072 -0.02838774 -0.02837262 -0.0283672
 -0.02837195 -0.02838421 -0.02840382 -0.02842517 -0.02844799 -0.02846715 -0.02848318 -0.02849588 -0.02850668 -0.02851988
 -0.02853693 -0.02856294 -0.02859888 -0.028648 -0.02871188 -0.02879295 -0.02889348 -0.02901582 -0.02916139 -0.02933132
 -0.02952683 -0.02974816 -0.02999776 -0.03027619 -0.03058559 -0.03092734 -0.03129462 -0.03168804 -0.03208449 -0.03248249
 -0.03283754 -0.0331464 -0.03335667 -0.03346947 -0.0334601 -0.03333862 -0.03312435 -0.03282782 -0.03247914 -0.03209048
 -0.03168873 -0.03129455 -0.03094031 -0.03063723 -0.03040627 -0.03024158 -0.0301463 -0.03011034 -0.03013198 -0.03019946
 -0.03031327 -0.03044567 -0.0305961 -0.03071479 -0.03079697 -0.03081134 -0.03075644 -0.03065296 -0.03050422 -0.03035568
 -0.03020808 -0.03009101 -0.02999825 -0.02992498 -0.02986457 -0.029797 -0.02972606 -0.02964829 -0.02957046 -0.02950258
 -0.02943688 -0.02937347 -0.02929591 -0.02919292 -0.02906518 -0.02890646 -0.02873879 -0.02856522 -0.02840791 -0.02827156
 -0.02816209 -0.02808117 -0.02802002 -0.02797818 -0.02794058 -0.02790678 -0.02786679 -0.02782146 -0.02777038 -0.02771464
 -0.02765781 -0.02760032 -0.02754461 -0.02749121 -0.0274418 -0.0273972 -0.02735913 -0.02732747 -0.02730313 -0.02728426
 -0.02727091 -0.02725871 -0.02724699 -0.02722882 -0.02720223 -0.02716381 -0.0271116 -0.02705379 -0.02699047 -0.02693587
 -0.02689072 -0.02685891 -0.02683959 -0.02682314 -0.02680907 -0.02678887 -0.02676468 -0.02673963 -0.02671546 -0.02669897
 -0.02668767 -0.02668119 -0.02667539 -0.02666433 -0.02664901 -0.02662697 -0.0266044 -0.02658427 -0.02656961 -0.02656377
 -0.0265604 -0.02655923 -0.02655119 -0.02653418 -0.02650748 -0.02647035 -0.02643039 -0.02638799 -0.02634935 -0.0263144
 -0.0262835 -0.02625637 -0.02623137 -0.0262088 -0.0261889 -0.02617215 -0.02616001 -0.02615229 -0.02614983 -0.02615077
 -0.02615376 -0.02615617 -0.02615545 -0.02615044 -0.02613955 -0.02612371 -0.02610294 -0.02607796 -0.02604897 -0.02601629
 -0.02597976 -0.02594168 -0.02590223 -0.0258639 -0.02582682 -0.02578988 -0.02575301 -0.0257147 -0.02567558 -0.02563874
 -0.02560494 -0.02557929 -0.02556054 -0.02554877 -0.02554128 -0.02553345 -0.02552409 -0.02550951 -0.02549132 -0.02546918
 -0.02544602 -0.02542332 -0.02540306 -0.02538652 -0.02537379 -0.02536539 -0.02535969 -0.02535671 -0.02535372 -0.02535052
 -0.02534424 -0.0253347 -0.02532067 -0.02530228 -0.02528099 -0.0252571 -0.02523315 -0.02520915 -0.02518647 -0.02516495
 -0.02514473 -0.02512621 -0.02511021 -0.02509688 -0.02508725 -0.02507976 -0.02507393 -0.02506712 -0.02505754 -0.02504431
 -0.02502617 -0.02500545 -0.0249821 -0.02496038 -0.02494104 -0.02492645 -0.02491717 -0.02491092 -0.02490762 -0.02490166
 -0.02489288 -0.02487793 -0.02485738 -0.02483301 -0.02480552 -0.02477855 -0.02475203 -0.02472772 -0.02470493 -0.02468333
 -0.02466241 -0.02464141 -0.02462019 -0.02459816 -0.02457617 -0.02455409 -0.02453432 -0.02451755 -0.02450628 -0.0245016
 -0.02450332 -0.02451211 -0.02452334 -0.02453681 -0.02454625 -0.02455128 -0.0245481 -0.02453681 -0.02451831 -0.02449321
 -0.02446572 -0.02443638 -0.02440959 -0.02438519 -0.02436521 -0.02434863 -0.02433466 -0.02432226 -0.02430967 -0.02429701
 -0.02428352 -0.02427051 -0.02425851 -0.0242484 -0.02424086 -0.02423535 -0.02423214 -0.02422908 -0.02422602 -0.02422011
 -0.02421107 -0.02419658 -0.02417647 -0.02415205 -0.02412369 -0.02409704 -0.02407246 -0.0240556 -0.02404521 -0.02404022
 -0.02403797 -0.02403095 -0.0240184 -0.02399405 -0.02396256 -0.02392602 -0.0238913 -0.02386581 -0.02385031 -0.0238492
 -0.02385425 -0.02386367 -0.02386931 -0.02386762 -0.02385974 -0.02384474 -0.02382918 -0.02381388 -0.02380057 -0.02378946
 -0.02377534 -0.023758 -0.02373279 -0.02370055 -0.02366409 -0.02362514 -0.02359221 -0.02356555 -0.02355121 -0.02354581
 -0.02354678 -0.02354985 -0.0235479 -0.02354127 -0.02352657 -0.02350927 -0.02349181 -0.02347742 -0.02346918 -0.02346286
 -0.02345832 -0.02344969 -0.02343542 -0.02341578 -0.02339028 -0.0233643 -0.02333815 -0.02331485 -0.02329431 -0.02327491
 -0.02325657 -0.0232376 -0.02321862 -0.02320146 -0.02318612 -0.02317418 -0.02316388 -0.02315302 -0.02313975 -0.02312033
 -0.02309559 -0.02306422 -0.02302982 -0.02299369 -0.02296002 -0.02293076 -0.02290843 -0.02289451 -0.0228879 -0.0228892
 -0.02289293 -0.0228988 -0.02290016 -0.02289656 -0.02288521 -0.02286629 -0.02284266 -0.02281488 -0.02278803 -0.02276218
 -0.0227407 -0.02272231 -0.02270584 -0.02268915 -0.02266774 -0.02264079 -0.02260442 -0.02256177 -0.02251298 -0.02246474
 -0.0224206 -0.02238645 -0.02236635 -0.0223595 -0.02236768 -0.02238258 -0.02240322 -0.02242166 -0.02243645 -0.02244868
 -0.02245824 -0.02247104 -0.02248702 -0.02250511 -0.02252427 -0.02253645 -0.02254157 -0.02253466 -0.02251729 -0.02249103
 -0.02245721 -0.0224186 -0.02237679 -0.02233406 -0.02229371 -0.02225923 -0.02223294 -0.0222182 -0.02221218 -0.02221556
 -0.02222135 -0.02222812 -0.02222936 -0.02222354 -0.02220792 -0.02218177 -0.02214673 -0.02210278 -0.02205464 -0.0220026
 -0.0219517 -0.02190215 -0.02185781 -0.02181888 -0.02178835 -0.02176576 -0.02175177 -0.02174504 -0.02174385 -0.02174616
 -0.021749 -0.02175008 -0.02174635 -0.02173671 -0.02171858 -0.02169569 -0.02166805 -0.0216428 -0.02162256 -0.02160874
 -0.02160316 -0.02159732 -0.02159056 -0.02157509 -0.02155018 -0.02151785 -0.02147846 -0.02143926 -0.02140037 -0.02136605
 -0.02133576 -0.0213096 -0.02128706 -0.02126687 -0.02124876 -0.02123163 -0.0212155 -0.02120022 -0.02118509 -0.02116982
 -0.02115266 -0.02113235 -0.02110821 -0.02107913 -0.0210472 -0.02101277 -0.02097764 -0.02094247 -0.02090632 -0.02086906
 -0.0208307 -0.02079116 -0.02075316 -0.02071686 -0.02068492 -0.02065718 -0.0206336 -0.02061378 -0.02059615 -0.02058003
 -0.02056262 -0.02054394 -0.02052217 -0.02049916 -0.02047652 -0.02045581 -0.02044022 -0.02042649 -0.02041429 -0.02039816
 -0.0203748 -0.0203447 -0.02030617 -0.02026651 -0.02022667 -0.02019317 -0.02016728 -0.02014861 -0.02013735 -0.02012717
 -0.02011774 -0.02010286 -0.02008284 -0.02005722 -0.02002667 -0.01999403 -0.01995903 -0.0199223 -0.01988362 -0.01984189
 -0.01979971 -0.01975952 -0.01972501 -0.01970152 -0.0196874 -0.01968497 -0.01968543 -0.01968615 -0.01967851 -0.01965885
 -0.01962563 -0.01957716 -0.01951906 -0.01945138 -0.01938283 -0.01931396 -0.0192525 -0.01919873 -0.01915717 -0.01912776
 -0.01911233 -0.01911022 -0.01912061 -0.01914083 -0.01916393 -0.01918573 -0.01919431 -0.01918941 -0.01916402 -0.01912467
 -0.01907441 -0.01902008 -0.01896758 -0.01891811 -0.01887416 -0.01883299 -0.01879446 -0.01875517 -0.0187143 -0.01867046
 -0.01862306 -0.01857484 -0.01852584 -0.01848228 -0.01844445 -0.01841724 -0.0183999 -0.0183895 -0.01838354 -0.01836945
 -0.01834583 -0.01830028 -0.01823771 -0.01816052 -0.01807652 -0.01799831 -0.01792743 -0.01787067 -0.01782431 -0.01778789
 -0.01775817 -0.01773386 -0.01771202 -0.01769244 -0.01766877 -0.01763995 -0.0176001 -0.01754786 -0.01748529 -0.01741231
 -0.01733505 -0.0172537 -0.01717068 -0.01708603 -0.01700053 -0.01691492 -0.01683293 -0.01675523 -0.01668611 -0.01662494
 -0.01657325 -0.01652848 -0.01648852 -0.01644938 -0.01640664 -0.01635763 -0.01629844 -0.01623125 -0.01615548 -0.01607592
 -0.01599414 -0.0159121 -0.01583066 -0.01574899 -0.01566696 -0.0155851 -0.01550339 -0.01542412 -0.01534733 -0.01527332
 -0.01520155 -0.01512773 -0.01505098 -0.01496478 -0.01486938 -0.01476183 -0.0146434 -0.01451559 -0.0143782 -0.01423158
 -0.01407529 -0.0139075 -0.01373293 -0.01355257 -0.0133756 -0.01320727 -0.01304964 -0.01290713 -0.0127661 -0.01262719
 -0.01246257 -0.01226981 -0.01201865 -0.01170603 -0.01132795 -0.01088513 -0.01040649 -0.009892271 -0.009359302 -0.008801478
 -0.008199922 -0.007548384 -0.006816217 -0.00600742 -0.005110388 -0.004144292 -0.003126599 -0.002084214 -0.001047828 -3.773935E-05
 0.0009227456 0.001828245 0.002670172 0.003451548 0.004173442 0.004830189 0.005422292 0.005935315 0.00636663 0.006714975
 0.006979649 0.007171715 0.007291619 0.007345913 0.007334763 0.007261926 0.007128184 0.00693962 0.006696134 0.006398618
 0.006051242 0.00565663 0.005234665 0.004812701 0.004409286 0.004057034 0.003749288 0.003492978 0.003272813 0.003082544
 0.002915218 0.002766991 0.002636793 0.00252325 0.002429521 0.002354457 0.002314513 0.002310593 0.002363359 0.002472939
 0.002625291 0.00281733 0.003013178 0.003214771 0.003411961 0.003610071 0.003820024 0.004044767 0.004295352 0.004572787
 0.004882226 0.005226149 0.005607497 0.006031862 0.006504319 0.007026675 0.00760518 0.008222899 0.00887983 0.00954318
 0.0102064 0.01084614 0.01145774 0.01203503 0.01257666 0.01309052 0.01357759 0.01406641 0.01456063 0.01510935
 0.01570863 0.0163734 0.017081 0.01776478 0.01842039 0.0189983 0.01952621 0.02002394 0.02051182 0.02102136
 0.02154986 0.02210611 0.02267949 0.02326612 0.02386258 0.02446913 0.02507376 0.02567489 0.02625759 0.02681724
 0.02736828 0.02791117 0.02846766 0.02903789 0.02959965 0.0301494 0.03064168 0.0310795 0.03145217 0.03176864
 0.03205282 0.03230625 0.0325468 0.03276417 0.03294784 0.03309859 0.03320878 0.03329544 0.03336868 0.03343843
 0.03351533 0.03358983 0.03366338 0.03371598 0.03374414 0.03373057 0.03367193 0.03356176 0.03339801 0.03320383
 0.03298083 0.03277547 0.03258736 0.03243189 0.03230368 0.03218311 0.03206797 0.03193961 0.03180246 0.03165516
 0.03150677 0.03137043 0.03125098 0.03115934 0.03109324 0.03105433 0.03103996 0.03104975 0.03107986 0.03112982
 0.03119256 0.03126526 0.03135081 0.03144782 0.03157263 0.03172647 0.0319216 0.0321584 0.03243345 0.03274578
 0.03308439 0.03344882 0.03383145 0.03423168 0.03464362 0.0350669 0.03549658 0.03593602 0.03638733 0.03685546
 0.03734688 0.03786257 0.03840612 0.03897393 0.03956544 0.0401766 0.04080586 0.04145125 0.04211243 0.04278656
 0.04347425 0.04416422 0.0448559 0.04553394 0.04619776 0.0468482 0.0474866 0.04813088 0.04877663 0.04941397
 0.05002995 0.05057326 0.05104566 0.05142066 0.05171887 0.05196113 0.0521597 0.05233855 0.05249203 0.05262431
 0.05272546 0.0527937 0.05281405 0.05278603 0.05267572 0.05247386 0.05216596 0.05174086 0.05126616 0.05074677
 0.05023225 0.0497244 0.04919716 0.04864946 0.04806042 0.04743345 0.04677714 0.04609266 0.0453929 0.04466625
 0.04390014 0.0430677 0.042116 0.04104741 0.03981721 0.03852216 0.03721929 0.03597582 0.03486164 0.03381987
 0.03284623 0.03188782 0.03092415 0.02997092 0.02902557 0.02812496 0.0272736 0.02646891 0.02571055 0.02496541
 0.02423296 0.02349457 0.02275484 0.02202805 0.02131979 0.02065822 0.02004031 0.01947646 0.01895322 0.018456
 0.0179703 0.0174755 0.01696255 0.01641931 0.01583932 0.01521306 0.01455037 0.01384004 0.01315107 0.01249418
 0.0119393 0.01150739 0.01115819 0.01089203 0.01063674 0.01038894 0.01012463 0.009846434 0.009576885 0.00931826
 0.009096345 0.008906309 0.008743893 0.008607462 0.008487696 0.008394189 0.008337756 0.008326179 0.00837571 0.008478108
 0.008633857 0.008830017 0.009059203 0.009316741 0.009597987 0.009907817 0.01024288 0.0106286 0.01106402 0.0116055
 0.0122585 0.01306013 0.01401167 0.01503194 0.01611141 0.01710835 0.01802606 0.01880964 0.01947123 0.02002375
 0.02047298 0.02083548 0.02111915 0.02133947 0.02151275 0.02166113 0.02179901 0.02194751 0.02210138 0.02226665
 0.02242299 0.02256131 0.02268255 0.02278215 0.02288237 0.02298578 0.02311008 0.02325791 0.02342743 0.02361859
 0.02381429 0.02401406 0.0242066 0.02439358 0.02457808 0.02476267 0.02495764 0.0251644 0.02539199 0.02563867
 0.02590554 0.02619098 0.02649196 0.02681261 0.02715469 0.02752282 0.0279217 0.02834682 0.02879854 0.02926819
 0.0297526 0.03025308 0.03076898 0.03130687 0.03186868 0.03243853 0.03301552 0.03355185 0.03404547 0.03445678
 0.03478827 0.03503474 0.03519811 0.03528364 0.03528829 0.03520802 0.03503855 0.03477036 0.03440351 0.03393212
 0.03336465 0.03270289 0.03196311 0.03115298 0.03028789 0.02937459 0.02842318 0.02743468 0.02642879 0.02540557
 0.02440434 0.02342855 0.02250962 0.02164939 0.02084927 0.02010861 0.01941829 0.01877969 0.01819642 0.01767076
 0.01721468 0.01682459 0.01650118 0.01623253 0.01600204 0.01579441 0.01558663 0.01536804 0.0151214 0.01484814
 0.01454141 0.01421704 0.01387697 0.01354368 0.01322301 0.01292945 0.01266742 0.01243421 0.01223062 0.01204346
 0.01187202 0.01171012 0.0115584 0.01142445 0.01130908 0.01122144 0.01116022 0.01112572 0.01111585 0.01112615
 0.01115432 0.01119519 0.01124591 0.01130081 0.01135969 0.01142044 0.01148417 0.01155277 0.0116201 0.01168668
 0.01173712 0.01176823 0.01176659 0.01172868 0.01165364 0.01154024 0.01140103 0.01123662 0.01106388 0.01088335
 0.01070577 0.01053135 0.01036581 0.0102111 0.01007675 0.009965702 0.009891218 0.009851151 0.009850449 0.009879027
 0.00992839 0.009987243 0.01004307 0.01009219 0.01012796 0.01015502 0.01017308 0.01018913 0.01020519 0.01022426
 0.01024783 0.01027181 0.01029624 0.01031351 0.01032317 0.01032029 0.010305 0.01027812 0.01024045 0.01019709
 0.0101491 0.01010297 0.01005913 0.01002239 0.00999133 0.009966005 0.00994439 0.00992367 0.009903987 0.009884235
 0.009865917 0.009849778 0.009836083 0.009824667 0.009817382 0.00981351 0.009820926 0.009840433 0.009880902 0.009943843
 0.01002802 0.01013352 0.01024657 0.01036623 0.0104763 0.01057702 0.01066109 0.01073075 0.01078987 0.01084137
 0.01089428 0.01095016 0.01101617 0.01109126 0.01117753 0.01127184 0.01137271 0.0114765 0.01158079 0.01168341
 0.01178261 0.01187915 0.0119726 0.01206564 0.01215854 0.01225432 0.01235335 0.0124571 0.01256567 0.01267906
 0.01279722 0.01291979 0.01304665 0.01317748 0.01331108 0.01344356 0.01357212 0.01368761 0.01378889 0.01386817
 0.01393019 0.01397601 0.01401449 0.0140539 0.01409784 0.01415286 0.0142113 0.01427311 0.01432542 0.01436443
 0.01438422 0.01438211 0.01436403 0.01432996 0.0142898 0.01424418 0.0141977 0.01415031 0.01410143 0.01405104
 0.01399908 0.01394557 0.01389098 0.01383446 0.01377377 0.01370898 0.01363796 0.01356451 0.01349151 0.01342458
 0.01337004 0.01332897 0.0133055 0.01329253 0.01328908 0.01328587 0.01327929 0.01326877 0.01325235 0.01324081
 0.0132349 0.01324538 0.01327308 0.01331683 0.01337611 0.01344134 0.01351229 0.01358243 0.01365288 0.01372412
 0.01379824 0.01388062 0.01397317 0.01408279 0.01420735 0.01434886 0.0144992 0.01465212 0.01480222 0.01494216
 0.01507902 0.01521226 0.01535544 0.01551247 0.01569016 0.01589105 0.01611276 0.01635586 0.01661139 0.01687894
 0.01714454 0.01740759 0.01765694 0.01789347 0.0181177 0.01833119 0.01854087 0.01874634 0.01895035 0.01915128
 0.01934785 0.01953788 0.01971932 0.0198873 0.02003752 0.02016498 0.02026449 0.02033751 0.02038213 0.02040609
 0.02041032 0.0204047 0.02039056 0.02037851 0.02036991 0.02037102 0.02038241 0.02040204 0.02042995 0.02046617
 0.02051203 0.02057794 0.02066343 0.02077438 0.0209045 0.02104087 0.0211769 0.02129317 0.02139115 0.02146325
 0.02151768 0.02155786 0.02159387 0.02163163 0.02168099 0.0217474 0.02183591 0.02194987 0.02208634 0.02224598
 0.02242137 0.0226123 0.0228075 0.0230064 0.02319195 0.02336358 0.02351008 0.02363356 0.02374302 0.02384228
 0.02395221 0.02407352 0.02421953 0.02438695 0.02457689 0.02478354 0.02500078 0.02522226 0.02543941 0.02565191
 0.02585627 0.0260572 0.02625789 0.02645312 0.02664412 0.02681504 0.02696204 0.02708212 0.02717302 0.02725237
 0.02732114 0.02739555 0.02747556 0.02755917 0.0276445 0.02771685 0.02777518 0.02780599 0.02781263 0.02779525
 0.02776197 0.02772829 0.02769814 0.0276855 0.02768308 0.02769037 0.0276969 0.0276953 0.02768231 0.02765439
 0.02761283 0.02755675 0.0274904 0.02741306 0.02733758 0.02726503 0.02720848 0.02716913 0.0271458 0.02713806
 0.02713595 0.02713958 0.0271451 0.02715373 0.02716839 0.02719017 0.02722342 0.02726859 0.02732963 0.0274033
 0.02748882 0.02757796 0.02766353 0.0277386 0.02779704 0.02783498 0.02785088 0.0278369 0.02779111 0.02770512
 0.02757572 0.0274072 0.02719867 0.02696559 0.02670882 0.02644388 0.02617156 0.02590572 0.02564663 0.02540394
 0.02517572 0.02495929 0.02475197 0.02454406 0.02433662 0.02412713 0.02391727 0.02370913 0.02350108 0.0232918
 0.02308178 0.02287022 0.02266034 0.02245498 0.02224929 0.02204392 0.0218271 0.021596 0.0213476 0.02108067
 0.02080055 0.02050759 0.02020326 0.01988763 0.01956076 0.01922369 0.01888423 0.01854401 0.01821445 0.01789594
 0.01759576 0.01731253 0.01704796 0.01679804 0.01655871 0.0163255 0.01609197 0.01585869 0.01562363 0.01539024
 0.01516027 0.01493306 0.01470841 0.01448718 0.01426831 0.014061 0.01386638 0.0136898 0.01353208 0.01338381
 0.01324446 0.01310272 0.01295909 0.01281272 0.01266455 0.0125177 0.01237343 0.01223556 0.01210774 0.01199909
 0.01191103 0.01185184 0.01181362 0.01179359 0.01178004 0.01176382 0.01174104 0.01170649 0.01166514 0.01161727
 0.01156808 0.01151931 0.01146971 0.01141962 0.01136402 0.01130235 0.01123708 0.01116867 0.01110965 0.01105975
 0.0110234 0.01099715 0.01096671 0.01093166 0.01088084 0.01082177 0.01076433 0.01071339 0.01068296 0.01066506
 0.01065763 0.01065194 0.01063899 0.01062371 0.01060473 0.01059292 0.0105921 0.01060538 0.01063482 0.01067581
 0.01072858 0.01078387 0.01084119 0.01088876 0.01092621 0.01094932 0.01095959 0.01096767 0.01097544 0.0109982
 0.01103388 0.01108596 0.01114804 0.01120973 0.01126511 0.01130034 0.01131663 0.01130817 0.01128417 0.01124804
 0.01120996 0.01117576 0.01114946 0.01113369 0.01112852 0.01113446 0.01115068 0.01117766 0.01120943 0.01124575
 0.01127701 0.01130291 0.01132098 0.01133203 0.01134252 0.0113522 0.01136388 0.01137553 0.01138144 0.01138298
 0.01137764 0.01137396 0.01138221 0.01141006 0.01147177 0.01156062 0.0116805 0.01180991 0.01194058 0.01205572
 0.01214588 0.01221532 0.01226165 0.01230163 0.0123372 0.01237933 0.01242919 0.01248834 0.0125568 0.01263312
 0.01271687 0.01280442 0.01289438 0.01297819 0.01305518 0.0131174 0.01316849 0.01321034 0.01325069 0.01330204
 0.01336687 0.01345598 0.01355651 0.01366567 0.01376389 0.01383862 0.0138897 0.01390983 0.0139257 0.01394068
 0.01398096 0.01405202 0.01415403 0.01428813 0.01443479 0.01459302 0.01474475 0.01489001 0.01502148 0.01514017
 0.01524677 0.0153424 0.01543092 0.01551226 0.01558818 0.01565816 0.01572146 0.01577982 0.01583386 0.01588758
 0.01594421 0.01600499 0.01607253 0.01614185 0.01621242 0.01627785 0.01633585 0.01638792 0.01643345 0.01647988
 0.01652811 0.01657585 0.01662264 0.01665053 0.01665941 0.01663887 0.01659351 0.01653959 0.01648237 0.01644748
 0.01643429 0.0164542 0.01650355 0.01658263 0.0166861 0.01681201 0.01694619 0.01708 0.0171985 0.01728909
 0.01735789 0.0174009 0.01744178 0.01748523 0.01754533 0.01762532 0.01772535 0.01784559 0.01798791 0.01815237
 0.01833965 0.01854811 0.01876317 0.01898183 0.01918066 0.01936017 0.01950811 0.01963022 0.0197323 0.01981982
 0.01990473 0.0199854 0.02006566 0.02013924 0.0202009 0.02025335 0.02029351 0.02033682 0.02038749 0.02045706
 0.02055009 0.02066419 0.02080027 0.02094945 0.02111142 0.02127324 0.02143414 0.02157669 0.02170141 0.02180446
 0.02189061 0.0219819 0.02208172 0.02221533 0.02237577 0.02256358 0.02276358 0.02295436 0.0231239 0.02324828
 0.02333424 0.0233715 0.02339543 0.02341703 0.02347545 0.02359149 0.02376049 0.02399087 0.02423589 0.02448946
 0.02472348 0.02493335 0.02513921 0.02534209 0.0255711 0.02582479 0.0261004 0.02639281 0.02667361 0.02694136
 0.02717327 0.02737856 0.02756327 0.02774242 0.02794383 0.02816833 0.02843266 0.02871585 0.02900912 0.02929302
 0.02955386 0.02978908 0.02999535 0.0301721 0.03031902 0.03043364 0.03051421 0.03057173 0.03060657 0.0306351
 0.030658 0.03067908 0.03069826 0.03071598 0.03073279 0.03075312 0.03077532 0.0307963 0.03081449 0.03082295
 0.03082644 0.03082935 0.03083508 0.03085079 0.0308717 0.03089532 0.03092189 0.03094961 0.03098468 0.03103249
 0.03107962 0.03112675 0.03114557 0.03113007 0.03107912 0.03099055 0.03089584 0.03079654 0.03072007 0.03066616
 0.03064227 0.03064542 0.03066549 0.0306971 0.03071523 0.0307217 0.03070304 0.03067661 0.03066344 0.0306754
 0.03073812 0.03084015 0.03098299 0.03114906 0.03133301 0.03151158 0.0316817 0.03179951 0.03184967 0.03183307
 0.03174137 0.03163948 0.03153282 0.03145894 0.0314195 0.03140434 0.03141201 0.03142317 0.03143859 0.0314541
 0.03146857 0.03147704 0.03147582 0.03145232 0.03140926 0.03134456 0.03126367 0.03117202 0.03107205 0.03096466
 0.03085992 0.03076196 0.03068224 0.03062912 0.0305922 0.03057234 0.03054905 0.03051792 0.03047847 0.03042967
 0.03038336 0.03034006 0.03030541 0.03027948 0.03026587 0.0302633 0.03026857 0.03027674 0.03026704 0.03024184
 0.03019132 0.03013225 0.03009201 0.03006672 0.03007258 0.03007119 0.03003074 0.02995308 0.02981741 0.02968525
 0.02957702 0.02952037 0.02953194 0.02958336 0.02967219 0.02977979 0.02990446 0.03003313 0.03016479 0.03025464
 0.03030168 0.03027563 0.03018569 0.03006493 0.02992755 0.02983986 0.02980703 0.02987978 0.03003965 0.03029072
 0.03058451 0.03087172 0.03111225 0.03124684 0.03130325 0.03126862 0.03121823 0.0311786 0.03118797 0.03126679
 0.03139307 0.03156953 0.03174882 0.03192803 0.03205471 0.03212602 0.03211078 0.03201204 0.03185599 0.0316507
 0.03145628 0.03127462 0.03114299 0.0310602 0.03104184 0.03108557 0.03120278 0.03136716 0.03156199 0.03174214
 0.0318626 0.03191455 0.03187079 0.03177638 0.03163733 0.03150785 0.03140248 0.03135247 0.03136794 0.03143981
 0.03157168 0.03169891 0.0318181 0.03185253 0.03180328 0.03165992 0.03143358 0.03118198 0.030915 0.03069774
 0.03053162 0.03045616 0.03045773 0.03053971 0.03066712 0.03080353 0.03092033 0.03097737 0.03098346 0.03093257
 0.03083798 0.03070876 0.03052734 0.03028776 0.0299941 0.02963842 0.02929056 0.02895539 0.0287015 0.02853285
 0.02844095 0.02842174 0.02841874 0.02843077 0.0284207 0.02839494 0.02835494 0.02831034 0.02828693 0.02828395
 0.02831819 0.02836718 0.02841279 0.02843515 0.02840563 0.02833914 0.02823181 0.02811492 0.02800108 0.02790165
 0.02782353 0.02776041 0.02771359 0.02766689 0.02762007 0.0275419 0.0274306</values></Ydata></AB><ScSm><Ydata ylabel="Single channel"><values byteorder="INTEL" format="FLOAT32" numvalues="1814"> 0.06832032 0.0683335 0.06840207 0.06854214 0.0687256 0.06889875 0.06901978 0.0690849 0.06911214 0.06910619
 0.06906709 0.06903397 0.069079 0.06923589 0.06945269 0.0696267 0.06968525 0.06964885 0.06962267 0.06969283
 0.06980637 0.0697823 0.06948313 0.06897667 0.06849438 0.06821862 0.0681691 0.06833874 0.06880647 0.06951725
 0.07003832 0.06987053 0.06907773 0.06831074 0.06808546 0.06828777 0.06848018 0.06840414 0.06806007 0.0676095
 0.06741759 0.06795292 0.06932899 0.07092676 0.07161345 0.07045116 0.06736621 0.06337515 0.06021607 0.05941347
 0.06119998 0.06420568 0.06648734 0.06707875 0.06645565 0.06555866 0.06478447 0.06409948 0.06368244 0.063958
 0.06500201 0.06614628 0.0663201 0.06495811 0.06267576 0.06084581 0.06035411 0.06103533 0.06239296 0.06414042
 0.06546514 0.06460147 0.06056347 0.05535048 0.05306217 0.05600246 0.06222183 0.06743392 0.06883391 0.06665295
 0.06289811 0.05968712 0.05846992 0.05963564 0.0624219 0.06555532 0.06803558 0.06918454 0.06847043 0.06596553
 0.06279986 0.06061072 0.06053374 0.06276178 0.06650665 0.07006206 0.07157615 0.07042485 0.06763142 0.06478092
 0.06297085 0.06281506 0.06460114 0.06798166 0.07196228 0.07548709 0.07786976 0.07884215 0.07860075 0.07768892
 0.0765864 0.07563169 0.07531486 0.07597391 0.07700706 0.077105 0.07568141 0.07365657 0.07250601 0.07273363
 0.07347302 0.07354149 0.07263334 0.07111397 0.06884588 0.0651904 0.06046218 0.05629639 0.05401422 0.05362501
 0.05480803 0.05742906 0.06038953 0.06154336 0.06003515 0.0578084 0.05766673 0.06028676 0.06387085 0.06636672
 0.06737404 0.06801262 0.06947004 0.0717757 0.07363651 0.07340256 0.07069954 0.06735523 0.06611043 0.06793195
 0.07108927 0.07329552 0.07412533 0.07476328 0.07592933 0.07676329 0.07572002 0.07239911 0.0685367 0.06694116
 0.06905098 0.07349369 0.07707149 0.0771216 0.07331337 0.06774491 0.06330957 0.06168669 0.06287466 0.06628243
 0.0713831 0.07715349 0.081814 0.08382079 0.08299011 0.08040697 0.07718879 0.07345114 0.06890248 0.06457159
 0.06301299 0.06588553 0.07182378 0.07757738 0.08091348 0.0817288 0.08077259 0.07825251 0.07405146 0.0690859
 0.06575422 0.06607267 0.06925522 0.07216366 0.07260101 0.07131092 0.07035619 0.07052453 0.07103957 0.07117544
 0.07129231 0.07224017 0.0741629 0.07618616 0.077277 0.07718724 0.07648814 0.07589788 0.07562988 0.07524336
 0.07426354 0.07313134 0.07314749 0.07504949 0.0779977 0.08043771 0.08165534 0.08203387 0.08202347 0.08135273
 0.0794284 0.07646231 0.07393374 0.07349383 0.07536551 0.07820302 0.08049119 0.0816354 0.08181421 0.0814285
 0.08083386 0.08022782 0.07970291 0.07948637 0.07988622 0.08084553 0.08184226 0.08240819 0.08250794 0.08230747
 0.08184867 0.08111817 0.08027873 0.07966696 0.0795532 0.07994211 0.08061861 0.08133867 0.08190615 0.0821375
 0.08193819 0.08144007 0.08091505 0.08052538 0.08027582 0.08018732 0.08034473 0.080736 0.08118061 0.08148276
 0.08158678 0.08154924 0.08142469 0.08122638 0.08096983 0.08071898 0.08058039 0.08062818 0.08081707 0.08101255
 0.0811445 0.08127394 0.08145267 0.08158819 0.08154196 0.08132011 0.08107805 0.08095372 0.08096104 0.08103025
 0.08108214 0.08104223 0.08083874 0.08046548 0.08006154 0.07985627 0.07998368 0.08038545 0.08090617 0.08141031
 0.08179385 0.08199091 0.08202545 0.08198769 0.08192311 0.08179578 0.08157962 0.08134449 0.08123451 0.08136134
 0.08170477 0.08211926 0.08244991 0.08262989 0.08267979 0.08267527 0.08271903 0.08286256 0.08303045 0.08308993
 0.08301586 0.08292797 0.08294717 0.08306006 0.08314611 0.083119 0.08302395 0.08299015 0.083093 0.0832853
 0.08346864 0.08360352 0.0837303 0.08389241 0.08405419 0.08411281 0.08401241 0.08382877 0.08369757 0.08367031
 0.08369659 0.08373971 0.08383442 0.08400708 0.0841978 0.08431017 0.08432071 0.08430171 0.08432855 0.08438836
 0.08440046 0.084315 0.08416669 0.08403505 0.08397656 0.08399588 0.08405683 0.08410795 0.0841099 0.08405501
 0.08396543 0.08387042 0.08378547 0.08372003 0.08370411 0.08378223 0.08395369 0.08412798 0.08417591 0.08404593
 0.08381964 0.08363727 0.0835672 0.08355454 0.08349397 0.08333803 0.08312774 0.08293563 0.08280188 0.08272153
 0.08266819 0.08262052 0.08258347 0.08259384 0.08268575 0.08283198 0.08293639 0.08291436 0.08277676 0.0826138
 0.08250649 0.08247557 0.08249819 0.08254074 0.08258517 0.08264551 0.08274329 0.08285484 0.08291748 0.08290657
 0.08287277 0.08288728 0.08298436 0.08315913 0.08337202 0.08354558 0.08361137 0.08358352 0.08355172 0.08358685
 0.08368205 0.08379383 0.08390571 0.08403047 0.08417372 0.08432591 0.0844878 0.08468145 0.08492505 0.08520277
 0.08546624 0.0856692 0.08580837 0.0859358 0.08612539 0.08641542 0.08677784 0.08714214 0.08745097 0.08769906
 0.08792289 0.08815469 0.08839636 0.08864476 0.08892189 0.08925299 0.08962461 0.08999397 0.09033769 0.09066748
 0.09100029 0.0913353 0.09166431 0.09199424 0.09235424 0.09277117 0.09322612 0.09364675 0.09396635 0.09419084
 0.09439476 0.09465805 0.09501073 0.09541367 0.09577672 0.09602553 0.09617995 0.09634525 0.09659868 0.09690704
 0.0971892 0.09743768 0.09773064 0.09812222 0.09856358 0.09895201 0.09923702 0.09945893 0.09969086 0.09995626
 0.100208 0.1003889 0.1005039 0.1006168 0.1007764 0.1009796 0.1012184 0.1015202 0.1019036 0.1023214
 0.1026908 0.1029706 0.1031776 0.1033439 0.1034875 0.1036132 0.1037157 0.1037945 0.1038756 0.1039921
 0.1041346 0.1042533 0.1043281 0.1044034 0.1045354 0.1047372 0.1049946 0.105299 0.1056337 0.1059552
 0.106234 0.106508 0.1068456 0.1072423 0.1075951 0.1078085 0.1078937 0.1079304 0.1079649 0.1079993
 0.1080548 0.1081807 0.1083892 0.1086311 0.1088496 0.1090318 0.1091955 0.1093512 0.1094862 0.1095781
 0.109617 0.1096238 0.1096498 0.1097576 0.1099934 0.1103614 0.1108121 0.1112629 0.1116412 0.1119059
 0.1120338 0.1120194 0.1119078 0.1117976 0.1117649 0.1117799 0.1117255 0.1115006 0.1110859 0.110513
 0.1098072 0.1089837 0.108086 0.1072015 0.1064292 0.1058378 0.1054613 0.1053289 0.1054767 0.105907
 0.1065426 0.107245 0.1078829 0.1083646 0.1086093 0.1085365 0.108116 0.1074121 0.1065542 0.1056681
 0.1048366 0.1040893 0.1034068 0.1027651 0.1022108 0.1018883 0.101973 0.1025757 0.1036981 0.1052364
 0.107002 0.1087696 0.1103578 0.1116961 0.1128182 0.1137963 0.1146879 0.1155349 0.1163747 0.1172183
 0.1180289 0.1187542 0.1193821 0.119945 0.1204723 0.1209599 0.1213825 0.1217149 0.1219492 0.1221042
 0.1222094 0.1222704 0.1222678 0.1221992 0.1220969 0.1219852 0.1218393 0.1215996 0.1212207 0.1207046
 0.1201186 0.1196053 0.1193692 0.1196142 0.1204481 0.1218189 0.1235409 0.1253919 0.1271888 0.128796
 0.1301187 0.13113 0.1318872 0.1324891 0.1330147 0.1335084 0.1339968 0.1344908 0.1349803 0.1354464
 0.1358816 0.1362983 0.1367187 0.137155 0.137592 0.1379939 0.1383425 0.1386652 0.139018 0.1394334
 0.1398873 0.140321 0.1407025 0.1410568 0.1414225 0.1417933 0.1421278 0.1424098 0.1426698 0.1429514
 0.1432812 0.1436638 0.1440741 0.1444584 0.1447727 0.1450221 0.1452477 0.1454826 0.1457348 0.1460027
 0.1462853 0.1465757 0.146863 0.1471483 0.1474486 0.1477717 0.1480915 0.1483636 0.1485705 0.1487425
 0.1489279 0.14915 0.1493955 0.1496371 0.1498643 0.1500971 0.150367 0.15068 0.1510011 0.1512811
 0.1515002 0.1516804 0.15186 0.1520611 0.1522836 0.1525189 0.152761 0.1530051 0.153246 0.1534827
 0.15372 0.1539616 0.1542055 0.1544462 0.1546786 0.154902 0.1551199 0.1553378 0.1555626 0.1558058
 0.1560798 0.1563813 0.1566825 0.1569479 0.1571616 0.1573361 0.1574965 0.1576629 0.1578446 0.1580434
 0.1582584 0.1584871 0.1587249 0.1589664 0.1592082 0.1594487 0.1596854 0.159916 0.1601429 0.1603733
 0.1606139 0.1608669 0.161126 0.1613787 0.1616145 0.1618317 0.1620359 0.1622355 0.1624398 0.162654
 0.162875 0.1630947 0.1633101 0.1635267 0.1637498 0.1639803 0.1642164 0.1644551 0.1646894 0.164911
 0.1651183 0.1653208 0.1655315 0.1657536 0.1659765 0.1661876 0.1663869 0.1665849 0.1667909 0.1670068
 0.1672283 0.1674486 0.1676645 0.1678807 0.1681045 0.1683352 0.1685657 0.1687909 0.1690104 0.1692267
 0.1694414 0.1696529 0.1698569 0.1700555 0.1702586 0.1704726 0.1706924 0.1709096 0.1711235 0.1713396
 0.1715625 0.1717923 0.1720245 0.1722539 0.1724781 0.172696 0.172908 0.1731201 0.1733426 0.1735795
 0.1738246 0.1740697 0.1743105 0.1745426 0.1747617 0.1749654 0.1751547 0.1753354 0.175518 0.1757105
 0.1759134 0.1761232 0.1763355 0.1765424 0.176739 0.1769302 0.1771246 0.1773241 0.1775282 0.1777417
 0.1779688 0.1782076 0.1784514 0.1786899 0.178914 0.1791246 0.1793298 0.1795344 0.1797397 0.1799525
 0.1801779 0.1804103 0.1806401 0.1808631 0.1810784 0.1812897 0.181508 0.1817395 0.1819772 0.1822118
 0.1824415 0.1826662 0.1828847 0.1831005 0.1833174 0.1835338 0.1837502 0.1839704 0.1841936 0.1844169
 0.1846437 0.1848746 0.1851023 0.1853245 0.1855475 0.1857717 0.1859922 0.1862098 0.1864279 0.1866463
 0.1868678 0.1870955 0.1873239 0.1875484 0.187773 0.1879966 0.1882105 0.1884167 0.1886239 0.1888198
 0.1889547 0.1889057 0.1883739 0.1867713 0.1832033 0.1766411 0.1663295 0.152266 0.1353725 0.1171664
 0.09919564 0.0826367 0.06818433 0.0561431 0.04657319 0.03938528 0.03440545 0.03148363 0.03060532 0.03200077
 0.0362592 0.04397911 0.05446167 0.06455358 0.06987338 0.06827156 0.06188744 0.05519771 0.05129348 0.05039038
 0.05117315 0.05252767 0.05410203 0.05608963 0.05882848 0.06241883 0.06670123 0.07166949 0.07767668 0.08498548
 0.09322113 0.101522 0.1092767 0.1166035 0.124064 0.1319804 0.1400892 0.1477944 0.1546438 0.1605593
 0.1657382 0.1704357 0.1748209 0.1789677 0.1829118 0.1866495 0.1900536 0.1928363 0.1946834 0.1954914
 0.1954925 0.1951321 0.1948035 0.1946828 0.1947725 0.1950334 0.1954497 0.1960176 0.1967214 0.1975241
 0.1983762 0.1992371 0.2000872 0.2009164 0.2017132 0.2024697 0.2031811 0.2038389 0.2044344 0.204968
 0.2054461 0.2058765 0.2062722 0.2066489 0.2070137 0.2073628 0.2076914 0.2079974 0.2082803 0.2085415
 0.2087844 0.2090116 0.209226 0.2094335 0.2096386 0.2098435 0.2100524 0.2102698 0.2104926 0.2107108
 0.2109189 0.2111176 0.2113092 0.2114967 0.2116834 0.21187 0.2120545 0.2122382 0.2124259 0.2126195
 0.212815 0.2130073 0.2131945 0.2133776 0.2135592 0.2137415 0.213928 0.2141237 0.2143278 0.2145295
 0.2147198 0.2149079 0.215112 0.215337 0.2155724 0.2158056 0.2160274 0.2162313 0.2164208 0.2166094
 0.2168036 0.2169912 0.2171585 0.2173122 0.2174797 0.2176851 0.2179235 0.2181634 0.218379 0.2185709
 0.2187532 0.2189317 0.2191046 0.2192712 0.2194383 0.219624 0.2198463 0.2200983 0.2203516 0.2205922
 0.2208294 0.2210672 0.2212997 0.2215314 0.2217674 0.2219839 0.2221466 0.2222655 0.2224105 0.2226568
 0.2230095 0.2233881 0.2237012 0.2239333 0.2241386 0.2243709 0.2246446 0.2249268 0.225127 0.2251568
 0.2250656 0.2250628 0.2253309 0.2258458 0.2264235 0.2269042 0.2272502 0.2275112 0.2277435 0.2279566
 0.2281102 0.2281631 0.228149 0.228202 0.2284618 0.2289256 0.2294373 0.2298519 0.2301518 0.2303842
 0.2305775 0.2307459 0.2308586 0.2307851 0.2304322 0.2299971 0.2299195 0.2304565 0.2313894 0.2322528
 0.2327946 0.2331092 0.2333753 0.2336359 0.2338508 0.2339383 0.2336672 0.2327856 0.2315031 0.2306304
 0.2309047 0.2322469 0.2339 0.2351905 0.2359505 0.2363464 0.2365893 0.2367949 0.2368957 0.2366427
 0.2358838 0.2349388 0.2345218 0.2350786 0.2362811 0.2373802 0.2379734 0.2382135 0.2384023 0.2386581
 0.2388389 0.2384988 0.2371391 0.2349395 0.2331261 0.2331083 0.2351018 0.2378738 0.2399678 0.2409581
 0.2413359 0.2414349 0.2409394 0.2394512 0.2370753 0.2343684 0.2321899 0.2316065 0.2331785 0.2360581
 0.2384754 0.2394924 0.2397909 0.2405179 0.2419072 0.2432865 0.2439628 0.2437601 0.2428882 0.2415591
 0.2398997 0.2383209 0.2377141 0.2388093 0.2412884 0.2439134 0.2456678 0.246524 0.2468993 0.2464524
 0.2438419 0.2383429 0.2318646 0.2284158 0.2305587 0.2367242 0.2428952 0.2465536 0.2480549 0.2487409
 0.2491517 0.2488762 0.2467762 0.2415924 0.2339058 0.2274016 0.2263867 0.2315264 0.2390946 0.2444603
 0.2452646 0.2416903 0.2356166 0.230034 0.2278205 0.2300046 0.2353266 0.2414806 0.2464964 0.2492741
 0.2495681 0.2478753 0.2453898 0.2437149 0.2437054 0.2441963 0.2428816 0.2392333 0.2353915 0.2330134
 0.2306834 0.2265091 0.2222875 0.22231 0.2277969 0.2348687 0.2389147 0.239262 0.2383153 0.2371539
 0.2336517 0.2255186 0.2146276 0.2070662 0.2078012 0.2155167 0.2237922 0.2273832 0.226368 0.2242415
 0.2232722 0.2222669 0.2183815 0.2109309 0.2032523 0.1999041 0.2018132 0.2054416 0.2069359 0.2051699
 0.200337 0.1927204 0.1849562 0.1828046 0.190235 0.2045022 0.2183055 0.2257809 0.2245735 0.2144759
 0.1983181 0.1837634 0.1795575 0.1876595 0.2008551 0.2094144 0.2087978 0.2003908 0.187352 0.1725266
 0.1598099 0.1544329 0.1597831 0.1740153 0.1901924 0.1997029 0.1969594 0.1837607 0.1697431 0.1654269
 0.1725952 0.1830669 0.1878929 0.1854973 0.1803061 0.1770402 0.178009 0.1828142 0.1887636 0.1933577
 0.1962716 0.1965273 0.1897866 0.1735804 0.1542846 0.1429571 0.1438476 0.1521462 0.1628466 0.1752628
 0.1873704 0.1926865 0.1875938 0.1782517 0.1754005 0.1829464 0.1945873 0.2015199 0.2011569 0.1976132
 0.1953111 0.1942448 0.1922169 0.1899852 0.1914257 0.1982162 0.2069215 0.2128182 0.2147945 0.2149492
 0.2150102 0.2150225 0.21455 0.2134481 0.2117753 0.2099068 0.2084344 0.2074956 0.206644 0.2055377
 0.2039124 0.2005358 0.1934828 0.1828655 0.1725734 0.1672236 0.1672868 0.1693551 0.1711847 0.1730185
 0.1729095 0.1653958 0.148733 0.1308166 0.1234423 0.1309186 0.1468651 0.1614571 0.168922 0.1680247
 0.1591363 0.1444525 0.1304312 0.1258144 0.1345066 0.1518093 0.1694355 0.1826504 0.1908541 0.193654
 0.1900047 0.1810761 0.1714386 0.1664797 0.1690995 0.1783873 0.1899551 0.1971105 0.1940879 0.1817385
 0.1701652 0.1713466 0.1865662 0.2043017 0.213178 0.21353 0.2129138 0.2143536 0.214774 0.2131789
 0.2140062 0.2209797 0.2315856 0.2395398 0.2403107 0.232903 0.2192628 0.2047403 0.1967318 0.1987633
 0.2064988 0.2124902 0.2134282 0.2096901 0.2008956 0.1878013 0.1770619 0.1772162 0.1887618 0.202997
 0.2119004 0.2154301 0.2179281 0.2206416 0.2202395 0.2139147 0.2041191 0.1970585 0.1965493 0.2006628
 0.2049468 0.2071145 0.2070708 0.2042393 0.1979207 0.1902777 0.1863655 0.1897314 0.1987424 0.2081343
 0.2137395 0.2150857 0.2141083 0.2126588 0.2112749 0.2093561 0.2064137 0.20369 0.2039181 0.2083715
 0.2147785 0.2196238 0.2221604 0.2246637 0.2288567 0.2335376 0.2360581 0.2352376 0.2325009 0.2306424
 0.231591 0.2348789 0.2379835 0.2384725 0.2363114 0.2341052 0.2346975 0.2384648 0.2432718 0.2468972
 0.2488481 0.2499027 0.250795 0.2515818 0.2516248 0.2500944 0.2471631 0.2446893 0.244897 0.248162
 0.2526393 0.2561489 0.2579172 0.2584493 0.2583486 0.2576924 0.2563758 0.2546722 0.2532417 0.252618
 0.2528265 0.2535255 0.2543639 0.2551354 0.2557469 0.25619 0.2565105 0.2567432 0.2569 0.2570148
 0.2571239 0.2571945 0.2571587 0.2570465 0.2570022 0.2571181 0.2573077 0.257398 0.257291 0.2569613
 0.2563509 0.2553837 0.2540881 0.2525968 0.2509876 0.24923 0.2473979 0.2458983 0.2453459 0.2461043
 0.247946 0.2501921 0.252173 0.2535591 0.2543534 0.2547125 0.2548122 0.2547956 0.254743 0.2546618
 0.2545199 0.2542997 0.2540177 0.2537013 0.2533692 0.2530423 0.2527534 0.2525254 0.2523438 0.2521598
 0.25192 0.251592 0.2511762 0.2507006 0.2501957 0.2496616 0.2490562 0.2483247 0.2474496 0.2464765
 0.245491 0.2445673 0.2437204 0.2428989 0.2420311 0.2410837 0.2400562 0.2389299 0.2376804 0.236362
 0.2351179 0.2340607 0.2331708 0.2323374 0.231459 0.2304844 0.2294054 0.2282501 0.2270672 0.2258944
 0.224742 0.2235987 0.2224405 0.2212356 0.2199533 0.2185759 0.2171076 0.2155697 0.2139836 0.2123573
 0.2106797 0.2089075 0.2069522 0.2046902 0.2019942 0.1987609 0.1949413 0.1905849 0.1858537 0.1809742
 0.1761648 0.1715953 0.1673851 0.1636197 0.1603668 0.1576801 0.155597 0.1541458 0.1533524 0.153232
 0.1537768 0.154957 0.1567172 0.1589592 0.1615402 0.1642926 0.1670482 0.1696636 0.1720582 0.1742377
 0.1762679 0.1782086 0.1800619 0.181782 0.1833296 0.1846996 0.1858937 0.1868986 0.1877134 0.188374
 0.1889241 0.1893817 0.1897502 0.1900428 0.1902789 0.1904744 0.1906413 0.1907929 0.1909504 0.1911485
 0.1914238 0.191792 0.1922433 0.1927575 0.1933223 0.193939 0.1946103 0.1953217 0.1960477 0.1967821
 0.1975437 0.1983535 0.1992318 0.2002169 0.2013524 0.2026527 0.204102 0.2056707 0.2073056 0.2089137
 0.2103823 0.2116227 0.2125981 0.2133209 0.2138243 0.214138 0.2142896 0.2143126 0.2142329 0.2140571
 0.2137876 0.2134373 0.2130206 0.2125493 0.2120372 0.211491 0.2109014 0.2102647 0.209605 0.2089571
 0.2083377 0.2077421 0.2071643 0.2066101 0.2060898 0.2055965 0.2051021 0.2045879 0.2040645 0.2035464
 0.2030232 0.2024699 0.2018635 0.2011791 0.2003933 0.1995024 0.1985146 0.1974277 0.1962366 0.1949551
 0.1936059 0.1921926 0.1906989 0.1891164 0.1874635 0.1857645 0.1840113 0.182164 0.1802107 0.178213
 0.1762694 0.1744464 0.1727592 0.1711952 0.1697303 0.1683404 0.1670163 0.1657597 0.1645619 0.1634038
 0.1622792 0.1612039 0.1601971 0.1592603 0.1583808 0.1575568 0.156809 0.1561555 0.1555845 0.1550708
 0.1546097 0.1542163 0.1539069 0.1536983 0.1536055 0.153611 0.1536495 0.1536427 0.1535464 0.1533667
 0.153145 0.1529308 0.1527562 0.1526276 0.1525294 0.1524189 0.1522248 0.1518657 0.1512702 0.1503866
 0.149198 0.1477336 0.1460589 0.1442629 0.1424639 0.1407987 0.1393764 0.1382454 0.1373981 0.1367796
 0.1363009 0.1358843 0.1355177 0.1352597 0.1351852 0.1353025 0.1355031 0.1356232 0.1355919 0.1355046
 0.1355381 0.1358136 0.1363351 0.1370027 0.1376731 0.1382412 0.1386743 0.1389726 0.1391401 0.1391983
 0.1391784 0.1390864 0.138912 0.1386616 0.1383538 0.1379988 0.1375991 0.1371442 0.1366109 0.1359907
 0.1352975 0.1345326 0.1336784 0.1327252 0.13166 0.130461 0.1291802 0.1280103 0.1272021 0.1269176
 0.1271559 0.1277677 0.1285535 0.129392 0.1302184 0.1308615 0.1310866 0.1309595 0.1310362 0.1319605
 0.1338431 0.1361371 0.1381291 0.1394485 0.1400986 0.1401776 0.1397382 0.1388249 0.1374626 0.1356246
 0.1333213 0.1306641 0.1277933 0.1248528 0.12204 0.1195384 0.1174137 0.1156598 0.1142726 0.1133062
 0.1128961 0.1126895 0.1109085 0.1052922 0.09658461 0.09008451 0.09119216 0.09932869 0.1083316 0.1129642
 0.1130899 0.1115075 0.1101434 0.1092815 0.1088151 0.1088786 0.1096072 0.1108788 0.1123162 0.1135169
 0.1143128 0.114732 0.1147176 0.1139259 0.1116885 0.1072352 0.1003244 0.09179826 0.08328377 0.07623893
 0.07131919 0.06841443 0.06694957 0.06621061 0.06571142 0.0654171 0.06561759 0.06659099 0.06838587 0.07086764
 0.07385311 0.07708994 0.08017887 0.08273876 0.08469914 0.08626831 0.08758534 0.0885565 0.08903882 0.08902972
 0.08865286 0.08806369 0.08738695 0.08667456 0.08588392 0.0849207 0.08377038 0.08261912 0.08176669 0.08135669
 0.08126344 0.0812797 0.08130377 0.081312 0.08128768 0.08123656 0.08119509 0.08121416 0.08136768 0.08170994
 0.08217946 0.08261527 0.08289649 0.08302087 0.08306061 0.08305875 0.08293173 0.08253041 0.08189156 0.08129847
 0.08090504 0.08044299 0.07956263 0.07837674 0.07741382 0.07706119 0.07723514 0.07756543 0.07773779 0.07765781
 0.07744811 0.0773751 0.07766768 0.07825898</values></Ydata></ScSm><ScRf><Ydata ylabel="Single channel"><values byteorder="INTEL" format="FLOAT32" numvalues="1820"> 0.06057129 0.06071115 0.0608014 0.06084429 0.06085951 0.06088535 0.06096385 0.06111152 0.06130312 0.06148463
 0.06160979 0.06167079 0.0616869 0.06166855 0.06162003 0.06157938 0.06161455 0.06175698 0.06195693 0.06211682
 0.06216815 0.06213071 0.06210426 0.06217089 0.06228236 0.06227044 0.06200768 0.06155667 0.06112908 0.06088872
 0.06084896 0.06099998 0.06141556 0.0620539 0.06252965 0.06238765 0.06167471 0.06097268 0.06075259 0.06092247
 0.06109503 0.0610357 0.06073651 0.06033579 0.06016364 0.0606491 0.06189632 0.06334073 0.06395543 0.0628992
 0.06011557 0.05652504 0.05368973 0.05297741 0.05459528 0.05730806 0.05936323 0.05989042 0.0593231 0.05851522
 0.05782617 0.05721967 0.05684678 0.05708595 0.05801258 0.05903614 0.05919633 0.05797941 0.05593432 0.05429482
 0.05385593 0.05446649 0.05568234 0.05725273 0.0584503 0.0576835 0.05406082 0.0493806 0.04733311 0.04999073
 0.05559573 0.06028765 0.06154208 0.05957072 0.0561868 0.05330139 0.05221633 0.0532718 0.05577606 0.05858813
 0.06081528 0.06184781 0.0612045 0.05895222 0.05611079 0.05415136 0.05409066 0.05610006 0.05947091 0.06266871
 0.06402883 0.06299105 0.06047445 0.05790395 0.05627213 0.05613968 0.05776657 0.06083167 0.06443056 0.06760914
 0.06975068 0.07061821 0.07039709 0.06958558 0.06861725 0.06778799 0.06752628 0.06812994 0.06905985 0.06914385
 0.06785749 0.06602763 0.06498083 0.06517294 0.06582792 0.06588215 0.06505944 0.06368953 0.06165091 0.05836954
 0.05412674 0.05038939 0.04834121 0.04799306 0.04906967 0.05146002 0.05416451 0.05522832 0.05387204 0.05185778
 0.05172648 0.05409218 0.05733079 0.05958831 0.06050264 0.06108415 0.06240589 0.06449669 0.06619053 0.06599616
 0.06357278 0.06057061 0.059466 0.06112918 0.06399094 0.06598474 0.06673412 0.06731904 0.06839356 0.06917596
 0.06826168 0.06528512 0.06182013 0.06041045 0.06235189 0.066393 0.06963956 0.06969139 0.0662582 0.06123932
 0.05724685 0.0557963 0.05689352 0.0600207 0.06471175 0.07003407 0.0743586 0.07626674 0.07557308 0.07325397
 0.07033651 0.06694713 0.06283088 0.05892428 0.05755919 0.06025641 0.06576989 0.07112192 0.07426211 0.07508874
 0.07427886 0.07201222 0.06817824 0.06363437 0.0606168 0.0610022 0.06405393 0.06684153 0.06731115 0.06615543
 0.06530654 0.06551226 0.0660564 0.06626183 0.06646017 0.06743935 0.06933003 0.07131553 0.07242969 0.07243361
 0.07185593 0.07137335 0.07119379 0.07090302 0.07005261 0.06906731 0.06918684 0.07110372 0.0740037 0.07639964
 0.0776184 0.07804003 0.07810317 0.07754514 0.07578786 0.07302774 0.07068588 0.07035369 0.07224834 0.07507256
 0.07736325 0.0785481 0.07880618 0.07852986 0.07806066 0.07758298 0.07718105 0.07707171 0.07755151 0.07856526
 0.0796085 0.08022992 0.08039752 0.08027154 0.0798891 0.07923757 0.07848381 0.07796513 0.07794477 0.07841598
 0.07915765 0.07993217 0.08056061 0.08087321 0.08077122 0.08036952 0.07993101 0.07962459 0.07946241 0.07946062
 0.0796936 0.08014664 0.08064664 0.08100602 0.08117025 0.08119329 0.08113228 0.08100793 0.08083734 0.08067587
 0.08061967 0.08073796 0.080985 0.08122935 0.08141071 0.08160428 0.08186816 0.08209825 0.08213277 0.08196343
 0.08175322 0.08165888 0.08170468 0.08181922 0.08192068 0.08193399 0.08178195 0.08144968 0.08107498 0.0808986
 0.0810727 0.08155206 0.0821767 0.08278492 0.08324143 0.08347029 0.08351322 0.08348618 0.08344757 0.08335987
 0.08319047 0.08300311 0.08293726 0.08310421 0.08348842 0.08394927 0.08433113 0.08456111 0.08465388 0.0846857
 0.08476751 0.08495687 0.08517094 0.08526129 0.08519883 0.08511655 0.08514609 0.0852676 0.08534953 0.08530897
 0.08520645 0.08518137 0.0853062 0.08552346 0.0857279 0.08588372 0.08604245 0.08625356 0.0864714 0.08657107
 0.0864794 0.08627452 0.08611095 0.0860569 0.08606437 0.08609488 0.08618999 0.08638266 0.0866036 0.08673753
 0.0867552 0.08674094 0.08678217 0.08686375 0.08689129 0.08680157 0.08662735 0.08646239 0.08638528 0.08641231
 0.08649752 0.08656724 0.08656767 0.08649468 0.08638437 0.0862764 0.08618964 0.08613802 0.08616133 0.08630879
 0.08656443 0.08680233 0.08686054 0.08668585 0.08639541 0.08617519 0.08611254 0.08613275 0.08609308 0.08592246
 0.08566636 0.08541901 0.08523852 0.08512263 0.08503809 0.08495983 0.08489868 0.08490168 0.08500364 0.08515668
 0.08523169 0.08512913 0.08488248 0.08462279 0.08445249 0.08438297 0.08437051 0.08436939 0.0843627 0.08437577
 0.08444211 0.08453531 0.08457157 0.08450737 0.08439872 0.08434351 0.0844014 0.08457386 0.08480369 0.08498085
 0.08501069 0.08490738 0.0847846 0.08473983 0.0847788 0.08485523 0.08493945 0.08502804 0.08511926 0.0852118
 0.08532292 0.08548455 0.08571181 0.08597837 0.08622667 0.08640777 0.08652084 0.08661974 0.08677503 0.08701889
 0.08732235 0.08762272 0.0878738 0.08807556 0.08826072 0.08845334 0.0886493 0.08884494 0.08906718 0.08934869
 0.08968003 0.09001453 0.09031941 0.09059931 0.09087176 0.09114298 0.09141394 0.09170014 0.09203616 0.09244525
 0.09289253 0.09328493 0.09354613 0.09369123 0.09381665 0.09402377 0.09435046 0.09474252 0.09507956 0.09526981
 0.09534822 0.0954492 0.09565811 0.09592541 0.09616038 0.09637183 0.09666175 0.09708676 0.09757136 0.09797321
 0.09821561 0.09834674 0.09847553 0.09865657 0.0988455 0.09897341 0.09904557 0.09913366 0.09927958 0.0994603
 0.09966251 0.09993275 0.1003092 0.1007407 0.1011232 0.1013991 0.1015859 0.1017261 0.1018444 0.1019399
 0.101996 0.1020098 0.1020217 0.1020883 0.1022099 0.1023196 0.1023659 0.102378 0.1024268 0.1025527
 0.1027562 0.1030276 0.1033426 0.1036493 0.1039111 0.1041651 0.1044856 0.1048712 0.1052106 0.105399
 0.1054519 0.1054643 0.1054905 0.1055249 0.1055809 0.1057165 0.1059651 0.1062893 0.1066263 0.1069518
 0.1072809 0.1076226 0.1079455 0.1081889 0.1083067 0.1083091 0.108264 0.1082618 0.1083702 0.1086026
 0.1089139 0.1092311 0.1094995 0.1096945 0.1097977 0.1097966 0.1097304 0.1097019 0.1097965 0.109986
 0.110139 0.1101306 0.1099222 0.1095425 0.1090308 0.1084189 0.1077527 0.1071049 0.1065547 0.1061552
 0.1059259 0.1058852 0.1060725 0.1065101 0.1071432 0.1078487 0.108508 0.1090403 0.1093645 0.1093875
 0.1090711 0.1084879 0.1077761 0.107053 0.106377 0.105757 0.1051681 0.1045887 0.1040659 0.1037426
 0.1037979 0.1043474 0.1053832 0.106774 0.1083045 0.1097502 0.1109665 0.1119365 0.1127343 0.1134435
 0.1141094 0.114756 0.1154101 0.1160792 0.1167231 0.1172861 0.1177583 0.1181791 0.1185811 0.1189598
 0.1192943 0.119574 0.1198086 0.1200272 0.120252 0.1204549 0.1205652 0.1205457 0.1204401 0.1203208
 0.1202083 0.1200586 0.1198124 0.1194446 0.1189957 0.1185884 0.1184063 0.1186184 0.1192859 0.1203266
 0.1215748 0.1228842 0.1241639 0.1253321 0.1262883 0.1269698 0.1274112 0.1277167 0.1279834 0.1282634
 0.1285711 0.1288952 0.1292108 0.1295004 0.1297684 0.1300361 0.1303285 0.1306559 0.1309969 0.131306
 0.1315569 0.1317793 0.1320398 0.1323791 0.1327696 0.133143 0.1334655 0.1337678 0.1340888 0.134409
 0.1346714 0.1348601 0.1350248 0.1352302 0.1355086 0.1358531 0.1362222 0.1365533 0.1368035 0.1369868
 0.1371546 0.1373438 0.1375576 0.1377883 0.1380337 0.138289 0.1385444 0.1388014 0.1390795 0.1393889
 0.1396983 0.1399498 0.1401163 0.1402363 0.1403795 0.1405831 0.1408256 0.1410599 0.1412652 0.1414698
 0.141721 0.1420293 0.1423462 0.1426052 0.1427815 0.1429076 0.1430365 0.143199 0.1433946 0.1436062
 0.143816 0.1440121 0.144194 0.1443745 0.1445719 0.1447938 0.1450306 0.1452647 0.1454835 0.1456847
 0.1458754 0.1460679 0.1462755 0.1465125 0.1467881 0.1470908 0.1473825 0.1476221 0.1477977 0.1479305
 0.1480524 0.1481876 0.1483477 0.1485323 0.1487309 0.1489317 0.1491288 0.1493227 0.1495187 0.149722
 0.149934 0.150151 0.1503674 0.1505802 0.1507919 0.1510099 0.1512367 0.1514616 0.1516686 0.1518545
 0.1520324 0.152218 0.1524168 0.1526213 0.1528184 0.1530008 0.1531748 0.1533543 0.1535443 0.1537393
 0.1539326 0.1541239 0.1543153 0.1545076 0.1547001 0.1548934 0.1550898 0.1552909 0.1554944 0.1556962
 0.1558947 0.1560908 0.1562855 0.1564806 0.1566796 0.1568846 0.1570951 0.1573086 0.1575215 0.1577297
 0.1579302 0.1581214 0.1583034 0.1584819 0.1586673 0.1588646 0.159068 0.1592699 0.1594679 0.1596631
 0.1598578 0.1600567 0.1602611 0.1604651 0.1606637 0.160863 0.1610737 0.1612973 0.1615255 0.1617499
 0.161967 0.1621782 0.1623846 0.162586 0.1627862 0.1629945 0.1632158 0.1634422 0.1636611 0.1638655
 0.1640551 0.1642332 0.1644051 0.1645738 0.1647402 0.1649081 0.1650832 0.1652635 0.1654433 0.1656256
 0.1658184 0.1660212 0.1662253 0.166428 0.166634 0.1668461 0.167061 0.167272 0.1674761 0.1676774
 0.1678809 0.168085 0.1682855 0.1684823 0.1686776 0.1688728 0.1690718 0.1692783 0.1694891 0.169699
 0.1699098 0.1701255 0.1703448 0.1705646 0.1707818 0.1709911 0.1711918 0.1713938 0.1716067 0.1718282
 0.1720523 0.172276 0.1724956 0.1727074 0.1729128 0.1731132 0.1733086 0.1735048 0.1737103 0.1739243
 0.1741399 0.1743544 0.1745654 0.1747688 0.1749677 0.1751698 0.175377 0.175589 0.1758084 0.1760321
 0.1762524 0.1764699 0.176686 0.1768803 0.177003 0.1769424 0.176427 0.1749132 0.171563 0.165406
 0.1557279 0.1425246 0.1266611 0.1095624 0.09268434 0.07713387 0.06356351 0.05225841 0.04327565 0.03653324
 0.0318706 0.02914771 0.02834646 0.02967456 0.03367927 0.04092218 0.05075044 0.0602091 0.06519265 0.06368872
 0.05770364 0.05143389 0.04778013 0.04694946 0.04770828 0.04900264 0.05049342 0.05236351 0.05493744 0.05831049
 0.06232949 0.06699267 0.07264379 0.07953562 0.08730854 0.09513875 0.1024427 0.1093329 0.1163464 0.123795
 0.1314327 0.138697 0.1451598 0.1507437 0.1556302 0.1600569 0.1641845 0.1680893 0.1718159 0.1753675
 0.1786141 0.1812653 0.183019 0.183791 0.1838109 0.1834917 0.1831935 0.1830848 0.1831799 0.1834434
 0.1838498 0.1843885 0.1850531 0.1858234 0.1866552 0.1874997 0.1883291 0.1891329 0.1899025 0.1906296
 0.1913073 0.1919271 0.1924854 0.1929899 0.193451 0.1938751 0.1942734 0.1946597 0.1950372 0.1953984
 0.1957402 0.1960623 0.1963587 0.1966231 0.1968601 0.1970818 0.1972984 0.1975138 0.1977264 0.1979333
 0.1981373 0.1983453 0.1985588 0.1987733 0.1989853 0.1991933 0.1993953 0.1995915 0.1997847 0.1999737
 0.2001555 0.2003344 0.2005212 0.2007207 0.2009255 0.2011236 0.2013087 0.2014854 0.201665 0.2018547
 0.2020547 0.2022633 0.2024772 0.2026867 0.2028855 0.2030831 0.2032951 0.2035215 0.203747 0.2039596
 0.204158 0.2043467 0.2045354 0.2047353 0.2049448 0.2051449 0.2053193 0.2054766 0.2056465 0.2058529
 0.2060886 0.2063219 0.2065288 0.2067139 0.2068951 0.2070822 0.207271 0.207451 0.2076201 0.2077987
 0.2080189 0.2082838 0.2085566 0.2088041 0.2090275 0.2092452 0.209468 0.2097009 0.2099382 0.2101543
 0.2103249 0.2104663 0.2106391 0.2108988 0.2112409 0.2115973 0.2118979 0.2121327 0.2123427 0.2125702
 0.2128349 0.2131165 0.2133298 0.2133823 0.2133156 0.2133306 0.2136027 0.2141058 0.2146639 0.2151312
 0.2154805 0.2157594 0.2160134 0.2162416 0.2163991 0.2164482 0.2164304 0.2164847 0.2167485 0.2172143
 0.2177248 0.2181369 0.2184377 0.2186821 0.2189042 0.2191114 0.2192578 0.2192038 0.2188596 0.2184273
 0.2183394 0.2188393 0.2197099 0.2205118 0.2210202 0.2213331 0.2216164 0.2219038 0.222149 0.2222626
 0.2220165 0.2211749 0.2199515 0.2191297 0.2194164 0.2207341 0.2223557 0.2236315 0.2243938 0.224795
 0.2250353 0.22523 0.2253238 0.2250895 0.2243874 0.223515 0.2231369 0.2236729 0.2248254 0.2258961
 0.2264989 0.2267661 0.2269771 0.2272444 0.2274356 0.2271284 0.2258488 0.2237699 0.2220642 0.2220767
 0.2240101 0.226687 0.2287204 0.2297042 0.2301011 0.2302244 0.229773 0.2283707 0.2261231 0.2235636
 0.2215069 0.2209648 0.222478 0.2252509 0.2275963 0.2286058 0.2289164 0.2296228 0.2309598 0.2322968
 0.2329729 0.2328149 0.2320213 0.2307948 0.2292474 0.2277581 0.2271796 0.2282284 0.2306212 0.2331814
 0.2349282 0.2358176 0.2362326 0.2358372 0.233344 0.2280643 0.2218436 0.2185433 0.2206258 0.2265783
 0.2325378 0.2360854 0.2375641 0.2382649 0.2387084 0.2384952 0.2365221 0.2315731 0.224213 0.2179993
 0.2170812 0.2220899 0.2294255 0.2346284 0.2354357 0.2320291 0.2262192 0.2208898 0.2188158 0.2209845
 0.2261789 0.2321806 0.237093 0.2398484 0.2401993 0.2386203 0.2362691 0.2347038 0.2347596 0.2353128
 0.2341309 0.2306975 0.2270754 0.2248625 0.22269 0.2187308 0.2147273 0.2148379 0.2202528 0.2272251
 0.2312953 0.2318074 0.2310739 0.2301163 0.226862 0.2191071 0.2087131 0.2016422 0.2027505 0.2107539
 0.2193863 0.2235413 0.2233196 0.2221462 0.2222016 0.2222102 0.2192383 0.2125335 0.2054391 0.2025734
 0.204892 0.2088203 0.2104547 0.2086554 0.2036299 0.1956885 0.1875288 0.185009 0.1921764 0.2062851
 0.219972 0.2273197 0.2259596 0.2156947 0.1993836 0.1847514 0.1806075 0.1889112 0.2023741 0.211184
 0.2107683 0.2025219 0.1896204 0.1749269 0.1623878 0.1573362 0.1632626 0.1783243 0.1954281 0.2056948
 0.2033132 0.1901096 0.1760694 0.1721221 0.1801103 0.1915027 0.1969809 0.1949174 0.1899371 0.1869857
 0.1885152 0.1941178 0.2009343 0.2063243 0.2099611 0.2107452 0.2039205 0.186782 0.166213 0.1541648
 0.1552394 0.1642673 0.1758762 0.1893496 0.2024908 0.2082535 0.2026908 0.1924587 0.1891993 0.1971741
 0.2095954 0.2169495 0.2164294 0.2124769 0.2098829 0.2086633 0.2064582 0.204076 0.2056717 0.2130389
 0.2224959 0.2289965 0.2313647 0.2318476 0.2322837 0.2327056 0.2326274 0.2318808 0.2305344 0.2290112
 0.2279644 0.227541 0.2272455 0.2266957 0.2255899 0.2225343 0.2153419 0.2041054 0.1931699 0.1876965
 0.1881795 0.1907832 0.193031 0.1952433 0.195224 0.1867836 0.167928 0.1475533 0.1389734 0.1470553
 0.1645933 0.1805067 0.1883329 0.1867698 0.176326 0.1594832 0.1433547 0.1375069 0.1461739 0.1641803
 0.182454 0.1958468 0.2037939 0.2060051 0.2014384 0.1913462 0.180569 0.1747932 0.177047 0.1863253
 0.1979762 0.2049752 0.2013322 0.1879883 0.1754694 0.1761922 0.1914803 0.2094268 0.2182814 0.2183753
 0.2174955 0.2187744 0.2190629 0.2173362 0.2181488 0.2253326 0.2363284 0.2447049 0.245808 0.2385986
 0.2250789 0.2107931 0.2033918 0.2064593 0.2153767 0.2223056 0.2237643 0.220151 0.2110993 0.1974651
 0.1862977 0.1865942 0.1988689 0.2139625 0.2234539 0.2273263 0.2301546 0.2332254 0.2329948 0.22649
 0.216314 0.2090539 0.2087707 0.2134341 0.2183325 0.2210419 0.2214436 0.2188891 0.2126069 0.2049056
 0.2012006 0.2052826 0.2153599 0.2257196 0.2318277 0.2331461 0.2317534 0.2296548 0.2274575 0.2245635
 0.2205015 0.2166369 0.2159029 0.2196717 0.2255629 0.2298883 0.2318771 0.2339305 0.2378635 0.2424176
 0.2447977 0.2437165 0.2406056 0.2383511 0.2389731 0.242028 0.2449461 0.2452269 0.2428185 0.2403896
 0.2408723 0.2446659 0.2495788 0.2533226 0.255377 0.2565241 0.257511 0.2583969 0.2585115 0.2569659
 0.2539055 0.2512375 0.2512705 0.2544188 0.2588088 0.2622219 0.2638946 0.2643774 0.2642934 0.2636858
 0.2624004 0.2606947 0.2592508 0.2586317 0.2588718 0.259614 0.2604828 0.2612563 0.2618411 0.2622405
 0.2625169 0.2627164 0.2628498 0.2629437 0.263033 0.2630873 0.2630389 0.2629231 0.262905 0.2630987
 0.2634134 0.2636428 0.2636518 0.2633993 0.2628366 0.2619088 0.2606625 0.2592366 0.2577021 0.2560153
 0.2542445 0.2528083 0.2523453 0.2532373 0.2552555 0.2577026 0.2598885 0.261471 0.2624409 0.2629353
 0.2631193 0.263151 0.2631449 0.2631267 0.2630486 0.2628611 0.2625651 0.2621993 0.2618039 0.2614112
 0.2610545 0.2607575 0.2605051 0.2602419 0.2599107 0.2594915 0.2590066 0.2584935 0.2579688 0.2574095
 0.2567685 0.2560106 0.2551398 0.2542008 0.2532626 0.2523886 0.2515968 0.2508479 0.2500831 0.249266
 0.248371 0.2473582 0.246214 0.2450245 0.2439556 0.2431208 0.2424818 0.2418962 0.2412367 0.2404516
 0.2395458 0.2385534 0.2375203 0.2364769 0.2354172 0.234313 0.2331394 0.2318794 0.2305223 0.2290716
 0.2275442 0.22596 0.2243428 0.2227188 0.2210814 0.2193541 0.2174029 0.2150867 0.2122898 0.2089307
 0.2049823 0.2005074 0.19567 0.1906934 0.1857873 0.1811057 0.1767621 0.1728647 0.1695174 0.166796
 0.1647387 0.1633614 0.1626759 0.1626949 0.1634175 0.1648075 0.1667851 0.1692403 0.1720427 0.1750358
 0.1780377 0.1808735 0.183437 0.1857378 0.1878756 0.189938 0.1919193 0.1937476 0.1953693 0.1967784
 0.197984 0.1989927 0.1998255 0.2005199 0.2011077 0.2016021 0.2020125 0.202361 0.2026741 0.2029613
 0.2032123 0.2034197 0.2035934 0.2037543 0.2039251 0.2041279 0.2043772 0.2046784 0.2050423 0.2054853
 0.2060043 0.2065667 0.2071415 0.2077253 0.2083354 0.2089934 0.2097273 0.2105691 0.211543 0.2126562
 0.2138987 0.2152414 0.2166298 0.2179816 0.2192012 0.220211 0.2209748 0.2214938 0.2217865 0.2218808
 0.2218121 0.2216156 0.2213206 0.2209501 0.2205164 0.2200168 0.2194473 0.2188183 0.2181509 0.2174624
 0.2167634 0.216063 0.2153689 0.2146854 0.2140142 0.213357 0.2127173 0.2121001 0.2115083 0.2109396
 0.2103852 0.2098306 0.2092619 0.2086785 0.2080926 0.2075036 0.2068762 0.2061622 0.2053419 0.2044315
 0.2034473 0.2023801 0.2012085 0.1999276 0.1985553 0.1971138 0.1956101 0.1940374 0.1923909 0.1906687
 0.188856 0.1869293 0.1848991 0.1828387 0.1808508 0.1790017 0.1772978 0.1757128 0.1742189 0.1727999
 0.1714494 0.1701617 0.1689288 0.1677537 0.1666541 0.1656407 0.1646979 0.1637968 0.1629259 0.1621053
 0.1613721 0.160748 0.1602189 0.1597529 0.1593332 0.1589665 0.1586763 0.1585024 0.1584733 0.1585529
 0.15864 0.1586472 0.158563 0.1584298 0.1582934 0.1581809 0.1581021 0.1580539 0.1580214 0.1579655
 0.157815 0.1574851 0.1569051 0.156029 0.1548425 0.1533697 0.1516695 0.1498353 0.1479982 0.1462971
 0.1448256 0.1436251 0.1427098 0.142055 0.1415817 0.1412069 0.1409073 0.1407189 0.1406937 0.140843
 0.1410816 0.1412585 0.141302 0.1413138 0.1414771 0.1419008 0.1425618 0.1433429 0.1441039 0.1447516
 0.1452549 0.1456049 0.1458073 0.1459046 0.1459464 0.1459384 0.145859 0.1456985 0.1454566 0.1451419
 0.1447851 0.144404 0.1439673 0.1434281 0.1427643 0.1419774 0.1410974 0.1401718 0.1391889 0.1380735
 0.1368469 0.1357323 0.1350258 0.1348958 0.135311 0.1360911 0.1370385 0.1380633 0.1391141 0.139981
 0.140379 0.1403666 0.1405365 0.1415776 0.1436208 0.1460979 0.1482485 0.149676 0.1503882 0.1504857
 0.1500175 0.14904 0.1475894 0.1456321 0.143178 0.1403535 0.1372941 0.1341232 0.1310522 0.1283118
 0.1260004 0.1241171 0.1226434 0.1216115 0.1211587 0.120937 0.1190689 0.1131159 0.103845 0.09692277
 0.09813082 0.1068453 0.1164781 0.1214368 0.1215737 0.1198801 0.1184211 0.1174952 0.1169751 0.117005
 0.117738 0.1190476 0.1205418 0.1218039 0.122646 0.1230781 0.1230369 0.1221647 0.1197516 0.1149743
 0.1075679 0.09841706 0.08926649 0.08170398 0.07643266 0.07330155 0.07168946 0.07086883 0.07034013 0.07005279
 0.0703057 0.07138816 0.07332777 0.07596295 0.07911749 0.08256757 0.08592472 0.0887768 0.09098762 0.09271538
 0.09411449 0.09514759 0.0957028 0.09576605 0.09543217 0.09482624 0.09406056 0.09321415 0.09228924 0.09121502
 0.0899878 0.08880793 0.08796542 0.08756021 0.08743629 0.08740167 0.08739191 0.08740921 0.08743071 0.08741735
 0.08735573 0.0872954 0.08735973 0.08765718 0.08815049 0.08866058 0.08901288 0.08916059 0.08917708 0.08911804
 0.08888307 0.08831647 0.08750795 0.08680847 0.08637618 0.08588526 0.0849369 0.0836551 0.08262356 0.0822629
 0.08246133 0.08279739 0.0829407 0.08281515 0.08256388 0.08246824 0.08276069 0.08334962 0.08380141 0.08374753
</values></Ydata></ScRf><Data_Parameters_AB><parameter name="DPF">1</parameter><parameter name="NPT">3497</parameter><parameter name="FXV">3996</parameter><parameter name="LXV">500</parameter><parameter name="CSF">1</parameter><parameter name="MXY">0.0528140477836132</parameter><parameter name="MNY">-0.0502057895064354</parameter><parameter name="DAT">27/05/2022</parameter><parameter name="TIM">12:09:00.463 (GMT+2)</parameter><parameter name="DXU">WN</parameter></Data_Parameters_AB><AB__Qtest><MainReport name="Quality Test Report"><Header><Line><Legend>Test result ok/not ok [1/0]: </Legend><Value>0</Value></Line><Line><Legend>Method file: </Legend><Value>C:\Users\Public\Documents\Bruker\OPUS_8.2.28\QT\IRBT_v3_default.QT</Value></Line></Header><Matrix><Line><Legend></Legend><Legend>min</Legend><Legend>max</Legend><Legend>measured</Legend></Line><Line><Value>Absorption (X-Range 1):</Value><Value>0.400000</Value><Value>2.000000</Value><Value>0.059326</Value></Line><Line><Value>Noise (X-Range 4):</Value><Value></Value><Value>0.000300</Value><Value>0.000055</Value></Line><Line><Value>Signal/Noise (X-Range 2):</Value><Value>200.000000</Value><Value></Value><Value>14.851810</Value></Line><Line><Value>Signal/Noise (X-Range 3):</Value><Value>40.000000</Value><Value></Value><Value>10.570197</Value></Line><Line><Value>Water vapour (X-Range 5):</Value><Value></Value><Value>0.000300</Value><Value>0.000040</Value></Line><Line><Value>Signal/Water (X-Range 2):</Value><Value>100.000000</Value><Value></Value><Value>20.285874</Value></Line><Line><Value>Signal/Water (X-Range 3):</Value><Value>20.000000</Value><Value></Value><Value>14.437680</Value></Line><Line><Value>Fringes (X-Range 6):</Value><Value></Value><Value>0.000100</Value><Value>0.000055</Value></Line></Matrix></MainReport></AB__Qtest><Data_Parameters_ScSm><parameter name="DPF">1</parameter><parameter name="NPT">1814</parameter><parameter name="FXV">3996.33169228125</parameter><parameter name="LXV">499.541461535156</parameter><parameter name="CSF">1</parameter><parameter name="MXY">0.258449286222458</parameter><parameter name="MNY">0.03060532361269</parameter><parameter name="DAT">27/05/2022</parameter><parameter name="TIM">12:09:00.463 (GMT+2)</parameter><parameter name="DXU">WN</parameter></Data_Parameters_ScSm><Data_Parameters_ScRf><parameter name="DPF">1</parameter><parameter name="NPT">1820</parameter><parameter name="FXV">4004.04661832813</parameter><parameter name="LXV">495.683998511719</parameter><parameter name="CSF">1</parameter><parameter name="MXY">0.264377444982529</parameter><parameter name="MNY">0.0283464640378952</parameter><parameter name="DAT">27/05/2022</parameter><parameter name="TIM">12:08:34.102 (GMT+2)</parameter><parameter name="DXU">WN</parameter></Data_Parameters_ScRf><Optic_Parameters_Rf><parameter name="APR">0</parameter><parameter name="APT">Open</parameter><parameter name="BMS">KBr</parameter><parameter name="DTC">RT-DLaTGS_IR-Biotyper [Microplate reader]</parameter><parameter name="HPF">0</parameter><parameter name="LPF">10.0</parameter><parameter name="LPV">4000</parameter><parameter name="PGR">0</parameter><parameter name="RCH">Module port</parameter><parameter name="RDX">0</parameter><parameter name="SRC">MIR</parameter><parameter name="VEL">10.0</parameter><parameter name="SON">Off</parameter></Optic_Parameters_Rf><Acquisition_Parameters_Rf><parameter name="ADT">1</parameter><parameter name="AQM">DD</parameter><parameter name="CFE">0</parameter><parameter name="COR">0</parameter><parameter name="DEL">0</parameter><parameter name="DLY">0</parameter><parameter name="HFW">8000</parameter><parameter name="LFW">0</parameter><parameter name="NSR">32</parameter><parameter name="PLF">AB</parameter><parameter name="RES">6</parameter><parameter name="RGN">-1</parameter><parameter name="STR">0</parameter><parameter name="TCL">MakeCompatibleScalar (0, {WSV=1.000000, ARV=0});</parameter><parameter name="TDL">37</parameter><parameter name="RPO">0</parameter></Acquisition_Parameters_Rf><FT_-_Parameters_Rf><parameter name="APF">B3</parameter><parameter name="HFQ">500</parameter><parameter name="LFQ">4000</parameter><parameter name="NLI">0</parameter><parameter name="PHR">24</parameter><parameter name="PHZ">ML</parameter><parameter name="SPZ">NO</parameter><parameter name="ZFF">1</parameter></FT_-_Parameters_Rf><Optic_Parameters_><parameter name="APR">0</parameter><parameter name="APT">Open</parameter><parameter name="BMS">KBr</parameter><parameter name="CHN">Module port</parameter><parameter name="DTC">RT-DLaTGS_IR-Biotyper [Microplate reader]</parameter><parameter name="HPF">0</parameter><parameter name="LPF">10.0</parameter><parameter name="LPV">4000</parameter><parameter name="PGN">0</parameter><parameter name="RDX">0</parameter><parameter name="SRC">MIR</parameter><parameter name="VEL">10.0</parameter><parameter name="SON">Off</parameter></Optic_Parameters_><FT_-_Parameters_><parameter name="APF">B3</parameter><parameter name="HFQ">500</parameter><parameter name="LFQ">4000</parameter><parameter name="NLI">0</parameter><parameter name="PHR">24</parameter><parameter name="PHZ">ML</parameter><parameter name="SPZ">NO</parameter><parameter name="ZFF">1</parameter></FT_-_Parameters_><Acquisition_Parameters_><parameter name="ADT">1</parameter><parameter name="AQM">DD</parameter><parameter name="CFE">0</parameter><parameter name="COR">0</parameter><parameter name="DEL">0</parameter><parameter name="DLY">0</parameter><parameter name="HFW">8000</parameter><parameter name="LFW">0</parameter><parameter name="NSS">32</parameter><parameter name="PLF">AB</parameter><parameter name="RES">6</parameter><parameter name="SOT">0</parameter><parameter name="TCL">MakeCompatibleScalar (0, {WSV=1.000000, ARV=0});</parameter><parameter name="TDL">37</parameter><parameter name="SPO">0</parameter><parameter name="SGN">-1</parameter></Acquisition_Parameters_><Instrument_Parameters_Rf><parameter name="HFL">15800.168544</parameter><parameter name="LFL">0</parameter><parameter name="LWN">15800.168544</parameter><parameter name="ABP">32197</parameter><parameter name="SSP">1</parameter><parameter name="ARG">2</parameter><parameter name="ASG">2</parameter><parameter name="ASS">32</parameter><parameter name="GFW">16</parameter><parameter name="GBW">16</parameter><parameter name="BFW">0</parameter><parameter name="BBW">0</parameter><parameter name="PKA">7267</parameter><parameter name="PKL">4996</parameter><parameter name="PRA">7453</parameter><parameter name="PRL">5001</parameter><parameter name="P2A">1</parameter><parameter name="P2L">1</parameter><parameter name="P2R">1</parameter><parameter name="P2K">1</parameter><parameter name="DAQ">0</parameter><parameter name="AG2">1</parameter><parameter name="SSM">1</parameter><parameter name="RSN">24938</parameter><parameter name="CRR">0</parameter><parameter name="SRT">1653653314.103</parameter><parameter name="DUR">19.635986328125</parameter><parameter name="TSC">27.9</parameter><parameter name="MVD">0.595883250236511</parameter><parameter name="AN1">0.225798025789339</parameter><parameter name="AN2">0</parameter><parameter name="VSN">2.485 Apr  4 2017</parameter><parameter name="SRN">0085</parameter><parameter name="CAM">0</parameter><parameter name="INS">IR-Biotyper</parameter><parameter name="FOC">69</parameter><parameter name="RDY">1</parameter><parameter name="ARS">32</parameter></Instrument_Parameters_Rf><Sample_Parameters_><parameter name="BLD"></parameter><parameter name="CNM">Admin</parameter><parameter name="CPY"></parameter><parameter name="DPM"></parameter><parameter name="EXP">IRBT_v3_32Scans.XPM</parameter><parameter name="LCT"></parameter><parameter name="SFM">Microplate, HTS-XT</parameter><parameter name="SNM">220527-1039(v.2)_CLA33F (D_4)_E9_c8891630-282c-4cf0-b84d-d54323fac7ce.0</parameter><parameter name="XPP">C:\Users\Public\Documents\Bruker\OPUS_8.2.28\XPM</parameter><parameter name="IST">OK</parameter><parameter name="CPG">1252</parameter><parameter name="UID">e6f4e646-7def-43be-9565-18ee72327d6e</parameter></Sample_Parameters_><Instrument_Parameters_><parameter name="HFL">15800.168544</parameter><parameter name="LFL">0</parameter><parameter name="LWN">15800.168544</parameter><parameter name="ABP">32197</parameter><parameter name="SSP">1</parameter><parameter name="ASG">2</parameter><parameter name="ARG">2</parameter><parameter name="ASS">32</parameter><parameter name="GFW">16</parameter><parameter name="GBW">16</parameter><parameter name="BFW">0</parameter><parameter name="BBW">0</parameter><parameter name="PKA">7343</parameter><parameter name="PKL">4988</parameter><parameter name="PRA">7646</parameter><parameter name="PRL">4993</parameter><parameter name="P2A">1</parameter><parameter name="P2L">1</parameter><parameter name="P2R">1</parameter><parameter name="P2K">1</parameter><parameter name="DAQ">0</parameter><parameter name="AG2">1</parameter><parameter name="SSM">1</parameter><parameter name="RSN">13095</parameter><parameter name="CRR">0</parameter><parameter name="SRT">1653653340.463</parameter><parameter name="DUR">19.635986328125</parameter><parameter name="TSC">27.9</parameter><parameter name="MVD">0.546859920024872</parameter><parameter name="AN1">0.225814734656946</parameter><parameter name="AN2">0</parameter><parameter name="VSN">2.485 Apr  4 2017</parameter><parameter name="SRN">0085</parameter><parameter name="CAM">0</parameter><parameter name="INS">IR-Biotyper</parameter><parameter name="FOC">69</parameter><parameter name="RDY">1</parameter></Instrument_Parameters_><History/></OPUSDataFile>
