<?xml version="1.0" encoding="UTF-8" ?>
<OPUSDataFile><AB><Ydata ylabel="Absorbance Units"><values byteorder="INTEL" format="FLOAT32" numvalues="3497"> -0.02959865 -0.0296146 -0.02960349 -0.02956419 -0.02951319 -0.02945133 -0.02939372 -0.02934077 -0.0293013 -0.02927551
 -0.02926996 -0.02928345 -0.02931689 -0.02936551 -0.02941911 -0.02947325 -0.02951478 -0.02954588 -0.02956226 -0.02957214
 -0.02957994 -0.02959349 -0.02961875 -0.02965744 -0.02971298 -0.02977839 -0.02985385 -0.02992642 -0.02999409 -0.03004814
 -0.03008712 -0.03011267 -0.03012482 -0.03012829 -0.03012324 -0.03011212 -0.03009623 -0.03008363 -0.03007732 -0.03009365
 -0.03013141 -0.03019892 -0.030286 -0.03038092 -0.03047258 -0.03054143 -0.03058925 -0.03060812 -0.03061228 -0.03060747
 -0.03060344 -0.03060744 -0.03061322 -0.03062179 -0.03061963 -0.0306038 -0.03057231 -0.03052364 -0.03047308 -0.03042138
 -0.03038895 -0.03037622 -0.03039419 -0.03044117 -0.03051359 -0.03060811 -0.03071152 -0.03082073 -0.03092165 -0.03101367
 -0.03108818 -0.03114969 -0.03119944 -0.03124319 -0.03128795 -0.03133021 -0.03137245 -0.0314014 -0.03141182 -0.03139835
 -0.03135576 -0.03129873 -0.03122722 -0.03116568 -0.03111616 -0.03110031 -0.03111949 -0.03118673 -0.03130133 -0.03145924
 -0.03165463 -0.0318522 -0.03204271 -0.03216994 -0.03223766 -0.03222033 -0.03214186 -0.03202968 -0.031905 -0.03180573
 -0.03173469 -0.03170994 -0.03171647 -0.0317537 -0.031798 -0.03183921 -0.03186728 -0.03187432 -0.03187623 -0.03187334
 -0.03188822 -0.03192433 -0.03198097 -0.03205843 -0.03212969 -0.03219387 -0.03223122 -0.03224511 -0.0322463 -0.03223908
 -0.03224674 -0.03226687 -0.03230703 -0.03235876 -0.03241006 -0.03245792 -0.0324925 -0.03251835 -0.03253851 -0.03254823
 -0.03254715 -0.03252573 -0.03247414 -0.03241387 -0.03234183 -0.03231322 -0.03233624 -0.03245465 -0.03267827 -0.03297835
 -0.03335485 -0.03364311 -0.03383604 -0.03378197 -0.0335096 -0.03313034 -0.0326728 -0.03231078 -0.03203342 -0.03190279
 -0.03189277 -0.03199296 -0.03216561 -0.03236615 -0.0325568 -0.0326867 -0.03275454 -0.03273622 -0.03267632 -0.03258606
 -0.03250149 -0.03243916 -0.03239027 -0.03235666 -0.03232 -0.03227683 -0.0322379 -0.03220346 -0.03220359 -0.03223871
 -0.03232173 -0.03244784 -0.03259452 -0.03275308 -0.03287807 -0.03296574 -0.03298017 -0.03293135 -0.03281534 -0.0326556
 -0.03247528 -0.03230139 -0.03216385 -0.03207808 -0.03206417 -0.03211533 -0.03223849 -0.03240292 -0.0326056 -0.03280379
 -0.03299017 -0.03313412 -0.03323118 -0.03326945 -0.03324787 -0.03316569 -0.03302395 -0.03283818 -0.03261144 -0.03237113
 -0.03211977 -0.03188047 -0.03165605 -0.0314642 -0.03130862 -0.03120574 -0.03115149 -0.03115279 -0.03118859 -0.03124657
 -0.03130158 -0.03133202 -0.03133796 -0.03131001 -0.03127291 -0.03123176 -0.03120333 -0.03119281 -0.03119775 -0.03121831
 -0.03125306 -0.03130187 -0.03136859 -0.03145243 -0.03154178 -0.03163321 -0.03169592 -0.03173086 -0.03172169 -0.03167948
 -0.03162419 -0.0315653 -0.0315318 -0.03151901 -0.03153473 -0.03156644 -0.03160226 -0.03164615 -0.0316908 -0.03176499
 -0.03187951 -0.03205075 -0.03229431 -0.03256842 -0.03287415 -0.03313283 -0.03333457 -0.03344552 -0.0334626 -0.03338964
 -0.03322703 -0.03297636 -0.03264448 -0.03227539 -0.03188347 -0.03155136 -0.03128308 -0.03113719 -0.03109482 -0.03115947
 -0.03128496 -0.0314142 -0.03151894 -0.03154222 -0.0315182 -0.03144811 -0.03137482 -0.03132174 -0.03129042 -0.03129149
 -0.03128869 -0.03127787 -0.03122573 -0.03112535 -0.03098949 -0.03081783 -0.03065897 -0.03051506 -0.03042708 -0.03039297
 -0.03042218 -0.03050389 -0.030604 -0.03070497 -0.03073726 -0.03070602 -0.0305787 -0.03039308 -0.03018686 -0.02997888
 -0.02980642 -0.02964949 -0.02950991 -0.02935616 -0.0291725 -0.02895251 -0.02868613 -0.02840162 -0.02810101 -0.02781739
 -0.02755601 -0.02732317 -0.02712028 -0.02691694 -0.02671145 -0.02646771 -0.02619077 -0.02589847 -0.0256008 -0.02535207
 -0.02514938 -0.02501426 -0.02493593 -0.02490553 -0.02491227 -0.02494266 -0.02497878 -0.02500365 -0.02499562 -0.0249348
 -0.02481774 -0.02463814 -0.02439899 -0.02410397 -0.0237335 -0.02328274 -0.02274924 -0.02212826 -0.0214667 -0.02076706
 -0.0200781 -0.01940137 -0.01875975 -0.01815453 -0.01760616 -0.0171164 -0.01670773 -0.01637244 -0.01610518 -0.0158889
 -0.0156904 -0.01549653 -0.01528054 -0.01502586 -0.0147144 -0.01431844 -0.01380742 -0.01319773 -0.0124752 -0.01171741
 -0.01094556 -0.01020267 -0.009504514 -0.008840706 -0.008212406 -0.007600771 -0.007004313 -0.006420409 -0.005849869 -0.00531235
 -0.004808311 -0.004356656 -0.003945482 -0.003542621 -0.003119932 -0.002575267 -0.001912285 -0.001066883 -0.0001162863 0.0008629171
 0.001817828 0.002658669 0.003412865 0.004066241 0.004670944 0.0052464 0.005825762 0.006425492 0.007045593 0.007689569
 0.008345426 0.009010336 0.009695373 0.0104005 0.01115879 0.01197081 0.01284515 0.01377558 0.01471754 0.01566512
 0.01656718 0.01742779 0.01823182 0.01898598 0.01969456 0.02036599 0.02100877 0.02164126 0.02228279 0.02294587
 0.02364883 0.02437802 0.02513054 0.02589955 0.02667526 0.02749284 0.02835796 0.02929587 0.03031707 0.03136062
 0.03242427 0.03341421 0.03432836 0.03514372 0.0358673 0.0365426 0.03717744 0.03782984 0.03849927 0.03921854
 0.03997262 0.04074967 0.04153284 0.04228859 0.04302596 0.04373235 0.04444854 0.0451966 0.04600554 0.04690445
 0.04785965 0.04887409 0.04988181 0.05086949 0.05179981 0.05266423 0.05346745 0.05420824 0.05492336 0.05561494
 0.0563249 0.05705319 0.05781836 0.05861809 0.05945202 0.06031858 0.06121675 0.06213763 0.06306916 0.06398966
 0.0648641 0.06568125 0.06641075 0.06707452 0.06767401 0.0682421 0.06879692 0.069345 0.06989572 0.07042876
 0.07094055 0.07142143 0.07186621 0.07230712 0.07274508 0.07323737 0.07378571 0.07441441 0.07511628 0.0758447
 0.07658815 0.07726603 0.07788232 0.07839945 0.07884417 0.07924896 0.07964037 0.08007533 0.08054601 0.08107484
 0.08161747 0.0821505 0.08264601 0.08307281 0.08347284 0.08384309 0.08426727 0.08476476 0.08537111 0.08609972
 0.0868993 0.08776872 0.08862039 0.08945069 0.09020351 0.0908812 0.0914782 0.09200006 0.09246735 0.09288573
 0.09327931 0.09365717 0.09404688 0.09445814 0.09491947 0.09542424 0.09598141 0.09656613 0.09716199 0.09776147
 0.09835057 0.09895606 0.09958626 0.1002476 0.100951 0.1016412 0.1023124 0.1029184 0.103452 0.1039656
 0.1044633 0.1050509 0.1057254 0.1065127 0.1073883 0.1082528 0.1090844 0.1097572 0.1102888 0.110643
 0.1108741 0.1110431 0.1111889 0.1113819 0.111603 0.1118651 0.1121277 0.1123668 0.1125898 0.1127864
 0.1130071 0.1132619 0.1135775 0.1139622 0.1143943 0.1148737 0.1153605 0.1158532 0.1163263 0.1167827
 0.117232 0.117683 0.1181832 0.1187352 0.1193802 0.120095 0.1208599 0.121635 0.1223532 0.1229965
 0.1235152 0.1239308 0.1242388 0.1244756 0.124657 0.1248057 0.1249312 0.125047 0.1251552 0.1252777
 0.1254166 0.1255984 0.1258256 0.1261082 0.1264461 0.1268286 0.1272545 0.1277107 0.128196 0.1287009
 0.1292184 0.1297251 0.1302084 0.1306279 0.1309856 0.1312579 0.1314782 0.1316651 0.1318644 0.1321181
 0.1324343 0.1328391 0.1332794 0.1337488 0.134181 0.1345551 0.1348668 0.1351074 0.1353381 0.1355635
 0.1358191 0.1361047 0.1363648 0.1365938 0.1367104 0.1367248 0.1366376 0.1364764 0.1363264 0.1362044
 0.1361922 0.1362761 0.1364771 0.1367599 0.1370989 0.137461 0.1378121 0.1381479 0.1384503 0.1387551
 0.1390683 0.1394281 0.1398516 0.1403121 0.1408159 0.1412649 0.141652 0.1418959 0.1419943 0.1419691
 0.1418298 0.1416784 0.1415185 0.1414254 0.1413858 0.141396 0.1414478 0.1415158 0.1416152 0.1417594
 0.1419569 0.142234 0.1425533 0.1429041 0.1432308 0.1434963 0.1436994 0.1438208 0.1439226 0.1440138
 0.1441484 0.1443398 0.1445782 0.1448662 0.145144 0.1454085 0.1455967 0.1457085 0.1457142 0.145623
 0.1454598 0.1452432 0.1450434 0.1448735 0.1448023 0.1448156 0.1449316 0.1451059 0.1453038 0.1454813
 0.1455907 0.1456301 0.145577 0.1454775 0.1453379 0.145213 0.1451164 0.1450779 0.1451034 0.1452076
 0.1453918 0.1456762 0.1460615 0.1465536 0.1471463 0.1477856 0.1484542 0.149036 0.1495195 0.1497971
 0.1498926 0.14979 0.149555 0.1492725 0.1490061 0.1488647 0.1488431 0.1489913 0.1492179 0.1495019
 0.1497314 0.1498598 0.1498431 0.1496519 0.1493412 0.1489082 0.148459 0.1480025 0.1476106 0.1472861
 0.1470231 0.1468175 0.1466227 0.1464396 0.1462462 0.1460514 0.145874 0.1457177 0.1456063 0.1455232
 0.1454623 0.1453843 0.1452498 0.1450196 0.1446459 0.1441341 0.1434598 0.1426944 0.141848 0.1410147
 0.1402188 0.1395093 0.1389003 0.1383803 0.1379512 0.1375706 0.137236 0.1368927 0.1365386 0.1361289
 0.1356712 0.1351768 0.1346637 0.134201 0.1337899 0.1334781 0.1332295 0.1330135 0.1327886 0.13249
 0.1321228 0.131657 0.1311527 0.130625 0.1301469 0.1297491 0.129465 0.1293172 0.1292614 0.1293029
 0.1293273 0.1293263 0.1291963 0.1289328 0.1285343 0.1280095 0.1274533 0.1268739 0.1263683 0.1259293
 0.125587 0.1253239 0.1251169 0.1249512 0.1247937 0.1246379 0.1244632 0.1242731 0.1240618 0.1238417
 0.1236174 0.1233995 0.1231946 0.1229992 0.122816 0.1226272 0.1224313 0.1222084 0.1219563 0.1216652
 0.1213349 0.1209702 0.1205725 0.1201556 0.1197209 0.1192834 0.1188437 0.1184125 0.117989 0.1175772
 0.1171738 0.1167759 0.1163805 0.1159826 0.1155841 0.1151839 0.1147886 0.1144016 0.114027 0.1136686
 0.1133209 0.1129851 0.112646 0.1123018 0.1119387 0.1115546 0.1111525 0.1107326 0.1103177 0.109909
 0.1095301 0.1091794 0.1088609 0.1085689 0.1082869 0.1080094 0.1077153 0.1074045 0.1070662 0.1067065
 0.1063261 0.1059352 0.1055389 0.1051536 0.1047848 0.1044597 0.1041885 0.1039912 0.1038817 0.1038286
 0.1038372 0.1038148 0.1037545 0.1035681 0.1032506 0.1028015 0.1022284 0.1016245 0.1010008 0.1004715
 0.1000329 0.09974158 0.09956902 0.09948566 0.09944821 0.09937255 0.09923837 0.09897792 0.0986288 0.09818745
 0.09772542 0.09728414 0.09689125 0.09657629 0.09629783 0.09605094 0.0958012 0.09553532 0.09529339 0.09507565
 0.09495337 0.09493033 0.09501249 0.09519292 0.09538651 0.09558255 0.09567171 0.09565778 0.09548841 0.09519028
 0.09479433 0.09433533 0.09388597 0.09345794 0.09309952 0.09278736 0.0925197 0.09227178 0.09202326 0.09178519
 0.09155452 0.09135547 0.0911986 0.09106997 0.09097213 0.09086379 0.09073954 0.09059554 0.09043133 0.09029502
 0.09018855 0.09015217 0.09018044 0.09026231 0.09038939 0.0905249 0.09066765 0.09079577 0.09091365 0.09101985
 0.09111561 0.09120518 0.09127861 0.09133457 0.0913482 0.09130742 0.09118947 0.09097613 0.09068765 0.09031495
 0.08993832 0.08956575 0.0892837 0.08910474 0.08903702 0.08908179 0.08915077 0.08923763 0.08923302 0.08914079
 0.08892263 0.08859913 0.08822121 0.08781039 0.08744659 0.08713114 0.08690737 0.08675313 0.08666284 0.08660723
 0.08656058 0.08650688 0.0864262 0.08632931 0.08621018 0.08610576 0.08602273 0.08599604 0.08603668 0.08613162
 0.08628426 0.08642793 0.08655897 0.08662596 0.08663223 0.08661176 0.08657596 0.08661567 0.08673017 0.0869704
 0.08731678 0.0877444 0.08824467 0.08878044 0.08938297 0.09006408 0.09088136 0.09188128 0.09311241 0.09461261
 0.09641037 0.09852291 0.1009703 0.1037622 0.1069018 0.1103977 0.1141994 0.1183103 0.1225926 0.1270393
 0.1314256 0.1357356 0.1397026 0.1433107 0.1463249 0.1487431 0.150425 0.1513922 0.1516158 0.151145
 0.150034 0.1483611 0.1462208 0.1437203 0.1409573 0.1380611 0.1351132 0.1322461 0.1295196 0.1270438
 0.1248564 0.123023 0.1215611 0.1204936 0.1198245 0.1195642 0.1197135 0.12029 0.1212937 0.1227297
 0.1245912 0.126841 0.1294658 0.1323966 0.1356239 0.139089 0.1427927 0.1467096 0.1508465 0.155201
 0.1597821 0.1645949 0.1696511 0.1749612 0.1805221 0.1863483 0.1923778 0.1986175 0.2049129 0.2112543
 0.2174215 0.2233954 0.2289706 0.2341337 0.2387597 0.2428469 0.2463568 0.2492965 0.2516855 0.2535425
 0.2549338 0.255906 0.2565875 0.2570638 0.2575225 0.2580662 0.2588876 0.2600535 0.2616913 0.2637948
 0.2664077 0.2694596 0.272946 0.2767562 0.2808735 0.2851535 0.2895775 0.2939918 0.2983791 0.3026298
 0.3067358 0.3106506 0.3143723 0.3178722 0.321145 0.3241425 0.3268567 0.3292328 0.3312633 0.3329072
 0.334147 0.3349423 0.3352575 0.335039 0.3342488 0.3328341 0.3307854 0.3280696 0.3247381 0.3207819
 0.3163354 0.3114102 0.3062164 0.3007796 0.2953314 0.2898977 0.2846518 0.2796069 0.2748263 0.2703079
 0.2660187 0.2619509 0.2580358 0.2542685 0.2505958 0.2470139 0.2434897 0.2400136 0.2365544 0.2331035
 0.2296326 0.2261537 0.2226583 0.2191883 0.2157568 0.212426 0.2092161 0.206198 0.2033879 0.2008625
 0.198633 0.1967793 0.1953083 0.1943075 0.1937825 0.1938214 0.1944242 0.195609 0.19735 0.1994953
 0.2019898 0.2045312 0.2070917 0.2094158 0.2115794 0.2135643 0.2155469 0.2177244 0.220264 0.2233931
 0.2271419 0.2316306 0.2366961 0.2423432 0.2482552 0.2543798 0.2603325 0.2660571 0.2711703 0.2756349
 0.2790816 0.281487 0.2824877 0.2820672 0.2799214 0.2760634 0.2704026 0.2630264 0.2541902 0.2440677
 0.2332067 0.221809 0.2104767 0.1993459 0.188836 0.1789663 0.1699069 0.1615853 0.1540152 0.1470893
 0.1407756 0.1349652 0.129629 0.1246654 0.1200541 0.1157188 0.1116479 0.1078052 0.1041873 0.1007841
 0.09759498 0.0946094 0.09182481 0.08921865 0.08678672 0.08450004 0.08235577 0.08033113 0.0784269 0.07663469
 0.07495459 0.07338705 0.07192107 0.07055196 0.06925602 0.06801892 0.06682098 0.06564756 0.06450239 0.0633802
 0.06230574 0.06128266 0.06032989 0.05945219 0.05863595 0.05788118 0.05714932 0.05643911 0.05572747 0.05501774
 0.05432484 0.05365098 0.05301774 0.05241508 0.05182923 0.05124512 0.05062434 0.04996931 0.04926116 0.04852526
 0.04777499 0.04703874 0.04633835 0.04568738 0.04509813 0.0445688 0.04410411 0.04368538 0.04331306 0.04295075
 0.04259481 0.04221352 0.04180386 0.04136886 0.04090996 0.04046034 0.04002163 0.03962225 0.03925955 0.03893791
 0.03865293 0.03839511 0.03816122 0.03794154 0.03773264 0.03752615 0.03732039 0.03710879 0.0368984 0.03668907
 0.03649623 0.03632702 0.03618907 0.03608992 0.03601223 0.03595696 0.03588875 0.0358033 0.03567854 0.03551189
 0.03531715 0.03509602 0.03488627 0.03468904 0.03453194 0.03441081 0.03432377 0.03426382 0.03420958 0.03415952
 0.0340982 0.03403369 0.03396982 0.0339149 0.03388234 0.03386223 0.03385807 0.0338395 0.03379502 0.03370105
 0.03354415 0.0333341 0.03306721 0.03277785 0.03246944 0.03216916 0.03187952 0.03160545 0.0313468 0.03109632
 0.0308537 0.0306133 0.03037564 0.03013976 0.02990704 0.02968029 0.02946182 0.02925695 0.02906809 0.02890084
 0.02875579 0.02863622 0.02853923 0.02846508 0.02840704 0.028363 0.02832537 0.02829106 0.02825776 0.02822355
 0.02819449 0.02817083 0.02816033 0.02816375 0.02817993 0.02820856 0.02824113 0.02827782 0.02831582 0.02835704
 0.02840947 0.0284724 0.02855049 0.02863603 0.02871792 0.02878558 0.02881923 0.02881547 0.02876184 0.0286662
 0.02852807 0.02836138 0.02817136 0.02797033 0.02776306 0.02755607 0.02735181 0.02715041 0.02695246 0.02675438
 0.02655605 0.0263527 0.02614413 0.02592652 0.02570014 0.025465 0.02522214 0.02497605 0.02472771 0.02448229
 0.02423985 0.02400262 0.0237713 0.02354705 0.02333241 0.02312997 0.02294198 0.02277081 0.02261688 0.02248115
 0.02236266 0.02226209 0.02217484 0.0221014 0.02202976 0.02195903 0.02187502 0.02177646 0.02165851 0.02152127
 0.02137148 0.02120997 0.02104694 0.02088222 0.02072077 0.02056116 0.02040192 0.02024166 0.02007624 0.01990693
 0.01973292 0.01955802 0.01938586 0.01921814 0.01905831 0.01890238 0.0187496 0.01859575 0.01843854 0.01827968
 0.01811868 0.01796043 0.01780568 0.01765597 0.01751156 0.01737056 0.01723287 0.01709727 0.01696374 0.01683155
 0.01670079 0.01657099 0.01644293 0.01631845 0.01619881 0.01608809 0.01598527 0.01589192 0.01580297 0.01571422
 0.01562172 0.01552024 0.0154127 0.01529839 0.01518351 0.0150708 0.01495952 0.01485073 0.01473802 0.01462023
 0.0144971 0.01436815 0.0142435 0.01412362 0.01401738 0.01392401 0.01384076 0.01376573 0.01368853 0.01360827
 0.01351659 0.01341445 0.01329936 0.0131737 0.01303909 0.01289948 0.01275837 0.01262138 0.01249272 0.01237784
 0.01228118 0.01220191 0.01214274 0.01209189 0.01204855 0.01199631 0.01193229 0.01185137 0.01175224 0.01164826
 0.01154017 0.01144509 0.01136263 0.01129658 0.01124483 0.01119882 0.011158 0.01111568 0.01107378 0.01103356
 0.01099562 0.01096233 0.01093083 0.01089913 0.01086494 0.01082481 0.01078228 0.01073725 0.0106964 0.01066248
 0.01063665 0.01062059 0.01060805 0.01059872 0.01058465 0.0105652 0.01053515 0.01049428 0.01043961 0.01037133
 0.01028943 0.01019502 0.01009318 0.009985349 0.009878886 0.009773809 0.009674123 0.009578101 0.00948535 0.009393195
 0.009299021 0.009200403 0.009094459 0.008981486 0.008860018 0.008734423 0.008605364 0.008478199 0.008354457 0.008235659
 0.008122293 0.008013898 0.007910349 0.007813995 0.007724946 0.007645636 0.00757555 0.007510843 0.007450406 0.007386229
 0.007318665 0.007244138 0.007164704 0.007083427 0.007000697 0.006919162 0.00683639 0.006750819 0.006660698 0.00656326
 0.006461425 0.006355137 0.006249922 0.006147821 0.006051239 0.00596176 0.00587585 0.005793452 0.00570949 0.005623429
 0.005534099 0.005441501 0.005348693 0.005255783 0.005164972 0.005076095 0.004989164 0.004904608 0.004823647 0.004747073
 0.004677934 0.004614671 0.004557155 0.004501417 0.004443284 0.004380254 0.004308388 0.004229866 0.004144167 0.00405577
 0.003965704 0.00387859 0.003795423 0.003720252 0.00365397 0.003597313 0.003550646 0.003509607 0.003473948 0.003437801
 0.003401022 0.003360135 0.003315108 0.003263885 0.00320656 0.003141644 0.003070877 0.002996743 0.002922035 0.002852716
 0.002788341 0.002731918 0.002678343 0.002624754 0.002567861 0.002503681 0.002437287 0.002368313 0.002306971 0.002255993
 0.00221915 0.002198514 0.002185076 0.002178581 0.002165424 0.002145001 0.002112538 0.002068734 0.002019581 0.001965519
 0.001912307 0.001858835 0.00180412 0.001747888 0.00168813 0.001627444 0.001568732 0.001514509 0.001469241 0.001431882
 0.001403707 0.001381116 0.001362674 0.001345751 0.001328976 0.001311873 0.00129423 0.001275354 0.00125541 0.001231408
 0.001203222 0.00116645 0.001120892 0.001064911 0.0009988904 0.0009265885 0.0008482888 0.0007684587 0.0006850103 0.0005952271
 0.0004930531 0.000365352 0.0002040312 -8.800549E-06 -0.0002780654 -0.0006171514 -0.001022702 -0.00149728 -0.00203381 -0.002627155
 -0.003281268 -0.003993188 -0.004782289 -0.005652736 -0.006617444 -0.007682517 -0.008824235 -0.01004342 -0.01128125 -0.01253436
 -0.01373007 -0.01486196 -0.01584076 -0.01665335 -0.01718237 -0.01741865 -0.01725949 -0.01672751 -0.0157987 -0.01455896
 -0.01310857 -0.01157332 -0.0101276 -0.008840878 -0.007826245 -0.007080426 -0.006633047 -0.006454688 -0.006548462 -0.006858581
 -0.007388827 -0.008006011 -0.008701013 -0.009291641 -0.009757163 -0.01003687 -0.01012779 -0.01011154 -0.009992498 -0.00984619
 -0.009669601 -0.009484736 -0.009286414 -0.009068915 -0.008829623 -0.008557918 -0.008258428 -0.007932978 -0.007588172 -0.00723392
 -0.006867904 -0.006491298 -0.006101846 -0.005694159 -0.005284688 -0.004875423 -0.004490855 -0.004138721 -0.003824803 -0.003552916
 -0.003308221 -0.003090003 -0.002881921 -0.002683125 -0.002488919 -0.00229978 -0.002120265 -0.001950661 -0.00179499 -0.001652666
 -0.001523458 -0.001407484 -0.001304485 -0.00121582 -0.001144124 -0.001088657 -0.001051217 -0.001025815 -0.00100933 -0.0009945958
 -0.0009763303 -0.0009534004 -0.0009231531 -0.0008911909 -0.0008580951 -0.0008298125 -0.0008074107 -0.0007939854 -0.0007900284 -0.0007956434
 -0.0008108481 -0.000833675 -0.0008638498 -0.0008976179 -0.000934537 -0.0009702723 -0.001004391 -0.001033048 -0.001056219 -0.001071749
 -0.001080351 -0.001081862 -0.001077929 -0.001069891 -0.001060261 -0.001051011 -0.001044956 -0.001044425 -0.00104962 -0.00106184
 -0.001077357 -0.001095737 -0.001112814 -0.001127651 -0.001139591 -0.001148414 -0.00115527 -0.001160211 -0.001162325 -0.00116152
 -0.001156145 -0.001146504 -0.001133308 -0.001117399 -0.001102006 -0.001087916 -0.001078715 -0.001074316 -0.0010768 -0.001083976
 -0.001094513 -0.001105618 -0.001114086 -0.001120399 -0.001123307 -0.001126321 -0.001130883 -0.001137536 -0.001147492 -0.001155835
 -0.001161946 -0.001162203 -0.001155904 -0.001145305 -0.001130498 -0.001116707 -0.001104069 -0.001095696 -0.001091257 -0.001090467
 -0.001092803 -0.001096124 -0.001100483 -0.001104708 -0.001109659 -0.001116391 -0.001125103 -0.001136936 -0.001150274 -0.001164202
 -0.001177553 -0.001188936 -0.00119981 -0.00121045 -0.001221946 -0.001235226 -0.001247411 -0.001258513 -0.001263479 -0.00126172
 -0.001251041 -0.001231277 -0.001206112 -0.001176147 -0.001150411 -0.0011294 -0.001121281 -0.001124852 -0.001140884 -0.00116631
 -0.001194251 -0.001222429 -0.00124352 -0.00125804 -0.001263462 -0.001261805 -0.001253783 -0.00124127 -0.001225316 -0.001207624
 -0.001188686 -0.001171119 -0.001155563 -0.001144279 -0.001138006 -0.00113589 -0.001138146 -0.001140647 -0.001143168 -0.001142275
 -0.001138002 -0.001130231 -0.001119178 -0.001106036 -0.001090971 -0.001074802 -0.001058458 -0.001044209 -0.001033712 -0.001031397
 -0.001036423 -0.001050809 -0.001069458 -0.001089264 -0.001105446 -0.001113545 -0.001114835 -0.001107815 -0.001098753 -0.001088903
 -0.001083052 -0.001082472 -0.001087557 -0.001098642 -0.001113266 -0.001131309 -0.00115016 -0.001169702 -0.001187772 -0.001204401
 -0.001218506 -0.001230528 -0.00124124 -0.001251619 -0.001264493 -0.001280359 -0.001302034 -0.001327587 -0.001356399 -0.001385094
 -0.001410252 -0.001431332 -0.001446159 -0.001458658 -0.001470034 -0.001482456 -0.001497726 -0.001511135 -0.001522462 -0.001525519
 -0.001519338 -0.00150404 -0.001479537 -0.001451386 -0.001419756 -0.00138805 -0.001355964 -0.001322944 -0.001289142 -0.001254583
 -0.001220213 -0.001188503 -0.001159886 -0.001136711 -0.00111763 -0.001102349 -0.001088467 -0.001073687 -0.001057223 -0.001037039
 -0.001016719 -0.0009964835 -0.0009823518 -0.0009766032 -0.0009794798 -0.0009923845 -0.001006815 -0.001022199 -0.001029824 -0.001029064
 -0.0010202 -0.001003562 -0.0009849464 -0.0009641841 -0.0009430925 -0.0009208031 -0.0008944932 -0.0008645423 -0.0008299748 -0.000792741
 -0.0007559074 -0.0007205406 -0.0006898248 -0.0006619848 -0.0006371153 -0.0006118767 -0.0005841148 -0.0005526879 -0.0005159298 -0.0004768088
 -0.0004353937 -0.0003963065 -0.0003605373 -0.0003297147 -0.0003043063 -0.0002825423 -0.0002643485 -0.0002477118 -0.0002325897 -0.0002182556
 -0.0002046507 -0.0001911782 -0.0001774627 -0.0001617862 -0.0001437052 -0.0001209865 -9.402201E-05 -6.191677E-05 -2.673142E-05 9.737509E-06
 4.48501E-05 7.553998E-05 0.0001011068 0.0001197696 0.0001335935 0.0001426386 0.0001501234 0.000156716 0.0001655777 0.0001772555
 0.0001945214 0.0002178904 0.000247188 0.0002824938 0.0003195763 0.0003582002 0.0003939041 0.0004268964 0.0004562581 0.000482707
 0.0005086247 0.0005343807 0.0005624252 0.0005920231 0.0006235858 0.0006547243 0.0006829885 0.0007056593 0.0007193962 0.0007233807
 0.0007158857 0.0006981325 0.000669904 0.0006336421 0.0005894922 0.000541648 0.0004906 0.0004412166 0.0003942645 0.0003506239
 0.0003104478 0.0002708643 0.0002318695 0.0001931852 0.0001552915 0.0001216859 9.230367E-05 6.900679E-05 5.081853E-05 3.587643E-05
 2.402403E-05 1.39282E-05 6.291923E-06 1.842246E-06 7.119776E-09 1.069921E-06 2.749399E-06 3.83976E-06 2.558083E-06 -2.552745E-06
 -1.043249E-05 -2.166978E-05 -3.196299E-05 -4.080705E-05 -4.379682E-05 -4.015273E-05 -2.987621E-05 -1.28476E-05 6.83489E-06 2.904322E-05
 5.13663E-05 7.408796E-05 9.81901E-05 0.0001238179 0.0001521781 0.0001829512 0.000215845 0.0002506773 0.000287088 0.000324724
 0.0003634043 0.0004016512 0.000438432 0.000471701 0.0004995979 0.0005222463 0.0005385938 0.0005520092 0.0005628107 0.0005757206
 0.0005918259 0.0006128552 0.0006393281 0.0006695838 0.0007035605 0.0007392375 0.0007765633 0.0008148531 0.0008540188 0.0008930805
 0.0009319168 0.0009693213 0.001005621 0.001041149 0.001076059 0.001111036 0.001145439 0.001178789 0.001210374 0.001239453
 0.001265434 0.001287784 0.001306055 0.001319155 0.001330273 0.00133933 0.001352912 0.001372757 0.001399661 0.001434772
 0.001467897 0.001498509 0.001515193 0.001517872 0.001506461 0.001482137 0.001453698 0.001421757 0.001393768 0.00136896
 0.001349262 0.001333209 0.001318733 0.001305485 0.001291064 0.001278895 0.001270717 0.001270794 0.001283845 0.001306358
 0.00133952 0.001373323 0.001404688 0.001429231 0.0014447 0.001455976 0.001463251 0.001472041 0.001482843 0.001495183
 0.001508883 0.001519844 0.001527905 0.001529787 0.001525953 0.001516384 0.001502072 0.001485936 0.001468086 0.001450213
 0.001431743 0.00141167 0.001392342 0.001374335 0.001363375 0.001363609 0.001377084 0.001406948 0.001448126 0.001500362
 0.001556568 0.001615446 0.001671904 0.001725218 0.001772035 0.001812038 0.001844567 0.001869567 0.001886524 0.001894863
 0.001889433 0.001870291 0.00183301 0.001782073 0.001725867 0.00167247 0.001642543 0.001637107 0.001669388 0.001727542
 0.001806258 0.001892994 0.001977073 0.002055973 0.002125217 0.002188897 0.002247413 0.002304 0.002359785 0.002413659
 0.002465765 0.002513391 0.002556338 0.002593292 0.002624221 0.002648415 0.002666438 0.002681024 0.00269517 0.00272295
 0.002767849 0.002849562 0.002963178 0.00311098 0.003280965 0.003457522 0.003633842 0.003797846 0.003947987 0.004080141
 0.004193713 0.004285838 0.00436359 0.00442563 0.004492117 0.004565902 0.004666922 0.004798994 0.004963463 0.005161123
 0.005378256 0.005614124 0.005854608 0.006099492 0.006340572 0.006578528 0.006812179 0.007041798 0.00726832 0.007489823
 0.00770205 0.007906067 0.00809842 0.008289866 0.008488554 0.008704529 0.008950067 0.009217743 0.009508723 0.009809428
 0.01011393 0.01042417 0.0107388 0.01106656 0.01140959 0.01176134 0.01212171 0.01247759 0.01282912 0.01318563
 0.01355074 0.01395976 0.01441423 0.0149441 0.0155394 0.01618824 0.01687794 0.01757327 0.01827989 0.01898606
 0.0197142 0.02048137 0.02130393 0.0222018 0.0231672 0.02420209 0.02529439 0.02643221 0.02764953 0.02893713
 0.03041304 0.03208239 0.03412009 0.03654103 0.03942606 0.04277509 0.04650882 0.05063367 0.05514932 0.06010881
 0.06574665 0.07212643 0.07957634 0.0880738 0.0977873 0.1085174 0.1201154 0.1322572 0.1445979 0.156876
 0.1688128 0.1803077 0.1912668 0.2015995 0.2113153 0.2200905 0.2278862 0.2343072 0.2392768 0.2427587
 0.2447356 0.2454379 0.2448775 0.2432784 0.2406547 0.2372267 0.2329986 0.2281207 0.2225625 0.2162692
 0.2093122 0.2017093 0.1937935 0.1860382 0.1786761 0.1721863 0.1663927 0.1613353 0.1567735 0.1525862
 0.1487021 0.1450742 0.1416871 0.1385442 0.1355507 0.1326975 0.1298824 0.1270899 0.1244182 0.1218753
 0.1196933 0.117863 0.1164 0.1152711 0.1143219 0.113543 0.1128247 0.1121785 0.1115739 0.1110283
 0.1105518 0.1101618 0.1098747 0.1097142 0.1096958 0.1098525 0.1102117 0.1107594 0.1115141 0.1123736
 0.113324 0.114265 0.1151786 0.1160325 0.1168212 0.1175636 0.1182621 0.1189881 0.1197526 0.1206947
 0.1218118 0.1231886 0.1247636 0.1263874 0.128025 0.1295085 0.1308952 0.1321955 0.1334683 0.1347819
 0.1361551 0.1376198 0.1391851 0.1408616 0.1426581 0.1445907 0.1466073 0.1487044 0.1508102 0.1529076
 0.1550218 0.1571535 0.1593383 0.1615743 0.1637352 0.1658071 0.1675976 0.1691152 0.1702989 0.1711713
 0.1717714 0.1721105 0.1722241 0.1721324 0.1718714 0.1714773 0.1709971 0.1704592 0.1698927 0.1693263
 0.1687824 0.1682685 0.1677991 0.1673368 0.1668791 0.1663777 0.1658241 0.1651991 0.1644982 0.1637625
 0.1629945 0.1622635 0.1615667 0.1609065 0.1602726 0.1596136 0.1589253 0.1581649 0.1573402 0.1564417
 0.1554919 0.1545172 0.1535391 0.1525913 0.1516769 0.1508065 0.1499829 0.1492041 0.148495 0.1478626
 0.1473274 0.1469003 0.1465593 0.1463044 0.1461004 0.1459432 0.1458304 0.1457623 0.1457689 0.1458519
 0.1460392 0.1463292 0.1467271 0.1472303 0.1478331 0.1485336 0.1493257 0.150206 0.1511662 0.1522061
 0.1533196 0.1545166 0.1558 0.1571846 0.158678 0.1602902 0.1620274 0.1638874 0.1658762 0.1679588
 0.1701372 0.1723302 0.1745319 0.1766679 0.1787354 0.1807446 0.182702 0.1846853 0.1866893 0.1887307
 0.1907922 0.1928015 0.1948036 0.1968309 0.1990028 0.2015262 0.2044404 0.2079198 0.2117825 0.2159804
 0.2202686 0.2245121 0.2285778 0.2324365 0.2358267 0.2387531 0.2406069 0.241268 0.2406158 0.2385896
 0.2359508 0.2327345 0.2294375 0.226056 0.222709 0.2193949 0.2161819 0.2130629 0.2100732 0.207158
 0.2042423 0.2012146 0.1978527 0.1941483 0.1899128 0.1854815 0.1810433 0.1768303 0.1730837 0.1696023
 0.1663697 0.163202 0.1600313 0.1568924 0.1537761 0.150778 0.1479097 0.1451594 0.1425261 0.1399323
 0.1373784 0.1348373 0.1323206 0.1298766 0.127515 0.1252987 0.1232155 0.1212755 0.1194488 0.1176943
 0.1159908 0.1143024 0.1126134 0.1109125 0.1091536 0.1073122 0.105351 0.1032135 0.1010654 0.09891275
 0.09702326 0.09546296 0.09417477 0.09316741 0.09223334 0.09136298 0.09047414 0.0895735 0.08871152 0.08789552
 0.08719406 0.08659954 0.08611715 0.08574846 0.08549093 0.0853704 0.08542643 0.08567611 0.08615921 0.08686199
 0.08778274 0.08892096 0.09026609 0.09185693 0.09369208 0.09585339 0.09832355 0.1013595 0.1049433 0.1097213
 0.1157416 0.1236672 0.1335253 0.1447088 0.1570864 0.1688895 0.180086 0.1895727 0.1974747 0.2036304
 0.2081636 0.2112322 0.2130099 0.2138099 0.2138162 0.2133533 0.2124942 0.2113912 0.2100645 0.2085364
 0.2069049 0.2051995 0.2035266 0.2019203 0.2004197 0.1990382 0.1977683 0.1966151 0.1954948 0.194403
 0.1932126 0.1919223 0.190479 0.1888936 0.1871965 0.1854027 0.183569 0.181725 0.1799606 0.17831
 0.1768783 0.1756477 0.1746457 0.1738254 0.1731496 0.1726208 0.1722236 0.1719942 0.1719474 0.1720858
 0.1724173 0.1729117 0.1735668 0.1743511 0.1752659 0.1762278 0.1772319 0.1780961 0.1788125 0.1792268
 0.1793534 0.1791904 0.1787675 0.1781822 0.177463 0.1767244 0.1759766 0.1752975 0.1746519 0.1740436
 0.1733976 0.1726617 0.1717711 0.1706738 0.169354 0.1677856 0.1660104 0.1640194 0.161929 0.1597451
 0.1576375 0.1556219 0.1538222 0.1522457 0.150939 0.1499043 0.1491813 0.1487751 0.1487433 0.1490784
 0.1498009 0.1508675 0.1522113 0.1537371 0.1552891 0.1567249 0.157833 0.1585029 0.1585476 0.1580358
 0.1569024 0.1554295 0.1536867 0.1519598 0.1503466 0.1489266 0.1477405 0.1466932 0.1457815 0.1448922
 0.1440186 0.1431307 0.142233 0.1413797 0.1405755 0.13988 0.1392859 0.1387998 0.1384114 0.1380992
 0.1378579 0.1376722 0.1375338 0.1374321 0.1373473 0.1372651 0.137158 0.1370098 0.1367959 0.1365031
 0.1361218 0.1356441 0.1350842 0.1344397 0.13375 0.1330169 0.1322971 0.131594 0.1309601 0.1303969
 0.1299354 0.1295768 0.1293427 0.1292386 0.1292953 0.1295159 0.1299289 0.1305176 0.131277 0.1321647
 0.1331375 0.1341437 0.1351319 0.1360592 0.1368902 0.1375984 0.1381644 0.1385845 0.1388499 0.1389854
 0.1389902 0.1389117 0.1387529 0.138571 0.1383695 0.138202 0.1380697 0.1380029 0.1379978 0.1380466
 0.1381409 0.1382459 0.138355 0.1384347 0.1384863 0.1384949 0.1384703 0.1384149 0.1383459 0.1382743
 0.1382234 0.1382043 0.1382487 0.1383659 0.1385982 0.1389559 0.1394777 0.1401749 0.1410464 0.1420982
 0.1432637 0.1445397 0.1458074 0.1470598 0.1481728 0.1491454 0.149903 0.1504602 0.1508239 0.1510233
 0.1511291 0.1511712 0.1512316 0.1513257 0.1515063 0.1517669 0.1521241 0.1525525 0.1530453 0.1535725
 0.1541201 0.1546743 0.1552262 0.1557843 0.1563477 0.1569334 0.1575428 0.1581893 0.1588736 0.159611
 0.1604033 0.1612777 0.1622364 0.1633092 0.1644905 0.1657831 0.1671625 0.1685787 0.1699882 0.171298
 0.1724693 0.1734143 0.1741314 0.1745806 0.174804 0.1748078 0.1746507 0.1743544 0.173966 0.173501
 0.1729893 0.1724377 0.1718635 0.1712693 0.1706634 0.1700465 0.169426 0.1688034 0.1682017 0.167627
 0.167129 0.166715 0.1664432 0.1663071 0.1663295 0.166476 0.166705 0.1669687 0.1671883 0.1673488
 0.1673963 0.1673819 0.1673087 0.1672618 0.167278 0.1673986 0.1676511 0.1679996 0.168446 0.1689257
 0.16943 0.1699389 0.1704499 0.1710125 0.1716313 0.17239 0.1732896 0.1743855 0.1756624 0.1770987
 0.1786627 0.1802634 0.1818784 0.1834183 0.1849015 0.1863061 0.187682 0.1890658 0.190487 0.1919819
 0.193529 0.195132 0.196752 0.1983756 0.1999962 0.2016075 0.2032328 0.2048745 0.2065415 0.208235
 0.2099251 0.2116095 0.2132403 0.2148157 0.2162994 0.2176914 0.2189743 0.220146 0.2211953 0.2221125
 0.2228788 0.2234765 0.2238769 0.2240678 0.2240243 0.2237584 0.2232634 0.2225774 0.2217092 0.2207069
 0.2195812 0.2183822 0.2171167 0.2158419 0.2145635 0.2133369 0.2121662 0.2110796 0.2100763 0.2091442
 0.2082763 0.2074225 0.2065693 0.2056393 0.2046198 0.2034337 0.202087 0.2005438 0.1988468 0.1970189
 0.1951432 0.1932817 0.1915451 0.1900045 0.1887665 0.1878912 0.1874342 0.1874332 0.1878535 0.1887088
 0.1898666 0.1913226 0.1928777 0.1945202 0.1960458 0.1974465 0.1985816 0.1994553 0.2000242 0.2003065
 0.2003443 0.20017 0.1998811 0.1995194 0.1992019 0.1989611 0.1988883 0.1989864 0.1992951 0.199785
 0.2004588 0.2012572 0.2021684 0.2031006 0.2040347 0.2048673 0.2055772 0.2060958 0.2064107 0.2065084
 0.2063865 0.2060704 0.2055625 0.2049091 0.2041143 0.2032313 0.2022625 0.2012471 0.2001833 0.1990859
 0.1979522 0.1967824 0.195578 0.1943373 0.1930745 0.1917942 0.1905311 0.1893021 0.1881497 0.1870959
 0.1861629 0.1853636 0.1846936 0.1841548 0.1837363 0.1834377 0.183245 0.183158 0.183143 0.1831973
 0.1832662 0.1833457 0.1833795 0.1833661 0.1832673 0.1830876 0.1828176 0.1824686 0.1820556 0.1815921
 0.1810995 0.1805926 0.1800893 0.1796075 0.1791659 0.1787654 0.1784212 0.1780859 0.1777579 0.1773549
 0.1768613 0.1762214 0.1754229 0.1744785 0.1733868 0.1722118 0.170957 0.1696902 0.1684108 0.1671484
 0.1658949 0.164632 0.1633528 0.1620256 0.1606563 0.1592384 0.157787 0.1563188 0.1548461 0.153385
 0.151944 0.1505317 0.1491572 0.1478257 0.146545 0.1453181 0.1441502 0.1430427 0.1419988 0.1410197
 0.1401011 0.1392429 0.1384346 0.137676 0.1369638 0.1362986 0.1356842 0.1351186 0.1345968 0.1341133
 0.1336518 0.1332053 0.132756 0.1322923 0.1317938 0.1312479 0.1306328 0.1299525 0.1291966 0.1283952
 0.1275553 0.1267133 0.1258819 0.1250807 0.1243174 0.1235884 0.1228961 0.1222174 0.1215513 0.1208663
 0.120161 0.1194143 0.1186274 0.117799 0.1169327 0.1160412 0.1151301 0.1142198 0.1133157 0.112439
 0.111588 0.1107714 0.1099804 0.1092096 0.1084541 0.1077085 0.1069722 0.1062466 0.1055193 0.1047897
 0.1040354 0.1032505 0.1024281 0.1015644 0.100682 0.09978164 0.09889928 0.0980363 0.09721597 0.09643683
 0.09569822 0.09499695 0.09431826 0.09366138 0.0930164 0.09238451 0.09176503 0.09115493 0.09055089 0.0899474
 0.08933573 0.08872034 0.08809831 0.08748581 0.08688878 0.08632037 0.08578676 0.08528965 0.08483067 0.08440697
 0.08401795 0.08366504 0.08334782 0.0830803 0.08286367 0.08272579 0.08266728 0.08270889 0.08284421 0.08305876
 0.083339 0.08363882 0.08394869 0.08422638 0.08447371 0.08467519 0.08483698 0.08496168 0.08504756 0.08509632
 0.08509877 0.08504972 0.08494893 0.08479097 0.08459879 0.08437318 0.08415047 0.08393522 0.08375294 0.0836063
 0.08349946 0.08343227 0.08339539 0.08338808 0.08339916 0.08342998 0.08347966 0.08355223 0.08366128 0.08380412
 0.08398845 0.08419293 0.08439555 0.08456751 0.08466888 0.08469738 0.08463006 0.08450646 0.08433284 0.08416416
 0.08401845 0.0839306 0.08391275 0.08396929 0.08410404 0.08429889 0.08455349 0.08483629 0.08514543 0.08544455
 0.08573217 0.08597884 0.08618602 0.08634306 0.08645584 0.08653449 0.0865873 0.08663432 0.08668404 0.08675511
 0.08685648 0.08700325 0.08720022 0.08745877 0.08776662 0.08812627 0.08850537 0.08889615 0.08926766 0.08961006
 0.08991946 0.09019248 0.09044705 0.09068456 0.09091272 0.09113131 0.09132248 0.09148494 0.09159765 0.09166376
 0.09168603 0.09167077 0.09163927 0.09159317 0.09154748 0.09149716 0.09144153 0.09137538 0.09129168 0.09119269
 0.09107438 0.09095165 0.09082728 0.09072459 0.09065241 0.09062129 0.0906392 0.09068302 0.09075367 0.09080384
 0.09083002 0.09079512 0.09069797 0.09053558 0.09031144 0.09005491 0.08977149 0.08950303 0.08925179 0.08904796
 0.08888701 0.0887752 0.0887045 0.0886659 0.08865421 0.08865985 0.08868404 0.08872252 0.08878548 0.08887533
 0.08900514 0.08918208 0.08940223 0.08966988 0.08995526 0.09025576 0.09054096 0.09080722 0.09105569 0.09128708
 0.09153573 0.09180427 0.09213262 0.09251906 0.09297883 0.09350303 0.09407344 0.09468023 0.09529311 0.0959098
 0.09651449 0.0971072 0.09768512 0.09824037 0.09876725 0.09925859 0.09970647 0.1001201 0.1004983 0.1008605
 0.1012104 0.1015622 0.1019182 0.1022871 0.1026699 0.103069 0.1034842 0.1039068 0.1043364 0.1047653
 0.1051957 0.1056346 0.1060831 0.1065504 0.1070326 0.1075259 0.1080277 0.1085301 0.1090384 0.109552
 0.1100861 0.1106462 0.1112613 0.111943 0.1127254 0.1136238 0.1146489 0.1158091 0.1170853 0.1184759
 0.1199664 0.1215548 0.123248 0.1250462 0.1269521 0.1289634 0.1310592 0.1332363 0.1354659 0.1377482
 0.1400674 0.142429 0.144836 0.1472946 0.1498206 0.152402 0.1550476 0.1576976 0.1603373 0.1628373
 0.1651562 0.1671093 0.168634 0.1695818 0.1698896 0.1695957 0.1686738 0.1673831 0.1657373 0.1640415
 0.1623103 0.1607181 0.159262 0.1579791 0.1568597 0.1558773 0.1550247 0.1542641 0.153597 0.1530072
 0.1525021 0.152093 0.1517651 0.1515214 0.1513052 0.1510843 0.1507941 0.1503887 0.1498561 0.1491712
 0.14839 0.1475141 0.146628 0.1457443 0.144918 0.1441572 0.1434548 0.1428103 0.1421794 0.1415614
 0.1409314 0.140293 0.139653 0.1390142 0.1383871 0.1377758 0.1371927 0.1366451 0.1361548 0.1357107
 0.1353172 0.1349383 0.1345503 0.1341254 0.1336358 0.1330996 0.1325073 0.1319255 0.1313701 0.1308731
 0.1304474 0.1300529 0.1296877 0.1293121 0.1289244 0.1285188 0.1280974 0.1276816 0.1272717 0.1268809
 0.126504 0.1261266 0.1257543 0.1253865 0.1250446 0.1247649 0.1245506 0.1244274 0.124364 0.1243469
 0.1243464 0.1243416 0.124326 0.1242924 0.1242431 0.1241749 0.1241071 0.1240392 0.1240108 0.1240265
 0.1240956 0.1242182 0.1243519 0.1244953 0.1246173 0.1247246 0.1248387 0.1249619 0.1251206 0.1252962
 0.1254652 0.1255998 0.1256411 0.1255891 0.1254072 0.1251474 0.1248267 0.1245196 0.1242748 0.1241118
 0.1240592 0.124064 0.124117 0.1241865 0.1242598 0.1243804 0.1245513 0.1248032 0.1251374 0.125508
 0.1259116 0.1262941 0.126657 0.1269825 0.1272718 0.1275169 0.127725 0.1279035 0.1280721 0.1282663
 0.1284944 0.1287851 0.1291203 0.129499 0.1298938 0.1302935 0.130668 0.1310072 0.1312784 0.1314696
 0.1315769 0.131594 0.131557 0.1314682 0.1313588 0.1312306 0.1310949 0.1309531 0.1308271 0.1307166
 0.1306347 0.1305709 0.1304932 0.1303967 0.1302474 0.1300626 0.1298565 0.1296417 0.1294437 0.1292486
 0.1290523 0.128847 0.1286228 0.1283948 0.1281675 0.127948 0.1277409 0.1275367 0.1273341 0.1271275
 0.1269157 0.1267022 0.1264873 0.1262876 0.1261046 0.1259659 0.1258686 0.125813 0.1257893 0.1257595
 0.1257254 0.1256688 0.1256053 0.1255577 0.125522 0.1255077 0.1254913 0.125452 0.125393 0.1253057
 0.1252165 0.1251399 0.1250631 0.1249934 0.1248712 0.124688 0.1244015 0.124004 0.123515 0.1229354
 0.1223274 0.1216925 0.1210712 0.1204564 0.1198259 0.1191751 0.118466 0.1177207 0.1169659 0.1162383
 0.1156176 0.1151021 0.1147335 0.1144602 0.1142605 0.1140776 0.1138726 0.1136226 0.1133012 0.1129455
 0.1125493 0.1122046 0.1119263 0.1117703 0.1117506 0.1117815 0.1118587</values></Ydata></AB><ScSm><Ydata ylabel="Single channel"><values byteorder="INTEL" format="FLOAT32" numvalues="1814"> 0.06518964 0.06520839 0.06527568 0.06541384 0.06560123 0.06578547 0.06592183 0.06600054 0.06603167 0.06601527
 0.06595621 0.06590702 0.06595264 0.06612816 0.06636822 0.06655179 0.06659998 0.06654562 0.06651124 0.06658856
 0.06671779 0.06670941 0.06642073 0.06591623 0.06542672 0.06513904 0.06508058 0.06525044 0.06572866 0.0664539
 0.0669813 0.06680331 0.06598838 0.06520195 0.06497127 0.06518197 0.06538833 0.06532349 0.06498463 0.06453653
 0.06435204 0.06490508 0.06630445 0.06791748 0.06860219 0.06742844 0.06434125 0.06036675 0.05723309 0.05644684
 0.05823293 0.06122863 0.06350352 0.06409919 0.06349 0.06260777 0.06183872 0.0611437 0.06070536 0.06096032
 0.06199493 0.06314114 0.06332152 0.06196908 0.05970312 0.05789335 0.05741247 0.058086 0.05942216 0.06114857
 0.06247477 0.06166447 0.05774169 0.05265944 0.05043136 0.05331412 0.05939938 0.06448577 0.06581882 0.06362647
 0.0598932 0.05671673 0.05552788 0.05670305 0.05948237 0.0626003 0.06505755 0.0661799 0.06545268 0.06296368
 0.05983829 0.05769595 0.05765764 0.05990619 0.06364727 0.0671829 0.06868475 0.06754474 0.06477764 0.06194779
 0.06013971 0.05996536 0.06171795 0.06506291 0.06901827 0.07252714 0.07489278 0.07584505 0.0755893 0.07467376
 0.0735739 0.07262481 0.07231757 0.07298937 0.07403395 0.07413797 0.07271263 0.07067648 0.06950618 0.06971075
 0.07042892 0.07047828 0.06955071 0.06801908 0.06577016 0.06218576 0.05756548 0.0535004 0.05128227 0.05092311
 0.05210598 0.05468457 0.05756395 0.05864174 0.0571157 0.05494514 0.054904 0.05762047 0.06125902 0.06375577
 0.06472339 0.06530295 0.06669633 0.06893873 0.07074364 0.07047465 0.06777051 0.06445639 0.06325226 0.06510355
 0.06827334 0.07047832 0.07129377 0.0719001 0.07301293 0.07377189 0.0726406 0.06923561 0.06530471 0.06365082
 0.06569554 0.07005664 0.07354978 0.07354625 0.06974152 0.06421986 0.0598252 0.05819183 0.05930399 0.06258034
 0.06751256 0.07310002 0.07758652 0.07944946 0.07852054 0.07588536 0.07264606 0.06890598 0.06436832 0.06003273
 0.05839198 0.06106801 0.06673802 0.07224184 0.07540326 0.0761133 0.07510017 0.07258628 0.06848236 0.06366366
 0.0603936 0.06057148 0.06344759 0.06604409 0.06627454 0.06484728 0.063733 0.06370142 0.06403627 0.06404935
 0.06405634 0.06483299 0.06650903 0.06827208 0.06915968 0.06894008 0.06814715 0.06745023 0.06704776 0.06653135
 0.06545636 0.06422043 0.06402576 0.06557122 0.06810051 0.0701811 0.0711416 0.07132247 0.07113645 0.07034625
 0.0684229 0.06556018 0.06309097 0.06250364 0.06400356 0.06638648 0.06829479 0.06919132 0.06922444 0.06874162
 0.06805588 0.06734027 0.06667636 0.06628294 0.06646655 0.06719352 0.06798168 0.06838659 0.06837282 0.06810604
 0.06763212 0.06691977 0.06608283 0.06541179 0.06517436 0.0654134 0.06594746 0.06653044 0.06695487 0.06705988
 0.0667944 0.06629601 0.06578618 0.0653673 0.06502001 0.0647753 0.06474145 0.06493662 0.0652142 0.06540056
 0.06543474 0.06534486 0.06515947 0.06489019 0.06456439 0.0642389 0.06399153 0.06388832 0.06392172 0.06399642
 0.06402254 0.06400131 0.06397119 0.06391131 0.06376952 0.06355919 0.06336153 0.06324238 0.06320682 0.06321753
 0.06321692 0.06313108 0.06288894 0.06248761 0.06205439 0.06179181 0.06181134 0.06204601 0.06234625 0.06260648
 0.06277666 0.06283481 0.06280365 0.06274071 0.06266963 0.06255403 0.06236194 0.06213587 0.06198567 0.06200445
 0.06217971 0.06239927 0.06255545 0.06262025 0.06261935 0.06258939 0.06257298 0.0625934 0.06261301 0.06256682
 0.06245026 0.06233523 0.06229352 0.06232817 0.06237801 0.06238027 0.06233547 0.06230478 0.06233411 0.06240267
 0.06246194 0.06249806 0.06253214 0.06257489 0.06259963 0.06256254 0.06245372 0.0623223 0.06223153 0.06219462
 0.06218169 0.06218132 0.06221697 0.06229831 0.06238807 0.06243268 0.06241519 0.06236778 0.06232978 0.06229997
 0.06224366 0.06214604 0.06203967 0.06197176 0.06195851 0.06197826 0.0619984 0.06200051 0.06198383 0.06195366
 0.06191178 0.06185579 0.06178138 0.0616891 0.06159763 0.06154259 0.06154429 0.06157574 0.06157739 0.06151043
 0.06139083 0.06126967 0.0611827 0.06112211 0.06105803 0.06097914 0.06090105 0.06084038 0.060798 0.06076846
 0.06074852 0.06073482 0.06073109 0.06076243 0.06086203 0.06102877 0.06120847 0.06133512 0.06138979 0.06140893
 0.06143976 0.06150189 0.06158952 0.06169423 0.06181825 0.06196796 0.06213291 0.06227645 0.06236497 0.06240992
 0.06246229 0.06256117 0.06270517 0.06287146 0.06303529 0.06316951 0.06325686 0.06331472 0.06338523 0.0634903
 0.06361294 0.0637294 0.06384085 0.06396183 0.0640932 0.06422549 0.06436448 0.06453744 0.06476849 0.06505104
 0.06534532 0.06560439 0.06581226 0.0660025 0.06623398 0.06654015 0.06689961 0.0672543 0.06755699 0.06780595
 0.06803751 0.06828414 0.06854767 0.06882036 0.06911518 0.06945127 0.06981725 0.07017642 0.07050975 0.07083221
 0.07116517 0.0715113 0.07185984 0.07220442 0.0725499 0.07290389 0.07326213 0.07360511 0.07391582 0.07419901
 0.07447851 0.07477893 0.07511109 0.07546194 0.07579222 0.07606187 0.07627547 0.07648916 0.07675184 0.07704824
 0.07732345 0.07755864 0.07779402 0.07807238 0.07838616 0.07869482 0.07897677 0.07924545 0.07952143 0.07980123
 0.0800543 0.08024881 0.08038461 0.0804992 0.08063529 0.08080988 0.08102406 0.08128523 0.08159279 0.08191015
 0.08218044 0.0823732 0.08249907 0.08258626 0.08266367 0.08275796 0.08288185 0.08302432 0.08316287 0.08327886
 0.08335999 0.08341099 0.08347117 0.08359379 0.08379278 0.08403192 0.08427811 0.08453808 0.08482398 0.08511227
 0.08536978 0.08560505 0.08585551 0.08612244 0.08635172 0.08649024 0.08653335 0.08650322 0.08641069 0.08626465
 0.08609279 0.08591358 0.08569033 0.08533833 0.08477874 0.0839747 0.08293103 0.08168919 0.08033338 0.07899143
 0.07781772 0.07696357 0.07654542 0.0766217 0.07718201 0.0781434 0.07935667 0.08063596 0.08180574 0.08273292
 0.08333047 0.08355942 0.08344238 0.08305348 0.08246209 0.08167778 0.08065983 0.07937457 0.07782905 0.07605274
 0.07406919 0.07190087 0.06960204 0.06728203 0.06508984 0.06316748 0.06161184 0.06047453 0.05977818 0.05950715
 0.05957607 0.059823 0.06004825 0.0600674 0.05974647 0.05902346 0.05792609 0.05656834 0.05510761 0.05368333
 0.0523786 0.05122016 0.05020352 0.04932703 0.04862446 0.0481764 0.04808906 0.04845275 0.04930694 0.05062269
 0.05230027 0.05418617 0.05611604 0.05796793 0.05968989 0.06128589 0.06278452 0.06422181 0.06563501 0.06704868
 0.06846179 0.06985764 0.07122514 0.07255755 0.07382761 0.07497428 0.07591686 0.07657687 0.07689066 0.07682253
 0.07639335 0.07570673 0.07492638 0.07418221 0.07346557 0.07261914 0.07145125 0.06987977 0.06798941 0.06598829
 0.06413689 0.06270768 0.06197455 0.06219695 0.06357108 0.06614982 0.06978016 0.07411323 0.07869802 0.08311163
 0.08706424 0.09044259 0.09328713 0.09572308 0.09788479 0.09986742 0.1017139 0.1034262 0.1049892 0.1063973
 0.1076673 0.1088305 0.1099148 0.110932 0.1118779 0.1127454 0.113542 0.1142955 0.1150388 0.115786
 0.1165234 0.117226 0.1178828 0.1185061 0.1191135 0.1197074 0.1202786 0.1208273 0.121369 0.1219193
 0.1224802 0.1230409 0.1235823 0.1240829 0.1245314 0.1249368 0.1253204 0.125697 0.1260678 0.1264306
 0.1267883 0.1271452 0.1275001 0.12785 0.1281937 0.1285269 0.1288378 0.1291171 0.1293716 0.1296203
 0.1298756 0.130133 0.130379 0.1306066 0.1308221 0.1310443 0.1312975 0.1315967 0.1319335 0.1322783
 0.132603 0.1329028 0.1331939 0.1334922 0.133802 0.13412 0.1344419 0.1347598 0.1350629 0.1353466
 0.1356145 0.1358708 0.1361134 0.1363395 0.1365508 0.1367523 0.1369462 0.1371323 0.1373155 0.1375084
 0.1377236 0.1379599 0.1381999 0.1384261 0.1386367 0.1388448 0.1390648 0.1393062 0.1395749 0.1398721
 0.1401902 0.1405183 0.1408503 0.1411852 0.1415208 0.1418537 0.1421847 0.1425155 0.1428421 0.143155
 0.1434486 0.1437269 0.1440001 0.144277 0.1445596 0.1448431 0.1451228 0.1454007 0.1456838 0.1459756
 0.1462702 0.1465592 0.1468416 0.1471238 0.14741 0.147697 0.1479798 0.1482584 0.1485379 0.1488211
 0.1491054 0.1493846 0.1496543 0.1499136 0.1501652 0.1504158 0.1506733 0.150939 0.1512069 0.151473
 0.1517413 0.1520155 0.1522905 0.1525574 0.1528143 0.1530686 0.1533295 0.1535996 0.1538725 0.1541408
 0.1544039 0.1546653 0.1549228 0.1551709 0.15541 0.1556496 0.1558981 0.1561542 0.1564099 0.1566593
 0.1569042 0.1571484 0.1573914 0.1576304 0.1578657 0.1580991 0.1583302 0.1585593 0.15879 0.1590247
 0.1592627 0.1595057 0.1597579 0.1600193 0.1602841 0.1605454 0.1608003 0.1610501 0.1612983 0.1615461
 0.1617925 0.1620407 0.1622963 0.1625582 0.1628177 0.1630689 0.163314 0.1635598 0.1638123 0.1640722
 0.1643346 0.1645971 0.1648647 0.1651397 0.1654147 0.1656822 0.1659425 0.1661993 0.1664558 0.1667173
 0.1669869 0.1672624 0.1675392 0.1678128 0.1680776 0.1683326 0.168585 0.1688404 0.1690979 0.1693573
 0.1696189 0.169876 0.170123 0.1703674 0.1706188 0.1708759 0.1711331 0.1713881 0.1716363 0.1718745
 0.1721107 0.1723554 0.1726094 0.1728669 0.1731201 0.1733607 0.1735916 0.1738292 0.1740815 0.174339
 0.1745941 0.1748484 0.1750983 0.1753373 0.1755698 0.1758041 0.176042 0.1762837 0.1765253 0.176745
 0.1768977 0.176878 0.1764175 0.174977 0.1717359 0.1657573 0.1563603 0.1435451 0.1281404 0.1115092
 0.09505074 0.07984199 0.06652781 0.05539224 0.0464948 0.0397705 0.03509105 0.03234794 0.0315387 0.0328721
 0.03689084 0.04415002 0.05399067 0.06345998 0.06846556 0.06700546 0.06107843 0.0548611 0.0512412 0.05042496
 0.0511794 0.05244894 0.05389773 0.05571806 0.05824088 0.06155799 0.06550474 0.07006835 0.07559103 0.08233621
 0.0899591 0.09764552 0.1048124 0.1115649 0.1184298 0.1257155 0.1331868 0.1402994 0.146637 0.1521218
 0.1569268 0.1612829 0.1653481 0.169194 0.1728547 0.176328 0.1794994 0.1821063 0.1838607 0.1846678
 0.1847385 0.1844744 0.1842273 0.1841547 0.1842628 0.1845241 0.1849288 0.1854704 0.1861296 0.186875
 0.1876694 0.1884824 0.1892974 0.1901018 0.1908753 0.1915979 0.1922616 0.1928687 0.193424 0.1939321
 0.1943982 0.1948305 0.1952391 0.1956277 0.1959908 0.1963244 0.1966348 0.1969317 0.1972173 0.1974899
 0.1977494 0.1979959 0.1982291 0.198453 0.1986751 0.1988995 0.1991245 0.199344 0.1995507 0.1997422
 0.1999266 0.2001183 0.2003249 0.2005413 0.2007565 0.2009609 0.2011506 0.2013288 0.2015038 0.2016843
 0.201875 0.2020735 0.2022704 0.2024581 0.2026398 0.2028245 0.2030163 0.2032136 0.2034134 0.2036123
 0.2038071 0.2040025 0.2042085 0.2044269 0.2046501 0.2048733 0.2050974 0.2053224 0.2055487 0.205779
 0.2060065 0.2062117 0.2063836 0.2065387 0.2067111 0.2069235 0.2071693 0.2074194 0.2076477 0.2078504
 0.2080389 0.2082222 0.2083988 0.2085613 0.2087101 0.2088675 0.209065 0.2093058 0.2095579 0.2097954
 0.2100217 0.2102464 0.2104686 0.2106892 0.2109063 0.2110984 0.2112424 0.211356 0.2115015 0.2117358
 0.2120551 0.212391 0.2126715 0.2128832 0.2130646 0.2132579 0.2134865 0.2137353 0.2139191 0.2139399
 0.2138373 0.2138201 0.2140725 0.2145675 0.2151206 0.2155798 0.2159187 0.2161881 0.2164343 0.2166526
 0.2167902 0.2168022 0.2167324 0.2167351 0.2169671 0.217427 0.2179447 0.2183576 0.2186415 0.2188522
 0.219033 0.2192062 0.2193378 0.2192879 0.2189554 0.2185383 0.2184828 0.21905 0.2200192 0.2209224
 0.2215074 0.2218648 0.2221641 0.2224406 0.2226526 0.2227209 0.2224195 0.2215055 0.2202014 0.2193296
 0.2196311 0.2210159 0.222705 0.2240071 0.2247542 0.2251268 0.2253505 0.2255464 0.225641 0.2253732
 0.224585 0.2236035 0.2231562 0.2236978 0.224899 0.2260002 0.226586 0.2268052 0.2269666 0.2271964
 0.2273519 0.2269815 0.225582 0.2233379 0.2214927 0.2214746 0.2234986 0.2263071 0.2284194 0.2294092
 0.2297842 0.2298875 0.2293937 0.2278908 0.2254936 0.2227939 0.2206711 0.220164 0.2217842 0.2246659
 0.2270606 0.2280594 0.2283591 0.2291111 0.2305457 0.2319786 0.2326982 0.2325149 0.2316422 0.2303118
 0.2286605 0.2270844 0.2264585 0.2275239 0.2299885 0.2326244 0.2344049 0.2352885 0.2356831 0.2352418
 0.2326217 0.2270973 0.2205783 0.2170849 0.2192002 0.2253652 0.2315512 0.2352228 0.2367269 0.2374035
 0.2377912 0.2374775 0.2353318 0.2301199 0.2224439 0.2159664 0.2149301 0.2199595 0.2273578 0.2325611
 0.233255 0.2296221 0.2235098 0.2178685 0.2155496 0.2175817 0.2227247 0.2286963 0.2335406 0.2361541
 0.2362778 0.2344053 0.231739 0.2298793 0.2296711 0.2299568 0.2284472 0.2246013 0.220525 0.2178854
 0.2153358 0.2110107 0.2066005 0.206232 0.2110866 0.2174211 0.2207684 0.2204433 0.2187462 0.2167538
 0.2124948 0.2037875 0.1922797 0.1834776 0.1818053 0.1858893 0.1896749 0.1881745 0.1812827 0.1721782
 0.1633354 0.1546398 0.1447161 0.1335278 0.1234866 0.1175913 0.1164279 0.1177398 0.1190244 0.1193759
 0.1186182 0.1166597 0.1150427 0.11742 0.1262897 0.1397061 0.1526354 0.1608775 0.162474 0.1569946
 0.1464971 0.1369247 0.1351398 0.1427582 0.1541934 0.1617968 0.161956 0.1557677 0.1457709 0.1342409
 0.1242676 0.1200392 0.1243244 0.1356963 0.1485868 0.1560608 0.1536415 0.1427839 0.1311833 0.1272393
 0.1324285 0.1403009 0.1437297 0.141389 0.1367286 0.1334673 0.1334294 0.1363181 0.1400445 0.1426414
 0.1438634 0.1431361 0.1374379 0.1250345 0.1106081 0.1022399 0.1030001 0.1093427 0.1176298 0.1273584
 0.1368947 0.1412433 0.1376584 0.130855 0.1290236 0.1351384 0.1443865 0.1500458 0.1501532 0.1478853
 0.1466432 0.1463912 0.145386 0.1441855 0.1457881 0.15149 0.1586111 0.1634807 0.1652472 0.1655424
 0.1656894 0.1656967 0.1652032 0.1640874 0.1624124 0.1605047 0.1588428 0.1575153 0.1561379 0.1544235
 0.1522011 0.1486248 0.1423393 0.1334782 0.1249438 0.1201363 0.1193273 0.119834 0.1197684 0.1191948
 0.1169609 0.1097154 0.09670112 0.08356161 0.07831641 0.08376065 0.09546037 0.1066263 0.1131025 0.1137516
 0.1086111 0.09917867 0.09015408 0.08795563 0.09549095 0.1093835 0.1236294 0.1347761 0.1422761 0.1456256
 0.1438774 0.1378908 0.1312236 0.1281333 0.1310057 0.1392591 0.1494641 0.1561463 0.1544547 0.1450419
 0.1363536 0.1383957 0.1521382 0.1678018 0.1758233 0.1765724 0.1764734 0.1780139 0.1784804 0.1770296
 0.177547 0.18325 0.1918637 0.1978141 0.1971142 0.1889224 0.1748005 0.1588001 0.1465485 0.141182
 0.1405018 0.1400673 0.137949 0.1342823 0.1283304 0.1200515 0.1135805 0.1145772 0.1233913 0.134101
 0.1411553 0.1444685 0.147103 0.1500513 0.1510011 0.1478403 0.1421349 0.13821 0.1387956 0.1425633
 0.1463451 0.1484522 0.1487289 0.1467043 0.1418986 0.1359936 0.1328454 0.1352314 0.1420704 0.149465
 0.1541642 0.155583 0.1550231 0.1539229 0.1528732 0.1515881 0.1497519 0.1482653 0.1491256 0.1532081
 0.158657 0.1626358 0.1644461 0.1657743 0.1679562 0.1701907 0.1707619 0.1692361 0.1670497 0.1662825
 0.1680068 0.1714536 0.1745266 0.1754231 0.1742394 0.1730433 0.1740172 0.1774091 0.1815282 0.1846345
 0.186352 0.1873174 0.1881541 0.1889594 0.1892595 0.1883856 0.186437 0.1848632 0.1854222 0.1883824
 0.1921998 0.1950424 0.1962229 0.1961336 0.1953227 0.1939783 0.1921554 0.1901787 0.1886343 0.1879587
 0.1881379 0.188832 0.1896756 0.190417 0.1909241 0.191195 0.1913283 0.191423 0.1915224 0.191638
 0.1917494 0.1917677 0.1915737 0.1911266 0.1904951 0.189762 0.188953 0.1880991 0.1873021 0.186646
 0.1860563 0.1853383 0.1843649 0.1831543 0.1817606 0.1801979 0.1785543 0.1771314 0.1763573 0.1764807
 0.1773339 0.1784104 0.1791802 0.1793544 0.1789415 0.1781629 0.1773348 0.1767325 0.1764731 0.1765011
 0.1766854 0.176922 0.1771622 0.1773905 0.1776058 0.1778149 0.1780089 0.1781311 0.1780872 0.1778249
 0.1774077 0.176978 0.176625 0.176303 0.175887 0.1752928 0.1745275 0.1736396 0.1726454 0.1715061
 0.1701663 0.1686197 0.1669471 0.1652809 0.163708 0.1621989 0.1606375 0.1589281 0.1570809 0.155201
 0.1534029 0.1517338 0.1501723 0.14868 0.1472405 0.1458574 0.1445459 0.1433401 0.1422981 0.1414823
 0.1409262 0.1406138 0.140484 0.1404514 0.1404269 0.1403314 0.1401103 0.139749 0.139284 0.1387986
 0.1383883 0.1380988 0.1378718 0.137538 0.1368544 0.1355624 0.133466 0.1305224 0.1268896 0.1228869
 0.1188856 0.1151958 0.1120058 0.1093844 0.1073153 0.1057267 0.1045223 0.1036227 0.1030001 0.1026785
 0.102714 0.1031723 0.1040969 0.1054785 0.1072539 0.109323 0.1115577 0.1138174 0.1159966 0.1180745
 0.1200999 0.1221145 0.1240874 0.1259276 0.1275524 0.1289281 0.1300483 0.1309076 0.1315214 0.1319503
 0.1322835 0.1326022 0.1329602 0.1333794 0.1338493 0.1343358 0.1347942 0.135186 0.1355136 0.1358468
 0.1362942 0.1369306 0.137753 0.1387021 0.1397172 0.1407795 0.141911 0.143136 0.1444485 0.1458174
 0.1472079 0.1485937 0.1499686 0.1513542 0.1527812 0.1542611 0.1557795 0.1573044 0.1587886 0.1601763
 0.1614195 0.1624896 0.1633838 0.1641333 0.1647895 0.1653881 0.165928 0.1663851 0.1667384 0.1669856
 0.1671518 0.1672825 0.1674204 0.1675846 0.1677631 0.1679182 0.1680151 0.1680579 0.1680835 0.1681187
 0.1681654 0.1682285 0.1683283 0.1684748 0.1686464 0.1688043 0.1689207 0.1689953 0.1690447 0.1690774
 0.1690863 0.1690627 0.1689983 0.1688705 0.1686448 0.1682963 0.1678151 0.1671963 0.1664338 0.1655159
 0.1644201 0.1631329 0.1616839 0.1601453 0.158587 0.1570375 0.155485 0.153912 0.1523314 0.1507856
 0.1493116 0.1479175 0.1465951 0.1453372 0.1441326 0.1429633 0.1418125 0.1406715 0.139549 0.1384853
 0.1375353 0.1367169 0.1359858 0.1352718 0.1345327 0.1337728 0.1330293 0.1323455 0.1317483 0.1312452
 0.1308318 0.1304947 0.1302185 0.1299979 0.129831 0.1296934 0.1295424 0.1293536 0.129134 0.1288977
 0.1286543 0.128423 0.1282357 0.1281193 0.1280743 0.1280604 0.1280025 0.1278154 0.127427 0.1267833
 0.1258554 0.1246555 0.1232449 0.1217307 0.1202521 0.1189417 0.1178739 0.117055 0.1164539 0.1160194
 0.1156788 0.1153676 0.1150763 0.1148542 0.1147591 0.1147918 0.1148677 0.1148716 0.1147689 0.1146468
 0.1146291 0.1147723 0.1150478 0.1153815 0.1156907 0.1159186 0.1160504 0.1160942 0.11606 0.1159615
 0.1158085 0.1155902 0.1152929 0.1149276 0.1145206 0.1140852 0.1136136 0.1130813 0.1124617 0.11175
 0.1109571 0.1100743 0.1090702 0.10792 0.1065999 0.1050844 0.103413 0.1017467 0.1003048 0.09923749
 0.09855102 0.09811631 0.09776112 0.09738418 0.09695372 0.0964122 0.09573173 0.09514692 0.09518835 0.09629625
 0.09838168 0.1008417 0.1030124 0.1045664 0.1055044 0.1059144 0.1058487 0.1053554 0.1044812 0.1032569
 0.1017502 0.100073 0.09829658 0.09645521 0.09464593 0.09301172 0.09164069 0.09056251 0.0897854 0.08933865
 0.08929934 0.08936621 0.08814381 0.08387564 0.07716287 0.07217988 0.0731893 0.07976077 0.08705721 0.09093647
 0.09124812 0.09016377 0.0892033 0.08861654 0.08833168 0.08843629 0.08901318 0.0899685 0.09102974 0.09189993
 0.09245166 0.09270644 0.09262068 0.09192389 0.09008025 0.08645613 0.08082965 0.07386895 0.06692068 0.06121498
 0.05728912 0.05500103 0.05383255 0.05320691 0.05276511 0.05249601 0.05262398 0.05336063 0.05474242 0.05666635
 0.05900005 0.061561 0.06403209 0.06607875 0.06760332 0.0687589 0.06968775 0.0703695 0.07072976 0.07076518
 0.07053383 0.07010732 0.06955527 0.06893033 0.06824306 0.06746559 0.06660468 0.06579005 0.06522609 0.06500302
 0.06501324 0.06509213 0.06516233 0.06521307 0.0652373 0.06523043 0.06519729 0.0651667 0.06522572 0.06547039
 0.06587714 0.0662916 0.06657776 0.06672682 0.06680959 0.06684906 0.06674522 0.06637974 0.06584145 0.06542026
 0.06523907 0.06502734 0.06446317 0.06364626 0.06302415 0.06289721 0.0631626 0.0635089 0.06370562 0.06370191
 0.06359665 0.06359208 0.06386961 0.0643806</values></Ydata></ScSm><ScRf><Ydata ylabel="Single channel"><values byteorder="INTEL" format="FLOAT32" numvalues="1820"> 0.06062086 0.06077596 0.06086712 0.06089752 0.06089631 0.06091045 0.06098355 0.0611287 0.06131799 0.06149764
 0.06162258 0.06168415 0.06169849 0.0616734 0.06161466 0.06156594 0.06160036 0.0617484 0.06195221 0.06210565
 0.06214006 0.06208576 0.06205476 0.06213085 0.06225329 0.0622367 0.06194538 0.06144939 0.06097718 0.06070569
 0.06065242 0.06080956 0.06125373 0.06193458 0.06243908 0.06228653 0.06153019 0.06078546 0.06054651 0.060714
 0.06088049 0.06080201 0.06047408 0.06004543 0.05986382 0.06037734 0.06169131 0.0632111 0.06386089 0.06276235
 0.05985947 0.05611537 0.05315788 0.05240807 0.05407992 0.05689224 0.05902844 0.05958514 0.05900848 0.05817892
 0.05746251 0.05681626 0.05639957 0.05661804 0.05756304 0.05862258 0.0587911 0.05753111 0.05541572 0.05372412
 0.05327073 0.05389192 0.05513363 0.05674882 0.05799483 0.05723232 0.05353815 0.04875012 0.04664983 0.04936727
 0.05510712 0.05990528 0.06115794 0.05908343 0.05556811 0.05259684 0.05150189 0.05261229 0.05520573 0.05810863
 0.06040069 0.06145078 0.06076627 0.05842491 0.05548711 0.05347756 0.05344838 0.05556772 0.05908454 0.0623987
 0.06379092 0.0626948 0.0600733 0.05740385 0.05570594 0.05554987 0.05720787 0.06036688 0.06410712 0.06743447
 0.06968601 0.07059549 0.07035141 0.06948168 0.06845173 0.06757769 0.06730295 0.06793063 0.06889622 0.06897791
 0.06762744 0.06570795 0.06460856 0.06480803 0.06549236 0.0655445 0.06467493 0.0632396 0.0611336 0.05776814
 0.0534173 0.04958092 0.0474853 0.04714933 0.04827802 0.05073837 0.05350052 0.05457086 0.05316917 0.05112568
 0.05106067 0.05358645 0.05698827 0.05932323 0.06022406 0.06076874 0.06209343 0.0642278 0.0659501 0.06571108
 0.06317049 0.06005516 0.05893587 0.06070447 0.06371889 0.06582514 0.06662962 0.06725439 0.06837694 0.0691783
 0.0681956 0.0650589 0.06142236 0.05993886 0.06194488 0.06611982 0.0694468 0.06944606 0.06584352 0.06062759
 0.05649929 0.055005 0.05613432 0.05935769 0.06421217 0.06974036 0.07424241 0.07623041 0.07550654 0.07308771
 0.0700406 0.06649238 0.06217864 0.05808037 0.05663058 0.05941853 0.06515567 0.07074639 0.07404888 0.07494445
 0.07413387 0.07181378 0.0678806 0.06322248 0.06014156 0.06056261 0.06371175 0.06655569 0.06697656 0.0657025
 0.06474719 0.06490083 0.06543589 0.06565626 0.06590012 0.0669719 0.06899147 0.07109466 0.07226594 0.0722564
 0.07162763 0.07110035 0.07090022 0.07059127 0.06969397 0.06864537 0.06874682 0.07073466 0.07376199 0.07626542
 0.07753164 0.07795919 0.07801268 0.0774141 0.07554741 0.07261527 0.07012007 0.06975031 0.07174502 0.07473896
 0.0771812 0.07845378 0.07873528 0.07843947 0.07793111 0.07740601 0.07695428 0.0768152 0.07731751 0.07840629
 0.07953315 0.08020355 0.08038192 0.08024843 0.07984884 0.07916515 0.07836592 0.07780766 0.07777856 0.07828264
 0.07908628 0.07992601 0.08059815 0.0809169 0.08078248 0.08032924 0.07984881 0.07952353 0.0793579 0.07936025
 0.07960908 0.08009239 0.08062688 0.08101264 0.08119319 0.08122678 0.08117077 0.08104032 0.08084765 0.08065282
 0.08057014 0.08068952 0.08096865 0.08125816 0.08147672 0.08169147 0.08196256 0.08218964 0.08221743 0.08204789
 0.08184916 0.08176997 0.08181934 0.08191837 0.08199216 0.08197822 0.08180444 0.08145361 0.08106467 0.08088651
 0.08107552 0.08157905 0.08222614 0.08285269 0.08332877 0.08358048 0.08364293 0.08362275 0.08357406 0.08346168
 0.08325957 0.08304282 0.08296528 0.08314525 0.08355781 0.08404413 0.08443798 0.08466888 0.0847593 0.08479084
 0.08487338 0.08505777 0.08525728 0.08533159 0.08526561 0.08519597 0.08524364 0.08537579 0.08545633 0.08540677
 0.0852966 0.08527236 0.08540575 0.08563299 0.08584584 0.08601147 0.08618326 0.08640622 0.08662748 0.08671844
 0.08660834 0.08638145 0.08619744 0.08612636 0.0861231 0.08615592 0.08627152 0.08649857 0.08675468 0.08691129
 0.0869329 0.08690672 0.08692934 0.08699546 0.08701538 0.08692363 0.08674692 0.08657508 0.08648841 0.08650873
 0.08659405 0.08666988 0.08667795 0.08660977 0.08650003 0.08638999 0.08630018 0.08624466 0.08626337 0.08640698
 0.0866605 0.08689797 0.08695876 0.08679295 0.08651821 0.08631483 0.0862613 0.08627697 0.08622034 0.08602865
 0.08575702 0.08550321 0.08531991 0.08519663 0.08509797 0.08500566 0.0849392 0.08494766 0.0850607 0.08522595
 0.08531399 0.08522382 0.08498265 0.08471698 0.08453435 0.08445735 0.08444844 0.08445752 0.08445879 0.08447362
 0.08453855 0.08463147 0.08466908 0.08460557 0.08449559 0.08443796 0.0844948 0.08466871 0.08489961 0.085072
 0.0850908 0.08497889 0.08485959 0.08482969 0.08488507 0.08497202 0.08506159 0.08515389 0.08524736 0.08533914
 0.08544692 0.08560593 0.08583559 0.08611222 0.08637548 0.08656667 0.08667514 0.08675656 0.0868964 0.08714063
 0.08745727 0.08776562 0.08800482 0.08817913 0.08834058 0.08852799 0.08873241 0.08893334 0.08914945 0.08942144
 0.08975115 0.09009317 0.0904088 0.09069943 0.09098411 0.09127013 0.09155551 0.09185028 0.0921872 0.09259556
 0.09304845 0.09345102 0.09371395 0.09384301 0.09394166 0.09412999 0.09446056 0.09487875 0.09524845 0.09545824
 0.09553487 0.09562214 0.09582015 0.09608374 0.09631619 0.09652214 0.09680501 0.0972212 0.09769237 0.09807955
 0.09831761 0.09846143 0.0986124 0.09881206 0.09901145 0.09914422 0.09921446 0.09928884 0.09941122 0.0995708
 0.09976529 0.1000407 0.1004272 0.1008692 0.1012649 0.1015572 0.1017577 0.1019023 0.1020152 0.1021007
 0.1021477 0.1021562 0.1021669 0.1022319 0.1023451 0.1024403 0.1024764 0.1024915 0.1025538 0.1026947
 0.1029115 0.1031958 0.1035221 0.1038342 0.1040958 0.1043507 0.1046778 0.1050702 0.1054075 0.1055837
 0.1056245 0.1056354 0.1056703 0.105714 0.1057723 0.1059031 0.1061442 0.106465 0.1068095 0.1071517
 0.1074936 0.1078311 0.1081373 0.1083705 0.1084976 0.1085219 0.1084945 0.1084953 0.1085948 0.1088185
 0.1091316 0.1094634 0.109752 0.1099627 0.1100695 0.1100599 0.1099804 0.1099425 0.1100346 0.1102246
 0.1103799 0.1103808 0.1101925 0.1098356 0.1093329 0.1087084 0.1080179 0.1073518 0.1067977 0.1064026
 0.106178 0.1061412 0.1063361 0.1067861 0.1074313 0.1081409 0.1087919 0.1093073 0.1096149 0.1096294
 0.1093137 0.1087338 0.1080196 0.1072858 0.1065999 0.1059831 0.1054124 0.1048535 0.10434 0.1040143
 0.104065 0.1046161 0.105664 0.1070766 0.1086314 0.1100913 0.111303 0.112254 0.1130344 0.1137409
 0.1144174 0.1150772 0.1157397 0.1164124 0.1170563 0.1176137 0.1180745 0.1184839 0.1188828 0.1192687
 0.1196134 0.1198945 0.1201162 0.1203137 0.1205218 0.1207195 0.1208331 0.1208173 0.1207072 0.120572
 0.1204379 0.1202735 0.120028 0.1196728 0.119239 0.1188442 0.118674 0.1188988 0.1195747 0.1206108
 0.1218395 0.1231241 0.1243873 0.1255542 0.1265222 0.1272213 0.1276777 0.1279881 0.1282458 0.1285074
 0.1287979 0.1291164 0.1294405 0.1297462 0.1300277 0.1303018 0.130595 0.1309198 0.131255 0.1315566
 0.1318025 0.1320249 0.1322886 0.132632 0.1330269 0.133405 0.1337309 0.1340348 0.1343564 0.1346758
 0.1349338 0.1351148 0.1352725 0.135475 0.1357535 0.1360996 0.1364716 0.1368043 0.1370492 0.1372188
 0.1373733 0.1375603 0.1377854 0.1380334 0.138293 0.1385554 0.1388119 0.1390674 0.1393425 0.1396456
 0.1399459 0.1401922 0.1403655 0.1405014 0.1406558 0.1408544 0.1410781 0.1412919 0.1414852 0.1416882
 0.141945 0.1422623 0.1425882 0.1428536 0.1430341 0.1431639 0.1432938 0.1434489 0.1436259 0.143815
 0.1440109 0.1442097 0.1444087 0.144612 0.144828 0.1450579 0.1452897 0.1455089 0.1457132 0.1459142
 0.1461234 0.1463396 0.1465584 0.1467911 0.1470602 0.1473668 0.1476713 0.1479223 0.1480995 0.1482235
 0.1483311 0.1484522 0.1486041 0.1487893 0.1489958 0.149206 0.149409 0.149604 0.1497948 0.149985
 0.150179 0.150382 0.1505955 0.1508152 0.151037 0.1512644 0.151502 0.1517437 0.1519735 0.1521799
 0.1523661 0.1525467 0.1527351 0.1529323 0.1531268 0.1533105 0.1534898 0.1536767 0.1538709 0.1540627
 0.1542479 0.1544327 0.1546245 0.1548244 0.1550279 0.1552279 0.1554195 0.1556051 0.1557929 0.1559899
 0.1561943 0.1563976 0.1565956 0.1567928 0.1569939 0.157195 0.1573904 0.157583 0.1577818 0.1579901
 0.1582032 0.1584123 0.1586081 0.1587877 0.1589604 0.1591423 0.1593429 0.1595571 0.1597701 0.1599693
 0.1601554 0.1603434 0.1605465 0.1607633 0.1609843 0.1612048 0.1614262 0.1616482 0.1618659 0.1620756
 0.1622811 0.1624929 0.1627179 0.1629506 0.1631795 0.1633987 0.1636084 0.1638094 0.1640033 0.1641938
 0.1643833 0.1645711 0.1647543 0.1649278 0.1650894 0.1652485 0.1654189 0.1656029 0.1657915 0.1659817
 0.1661784 0.1663829 0.1665902 0.1667967 0.1670025 0.1672083 0.167415 0.1676203 0.1678206 0.1680169
 0.1682144 0.1684125 0.1686078 0.1688035 0.169007 0.1692188 0.1694348 0.1696528 0.1698711 0.1700862
 0.1702955 0.1704971 0.1706915 0.1708858 0.171088 0.1712977 0.1715109 0.1717294 0.1719545 0.1721794
 0.1723958 0.1725999 0.1727926 0.1729812 0.1731767 0.1733807 0.1735862 0.1737938 0.1740112 0.174237
 0.1744623 0.1746848 0.1749057 0.1751233 0.175338 0.1755499 0.1757537 0.1759495 0.1761504 0.1763652
 0.1765897 0.176819 0.1770471 0.1772511 0.1773812 0.1773255 0.1768131 0.1753094 0.1719988 0.1659383
 0.1564277 0.1434515 0.1278461 0.1110063 0.09436435 0.0790077 0.06557307 0.05433802 0.04536518 0.03859108
 0.03388065 0.03111751 0.0302989 0.03163878 0.03568434 0.04299171 0.05289546 0.06242289 0.06745331 0.06597117
 0.05999243 0.05372722 0.05008279 0.04926192 0.05002132 0.05130069 0.05276351 0.05460201 0.05714764 0.06049278
 0.06447424 0.06908311 0.0746633 0.08147087 0.08914975 0.09688303 0.1040955 0.1109002 0.1178231 0.1251663
 0.1326907 0.1398512 0.1462296 0.1517413 0.1565562 0.1609132 0.1649836 0.1688439 0.1725213 0.1760042
 0.1791725 0.1817627 0.1834901 0.1842661 0.1843087 0.184025 0.1837694 0.1836982 0.1838134 0.1840805
 0.1844831 0.1850127 0.1856555 0.1863871 0.1871722 0.187979 0.1887925 0.1896022 0.1903864 0.1911193
 0.1917866 0.1923878 0.1929324 0.1934327 0.193895 0.1943218 0.1947212 0.1951045 0.1954721 0.1958169
 0.1961373 0.1964378 0.1967214 0.1969898 0.1972445 0.1974835 0.197705 0.1979163 0.1981279 0.1983421
 0.1985551 0.1987654 0.1989738 0.1991816 0.1993906 0.1996005 0.1998055 0.2000014 0.2001911 0.2003795
 0.200567 0.2007535 0.2009428 0.2011392 0.2013424 0.2015455 0.2017403 0.2019258 0.2021107 0.2023043
 0.2025088 0.2027201 0.2029301 0.2031268 0.2033061 0.2034845 0.2036848 0.2039094 0.2041399 0.2043622
 0.2045757 0.2047841 0.2049924 0.2052068 0.2054222 0.2056172 0.205775 0.2059079 0.2060533 0.2062435
 0.2064757 0.2067142 0.2069284 0.2071216 0.2073157 0.2075201 0.2077247 0.2079163 0.2080956 0.2082843
 0.2085088 0.2087682 0.2090331 0.2092844 0.209529 0.2097701 0.2099955 0.210204 0.2104078 0.2106002
 0.2107583 0.2108907 0.2110566 0.2113176 0.2116704 0.2120396 0.2123471 0.2125822 0.2127908 0.2130191
 0.213286 0.2135676 0.2137753 0.2138136 0.2137257 0.2137216 0.213987 0.2144985 0.2150757 0.2155673
 0.2159405 0.2162373 0.2164999 0.2167266 0.2168712 0.2168956 0.2168487 0.2168848 0.2171535 0.2176459
 0.2181905 0.218629 0.2189415 0.219183 0.219389 0.2195717 0.2196926 0.2196128 0.2192363 0.2187697
 0.218669 0.2191972 0.2201288 0.2209954 0.221551 0.2218892 0.2221757 0.2224436 0.2226526 0.2227223
 0.2224211 0.2215013 0.2201867 0.2193076 0.2196132 0.221014 0.2227246 0.2240494 0.224822 0.2252249
 0.2254828 0.2257161 0.2258494 0.2256167 0.2248536 0.2238863 0.22345 0.2240092 0.2252387 0.2263754
 0.2269996 0.2272585 0.2274595 0.2277267 0.2279182 0.2275818 0.2262113 0.2239885 0.2221585 0.2221528
 0.2241933 0.2270317 0.2291851 0.2302076 0.2305873 0.2306685 0.2301418 0.228608 0.2261859 0.2234643
 0.2213219 0.2208089 0.2224502 0.2253737 0.2278058 0.2288232 0.2291322 0.2298977 0.2313507 0.2327969
 0.2335162 0.2333189 0.2324253 0.2310717 0.2293949 0.2277986 0.227176 0.2282784 0.2308053 0.2335107
 0.2353525 0.2362814 0.2367042 0.2362702 0.2336213 0.2280257 0.2214269 0.2179052 0.2200735 0.226346
 0.2326438 0.2364038 0.2379769 0.2387158 0.2391601 0.2388898 0.2367642 0.2315403 0.2238321 0.217354
 0.2164102 0.2216329 0.2292673 0.2346787 0.2355096 0.2319322 0.2258228 0.2202015 0.2179888 0.2202357
 0.2256747 0.2319761 0.2371408 0.2400403 0.2404041 0.2387186 0.2362041 0.2345234 0.2345755 0.2351739
 0.2339478 0.2303337 0.2264982 0.2241438 0.2218688 0.217768 0.2136415 0.2138087 0.2194994 0.2267923
 0.2310187 0.2314914 0.2306539 0.2296244 0.226275 0.2182896 0.2075489 0.2002125 0.2013362 0.2096266
 0.2185991 0.2229315 0.2226932 0.2214377 0.2214621 0.2214632 0.2183677 0.2113424 0.2038403 0.2007029
 0.2030056 0.2070943 0.2089105 0.2072271 0.2022221 0.1941818 0.1858428 0.1832288 0.1905681 0.205118
 0.2193137 0.2269933 0.2256396 0.2150258 0.1981165 0.1829043 0.1785145 0.1870223 0.2009296 0.2100643
 0.2096457 0.2011264 0.187859 0.1728244 0.1600204 0.1548636 0.1609458 0.1764027 0.1939361 0.204407
 0.2018752 0.1882567 0.1738025 0.1697185 0.1779231 0.1896955 0.1954427 0.1934079 0.1882867 0.1852013
 0.1867601 0.1925859 0.1997052 0.2053478 0.2091546 0.210009 0.2030495 0.1855058 0.1644107 0.1519637
 0.1528665 0.161914 0.1737476 0.1876718 0.2013043 0.2072663 0.2015006 0.1909504 0.1876458 0.1959291
 0.2087409 0.216265 0.2156477 0.211515 0.2088302 0.20761 0.2054061 0.2030278 0.2047322 0.2123501
 0.2220828 0.228743 0.2311481 0.2316421 0.2321294 0.2326324 0.2326306 0.2319298 0.2305878 0.2290491
 0.2280144 0.2276536 0.2274426 0.2269556 0.2258566 0.2227035 0.2152553 0.2036293 0.1923119 0.1866069
 0.1870086 0.1895763 0.1917885 0.1940023 0.1939817 0.1853745 0.1661068 0.1452542 0.1364352 0.1446573
 0.1625924 0.1789263 0.1870222 0.1854908 0.1748106 0.1575266 0.1409534 0.1348935 0.1436482 0.1618941
 0.1803789 0.193899 0.2018966 0.2040383 0.1992332 0.1887842 0.1776594 0.1716535 0.1738543 0.1832794
 0.1952085 0.2024127 0.1986924 0.185031 0.1723076 0.1732771 0.1891928 0.2077188 0.2167946 0.216855
 0.2159479 0.2172357 0.2174157 0.2154839 0.2162701 0.223802 0.2353759 0.2442217 0.2454508 0.2379888
 0.2239516 0.2091385 0.2015231 0.2048263 0.2142203 0.2215252 0.2230982 0.2193573 0.2099628 0.1958432
 0.1843051 0.1846372 0.1973523 0.2129802 0.2228258 0.226881 0.22988 0.2331491 0.2330041 0.2263428
 0.215839 0.2083076 0.2079682 0.2127498 0.2177985 0.2206021 0.2210172 0.2183598 0.2118343 0.2038361
 0.1999807 0.2042147 0.2147042 0.2255199 0.2319133 0.2332759 0.2317563 0.2294739 0.2271008 0.2240198
 0.2197163 0.2156092 0.2147938 0.2187381 0.2249447 0.2295125 0.2316051 0.2337394 0.2378307 0.2425609
 0.2449908 0.2437706 0.2404191 0.2379917 0.2386218 0.2418292 0.2448821 0.2451311 0.2425284 0.2399127
 0.240401 0.2444176 0.2496293 0.2535999 0.2557784 0.2569977 0.2580397 0.2589467 0.2589918 0.2572312
 0.2538406 0.2508894 0.2508736 0.2542411 0.2589659 0.2626439 0.2644379 0.2649351 0.2648178 0.2641552
 0.2627943 0.2610018 0.259486 0.258832 0.2590765 0.2598565 0.2607946 0.2616619 0.2623416 0.2628099
 0.2631177 0.2633198 0.2634442 0.2635299 0.2636092 0.2636391 0.2635499 0.2633969 0.2633694 0.2635828
 0.2639267 0.2641807 0.2642146 0.263992 0.2634488 0.2625087 0.2612219 0.2597609 0.2582288 0.2565834
 0.2548637 0.2534551 0.2529852 0.2538536 0.2558606 0.2583212 0.2605323 0.2621304 0.2631029 0.2636046
 0.2638179 0.2638938 0.2639178 0.2638966 0.2637956 0.2635947 0.2633052 0.2629501 0.2625509 0.2621385
 0.2617574 0.26144 0.2611744 0.2609085 0.2605857 0.2601746 0.2596791 0.259133 0.2585766 0.2580143
 0.2573969 0.2566592 0.255779 0.254799 0.2538052 0.2528848 0.2520779 0.2513515 0.2506311 0.2498572
 0.2489946 0.2480067 0.2468797 0.2456892 0.2445909 0.2437032 0.2430106 0.2423955 0.2417376 0.2409703
 0.2400813 0.2390987 0.2380664 0.2370107 0.2359313 0.2348183 0.2336592 0.2324267 0.2310883 0.2296356
 0.2280905 0.2264841 0.2248481 0.2232111 0.2215668 0.2198383 0.2178902 0.2155797 0.2127924 0.2094507
 0.2055274 0.2010771 0.1962543 0.1912815 0.1863784 0.18171 0.1773875 0.1734999 0.1701329 0.1673655
 0.1652582 0.1638464 0.1631438 0.1631551 0.1638757 0.1652693 0.1672493 0.1696904 0.1724538 0.1753981
 0.1783718 0.1812196 0.1838302 0.1861938 0.1883892 0.1904868 0.1924729 0.1942889 0.1959095 0.197347
 0.1986021 0.199656 0.2005107 0.2012026 0.2017751 0.2022547 0.202658 0.2030062 0.2033209 0.2036069
 0.2038538 0.2040596 0.2042427 0.2044266 0.2046246 0.2048413 0.2050825 0.2053604 0.2056959 0.2061066
 0.206589 0.2071218 0.2076904 0.2082936 0.2089279 0.2095894 0.2102965 0.2110996 0.2120545 0.2131844
 0.2144635 0.2158316 0.2172201 0.2185593 0.2197726 0.220786 0.2215502 0.2220503 0.2223008 0.2223437
 0.2222392 0.2220385 0.2217623 0.2214078 0.2209682 0.2204473 0.2198638 0.2192422 0.2185954 0.2179192
 0.2172125 0.2164945 0.2157943 0.2151294 0.2144959 0.2138754 0.2132512 0.2126204 0.2119934 0.2113826
 0.2107933 0.2102231 0.2096663 0.2091151 0.2085568 0.2079695 0.2073247 0.2065998 0.2057859 0.2048828
 0.2038864 0.2027874 0.2015818 0.200279 0.1988953 0.1974406 0.195914 0.1943132 0.1926442 0.1909148
 0.1891171 0.1872295 0.185253 0.1832387 0.1812687 0.1794098 0.1776918 0.1761122 0.1746435 0.1732475
 0.1719044 0.1706212 0.1694077 0.1682561 0.1671524 0.166092 0.1650785 0.1641175 0.1632177 0.1623959
 0.1616733 0.1610585 0.160535 0.1600736 0.1596575 0.1592898 0.1589869 0.1587789 0.1586947 0.1587223
 0.1587947 0.1588342 0.1588014 0.1587029 0.1585709 0.158438 0.1583216 0.1582304 0.1581713 0.1581253
 0.1580198 0.1577461 0.1572033 0.1563258 0.1551012 0.1535805 0.1518565 0.1500328 0.1482225 0.146545
 0.1450914 0.1439073 0.1430071 0.1423632 0.1418907 0.141494 0.1411458 0.1409035 0.1408513 0.1410089
 0.1412705 0.1414608 0.1415013 0.1414996 0.1416483 0.1420632 0.1427257 0.143518 0.1442963 0.1449652
 0.1454963 0.1458831 0.1461233 0.1462427 0.1462778 0.1462348 0.1461076 0.1459123 0.1456723 0.1453963
 0.1450827 0.1447095 0.1442356 0.143645 0.1429574 0.142187 0.1413385 0.1404279 0.1394394 0.1383148
 0.1370817 0.1359527 0.1352209 0.1350722 0.1354962 0.1363128 0.1372984 0.1383306 0.1393489 0.1401698
 0.140543 0.1405353 0.1407195 0.1417661 0.1438083 0.1462946 0.148476 0.149949 0.1507004 0.1508187
 0.1503659 0.1494232 0.1480325 0.1461366 0.1437179 0.1409053 0.1378695 0.1347647 0.1317922 0.1291419
 0.1268871 0.1250402 0.1236163 0.1226653 0.1223063 0.1221455 0.1202686 0.1142403 0.1048621 0.097835
 0.09896477 0.1076469 0.1173008 0.1223165 0.1225082 0.1208323 0.1193433 0.1183616 0.117797 0.1178089
 0.118528 0.1197948 0.1212032 0.1223414 0.1230395 0.1233463 0.1232429 0.1223785 0.1199981 0.1152272
 0.1077868 0.098579 0.0893649 0.08174188 0.07642467 0.07326946 0.07164387 0.07079902 0.07022811 0.06989576
 0.07012188 0.07120653 0.07317841 0.07587279 0.0791018 0.08261578 0.08599782 0.08883049 0.09100622 0.09272049
 0.09413614 0.09519199 0.09575333 0.09580705 0.09545752 0.09482741 0.09402281 0.09313168 0.0921746 0.09108734
 0.08985642 0.08867413 0.08783734 0.08745928 0.08738552 0.08740419 0.08741805 0.08740702 0.08735749 0.08726606
 0.08715159 0.08707057 0.08713672 0.08745059 0.08797006 0.08850743 0.08888365 0.08906388 0.08913957 0.08916159
 0.08898972 0.08842339 0.08755039 0.08677073 0.08628951 0.08577397 0.08478543 0.08343862 0.08235301 0.08198242
 0.0822112 0.08259153 0.08276615 0.08264036 0.08236489 0.08226515 0.08261479 0.08330421 0.08383469 0.0837993
</values></Ydata></ScRf><Data_Parameters_AB><parameter name="DPF">1</parameter><parameter name="NPT">3497</parameter><parameter name="FXV">3996</parameter><parameter name="LXV">500</parameter><parameter name="CSF">1</parameter><parameter name="MXY">0.335257470607758</parameter><parameter name="MNY">-0.0338360369205475</parameter><parameter name="DAT">31/05/2022</parameter><parameter name="TIM">11:04:56.634 (GMT+2)</parameter><parameter name="DXU">WN</parameter></Data_Parameters_AB><AB__Qtest><MainReport name="Quality Test Report"><Header><Line><Legend>Test result ok/not ok [1/0]: </Legend><Value>0</Value></Line><Line><Legend>Method file: </Legend><Value>C:\Users\Public\Documents\Bruker\OPUS_8.2.28\QT\IRBT_v3_default.QT</Value></Line></Header><Matrix><Line><Legend></Legend><Legend>min</Legend><Legend>max</Legend><Legend>measured</Legend></Line><Line><Value>Absorption (X-Range 1):</Value><Value>0.400000</Value><Value>2.000000</Value><Value>0.246468</Value></Line><Line><Value>Noise (X-Range 4):</Value><Value></Value><Value>0.000300</Value><Value>0.000083</Value></Line><Line><Value>Signal/Noise (X-Range 2):</Value><Value>200.000000</Value><Value></Value><Value>37.202379</Value></Line><Line><Value>Signal/Noise (X-Range 3):</Value><Value>40.000000</Value><Value></Value><Value>40.901348</Value></Line><Line><Value>Water vapour (X-Range 5):</Value><Value></Value><Value>0.000300</Value><Value>0.000108</Value></Line><Line><Value>Signal/Water (X-Range 2):</Value><Value>100.000000</Value><Value></Value><Value>28.654749</Value></Line><Line><Value>Signal/Water (X-Range 3):</Value><Value>20.000000</Value><Value></Value><Value>31.503841</Value></Line><Line><Value>Fringes (X-Range 6):</Value><Value></Value><Value>0.000100</Value><Value>0.000070</Value></Line></Matrix></MainReport></AB__Qtest><Data_Parameters_ScSm><parameter name="DPF">1</parameter><parameter name="NPT">1814</parameter><parameter name="FXV">3996.33169228125</parameter><parameter name="LXV">499.541461535156</parameter><parameter name="CSF">1</parameter><parameter name="MXY">0.237791165709496</parameter><parameter name="MNY">0.0315386950969696</parameter><parameter name="DAT">31/05/2022</parameter><parameter name="TIM">11:04:56.634 (GMT+2)</parameter><parameter name="DXU">WN</parameter></Data_Parameters_ScSm><Data_Parameters_ScRf><parameter name="DPF">1</parameter><parameter name="NPT">1820</parameter><parameter name="FXV">4004.04661832813</parameter><parameter name="LXV">495.683998511719</parameter><parameter name="CSF">1</parameter><parameter name="MXY">0.26493513584137</parameter><parameter name="MNY">0.0302988961338997</parameter><parameter name="DAT">31/05/2022</parameter><parameter name="TIM">11:04:30.594 (GMT+2)</parameter><parameter name="DXU">WN</parameter></Data_Parameters_ScRf><Optic_Parameters_Rf><parameter name="APR">0</parameter><parameter name="APT">Open</parameter><parameter name="BMS">KBr</parameter><parameter name="DTC">RT-DLaTGS_IR-Biotyper [Microplate reader]</parameter><parameter name="HPF">0</parameter><parameter name="LPF">10.0</parameter><parameter name="LPV">4000</parameter><parameter name="PGR">0</parameter><parameter name="RCH">Module port</parameter><parameter name="RDX">0</parameter><parameter name="SRC">MIR</parameter><parameter name="VEL">10.0</parameter><parameter name="SON">Off</parameter></Optic_Parameters_Rf><Acquisition_Parameters_Rf><parameter name="ADT">1</parameter><parameter name="AQM">DD</parameter><parameter name="CFE">0</parameter><parameter name="COR">0</parameter><parameter name="DEL">0</parameter><parameter name="DLY">0</parameter><parameter name="HFW">8000</parameter><parameter name="LFW">0</parameter><parameter name="NSR">32</parameter><parameter name="PLF">AB</parameter><parameter name="RES">6</parameter><parameter name="RGN">-1</parameter><parameter name="STR">0</parameter><parameter name="TCL">MakeCompatibleScalar (0, {WSV=1.000000, ARV=0});</parameter><parameter name="TDL">37</parameter><parameter name="RPO">0</parameter></Acquisition_Parameters_Rf><FT_-_Parameters_Rf><parameter name="APF">B3</parameter><parameter name="HFQ">500</parameter><parameter name="LFQ">4000</parameter><parameter name="NLI">0</parameter><parameter name="PHR">24</parameter><parameter name="PHZ">ML</parameter><parameter name="SPZ">NO</parameter><parameter name="ZFF">1</parameter></FT_-_Parameters_Rf><Optic_Parameters_><parameter name="APR">0</parameter><parameter name="APT">Open</parameter><parameter name="BMS">KBr</parameter><parameter name="CHN">Module port</parameter><parameter name="DTC">RT-DLaTGS_IR-Biotyper [Microplate reader]</parameter><parameter name="HPF">0</parameter><parameter name="LPF">10.0</parameter><parameter name="LPV">4000</parameter><parameter name="PGN">0</parameter><parameter name="RDX">0</parameter><parameter name="SRC">MIR</parameter><parameter name="VEL">10.0</parameter><parameter name="SON">Off</parameter></Optic_Parameters_><FT_-_Parameters_><parameter name="APF">B3</parameter><parameter name="HFQ">500</parameter><parameter name="LFQ">4000</parameter><parameter name="NLI">0</parameter><parameter name="PHR">24</parameter><parameter name="PHZ">ML</parameter><parameter name="SPZ">NO</parameter><parameter name="ZFF">1</parameter></FT_-_Parameters_><Acquisition_Parameters_><parameter name="ADT">1</parameter><parameter name="AQM">DD</parameter><parameter name="CFE">0</parameter><parameter name="COR">0</parameter><parameter name="DEL">0</parameter><parameter name="DLY">0</parameter><parameter name="HFW">8000</parameter><parameter name="LFW">0</parameter><parameter name="NSS">32</parameter><parameter name="PLF">AB</parameter><parameter name="RES">6</parameter><parameter name="SOT">0</parameter><parameter name="TCL">MakeCompatibleScalar (0, {WSV=1.000000, ARV=0});</parameter><parameter name="TDL">37</parameter><parameter name="SPO">0</parameter><parameter name="SGN">-1</parameter></Acquisition_Parameters_><Instrument_Parameters_Rf><parameter name="HFL">15800.168544</parameter><parameter name="LFL">0</parameter><parameter name="LWN">15800.168544</parameter><parameter name="ABP">32197</parameter><parameter name="SSP">1</parameter><parameter name="ARG">2</parameter><parameter name="ASG">2</parameter><parameter name="ASS">32</parameter><parameter name="GFW">16</parameter><parameter name="GBW">16</parameter><parameter name="BFW">0</parameter><parameter name="BBW">0</parameter><parameter name="PKA">7269</parameter><parameter name="PKL">4996</parameter><parameter name="PRA">7451</parameter><parameter name="PRL">5001</parameter><parameter name="P2A">1</parameter><parameter name="P2L">1</parameter><parameter name="P2R">1</parameter><parameter name="P2K">1</parameter><parameter name="DAQ">0</parameter><parameter name="AG2">1</parameter><parameter name="SSM">1</parameter><parameter name="RSN">25405</parameter><parameter name="CRR">0</parameter><parameter name="SRT">1653995070.594</parameter><parameter name="DUR">19.6379852294922</parameter><parameter name="TSC">28.8</parameter><parameter name="MVD">0.323066383600235</parameter><parameter name="AN1">0.225828728580336</parameter><parameter name="AN2">0</parameter><parameter name="VSN">2.485 Apr  4 2017</parameter><parameter name="SRN">0085</parameter><parameter name="CAM">0</parameter><parameter name="INS">IR-Biotyper</parameter><parameter name="FOC">69</parameter><parameter name="RDY">1</parameter><parameter name="ARS">32</parameter></Instrument_Parameters_Rf><Sample_Parameters_><parameter name="BLD"></parameter><parameter name="CNM">Admin</parameter><parameter name="CPY"></parameter><parameter name="DPM"></parameter><parameter name="EXP">IRBT_v3_32Scans.XPM</parameter><parameter name="LCT"></parameter><parameter name="SFM">Microplate, HTS-XT</parameter><parameter name="SNM">220531-1021(v.3)_CLA33F (D_16)_D4_d30a042c-63a6-4be2-a25d-ea0646ed9fc6.0</parameter><parameter name="XPP">C:\Users\Public\Documents\Bruker\OPUS_8.2.28\XPM</parameter><parameter name="IST">OK</parameter><parameter name="CPG">1252</parameter><parameter name="UID">72f30f9a-8758-4f35-b946-ed1e399b05ef</parameter></Sample_Parameters_><Instrument_Parameters_><parameter name="HFL">15800.168544</parameter><parameter name="LFL">0</parameter><parameter name="LWN">15800.168544</parameter><parameter name="ABP">32197</parameter><parameter name="SSP">1</parameter><parameter name="ASG">4</parameter><parameter name="ARG">2</parameter><parameter name="ASS">32</parameter><parameter name="GFW">16</parameter><parameter name="GBW">16</parameter><parameter name="BFW">0</parameter><parameter name="BBW">0</parameter><parameter name="PKA">6215</parameter><parameter name="PKL">4988</parameter><parameter name="PRA">6461</parameter><parameter name="PRL">4993</parameter><parameter name="P2A">1</parameter><parameter name="P2L">1</parameter><parameter name="P2R">1</parameter><parameter name="P2K">1</parameter><parameter name="DAQ">0</parameter><parameter name="AG2">1</parameter><parameter name="SSM">1</parameter><parameter name="RSN">13328</parameter><parameter name="CRR">0</parameter><parameter name="SRT">1653995096.635</parameter><parameter name="DUR">19.6379852294922</parameter><parameter name="TSC">28.8</parameter><parameter name="MVD">0.236938968300819</parameter><parameter name="AN1">0.225798378062876</parameter><parameter name="AN2">0</parameter><parameter name="VSN">2.485 Apr  4 2017</parameter><parameter name="SRN">0085</parameter><parameter name="CAM">0</parameter><parameter name="INS">IR-Biotyper</parameter><parameter name="FOC">69</parameter><parameter name="RDY">1</parameter></Instrument_Parameters_><History/></OPUSDataFile>
