<?xml version="1.0" encoding="UTF-8" ?>
<OPUSDataFile><AB><Ydata ylabel="Absorbance Units"><values byteorder="INTEL" format="FLOAT32" numvalues="3497"> -0.08361734 -0.08359451 -0.08359805 -0.08362876 -0.08367589 -0.08373886 -0.08379753 -0.08385137 -0.0838881 -0.08390927
 -0.08391757 -0.08391492 -0.08390991 -0.08390231 -0.08389548 -0.08388948 -0.08388437 -0.08388421 -0.08389333 -0.08391537
 -0.08395665 -0.0840116 -0.08408097 -0.08415192 -0.0842196 -0.08427729 -0.08432109 -0.08435608 -0.08438196 -0.08440798
 -0.08443514 -0.0844675 -0.08450531 -0.0845466 -0.084591 -0.08463337 -0.0846734 -0.08470665 -0.08473326 -0.08475105
 -0.08476096 -0.08476345 -0.08476096 -0.08475661 -0.08475491 -0.08476239 -0.08478115 -0.08481714 -0.08486336 -0.08491958
 -0.08497249 -0.08501664 -0.08504578 -0.08505544 -0.08505412 -0.08504165 -0.08503244 -0.08502804 -0.08503597 -0.08505674
 -0.08508992 -0.0851353 -0.08518997 -0.08525376 -0.08532511 -0.0854027 -0.08548233 -0.08556003 -0.08562435 -0.08567234
 -0.08569136 -0.08568805 -0.08566203 -0.08562911 -0.08560251 -0.08558997 -0.08560331 -0.08562907 -0.08566641 -0.08569688
 -0.08571339 -0.08571751 -0.08570671 -0.08569884 -0.08569534 -0.08571008 -0.08574393 -0.08580147 -0.0858824 -0.08598518
 -0.08610759 -0.08623754 -0.08636905 -0.08647298 -0.08654731 -0.0865678 -0.08654765 -0.08649559 -0.08642986 -0.08637677
 -0.08634218 -0.08634338 -0.0863668 -0.08641265 -0.08645749 -0.08649052 -0.08650578 -0.08649557 -0.08648311 -0.08647044
 -0.08648113 -0.08651955 -0.0865756 -0.08664906 -0.08670393 -0.08673967 -0.08673974 -0.08670945 -0.08667308 -0.08663651
 -0.08663701 -0.08667049 -0.08675026 -0.08685868 -0.08697269 -0.08707718 -0.0871401 -0.08717064 -0.08716279 -0.08713691
 -0.08710479 -0.08707221 -0.08704405 -0.08702105 -0.08700088 -0.08700234 -0.08702617 -0.08710318 -0.08723827 -0.08743365
 -0.08769046 -0.08791707 -0.08810712 -0.08813703 -0.08802247 -0.08780143 -0.08749796 -0.0872267 -0.08698827 -0.08684192
 -0.08677675 -0.08680443 -0.08690403 -0.08706015 -0.08724239 -0.08742145 -0.08757685 -0.08768491 -0.08775359 -0.08777799
 -0.0877799 -0.08776477 -0.08774377 -0.08771995 -0.08769568 -0.08767102 -0.08765345 -0.08764337 -0.0876522 -0.08768004
 -0.08773056 -0.08780181 -0.0878842 -0.08797362 -0.08805009 -0.08810969 -0.08813155 -0.088117 -0.08805569 -0.08795931
 -0.08783455 -0.08770074 -0.08757492 -0.08747301 -0.08740929 -0.0873889 -0.08741883 -0.08749179 -0.08760954 -0.08775274
 -0.08792016 -0.08808514 -0.0882456 -0.08837307 -0.08846574 -0.08850184 -0.08848174 -0.08840846 -0.08828595 -0.08814122
 -0.08797825 -0.08782635 -0.08768734 -0.08758055 -0.0875058 -0.08747312 -0.08747678 -0.08751724 -0.0875789 -0.08765127
 -0.0877156 -0.08775627 -0.08777022 -0.08774919 -0.08771001 -0.08765469 -0.08760119 -0.08755364 -0.08751745 -0.08749368
 -0.08748425 -0.08748926 -0.08751538 -0.08756249 -0.08763093 -0.08771777 -0.08780358 -0.08788507 -0.08793621 -0.08796217
 -0.08796074 -0.08794338 -0.08793022 -0.08792622 -0.08794796 -0.0879889 -0.08804846 -0.08812228 -0.088204 -0.08830488
 -0.08842766 -0.08858272 -0.08877862 -0.08899279 -0.0892261 -0.08943377 -0.08961026 -0.08973589 -0.08980911 -0.0898179
 -0.08976132 -0.0896164 -0.0893895 -0.08910881 -0.08879066 -0.08851695 -0.08829389 -0.0881855 -0.08817364 -0.08826511
 -0.08841487 -0.08856867 -0.08869855 -0.08875052 -0.08875269 -0.08870424 -0.08864097 -0.08858036 -0.08853125 -0.0885018
 -0.08848038 -0.08846746 -0.088443 -0.08840454 -0.08834098 -0.08825102 -0.088149 -0.08803674 -0.08794876 -0.08788644
 -0.08787965 -0.08792128 -0.08800428 -0.08810928 -0.0881784 -0.08820691 -0.08814864 -0.08803685 -0.08789495 -0.08775026
 -0.08764268 -0.08755945 -0.0875097 -0.08745746 -0.0873877 -0.08728588 -0.087139 -0.08697437 -0.08679337 -0.08662945
 -0.08648807 -0.08637265 -0.08628427 -0.08619773 -0.08611184 -0.0860026 -0.08587263 -0.08572958 -0.08557703 -0.08543515
 -0.08530199 -0.08518128 -0.08507291 -0.0849769 -0.0848975 -0.0848423 -0.08480778 -0.08479932 -0.08479391 -0.08478229
 -0.08473702 -0.08464208 -0.08449255 -0.08428205 -0.08402128 -0.08371004 -0.08336509 -0.08298745 -0.08259889 -0.08220094
 -0.08180736 -0.08141863 -0.08104162 -0.08067785 -0.08034246 -0.08003639 -0.07977513 -0.07955109 -0.079354 -0.0791712
 -0.07897206 -0.07875585 -0.07850716 -0.07823513 -0.07794511 -0.07763637 -0.07731123 -0.07696345 -0.07658719 -0.0761946
 -0.07578631 -0.07538091 -0.07498277 -0.0745979 -0.07422801 -0.07386964 -0.07352267 -0.07318284 -0.07285023 -0.07252803
 -0.07221688 -0.07192528 -0.0716497 -0.07138415 -0.07111548 -0.07080326 -0.07044147 -0.06998919 -0.06947606 -0.06892052
 -0.06835794 -0.06783165 -0.06734559 -0.06691857 -0.06653138 -0.06618326 -0.06584546 -0.06550907 -0.06515805 -0.06478574
 -0.0644009 -0.06400418 -0.06360067 -0.06319149 -0.06275425 -0.06228784 -0.06176794 -0.06119827 -0.06059451 -0.05996512
 -0.05935529 -0.05876834 -0.05823819 -0.0577598 -0.05734289 -0.05697227 -0.0566361 -0.05631039 -0.05596824 -0.05559831
 -0.05518 -0.05473169 -0.05425505 -0.05377182 -0.05329239 -0.05281054 -0.05232809 -0.05182751 -0.05130499 -0.0507696
 -0.05022118 -0.04968739 -0.04916899 -0.04867649 -0.04820799 -0.04775377 -0.04731111 -0.04686277 -0.04640808 -0.04593411
 -0.04544698 -0.04495047 -0.04445516 -0.04397874 -0.0435219 -0.04309735 -0.04268379 -0.0422752 -0.04184169 -0.04136463
 -0.0408439 -0.04027003 -0.03967756 -0.03907086 -0.03848108 -0.03791375 -0.0373751 -0.03686651 -0.03637316 -0.03589407
 -0.03540885 -0.03491704 -0.03440572 -0.03387585 -0.03332391 -0.03275267 -0.03216625 -0.0315712 -0.03098095 -0.03040297
 -0.0298545 -0.02933447 -0.02885121 -0.02839113 -0.02794976 -0.02751028 -0.02706316 -0.02660277 -0.02612264 -0.02563629
 -0.02514405 -0.02466611 -0.02420656 -0.02376312 -0.0233368 -0.02289713 -0.02244283 -0.02195024 -0.02142227 -0.02087199
 -0.02030486 -0.01975384 -0.01921849 -0.01871626 -0.0182401 -0.01778477 -0.0173435 -0.01690345 -0.01646518 -0.01602264
 -0.0155847 -0.01515617 -0.01474077 -0.01434563 -0.01395391 -0.01356409 -0.01315221 -0.01271085 -0.01224071 -0.01173893
 -0.01123044 -0.01071684 -0.01021649 -0.009729809 -0.009257277 -0.008798736 -0.008352635 -0.007920373 -0.007508061 -0.007116174
 -0.00675071 -0.006407903 -0.00608485 -0.005773709 -0.005462691 -0.005146026 -0.00481253 -0.004464661 -0.004100011 -0.003724531
 -0.003341228 -0.002950331 -0.002551766 -0.002148463 -0.001738819 -0.001339754 -0.0009531908 -0.0005924339 -0.000259509 6.044116E-05
 0.0003685897 0.0006948804 0.001038958 0.001411866 0.001808851 0.002214267 0.002623241 0.003012997 0.003382581 0.00371808
 0.004023871 0.004298589 0.004551327 0.00478957 0.005022188 0.005257436 0.00549939 0.005752082 0.006016016 0.006292863
 0.006578712 0.00687427 0.00716843 0.007460315 0.00773727 0.007998049 0.008239217 0.008460918 0.008671402 0.008872161
 0.009079392 0.009294813 0.009536291 0.009801938 0.01009815 0.01041597 0.01074184 0.01106497 0.01136282 0.0116343
 0.01186761 0.01207331 0.01225424 0.01242171 0.01258249 0.01273961 0.01289591 0.01304915 0.01319902 0.01334525
 0.01348733 0.01362962 0.01377238 0.01391994 0.01407244 0.01423079 0.01439459 0.01456103 0.01472901 0.01489242
 0.01504914 0.01518932 0.01531231 0.01541002 0.01548843 0.01555022 0.01560763 0.01567402 0.01575639 0.01586725
 0.01599572 0.01614357 0.01628599 0.01641537 0.01651546 0.01657829 0.01661634 0.01662826 0.01664519 0.01666993
 0.01671594 0.01678321 0.01685063 0.01691659 0.01695527 0.01697043 0.01696575 0.01694833 0.01694318 0.01695147
 0.01699023 0.01705101 0.01713104 0.01721651 0.01729312 0.0173502 0.01737267 0.0173679 0.01732987 0.01729
 0.01725625 0.01725543 0.0172998 0.01737173 0.01747426 0.01755371 0.01760566 0.01759783 0.01752955 0.0174232
 0.01728214 0.01714954 0.01702319 0.01691537 0.01681967 0.01671922 0.01661755 0.01651075 0.01641223 0.0163432
 0.01630352 0.01630792 0.01633042 0.01635915 0.01636874 0.01633858 0.01627715 0.01617767 0.01607623 0.01597932
 0.01591388 0.0158869 0.01589166 0.01592962 0.01596422 0.01599345 0.01597455 0.01590756 0.01577372 0.01557993
 0.01534835 0.01509027 0.01485314 0.01464199 0.01449414 0.01439936 0.01436282 0.01436153 0.01437547 0.01438342
 0.01436147 0.01430885 0.0142145 0.01410132 0.01397252 0.01385515 0.01375636 0.01368831 0.01365397 0.01365582
 0.01369417 0.01377384 0.01389495 0.01405541 0.01425228 0.01445718 0.01466305 0.01481826 0.01491972 0.01492568
 0.01484846 0.01468758 0.01447245 0.01424402 0.01403028 0.01388071 0.01379218 0.01378765 0.01382265 0.01388709
 0.01392455 0.01391213 0.01382492 0.01364789 0.01340521 0.01309501 0.01276811 0.01242853 0.01211422 0.01182687
 0.01157302 0.01135137 0.0111505 0.01096997 0.01080154 0.0106462 0.01050308 0.01037249 0.01025576 0.01014994
 0.01005438 0.009957196 0.009850038 0.009710767 0.009520869 0.009266764 0.008930814 0.008532518 0.008068459 0.007585296
 0.007091443 0.006627471 0.006201355 0.00582838 0.005511404 0.005243515 0.005024168 0.004826346 0.004647746 0.004452525
 0.004242307 0.004004596 0.003747478 0.003493013 0.003242263 0.003013929 0.002791244 0.002557404 0.002296971 0.001980111
 0.001621624 0.001214625 0.0008027028 0.0004034791 5.608218E-05 -0.0002187141 -0.0004164514 -0.000526151 -0.0005881746 -0.0006023441
 -0.0006394252 -0.0007051713 -0.0008574461 -0.001098951 -0.00143116 -0.001849172 -0.002299663 -0.002776762 -0.003219686 -0.003630627
 -0.00398265 -0.004285883 -0.004548759 -0.004781632 -0.005004593 -0.00522207 -0.005446693 -0.005678087 -0.005919282 -0.00617063
 -0.006432542 -0.006707015 -0.006995628 -0.007295849 -0.007608346 -0.007925051 -0.008244872 -0.008562095 -0.008875906 -0.009186648
 -0.009494299 -0.009798594 -0.01009944 -0.01039509 -0.01068631 -0.01097626 -0.01126638 -0.011564 -0.01186791 -0.01217999
 -0.01249592 -0.01280962 -0.01311859 -0.01341676 -0.01370667 -0.01398748 -0.01426454 -0.01453984 -0.01481891 -0.0151035
 -0.01539974 -0.01570958 -0.01603576 -0.01638013 -0.01673413 -0.01709777 -0.01745361 -0.01780076 -0.01813014 -0.01844277
 -0.01874826 -0.01904813 -0.01935712 -0.01967326 -0.01999825 -0.020328 -0.02065323 -0.02097324 -0.02128188 -0.02158236
 -0.02187626 -0.02216527 -0.02245307 -0.02273398 -0.02300838 -0.02326257 -0.02349151 -0.02368702 -0.02384186 -0.0239774
 -0.02409164 -0.02423769 -0.02441998 -0.02468203 -0.02502617 -0.02544083 -0.02592113 -0.02640463 -0.02688579 -0.02729884
 -0.02764758 -0.02790547 -0.02808996 -0.02822343 -0.02833125 -0.02846458 -0.02863616 -0.02888741 -0.02919656 -0.02956734
 -0.02995479 -0.03033403 -0.03068441 -0.03098618 -0.03126426 -0.03152087 -0.0317798 -0.03205024 -0.03230385 -0.03254075
 -0.03270533 -0.03279467 -0.03279958 -0.03272551 -0.03263785 -0.03254586 -0.0325394 -0.03261626 -0.03282233 -0.03313691
 -0.03353886 -0.03400024 -0.0344652 -0.03492147 -0.03532897 -0.03570107 -0.03603416 -0.03634624 -0.03665023 -0.03694121
 -0.03722224 -0.03747752 -0.03770022 -0.03789979 -0.03807425 -0.03825392 -0.03844264 -0.038645 -0.03886143 -0.03905826
 -0.03923423 -0.03936201 -0.03944628 -0.03950017 -0.03953035 -0.03956895 -0.03961558 -0.03968608 -0.0397751 -0.03987978
 -0.03999892 -0.04012751 -0.04027345 -0.04043898 -0.04063791 -0.04087882 -0.04116815 -0.04151513 -0.04189968 -0.04232433
 -0.04273999 -0.0431405 -0.04348084 -0.04375387 -0.04396186 -0.04410452 -0.04423468 -0.04435557 -0.04452514 -0.0447406
 -0.04501763 -0.04534513 -0.04569253 -0.04604951 -0.0463745 -0.04666777 -0.04690883 -0.0471084 -0.04726924 -0.04740573
 -0.04752904 -0.04765205 -0.04778518 -0.04793331 -0.0481031 -0.04828411 -0.04847662 -0.04866195 -0.04883544 -0.04899733
 -0.04914528 -0.04930947 -0.04949152 -0.0497166 -0.04998285 -0.05027002 -0.05057254 -0.05084268 -0.05108388 -0.05127941
 -0.05144454 -0.05160956 -0.05178129 -0.0519911 -0.05222182 -0.05246864 -0.05270701 -0.05291291 -0.05308053 -0.05319723
 -0.05327508 -0.05331647 -0.05332875 -0.05331548 -0.05327315 -0.05320079 -0.05310126 -0.05297317 -0.05284036 -0.05270399
 -0.05260321 -0.05253981 -0.05254813 -0.05262638 -0.05278327 -0.05301087 -0.05328697 -0.05360018 -0.05391221 -0.05421521
 -0.05447756 -0.05470026 -0.05487067 -0.05499709 -0.05508136 -0.05513301 -0.05515768 -0.0551617 -0.05514785 -0.05512295
 -0.05508794 -0.05505424 -0.05502408 -0.05500434 -0.05499759 -0.05498649 -0.05497042 -0.05490568 -0.05479031 -0.05458559
 -0.05429573 -0.05392499 -0.05348511 -0.05302199 -0.05254409 -0.05209784 -0.05167908 -0.05130326 -0.0509592 -0.05063872
 -0.05033602 -0.05004308 -0.04975919 -0.04948335 -0.04921029 -0.04893839 -0.04866125 -0.0483742 -0.0480883 -0.04780163
 -0.04754684 -0.04732662 -0.04717112 -0.0470825 -0.0470616 -0.04710678 -0.04719166 -0.04731445 -0.04744963 -0.04759924
 -0.04775864 -0.04792808 -0.04811037 -0.04829384 -0.04846304 -0.04859928 -0.04867109 -0.04867633 -0.04859555 -0.04845591
 -0.04826424 -0.04805402 -0.04784283 -0.0476376 -0.0474471 -0.04725109 -0.04704783 -0.04681773 -0.04655734 -0.04626889
 -0.04595199 -0.04563292 -0.04531407 -0.04503661 -0.04480255 -0.0446478 -0.04456824 -0.04457043 -0.0446426 -0.04475897
 -0.04490959 -0.0450621 -0.04522147 -0.04537515 -0.04554794 -0.04575031 -0.0460212 -0.04638283 -0.04687081 -0.04750791
 -0.04829734 -0.04925311 -0.05032391 -0.05151006 -0.05272049 -0.05394714 -0.05510697 -0.05619406 -0.05717393 -0.05804725
 -0.05882519 -0.05951064 -0.06012811 -0.06067878 -0.06117878 -0.06163052 -0.06204586 -0.06243206 -0.06280662 -0.06317615
 -0.0635583 -0.0639479 -0.06435019 -0.06474688 -0.06512985 -0.0654823 -0.06579407 -0.06606314 -0.06628545 -0.06647094
 -0.06662071 -0.06674317 -0.06684002 -0.06690816 -0.06694764 -0.06694579 -0.0669027 -0.06681656 -0.0666924 -0.06656174
 -0.06643379 -0.06636393 -0.06635329 -0.06643849 -0.06660226 -0.06683493 -0.06710942 -0.06738862 -0.06765395 -0.06787566
 -0.06805014 -0.06816567 -0.06822935 -0.06823947 -0.06821106 -0.06814615 -0.06806431 -0.06796905 -0.06787455 -0.06778251
 -0.06770269 -0.06763532 -0.06760979 -0.06762972 -0.06776145 -0.06800973 -0.06844575 -0.06906034 -0.06986438 -0.0708252
 -0.07186848 -0.07295585 -0.07398011 -0.07493172 -0.07574686 -0.07645659 -0.07706197 -0.07760563 -0.07811615 -0.07861031
 -0.07910541 -0.0795899 -0.08006447 -0.08051462 -0.08093687 -0.08132858 -0.08168864 -0.08202123 -0.08232649 -0.08260925
 -0.08286989 -0.08311576 -0.08334766 -0.08357535 -0.08379891 -0.08402475 -0.08425058 -0.08447438 -0.0846921 -0.08489507
 -0.08508175 -0.08524483 -0.08538985 -0.08551722 -0.08563805 -0.08575905 -0.08588784 -0.08603121 -0.08618396 -0.08634824
 -0.08650661 -0.08665656 -0.08678287 -0.08688226 -0.08695984 -0.08701532 -0.08707321 -0.08713449 -0.08721735 -0.08731978
 -0.08743536 -0.08756118 -0.08768006 -0.08779477 -0.08790274 -0.08801057 -0.0881308 -0.0882638 -0.08841786 -0.08858338
 -0.08875602 -0.08892385 -0.08907829 -0.08921257 -0.08932055 -0.08940481 -0.08946243 -0.08950953 -0.08954704 -0.08959855
 -0.08966755 -0.08976336 -0.08988744 -0.0900217 -0.09016488 -0.0902909 -0.09040071 -0.09048868 -0.09055889 -0.09062657
 -0.09069268 -0.09076928 -0.09085148 -0.09093583 -0.09101751 -0.09108764 -0.09114707 -0.09119282 -0.09122889 -0.09125723
 -0.0912796 -0.09129689 -0.09131104 -0.09132127 -0.09133647 -0.09135719 -0.0913971 -0.09145846 -0.0915439 -0.0916542
 -0.09177332 -0.09190025 -0.09201432 -0.09211601 -0.09219895 -0.09226605 -0.09232683 -0.09238292 -0.09244473 -0.09250975
 -0.09257893 -0.09264751 -0.09270917 -0.092762 -0.0928004 -0.09282934 -0.09284862 -0.09286861 -0.09289321 -0.09293137
 -0.09298728 -0.09306159 -0.09315621 -0.09326254 -0.09338042 -0.09349625 -0.09360909 -0.09370856 -0.09379455 -0.09386731
 -0.093928 -0.09398579 -0.09404144 -0.09410337 -0.0941707 -0.0942453 -0.09432569 -0.09440994 -0.09449696 -0.0945848
 -0.09467214 -0.0947574 -0.09483884 -0.09491481 -0.09498475 -0.09504775 -0.09510496 -0.09515614 -0.09520417 -0.0952492
 -0.09529559 -0.09534391 -0.095397 -0.09545524 -0.09551588 -0.09557863 -0.09563684 -0.09569017 -0.09573282 -0.09576512
 -0.09578478 -0.0957934 -0.09579322 -0.09578797 -0.09578515 -0.09578921 -0.09580966 -0.09584775 -0.09590907 -0.0959897
 -0.09608991 -0.09620208 -0.09632395 -0.09644629 -0.09656645 -0.096676 -0.09677248 -0.0968535 -0.09691787 -0.09697126
 -0.09701388 -0.09705406 -0.09709212 -0.09713292 -0.0971764 -0.09722431 -0.09727649 -0.09733353 -0.09739483 -0.09745939
 -0.09752591 -0.09759156 -0.09765501 -0.09771317 -0.09776576 -0.09781103 -0.09785043 -0.09788378 -0.09791448 -0.09794369
 -0.09797498 -0.09800985 -0.09804936 -0.09809429 -0.09814269 -0.09819449 -0.09824713 -0.09830035 -0.09835397 -0.09840801
 -0.09846408 -0.0985221 -0.09858256 -0.0986448 -0.09870631 -0.09876625 -0.09882086 -0.09886996 -0.09891135 -0.09894562
 -0.09897265 -0.09899318 -0.0990075 -0.09901735 -0.09902351 -0.09902867 -0.099034 -0.09904193 -0.09905349 -0.09906965
 -0.09909062 -0.09911779 -0.09915118 -0.09919374 -0.09924573 -0.09930845 -0.09938178 -0.09946088 -0.09954491 -0.09962398
 -0.09969793 -0.09976015 -0.0998124 -0.09985641 -0.09989379 -0.09992933 -0.09996183 -0.0999914 -0.1000175 -0.1000378
 -0.1000579 -0.1000796 -0.1001109 -0.1001574 -0.1002172 -0.100293 -0.1003704 -0.1004472 -0.1005104 -0.1005572
 -0.1005889 -0.1006051 -0.1006163 -0.100623 -0.1006316 -0.1006416 -0.100652 -0.1006626 -0.1006716 -0.1006802
 -0.1006904 -0.1007031 -0.1007211 -0.1007436 -0.1007706 -0.1008019 -0.100837 -0.1008764 -0.1009213 -0.1009687
 -0.1010188 -0.1010649 -0.1011046 -0.1011354 -0.101155 -0.1011712 -0.1011844 -0.1012041 -0.1012313 -0.1012671
 -0.1013111 -0.1013555 -0.1013999 -0.1014367 -0.1014665 -0.1014883 -0.1015035 -0.1015165 -0.1015281 -0.1015429
 -0.1015591 -0.1015766 -0.1015917 -0.1015998 -0.1016009 -0.1015918 -0.1015801 -0.1015679 -0.1015641 -0.1015735
 -0.1015943 -0.1016286 -0.1016632 -0.1016967 -0.1017176 -0.1017243 -0.1017196 -0.1017037 -0.1016901 -0.1016794
 -0.1016822 -0.1016973 -0.1017242 -0.1017605 -0.1017987 -0.101837 -0.1018678 -0.1018915 -0.1019047 -0.1019106
 -0.1019103 -0.1019095 -0.1019123 -0.101923 -0.1019456 -0.1019782 -0.1020221 -0.10207 -0.1021208 -0.1021674
 -0.1022085 -0.1022416 -0.1022662 -0.1022845 -0.1022963 -0.1023049 -0.1023105 -0.1023156 -0.1023202 -0.1023263
 -0.1023339 -0.1023443 -0.102357 -0.1023716 -0.1023874 -0.1024028 -0.1024178 -0.1024316 -0.1024454 -0.1024597
 -0.1024756 -0.1024939 -0.1025142 -0.1025368 -0.1025598 -0.1025829 -0.1026042 -0.1026234 -0.1026393 -0.1026516
 -0.1026599 -0.1026641 -0.1026637 -0.1026587 -0.1026494 -0.1026364 -0.1026234 -0.1026118 -0.1026076 -0.1026105
 -0.1026231 -0.1026429 -0.1026669 -0.1026939 -0.1027205 -0.1027484 -0.1027778 -0.1028093 -0.1028445 -0.1028787
 -0.1029108 -0.102936 -0.1029522 -0.1029606 -0.1029605 -0.1029577 -0.1029527 -0.1029485 -0.1029454 -0.1029413
 -0.1029361 -0.1029274 -0.1029154 -0.102901 -0.1028849 -0.1028697 -0.1028555 -0.1028433 -0.1028329 -0.1028238
 -0.1028168 -0.1028121 -0.1028114 -0.1028162 -0.1028274 -0.1028461 -0.1028698 -0.1028985 -0.1029274 -0.1029558
 -0.1029792 -0.1029967 -0.1030054 -0.103005 -0.1029953 -0.1029762 -0.1029522 -0.1029238 -0.1028991 -0.1028784
 -0.1028678 -0.102866 -0.1028719 -0.102883 -0.1028935 -0.1029021 -0.1029039 -0.1028995 -0.1028872 -0.1028685
 -0.102843 -0.1028149 -0.1027852 -0.1027609 -0.102745 -0.1027404 -0.10275 -0.1027651 -0.1027857 -0.1027982
 -0.1028013 -0.1027908 -0.1027668 -0.1027384 -0.1027064 -0.1026831 -0.1026684 -0.1026684 -0.1026822 -0.10271
 -0.1027519 -0.102808 -0.1028798 -0.1029694 -0.1030793 -0.1032125 -0.1033715 -0.1035584 -0.1037773 -0.10403
 -0.1043222 -0.1046569 -0.1050351 -0.1054597 -0.1059194 -0.1064147 -0.1069229 -0.1074425 -0.1079511 -0.1084476
 -0.1089158 -0.1093542 -0.1097452 -0.1100835 -0.1103339 -0.1104869 -0.1104895 -0.1103413 -0.1100029 -0.1095104
 -0.1088911 -0.1082085 -0.1075428 -0.1069292 -0.1064226 -0.1060222 -0.1057416 -0.1055723 -0.1055155 -0.1055589
 -0.105706 -0.1059115 -0.1061752 -0.1064119 -0.1066135 -0.1067281 -0.106753 -0.1067074 -0.106594 -0.1064495
 -0.1062752 -0.1060957 -0.1059118 -0.1057393 -0.1055784 -0.1054375 -0.1053148 -0.1052123 -0.1051241 -0.1050462
 -0.104968 -0.1048807 -0.1047766 -0.1046472 -0.1044991 -0.1043309 -0.1041577 -0.1039831 -0.1038149 -0.1036554
 -0.1035012 -0.1033521 -0.1032034 -0.1030551 -0.1029092 -0.1027665 -0.102635 -0.1025145 -0.1024083 -0.1023139
 -0.1022246 -0.1021386 -0.102047 -0.1019525 -0.1018552 -0.1017595 -0.1016716 -0.1015909 -0.10152 -0.1014538
 -0.1013894 -0.1013259 -0.1012613 -0.1012016 -0.101148 -0.1011048 -0.1010734 -0.10105 -0.1010348 -0.1010196
 -0.101004 -0.1009816 -0.1009525 -0.1009133 -0.1008648 -0.1008076 -0.1007435 -0.1006784 -0.1006144 -0.1005599
 -0.1005149 -0.1004842 -0.1004641 -0.1004528 -0.1004449 -0.1004356 -0.1004226 -0.100403 -0.1003787 -0.1003499
 -0.1003189 -0.1002864 -0.1002521 -0.1002159 -0.1001775 -0.1001367 -0.1000962 -0.1000561 -0.10002 -0.09998809
 -0.0999613 -0.09993926 -0.09992024 -0.09990391 -0.09988815 -0.09987294 -0.09985733 -0.09984125 -0.09982432 -0.09980611
 -0.09978598 -0.09976378 -0.09973902 -0.09971233 -0.09968392 -0.0996543 -0.09962383 -0.0995922 -0.0995592 -0.09952559
 -0.0994913 -0.09945841 -0.09942725 -0.09939771 -0.09936983 -0.09934051 -0.09930972 -0.0992762 -0.09924053 -0.09920575
 -0.09917209 -0.09914226 -0.09911532 -0.09909026 -0.09906656 -0.0990425 -0.09901906 -0.09899686 -0.09897619 -0.09895798
 -0.09894076 -0.09892382 -0.09890676 -0.09888867 -0.09887224 -0.09885787 -0.09884807 -0.0988438 -0.09884252 -0.09884436
 -0.09884275 -0.09883731 -0.09882303 -0.09880002 -0.09876888 -0.09873015 -0.09868727 -0.09864055 -0.09859274 -0.09854425
 -0.09849707 -0.09845237 -0.09841326 -0.09837969 -0.09835362 -0.09833208 -0.0983137 -0.09829492 -0.09827282 -0.09824773
 -0.09821836 -0.09818918 -0.09816092 -0.09813771 -0.0981205 -0.0981106 -0.09810838 -0.09811247 -0.09812284 -0.09813465
 -0.09814741 -0.09815326 -0.09815194 -0.09813737 -0.09811084 -0.09807312 -0.09802691 -0.09797894 -0.09793124 -0.09789047
 -0.09785669 -0.09783269 -0.09781753 -0.09781138 -0.09781313 -0.09782291 -0.09783728 -0.09785606 -0.09787202 -0.0978836
 -0.09788413 -0.09787154 -0.09784746 -0.09781126 -0.09777281 -0.09773266 -0.09769931 -0.09767268 -0.0976529 -0.09763932
 -0.09762759 -0.09761783 -0.09760851 -0.0975997 -0.09759159 -0.09758251 -0.09756981 -0.09755216 -0.09752588 -0.09749385
 -0.09745637 -0.0974187 -0.0973843 -0.09735498 -0.09733315 -0.09731495 -0.09730018 -0.09728371 -0.09726436 -0.09724097
 -0.09721293 -0.09718444 -0.09715568 -0.09713278 -0.09711576 -0.09710617 -0.09710313 -0.09710168 -0.09710135 -0.09709712
 -0.09709059 -0.09708298 -0.09707623 -0.09707512 -0.09707811 -0.09708648 -0.09709476 -0.09709932 -0.09709489 -0.0970766
 -0.09704512 -0.09699815 -0.09694362 -0.09688263 -0.09682419 -0.09677039 -0.09672396 -0.09668569 -0.09665262 -0.09662463
 -0.09660044 -0.09658017 -0.09656598 -0.09655763 -0.09655495 -0.09655657 -0.09655719 -0.09655565 -0.09654579 -0.09652878
 -0.09650316 -0.09647228 -0.09643938 -0.09640756 -0.09638117 -0.09635934 -0.09634362 -0.09632953 -0.09631557 -0.09629893
 -0.09627783 -0.09625494 -0.09623037 -0.09620726 -0.0961863 -0.09616535 -0.09614437 -0.09611777 -0.09608551 -0.0960458
 -0.09599957 -0.09595206 -0.09590446 -0.09586474 -0.09583227 -0.09581036 -0.09579595 -0.09578536 -0.09577581 -0.0957618
 -0.09574397 -0.09572037 -0.09569434 -0.09566727 -0.09564158 -0.09561878 -0.09559906 -0.09558287 -0.09556958 -0.09555937
 -0.09555025 -0.0955422 -0.09553128 -0.09551726 -0.09549657 -0.09546925 -0.09543566 -0.09539643 -0.09535609 -0.09531505
 -0.09527748 -0.09524284 -0.09521192 -0.09518395 -0.09515774 -0.09513353 -0.09511118 -0.09509098 -0.09507364 -0.09505774
 -0.09504283 -0.09502717 -0.09500964 -0.09499056 -0.09496969 -0.09494822 -0.09492647 -0.09490424 -0.09488156 -0.09485835
 -0.09483459 -0.09481188 -0.09479024 -0.09477007 -0.0947509 -0.09472942 -0.09470508 -0.09467351 -0.09463525 -0.09458892
 -0.09453661 -0.09448104 -0.09442494 -0.0943729 -0.09432618 -0.09428791 -0.09425688 -0.09423377 -0.09421544 -0.09420135
 -0.09418684 -0.09417123 -0.09414771 -0.09411494 -0.09406841 -0.09400685 -0.09393514 -0.09385337 -0.09377266 -0.09369341
 -0.09362294 -0.09356084 -0.09350771 -0.09346305 -0.09342539 -0.09339389 -0.09336622 -0.09334034 -0.09331136 -0.09327833
 -0.09323712 -0.09319048 -0.09313905 -0.09308637 -0.09303556 -0.09298561 -0.09293727 -0.09288739 -0.09283456 -0.09278025
 -0.09272391 -0.09267136 -0.0926234 -0.09258177 -0.09254678 -0.09251254 -0.09247869 -0.09243818 -0.09239138 -0.09233753
 -0.09227769 -0.09221587 -0.09215276 -0.09209216 -0.09203438 -0.09198177 -0.09193423 -0.09189349 -0.09185659 -0.09182268
 -0.09178554 -0.0917412 -0.09168564 -0.09161519 -0.09153274 -0.09143745 -0.09133714 -0.09123259 -0.09113292 -0.09103919
 -0.09095827 -0.09089084 -0.09083646 -0.09079476 -0.09075744 -0.09072421 -0.09068839 -0.09065095 -0.09061272 -0.09057435
 -0.09053871 -0.09050453 -0.09047127 -0.09043651 -0.0903972 -0.09035103 -0.09029461 -0.09022772 -0.09014779 -0.09006063
 -0.08996696 -0.08987606 -0.08979122 -0.08971574 -0.08965172 -0.08959378 -0.08954182 -0.08948845 -0.08943315 -0.08937186
 -0.08930453 -0.08923041 -0.08915 -0.08906618 -0.08898014 -0.08889869 -0.08882218 -0.08875571 -0.08869752 -0.08864693
 -0.08860159 -0.08855826 -0.0885151 -0.08846992 -0.08841985 -0.08836288 -0.08829602 -0.0882168 -0.08812676 -0.08802481
 -0.08791783 -0.08780669 -0.08769812 -0.08759315 -0.08749448 -0.0874024 -0.08731634 -0.08723631 -0.08716208 -0.08709384
 -0.08703319 -0.08698004 -0.08693559 -0.08689801 -0.08686373 -0.08682901 -0.08678497 -0.08672963 -0.08665519 -0.08656599
 -0.08646229 -0.08635117 -0.0862377 -0.08612433 -0.08601412 -0.08590421 -0.08579408 -0.08568256 -0.08556852 -0.08545746
 -0.08534975 -0.08525158 -0.08516358 -0.08508465 -0.0850146 -0.08494797 -0.08488466 -0.08482176 -0.08475892 -0.08469365
 -0.08462444 -0.08454541 -0.08445644 -0.08435353 -0.08423974 -0.08411744 -0.08398937 -0.08385889 -0.08372762 -0.08359681
 -0.08346984 -0.083348 -0.0832353 -0.08313373 -0.08304296 -0.08296445 -0.08288907 -0.08281656 -0.08273266 -0.08263626
 -0.08251951 -0.08238257 -0.08223327 -0.08207303 -0.08191758 -0.08176688 -0.08162966 -0.08150347 -0.08138594 -0.08127505
 -0.08116567 -0.08105714 -0.080947 -0.08083353 -0.08071443 -0.08058837 -0.08045283 -0.08031108 -0.08016346 -0.08001465
 -0.07986663 -0.07971961 -0.07957416 -0.07942842 -0.07928199 -0.07913624 -0.0789912 -0.07884945 -0.07871089 -0.07857233
 -0.07843278 -0.07828224 -0.07812047 -0.07793952 -0.07774327 -0.07753834 -0.07732935 -0.07713027 -0.0769387 -0.07675884
 -0.07658239 -0.07640264 -0.07621453 -0.07601087 -0.07579644 -0.07557026 -0.0753426 -0.07511649 -0.07489821 -0.07469063
 -0.07449003 -0.07429779 -0.074095 -0.07388066 -0.0736317 -0.07334767 -0.07302897 -0.0726774 -0.07230983 -0.0719253
 -0.07152873 -0.07111683 -0.07068145 -0.07022278 -0.06973543 -0.06922594 -0.06869926 -0.06816609 -0.06763809 -0.06712306
 -0.06663195 -0.06615955 -0.06570942 -0.06526235 -0.06481247 -0.06434959 -0.06386689 -0.06338511 -0.0629055 -0.06245074
 -0.06202338 -0.06161863 -0.06123608 -0.06086234 -0.06049807 -0.06014377 -0.05980069 -0.05947644 -0.05916839 -0.0588744
 -0.05858747 -0.05829246 -0.05798476 -0.05764911 -0.05729118 -0.05691019 -0.05651449 -0.05611049 -0.05569975 -0.05528461
 -0.05486466 -0.05443982 -0.05401186 -0.05358293 -0.05314359 -0.05269615 -0.05220076 -0.05165482 -0.05101907 -0.0502935
 -0.04951454 -0.04868729 -0.0478775 -0.04707947 -0.04630058 -0.04553192 -0.04474894 -0.04395098 -0.04312508 -0.04227349
 -0.04139813 -0.04048898 -0.03954381 -0.0385326 -0.03743508 -0.03622918 -0.03488516 -0.03345262 -0.0319281 -0.03041666
 -0.02894214 -0.02755807 -0.02627877 -0.02509063 -0.02399494 -0.02295199 -0.02195896 -0.02095143 -0.01992295 -0.01877949
 -0.01752948 -0.01614772 -0.01467943 -0.01325935 -0.01189747 -0.01069505 -0.009600828 -0.008581714 -0.007600555 -0.006601744
 -0.005587182 -0.004540932 -0.003474249 -0.002391392 -0.001289599 -0.0001646096 0.0009653223 0.002100713 0.003203418 0.004266067
 0.005286541 0.006263648 0.007211491 0.008129745 0.008988596 0.009784674 0.01047104 0.01105143 0.01151811 0.01188012
 0.01215972 0.01236624 0.01252876 0.01265444 0.0127677 0.01286591 0.01295424 0.01303159 0.0130952 0.01315657
 0.01322134 0.01329408 0.01338143 0.01346532 0.01354482 0.01359451 0.01361045 0.01357832 0.01349557 0.01337586
 0.01322034 0.01306715 0.01291646 0.0127856 0.01267042 0.01255838 0.01244796 0.01232535 0.01219728 0.01206843
 0.01195247 0.01187105 0.01183407 0.01185827 0.01195183 0.01212132 0.01238511 0.01275542 0.01323626 0.01383996
 0.01452423 0.01528329 0.01607673 0.01689428 0.01774859 0.01863902 0.01959597 0.02062057 0.02171844 0.02288811
 0.02411689 0.02540384 0.02673867 0.02812009 0.0295386 0.03099358 0.03247746 0.03399481 0.03554917 0.03714427
 0.03878763 0.04047356 0.04220214 0.04396212 0.04574871 0.0475522 0.04936888 0.05119117 0.05301787 0.05483872
 0.05665439 0.05843803 0.06018833 0.06186789 0.06347521 0.06500336 0.066455 0.06786079 0.06921462 0.07050698
 0.07171667 0.07276428 0.07364993 0.07432916 0.07482643 0.07516118 0.07534798 0.07540797 0.07535213 0.07519509
 0.07494089 0.07461216 0.07414145 0.07353591 0.07262222 0.07135224 0.06966537 0.06750655 0.06522835 0.06285717
 0.06064224 0.05859248 0.05656816 0.05456113 0.05243435 0.05020135 0.04786519 0.04543886 0.04298012 0.04046004
 0.03786248 0.03510991 0.0320485 0.02871235 0.02499405 0.02121367 0.01758851 0.01427764 0.01148545 0.008989574
 0.006756068 0.004607068 0.002476605 0.000382932 -0.001684949 -0.003648425 -0.005498175 -0.007241165 -0.008878206 -0.01048322
 -0.0120575 -0.01364396 -0.01523216 -0.01679046 -0.01830516 -0.01971011 -0.02100971 -0.02217557 -0.02323215 -0.02420267
 -0.02511181 -0.02599293 -0.0268651 -0.02774803 -0.02866627 -0.02964039 -0.03067156 -0.03178745 -0.0328742 -0.03391781
 -0.03478681 -0.03544327 -0.03595472 -0.03631995 -0.03666791 -0.03700465 -0.0373735 -0.03776971 -0.03815217 -0.0385165
 -0.03881371 -0.03905362 -0.03924468 -0.03939455 -0.03953094 -0.03963993 -0.03971498 -0.03973467 -0.03966792 -0.03951889
 -0.03927597 -0.03896372 -0.03859225 -0.03817686 -0.03772768 -0.03724024 -0.03671973 -0.03613515 -0.03548748 -0.0347111
 -0.03379989 -0.03270673 -0.03142995 -0.03006177 -0.02861381 -0.027257 -0.02598741 -0.02487148 -0.0238945 -0.0230395
 -0.02230216 -0.0216684 -0.02112941 -0.020676 -0.02027174 -0.01988319 -0.01945478 -0.01892601 -0.01829344 -0.01751861
 -0.01669446 -0.01584846 -0.01503452 -0.01428127 -0.01354896 -0.01283683 -0.0120982 -0.01132697 -0.01052085 -0.009679657
 -0.00883546 -0.007988798 -0.007158178 -0.006337592 -0.005505044 -0.00465006 -0.003723801 -0.002723711 -0.001613444 -0.0004119212
 0.0008679055 0.002206715 0.003572431 0.004972432 0.006402493 0.007870754 0.009387264 0.01093047 0.01249856 0.01405786
 0.01559829 0.0171089 0.0185855 0.02003544 0.021461 0.02284016 0.02417161 0.02536878 0.02642571 0.02724332
 0.02782242 0.02811836 0.02813377 0.0278561 0.02728204 0.02639523 0.02519887 0.02368214 0.02187389 0.0197913
 0.01749003 0.01501174 0.01241372 0.009738073 0.007010593 0.00425058 0.001460799 -0.001363209 -0.004175487 -0.006978661
 -0.009662546 -0.01221639 -0.01457097 -0.01672213 -0.0187055 -0.02052498 -0.02224313 -0.02385585 -0.02537168 -0.02678116
 -0.02805108 -0.02918598 -0.03017467 -0.0310383 -0.0318046 -0.03249371 -0.03313966 -0.03375084 -0.03434491 -0.03492219
 -0.03548671 -0.03603889 -0.0365795 -0.03710946 -0.03762963 -0.03813743 -0.03863299 -0.03911114 -0.03957178 -0.0400065
 -0.04041483 -0.04078017 -0.0411016 -0.04136184 -0.04156203 -0.04170014 -0.04177817 -0.04180327 -0.04177404 -0.04169046
 -0.04155119 -0.04135134 -0.04109789 -0.04079335 -0.04045435 -0.04009109 -0.03972686 -0.0393739 -0.03905743 -0.03878831
 -0.03858574 -0.03845672 -0.03840967 -0.03844746 -0.03857018 -0.03877911 -0.03905996 -0.03941206 -0.03980011 -0.04022173
 -0.04063638 -0.04104326 -0.04141724 -0.04175885 -0.04205687 -0.04231142 -0.04251648 -0.04267398 -0.04278355 -0.04284925
 -0.04287569 -0.04286532 -0.04282145 -0.04274544 -0.04263734 -0.04250365 -0.04234494 -0.04217399 -0.0419932 -0.041816
 -0.0416445 -0.04149009 -0.04135409 -0.04124394 -0.04116016 -0.04110233 -0.04106982 -0.0410537 -0.04105298 -0.04105699
 -0.04106566 -0.04107276 -0.04107961 -0.04108598 -0.04109403 -0.04110752 -0.04112707 -0.0411559 -0.04119083 -0.04123088
 -0.04127166 -0.04131007 -0.04134524 -0.04137596 -0.04140332 -0.04142773 -0.0414481 -0.04146465 -0.04147378 -0.04147515
 -0.04146616 -0.04144664 -0.04141593 -0.04137406 -0.04132121 -0.04125717 -0.04118091 -0.04109159 -0.04098569 -0.04086236
 -0.04071755 -0.04055152 -0.04036241 -0.04015217 -0.03992177 -0.03967461 -0.03941268 -0.03914177 -0.03886471 -0.03858849
 -0.03831617 -0.03805277 -0.03780038 -0.03756027 -0.03733321 -0.03711758 -0.03691347 -0.03671716 -0.03652843 -0.03634316
 -0.03616119 -0.03597945 -0.03579782 -0.03561396 -0.03542778 -0.03523689 -0.03504296 -0.03484753 -0.03465571 -0.03447616
 -0.03431476 -0.03418293 -0.03408075 -0.03401411 -0.03397461 -0.03396063 -0.03395986 -0.03396754 -0.03397439 -0.03397721
 -0.03397076 -0.03395381 -0.03392262 -0.03387653 -0.03381496 -0.03373772 -0.03365326 -0.03356235 -0.03347905 -0.03340345
 -0.03334364 -0.03329787 -0.03326343 -0.0332395 -0.03322165 -0.03321254 -0.03321443 -0.03323051 -0.03326697 -0.03332115
 -0.03339597 -0.03347849 -0.03356446 -0.033636 -0.03368388 -0.03370274 -0.03368581 -0.0336518 -0.03360098 -0.03356296
 -0.03354147 -0.03354961 -0.03358869 -0.03364515 -0.0337176 -0.03378138 -0.03383651 -0.03386998 -0.03388558 -0.03389062
 -0.03388931 -0.03389774 -0.03391347 -0.03394219 -0.03397326 -0.03399658 -0.03400217 -0.03397653 -0.03392002 -0.03382681
 -0.0337082 -0.03356598 -0.03341461 -0.03325865 -0.03310537 -0.03295828 -0.0328095 -0.03265937 -0.03249065 -0.03230217
 -0.03208738 -0.03184691 -0.03159241 -0.03132484 -0.03105733 -0.03078804 -0.03051655 -0.03024093 -0.0299545 -0.02966016
 -0.02935896 -0.02905655 -0.0287612 -0.02847402 -0.02820039 -0.02793437 -0.02767409 -0.02741437 -0.02715123 -0.02688831
 -0.02662517 -0.02636906 -0.02612187 -0.02588352 -0.02565453 -0.02542986 -0.0252092 -0.02499162 -0.024777 -0.02456384
 -0.02435081 -0.02412771 -0.02389337 -0.0236365 -0.02335929 -0.02306117 -0.0227458 -0.02241938 -0.02208458 -0.02174678
 -0.02140841 -0.02107367 -0.02074249 -0.02041741 -0.02009225 -0.01976515 -0.01943121 -0.01908723 -0.01873877 -0.01838578
 -0.0180373 -0.01769491 -0.01735784 -0.01702631 -0.01669125 -0.01635241 -0.01600438 -0.01564868 -0.0152924 -0.01493927
 -0.01460887 -0.01430225 -0.01403545 -0.0137995 -0.01358782 -0.01338619 -0.01317177 -0.01294236 -0.01268442 -0.01241215
 -0.0121297 -0.01185056 -0.01158329 -0.01132667 -0.0110836 -0.01084264 -0.01060223 -0.01035319 -0.01009366 -0.009825603
 -0.009548824 -0.009274706 -0.009003606 -0.008742185 -0.008489399 -0.008240556 -0.007994756 -0.007745179 -0.007493153 -0.007238357
 -0.006983315 -0.006731709 -0.006487414 -0.006255622 -0.006042508 -0.005854543 -0.005697827 -0.005577733 -0.005497834 -0.00546151
 -0.005467528 -0.005518815 -0.005600221 -0.00571229 -0.005823492 -0.005930774 -0.006006523 -0.006048409 -0.006050408 -0.00601254
 -0.005937835 -0.005825703 -0.005671946 -0.005477156 -0.005239201 -0.004964101 -0.004665383 -0.004352031 -0.004046282 -0.003755247
 -0.003496516 -0.003274855 -0.003100332 -0.002974944 -0.002902956 -0.002883494 -0.002917701 -0.003002074 -0.00313639 -0.003315104
 -0.003536936 -0.003799538 -0.00410189 -0.004450317 -0.004845343 -0.00528754 -0.005775717 -0.006283836 -0.006808411 -0.007309384
 -0.007787442 -0.00822337 -0.008621954 -0.00898795 -0.009321632 -0.009625852 -0.009899279 -0.0101377 -0.01035104 -0.01054265
 -0.01073377 -0.01093682 -0.01117164 -0.01144972 -0.01178102 -0.01217185 -0.01261993 -0.01312728 -0.01368052 -0.01427878
 -0.01490753 -0.01556575 -0.01624314 -0.01693885 -0.01763761 -0.01833725 -0.01901367 -0.01966524 -0.02027137 -0.02083345
 -0.0213437 -0.02180658 -0.02222553 -0.02260788 -0.02296431 -0.02330084 -0.02362821 -0.02394406 -0.02425094 -0.02454199
 -0.02481334 -0.02506663 -0.02530059 -0.02552263 -0.02573481 -0.02593649 -0.02612839 -0.02630307 -0.02646001 -0.02659538
 -0.02670908 -0.02679983 -0.02686783 -0.02691292 -0.02693675 -0.02694628 -0.0269432 -0.02693756 -0.02692595 -0.0269074
 -0.02687611 -0.0268218 -0.02674728 -0.0266481 -0.02653889 -0.02642632 -0.0263257 -0.02624685 -0.02619183 -0.02616569
 -0.02615467 -0.026158 -0.02615758 -0.02615078 -0.0261294 -0.02609251 -0.0260405 -0.02597336 -0.02589113 -0.02579428
 -0.02568566 -0.02556738 -0.02545099 -0.02533707 -0.02523509 -0.02514005 -0.02504729 -0.02495091 -0.02483966 -0.02471408
 -0.02456974 -0.02441158 -0.02424144 -0.02406339 -0.02387971 -0.02369256 -0.02350326 -0.0233117 -0.02311836 -0.02292074
 -0.02271855 -0.02251009 -0.02229509 -0.02207533 -0.02185117 -0.02163116 -0.02141712 -0.02122787 -0.02106527 -0.0209498
 -0.0208777 -0.02085102 -0.02085998 -0.020886 -0.02092312 -0.02095429 -0.02098102 -0.02099966 -0.02101002 -0.02101232
 -0.02100173 -0.02097535 -0.02093345 -0.02087471 -0.02080443 -0.02072418 -0.02063299 -0.02053145 -0.02041255 -0.02027569
 -0.02011858 -0.01994122 -0.01974658 -0.01953482 -0.01930802 -0.01906717 -0.01881665 -0.01855996 -0.01830929 -0.01806783
 -0.01784981 -0.01765069 -0.01747331 -0.01730347 -0.01712891 -0.01693859 -0.01671759 -0.01647513 -0.01620775 -0.01594101
 -0.01568257 -0.01544761 -0.01524332 -0.01505871 -0.01489447 -0.01472817 -0.01455789 -0.01437421 -0.01417717 -0.01397656
 -0.01377382 -0.01358607 -0.01341332 -0.0132655 -0.01313996 -0.01303486 -0.01294591 -0.01286438 -0.01278545 -0.01269953
 -0.01260156 -0.01248326 -0.01234204 -0.0121725 -0.01197854 -0.01175901 -0.01152406 -0.01127587 -0.01102509 -0.01077439
 -0.01052942 -0.01029174 -0.01005931 -0.009832206 -0.009605406 -0.009378867 -0.009155172 -0.008935399 -0.008731039 -0.008541991
 -0.008375175 -0.00822689 -0.008090477 -0.007960768 -0.007824265 -0.007677521 -0.007509841 -0.007320486 -0.007103491 -0.006864035
 -0.006601338 -0.006328656 -0.00605063 -0.005781453 -0.005527375 -0.005292528 -0.005080228 -0.004882334 -0.004698694 -0.004517781
 -0.004338573 -0.004155625 -0.003968794 -0.003780187 -0.003589689 -0.003397247 -0.003202007 -0.002998368 -0.002788411 -0.002573618
 -0.002360777 -0.002165895 -0.001990217 -0.001846874 -0.001721359 -0.001606197 -0.001482793 -0.001332766 -0.001157343 -0.0009478405
 -0.000727959 -0.0005031212 -0.0002926532 -0.0001044007 6.883606E-05 0.0002256894 0.0003871554 0.00055533 0.0007334756 0.0009214103
 0.001102767 0.001277784 0.001441355 0.001596908 0.00176051 0.001931373 0.002117698 0.002311686 0.00249989 0.002679187
 0.002837118 0.002979733 0.00310903 0.003229064 0.003343537 0.003453639 0.003558801 0.003667638 0.003782002 0.00391197
 0.004061854 0.004226016 0.004405173 0.004584825 0.004763511 0.00493822 0.005108992 0.005285269 0.005467294 0.005661543
 0.005866587 0.006078721 0.006296384 0.006512378 0.006727038 0.006938627 0.007145301 0.00734638 0.007532375 0.007693069
 0.00782296 0.007908923 0.00797086 0.008011031 0.008061334 0.008135728 0.008239301 0.008378185 0.008534366 0.008704761
 0.008889015 0.009086528 0.009307244 0.009551016 0.009793265 0.01003075 0.01021759 0.01035818 0.01044689 0.0104989
 0.01056008 0.0106394 0.01078295 0.01097982 0.01123784 0.01153265 0.01184122 0.01214909 0.01243462 0.01270718
 0.01296522 0.01322152 0.0134838 0.01374189 0.01399612 0.01422935 0.0144376 0.01462492 0.014791 0.01494661
 0.01509214 0.01522647 0.01535009 0.01546707 0.01557941 0.01570123 0.01583114 0.01597191 0.0161215 0.01627471
 0.01643577 0.016611 0.01679755 0.01700032 0.01719857 0.01737851 0.01752722 0.01762928 0.01770169 0.01774524
 0.01778246 0.01782042 0.01786159 0.01790807 0.01795192 0.01799273 0.01802239 0.01804055 0.01804532 0.01803894
 0.01804378 0.0180642 0.01813766 0.01826104 0.0184463 0.01868281 0.018953 0.01924934 0.01955347 0.0198602
 0.02015599 0.02044324 0.02071215 0.02099232 0.02129323 0.02164789 0.02208463 0.02254974 0.02304349 0.02347336
 0.02381649 0.02409824 0.02431674 0.02453703 0.02476188 0.02500194 0.0252546 0.025495 0.02572063 0.02590758
 0.0260521 0.02612939 0.02613702 0.02605262 0.02588874 0.02565122 0.02536166 0.02504571 0.02471588 0.02438837
 0.0240713 0.02377176 0.02349711 0.02325295 0.02303481 0.02284248 0.02267228 0.02252211 0.02240395 0.02231914
 0.02226942 0.02225469 0.02224996 0.02225441 0.02224989 0.0222389 0.02222782 0.02221537 0.02220289 0.02218263
 0.02213755 0.02206279 0.02194335 0.02177771 0.02155791 0.0212865 0.02095516 0.02059369 0.02020828 0.01984714
 0.01952861 0.01928121 0.01911561 0.01904158 0.01906442 0.01917016 0.01936191 0.01956177 0.0197656 0.01988431
 0.01992204 0.01989803 0.01982722 0.01980872 0.01983927 0.01996528 0.02016337 0.02040241 0.0206663 0.02091425
 0.02114483 0.02133802 0.02150711 0.02165167 0.02179763 0.02196326 0.02214584 0.02235864 0.0225467 0.0226991
 0.02277672 0.0227651 0.02270236 0.02258901 0.02248475 0.02239256 0.02231941 0.02226341 0.02220197 0.02213591
 0.02205831 0.02197259 0.0218851 0.02180227 0.02174011 0.02170721 0.02172968 0.02179646 0.02191455 0.02204376
 0.02215697 0.02222248 0.02220977 0.02213024 0.02197448 0.02178812 0.02157777 0.02139179 0.02124144 0.02113369
 0.02107337 0.02100976 0.02094031 0.02081959 0.02065091 0.02046264 0.02026349 0.0201213 0.02003393 0.0200328
 0.02010405 0.02023446 0.02040432 0.02057996 0.02073848 0.02083752 0.02087738 0.02083425 0.02075068 0.02064112
 0.02054427 0.02048404 0.02045025 0.02044644 0.02044945 0.02045475 0.02045958 0.02046428 0.02045277 0.02042419
 0.02034418 0.02021351 0.02003132 0.01980392 0.01956864 0.01932884 0.01911691 0.01893001 0.01877976 0.01865666
 0.01855301 0.01845432 0.01833707 0.01820552 0.01804758 0.0178966 0.01776861 0.01768183 0.0176535 0.01765874
 0.01769511 0.01773846 0.017782 0.01783309 0.01789204 0.01796149 0.0180416</values></Ydata></AB><ScSm><Ydata ylabel="Single channel"><values byteorder="INTEL" format="FLOAT32" numvalues="1814"> 0.07388364 0.07389179 0.0739755 0.07415372 0.07439035 0.07461567 0.07477283 0.07485255 0.074876 0.07485251
 0.07478894 0.0747392 0.07479227 0.07498324 0.07524009 0.07543489 0.07548671 0.075432 0.07540292 0.07549904
 0.07565052 0.07563784 0.07529624 0.07470576 0.07414208 0.07382387 0.07377459 0.07398047 0.07452778 0.07535241
 0.07595536 0.07575987 0.07484014 0.07395057 0.07368974 0.07392575 0.07415036 0.07406279 0.07366487 0.07314648
 0.07293075 0.0735564 0.07515047 0.07699746 0.07779696 0.07648141 0.0729773 0.0684496 0.06487288 0.06397149
 0.0660045 0.06941852 0.07201436 0.07270031 0.07201353 0.07101162 0.07013553 0.0693454 0.06885032 0.069143
 0.07031825 0.07161793 0.07182267 0.07029374 0.0677363 0.06569925 0.0651619 0.06592219 0.06743148 0.06939077
 0.07089859 0.06997248 0.06550574 0.05973271 0.05722405 0.06053537 0.06747755 0.0732614 0.07475851 0.07224289
 0.06798666 0.06438242 0.06305155 0.06440713 0.06757313 0.07111246 0.0739003 0.07517642 0.07435264 0.0715258
 0.06797784 0.06555139 0.06551708 0.0680786 0.07233177 0.07634559 0.07804127 0.07673156 0.07357711 0.07036012
 0.06831286 0.06812998 0.07014383 0.07397113 0.07849251 0.08250529 0.08521447 0.08630697 0.08601557 0.08497339
 0.08373123 0.08266813 0.0823321 0.08310075 0.08428641 0.08439948 0.0827748 0.08046295 0.07914545 0.07939342
 0.0802163 0.0802689 0.07921252 0.07747839 0.07492826 0.07084427 0.06556819 0.06092709 0.05840499 0.05801587
 0.05939113 0.06235591 0.06565662 0.06689539 0.06516012 0.06268738 0.0626412 0.06573857 0.06988715 0.07273453
 0.07384203 0.07451454 0.07612196 0.07869813 0.08076862 0.08046414 0.07737717 0.07360134 0.0722487 0.07439283
 0.07803704 0.08056933 0.08151438 0.08223272 0.08354531 0.08446253 0.08321711 0.07936261 0.0748996 0.07304217
 0.07541972 0.0804435 0.08445784 0.08444799 0.0800715 0.0737306 0.06869553 0.06684272 0.06815779 0.07198241
 0.07773539 0.08425623 0.08951178 0.09174052 0.09073918 0.08774915 0.08404002 0.07973973 0.07452086 0.069555
 0.06773292 0.07092503 0.07758828 0.084059 0.08781953 0.08874302 0.08766106 0.08480986 0.08007576 0.07450169
 0.07076944 0.0711102 0.07461506 0.07776223 0.07810757 0.07650626 0.07528505 0.07534346 0.07583338 0.07594889
 0.07607004 0.07711253 0.07922186 0.08143097 0.08259851 0.0824457 0.08160103 0.0808626 0.08047278 0.07994445
 0.07874995 0.07738496 0.07730673 0.07933904 0.08253725 0.08515903 0.08640904 0.08672214 0.08660343 0.08574987
 0.08350477 0.08011211 0.0772194 0.07665292 0.07864916 0.08171242 0.08416878 0.08536346 0.08549 0.08498441
 0.0842341 0.08345342 0.08274634 0.08237854 0.08271042 0.08368441 0.08470917 0.08525221 0.08527533 0.08497234
 0.0843923 0.08351021 0.08249322 0.08171192 0.0814767 0.08180527 0.08246091 0.08316563 0.08369932 0.08386755
 0.08357549 0.08296628 0.08232732 0.08182819 0.0814739 0.08129022 0.08137163 0.08170903 0.08211349 0.08237726
 0.08243731 0.08234763 0.08216192 0.08189356 0.08156005 0.08122947 0.08101512 0.08099937 0.08114013 0.08129522
 0.08138286 0.08146192 0.08159001 0.08167414 0.08156717 0.08127408 0.08096264 0.08078283 0.08074779 0.08077867
 0.08078842 0.0806973 0.08042888 0.07997806 0.07949692 0.07923478 0.07933745 0.07974094 0.08027209 0.08077592
 0.08113554 0.08128545 0.08126427 0.08118033 0.08108574 0.0809379 0.08070169 0.08044495 0.08031577 0.08042917
 0.08076327 0.08116904 0.08149284 0.08167291 0.0817294 0.08172898 0.0817665 0.0818955 0.08204978 0.08210408
 0.08203281 0.08194841 0.08196568 0.08207335 0.08215773 0.0821346 0.08204538 0.08201499 0.08211814 0.08231197
 0.08250672 0.08266686 0.08282225 0.0830003 0.08316528 0.08323203 0.08315603 0.08300226 0.08288904 0.08286723
 0.08290216 0.08296967 0.0831023 0.08331646 0.08354673 0.08369661 0.08374094 0.08374584 0.08378302 0.08384562
 0.08386694 0.08380921 0.08370811 0.08363205 0.08362262 0.08367734 0.08376516 0.08384437 0.08387831 0.08385211
 0.08378065 0.0836947 0.0836163 0.0835565 0.08354126 0.08361413 0.08378153 0.08396289 0.08403291 0.0839339
 0.08373516 0.08356827 0.08350495 0.08350483 0.0834783 0.08338434 0.08325602 0.08314683 0.08307751 0.08303471
 0.08299808 0.08296111 0.08294417 0.08299339 0.08314241 0.08335572 0.08352886 0.08357461 0.08350671 0.08341902
 0.08338989 0.08342789 0.08349785 0.08357006 0.08364679 0.08375745 0.08391839 0.08409098 0.08420668 0.08424652
 0.08426747 0.0843403 0.08449268 0.08471203 0.08495799 0.08516484 0.08528215 0.08533402 0.08540307 0.08554119
 0.08572447 0.08590451 0.08607036 0.08624274 0.08643465 0.08664519 0.08688243 0.08716839 0.08751474 0.08789913
 0.08826803 0.0885687 0.08879377 0.08900082 0.08927545 0.08966015 0.09011726 0.09056324 0.09093957 0.09125397
 0.09155678 0.09188148 0.09221895 0.09255564 0.09291527 0.09333444 0.09380686 0.09428341 0.09472786 0.09514697
 0.09556493 0.09599204 0.09642607 0.09687069 0.09734207 0.09785146 0.09837738 0.09886514 0.09927058 0.09960463
 0.09992634 0.1002971 0.1007417 0.1012298 0.1016838 0.1020336 0.1022919 0.1025537 0.1028956 0.1032944
 0.1036748 0.1040182 0.1043809 0.1048081 0.1052712 0.1057048 0.1060823 0.1064359 0.1068104 0.107207
 0.1075754 0.107864 0.1080785 0.1082785 0.1085159 0.1087971 0.1091187 0.1095036 0.1099665 0.1104625
 0.1109116 0.111269 0.111546 0.1117758 0.1119896 0.1122112 0.1124446 0.1126751 0.1128954 0.1131108
 0.1133109 0.1134729 0.1136106 0.1137835 0.1140333 0.1143453 0.114692 0.1150767 0.1155024 0.1159316
 0.116326 0.1167121 0.1171553 0.1176572 0.1181229 0.1184571 0.1186593 0.1187961 0.1189178 0.11905
 0.1192376 0.1195307 0.1199236 0.1203516 0.1207562 0.1211255 0.1214708 0.1217931 0.1220774 0.1223056
 0.1224712 0.1225902 0.1227037 0.1228652 0.123118 0.1234698 0.1238781 0.1242693 0.1245826 0.124791
 0.1248839 0.1248608 0.1247591 0.1246611 0.1246295 0.124634 0.1245655 0.1243259 0.1238899 0.1232852
 0.1225453 0.1216982 0.1207919 0.1199095 0.1191514 0.118598 0.1182942 0.1182673 0.1185438 0.1191214
 0.1199219 0.1207979 0.1215948 0.1221927 0.1224943 0.1224227 0.121968 0.1212168 0.1203065 0.1193566
 0.1184453 0.1176142 0.1168668 0.1161926 0.1156348 0.1153298 0.1154556 0.1161378 0.1173999 0.1191626
 0.121254 0.1234378 0.1254871 0.127272 0.1287869 0.1300961 0.1312657 0.1323465 0.1333831 0.134397
 0.1353627 0.1362356 0.1370074 0.1377101 0.1383662 0.1389611 0.1394629 0.1398506 0.1401273 0.1403233
 0.1404804 0.1406174 0.1407236 0.1407939 0.1408463 0.1408872 0.1408776 0.1407491 0.1404499 0.1399793
 0.1394077 0.1388892 0.1386491 0.1389237 0.1398624 0.1414449 0.1434795 0.1456899 0.1478219 0.1496977
 0.1512233 0.1523904 0.153269 0.153966 0.1545734 0.1551469 0.1557123 0.1562731 0.1568173 0.1573338
 0.1578248 0.1583048 0.1587926 0.1592977 0.159805 0.1602801 0.160705 0.1611071 0.1615404 0.1620322
 0.1625546 0.1630545 0.1635128 0.1639619 0.1644335 0.1649041 0.1653206 0.1656718 0.1660042 0.1663702
 0.1667873 0.1672451 0.1677163 0.1681587 0.1685359 0.1688489 0.1691361 0.1694393 0.1697766 0.1701419
 0.1705155 0.1708767 0.171218 0.1715542 0.1719125 0.172305 0.1727054 0.1730652 0.1733586 0.1736105
 0.1738716 0.1741697 0.174493 0.1748134 0.1751215 0.1754394 0.1758 0.1762063 0.1766156 0.1769709
 0.1772498 0.17748 0.1777092 0.1779698 0.1782683 0.178593 0.1789254 0.1792492 0.1795596 0.1798659
 0.1801811 0.1805083 0.180838 0.1811568 0.1814598 0.1817539 0.1820498 0.1823524 0.1826615 0.1829828
 0.1833285 0.1836981 0.184066 0.184399 0.184686 0.1849426 0.1851903 0.1854399 0.1856953 0.1859612
 0.1862414 0.1865341 0.1868331 0.1871346 0.1874394 0.1877482 0.1880583 0.1883644 0.1886639 0.1889592
 0.1892583 0.1895712 0.1899 0.1902317 0.1905462 0.1908344 0.1911067 0.1913824 0.1916716 0.1919675
 0.1922532 0.1925176 0.1927664 0.1930169 0.1932809 0.1935567 0.1938349 0.1941105 0.1943878 0.1946738
 0.1949683 0.1952633 0.1955522 0.1958359 0.1961178 0.1963974 0.1966735 0.1969477 0.1972241 0.1975058
 0.1977913 0.1980745 0.1983503 0.1986208 0.1988915 0.199165 0.1994412 0.1997198 0.1999975 0.2002692
 0.2005349 0.2008014 0.201074 0.2013532 0.2016372 0.2019236 0.2022096 0.2024933 0.2027733 0.2030491
 0.203324 0.2036042 0.2038904 0.2041752 0.2044525 0.204724 0.2049968 0.2052783 0.2055707 0.205865
 0.2061479 0.2064169 0.2066829 0.2069571 0.2072415 0.2075273 0.2077997 0.2080495 0.208283 0.2085146
 0.2087519 0.2089943 0.2092404 0.2094888 0.2097395 0.2099943 0.2102548 0.2105202 0.210793 0.2110756
 0.2113616 0.2116391 0.2119049 0.2121648 0.2124251 0.2126901 0.2129608 0.2132312 0.213496 0.2137599
 0.2140303 0.2143061 0.2145841 0.2148646 0.2151451 0.2154219 0.2156991 0.215982 0.2162683 0.2165535
 0.2168349 0.2171071 0.2173664 0.2176193 0.2178739 0.2181328 0.2183997 0.2186772 0.2189542 0.2192175
 0.2194727 0.2197342 0.2200041 0.220276 0.2205454 0.2208104 0.2210754 0.2213503 0.2216341 0.2219146
 0.2221888 0.2224633 0.2227363 0.2230019 0.2232603 0.2235094 0.2237466 0.2239858 0.224241 0.2244875
 0.2246528 0.2245887 0.2239542 0.222074 0.2179098 0.2102671 0.198274 0.1819309 0.162297 0.1411125
 0.1201597 0.100801 0.08384481 0.06965032 0.05830526 0.04973698 0.0437773 0.04027824 0.03923868 0.0409351
 0.04605994 0.05530582 0.06781648 0.07982893 0.08614875 0.08425178 0.07669627 0.06879148 0.0641942 0.06315418
 0.06410123 0.06569624 0.06751719 0.06981556 0.07301825 0.07724249 0.08227426 0.08809083 0.09511981 0.1036876
 0.1133516 0.1230826 0.1321506 0.1406939 0.1493753 0.1585787 0.1680073 0.1769765 0.1849581 0.1918465
 0.1978589 0.2032948 0.2083653 0.2131694 0.2177523 0.2221058 0.2260736 0.229315 0.231467 0.2324173
 0.2324387 0.2320428 0.2316803 0.2315557 0.2316765 0.2319946 0.2324787 0.2331114 0.2338782 0.2347585
 0.2357156 0.2367071 0.2377037 0.2386835 0.239621 0.240493 0.2412904 0.242015 0.2426741 0.2432767
 0.243827 0.2443239 0.2447764 0.2452057 0.2456296 0.2460502 0.246458 0.2468396 0.2471826 0.247485
 0.2477573 0.2480145 0.2482674 0.2485179 0.2487615 0.2489945 0.2492238 0.2494623 0.2497142 0.2499711
 0.2502216 0.2504571 0.2506742 0.250879 0.2510852 0.2513013 0.2515236 0.2517453 0.2519656 0.2521884
 0.2524169 0.2526512 0.252886 0.2531143 0.2533339 0.2535487 0.2537637 0.2539826 0.2542046 0.2544238
 0.2546391 0.254865 0.2551161 0.2553846 0.2556466 0.2558919 0.2561305 0.2563753 0.2566327 0.2569008
 0.2571629 0.2573928 0.2575782 0.2577382 0.2579126 0.2581322 0.2583926 0.2586598 0.2589035 0.2591228
 0.259334 0.2595491 0.2597699 0.25999 0.260203 0.2604212 0.2606745 0.2609711 0.2612817 0.2615774
 0.2618554 0.2621199 0.2623733 0.2626287 0.2628895 0.26312 0.2632801 0.2633951 0.2635605 0.2638624
 0.264292 0.2647427 0.2651058 0.2653689 0.2656019 0.2658709 0.266193 0.2665262 0.2667561 0.2667713
 0.2666332 0.2666037 0.2669101 0.2675221 0.2682149 0.2687979 0.2692297 0.269564 0.2698532 0.2700952
 0.2702417 0.2702592 0.2702063 0.270251 0.2705569 0.2711155 0.2717381 0.2722452 0.2726042 0.2728628
 0.2730607 0.273231 0.2733436 0.273227 0.2727508 0.2721585 0.2720094 0.2726345 0.2737618 0.2748066
 0.2754493 0.2758015 0.2760827 0.2763522 0.2765656 0.276619 0.2762212 0.2750637 0.2734195 0.2723024
 0.2726241 0.2742757 0.2763072 0.27788 0.2787922 0.2792577 0.2795367 0.2797623 0.2798401 0.2794605
 0.2784438 0.2771965 0.2766105 0.2772452 0.2786999 0.2800422 0.2807586 0.2810259 0.2812161 0.2814786
 0.281642 0.281158 0.2794098 0.2766191 0.274312 0.2742473 0.2766923 0.2800996 0.2826452 0.2838044
 0.2842041 0.2842664 0.2835889 0.281665 0.2786391 0.2752382 0.2725404 0.2718286 0.2737414 0.2772142
 0.2800888 0.2812462 0.2815472 0.2824038 0.2840854 0.2857423 0.2865096 0.286177 0.2850212 0.2833179
 0.2812181 0.279209 0.278381 0.2796471 0.2826338 0.2858202 0.2879445 0.2889579 0.2893617 0.2887323
 0.2854259 0.2785595 0.2704862 0.2661397 0.2686744 0.2761637 0.2836696 0.2880955 0.2898723 0.2906408
 0.2910594 0.290625 0.2879553 0.2815389 0.2721162 0.2641818 0.2629363 0.2691304 0.2782125 0.2845847
 0.285423 0.2809626 0.2734754 0.2665899 0.2638115 0.2663959 0.2728065 0.2802334 0.286278 0.2895962
 0.2898747 0.2877101 0.284569 0.282425 0.2823263 0.2828411 0.2811475 0.2765995 0.2718114 0.2688253
 0.2659552 0.260904 0.2557993 0.2557813 0.2623214 0.2707655 0.2755634 0.275888 0.2746373 0.2731519
 0.2689258 0.259224 0.2462707 0.2373317 0.2383492 0.247773 0.2579488 0.2626038 0.261815 0.2597617
 0.2591606 0.2585331 0.2543523 0.2456823 0.2365135 0.2324152 0.2346153 0.2388975 0.2405812 0.238256
 0.2321469 0.2226026 0.2127533 0.2094562 0.2174904 0.2336793 0.2493874 0.2576273 0.2555974 0.2431099
 0.2235477 0.2058807 0.2002964 0.2090793 0.223836 0.2332262 0.2319632 0.2217302 0.2063061 0.1889884
 0.1741024 0.1674576 0.1728548 0.1882272 0.2057628 0.2158131 0.2122076 0.1970216 0.1809449 0.1755897
 0.1829525 0.1940648 0.1990513 0.1960894 0.1899876 0.1859535 0.1865696 0.1914193 0.1975551 0.2022432
 0.2051427 0.2052465 0.1979299 0.1805461 0.1598924 0.1477374 0.1485745 0.1573128 0.168732 0.1821408
 0.1952415 0.2009346 0.1953376 0.1851771 0.1820743 0.1902123 0.2027494 0.210176 0.2097143 0.2058147
 0.2032475 0.201999 0.1996689 0.1970036 0.1981065 0.2047758 0.2133796 0.2189193 0.2202431 0.2196037
 0.2188366 0.2179787 0.2165648 0.2144475 0.2116994 0.2087326 0.2061862 0.2042147 0.202363 0.2002867
 0.1977304 0.1934917 0.1857131 0.1745557 0.163854 0.1581133 0.1577815 0.1595398 0.1612218 0.1630836
 0.163212 0.1562371 0.1404389 0.1235607 0.1171805 0.1255481 0.1424303 0.1581663 0.1669701 0.1673922
 0.15953 0.1455002 0.1320735 0.1285243 0.1390051 0.1585404 0.1783833 0.1935604 0.203373 0.2072124
 0.2038186 0.1944944 0.184334 0.1793222 0.1827128 0.1935675 0.2070196 0.215481 0.2123488 0.1986099
 0.1858482 0.1877079 0.205519 0.2260247 0.2362771 0.2367695 0.2361617 0.237823 0.2381737 0.236162
 0.23704 0.2451392 0.2574713 0.2666718 0.2674627 0.2587172 0.2427393 0.2257634 0.2163451 0.2185291
 0.2272868 0.2340146 0.2348845 0.2303518 0.2200496 0.2048606 0.192289 0.1919534 0.2044119 0.2198692
 0.2293099 0.2326986 0.234919 0.23738 0.2363683 0.2287426 0.2171855 0.2085326 0.2069945 0.2104711
 0.2140982 0.2153914 0.2142906 0.2102592 0.2026285 0.1937367 0.1889476 0.1920357 0.2013506 0.2114199
 0.217877 0.2202031 0.2204063 0.2203873 0.2206056 0.2202667 0.218735 0.2173709 0.2192477 0.2257893
 0.234397 0.2410768 0.2450132 0.2488365 0.2545066 0.2605996 0.2640326 0.2634415 0.2605091 0.2585448
 0.2598674 0.2639685 0.2678738 0.2686731 0.2662892 0.2638008 0.2645969 0.2691315 0.2748448 0.2790598
 0.2811686 0.2821034 0.2827763 0.283322 0.2830464 0.280993 0.277379 0.2744475 0.2748794 0.2790929
 0.2847909 0.2892768 0.2915931 0.2923631 0.292334 0.2915961 0.2899998 0.2878587 0.285981 0.2850465
 0.2851282 0.2858476 0.2867909 0.2876876 0.2883897 0.2888684 0.289187 0.2894087 0.2895653 0.2897043
 0.2898616 0.2899793 0.2899607 0.2898441 0.2898228 0.290026 0.2903491 0.2905615 0.2905146 0.290153
 0.2893958 0.2881595 0.2865014 0.2846076 0.2825927 0.2804315 0.2782055 0.2763669 0.2756051 0.2763344
 0.2783063 0.2807587 0.2829328 0.2844448 0.2852777 0.2855937 0.2856058 0.2855123 0.2854258 0.2853383
 0.2851769 0.284898 0.2845189 0.2840758 0.2835888 0.2830815 0.2826043 0.2822049 0.281879 0.2815731
 0.2812318 0.2808333 0.2803872 0.279909 0.2793914 0.2787964 0.2780828 0.2772437 0.2763129 0.2753424
 0.2743837 0.2734797 0.2726474 0.2718574 0.2710447 0.2701459 0.2691146 0.2679134 0.266544 0.2651052
 0.2637678 0.2626392 0.2616748 0.2607427 0.2597381 0.2586145 0.257358 0.255985 0.2545451 0.2530861
 0.2516194 0.2501269 0.2485885 0.2469885 0.2453089 0.2435361 0.2416745 0.2397482 0.2377856 0.235799
 0.2337677 0.2316209 0.2292374 0.2264762 0.2232166 0.2193786 0.2149371 0.2099532 0.2045955 0.1991048
 0.1937151 0.188594 0.1838476 0.1795675 0.1758579 0.1728092 0.1704622 0.1688211 0.1678912 0.1676834
 0.1681927 0.1693854 0.1711963 0.1735172 0.1761956 0.1790533 0.1819082 0.1845985 0.187029 0.1892127
 0.1912455 0.1932151 0.1951272 0.1969243 0.1985606 0.2000308 0.2013289 0.2024213 0.2032833 0.2039337
 0.2044112 0.2047409 0.2049423 0.2050508 0.205112 0.2051639 0.2052348 0.2053528 0.2055507 0.205855
 0.2062739 0.206805 0.2074534 0.2082215 0.2090841 0.209991 0.2108946 0.2117614 0.2125758 0.2133563
 0.2141595 0.2150537 0.2160992 0.2173518 0.2188529 0.2206041 0.2225618 0.2246506 0.2267693 0.2287976
 0.2306182 0.2321478 0.2333572 0.2342704 0.2349306 0.2353643 0.2355853 0.2356209 0.2355082 0.2352725
 0.2349273 0.2344857 0.2339582 0.2333518 0.2326773 0.2319434 0.2311502 0.2303086 0.2294578 0.2286411
 0.2278707 0.22713 0.2264021 0.2256869 0.2249923 0.2243163 0.2236438 0.2229637 0.2222759 0.2215763
 0.2208491 0.2200786 0.2192494 0.2183324 0.2172957 0.2161307 0.2148526 0.2134773 0.2120141 0.2104743
 0.2088781 0.2072526 0.2056179 0.2039688 0.2022772 0.200511 0.1986364 0.196621 0.194472 0.1922655
 0.1901051 0.1880532 0.1861213 0.1842996 0.1825694 0.1809084 0.1793116 0.1777938 0.1763613 0.1749998
 0.1736922 0.1724335 0.1712287 0.170087 0.1690191 0.168039 0.1671645 0.166405 0.1657453 0.1651561
 0.1646209 0.1641438 0.1637407 0.1634364 0.1632509 0.1631636 0.1631016 0.1629838 0.1627744 0.1624928
 0.1621881 0.1619048 0.1616627 0.1614567 0.1612678 0.1610602 0.1607723 0.1603189 0.1596081 0.1585685
 0.1571835 0.1555032 0.1536153 0.1516191 0.1496326 0.1477889 0.1461938 0.1448936 0.1438829 0.1431168
 0.1425209 0.1420249 0.1416068 0.141304 0.1411789 0.1412449 0.1414002 0.141477 0.141403 0.1412901
 0.1413277 0.1416181 0.142132 0.1427651 0.1434023 0.1439591 0.1443918 0.144678 0.1448124 0.1448208
 0.1447407 0.1445878 0.1443618 0.1440695 0.1437185 0.1433141 0.1428694 0.1423851 0.1418316 0.1411839
 0.1404508 0.1396448 0.138762 0.137795 0.1367162 0.1354822 0.1341406 0.132912 0.1320921 0.1318665
 0.1322149 0.132941 0.133808 0.1346889 0.1355364 0.1361935 0.1364239 0.1362858 0.1363348 0.1372216
 0.1390657 0.1413311 0.1433095 0.1446196 0.1452416 0.1452615 0.1447419 0.1437432 0.1422929 0.140362
 0.1379699 0.1352408 0.1323109 0.1293055 0.1264171 0.1238483 0.1216821 0.1199044 0.1184845 0.117457
 0.1169579 0.116639 0.1147017 0.1088426 0.09980466 0.09297474 0.09387171 0.1019462 0.1109505 0.1155496
 0.1155829 0.1138798 0.1123995 0.1114577 0.1109834 0.1111187 0.1119554 0.1133108 0.1147806 0.1159735
 0.1167439 0.1171336 0.1170888 0.1162615 0.1139721 0.1094327 0.1023854 0.09367649 0.08496996 0.07777399
 0.07277183 0.06984725 0.06840351 0.0677046 0.06724168 0.06696565 0.06717877 0.06818772 0.07004704 0.0725928
 0.0756147 0.07886896 0.08198366 0.08458763 0.08659533 0.08819257 0.08950603 0.09045138 0.09091564 0.09091942
 0.09057344 0.08999785 0.08930496 0.08856885 0.08776677 0.08679516 0.08562156 0.08443498 0.08355576 0.08314371
 0.08307374 0.08312529 0.08317816 0.08319981 0.08318182 0.08314115 0.08310992 0.08312523 0.08325736 0.08357086
 0.08401741 0.08444795 0.0847523 0.08492884 0.08502871 0.08505391 0.08488213 0.0843643 0.08359284 0.08292058
 0.08251399 0.08205162 0.08113926 0.07991283 0.07895661 0.07867177 0.07892896 0.07930018 0.07944973 0.07930651
 0.07903695 0.07894281 0.07926075 0.07989793</values></Ydata></ScSm><ScRf><Ydata ylabel="Single channel"><values byteorder="INTEL" format="FLOAT32" numvalues="1820"> 0.0606177 0.06077893 0.06088549 0.06093324 0.06094214 0.06095412 0.06101499 0.06114581 0.06132659 0.06150587
 0.06163534 0.06170288 0.06172393 0.06170523 0.06164863 0.06159476 0.0616194 0.061759 0.06195891 0.06211193
 0.06214686 0.06209148 0.06205555 0.06212364 0.06224056 0.06222674 0.06194589 0.06146092 0.06099367 0.06072101
 0.06066568 0.06082424 0.06127206 0.06195294 0.06244937 0.06228291 0.06151475 0.06076677 0.06053205 0.06070492
 0.06087481 0.06080124 0.06048258 0.06006251 0.0598807 0.06038506 0.06168985 0.06320846 0.06386489 0.06277527
 0.05987815 0.05613369 0.05316997 0.05241208 0.05407908 0.05689149 0.05903048 0.05958991 0.05901511 0.05818684
 0.05747135 0.05682572 0.05641042 0.05663317 0.05758681 0.05865735 0.05883398 0.05757527 0.05545639 0.05376261
 0.05331183 0.05393765 0.05518045 0.05679045 0.05802812 0.05726143 0.05357307 0.04879928 0.04671291 0.04943599
 0.05517356 0.05996802 0.06121894 0.0591407 0.05561436 0.05262644 0.05151707 0.05262032 0.05521075 0.05810861
 0.06039285 0.06143795 0.06075744 0.05843 0.05551031 0.05351378 0.05348622 0.05559754 0.05910505 0.06241698
 0.0638169 0.06273416 0.06012256 0.0574519 0.05574208 0.05557093 0.05721761 0.06036991 0.06410463 0.06742428
 0.0696648 0.07056158 0.07030722 0.06943402 0.06840961 0.06754878 0.06729029 0.06793213 0.06890817 0.06899872
 0.0676568 0.06574312 0.06464347 0.06483656 0.06551196 0.06555723 0.06468539 0.06325078 0.06114481 0.0577781
 0.05342799 0.04959654 0.04750773 0.04717649 0.04830661 0.05076601 0.05352564 0.05459232 0.05318681 0.05113978
 0.05106974 0.05358782 0.05698321 0.05931984 0.06023063 0.06078362 0.06210637 0.06423324 0.06595448 0.06572417
 0.06319395 0.06008438 0.0589692 0.06074353 0.06375994 0.06585726 0.06664477 0.06725587 0.06837478 0.06917932
 0.06820124 0.06506888 0.06143398 0.0599442 0.06193648 0.0661018 0.06943515 0.06945367 0.06586727 0.06065304
 0.05651712 0.05502004 0.05615773 0.059392 0.06424588 0.06975757 0.07423646 0.07620789 0.07548023 0.07306906
 0.07003891 0.06651682 0.06223544 0.05816529 0.05672555 0.05949946 0.06520694 0.07076924 0.07405654 0.07495085
 0.07414646 0.07183425 0.06790867 0.06325723 0.0601806 0.06060176 0.0637471 0.06658609 0.06700431 0.06573148
 0.06478022 0.06493822 0.06547584 0.06569599 0.0659377 0.06700833 0.06903143 0.07114297 0.07232197 0.07231306
 0.07167716 0.07114038 0.07093264 0.07061677 0.06971017 0.06865007 0.06874004 0.0707178 0.07373777 0.07623979
 0.07751232 0.07795006 0.07801042 0.07741186 0.07554132 0.07260729 0.07011561 0.06975304 0.07175308 0.07474706
 0.07718699 0.07846022 0.07874516 0.07845087 0.07794034 0.07741234 0.07695849 0.07681503 0.07730747 0.07838215
 0.07949738 0.08016755 0.08036075 0.08024904 0.07986365 0.07918034 0.07837496 0.07781303 0.07778278 0.07828344
 0.0790809 0.07991515 0.08058497 0.08090507 0.08077513 0.08032694 0.07984872 0.07952207 0.07935369 0.07935446
 0.07960588 0.08009948 0.0806514 0.0810532 0.08123855 0.08126406 0.08119386 0.081051 0.08085327 0.08066359
 0.08059358 0.08072348 0.08100125 0.0812768 0.08147753 0.08168115 0.08195193 0.08218482 0.08221427 0.08203442
 0.0818155 0.08171917 0.08177005 0.08189449 0.08200586 0.08202052 0.08185264 0.08148773 0.08107801 0.0808838
 0.08106612 0.0815725 0.0822292 0.08286455 0.08333848 0.08357419 0.0836176 0.08359048 0.08355076 0.08345371
 0.08326288 0.08305092 0.08297372 0.083151 0.0835584 0.08403711 0.08442044 0.08463926 0.08472003 0.08474729
 0.08483056 0.08501934 0.08522539 0.08530425 0.08523618 0.08515886 0.08520088 0.0853368 0.08543195 0.08540294
 0.08531184 0.08530007 0.08543897 0.08566643 0.08587357 0.08602573 0.08617815 0.08638184 0.08658975 0.08667654
 0.08657302 0.08636199 0.08619586 0.08613521 0.08613273 0.08616391 0.08628125 0.08650875 0.08675605 0.08689617
 0.08690422 0.08687496 0.08690423 0.08698171 0.08701266 0.08692791 0.08675302 0.08657835 0.08648473 0.08649714
 0.08658147 0.08666786 0.08668979 0.08662418 0.08650248 0.08637848 0.08628623 0.08624017 0.08627017 0.08641819
 0.0866686 0.08689943 0.08695202 0.08677457 0.08648407 0.0862654 0.08620448 0.08622521 0.08618513 0.08601633
 0.08576705 0.08552806 0.08534804 0.08521855 0.08511114 0.08501334 0.08494525 0.08495416 0.08507036 0.08524245
 0.08533768 0.08524937 0.08500363 0.08473171 0.08454512 0.08446522 0.08445174 0.0844555 0.08445466 0.08447196
 0.08453982 0.08462918 0.0846523 0.08456571 0.08443312 0.08436318 0.08442027 0.08460052 0.08483687 0.08501381
 0.08504017 0.08493939 0.08483188 0.08481202 0.08487374 0.08495982 0.08504082 0.08512497 0.08522148 0.08532813
 0.08545104 0.08561328 0.08583182 0.08608884 0.08633211 0.08651046 0.08661781 0.08670788 0.08685882 0.08711135
 0.08743457 0.08775256 0.08800801 0.08820382 0.08838338 0.08857353 0.08876288 0.0889443 0.08915284 0.08942978
 0.08976197 0.09009199 0.09038489 0.09065509 0.09093045 0.09121871 0.09151527 0.09182819 0.09218507 0.09260467
 0.09305118 0.0934325 0.0936736 0.09379408 0.09389857 0.0940958 0.09442607 0.09483405 0.09519409 0.095403
 0.09548397 0.09557156 0.09576426 0.09602514 0.09626524 0.09648747 0.09678569 0.09720744 0.09767292 0.09804863
 0.09827557 0.09841091 0.09855537 0.09875012 0.09894694 0.09908061 0.09915711 0.09924425 0.09938325 0.09955675
 0.09975743 0.1000318 0.1004137 0.1008499 0.1012397 0.1015288 0.1017306 0.1018781 0.1019917 0.1020765
 0.102127 0.1021459 0.1021695 0.1022422 0.1023542 0.1024418 0.1024704 0.102483 0.1025472 0.1026889
 0.1029008 0.103178 0.1035031 0.1038239 0.1040972 0.1043547 0.104671 0.1050481 0.1053769 0.1055528
 0.1055941 0.1056002 0.1056264 0.1056642 0.1057265 0.1058719 0.1061303 0.1064604 0.1068026 0.1071384
 0.10748 0.1078251 0.108139 0.1083708 0.1084842 0.108488 0.1084433 0.1084386 0.1085461 0.1087846
 0.1091104 0.1094465 0.1097305 0.1099307 0.1100263 0.1100106 0.1099324 0.1099031 0.1100106 0.1102211
 0.1103916 0.110389 0.1101766 0.1097906 0.1092718 0.108649 0.107971 0.1073185 0.1067721 0.1063761
 0.1061451 0.1061034 0.1062972 0.1067458 0.1073837 0.1080803 0.1087206 0.1092366 0.1095579 0.1095903
 0.1092848 0.1087048 0.1079886 0.1072608 0.1065897 0.1059891 0.1054261 0.104862 0.1043347 0.1039956
 0.1040367 0.1045758 0.1056036 0.1069952 0.1085439 0.1100199 0.1112614 0.112239 0.1130314 0.1137345
 0.1144008 0.1150532 0.1157148 0.1163892 0.1170323 0.1175853 0.1180415 0.1184512 0.1188576 0.1192549
 0.1196078 0.1198903 0.1201076 0.1202972 0.1204938 0.120678 0.1207828 0.1207699 0.1206767 0.1205655
 0.1204497 0.1202883 0.120033 0.1196667 0.1192276 0.1188313 0.1186583 0.1188792 0.1195547 0.1205969
 0.1218355 0.1231256 0.1243837 0.1255373 0.126492 0.127183 0.1276372 0.1279514 0.1282184 0.1284895
 0.1287828 0.1290958 0.1294104 0.129707 0.1299814 0.1302496 0.1305387 0.1308647 0.131209 0.1315266
 0.1317898 0.1320246 0.1322946 0.1326395 0.1330321 0.1334036 0.1337194 0.1340137 0.1343301 0.13465
 0.1349135 0.135104 0.1352724 0.1354822 0.1357611 0.1360998 0.1364579 0.1367738 0.1370066 0.1371762
 0.1373418 0.1375423 0.1377751 0.1380223 0.1382745 0.1385277 0.1387789 0.1390353 0.1393155 0.1396261
 0.1399351 0.1401868 0.1403571 0.1404839 0.1406312 0.140828 0.1410533 0.1412721 0.1414778 0.1416987
 0.1419684 0.1422842 0.1425963 0.1428449 0.1430091 0.1431211 0.1432353 0.1433902 0.1435905 0.1438158
 0.1440412 0.1442516 0.1444463 0.1446364 0.1448361 0.1450517 0.1452771 0.1455005 0.1457143 0.1459186
 0.1461187 0.1463215 0.1465348 0.1467704 0.1470401 0.1473387 0.147633 0.1478806 0.1480646 0.1482014
 0.1483196 0.1484423 0.148585 0.1487554 0.1489506 0.1491589 0.1493692 0.1495761 0.1497797 0.1499826
 0.1501874 0.150395 0.1506056 0.1508197 0.1510384 0.1512638 0.1514956 0.1517255 0.1519405 0.1521336
 0.1523116 0.1524895 0.1526791 0.1528803 0.1530826 0.1532771 0.1534669 0.1536623 0.1538683 0.1540791
 0.1542854 0.154481 0.1546656 0.1548435 0.155021 0.1552043 0.1553961 0.1555942 0.1557948 0.1559978
 0.1562031 0.1564032 0.1565875 0.1567585 0.1569341 0.1571271 0.1573337 0.1575427 0.1577505 0.1579601
 0.1581731 0.1583856 0.1585913 0.158786 0.1589705 0.1591493 0.1593309 0.1595257 0.1597368 0.1599531
 0.1601599 0.1603542 0.160545 0.1607413 0.1609467 0.1611598 0.1613751 0.1615888 0.1618047 0.1620269
 0.1622495 0.1624636 0.1626709 0.1628815 0.1631005 0.1633232 0.1635407 0.1637483 0.1639488 0.1641472
 0.1643433 0.1645342 0.1647193 0.1648981 0.1650669 0.1652258 0.165384 0.1655511 0.165731 0.1659232
 0.1661244 0.1663305 0.1665406 0.1667551 0.1669696 0.1671775 0.1673772 0.1675715 0.1677629 0.1679553
 0.1681522 0.1683518 0.1685518 0.168757 0.1689738 0.1692005 0.1694288 0.1696497 0.1698583 0.1700575
 0.1702557 0.1704561 0.1706558 0.1708579 0.1710687 0.1712833 0.1714913 0.1716934 0.1718984 0.1721113
 0.1723338 0.1725639 0.172791 0.173005 0.1732086 0.1734092 0.1736065 0.1737991 0.1739908 0.1741873
 0.1743971 0.174628 0.1748728 0.1751103 0.1753298 0.1755391 0.1757473 0.175958 0.176174 0.1763914
 0.1766004 0.1767993 0.1769928 0.177173 0.1773021 0.1772691 0.176792 0.1753197 0.1720242 0.165963
 0.1564512 0.1434911 0.1279229 0.1111265 0.09451434 0.07916552 0.06572293 0.05447663 0.04549883 0.03872751
 0.03402071 0.03125381 0.03042386 0.03175377 0.03579825 0.04310966 0.05301236 0.06253099 0.0675542 0.06607567
 0.06010879 0.05385346 0.05021219 0.04939239 0.050156 0.05144218 0.05291075 0.05475178 0.05729636 0.06063649
 0.06460879 0.0692054 0.07477251 0.08156873 0.08923964 0.09696914 0.1041825 0.1109906 0.1179135 0.1252463
 0.1327505 0.1398917 0.1462614 0.1517737 0.1565889 0.1609402 0.1650013 0.1688528 0.1725222 0.1759955
 0.1791526 0.1817346 0.1834638 0.1842555 0.1843233 0.1840617 0.1838137 0.183735 0.1838385 0.1840998
 0.1845014 0.1850276 0.1856633 0.1863923 0.1871858 0.1880062 0.1888247 0.1896224 0.1903815 0.1910874
 0.1917346 0.1923255 0.1928673 0.1933682 0.1938304 0.194252 0.1946403 0.1950111 0.1953752 0.1957344
 0.1960856 0.1964198 0.1967223 0.1969872 0.1972251 0.1974507 0.1976708 0.197886 0.1980948 0.1982958
 0.1984901 0.1986837 0.1988837 0.1990938 0.199313 0.1995337 0.1997472 0.1999532 0.200158 0.2003623
 0.2005607 0.200754 0.2009503 0.201154 0.2013604 0.2015616 0.2017507 0.2019243 0.2020891 0.2022612
 0.2024542 0.202668 0.2028882 0.2030963 0.2032859 0.2034687 0.2036589 0.2038572 0.2040583 0.2042669
 0.2044892 0.2047199 0.20495 0.2051777 0.2053964 0.2055882 0.2057443 0.2058863 0.2060524 0.2062622
 0.2065002 0.206733 0.2069419 0.2071356 0.2073298 0.2075274 0.2077198 0.2078999 0.208071 0.208251
 0.20846 0.208696 0.2089365 0.2091722 0.209416 0.209673 0.2099316 0.2101848 0.2104292 0.21064
 0.2107872 0.210888 0.2110201 0.2112629 0.2116205 0.2120084 0.2123298 0.2125635 0.2127645 0.212994
 0.2132722 0.213562 0.2137664 0.2137994 0.2137192 0.2137381 0.2140284 0.2145519 0.2151238 0.215601
 0.2159625 0.2162544 0.2165119 0.2167272 0.2168597 0.2168836 0.2168497 0.2168997 0.2171711 0.2176562
 0.2181953 0.218637 0.2189535 0.2191855 0.2193652 0.2195183 0.2196235 0.2195474 0.2191852 0.2187304
 0.2186326 0.2191579 0.2200853 0.2209445 0.221485 0.2218041 0.2220798 0.2223517 0.2225722 0.2226499
 0.2223508 0.2214332 0.220127 0.219262 0.2195813 0.2209901 0.2227043 0.2240347 0.2248166 0.2252252
 0.2254768 0.2256902 0.2257971 0.225543 0.2247728 0.2238145 0.223394 0.2239616 0.2251839 0.2263045
 0.2269185 0.2271811 0.2273938 0.2276694 0.2278609 0.2275194 0.2261436 0.22392 0.2221003 0.2221209
 0.2241967 0.2270613 0.2292182 0.2302271 0.2305958 0.2306817 0.2301699 0.2286471 0.2262257 0.2234983
 0.2213497 0.2208315 0.222467 0.225382 0.2278026 0.2288083 0.2291072 0.2298615 0.2312992 0.2327301
 0.2334433 0.2332527 0.2323735 0.2310335 0.2293652 0.2277744 0.2271602 0.2282769 0.2308202 0.2335367
 0.2353811 0.236306 0.2367207 0.236278 0.2336289 0.2280486 0.2214734 0.2179635 0.2201198 0.2263634
 0.2326329 0.2363781 0.2379528 0.2387034 0.2391599 0.2388963 0.2367766 0.2315665 0.223879 0.2174172
 0.2164746 0.2216819 0.2292905 0.2346786 0.235505 0.2319472 0.2258655 0.2202558 0.2180331 0.2202651
 0.2257008 0.2320072 0.2371705 0.2400571 0.2404087 0.2387289 0.2362398 0.2345873 0.234649 0.2352313
 0.2339762 0.2303402 0.2264999 0.2241556 0.2218995 0.2178209 0.2137112 0.2138785 0.2195493 0.2268125
 0.231014 0.2314745 0.230638 0.2296213 0.2262936 0.2183301 0.2076005 0.2002596 0.2013708 0.2096547
 0.2186347 0.2229842 0.2227603 0.2215054 0.221514 0.2214908 0.2183778 0.2113556 0.203878 0.2007737
 0.2031019 0.2072015 0.2090191 0.2073351 0.2023282 0.1942791 0.1859219 0.1832868 0.1906113 0.2051526
 0.2193389 0.2270057 0.2256432 0.2150312 0.1981302 0.1829217 0.1785278 0.187032 0.2009446 0.2100937
 0.2096937 0.2011936 0.1879422 0.1729133 0.160102 0.1549322 0.1610062 0.1764604 0.1939912 0.2044627
 0.2019463 0.1883598 0.1739394 0.1698751 0.1780848 0.1898566 0.1955997 0.1935518 0.1884091 0.1853025
 0.1868478 0.1926663 0.1997781 0.2054085 0.2092014 0.2100498 0.2031005 0.1855828 0.1645212 0.1521088
 0.153042 0.162103 0.1739183 0.1877954 0.2013793 0.2073177 0.2015509 0.1909975 0.1876729 0.1959316
 0.2087356 0.2162744 0.2156783 0.2115542 0.2088619 0.2076312 0.205425 0.2030493 0.2047515 0.2123625
 0.2220952 0.2287711 0.2312033 0.2317241 0.2322271 0.232728 0.2327054 0.231975 0.2306113 0.2290657
 0.2280278 0.227652 0.2274162 0.226914 0.2258246 0.2226997 0.2152788 0.203663 0.1923359 0.1866101
 0.1869929 0.1895528 0.1917668 0.193985 0.1939682 0.1853675 0.1661112 0.1452729 0.1364694 0.1447094
 0.1626653 0.1790201 0.1871336 0.1856153 0.1749425 0.1576597 0.1410836 0.1350218 0.1437803 0.1620354
 0.1805285 0.1940496 0.2020409 0.2041751 0.1993649 0.1889125 0.1777874 0.171789 0.1740058 0.1834469
 0.1953819 0.2025779 0.1988394 0.1851563 0.1724123 0.1733652 0.189273 0.2078054 0.2168995 0.216976
 0.2160702 0.2173456 0.2175086 0.2155572 0.2163155 0.2238123 0.2353553 0.244184 0.2454088 0.23795
 0.2239208 0.2091198 0.2015196 0.2048422 0.2142625 0.2215956 0.2231844 0.2194365 0.2100186 0.1958751
 0.1843219 0.1846475 0.1973626 0.2129963 0.2228534 0.2269251 0.2299426 0.2332245 0.2330821 0.2264183
 0.2159155 0.2083914 0.2080642 0.2128618 0.2179249 0.2207315 0.2211344 0.2184569 0.2119106 0.2038923
 0.2000193 0.2042437 0.2147324 0.2255481 0.2319347 0.2332864 0.2317649 0.2295005 0.2271619 0.2241161
 0.2198391 0.2157513 0.2149476 0.2188856 0.2250629 0.2295929 0.2316591 0.2337829 0.2378664 0.2425794
 0.244988 0.2437583 0.2404175 0.2380118 0.2386588 0.2418689 0.2449108 0.2451429 0.2425303 0.2399199
 0.2404209 0.2444417 0.2496457 0.2536083 0.2557863 0.257004 0.2580338 0.2589222 0.2589571 0.2572055
 0.2538416 0.2509229 0.2509321 0.2543109 0.2590363 0.2627105 0.2645004 0.2649933 0.2648674 0.2641894
 0.2628103 0.2610056 0.2594894 0.2588471 0.2591144 0.2599219 0.2608768 0.2617337 0.2623772 0.2628043
 0.2630861 0.2632791 0.2634017 0.2634907 0.2635866 0.2636499 0.2635981 0.2634647 0.2634276 0.263612
 0.2639287 0.26417 0.2642008 0.2639737 0.2634234 0.2624828 0.2612057 0.2597547 0.2582203 0.2565607
 0.254829 0.2534257 0.2529804 0.2538798 0.2559066 0.2583712 0.2605823 0.2621911 0.2631844 0.2637019
 0.2639113 0.2639619 0.2639462 0.2638762 0.2637187 0.2634604 0.2631325 0.2627779 0.2624157 0.2620494
 0.2616958 0.2613826 0.2611121 0.2608428 0.260515 0.2600934 0.2595899 0.2590544 0.2585303 0.258002
 0.2573944 0.2566378 0.255734 0.2547586 0.2538096 0.2529512 0.2521802 0.2514347 0.2506494 0.2498019
 0.2488914 0.2478933 0.2467844 0.2456213 0.2445429 0.2436628 0.2429728 0.2423627 0.2417128 0.2409547
 0.2400767 0.2391053 0.2380794 0.2370213 0.2359306 0.2348022 0.2336308 0.2323964 0.2310682 0.2296319
 0.2281002 0.2264984 0.2248579 0.2232101 0.2215544 0.2198216 0.2178799 0.215579 0.2127909 0.2094343
 0.2054944 0.201037 0.1962129 0.1912375 0.186336 0.1816836 0.1773897 0.1735312 0.1701824 0.1674152
 0.1652923 0.1638624 0.1631513 0.1631531 0.1638406 0.1651807 0.1671266 0.1695881 0.1724163 0.1754233
 0.1784216 0.181259 0.1838507 0.186208 0.1884154 0.1905438 0.1925784 0.1944427 0.196079 0.1974806
 0.1986658 0.1996542 0.2004689 0.201142 0.2017096 0.2022026 0.2026394 0.2030242 0.2033531 0.2036212
 0.2038296 0.2039941 0.2041459 0.2043171 0.2045253 0.2047723 0.2050536 0.2053728 0.2057494 0.206201
 0.2067129 0.2072452 0.2077782 0.2083327 0.2089397 0.2096117 0.2103552 0.211195 0.2121689 0.2132982
 0.2145643 0.215913 0.2172759 0.2185828 0.2197621 0.2207498 0.2215089 0.2220345 0.2223419 0.2224549
 0.2224011 0.2222062 0.2218925 0.221484 0.2210062 0.2204787 0.2199136 0.2193159 0.2186814 0.218001
 0.2172806 0.216552 0.2158516 0.2151865 0.2145295 0.2138542 0.2131678 0.2125031 0.2118843 0.2113101
 0.2107652 0.2102322 0.2096899 0.2091203 0.2085218 0.207904 0.2072593 0.2065513 0.2057392 0.2048088
 0.2037734 0.2026516 0.2014547 0.2001894 0.1988588 0.1974567 0.1959715 0.1944024 0.1927622 0.1910545
 0.1892558 0.1873379 0.185316 0.1832634 0.1812703 0.1793967 0.1776624 0.1760612 0.1745708 0.1731653
 0.171831 0.1705613 0.1693423 0.1681643 0.1670423 0.1660007 0.1650362 0.1641193 0.1632349 0.1624087
 0.1616871 0.161092 0.1605964 0.1601497 0.1597237 0.1593276 0.1589927 0.1587622 0.1586727 0.1587141
 0.1588119 0.1588723 0.1588438 0.1587362 0.1585988 0.1584809 0.1583979 0.1583305 0.1582528 0.158142
 0.1579593 0.1576393 0.157099 0.1562607 0.1550851 0.153597 0.1518741 0.1500234 0.1481763 0.1464718
 0.1450135 0.1438484 0.1429771 0.1423506 0.1418732 0.1414633 0.1411211 0.1409194 0.1409276 0.1411314
 0.1414034 0.1415805 0.1416126 0.1416162 0.1417641 0.1421552 0.1427784 0.1435363 0.144294 0.1449505
 0.1454668 0.1458281 0.1460327 0.1461182 0.1461361 0.146097 0.145984 0.1457999 0.1455624 0.1452837
 0.1449718 0.1446185 0.1441897 0.1436544 0.1430014 0.1422289 0.1413575 0.1404237 0.1394115 0.1382587
 0.137011 0.1359005 0.1352019 0.1350597 0.1354545 0.1362438 0.1372399 0.1383144 0.1393757 0.1402259
 0.1406239 0.1406443 0.1408507 0.1418966 0.1439102 0.1463493 0.1484805 0.1499139 0.1506444 0.1507633
 0.1503295 0.1494126 0.1480373 0.1461371 0.1437055 0.1408897 0.1378613 0.1347569 0.1317697 0.1291026
 0.1268431 0.1250017 0.1235831 0.1226314 0.1222657 0.122098 0.1202257 0.1142231 0.1048869 0.0979011
 0.09905451 0.1077362 0.1173702 0.1223585 0.122529 0.1208446 0.1193548 0.1183695 0.1177956 0.1177996
 0.1185163 0.1197791 0.1211761 0.1223065 0.1230161 0.1233473 0.1232548 0.1223734 0.1199645 0.1151815
 0.1077581 0.09858416 0.08939618 0.08177269 0.07643022 0.07324665 0.07161283 0.07078741 0.07025765 0.06997898
 0.07025826 0.07137379 0.07333526 0.0759819 0.07915269 0.08262373 0.08598384 0.08880886 0.09098998 0.09272791
 0.09418049 0.09526148 0.09580782 0.09580556 0.09539646 0.09475199 0.09399752 0.0931954 0.09231719 0.09126129
 0.09000988 0.08878119 0.08790528 0.08750823 0.08742078 0.08741198 0.08738913 0.08735594 0.08731107 0.08723888
 0.08714364 0.0870856 0.08718623 0.08753379 0.0880622 0.088579 0.088926 0.08908733 0.08915058 0.08915596
 0.0889744 0.08843338 0.08762519 0.08690752 0.08643274 0.08586553 0.08482155 0.0834676 0.08242016 0.08208618
 0.08230911 0.0826392 0.08275332 0.08259691 0.08232945 0.08224779 0.08260106 0.08329469 0.08385697 0.08386861
</values></Ydata></ScRf><Data_Parameters_AB><parameter name="DPF">1</parameter><parameter name="NPT">3497</parameter><parameter name="FXV">3996</parameter><parameter name="LXV">500</parameter><parameter name="CSF">1</parameter><parameter name="MXY">0.0754079669713974</parameter><parameter name="MNY">-0.110489547252655</parameter><parameter name="DAT">31/05/2022</parameter><parameter name="TIM">10:55:03.311 (GMT+2)</parameter><parameter name="DXU">WN</parameter></Data_Parameters_AB><AB__Qtest><MainReport name="Quality Test Report"><Header><Line><Legend>Test result ok/not ok [1/0]: </Legend><Value>0</Value></Line><Line><Legend>Method file: </Legend><Value>C:\Users\Public\Documents\Bruker\OPUS_8.2.28\QT\IRBT_v3_default.QT</Value></Line></Header><Matrix><Line><Legend></Legend><Legend>min</Legend><Legend>max</Legend><Legend>measured</Legend></Line><Line><Value>Absorption (X-Range 1):</Value><Value>0.400000</Value><Value>2.000000</Value><Value>0.129201</Value></Line><Line><Value>Noise (X-Range 4):</Value><Value></Value><Value>0.000300</Value><Value>0.000046</Value></Line><Line><Value>Signal/Noise (X-Range 2):</Value><Value>200.000000</Value><Value></Value><Value>35.815657</Value></Line><Line><Value>Signal/Noise (X-Range 3):</Value><Value>40.000000</Value><Value></Value><Value>22.422552</Value></Line><Line><Value>Water vapour (X-Range 5):</Value><Value></Value><Value>0.000300</Value><Value>0.000055</Value></Line><Line><Value>Signal/Water (X-Range 2):</Value><Value>100.000000</Value><Value></Value><Value>29.930773</Value></Line><Line><Value>Signal/Water (X-Range 3):</Value><Value>20.000000</Value><Value></Value><Value>18.738294</Value></Line><Line><Value>Fringes (X-Range 6):</Value><Value></Value><Value>0.000100</Value><Value>0.000052</Value></Line></Matrix></MainReport></AB__Qtest><Data_Parameters_ScSm><parameter name="DPF">1</parameter><parameter name="NPT">1814</parameter><parameter name="FXV">3996.33169228125</parameter><parameter name="LXV">499.541461535156</parameter><parameter name="CSF">1</parameter><parameter name="MXY">0.29236313700676</parameter><parameter name="MNY">0.0392386838793755</parameter><parameter name="DAT">31/05/2022</parameter><parameter name="TIM">10:55:03.311 (GMT+2)</parameter><parameter name="DXU">WN</parameter></Data_Parameters_ScSm><Data_Parameters_ScRf><parameter name="DPF">1</parameter><parameter name="NPT">1820</parameter><parameter name="FXV">4004.04661832813</parameter><parameter name="LXV">495.683998511719</parameter><parameter name="CSF">1</parameter><parameter name="MXY">0.26499330997467</parameter><parameter name="MNY">0.0304238609969616</parameter><parameter name="DAT">31/05/2022</parameter><parameter name="TIM">10:54:37.459 (GMT+2)</parameter><parameter name="DXU">WN</parameter></Data_Parameters_ScRf><Optic_Parameters_Rf><parameter name="APR">0</parameter><parameter name="APT">Open</parameter><parameter name="BMS">KBr</parameter><parameter name="DTC">RT-DLaTGS_IR-Biotyper [Microplate reader]</parameter><parameter name="HPF">0</parameter><parameter name="LPF">10.0</parameter><parameter name="LPV">4000</parameter><parameter name="PGR">0</parameter><parameter name="RCH">Module port</parameter><parameter name="RDX">0</parameter><parameter name="SRC">MIR</parameter><parameter name="VEL">10.0</parameter><parameter name="SON">Off</parameter></Optic_Parameters_Rf><Acquisition_Parameters_Rf><parameter name="ADT">1</parameter><parameter name="AQM">DD</parameter><parameter name="CFE">0</parameter><parameter name="COR">0</parameter><parameter name="DEL">0</parameter><parameter name="DLY">0</parameter><parameter name="HFW">8000</parameter><parameter name="LFW">0</parameter><parameter name="NSR">32</parameter><parameter name="PLF">AB</parameter><parameter name="RES">6</parameter><parameter name="RGN">-1</parameter><parameter name="STR">0</parameter><parameter name="TCL">MakeCompatibleScalar (0, {WSV=1.000000, ARV=0});</parameter><parameter name="TDL">37</parameter><parameter name="RPO">0</parameter></Acquisition_Parameters_Rf><FT_-_Parameters_Rf><parameter name="APF">B3</parameter><parameter name="HFQ">500</parameter><parameter name="LFQ">4000</parameter><parameter name="NLI">0</parameter><parameter name="PHR">24</parameter><parameter name="PHZ">ML</parameter><parameter name="SPZ">NO</parameter><parameter name="ZFF">1</parameter></FT_-_Parameters_Rf><Optic_Parameters_><parameter name="APR">0</parameter><parameter name="APT">Open</parameter><parameter name="BMS">KBr</parameter><parameter name="CHN">Module port</parameter><parameter name="DTC">RT-DLaTGS_IR-Biotyper [Microplate reader]</parameter><parameter name="HPF">0</parameter><parameter name="LPF">10.0</parameter><parameter name="LPV">4000</parameter><parameter name="PGN">0</parameter><parameter name="RDX">0</parameter><parameter name="SRC">MIR</parameter><parameter name="VEL">10.0</parameter><parameter name="SON">Off</parameter></Optic_Parameters_><FT_-_Parameters_><parameter name="APF">B3</parameter><parameter name="HFQ">500</parameter><parameter name="LFQ">4000</parameter><parameter name="NLI">0</parameter><parameter name="PHR">24</parameter><parameter name="PHZ">ML</parameter><parameter name="SPZ">NO</parameter><parameter name="ZFF">1</parameter></FT_-_Parameters_><Acquisition_Parameters_><parameter name="ADT">1</parameter><parameter name="AQM">DD</parameter><parameter name="CFE">0</parameter><parameter name="COR">0</parameter><parameter name="DEL">0</parameter><parameter name="DLY">0</parameter><parameter name="HFW">8000</parameter><parameter name="LFW">0</parameter><parameter name="NSS">32</parameter><parameter name="PLF">AB</parameter><parameter name="RES">6</parameter><parameter name="SOT">0</parameter><parameter name="TCL">MakeCompatibleScalar (0, {WSV=1.000000, ARV=0});</parameter><parameter name="TDL">37</parameter><parameter name="SPO">0</parameter><parameter name="SGN">-1</parameter></Acquisition_Parameters_><Instrument_Parameters_Rf><parameter name="HFL">15800.168544</parameter><parameter name="LFL">0</parameter><parameter name="LWN">15800.168544</parameter><parameter name="ABP">32197</parameter><parameter name="SSP">1</parameter><parameter name="ARG">2</parameter><parameter name="ASG">2</parameter><parameter name="ASS">32</parameter><parameter name="GFW">16</parameter><parameter name="GBW">16</parameter><parameter name="BFW">0</parameter><parameter name="BBW">0</parameter><parameter name="PKA">7275</parameter><parameter name="PKL">4996</parameter><parameter name="PRA">7451</parameter><parameter name="PRL">5001</parameter><parameter name="P2A">1</parameter><parameter name="P2L">1</parameter><parameter name="P2R">1</parameter><parameter name="P2K">1</parameter><parameter name="DAQ">0</parameter><parameter name="AG2">1</parameter><parameter name="SSM">1</parameter><parameter name="RSN">25383</parameter><parameter name="CRR">0</parameter><parameter name="SRT">1653994477.459</parameter><parameter name="DUR">19.6379852294922</parameter><parameter name="TSC">28.8</parameter><parameter name="MVD">0.303396552801132</parameter><parameter name="AN1">0.225806901986935</parameter><parameter name="AN2">0</parameter><parameter name="VSN">2.485 Apr  4 2017</parameter><parameter name="SRN">0085</parameter><parameter name="CAM">0</parameter><parameter name="INS">IR-Biotyper</parameter><parameter name="FOC">69</parameter><parameter name="RDY">1</parameter><parameter name="ARS">32</parameter></Instrument_Parameters_Rf><Sample_Parameters_><parameter name="BLD"></parameter><parameter name="CNM">Admin</parameter><parameter name="CPY"></parameter><parameter name="DPM"></parameter><parameter name="EXP">IRBT_v3_32Scans.XPM</parameter><parameter name="LCT"></parameter><parameter name="SFM">Microplate, HTS-XT</parameter><parameter name="SNM">220531-1021(v.3)_CLA33F (D_13)_A3_0e27a555-941d-4a00-a8a5-e519bf412bd1.0</parameter><parameter name="XPP">C:\Users\Public\Documents\Bruker\OPUS_8.2.28\XPM</parameter><parameter name="IST">OK</parameter><parameter name="CPG">1252</parameter><parameter name="UID">cccbdb6c-2f64-45c6-9732-0aa4ff0e6284</parameter></Sample_Parameters_><Instrument_Parameters_><parameter name="HFL">15800.168544</parameter><parameter name="LFL">0</parameter><parameter name="LWN">15800.168544</parameter><parameter name="ABP">32197</parameter><parameter name="SSP">1</parameter><parameter name="ASG">2</parameter><parameter name="ARG">2</parameter><parameter name="ASS">32</parameter><parameter name="GFW">16</parameter><parameter name="GBW">16</parameter><parameter name="BFW">0</parameter><parameter name="BBW">0</parameter><parameter name="PKA">8249</parameter><parameter name="PKL">4988</parameter><parameter name="PRA">8502</parameter><parameter name="PRL">4993</parameter><parameter name="P2A">1</parameter><parameter name="P2L">1</parameter><parameter name="P2R">1</parameter><parameter name="P2K">1</parameter><parameter name="DAQ">0</parameter><parameter name="AG2">1</parameter><parameter name="SSM">1</parameter><parameter name="RSN">13317</parameter><parameter name="CRR">0</parameter><parameter name="SRT">1653994503.311</parameter><parameter name="DUR">19.6379852294922</parameter><parameter name="TSC">28.8</parameter><parameter name="MVD">0.263133436441422</parameter><parameter name="AN1">0.225819836356512</parameter><parameter name="AN2">0</parameter><parameter name="VSN">2.485 Apr  4 2017</parameter><parameter name="SRN">0085</parameter><parameter name="CAM">0</parameter><parameter name="INS">IR-Biotyper</parameter><parameter name="FOC">69</parameter><parameter name="RDY">1</parameter></Instrument_Parameters_><History/></OPUSDataFile>
