<?xml version="1.0" encoding="UTF-8" ?>
<OPUSDataFile><AB><Ydata ylabel="Absorbance Units"><values byteorder="INTEL" format="FLOAT32" numvalues="3497"> -0.05812503 -0.05806867 -0.05801211 -0.05795526 -0.05789918 -0.05784391 -0.05779042 -0.05773923 -0.0576969 -0.05766425
 -0.05764992 -0.05765307 -0.05767663 -0.05771638 -0.05776474 -0.05781655 -0.05785902 -0.05789263 -0.05791145 -0.0579222
 -0.05792901 -0.05793414 -0.05794214 -0.05794464 -0.05793975 -0.05792006 -0.05788153 -0.05783099 -0.05776797 -0.05770659
 -0.05764841 -0.05759865 -0.05755766 -0.05752167 -0.05749062 -0.05746235 -0.05743761 -0.05741997 -0.05740977 -0.05741055
 -0.05742115 -0.0574411 -0.05746819 -0.05749903 -0.05753103 -0.05755986 -0.05758451 -0.05760232 -0.05761471 -0.05762215
 -0.05762427 -0.05762198 -0.05761051 -0.05758839 -0.05755462 -0.05750735 -0.05745832 -0.05740809 -0.05737168 -0.05734997
 -0.05734286 -0.0573493 -0.05735404 -0.05735689 -0.05734771 -0.05733008 -0.05731149 -0.05729511 -0.05729356 -0.05730451
 -0.0573307 -0.05736642 -0.05740644 -0.05744587 -0.05747957 -0.0575037 -0.05751519 -0.05751082 -0.05748765 -0.05744885
 -0.0573927 -0.05733316 -0.05727106 -0.05722589 -0.05719973 -0.05720518 -0.05724313 -0.05730886 -0.05740058 -0.05749331
 -0.05758387 -0.05763863 -0.05765927 -0.0576308 -0.0575638 -0.05747619 -0.05737665 -0.0572897 -0.05721338 -0.05715528
 -0.05711026 -0.057076 -0.05705056 -0.05703191 -0.05702057 -0.05701644 -0.05701957 -0.05703001 -0.05704752 -0.05707229
 -0.05710253 -0.05713859 -0.05717207 -0.05720253 -0.05721819 -0.05721938 -0.05720773 -0.05718618 -0.05717433 -0.05717355
 -0.05720166 -0.05725259 -0.05732267 -0.05740077 -0.05746499 -0.05751238 -0.05752786 -0.05752153 -0.057497 -0.05746152
 -0.05742087 -0.05737589 -0.05732535 -0.05728144 -0.05724402 -0.05723891 -0.05727078 -0.05735534 -0.05749761 -0.0576696
 -0.05787053 -0.05800153 -0.05805974 -0.05797653 -0.05776916 -0.05751763 -0.05723429 -0.05701162 -0.05684029 -0.05674313
 -0.0567078 -0.05672521 -0.05678207 -0.05686259 -0.0569478 -0.05701858 -0.0570588 -0.05704999 -0.05700109 -0.05690641
 -0.05679822 -0.05668385 -0.05658531 -0.0565086 -0.05645629 -0.05642941 -0.05642599 -0.05644602 -0.05648553 -0.05654357
 -0.05660497 -0.05666767 -0.05670945 -0.05673148 -0.05672494 -0.05669529 -0.05665303 -0.05659904 -0.05654028 -0.05647385
 -0.05639641 -0.05631347 -0.05622599 -0.05614662 -0.05608266 -0.05604265 -0.05603272 -0.05605199 -0.05610361 -0.0561736
 -0.05626228 -0.05634266 -0.05641241 -0.05644615 -0.05644199 -0.0563984 -0.0563167 -0.05621927 -0.05610724 -0.05599925
 -0.05589391 -0.05579451 -0.0557019 -0.05561855 -0.05554903 -0.05550319 -0.05548212 -0.05549447 -0.05552927 -0.0555838
 -0.05563728 -0.05567755 -0.05568932 -0.05566085 -0.05559762 -0.05549505 -0.05538052 -0.05525646 -0.0551549 -0.05508011
 -0.05504559 -0.0550527 -0.05509105 -0.05515915 -0.05523149 -0.0553063 -0.05535762 -0.05538813 -0.05539283 -0.05537889
 -0.0553631 -0.05534811 -0.05534855 -0.05535801 -0.05537425 -0.05539197 -0.05540202 -0.05541457 -0.05543048 -0.0554677
 -0.0555374 -0.05563435 -0.05576569 -0.05588977 -0.05600129 -0.0560623 -0.05606525 -0.05602348 -0.05593714 -0.055834
 -0.05571437 -0.05558174 -0.05543749 -0.055291 -0.05514804 -0.05503771 -0.05496197 -0.05494445 -0.05497483 -0.05505157
 -0.0551485 -0.05523184 -0.05528591 -0.05527746 -0.05522893 -0.05514147 -0.05504572 -0.05495717 -0.05488261 -0.05482993
 -0.05478285 -0.05473975 -0.05468645 -0.0546195 -0.05455081 -0.05448068 -0.05443266 -0.05440719 -0.05441252 -0.05444606
 -0.05449555 -0.05455486 -0.05459376 -0.05460657 -0.05455747 -0.05445821 -0.05430807 -0.05413377 -0.05397154 -0.05383047
 -0.05373587 -0.0536718 -0.05363815 -0.05361191 -0.0535818 -0.05354117 -0.05348352 -0.05342124 -0.05335604 -0.0532949
 -0.05324031 -0.05317803 -0.05310756 -0.05300383 -0.05286684 -0.05269523 -0.05249471 -0.05230751 -0.05213597 -0.05201554
 -0.05193692 -0.05189278 -0.05187552 -0.05186629 -0.05186596 -0.05186914 -0.051875 -0.05188549 -0.05188537 -0.05186857
 -0.05181497 -0.05171124 -0.05156118 -0.0513598 -0.05113153 -0.05087989 -0.05062356 -0.05036559 -0.05011068 -0.04985933
 -0.04961225 -0.04936992 -0.0491409 -0.04892668 -0.04874317 -0.04858971 -0.04847419 -0.04839043 -0.0483263 -0.04827586
 -0.04822081 -0.04816308 -0.04809881 -0.04802789 -0.04795405 -0.04786041 -0.0477381 -0.04757412 -0.04735453 -0.04710099
 -0.04681518 -0.04652397 -0.04623385 -0.04595251 -0.04568155 -0.04542375 -0.04517917 -0.04495872 -0.04476308 -0.04460656
 -0.04448781 -0.04440703 -0.04435593 -0.04430356 -0.04423515 -0.04408995 -0.04387058 -0.04354129 -0.04314361 -0.04271624
 -0.04229378 -0.04192701 -0.04161295 -0.04136724 -0.04116906 -0.04101585 -0.04088023 -0.04075492 -0.040617 -0.04045986
 -0.04027877 -0.04007178 -0.03984535 -0.03959992 -0.03933646 -0.03905484 -0.03875103 -0.03842596 -0.03808401 -0.03772849
 -0.03737544 -0.03702818 -0.03670448 -0.03640465 -0.03613975 -0.03590263 -0.03569122 -0.035491 -0.03528722 -0.03507325
 -0.03483741 -0.03458994 -0.0343329 -0.03407351 -0.03381839 -0.03354969 -0.03326595 -0.03294577 -0.03258339 -0.03219807
 -0.03178976 -0.03140955 -0.03105924 -0.03076846 -0.03053392 -0.03034467 -0.03019371 -0.03004505 -0.02989441 -0.02970868
 -0.02949421 -0.02924523 -0.0289752 -0.0287008 -0.02842804 -0.0281718 -0.02792216 -0.02767925 -0.02742657 -0.02715508
 -0.02686232 -0.02654305 -0.02621218 -0.02587106 -0.02553594 -0.02520925 -0.02489849 -0.02460462 -0.02432503 -0.02405933
 -0.0237981 -0.02354052 -0.02327603 -0.0230041 -0.02271658 -0.02241395 -0.02209181 -0.02175455 -0.02140627 -0.02105675
 -0.02072053 -0.02040494 -0.02012463 -0.01987381 -0.01965608 -0.01945417 -0.01926191 -0.01906524 -0.01885747 -0.0186376
 -0.01840372 -0.01816165 -0.01791234 -0.01765493 -0.0173895 -0.01711169 -0.01682173 -0.01652692 -0.01622936 -0.01595046
 -0.01569022 -0.0154623 -0.01526019 -0.01507385 -0.0148938 -0.01469576 -0.01447697 -0.01422025 -0.01393627 -0.01362594
 -0.01330862 -0.01299761 -0.0127035 -0.01243747 -0.01218988 -0.01196214 -0.01173469 -0.0115033 -0.0112586 -0.01099808
 -0.0107257 -0.01044139 -0.01015335 -0.009862069 -0.009577255 -0.009299586 -0.00903947 -0.00879649 -0.008575154 -0.008372836
 -0.008184574 -0.008007523 -0.007833396 -0.007661628 -0.007487802 -0.007312896 -0.007137003 -0.006958861 -0.006779168 -0.006591571
 -0.006393408 -0.006180165 -0.00594755 -0.005705228 -0.005452511 -0.005210294 -0.004981665 -0.004776274 -0.004595871 -0.004425069
 -0.004262776 -0.004082758 -0.003885049 -0.003657334 -0.003403672 -0.003135112 -0.002857588 -0.002594796 -0.002348538 -0.002135431
 -0.001949928 -0.001791844 -0.001654136 -0.001528876 -0.001414962 -0.001309393 -0.001212434 -0.001125478 -0.001040827 -0.0009574626
 -0.000864489 -0.0007589851 -0.0006376627 -0.0004994703 -0.0003458843 -0.0001769383 6.547222E-06 0.0002043865 0.0004112784 0.0006264967
 0.0008408428 0.001054653 0.001264667 0.001471742 0.001678053 0.001881068 0.002077171 0.002262841 0.00243005 0.002581383
 0.002715474 0.002838355 0.002954815 0.003064794 0.003170447 0.003266506 0.003350544 0.003424581 0.00348664 0.003551766
 0.003621034 0.003711959 0.003826329 0.003968236 0.004137423 0.004318947 0.004510979 0.00469032 0.004856886 0.004996932
 0.005113939 0.005210446 0.00529142 0.005368293 0.005443839 0.005527176 0.005618027 0.005719123 0.005830207 0.005951941
 0.006083788 0.006227592 0.006374986 0.006525844 0.006663339 0.006783162 0.006878655 0.006946441 0.007002754 0.007048387
 0.007102013 0.007163987 0.007226394 0.007287104 0.007321061 0.007329985 0.007306862 0.007259676 0.007208971 0.007161241
 0.007141306 0.007147504 0.007189627 0.007259254 0.007352452 0.007459492 0.007572174 0.007685897 0.007794915 0.007904119
 0.008013176 0.008130358 0.008258976 0.008394655 0.008539133 0.008670107 0.00878622 0.008864383 0.008903796 0.008901812
 0.008860521 0.008799084 0.008719333 0.008640905 0.008562502 0.008489537 0.008421846 0.008359782 0.008308503 0.008276137
 0.00826508 0.008284423 0.008322788 0.008377003 0.008431123 0.008473852 0.008507322 0.008526509 0.008552206 0.008588615
 0.00864765 0.008733858 0.008831727 0.008941203 0.009032141 0.009103155 0.009134924 0.009128407 0.00908466 0.009007113
 0.008912039 0.008804436 0.008707764 0.008626257 0.008581672 0.008571496 0.008604871 0.008667716 0.008751497 0.008837486
 0.008908744 0.00895833 0.008975363 0.00897178 0.008947671 0.008920752 0.008895101 0.008880778 0.008879511 0.008898214
 0.008937244 0.009008438 0.00911235 0.009257418 0.009441748 0.009651421 0.009880244 0.01008978 0.01027468 0.01039487
 0.01045576 0.0104443 0.0103813 0.01028903 0.01019208 0.01012704 0.01009856 0.01012819 0.01018897 0.01027789
 0.01035453 0.01040393 0.01040452 0.0103452 0.01023885 0.01008323 0.009914182 0.00973422 0.009575021 0.009438017
 0.009331767 0.00925501 0.009197285 0.009157778 0.009126455 0.009104759 0.009092648 0.009090528 0.009101171 0.009119453
 0.009141563 0.00915553 0.009149462 0.009108938 0.009019149 0.008874825 0.008665213 0.008407054 0.008098803 0.007777241
 0.007448519 0.007148639 0.006884352 0.006671272 0.006512335 0.006398215 0.006328236 0.006272594 0.006228956 0.006160671
 0.00606881 0.005936972 0.005773641 0.005597634 0.00541635 0.005259215 0.005118646 0.004998839 0.004882782 0.004751123
 0.004601281 0.004419365 0.004227606 0.004030891 0.003856882 0.003718537 0.003621119 0.003572501 0.003546063 0.003541466
 0.003516329 0.003466705 0.003366352 0.003214119 0.00302096 0.002789651 0.002555029 0.002318469 0.002106217 0.001915429
 0.001750474 0.001608241 0.00148369 0.001375815 0.001281538 0.001198883 0.001125904 0.001057275 0.0009893759 0.0009157006
 0.0008317773 0.0007349742 0.0006221767 0.0004984864 0.000363344 0.0002281962 9.466209E-05 -2.921785E-05 -0.0001421013 -0.000247293
 -0.0003449809 -0.0004458038 -0.0005500368 -0.0006646236 -0.0007884391 -0.0009194206 -0.001055399 -0.001188067 -0.001316051 -0.001431473
 -0.001535942 -0.00162736 -0.001710923 -0.001790496 -0.001872969 -0.001964504 -0.002069815 -0.002193673 -0.002335069 -0.002495906
 -0.002668736 -0.002852727 -0.003039055 -0.003226176 -0.003409504 -0.003588431 -0.003761489 -0.003928565 -0.00408662 -0.004235516
 -0.004372119 -0.004497283 -0.00461368 -0.00472321 -0.004834025 -0.004946693 -0.005067272 -0.005193497 -0.005324798 -0.005458108
 -0.005589537 -0.005718102 -0.005842075 -0.005960521 -0.006074254 -0.006175992 -0.006264041 -0.006329754 -0.006368142 -0.006389054
 -0.006390017 -0.006407097 -0.006442852 -0.006532879 -0.006679065 -0.006880683 -0.007134438 -0.007400509 -0.007674236 -0.007907337
 -0.008101272 -0.008231793 -0.008311279 -0.008352689 -0.008375213 -0.008416299 -0.008484423 -0.008609682 -0.008773214 -0.008975181
 -0.009181669 -0.009372269 -0.009535567 -0.009657448 -0.009761325 -0.009849942 -0.009944948 -0.01005345 -0.0101607 -0.01026736
 -0.01033767 -0.01036975 -0.01035214 -0.01028774 -0.01020946 -0.01012288 -0.01007894 -0.01007655 -0.01014245 -0.01026445
 -0.01042909 -0.0106219 -0.0108113 -0.01099559 -0.01115766 -0.01130985 -0.011457 -0.01160684 -0.01176867 -0.0119311
 -0.0120938 -0.01223881 -0.01235948 -0.01245706 -0.01252873 -0.01259494 -0.01265762 -0.01272858 -0.01280857 -0.01288489
 -0.0129565 -0.01300537 -0.01303311 -0.0130396 -0.01302851 -0.01301336 -0.01299506 -0.01298283 -0.01297508 -0.01297248
 -0.01297566 -0.01298408 -0.01300304 -0.01303477 -0.01308893 -0.01317049 -0.01328861 -0.01345028 -0.01364921 -0.01388987
 -0.01413899 -0.01439415 -0.01461276 -0.0147893 -0.01491136 -0.01497789 -0.01502178 -0.01504582 -0.01509696 -0.01517403
 -0.01529595 -0.0154546 -0.01563205 -0.01581932 -0.01598499 -0.0161275 -0.01622781 -0.0162946 -0.01632822 -0.01634373
 -0.01635223 -0.0163668 -0.01639884 -0.01644982 -0.01652572 -0.0166118 -0.01670704 -0.01679087 -0.01685848 -0.0169066
 -0.01693274 -0.01696122 -0.01699328 -0.017056 -0.01714874 -0.0172691 -0.01741293 -0.01755224 -0.01768702 -0.01780032
 -0.01789955 -0.0179948 -0.01809057 -0.01820209 -0.01832175 -0.01844849 -0.01856958 -0.01867418 -0.01875504 -0.01880542
 -0.01882188 -0.0188024 -0.01874241 -0.01863951 -0.01849565 -0.01830851 -0.01809755 -0.0178631 -0.01763854 -0.01742577
 -0.01725725 -0.01713385 -0.01707442 -0.0170771 -0.01714162 -0.01726288 -0.0174233 -0.01761642 -0.01781811 -0.01802408
 -0.01821638 -0.01839375 -0.01854834 -0.01867884 -0.01878218 -0.0188565 -0.01889881 -0.01891259 -0.01889616 -0.0188629
 -0.01881453 -0.0187683 -0.01872808 -0.01869967 -0.01868555 -0.01866877 -0.01864864 -0.01859037 -0.01849251 -0.01832616
 -0.01809437 -0.01779958 -0.0174506 -0.01708132 -0.01669879 -0.01633973 -0.01600044 -0.01569357 -0.01540656 -0.01512935
 -0.0148525 -0.01456309 -0.01426254 -0.01394697 -0.0136239 -0.01329545 -0.01296678 -0.01263932 -0.01231729 -0.0120003
 -0.01170066 -0.01141883 -0.01117394 -0.01096724 -0.01080856 -0.01069722 -0.01062359 -0.01058604 -0.01056879 -0.01057258
 -0.01059311 -0.01062957 -0.01068127 -0.01073873 -0.01078668 -0.01081413 -0.01079826 -0.01074423 -0.01064443 -0.0105199
 -0.01038171 -0.01024024 -0.01010638 -0.009964997 -0.009815512 -0.009637587 -0.009425837 -0.009180665 -0.008900193 -0.008604127
 -0.008293459 -0.007990049 -0.007694981 -0.007427089 -0.007187422 -0.006992883 -0.006842952 -0.006746312 -0.006698334 -0.006692416
 -0.006722951 -0.006775425 -0.006851574 -0.006944074 -0.007067208 -0.007227031 -0.007445821 -0.007737274 -0.008118032 -0.008601085
 -0.00918025 -0.009862355 -0.01060769 -0.01141514 -0.01222093 -0.01301898 -0.01375481 -0.01442432 -0.01501525 -0.01552919
 -0.01599385 -0.01641153 -0.01681257 -0.01719407 -0.01756062 -0.01790829 -0.01822696 -0.01852023 -0.01878854 -0.01903951
 -0.01928494 -0.01952312 -0.01975905 -0.01998158 -0.02018441 -0.02036407 -0.02051468 -0.0206489 -0.02076842 -0.02088645
 -0.02100734 -0.02112658 -0.02124559 -0.0213418 -0.021414 -0.02143597 -0.02140744 -0.02132099 -0.02118141 -0.02101606
 -0.02083344 -0.02068305 -0.02056699 -0.02051974 -0.02052934 -0.0205935 -0.02069222 -0.02080043 -0.0209027 -0.02097675
 -0.02101733 -0.02101374 -0.02097127 -0.0208877 -0.0207767 -0.02064048 -0.02049452 -0.02034182 -0.02019209 -0.0200462
 -0.01991464 -0.01979767 -0.01972563 -0.01970147 -0.01977988 -0.01996319 -0.02029904 -0.02077858 -0.02139847 -0.02213443
 -0.0229243 -0.02374317 -0.02451461 -0.02523469 -0.0258633 -0.02641897 -0.02690334 -0.02733631 -0.02773155 -0.02809655
 -0.02843732 -0.02875692 -0.02905659 -0.02934124 -0.02961248 -0.02986948 -0.03011274 -0.03033557 -0.03053744 -0.03071898
 -0.03088076 -0.0310347 -0.03118134 -0.03133104 -0.03148228 -0.03163482 -0.03178592 -0.03192819 -0.03206012 -0.03217486
 -0.03227392 -0.03235513 -0.03242423 -0.03248451 -0.03254362 -0.03260754 -0.03267927 -0.0327633 -0.03285241 -0.03294682
 -0.03303328 -0.03310923 -0.03316671 -0.03320348 -0.03322727 -0.03323821 -0.03325399 -0.03327513 -0.03331101 -0.03335993
 -0.03341366 -0.03347039 -0.03351674 -0.03355533 -0.03358512 -0.03361212 -0.03364754 -0.03369373 -0.03376009 -0.03384123
 -0.03393747 -0.03403776 -0.03413627 -0.0342226 -0.03429049 -0.03433655 -0.03435657 -0.03436053 -0.03434787 -0.03433909
 -0.03433644 -0.03435532 -0.03439725 -0.03445927 -0.03454064 -0.03462475 -0.03471106 -0.03478732 -0.03485499 -0.03491387
 -0.03496528 -0.03501322 -0.03505691 -0.03509707 -0.03513162 -0.03515798 -0.03517514 -0.03518083 -0.03517617 -0.03516043
 -0.03513762 -0.03510823 -0.03507946 -0.03505265 -0.03503655 -0.03503281 -0.03504855 -0.03508537 -0.0351422 -0.03521951
 -0.03530147 -0.03538693 -0.03545222 -0.03549752 -0.03551178 -0.03549928 -0.03547192 -0.03543457 -0.03540816 -0.03539163
 -0.03539427 -0.03540926 -0.03543138 -0.03545519 -0.03547258 -0.03548497 -0.03548971 -0.03549339 -0.03549793 -0.03550931
 -0.03553032 -0.03556095 -0.03560232 -0.03564885 -0.03570012 -0.03575035 -0.03579903 -0.0358451 -0.03588859 -0.03593089
 -0.03597178 -0.03600994 -0.03604508 -0.03607455 -0.03609948 -0.03612133 -0.03614211 -0.03616709 -0.03619568 -0.03623015
 -0.03626687 -0.03630299 -0.03633682 -0.03636536 -0.03639207 -0.03641765 -0.03644526 -0.03647693 -0.03650948 -0.03654312
 -0.03657158 -0.03659379 -0.03660903 -0.03661701 -0.03662321 -0.03662782 -0.03663453 -0.0366428 -0.03664976 -0.03665464
 -0.03665188 -0.03664252 -0.03662581 -0.03660506 -0.03658611 -0.036572 -0.03657015 -0.03657931 -0.03660226 -0.03663294
 -0.03666871 -0.03670366 -0.03673373 -0.03675908 -0.03677833 -0.0367958 -0.03681229 -0.03682965 -0.03684844 -0.03686667
 -0.03688418 -0.03690154 -0.03691889 -0.03693987 -0.03696414 -0.03699083 -0.03701852 -0.03703972 -0.03705473 -0.0370593
 -0.03705708 -0.03705319 -0.03705049 -0.0370562 -0.03706808 -0.03708706 -0.03710921 -0.03713163 -0.03715397 -0.03717503
 -0.03719649 -0.03721876 -0.03724229 -0.03726712 -0.03729425 -0.03732372 -0.03735723 -0.03739508 -0.03743462 -0.03747552
 -0.03750853 -0.03753341 -0.03754307 -0.03753949 -0.03752736 -0.03750992 -0.03749992 -0.03749716 -0.03750882 -0.03752946
 -0.03755478 -0.03757969 -0.03759634 -0.03760662 -0.03760833 -0.03760803 -0.03760873 -0.03761262 -0.03762194 -0.03763242
 -0.03764354 -0.03765195 -0.03765666 -0.03766083 -0.03766449 -0.03767345 -0.03768786 -0.0377087 -0.03773521 -0.03776127
 -0.03778629 -0.03780358 -0.03781451 -0.03781934 -0.03782039 -0.03782321 -0.0378272 -0.03783465 -0.03784221 -0.03784692
 -0.03784795 -0.03784291 -0.03783524 -0.03782599 -0.03781753 -0.03781143 -0.03780588 -0.03780069 -0.03779469 -0.03778734
 -0.03778157 -0.03777751 -0.03777849 -0.0377846 -0.03779653 -0.03781417 -0.03783681 -0.03786422 -0.03789551 -0.03792963
 -0.03796348 -0.03799522 -0.03801952 -0.03803556 -0.03803922 -0.03803264 -0.03801572 -0.03799269 -0.03796614 -0.0379396
 -0.03791524 -0.03789529 -0.03788082 -0.03787325 -0.03787339 -0.0378799 -0.03789312 -0.03790777 -0.03792346 -0.03793585
 -0.03794484 -0.03795253 -0.03795919 -0.03796865 -0.03798005 -0.03799133 -0.03800107 -0.03800322 -0.03799851 -0.03798493
 -0.03796506 -0.03794181 -0.03791695 -0.0378935 -0.03787159 -0.03785203 -0.03783521 -0.03782132 -0.03781129 -0.03780568
 -0.037804 -0.0378066 -0.03781093 -0.03781682 -0.03782139 -0.03782438 -0.03782433 -0.03782117 -0.03781447 -0.03780424
 -0.03779016 -0.03777249 -0.03775189 -0.03772949 -0.03770885 -0.03769154 -0.03768304 -0.03768297 -0.03769401 -0.03771276
 -0.0377373 -0.03776338 -0.0377872 -0.03780738 -0.03782184 -0.03783252 -0.03783929 -0.03784552 -0.03785195 -0.03786064
 -0.0378721 -0.03788625 -0.0379032 -0.03792068 -0.03793853 -0.03795302 -0.03796386 -0.0379668 -0.03796184 -0.03794633
 -0.0379215 -0.037889 -0.03785174 -0.0378163 -0.03778547 -0.03776681 -0.03775962 -0.03776728 -0.03778426 -0.0378086
 -0.03783312 -0.03785342 -0.03786706 -0.03787112 -0.03787093 -0.03786663 -0.037866 -0.03787053 -0.03788154 -0.03789962
 -0.03791746 -0.03793466 -0.03794269 -0.03794187 -0.03793164 -0.03791352 -0.037895 -0.03787675 -0.03786543 -0.0378593
 -0.03785833 -0.03785971 -0.03785889 -0.03785517 -0.03784541 -0.03783218 -0.03781578 -0.03780027 -0.03778779 -0.03778059
 -0.03778068 -0.03778516 -0.03779446 -0.03780155 -0.03780542 -0.03780189 -0.03779023 -0.03777371 -0.03775252 -0.03773348
 -0.03771652 -0.03770381 -0.0376943 -0.03768371 -0.0376712 -0.03765117 -0.03762507 -0.03759212 -0.03755695 -0.03752566
 -0.03750285 -0.03749692 -0.03750575 -0.03753284 -0.03756696 -0.0376044 -0.03763359 -0.03764856 -0.03764892 -0.03763197
 -0.03760893 -0.03758062 -0.03755942 -0.03754677 -0.03754558 -0.03755589 -0.03756947 -0.03758556 -0.03759272 -0.03759162
 -0.03757915 -0.03755772 -0.03753377 -0.03750833 -0.03748785 -0.03746949 -0.03745212 -0.037432 -0.03740377 -0.03736836
 -0.03732339 -0.03727515 -0.03722583 -0.03718125 -0.03714449 -0.03711563 -0.03709567 -0.03708103 -0.03707117 -0.03706493
 -0.03706203 -0.03706468 -0.03707295 -0.03708699 -0.03710647 -0.03712758 -0.03715036 -0.0371727 -0.03719579 -0.0372223
 -0.03725376 -0.03729471 -0.03734636 -0.03741203 -0.03749366 -0.03759406 -0.03771589 -0.03786251 -0.03803343 -0.03823109
 -0.03844738 -0.03868152 -0.03892052 -0.03916064 -0.03939706 -0.03962708 -0.03986201 -0.04010232 -0.04036368 -0.04064666
 -0.04094263 -0.04124783 -0.04151892 -0.04174977 -0.04188375 -0.04192033 -0.04182374 -0.04160653 -0.04127123 -0.04084927
 -0.040385 -0.03991523 -0.03949842 -0.03914757 -0.03889312 -0.0387268 -0.03865362 -0.03865793 -0.03873874 -0.03886963
 -0.03904875 -0.03923202 -0.03941325 -0.03955708 -0.03965812 -0.03972401 -0.03975505 -0.03977096 -0.0397718 -0.03976276
 -0.03974452 -0.03972453 -0.0397021 -0.0396813 -0.03965568 -0.03961211 -0.03954723 -0.03944761 -0.03931953 -0.0391645
 -0.03898924 -0.03879903 -0.03859871 -0.03839057 -0.03818308 -0.03797945 -0.03778607 -0.03760608 -0.03743611 -0.03727617
 -0.03712191 -0.0369725 -0.03683226 -0.03670143 -0.03658655 -0.03648736 -0.0364025 -0.03633087 -0.03626546 -0.03620605
 -0.03614789 -0.03609217 -0.03603931 -0.03599031 -0.03594761 -0.03590987 -0.0358774 -0.0358462 -0.03581357 -0.03577594
 -0.0357301 -0.0356767 -0.03561456 -0.03554821 -0.03547814 -0.03540988 -0.03534421 -0.03528576 -0.03523508 -0.03519479
 -0.03516504 -0.03514438 -0.03513246 -0.03512473 -0.03512083 -0.03511623 -0.03511101 -0.03510307 -0.03509286 -0.03508057
 -0.0350661 -0.0350498 -0.03503015 -0.03500561 -0.03497506 -0.03493582 -0.03489185 -0.03484328 -0.03479813 -0.03475962
 -0.03473154 -0.03471668 -0.03470893 -0.03470819 -0.0347057 -0.03470045 -0.03468937 -0.03467224 -0.03465142 -0.03462705
 -0.0346015 -0.03457459 -0.03454631 -0.03451674 -0.03448581 -0.03445467 -0.03442583 -0.03440075 -0.03438373 -0.0343732
 -0.03437036 -0.03436954 -0.03436695 -0.03435802 -0.03433812 -0.0343096 -0.0342713 -0.03423022 -0.03418801 -0.03414864
 -0.03411349 -0.03408037 -0.03404939 -0.03401582 -0.03397941 -0.03393872 -0.03389418 -0.03385082 -0.03380949 -0.03377819
 -0.03375658 -0.03374828 -0.03375106 -0.03376178 -0.03377768 -0.03379287 -0.03380574 -0.03381199 -0.03381171 -0.03380318
 -0.03378832 -0.03376754 -0.03374315 -0.03371621 -0.03368741 -0.03365712 -0.03362538 -0.03359191 -0.03355926 -0.03352756
 -0.03350026 -0.03347755 -0.03346014 -0.03344784 -0.03343822 -0.03343093 -0.03342281 -0.03341351 -0.03339995 -0.03338241
 -0.03335948 -0.03333298 -0.033305 -0.03327793 -0.03325576 -0.03323854 -0.03322818 -0.03322207 -0.03321935 -0.03321782
 -0.03321621 -0.03321457 -0.03321278 -0.03321068 -0.03320849 -0.03320383 -0.03319661 -0.03318309 -0.03316304 -0.03313532
 -0.03310027 -0.03306217 -0.03302174 -0.0329857 -0.03295384 -0.03292937 -0.03291094 -0.03289678 -0.03288599 -0.03287597
 -0.0328672 -0.03285933 -0.03285263 -0.03284739 -0.03284322 -0.03283972 -0.03283763 -0.03283694 -0.03283923 -0.03284529
 -0.03285396 -0.03286564 -0.03287546 -0.03288299 -0.0328843 -0.03287914 -0.03286754 -0.0328496 -0.03282658 -0.0327984
 -0.03276485 -0.03272633 -0.03268386 -0.03263869 -0.03259462 -0.03255208 -0.03251385 -0.03247881 -0.03244632 -0.03241658
 -0.03238884 -0.03236585 -0.03234934 -0.03233969 -0.03233882 -0.03234025 -0.03234335 -0.03233933 -0.03232612 -0.03230175
 -0.03226519 -0.03222421 -0.03217917 -0.03214138 -0.03211109 -0.03209401 -0.03208921 -0.03209383 -0.0321063 -0.03211928
 -0.03213195 -0.03213846 -0.03213912 -0.03213149 -0.03211723 -0.03209689 -0.03207338 -0.03204907 -0.03202656 -0.03200838
 -0.03199417 -0.03198482 -0.03197759 -0.03197198 -0.03196576 -0.03195838 -0.03194919 -0.03193806 -0.03192499 -0.03190998
 -0.03189419 -0.03187777 -0.03186306 -0.03184994 -0.03183909 -0.03182955 -0.03181807 -0.03180385 -0.03178277 -0.03175587
 -0.03172231 -0.03168521 -0.03164771 -0.03161287 -0.03158508 -0.03156327 -0.03154917 -0.03153697 -0.03152493 -0.03150816
 -0.03148412 -0.03145521 -0.03142076 -0.03138858 -0.03135947 -0.03133818 -0.03132511 -0.03131842 -0.03131784 -0.03131866
 -0.03132097 -0.03132289 -0.03132495 -0.03132841 -0.03133292 -0.03133876 -0.03134422 -0.0313465 -0.03134437 -0.03133473
 -0.03131865 -0.03129559 -0.03126805 -0.03123705 -0.0312053 -0.03117379 -0.03114542 -0.03112102 -0.0311029 -0.03109193
 -0.03108693 -0.03108821 -0.03109068 -0.03109407 -0.03109291 -0.03108707 -0.03107387 -0.03105375 -0.03102791 -0.03099739
 -0.0309668 -0.03093691 -0.03091241 -0.03089246 -0.03087827 -0.03086739 -0.03085727 -0.03084624 -0.03083147 -0.03081405
 -0.03079329 -0.03077236 -0.0307523 -0.03073573 -0.03072405 -0.03071622 -0.03071266 -0.03070948 -0.03070633 -0.03070011
 -0.03069056 -0.03067721 -0.03066004 -0.03063913 -0.03061451 -0.03058627 -0.03055501 -0.03052315 -0.03049137 -0.0304631
 -0.03043747 -0.0304149 -0.03039333 -0.03037012 -0.03034461 -0.03031472 -0.03028243 -0.03024773 -0.03021452 -0.03018421
 -0.03016018 -0.0301441 -0.03013529 -0.03013444 -0.03013647 -0.03014096 -0.03014326 -0.03014298 -0.03013992 -0.03013411
 -0.03012648 -0.03011687 -0.0301044 -0.03008892 -0.03006931 -0.0300457 -0.0300179 -0.02998593 -0.02994949 -0.02990933
 -0.02986557 -0.02982094 -0.0297776 -0.02973832 -0.029706 -0.02967982 -0.02966082 -0.02964486 -0.02963101 -0.02961621
 -0.02959943 -0.02958132 -0.02956167 -0.02954331 -0.02952643 -0.02951257 -0.0295017 -0.02949256 -0.02948484 -0.02947575
 -0.02946495 -0.02944954 -0.02942951 -0.02940307 -0.02937111 -0.029334 -0.02929375 -0.02925303 -0.02921333 -0.02917708
 -0.02914426 -0.02911577 -0.02909032 -0.02906778 -0.02904625 -0.02902534 -0.02900296 -0.02897844 -0.02895206 -0.02892355
 -0.02889636 -0.02887071 -0.02884878 -0.02883047 -0.02881328 -0.02879701 -0.02877882 -0.02875931 -0.02873966 -0.02872026
 -0.02870324 -0.02868753 -0.02867228 -0.02865614 -0.02863681 -0.02861411 -0.02858671 -0.02855604 -0.028522 -0.02848801
 -0.0284554 -0.02842691 -0.02840441 -0.02838505 -0.02836938 -0.02834933 -0.028324 -0.028288 -0.02824072 -0.02818549
 -0.02812273 -0.02806112 -0.02800107 -0.0279499 -0.02790705 -0.02787448 -0.02785051 -0.02783174 -0.02781653 -0.02780005
 -0.02778206 -0.02776024 -0.0277349 -0.02770579 -0.0276724 -0.02763419 -0.02759143 -0.02754367 -0.02749305 -0.02743975
 -0.02738718 -0.02733575 -0.02728947 -0.02724883 -0.02721696 -0.02719427 -0.02717813 -0.02716819 -0.02715665 -0.02714334
 -0.02712331 -0.02709734 -0.0270665 -0.02703097 -0.026992 -0.02694891 -0.02690015 -0.02684738 -0.02679124 -0.02673582
 -0.02668555 -0.02664145 -0.02660643 -0.02657663 -0.02655167 -0.02652593 -0.02649768 -0.02646336 -0.02642164 -0.02637311
 -0.02631737 -0.0262584 -0.02619637 -0.02613731 -0.02608156 -0.02603617 -0.02600118 -0.02598123 -0.02597407 -0.02597355
 -0.02597485 -0.02596004 -0.02592909 -0.02587071 -0.02579424 -0.02570702 -0.0256181 -0.02553946 -0.02547289 -0.02542359
 -0.02538877 -0.02536909 -0.02535921 -0.02535918 -0.02535774 -0.02535361 -0.02533274 -0.02529259 -0.02523101 -0.02514716
 -0.02505591 -0.02495808 -0.02487022 -0.02479193 -0.02472764 -0.02467543 -0.02462929 -0.02458791 -0.02454436 -0.02449888
 -0.02444881 -0.02439448 -0.02433557 -0.02427154 -0.02420144 -0.0241262 -0.02404517 -0.02396279 -0.02388056 -0.02380282
 -0.02373144 -0.02366745 -0.02361153 -0.02356281 -0.02352144 -0.0234853 -0.02345439 -0.02342362 -0.02339265 -0.02335415
 -0.02330772 -0.02324651 -0.02317102 -0.02307905 -0.02297313 -0.02285912 -0.0227397 -0.0226236 -0.02251029 -0.0224031
 -0.02229951 -0.02219787 -0.02209763 -0.0219972 -0.02189933 -0.0218048 -0.02171604 -0.02163447 -0.02155885 -0.0214901
 -0.02142114 -0.02135226 -0.02126735 -0.02116535 -0.02103057 -0.02086276 -0.02066522 -0.02043928 -0.02019885 -0.01994274
 -0.01967306 -0.01938686 -0.01907571 -0.01873979 -0.0183737 -0.01798339 -0.01757333 -0.01715281 -0.01673198 -0.01631768
 -0.01591906 -0.01553307 -0.01516249 -0.01479536 -0.01442709 -0.01405641 -0.01367887 -0.01331811 -0.01297612 -0.01267556
 -0.01241887 -0.01220585 -0.01203628 -0.01190144 -0.01180099 -0.01172933 -0.01168536 -0.01166182 -0.01165584 -0.01165558
 -0.01165827 -0.01165264 -0.011638 -0.01160833 -0.01156503 -0.01150747 -0.01143669 -0.01135333 -0.01125768 -0.01114958
 -0.01103104 -0.01090219 -0.01076685 -0.01062668 -0.01047912 -0.01032575 -0.01014702 -0.009941742 -0.009688469 -0.009387096
 -0.009053884 -0.008691644 -0.008334671 -0.007980569 -0.00763601 -0.007296403 -0.006950908 -0.006598171 -0.00623117 -0.005847913
 -0.005446185 -0.005014458 -0.004545104 -0.004015745 -0.003407825 -0.002711825 -0.001907928 -0.001038395 -0.0001048113 0.0008219335
 0.001724493 0.00257214 0.003356304 0.004084966 0.004757501 0.005393672 0.005995039 0.006598526 0.007208729 0.007887772
 0.008631772 0.009465488 0.01036035 0.01123675 0.01208561 0.01283937 0.01352953 0.01417376 0.01479667 0.01543385
 0.0160835 0.01675611 0.01744147 0.01813577 0.01883777 0.01954846 0.02025696 0.02096237 0.02164833 0.02231033
 0.02295996 0.02359765 0.0242388 0.02488318 0.02550139 0.02609042 0.02660657 0.02705496 0.02743615 0.02776062
 0.02806383 0.02834523 0.02862469 0.0288875 0.02911585 0.02931264 0.02946985 0.02960627 0.02973626 0.02985961
 0.02998343 0.03008989 0.03017392 0.03022639 0.03024326 0.03022802 0.03018068 0.03010374 0.02999731 0.02986407
 0.02970445 0.02953421 0.02935437 0.02918207 0.02901543 0.02885422 0.02869555 0.02852882 0.02835605 0.02817391
 0.02799156 0.02782075 0.02766884 0.02754893 0.02746039 0.02740596 0.02738626 0.02740189 0.02745454 0.02754714
 0.02766966 0.02782139 0.02798842 0.0281677 0.02836002 0.0285648 0.02879183 0.02904155 0.02932047 0.02962866
 0.02996915 0.03034187 0.03074859 0.03118804 0.03165745 0.03215475 0.03267369 0.03321432 0.03377352 0.03435344
 0.03495509 0.03558042 0.03623134 0.03690815 0.03761196 0.03834067 0.03909398 0.03986954 0.04066721 0.04148336
 0.04231899 0.04315813 0.04400026 0.04481848 0.04561162 0.04637069 0.04709758 0.04781161 0.04851058 0.04919727
 0.04985955 0.05045651 0.05098692 0.05142412 0.05178269 0.05207528 0.05230739 0.05249122 0.05262278 0.05270085
 0.05272869 0.05270979 0.05263802 0.05251988 0.05231208 0.05200604 0.05156848 0.05098282 0.05032973 0.04961387
 0.04891508 0.04823627 0.04754884 0.04685004 0.0460997 0.04530118 0.04445228 0.04355679 0.0426307 0.04166404
 0.04065035 0.03956052 0.03833932 0.0369916 0.03547008 0.03388746 0.03231281 0.0308195 0.02948678 0.02824644
 0.02709185 0.02596327 0.02483758 0.02373111 0.02264125 0.02160438 0.02062513 0.01969759 0.01882134 0.01796402
 0.01712545 0.01629205 0.01546738 0.01466385 0.01388372 0.01314167 0.01243577 0.01176987 0.01113917 0.01053946
 0.009962951 0.009401582 0.008844646 0.008284137 0.007705737 0.00709838 0.006460771 0.005778706 0.005108609 0.004456972
 0.003891403 0.003431231 0.003042846 0.002727234 0.00241344 0.002098139 0.001756123 0.001390775 0.001032758 0.0006857429
 0.0003886626 0.0001347631 -7.882621E-05 -0.0002582093 -0.0004225855 -0.0005638429 -0.0006787289 -0.0007566035 -0.0007807602 -0.0007574011
 -0.0006841547 -0.0005735734 -0.0004335486 -0.0002640606 -6.882683E-05 0.0001633305 0.0004326058 0.0007571974 0.001137944 0.001604132
 0.002158987 0.002817477 0.003579962 0.00438886 0.005238082 0.006035501 0.006783227 0.007446197 0.008030462 0.008539451
 0.008973341 0.009331007 0.009618913 0.009839614 0.0100185 0.01017906 0.01035508 0.01058509 0.0108681 0.01122592
 0.01160167 0.01197801 0.01232313 0.01262012 0.01289162 0.01313796 0.01338604 0.01363916 0.01390174 0.01417407
 0.01444648 0.01471923 0.0149918 0.01526684 0.01555899 0.01587061 0.01621907 0.01660131 0.01702141 0.01746932
 0.01793006 0.01839901 0.01886201 0.01932858 0.01980061 0.02028933 0.02080283 0.02134107 0.02190742 0.02249258
 0.02309495 0.02370759 0.02432913 0.02495713 0.02559208 0.02622066 0.02684206 0.0274181 0.02794625 0.02838384
 0.02873141 0.02897036 0.02910279 0.02912725 0.02904247 0.02884556 0.02853305 0.02809654 0.02753821 0.02685292
 0.02605706 0.02515744 0.02417994 0.02314007 0.02205297 0.02092857 0.0197676 0.01856811 0.01735014 0.01611116
 0.01491064 0.01375369 0.01268745 0.01171466 0.01082446 0.01001411 0.009244146 0.008514801 0.007805869 0.007123542
 0.006479584 0.005877689 0.00533531 0.004845506 0.004407102 0.004006743 0.003629066 0.003264674 0.002899793 0.002535624
 0.002167456 0.001805077 0.001450119 0.001114016 0.0007998904 0.0005147216 0.0002607601 3.608999E-05 -0.0001587639 -0.0003333678
 -0.0004882281 -0.000631975 -0.000764457 -0.0008857075 -0.0009948952 -0.001086994 -0.001161817 -0.001216055 -0.001250029 -0.001262732
 -0.001254836 -0.001226522 -0.001179638 -0.001115595 -0.001038068 -0.000949223 -0.0008553563 -0.0007587432 -0.0006696963 -0.0005914558
 -0.0005351252 -0.000503854 -0.0005051999 -0.0005410774 -0.0006138252 -0.0007243907 -0.0008665567 -0.001040057 -0.001227681 -0.001428172
 -0.001620532 -0.001804289 -0.001965704 -0.002105754 -0.002220282 -0.002311197 -0.002380649 -0.002430824 -0.002466332 -0.002488318
 -0.002499914 -0.002501338 -0.002493109 -0.002477302 -0.002454429 -0.002428747 -0.00240231 -0.002376153 -0.002351382 -0.002325252
 -0.002297037 -0.0022679 -0.002237389 -0.002213846 -0.002197723 -0.002196661 -0.00221051 -0.002238691 -0.002280242 -0.002328669
 -0.002383906 -0.002441908 -0.002504034 -0.002571963 -0.002645868 -0.002728474 -0.002814803 -0.002901116 -0.002980439 -0.003044377
 -0.003094153 -0.003125902 -0.00315074 -0.00317247 -0.003197083 -0.003228989 -0.003258561 -0.00328546 -0.003296769 -0.00329043
 -0.003267884 -0.003229039 -0.003185922 -0.003138752 -0.00309305 -0.003047699 -0.002997842 -0.002943421 -0.002881013 -0.002812769
 -0.00274282 -0.002671588 -0.002602872 -0.002532942 -0.002458744 -0.002377708 -0.002285338 -0.002185161 -0.002077647 -0.001966947
 -0.001855662 -0.001742173 -0.001626712 -0.001506465 -0.001380299 -0.001251734 -0.001120735 -0.0009940136 -0.0008719809 -0.0007579277
 -0.0006517777 -0.0005527778 -0.0004605917 -0.0003727579 -0.0002890571 -0.0002070157 -0.000127383 -5.043464E-05 2.223323E-05 8.73071E-05
 0.0001450083 0.0001934055 0.0002358328 0.0002743441 0.0003115975 0.0003505817 0.0003891244 0.0004278754 0.000461125 0.000487443
 0.000503237 0.0005071932 0.0005011195 0.0004848265 0.0004633226 0.0004369192 0.0004076027 0.00037528 0.0003383519 0.0002969042
 0.0002505018 0.0001998854 0.0001478581 9.462045E-05 4.241789E-05 -9.725199E-06 -6.248576E-05 -0.0001167235 -0.0001738275 -0.0002340262
 -0.0002982861 -0.0003655216 -0.000436058 -0.0005064472 -0.0005760269 -0.0006397053 -0.0006958036 -0.0007423037 -0.0007782433 -0.0008056361
 -0.0008246013 -0.0008368348 -0.0008424885 -0.000839596 -0.0008280604 -0.000805631 -0.0007729196 -0.0007325684 -0.0006859951 -0.0006405026
 -0.0005961439 -0.0005577434 -0.0005222128 -0.0004867991 -0.000447639 -0.0003985884 -0.000338358 -0.0002633614 -0.0001750192 -7.278584E-05
 4.044288E-05 0.000164336 0.0002937875 0.0004272406 0.000561884 0.0006957803 0.0008365622 0.0009843074 0.001152211 0.001341231
 0.001553113 0.001787063 0.002029127 0.002277884 0.002516615 0.002745532 0.002956058 0.003150375 0.003329038 0.003495673
 0.003656752 0.003815194 0.003977722 0.004144007 0.004316404 0.004492601 0.004672139 0.004852295 0.005032781 0.005207869
 0.005376161 0.005532571 0.005674816 0.005808564 0.005933632 0.006061981 0.006194477 0.006333102 0.006477516 0.006620153
 0.006761672 0.006902393 0.00704502 0.007201063 0.007371439 0.007565922 0.007780248 0.008013098 0.008255492 0.008496393
 0.008727576 0.008935889 0.009125002 0.009290034 0.009448303 0.009605708 0.009774567 0.009961899 0.01016057 0.01037133
 0.01058014 0.01078516 0.0109811 0.0111674 0.01134512 0.01151448 0.01167937 0.01184074 0.01200748 0.01217977
 0.01236435 0.01255818 0.01275677 0.01295724 0.01315115 0.01334014 0.01352213 0.01370141 0.01388061 0.01406419
 0.01425599 0.01445707 0.01467092 0.01488806 0.01510788 0.01531577 0.0155078 0.01568289 0.01583935 0.01599137
 0.01613975 0.01629636 0.01646133 0.01663632 0.01682059 0.01701021 0.0172034 0.01739142 0.0175717 0.0177326
 0.0178734 0.01798714 0.0180749 0.01813541 0.01816959 0.01817697 0.01816118 0.01812334 0.01806953 0.01800289
 0.01792556 0.01783864 0.01774301 0.01763749 0.01753302 0.01743003 0.01734476 0.01727845 0.01723793 0.01722314
 0.01723157 0.01726269 0.01731222 0.01737879 0.01745478 0.0175382 0.0176191 0.01769812 0.01777165 0.01784156
 0.01791002 0.01797476 0.01803549 0.01808697 0.01812626 0.01814866 0.01815256 0.01813095 0.01808215 0.01799837
 0.01787714 0.01771876 0.0175221 0.01729781 0.0170463 0.01678453 0.01651358 0.01625413 0.01600656 0.0157851
 0.01558644 0.01540522 0.01523591 0.01506008 0.01487589 0.01467067 0.01444665 0.01420104 0.01393811 0.01365875
 0.01337286 0.01308546 0.01280816 0.0125494 0.01230595 0.01208174 0.01185562 0.01162475 0.01137005 0.011088
 0.01077699 0.01043631 0.01007931 0.009706913 0.009337481 0.008971381 0.008620407 0.008283003 0.007958585 0.007645946
 0.007340705 0.00704431 0.006758065 0.006481883 0.006217604 0.005960579 0.005707203 0.005454068 0.005196996 0.004938028
 0.004676547 0.004416749 0.004159209 0.003909527 0.003668678 0.003441961 0.003230976 0.003030054 0.00283926 0.002641665
 0.002436821 0.002218057 0.00198759 0.001760239 0.001538272 0.001340647 0.001165283 0.001017118 0.0008907506 0.0007782521
 0.0006753997 0.0005723071 0.0004699132 0.0003640547 0.0002617576 0.0001662389 8.291154E-05 1.647863E-05 -3.689602E-05 -7.650416E-05
 -0.0001106489 -0.0001408189 -0.0001726564 -0.0002070068 -0.0002476639 -0.0002951082 -0.0003478815 -0.0004055015 -0.0004551047 -0.0004961057
 -0.0005165651 -0.0005192215 -0.0005098287 -0.0004916203 -0.0004782334 -0.0004676162 -0.0004621269 -0.0004591661 -0.0004541897 -0.0004514291
 -0.0004531176 -0.0004631951 -0.0004879184 -0.0005182712 -0.0005547126 -0.0005777288 -0.0005816417 -0.0005529394 -0.0004857627 -0.0003876337
 -0.0002566685 -0.0001220638 1.443328E-05 0.0001239458 0.0002057404 0.0002550013 0.0002736482 0.0002760798 0.0002629992 0.000244997
 0.0002213924 0.000194264 0.0001660707 0.0001420405 0.0001257777 0.0001258166 0.0001398851 0.0001705818 0.0002096312 0.0002526976
 0.0002929252 0.0003255652 0.0003496465 0.0003629877 0.0003706809 0.0003725591 0.0003779878 0.0003876786 0.0004125741 0.0004535275
 0.000518759 0.0006083589 0.0007203161 0.0008526865 0.00098845 0.001124938 0.001239778 0.001334148 0.001398295 0.001438424
 0.001461639 0.001474469 0.001488742 0.001508637 0.001541967 0.001591538 0.001661815 0.001752422 0.001865669 0.001994732
 0.002139511 0.002287404 0.002436741 0.002573165 0.002694514 0.002792455 0.00286577 0.002920223 0.002956329 0.002988467
 0.003016525 0.003045979 0.003074927 0.003096221 0.003110617 0.003114947 0.00311488 0.003120245 0.00313557 0.003172571
 0.003229557 0.003309815 0.003408425 0.003522896 0.003650244 0.003788494 0.003936279 0.004093658 0.004255836 0.004422897
 0.004584619 0.004739824 0.004879974 0.005004061 0.00511298 0.005206892 0.005291997 0.005368465 0.005439871 0.005506705
 0.005572508 0.005639127 0.005714928 0.005798952 0.005895606 0.005997081 0.00609469 0.006181005 0.006242496 0.006285334
 0.006305956 0.006323771 0.006346805 0.006388711 0.006458159 0.006548545 0.006661539 0.006779829 0.006901077 0.007015919
 0.007123244 0.007222396 0.007313254 0.007392804 0.007461058 0.007515978 0.007559214 0.007598171 0.007633513 0.007672415
 0.007711556 0.00774631 0.007776953 0.007798957 0.007822046 0.007854495 0.007902699 0.007976943 0.008067777 0.008174117
 0.008284499 0.008392049 0.008504624 0.008621387 0.008758896 0.008921197 0.009101721 0.009301526 0.009485804 0.009652969
 0.009776165 0.009858071 0.009913124 0.009946647 0.009994823 0.01005504 0.01014003 0.01024015 0.01033948 0.01043595
 0.01051726 0.01059153 0.01066325 0.01073684 0.01081856 0.01090408 0.01099353 0.01108058 0.01116381 0.01123626
 0.01129612 0.01133925 0.01136348 0.01137942 0.01138714 0.01140786 0.01144247 0.0115013 0.01158308 0.01167959
 0.01178868 0.01189524 0.01199868 0.01208767 0.01216647 0.01223641 0.0123071 0.01239504 0.01250135 0.01263892
 0.01278799 0.0129406 0.01307474 0.01317309 0.01324228 0.01327649 0.01330539 0.01333458 0.0133844 0.01346035
 0.01355653 0.01367386 0.01378632 0.01389265 0.01397087 0.01402311 0.01406144 0.01409168 0.01415234 0.01424199
 0.01437975 0.01455312 0.01474461 0.01494451 0.01512874 0.0152992 0.01544816 0.0155824 0.01570439 0.01581958
 0.01593178 0.01604185 0.01615157 0.01625703 0.01635653 0.01645412 0.01654893 0.01665648 0.01677845 0.01691766
 0.01707396 0.01722843 0.01738071 0.01751974 0.01764773 0.01777198 0.01789172 0.01800894 0.01812019 0.0182175
 0.01830207 0.01837327 0.01842991 0.01847338 0.01849347 0.01848077 0.01843705 0.01835469 0.01826134 0.01816368
 0.01808633 0.01803866 0.0180179 0.01802591 0.01804903 0.0180863 0.01812747 0.01817195 0.0182088 0.01823824
 0.0182575 0.01826921 0.0182857 0.01830935 0.01835429 0.0184215 0.01852104 0.01864987 0.01881245 0.01899204
 0.01917432 0.01934185 0.01947013 0.01957586 0.01965363 0.01974938 0.01988518 0.02005572 0.02027268 0.02046815
 0.02062877 0.02075217 0.02083488 0.02092115 0.02101278 0.0211168 0.0212302 0.0213207 0.02138723 0.02140545
 0.0213813 0.02132159 0.02123184 0.021129 0.02101171 0.02088612 0.02074703 0.02058811 0.02041519 0.02022544
 0.02004171 0.01987552 0.01973926 0.01964412 0.01957387 0.01952656 0.01948968 0.01945917 0.01944614 0.01945187
 0.01947445 0.01951359 0.01954102 0.01955655 0.01954825 0.01951933 0.01948393 0.01943941 0.01938528 0.01931495
 0.01920853 0.01907437 0.01891318 0.01874349 0.01858853 0.01845129 0.01834254 0.01825664 0.01819448 0.01814704
 0.01811575 0.01807343 0.01801315 0.01792048 0.01778681 0.0176524 0.01751858 0.01744277 0.01742783 0.01749134
 0.01763055 0.01782137 0.01805652 0.01828317 0.0184973 0.01864997 0.01875873 0.01883542 0.01890626 0.01902717
 0.01918659 0.01940216 0.01963008 0.01983771 0.02001229 0.02013149 0.02022212 0.02029243 0.02034734 0.02039369
 0.02040624 0.02038094 0.02030852 0.02018649 0.02003034 0.01984092 0.01964745 0.01945326 0.01930748 0.01921159
 0.01920518 0.01927579 0.01940523 0.01957357 0.01972398 0.01985052 0.01991491 0.01992988 0.01989126 0.01982355
 0.01974284 0.01967018 0.01962753 0.01959909 0.01959005 0.01955592 0.01948124 0.01936871 0.01920914 0.01907376
 0.01896868 0.01894232 0.01899738 0.01910332 0.01925638 0.01940076 0.01953596 0.01963078 0.01968788 0.01969783
 0.01966779 0.01960784 0.01952783 0.01944974 0.01937441 0.01931096 0.01925833 0.01921588 0.01919158 0.01919354
 0.01921132 0.01925011 0.01926713 0.01925162 0.01918131 0.01904633 0.01887629 0.01867215 0.01847133 0.01827591
 0.01809989 0.01794342 0.01781332 0.01770758 0.01762073 0.01754608 0.01745436 0.01734717 0.01720834 0.01705591
 0.01691374 0.01679086 0.01671319 0.01666323 0.01663756 0.01661461 0.01657877 0.01652914 0.01645712 0.01638789
 0.01632434 0.01629652 0.01631427 0.01635939 0.01643447 0.0164672 0.01645358</values></Ydata></AB><ScSm><Ydata ylabel="Single channel"><values byteorder="INTEL" format="FLOAT32" numvalues="1814"> 0.06962419 0.06962629 0.069692 0.06984049 0.07004033 0.07023137 0.07036736 0.07044365 0.0704779 0.07047243
 0.07042603 0.07038193 0.07041904 0.07057328 0.0707884 0.07095636 0.07100358 0.0709549 0.07092236 0.07099607
 0.07112051 0.07110754 0.07081448 0.0703091 0.06982459 0.06954339 0.06948526 0.06964716 0.07011513 0.07083625
 0.07136889 0.07120101 0.07039322 0.06960527 0.06936257 0.06955327 0.0697387 0.06965896 0.06931089 0.06885359
 0.0686591 0.06920837 0.07061666 0.07224923 0.07295155 0.07177134 0.06863214 0.06456259 0.06133238 0.06050559
 0.06233024 0.06540696 0.0677416 0.06834204 0.06769841 0.06677735 0.06598469 0.0652834 0.06485375 0.06512839
 0.06618617 0.06735072 0.06753565 0.06616373 0.06385455 0.06199982 0.06150085 0.0621926 0.06357404 0.06535648
 0.06671111 0.06583521 0.06172257 0.05641268 0.05408384 0.05707993 0.06341014 0.06870695 0.07011653 0.06787954
 0.06404473 0.06076974 0.05952743 0.06071004 0.06354207 0.06673057 0.06925724 0.0704276 0.06969768 0.06714399
 0.06392206 0.06170121 0.06163554 0.06391549 0.06773147 0.07134367 0.07287361 0.07169745 0.06886066 0.06596835
 0.06412813 0.06396675 0.06578653 0.06923732 0.07329969 0.07688956 0.07930644 0.08028392 0.08003186 0.07910989
 0.07800432 0.07704943 0.0767334 0.07739793 0.07843758 0.07852837 0.07707546 0.07501096 0.0738328 0.07405562
 0.07480181 0.07486925 0.0739454 0.07240041 0.07009347 0.066375 0.06156559 0.05732689 0.05499921 0.05459345
 0.05579234 0.05846445 0.06148292 0.06265134 0.06110206 0.05883014 0.05869967 0.06139184 0.06506178 0.06761257
 0.06863773 0.06928125 0.07075748 0.07310268 0.07500287 0.07477309 0.07202426 0.06861458 0.0673381 0.06918418
 0.07239467 0.07464352 0.07549716 0.07615837 0.07735638 0.07821095 0.07714246 0.07374025 0.06978106 0.06814189
 0.07029681 0.07483912 0.07849508 0.07854526 0.07466029 0.06898808 0.06447621 0.06282633 0.06403133 0.06749448
 0.07268741 0.07856973 0.08332467 0.08537533 0.08453168 0.0818981 0.07861599 0.07480851 0.07018074 0.06577755
 0.06419738 0.06712921 0.07318328 0.07904914 0.08245126 0.08328279 0.08230738 0.07974016 0.07546522 0.07041561
 0.06703128 0.06736334 0.07060907 0.07357037 0.07401059 0.07269141 0.07171682 0.07188819 0.07241307 0.07255229
 0.07267223 0.07363604 0.07558949 0.07764613 0.07875802 0.07867003 0.07795668 0.07734518 0.07705656 0.07665027
 0.07564913 0.07450183 0.07452673 0.0764683 0.07947064 0.08195575 0.083201 0.08359602 0.08359343 0.0829103
 0.08093967 0.07790069 0.07530799 0.07484985 0.07675368 0.07964451 0.08197577 0.08314177 0.08332577 0.08293553
 0.08232836 0.08169842 0.08113831 0.08088825 0.08127464 0.08224274 0.08325255 0.08382058 0.08391502 0.08371152
 0.08324864 0.08250037 0.08162802 0.08098494 0.08086018 0.08125805 0.08194357 0.08265384 0.08319288 0.08339162
 0.08316614 0.08264817 0.08210769 0.08170959 0.08145945 0.0813715 0.0815222 0.0818993 0.08232972 0.08262306
 0.0827208 0.08267269 0.08253195 0.08231877 0.08205564 0.08180466 0.08166517 0.08170901 0.08189479 0.08208988
 0.08222134 0.08234844 0.08252379 0.08265404 0.0825979 0.08236246 0.08210927 0.0819816 0.08199258 0.08206724
 0.08212116 0.0820762 0.08185754 0.08145791 0.0810205 0.08078451 0.08089465 0.08129811 0.08183634 0.0823617
 0.08275437 0.08293998 0.0829488 0.08288673 0.08281093 0.08268602 0.08247795 0.08224723 0.08213302 0.08224885
 0.08258061 0.08298795 0.08331774 0.08350232 0.08355986 0.08356214 0.08360697 0.08374152 0.08389017 0.0839268
 0.08383555 0.08373996 0.08375706 0.08386879 0.08395518 0.08393279 0.08384617 0.08381814 0.08391531 0.08408666
 0.08424009 0.08434853 0.08446029 0.08461803 0.08478203 0.08484674 0.08475345 0.08457398 0.08444152 0.08440886
 0.08442979 0.08447316 0.08457793 0.08476904 0.08497906 0.0851024 0.08511013 0.08507542 0.0850811 0.085124
 0.08512814 0.08504075 0.08489291 0.08476545 0.08471638 0.08474496 0.084806 0.08484497 0.08482814 0.0847559
 0.08465528 0.08455633 0.08447228 0.08440873 0.08439209 0.08446363 0.08461989 0.08477043 0.08479218 0.08464241
 0.08440576 0.0842172 0.08413943 0.08411995 0.08406231 0.08392445 0.08374192 0.0835731 0.08344549 0.0833513
 0.08327123 0.08319516 0.08313887 0.0831465 0.08325161 0.08341712 0.08353531 0.08351855 0.08338489 0.08323322
 0.08314513 0.08313188 0.08315921 0.08319288 0.08322839 0.0832949 0.08341423 0.08354893 0.08362417 0.08361456
 0.08357627 0.08358507 0.08367829 0.08385463 0.08407662 0.08426556 0.08434959 0.0843398 0.08432406 0.08437207
 0.08447681 0.08459611 0.0847142 0.08484095 0.08497822 0.08511917 0.08527447 0.0854745 0.08573665 0.08603828
 0.0863252 0.08654798 0.08670112 0.08683646 0.08703052 0.08732425 0.0876891 0.08805226 0.08835727 0.0886049
 0.08883836 0.08908927 0.089349 0.08960265 0.08987236 0.0901968 0.09057516 0.09096339 0.09132694 0.09166995
 0.09201134 0.09235689 0.09270313 0.09305667 0.09344038 0.09387261 0.09433222 0.09475347 0.0950776 0.09531221
 0.09552963 0.09580922 0.09618203 0.09660819 0.09699382 0.0972584 0.0974158 0.09757137 0.09781262 0.09812202
 0.09842715 0.0987146 0.09904628 0.0994627 0.09991356 0.1003042 0.1005916 0.1008175 0.1010535 0.101324
 0.101586 0.1017859 0.1019268 0.1020631 0.1022348 0.1024385 0.1026749 0.1029798 0.1033741 0.103809
 0.1041982 0.1044949 0.1047105 0.1048764 0.1050174 0.1051503 0.1052797 0.1054022 0.1055258 0.1056654
 0.105809 0.1059204 0.1059952 0.1060838 0.1062381 0.1064603 0.1067274 0.1070318 0.1073681 0.1077044
 0.1080132 0.1083229 0.1086894 0.1091028 0.1094667 0.1096974 0.1098123 0.1098871 0.1099628 0.1100425
 0.1101543 0.1103527 0.1106503 0.1109946 0.1113227 0.1116133 0.11188 0.1121369 0.1123761 0.1125702
 0.1126938 0.1127531 0.112795 0.1128871 0.1130822 0.1133868 0.1137527 0.1141047 0.1143885 0.1145847
 0.114681 0.1146653 0.1145665 0.1144705 0.1144511 0.114484 0.1144592 0.1142775 0.1139129 0.1133855
 0.1127142 0.111918 0.1110504 0.1102043 0.1094777 0.1089355 0.1086084 0.1085207 0.1087047 0.1091658
 0.1098357 0.1105809 0.1112668 0.111795 0.1120817 0.1120451 0.1116539 0.1109719 0.1101278 0.1092443
 0.1084008 0.1076296 0.106922 0.1062646 0.1057054 0.1053811 0.1054602 0.1060565 0.1071826 0.1087457
 0.1105611 0.1123974 0.1140614 0.1154704 0.1166521 0.1176792 0.118611 0.1194882 0.1203447 0.1211907
 0.1219938 0.1227099 0.1233333 0.1238959 0.124423 0.1249102 0.1253361 0.1256774 0.1259226 0.1260896
 0.1262157 0.1263163 0.1263713 0.1263673 0.1263269 0.1262743 0.1261895 0.1260149 0.125701 0.1252436
 0.1247027 0.1242119 0.1239682 0.1241795 0.1249717 0.126312 0.1280183 0.1298553 0.1316269 0.1331963
 0.1344718 0.1354247 0.1361113 0.136641 0.1371072 0.1375549 0.1379958 0.1384298 0.1388503 0.1392498
 0.1396292 0.1400017 0.1403877 0.140798 0.1412151 0.1415995 0.1419275 0.1422227 0.1425426 0.1429261
 0.1433573 0.1437832 0.1441706 0.1445355 0.1449056 0.1452683 0.1455851 0.1458489 0.1460991 0.1463792
 0.1467061 0.1470749 0.1474626 0.147828 0.1481346 0.1483833 0.1486086 0.1488443 0.1491038 0.149385
 0.1496801 0.1499779 0.1502687 0.150556 0.1508572 0.1511818 0.1515071 0.1517905 0.152012 0.1521956
 0.1523835 0.1525979 0.1528317 0.1530677 0.1533002 0.1535454 0.1538284 0.154152 0.1544811 0.1547673
 0.1549897 0.155169 0.1553445 0.1555446 0.1557759 0.1560286 0.1562869 0.156538 0.1567782 0.1570137
 0.1572539 0.1575019 0.1577529 0.1579992 0.158237 0.1584688 0.1586993 0.1589321 0.1591722 0.1594327
 0.1597273 0.1600478 0.160357 0.1606158 0.1608167 0.1609831 0.1611444 0.1613182 0.1615096 0.1617167
 0.1619356 0.1621648 0.1624036 0.1626469 0.1628863 0.1631181 0.1633462 0.1635761 0.1638085 0.1640408
 0.1642731 0.164511 0.1647612 0.1650245 0.1652913 0.1655474 0.1657821 0.1659971 0.1662072 0.166426
 0.1666493 0.166862 0.1670608 0.1672626 0.1674831 0.1677186 0.1679528 0.1681751 0.168389 0.1686038
 0.1688234 0.1690434 0.169259 0.1694721 0.1696876 0.1699072 0.1701295 0.1703513 0.1705683 0.170779
 0.1709875 0.1712006 0.1714212 0.1716476 0.1718765 0.1721048 0.1723308 0.1725542 0.1727738 0.1729879
 0.1731965 0.1734013 0.1736046 0.1738115 0.1740272 0.174251 0.1744765 0.1747007 0.1749247 0.1751482
 0.175371 0.175596 0.175825 0.1760536 0.1762768 0.1764946 0.176711 0.1769333 0.1771683 0.1774145
 0.177663 0.1779073 0.1781453 0.1783735 0.1785868 0.178786 0.178978 0.1791689 0.1793606 0.1795515
 0.1797395 0.1799279 0.1801233 0.1803276 0.1805375 0.1807517 0.1809695 0.1811869 0.1814005 0.181613
 0.1818281 0.1820467 0.1822682 0.1824902 0.1827091 0.1829271 0.1831514 0.1833847 0.1836225 0.1838586
 0.1840879 0.1843079 0.1845251 0.1847484 0.1849757 0.1851986 0.1854169 0.1856362 0.1858586 0.1860844
 0.1863131 0.1865393 0.1867583 0.1869746 0.1871938 0.1874143 0.1876333 0.1878483 0.1880555 0.1882593
 0.1884772 0.1887172 0.1889644 0.1892007 0.1894217 0.1896327 0.1898455 0.1900742 0.1903177 0.1905569
 0.190781 0.190996 0.1912065 0.1914107 0.1916127 0.1918184 0.1920294 0.1922476 0.1924693 0.19267
 0.1927999 0.1927421 0.1921971 0.1905611 0.1869135 0.1802009 0.1696571 0.1552873 0.1380362 0.1194509
 0.1011094 0.0842106 0.06945971 0.0571637 0.04738464 0.04003808 0.03495412 0.03197995 0.03109166 0.03251422
 0.03684858 0.04471388 0.0554051 0.0657082 0.07115256 0.06953841 0.06303494 0.05620234 0.0522056 0.05128334
 0.05209806 0.05350139 0.05512375 0.05716195 0.05996288 0.06362721 0.06799041 0.07304835 0.07916658 0.08661653
 0.09501426 0.1034764 0.1113796 0.1188508 0.1264654 0.1345448 0.142811 0.1506578 0.157632 0.1636556
 0.1689256 0.1737003 0.1781572 0.1823781 0.1864028 0.1902271 0.1937165 0.1965691 0.1984595 0.1992842
 0.1992839 0.1989108 0.1985619 0.1984197 0.1984967 0.1987588 0.1991847 0.1997605 0.200467 0.2012741
 0.2021412 0.2030303 0.2039177 0.2047855 0.205613 0.2063852 0.207098 0.2077499 0.2083379 0.2088645
 0.2093393 0.2097764 0.2101908 0.21059 0.2109677 0.2113157 0.2116386 0.2119488 0.2122499 0.2125347
 0.2127971 0.2130394 0.2132697 0.2134946 0.2137138 0.2139222 0.2141206 0.2143153 0.2145105 0.2147064
 0.2149056 0.2151114 0.2153212 0.2155287 0.2157294 0.2159218 0.2161055 0.2162836 0.216463 0.2166485
 0.2168414 0.2170408 0.2172443 0.2174468 0.2176436 0.2178333 0.2180192 0.2182086 0.2184072 0.2186156
 0.2188318 0.2190567 0.2192881 0.2195163 0.2197345 0.2199496 0.2201709 0.2203946 0.2206101 0.2208114
 0.2209942 0.2211536 0.2212941 0.2214347 0.2215984 0.2217979 0.2220265 0.2222609 0.2224798 0.2226779
 0.2228604 0.223033 0.2232012 0.2233719 0.2235535 0.2237606 0.2240063 0.2242788 0.2245439 0.2247833
 0.22501 0.2252381 0.2254691 0.2257065 0.2259501 0.2261732 0.2263435 0.2264743 0.2266328 0.2268845
 0.2272289 0.227593 0.2279004 0.2281402 0.2283552 0.2285838 0.2288399 0.2291071 0.229312 0.2293676
 0.2293111 0.2293392 0.2296283 0.2301539 0.230737 0.231226 0.231589 0.2318718 0.2321203 0.2323353
 0.2324761 0.2325107 0.2324855 0.2325412 0.2328145 0.2332973 0.2338313 0.2342695 0.2345895 0.2348348
 0.2350346 0.2352059 0.2353181 0.2352379 0.2348722 0.2344233 0.2343368 0.2348709 0.2358037 0.2366662
 0.237205 0.2375167 0.2377838 0.2380494 0.2382642 0.2383358 0.2380317 0.2371102 0.2357978 0.2349227
 0.2352321 0.2366377 0.2383542 0.23968 0.2404404 0.2408169 0.2410406 0.2412378 0.2413375 0.2410799
 0.2403049 0.2393358 0.2388999 0.2394561 0.2406775 0.2418044 0.2424235 0.2426868 0.2428979 0.2431701
 0.2433499 0.2429821 0.2415686 0.239306 0.2374538 0.2374493 0.2395031 0.2423443 0.2444811 0.2454835
 0.2458576 0.2459441 0.2454228 0.2438957 0.2414777 0.2387341 0.2365296 0.235942 0.2375439 0.2404816
 0.2429561 0.2440032 0.2443028 0.2450185 0.2463988 0.2477742 0.248445 0.2482271 0.2473295 0.2459699
 0.2442766 0.242661 0.242029 0.2431343 0.2456632 0.2483528 0.2501595 0.2510504 0.2514463 0.2509889
 0.2483017 0.242649 0.2359953 0.232448 0.2346267 0.2409218 0.2472231 0.2509581 0.2524916 0.2531918
 0.253606 0.253314 0.2511587 0.2458641 0.2380319 0.2314216 0.2304101 0.2356545 0.2433502 0.248792
 0.2495957 0.2459549 0.2397791 0.2341062 0.2318597 0.2340835 0.2395011 0.2457774 0.2509107 0.2537714
 0.254095 0.25238 0.2498451 0.2481301 0.2481135 0.2486112 0.2472737 0.2435645 0.2396706 0.2372822
 0.2349477 0.2307224 0.2264308 0.2264544 0.2320537 0.2392874 0.2434594 0.2438792 0.2429913 0.2418889
 0.2383988 0.2301871 0.2191796 0.2116144 0.2125861 0.2207619 0.2295814 0.2336796 0.2331375 0.2315318
 0.2311613 0.230733 0.2272332 0.2199027 0.2122009 0.2088934 0.2109765 0.2147826 0.2162988 0.2143464
 0.2091265 0.2009408 0.1925454 0.1899519 0.1973095 0.2117779 0.2257733 0.2332131 0.2316825 0.2210062
 0.2041256 0.1889324 0.1844157 0.1925812 0.2060067 0.2146902 0.2139686 0.2052672 0.1918248 0.1765403
 0.1633786 0.1576853 0.1629444 0.1772964 0.1936661 0.203258 0.2003652 0.1868168 0.1724245 0.1678968
 0.1750533 0.1855791 0.1903757 0.1878386 0.1824646 0.1790477 0.1799282 0.1847 0.1906404 0.1952246
 0.198129 0.1983674 0.1915469 0.1751556 0.1556245 0.1441327 0.1449888 0.1533419 0.1641316 0.1766597
 0.1888796 0.1942388 0.1890744 0.1796034 0.1766848 0.1842851 0.196052 0.203088 0.2027617 0.1992115
 0.1968975 0.1958203 0.1937686 0.1915035 0.1929255 0.1997271 0.2084604 0.2143793 0.2163612 0.2165032
 0.2165316 0.2164887 0.2159384 0.2147404 0.2129643 0.210997 0.2094304 0.2083889 0.2074185 0.2061832
 0.2044272 0.2009223 0.1937503 0.1830323 0.1726573 0.1672356 0.167238 0.1692651 0.1710803 0.1729291
 0.1728583 0.1653901 0.148768 0.1308991 0.1236087 0.1312196 0.1473357 0.1621036 0.1697305 0.1689654
 0.1601595 0.145507 0.1315205 0.1270366 0.1360089 0.15369 0.1716949 0.1852277 0.1936764 0.1966347
 0.1930295 0.184034 0.1742872 0.1692815 0.1719928 0.1815089 0.1933545 0.2006949 0.1976441 0.1850735
 0.1732958 0.1745355 0.1901028 0.2082419 0.2173454 0.2177516 0.2171654 0.2186691 0.2191281 0.2175379
 0.2184417 0.2256474 0.2365858 0.2448273 0.2457176 0.2382129 0.2243046 0.2095111 0.2014533 0.2037389
 0.2118646 0.2181346 0.2191422 0.2153008 0.206245 0.1927499 0.1816272 0.1816325 0.1932945 0.2077171
 0.2166964 0.2201953 0.2226579 0.2253517 0.2248567 0.2182922 0.2081627 0.2008154 0.2001548 0.2042149
 0.2084563 0.2105504 0.2103987 0.2074134 0.2008918 0.1930448 0.1890094 0.1923819 0.2015096 0.2110657
 0.2168293 0.2183157 0.2174814 0.2161988 0.2150016 0.2132623 0.210472 0.2078955 0.2083209 0.2130417
 0.2197332 0.224814 0.2275449 0.2302723 0.2347579 0.2397542 0.2425265 0.241844 0.2391526 0.237316
 0.238323 0.241706 0.2448819 0.2453566 0.2431062 0.2408246 0.2414434 0.2453426 0.2503147 0.2540696
 0.256094 0.2571751 0.2580618 0.2588257 0.2588311 0.2572336 0.2542073 0.2516624 0.2518878 0.2552633
 0.25988 0.2634916 0.2653113 0.2658731 0.2658037 0.2651719 0.2638508 0.2621098 0.2606313 0.2599751
 0.2601764 0.2608906 0.2617622 0.2625794 0.2632386 0.2637214 0.264072 0.2643318 0.2645186 0.2646667
 0.2648084 0.2649078 0.2648982 0.2648158 0.2648164 0.2650024 0.2652868 0.265481 0.2654614 0.2651813
 0.2645774 0.2635849 0.2622477 0.2607041 0.2590312 0.2572011 0.2552952 0.2537283 0.2531261 0.253868
 0.2557397 0.25806 0.2601414 0.2616321 0.2625204 0.2629567 0.2631169 0.2631424 0.2631114 0.263032
 0.2628786 0.2626402 0.2623357 0.2619904 0.2616202 0.2612478 0.2609134 0.260648 0.2604386 0.2602333
 0.2599774 0.2596425 0.2592348 0.2587847 0.2583171 0.2578182 0.2572347 0.2565134 0.2556453 0.254676
 0.2536852 0.2527495 0.251902 0.2511107 0.2503076 0.2494395 0.2484736 0.2473691 0.2461082 0.2447737
 0.243533 0.2424973 0.2416276 0.2407992 0.239915 0.2389338 0.2378448 0.2366616 0.2354224 0.2341662
 0.2329058 0.2316285 0.2303134 0.2289419 0.2274975 0.2259643 0.2243363 0.2226284 0.2208734 0.2190991
 0.217297 0.2153974 0.2132764 0.2107985 0.2078573 0.2043839 0.200354 0.1958228 0.1909445 0.1859347
 0.181004 0.1763175 0.1719888 0.1680985 0.1647191 0.1619241 0.1597733 0.1583001 0.1575135 0.1574058
 0.1579601 0.1591515 0.1609282 0.1631857 0.1657715 0.1685133 0.1712422 0.1738129 0.1761459 0.1782595
 0.1802409 0.1821646 0.1840333 0.1857931 0.187397 0.1888349 0.1901017 0.1911705 0.1920249 0.1926933
 0.193226 0.1936565 0.1940028 0.1942858 0.194524 0.1947236 0.1948875 0.1950323 0.1951904 0.1953988
 0.1956827 0.1960513 0.1965066 0.1970479 0.1976634 0.1983325 0.199036 0.1997607 0.2005017 0.201268
 0.2020736 0.2029223 0.203823 0.2048191 0.2059772 0.2073374 0.2088849 0.2105558 0.2122582 0.2138955
 0.2153865 0.2166679 0.2176961 0.2184613 0.2189912 0.2193295 0.2195151 0.2195759 0.2195242 0.2193656
 0.219119 0.2188167 0.2184717 0.218067 0.2175838 0.2170265 0.2164183 0.2157901 0.2151678 0.2145592
 0.2139562 0.2133532 0.2127578 0.2121842 0.2116421 0.2111243 0.2106031 0.2100544 0.209482 0.2089054
 0.2083334 0.2077558 0.2071443 0.206453 0.2056363 0.2046791 0.2035972 0.2024121 0.2011397 0.1997949
 0.1983912 0.1969383 0.195441 0.1938937 0.1922794 0.1905787 0.1887721 0.1868428 0.184803 0.1827225
 0.1807039 0.1788191 0.177078 0.1754515 0.1739103 0.1724453 0.1710611 0.1697536 0.1685041 0.1672975
 0.1661347 0.1650203 0.1639526 0.1629316 0.1619676 0.1610831 0.1603065 0.1596509 0.1590964 0.1586071
 0.1581652 0.1577766 0.1574578 0.1572327 0.1571205 0.1571014 0.1571054 0.157056 0.156921 0.156721
 0.1565035 0.1563089 0.1561519 0.1560266 0.1559154 0.1557791 0.1555536 0.1551695 0.1545664 0.1536853
 0.1524816 0.1509624 0.1492012 0.1473182 0.1454546 0.1437452 0.1422834 0.1411079 0.1402148 0.1395584
 0.1390564 0.1386311 0.1382616 0.1379952 0.1379049 0.1380076 0.1381985 0.1383089 0.1382749 0.1382183
 0.1383272 0.1386919 0.1392724 0.1399629 0.1406523 0.1412604 0.1417432 0.1420736 0.1422441 0.1422914
 0.1422729 0.1422089 0.1420794 0.1418661 0.141571 0.1412122 0.1408165 0.1403883 0.1398897 0.1392809
 0.1385635 0.137765 0.1369091 0.1359999 0.1349957 0.1338362 0.1325708 0.1314277 0.1306899 0.1305119
 0.1308589 0.131562 0.1324325 0.1333667 0.1342952 0.1350209 0.1352894 0.1351725 0.1352489 0.1361802
 0.1380791 0.1403935 0.1424027 0.1437275 0.1443651 0.1444191 0.1439517 0.1430071 0.1415989 0.1396956
 0.1373145 0.1345709 0.1315971 0.1285286 0.1255662 0.1229097 0.1206504 0.1188064 0.1173764 0.1163925
 0.1159695 0.1157421 0.1138947 0.1081081 0.09913913 0.09242664 0.09352466 0.101848 0.1110663 0.1157914
 0.1158782 0.1142057 0.1127592 0.1118391 0.111353 0.1114549 0.1122754 0.113652 0.1151614 0.1163819
 0.1171597 0.1175498 0.1175121 0.1167002 0.1144261 0.1098901 0.1028315 0.09410632 0.08538574 0.07817025
 0.07313032 0.07015055 0.06864989 0.06791018 0.06743479 0.06717509 0.06741443 0.06843065 0.07027054 0.07279989
 0.07584716 0.0791721 0.08236451 0.0850105 0.08701588 0.08859177 0.08989141 0.09083191 0.09128709 0.09128059
 0.0909484 0.0904256 0.0897985 0.0890904 0.08825392 0.08721586 0.08600231 0.08483295 0.08400032 0.08360296
 0.08347983 0.08343834 0.08342727 0.08345775 0.08349833 0.0835034 0.0834628 0.08341878 0.08347789 0.08374482
 0.08419465 0.08467044 0.08502601 0.08522186 0.08529708 0.08527542 0.08507711 0.08458573 0.0838868 0.08329217
 0.08293609 0.08249976 0.08160402 0.08038191 0.0794024 0.07906447 0.07926176 0.07960567 0.07979016 0.07973149
 0.07953801 0.07945389 0.07971165 0.08026692</values></Ydata></ScSm><ScRf><Ydata ylabel="Single channel"><values byteorder="INTEL" format="FLOAT32" numvalues="1820"> 0.06060979 0.06075926 0.06085378 0.06089318 0.06089988 0.06091697 0.0609898 0.06113469 0.06132337 0.06149975
 0.061619 0.06167628 0.06169244 0.06167738 0.06163274 0.0615925 0.06162333 0.06176083 0.06196024 0.06212421
 0.06218125 0.06215009 0.06213032 0.0622018 0.06231404 0.06230054 0.06203704 0.06158567 0.06115399 0.06090351
 0.0608511 0.06099423 0.06141075 0.06205512 0.0625349 0.06239384 0.061685 0.06099391 0.06078539 0.06095701
 0.06111776 0.06103929 0.06072353 0.06031492 0.06014299 0.06063151 0.06188062 0.06332747 0.06394941 0.06290451
 0.06013005 0.05654261 0.05370719 0.05299623 0.05461747 0.05733408 0.05939415 0.05992871 0.05936854 0.05856135
 0.05786315 0.05724176 0.05685626 0.05708976 0.05801634 0.05904193 0.05920459 0.05799051 0.05594791 0.05430964
 0.05387151 0.05448455 0.05570519 0.05727924 0.05847393 0.05769577 0.05405794 0.04936687 0.04731729 0.04997911
 0.05558859 0.06028144 0.06153381 0.05955997 0.05617434 0.05328809 0.05220407 0.05326425 0.05577605 0.05859376
 0.06081919 0.06184167 0.06118588 0.05892826 0.0560942 0.05415081 0.05410513 0.05612226 0.05949418 0.0626905
 0.06405059 0.06301725 0.06050922 0.05794585 0.05631348 0.05617293 0.05779058 0.06085116 0.06445166 0.06763653
 0.06978557 0.07065561 0.07042629 0.06959816 0.06861642 0.06778802 0.067541 0.06816153 0.06909853 0.06917676
 0.06787796 0.06603873 0.06499156 0.06519008 0.06585135 0.06590904 0.0650908 0.06372768 0.06169058 0.05839781
 0.05413581 0.05038614 0.04834016 0.04800107 0.04908083 0.05146381 0.05415491 0.05520473 0.05383629 0.05181406
 0.0516833 0.05405997 0.05731463 0.05958397 0.06050142 0.06108109 0.06240078 0.06448798 0.0661718 0.06596072
 0.0635203 0.06050823 0.05940422 0.06107745 0.06395486 0.06596527 0.06672883 0.06732325 0.06839994 0.06917525
 0.06824748 0.06525921 0.06179242 0.06039255 0.06235006 0.06640542 0.06965764 0.06970341 0.06625441 0.06121919
 0.05722318 0.05578801 0.05691013 0.06005494 0.0647493 0.07006726 0.07438732 0.07629065 0.07559009 0.07326525
 0.0703464 0.06695627 0.06283313 0.0589125 0.05753246 0.06022122 0.06573562 0.07109532 0.07424381 0.07507333
 0.07425836 0.07198173 0.0681407 0.06360003 0.06059573 0.06099615 0.06405615 0.06684449 0.06731254 0.0661564
 0.06530701 0.06551009 0.06604944 0.06624866 0.06644107 0.06741856 0.06931524 0.07131128 0.07243133 0.07243024
 0.0718389 0.0713413 0.07115096 0.07085685 0.07001196 0.0690394 0.06917365 0.07110196 0.07400772 0.07640418
 0.07762054 0.07804161 0.07811032 0.07756209 0.07581071 0.07304639 0.07069263 0.07034941 0.07224177 0.07507551
 0.07738437 0.07858756 0.07885517 0.07857628 0.07809503 0.07760042 0.07718217 0.07706371 0.0775439 0.07856061
 0.07959999 0.08021218 0.08037777 0.08026655 0.07991146 0.07928687 0.07854901 0.07803233 0.07800307 0.07845974
 0.07918583 0.07994689 0.0805653 0.08087043 0.08076094 0.08035083 0.07990647 0.0796019 0.07945038 0.07946447
 0.0797141 0.08018152 0.08069094 0.08105305 0.08121414 0.08122918 0.08115374 0.08100773 0.08081436 0.08063984
 0.0805862 0.08071876 0.08098324 0.08124191 0.08143218 0.08162948 0.08189349 0.08212265 0.08215848 0.08199576
 0.08179709 0.08171341 0.08176147 0.08186734 0.08195252 0.08194719 0.0817796 0.08144154 0.08107494 0.0809154
 0.08110261 0.08158237 0.08219692 0.08279435 0.08324773 0.08348217 0.08353329 0.08350877 0.08346269 0.08336043
 0.08317783 0.08298789 0.08293378 0.0831202 0.08351763 0.08397537 0.08434136 0.08455677 0.08464786 0.08468993
 0.08478269 0.08497374 0.08518004 0.08526075 0.08519386 0.08511503 0.08515532 0.08529097 0.08538367 0.08534563
 0.08523934 0.08520938 0.08532982 0.08554202 0.08574118 0.08589319 0.08604956 0.08625986 0.08648098 0.08658975
 0.08650997 0.08631329 0.08614943 0.0860863 0.08608116 0.08610417 0.08620296 0.08640867 0.08664365 0.08678474
 0.08680099 0.08678156 0.08682045 0.0869045 0.08693518 0.08684491 0.08666685 0.08649708 0.08641413 0.08643433
 0.08651569 0.08658826 0.08659518 0.08652544 0.0864135 0.08630383 0.08621883 0.08617012 0.086193 0.08633454
 0.08657967 0.08680636 0.08685906 0.08668891 0.08640987 0.08619843 0.08613501 0.08614725 0.08610184 0.08593492
 0.08568963 0.08545069 0.08526869 0.08514196 0.08504378 0.08495702 0.08489758 0.08491118 0.0850253 0.08518596
 0.0852643 0.08516185 0.08490856 0.08463363 0.08444791 0.08437522 0.0843746 0.08439033 0.08439283 0.08440214
 0.08445592 0.08453722 0.08456926 0.08450691 0.08439846 0.08433665 0.084383 0.08454345 0.08476289 0.08493225
 0.08496046 0.08486624 0.08476235 0.08473706 0.08478604 0.08486275 0.0849481 0.08504847 0.08515953 0.08526732
 0.08537909 0.08552833 0.08574056 0.08599908 0.08624776 0.08643012 0.08653609 0.08661947 0.08676326 0.08701415
 0.08734398 0.08767425 0.08793999 0.08813562 0.0883036 0.08848074 0.08866539 0.08884673 0.08904823 0.08931044
 0.08963442 0.08997403 0.09028858 0.09057772 0.09086157 0.09115013 0.09144242 0.09174654 0.09209141 0.09250273
 0.09295282 0.09334978 0.09360866 0.09373784 0.0938399 0.09403046 0.09435654 0.09476215 0.09511679 0.09531517
 0.09538288 0.0954584 0.09564442 0.09590811 0.09616069 0.09639876 0.09670943 0.09714039 0.09761567 0.09800166
 0.09823655 0.09837746 0.09852603 0.09872089 0.09891112 0.09903453 0.09910235 0.09918382 0.0993185 0.09948786
 0.09968293 0.09994786 0.1003168 0.1007418 0.1011272 0.1014193 0.1016283 0.1017831 0.1019014 0.1019875
 0.1020352 0.1020451 0.1020532 0.1021105 0.1022165 0.1023099 0.1023479 0.1023655 0.1024309 0.1025766
 0.1027968 0.1030789 0.1033978 0.1037038 0.103965 0.1042207 0.1045433 0.1049273 0.1052603 0.1054399
 0.1054856 0.1054944 0.1055185 0.1055501 0.1056029 0.1057347 0.1059753 0.106287 0.106616 0.1069471
 0.1072924 0.1076483 0.1079773 0.1082234 0.1083452 0.1083502 0.1083026 0.1082927 0.1083913 0.1086145
 0.108921 0.1092424 0.1095243 0.1097349 0.1098457 0.1098388 0.1097568 0.109713 0.1098026 0.1099979
 0.1101585 0.1101528 0.1099454 0.109571 0.1090646 0.1084474 0.1077637 0.1070976 0.1065394 0.1061421
 0.1059197 0.1058887 0.106089 0.1065395 0.1071781 0.1078788 0.1085304 0.1090626 0.1093961 0.1094282
 0.1091122 0.1085213 0.1077995 0.1070674 0.1063856 0.1057661 0.1051837 0.1046107 0.1040887 0.1037612
 0.1038086 0.1043456 0.1053669 0.1067497 0.1082858 0.1097458 0.1109751 0.1119545 0.1127659 0.1134952
 0.1141772 0.1148246 0.1154667 0.1161225 0.1167581 0.1173175 0.1177929 0.1182282 0.1186541 0.1190553
 0.1193976 0.1196619 0.1198595 0.1200324 0.1202217 0.1204113 0.1205301 0.1205317 0.1204479 0.1203412
 0.1202286 0.1200718 0.1198212 0.1194581 0.1190221 0.1186289 0.1184546 0.1186667 0.1193312 0.12037
 0.1216165 0.1229199 0.1241872 0.1253385 0.1262798 0.1269579 0.1274121 0.1277396 0.1280225 0.1283032
 0.1285993 0.1289095 0.1292157 0.1295007 0.1297664 0.1300344 0.1303318 0.1306693 0.1310217 0.1313394
 0.1315937 0.1318137 0.1320677 0.1324015 0.1327929 0.1331743 0.1335056 0.1338107 0.1341291 0.1344481
 0.1347162 0.1349159 0.1350885 0.135291 0.1355563 0.1358869 0.1362513 0.1365882 0.136846 0.1370283
 0.1371846 0.13736 0.1375668 0.1377986 0.1380482 0.1383096 0.1385771 0.1388534 0.1391491 0.1394632
 0.1397633 0.1400008 0.1401584 0.1402767 0.1404208 0.1406224 0.1408591 0.1410889 0.1412969 0.1415083
 0.1417595 0.142055 0.142354 0.142603 0.1427814 0.1429146 0.1430454 0.1432019 0.1433888 0.1435987
 0.1438197 0.1440372 0.1442408 0.1444346 0.1446329 0.1448431 0.145057 0.145263 0.1454608 0.14566
 0.1458662 0.1460768 0.1462925 0.1465288 0.1468045 0.1471117 0.1474064 0.1476417 0.1478089 0.1479386
 0.148068 0.1482152 0.14838 0.148558 0.1487474 0.1489462 0.1491498 0.1493554 0.1495643 0.149777
 0.1499886 0.1501937 0.1503934 0.1505918 0.1507908 0.150994 0.1512067 0.151428 0.1516477 0.1518559
 0.1520543 0.152252 0.1524553 0.1526593 0.1528526 0.1530304 0.1532034 0.1533878 0.1535888 0.1537984
 0.154006 0.1542065 0.1543994 0.1545865 0.1547705 0.1549552 0.1551442 0.1553379 0.155533 0.1557291
 0.1559307 0.1561382 0.1563433 0.1565406 0.1567355 0.1569356 0.1571402 0.1573435 0.1575415 0.1577322
 0.157916 0.158098 0.1582857 0.1584831 0.1586883 0.1588947 0.1590971 0.1592956 0.1594926 0.1596886
 0.1598846 0.1600834 0.1602836 0.1604806 0.1606777 0.1608857 0.161108 0.1613348 0.1615557 0.1617686
 0.161976 0.1621831 0.1623965 0.1626183 0.1628442 0.1630703 0.1632957 0.1635172 0.1637285 0.1639245
 0.1641029 0.1642667 0.164424 0.1645826 0.1647453 0.1649129 0.1650869 0.1652655 0.1654457 0.1656293
 0.165821 0.166023 0.1662354 0.1664564 0.1666777 0.1668873 0.1670813 0.1672666 0.1674538 0.1676512
 0.167859 0.1680689 0.168274 0.1684785 0.1686886 0.1689024 0.1691149 0.1693253 0.1695333 0.1697394
 0.1699481 0.1701612 0.1703732 0.1705793 0.1707827 0.170988 0.1711975 0.171411 0.1716249 0.171835
 0.1720452 0.1722609 0.1724772 0.1726847 0.1728837 0.1730808 0.1732809 0.173489 0.1737051 0.1739188
 0.1741229 0.1743258 0.174538 0.1747574 0.1749776 0.1751941 0.175402 0.175604 0.1758141 0.1760391
 0.1762699 0.1764974 0.176716 0.1769078 0.1770289 0.1769694 0.1764544 0.1749351 0.1715691 0.1653854
 0.1556756 0.1424429 0.1265565 0.1094407 0.09255249 0.07700344 0.06344759 0.05216216 0.04319202 0.03644998
 0.03177942 0.02904542 0.0282315 0.02954688 0.03354365 0.04078826 0.05062749 0.06010037 0.0650937 0.06359075
 0.05759832 0.05131562 0.04764528 0.04679641 0.0475392 0.04882323 0.05030859 0.05217442 0.05474482 0.05812009
 0.06215119 0.06683242 0.07249689 0.07938989 0.08715589 0.09498542 0.1023075 0.1092332 0.1162836 0.1237533
 0.1313922 0.1386464 0.145097 0.1506683 0.155542 0.159963 0.1641027 0.1680378 0.1717988 0.1753736
 0.1786299 0.1812846 0.1830387 0.1838034 0.1838074 0.183471 0.1831603 0.1830439 0.1831372 0.1834126
 0.1838443 0.1844048 0.1850683 0.1858149 0.1866205 0.1874553 0.1882945 0.1891182 0.1899071 0.1906465
 0.1913274 0.191941 0.1924858 0.1929767 0.1934351 0.1938724 0.1942911 0.1946904 0.1950671 0.1954205
 0.195757 0.1960796 0.1963786 0.1966426 0.1968732 0.1970852 0.1972955 0.1975135 0.1977355 0.1979525
 0.198163 0.1983723 0.1985803 0.1987816 0.1989775 0.1991751 0.1993776 0.1995842 0.1997925 0.1999951
 0.2001828 0.2003554 0.2005236 0.200697 0.2008773 0.2010645 0.2012603 0.201466 0.2016787 0.2018898
 0.2020914 0.202285 0.20248 0.2026815 0.2028886 0.2031014 0.2033186 0.20353 0.2037264 0.203916
 0.2041152 0.2043273 0.2045428 0.2047544 0.2049579 0.2051461 0.2053157 0.2054793 0.2056596 0.2058683
 0.2060933 0.2063114 0.2065136 0.2067112 0.2069137 0.2071136 0.2072974 0.2074622 0.2076214 0.2078022
 0.2080279 0.2082915 0.2085581 0.2088024 0.2090285 0.2092486 0.2094687 0.2096964 0.2099332 0.2101543
 0.2103276 0.2104616 0.2106183 0.210865 0.2112084 0.2115803 0.2119001 0.2121468 0.2123595 0.2125849
 0.2128467 0.2131268 0.2133439 0.2134081 0.2133571 0.2133814 0.2136485 0.2141335 0.2146707 0.2151259
 0.2154759 0.2157631 0.2160243 0.2162537 0.2164066 0.2164487 0.2164245 0.216474 0.2167341 0.2172019
 0.2177274 0.2181644 0.2184833 0.2187235 0.2189198 0.219095 0.2192197 0.2191634 0.2188333 0.2184188
 0.2183419 0.218849 0.2197347 0.220562 0.2210941 0.2214157 0.2216908 0.2219601 0.2221844 0.2222818
 0.2220318 0.2212 0.2199898 0.2191742 0.2194593 0.220771 0.2223779 0.2236242 0.2243485 0.2247224
 0.2249616 0.2251843 0.2253217 0.2251227 0.224429 0.223542 0.223149 0.2236853 0.2248455 0.2259149
 0.2265046 0.2267588 0.2269669 0.2272403 0.2274387 0.2271343 0.2258533 0.2237724 0.2220674 0.2220852
 0.2240274 0.2267099 0.2287373 0.229701 0.2300702 0.2301682 0.2296999 0.2282903 0.2260432 0.2234906
 0.2214476 0.2209258 0.2224593 0.2252418 0.2275817 0.2285798 0.2288879 0.2296063 0.2309625 0.232313
 0.2329878 0.2328107 0.2319859 0.2307284 0.2291641 0.2276798 0.2271271 0.2282136 0.2306415 0.2332186
 0.2349564 0.2358173 0.2362009 0.2357856 0.2332869 0.2280107 0.2217994 0.2185152 0.220618 0.2265851
 0.2325456 0.2360854 0.2375595 0.2382636 0.2387123 0.238502 0.2365304 0.231581 0.2242138 0.2179872
 0.2170593 0.2220682 0.2294102 0.2346166 0.2354203 0.2320036 0.2261791 0.220836 0.218758 0.2209365
 0.2261454 0.2321529 0.2370595 0.239808 0.2401617 0.2385965 0.2362646 0.2347185 0.2347877 0.2353431
 0.2341491 0.230693 0.2270463 0.2248154 0.2226352 0.2186764 0.2146784 0.2147981 0.2202241 0.2272044
 0.2312738 0.2317765 0.2310346 0.2300812 0.2268423 0.2190962 0.2086862 0.2015775 0.2026525 0.2106533
 0.2193152 0.2235103 0.2233168 0.2221541 0.2222087 0.2222091 0.2192216 0.2124982 0.2053918 0.2025255
 0.2048496 0.2087815 0.2104164 0.2086143 0.2035789 0.1956199 0.1874457 0.18493 0.1921246 0.2062711
 0.2199887 0.2273504 0.225989 0.215711 0.1993749 0.1847073 0.1805299 0.1888213 0.2023023 0.2111494
 0.2107676 0.2025351 0.1896229 0.1748994 0.1623224 0.1572403 0.1631559 0.1782295 0.1953598 0.2056506
 0.2032724 0.1900468 0.1759785 0.1720256 0.1800413 0.1914737 0.1969748 0.1949052 0.1898998 0.1869211
 0.1884332 0.1940335 0.2008635 0.2062785 0.2099432 0.2107447 0.2039149 0.186747 0.1661363 0.1540525
 0.155113 0.1641566 0.1758065 0.1893248 0.2024887 0.2082442 0.2026621 0.192419 0.1891607 0.1971427
 0.2095746 0.2169419 0.2164289 0.2124674 0.2098496 0.208604 0.2063812 0.2039939 0.2055998 0.2129935
 0.2224854 0.2290132 0.2313873 0.2318537 0.2322628 0.2326621 0.2325747 0.2318318 0.2304975 0.2289906
 0.227959 0.2275438 0.2272489 0.2267003 0.2256037 0.2225617 0.2153739 0.204122 0.1931523 0.1876413
 0.1881031 0.1907117 0.192979 0.1952021 0.1951723 0.1867094 0.1678376 0.14746 0.1388854 0.1469765
 0.1645283 0.1804557 0.1882834 0.1867004 0.1762216 0.159347 0.143207 0.1373738 0.1460721 0.1641094
 0.182401 0.1958003 0.2037515 0.2059678 0.2014011 0.1912988 0.1805046 0.1747104 0.1769445 0.1862013
 0.197837 0.2048385 0.2012167 0.187903 0.1754176 0.1761784 0.1915056 0.209476 0.2183236 0.2183823
 0.2174604 0.2187099 0.218984 0.21725 0.218061 0.225253 0.2362654 0.2446587 0.2457729 0.2385649
 0.22503 0.210714 0.2032874 0.2063573 0.215305 0.2222704 0.2237503 0.2201346 0.2110599 0.1973962
 0.1862134 0.1865196 0.1988188 0.2139319 0.223427 0.2272913 0.2301099 0.2331762 0.2329493 0.2264584
 0.2163072 0.2090784 0.2088219 0.2134979 0.2183961 0.221102 0.2215039 0.2189475 0.2126497 0.2049181
 0.2011834 0.2052526 0.2153343 0.2257023 0.2318114 0.2331207 0.2317097 0.2295875 0.2273725 0.2244778
 0.2204277 0.2165707 0.2158338 0.2196053 0.2255242 0.2298987 0.2319306 0.2339948 0.2379036 0.2424183
 0.2447681 0.2436777 0.2405761 0.2383409 0.2389813 0.2420427 0.2449507 0.2452134 0.2427956 0.2403745
 0.2408738 0.2446786 0.2495931 0.2533376 0.2554003 0.2565592 0.2575479 0.2584178 0.2585055 0.2569371
 0.2538679 0.2512017 0.2512364 0.2543809 0.2587705 0.2621986 0.2638947 0.2643864 0.2642848 0.263649
 0.2623488 0.2606453 0.2592054 0.2585816 0.2588142 0.2595581 0.2604425 0.2612408 0.2618513 0.2622692
 0.2625468 0.2627212 0.262808 0.2628582 0.2629312 0.2629956 0.2629595 0.2628418 0.2628149 0.2630081
 0.2633336 0.2635804 0.2636145 0.2633991 0.2628768 0.261973 0.2607242 0.259279 0.2577247 0.2560274
 0.2542565 0.252827 0.2523682 0.2532539 0.2552587 0.2576968 0.259883 0.2614706 0.2624519 0.2629748
 0.263206 0.2632846 0.2632978 0.2632638 0.2631534 0.2629426 0.2626408 0.2622764 0.2618754 0.2614651
 0.2610831 0.2607601 0.2604895 0.2602239 0.2599061 0.2595037 0.2590208 0.2584901 0.2579455 0.2573858
 0.2567636 0.2560225 0.25515 0.2541953 0.2532412 0.2523574 0.2515609 0.2508114 0.2500508 0.2492442
 0.2483681 0.2473808 0.2462569 0.245067 0.2439717 0.2430971 0.2424291 0.2418457 0.2412211 0.2404804
 0.2395958 0.2385848 0.2375037 0.2364089 0.2353183 0.2342147 0.2330698 0.2318521 0.2305341 0.2291094
 0.227593 0.226004 0.2243636 0.2227027 0.2210346 0.2193044 0.2173752 0.2150751 0.2122625 0.2088663
 0.2048947 0.2004294 0.1956181 0.1906579 0.1857556 0.181083 0.1767651 0.1728985 0.1695665 0.1668371
 0.1647608 0.1633725 0.1626914 0.1627212 0.1634499 0.164841 0.1668213 0.16928 0.1720772 0.1750515
 0.1780306 0.1808571 0.1834328 0.1857555 0.1879023 0.1899473 0.1918933 0.1936906 0.1953021 0.1967231
 0.1979511 0.1989761 0.199808 0.2004888 0.2010679 0.2015719 0.202005 0.2023712 0.2026836 0.2029516
 0.2031735 0.2033541 0.2035153 0.2036806 0.2038614 0.2040659 0.2043139 0.2046334 0.2050471 0.2055554
 0.2061259 0.2067096 0.207277 0.2078339 0.2084042 0.2090162 0.209707 0.2105207 0.2114887 0.2126161
 0.2138807 0.2152386 0.2166272 0.2179689 0.2191806 0.2201917 0.2209614 0.2214819 0.2217696 0.221858
 0.2217887 0.2215987 0.2213124 0.2209456 0.2205077 0.2200028 0.2194341 0.2188121 0.218152 0.2174641
 0.2167519 0.2160242 0.2153014 0.2146059 0.2139434 0.2133037 0.2126792 0.2120724 0.2114862 0.2109167
 0.2103579 0.2098039 0.2092464 0.2086811 0.2081134 0.2075399 0.2069241 0.2062089 0.2053643 0.2044126
 0.203397 0.2023279 0.2011734 0.1999012 0.1985175 0.1970556 0.1955383 0.1939663 0.1923349 0.1906401
 0.188862 0.1869666 0.18495 0.1828778 0.1808602 0.1789837 0.1772748 0.1757154 0.174271 0.1729063
 0.1715938 0.1703186 0.1690776 0.1678796 0.166743 0.165682 0.1646964 0.163776 0.1629125 0.1621078
 0.1613789 0.1607466 0.160209 0.1597366 0.1593028 0.1589126 0.1585995 0.1584063 0.1583557 0.1584206
 0.158524 0.1585856 0.1585656 0.1584709 0.1583379 0.158208 0.1581037 0.1580246 0.1579588 0.1578778
 0.157719 0.1573938 0.1568187 0.1559383 0.1547371 0.1532461 0.1515341 0.1497009 0.1478773 0.1461983
 0.144756 0.1435895 0.1427037 0.1420603 0.1415696 0.1411506 0.1407992 0.1405783 0.1405535 0.1407264
 0.1409972 0.1412123 0.1412994 0.1413444 0.1415108 0.1419091 0.1425398 0.143307 0.1440753 0.1447479
 0.1452895 0.1456819 0.1459141 0.1460146 0.1460322 0.1459824 0.1458568 0.145661 0.1454087 0.1451083
 0.1447683 0.1443806 0.1439128 0.1433487 0.1427012 0.1419705 0.1411442 0.1402282 0.1392141 0.138066
 0.1368296 0.1357121 0.1349839 0.1348208 0.1352295 0.136054 0.1370738 0.1381492 0.1391986 0.1400249
 0.1403729 0.1403192 0.1404606 0.1414893 0.1435407 0.1460459 0.1482355 0.1497011 0.150446 0.1505777
 0.15015 0.1492067 0.1477587 0.1457563 0.1432175 0.1402991 0.1371728 0.1339793 0.1309121 0.1281668
 0.1258276 0.1239121 0.1224331 0.1214396 0.1210615 0.1209166 0.1190796 0.1130894 0.103746 0.09678368
 0.09802423 0.1068218 0.116536 0.1215438 0.1216937 0.1199736 0.1184467 0.1174384 0.1168699 0.1169079
 0.1176818 0.1190256 0.1205228 0.121752 0.1225407 0.1229337 0.1228975 0.1220673 0.1196967 0.1149391
 0.1075359 0.09838275 0.08921678 0.08161724 0.07630536 0.07316395 0.07158057 0.07079817 0.07028152 0.06997056
 0.07018157 0.07123542 0.07319283 0.07590262 0.07915506 0.08266983 0.08603121 0.08885117 0.09103708 0.09276579
 0.09417248 0.09518574 0.09567891 0.09565838 0.09525868 0.09463377 0.0938991 0.09311721 0.09226428 0.09124187
 0.09002626 0.08881663 0.08792404 0.08747792 0.08733433 0.08728419 0.08724087 0.0872148 0.08722078 0.08724535
 0.08725806 0.0872637 0.0873507 0.08762304 0.08806533 0.08853285 0.08888167 0.08907258 0.08915403 0.08914375
 0.08892532 0.08835794 0.08755046 0.08685546 0.08642381 0.0859271 0.08496433 0.08365358 0.0825801 0.08218062
 0.08236236 0.08271082 0.08288756 0.08280077 0.08257987 0.08249966 0.0827907 0.08336248 0.08379172 0.08373022
</values></Ydata></ScRf><Data_Parameters_AB><parameter name="DPF">1</parameter><parameter name="NPT">3497</parameter><parameter name="FXV">3996</parameter><parameter name="LXV">500</parameter><parameter name="CSF">1</parameter><parameter name="MXY">0.0527286939322948</parameter><parameter name="MNY">-0.0581250339746475</parameter><parameter name="DAT">27/05/2022</parameter><parameter name="TIM">12:16:21.910 (GMT+2)</parameter><parameter name="DXU">WN</parameter></Data_Parameters_AB><AB__Qtest><MainReport name="Quality Test Report"><Header><Line><Legend>Test result ok/not ok [1/0]: </Legend><Value>0</Value></Line><Line><Legend>Method file: </Legend><Value>C:\Users\Public\Documents\Bruker\OPUS_8.2.28\QT\IRBT_v3_default.QT</Value></Line></Header><Matrix><Line><Legend></Legend><Legend>min</Legend><Legend>max</Legend><Legend>measured</Legend></Line><Line><Value>Absorption (X-Range 1):</Value><Value>0.400000</Value><Value>2.000000</Value><Value>0.064623</Value></Line><Line><Value>Noise (X-Range 4):</Value><Value></Value><Value>0.000300</Value><Value>0.000036</Value></Line><Line><Value>Signal/Noise (X-Range 2):</Value><Value>200.000000</Value><Value></Value><Value>29.148153</Value></Line><Line><Value>Signal/Noise (X-Range 3):</Value><Value>40.000000</Value><Value></Value><Value>16.490556</Value></Line><Line><Value>Water vapour (X-Range 5):</Value><Value></Value><Value>0.000300</Value><Value>0.000057</Value></Line><Line><Value>Signal/Water (X-Range 2):</Value><Value>100.000000</Value><Value></Value><Value>18.140826</Value></Line><Line><Value>Signal/Water (X-Range 3):</Value><Value>20.000000</Value><Value></Value><Value>10.263165</Value></Line><Line><Value>Fringes (X-Range 6):</Value><Value></Value><Value>0.000100</Value><Value>0.000050</Value></Line></Matrix></MainReport></AB__Qtest><Data_Parameters_ScSm><parameter name="DPF">1</parameter><parameter name="NPT">1814</parameter><parameter name="FXV">3996.33169228125</parameter><parameter name="LXV">499.541461535156</parameter><parameter name="CSF">1</parameter><parameter name="MXY">0.2658731341362</parameter><parameter name="MNY">0.0310916639864445</parameter><parameter name="DAT">27/05/2022</parameter><parameter name="TIM">12:16:21.910 (GMT+2)</parameter><parameter name="DXU">WN</parameter></Data_Parameters_ScSm><Data_Parameters_ScRf><parameter name="DPF">1</parameter><parameter name="NPT">1820</parameter><parameter name="FXV">4004.04661832813</parameter><parameter name="LXV">495.683998511719</parameter><parameter name="CSF">1</parameter><parameter name="MXY">0.264386415481567</parameter><parameter name="MNY">0.0282314978539944</parameter><parameter name="DAT">27/05/2022</parameter><parameter name="TIM">12:15:55.036 (GMT+2)</parameter><parameter name="DXU">WN</parameter></Data_Parameters_ScRf><Optic_Parameters_Rf><parameter name="APR">0</parameter><parameter name="APT">Open</parameter><parameter name="BMS">KBr</parameter><parameter name="DTC">RT-DLaTGS_IR-Biotyper [Microplate reader]</parameter><parameter name="HPF">0</parameter><parameter name="LPF">10.0</parameter><parameter name="LPV">4000</parameter><parameter name="PGR">0</parameter><parameter name="RCH">Module port</parameter><parameter name="RDX">0</parameter><parameter name="SRC">MIR</parameter><parameter name="VEL">10.0</parameter><parameter name="SON">Off</parameter></Optic_Parameters_Rf><Acquisition_Parameters_Rf><parameter name="ADT">1</parameter><parameter name="AQM">DD</parameter><parameter name="CFE">0</parameter><parameter name="COR">0</parameter><parameter name="DEL">0</parameter><parameter name="DLY">0</parameter><parameter name="HFW">8000</parameter><parameter name="LFW">0</parameter><parameter name="NSR">32</parameter><parameter name="PLF">AB</parameter><parameter name="RES">6</parameter><parameter name="RGN">-1</parameter><parameter name="STR">0</parameter><parameter name="TCL">MakeCompatibleScalar (0, {WSV=1.000000, ARV=0});</parameter><parameter name="TDL">37</parameter><parameter name="RPO">0</parameter></Acquisition_Parameters_Rf><FT_-_Parameters_Rf><parameter name="APF">B3</parameter><parameter name="HFQ">500</parameter><parameter name="LFQ">4000</parameter><parameter name="NLI">0</parameter><parameter name="PHR">24</parameter><parameter name="PHZ">ML</parameter><parameter name="SPZ">NO</parameter><parameter name="ZFF">1</parameter></FT_-_Parameters_Rf><Optic_Parameters_><parameter name="APR">0</parameter><parameter name="APT">Open</parameter><parameter name="BMS">KBr</parameter><parameter name="CHN">Module port</parameter><parameter name="DTC">RT-DLaTGS_IR-Biotyper [Microplate reader]</parameter><parameter name="HPF">0</parameter><parameter name="LPF">10.0</parameter><parameter name="LPV">4000</parameter><parameter name="PGN">0</parameter><parameter name="RDX">0</parameter><parameter name="SRC">MIR</parameter><parameter name="VEL">10.0</parameter><parameter name="SON">Off</parameter></Optic_Parameters_><FT_-_Parameters_><parameter name="APF">B3</parameter><parameter name="HFQ">500</parameter><parameter name="LFQ">4000</parameter><parameter name="NLI">0</parameter><parameter name="PHR">24</parameter><parameter name="PHZ">ML</parameter><parameter name="SPZ">NO</parameter><parameter name="ZFF">1</parameter></FT_-_Parameters_><Acquisition_Parameters_><parameter name="ADT">1</parameter><parameter name="AQM">DD</parameter><parameter name="CFE">0</parameter><parameter name="COR">0</parameter><parameter name="DEL">0</parameter><parameter name="DLY">0</parameter><parameter name="HFW">8000</parameter><parameter name="LFW">0</parameter><parameter name="NSS">32</parameter><parameter name="PLF">AB</parameter><parameter name="RES">6</parameter><parameter name="SOT">0</parameter><parameter name="TCL">MakeCompatibleScalar (0, {WSV=1.000000, ARV=0});</parameter><parameter name="TDL">37</parameter><parameter name="SPO">0</parameter><parameter name="SGN">-1</parameter></Acquisition_Parameters_><Instrument_Parameters_Rf><parameter name="HFL">15800.168544</parameter><parameter name="LFL">0</parameter><parameter name="LWN">15800.168544</parameter><parameter name="ABP">32197</parameter><parameter name="SSP">1</parameter><parameter name="ARG">2</parameter><parameter name="ASG">2</parameter><parameter name="ASS">32</parameter><parameter name="GFW">16</parameter><parameter name="GBW">16</parameter><parameter name="BFW">0</parameter><parameter name="BBW">0</parameter><parameter name="PKA">7266</parameter><parameter name="PKL">4996</parameter><parameter name="PRA">7452</parameter><parameter name="PRL">5001</parameter><parameter name="P2A">1</parameter><parameter name="P2L">1</parameter><parameter name="P2R">1</parameter><parameter name="P2K">1</parameter><parameter name="DAQ">0</parameter><parameter name="AG2">1</parameter><parameter name="SSM">1</parameter><parameter name="RSN">24954</parameter><parameter name="CRR">0</parameter><parameter name="SRT">1653653755.037</parameter><parameter name="DUR">19.6369934082031</parameter><parameter name="TSC">27.9</parameter><parameter name="MVD">0.607434809207916</parameter><parameter name="AN1">0.225807012896311</parameter><parameter name="AN2">0</parameter><parameter name="VSN">2.485 Apr  4 2017</parameter><parameter name="SRN">0085</parameter><parameter name="CAM">0</parameter><parameter name="INS">IR-Biotyper</parameter><parameter name="FOC">69</parameter><parameter name="RDY">1</parameter><parameter name="ARS">32</parameter></Instrument_Parameters_Rf><Sample_Parameters_><parameter name="BLD"></parameter><parameter name="CNM">Admin</parameter><parameter name="CPY"></parameter><parameter name="DPM"></parameter><parameter name="EXP">IRBT_v3_32Scans.XPM</parameter><parameter name="LCT"></parameter><parameter name="SFM">Microplate, HTS-XT</parameter><parameter name="SNM">220527-1039(v.2)_CLA33F (D_4)_E10_074e25eb-f1e8-4f48-8e4a-d82982974d5b.0</parameter><parameter name="XPP">C:\Users\Public\Documents\Bruker\OPUS_8.2.28\XPM</parameter><parameter name="IST">OK</parameter><parameter name="CPG">1252</parameter><parameter name="UID">7140d90c-5467-4203-ae67-e9b8172b5e96</parameter></Sample_Parameters_><Instrument_Parameters_><parameter name="HFL">15800.168544</parameter><parameter name="LFL">0</parameter><parameter name="LWN">15800.168544</parameter><parameter name="ABP">32197</parameter><parameter name="SSP">1</parameter><parameter name="ASG">2</parameter><parameter name="ARG">2</parameter><parameter name="ASS">32</parameter><parameter name="GFW">16</parameter><parameter name="GBW">16</parameter><parameter name="BFW">0</parameter><parameter name="BBW">0</parameter><parameter name="PKA">7497</parameter><parameter name="PKL">4988</parameter><parameter name="PRA">7795</parameter><parameter name="PRL">4993</parameter><parameter name="P2A">1</parameter><parameter name="P2L">1</parameter><parameter name="P2R">1</parameter><parameter name="P2K">1</parameter><parameter name="DAQ">0</parameter><parameter name="AG2">1</parameter><parameter name="SSM">1</parameter><parameter name="RSN">13103</parameter><parameter name="CRR">0</parameter><parameter name="SRT">1653653781.91</parameter><parameter name="DUR">19.635986328125</parameter><parameter name="TSC">27.9</parameter><parameter name="MVD">0.253695607185364</parameter><parameter name="AN1">0.22581158989458</parameter><parameter name="AN2">0</parameter><parameter name="VSN">2.485 Apr  4 2017</parameter><parameter name="SRN">0085</parameter><parameter name="CAM">0</parameter><parameter name="INS">IR-Biotyper</parameter><parameter name="FOC">69</parameter><parameter name="RDY">1</parameter></Instrument_Parameters_><History/></OPUSDataFile>
