<?xml version="1.0" encoding="UTF-8" ?>
<OPUSDataFile><AB><Ydata ylabel="Absorbance Units"><values byteorder="INTEL" format="FLOAT32" numvalues="3497"> -0.02947438 -0.02949742 -0.02951599 -0.02953056 -0.02953378 -0.02952529 -0.02950423 -0.02947113 -0.02943167 -0.02938734
 -0.02934982 -0.02931978 -0.02930635 -0.02930775 -0.0293244 -0.02935437 -0.02939441 -0.02944446 -0.02950471 -0.0295708
 -0.02964159 -0.02970656 -0.0297586 -0.0297958 -0.02981246 -0.02982495 -0.0298354 -0.02986111 -0.02990685 -0.02996899
 -0.03004868 -0.03012563 -0.03019876 -0.03025225 -0.03028642 -0.03030121 -0.03029855 -0.0302894 -0.0302756 -0.03026965
 -0.03027137 -0.03028717 -0.03031453 -0.03035278 -0.03039815 -0.03044695 -0.03049412 -0.03053585 -0.03056457 -0.03057584
 -0.03056287 -0.03052051 -0.03045267 -0.03035624 -0.03025304 -0.03014424 -0.0300607 -0.03000584 -0.02999612 -0.03003266
 -0.03010251 -0.0302034 -0.03030133 -0.03039549 -0.030462 -0.03050611 -0.03053375 -0.03055065 -0.03057493 -0.03060552
 -0.03064941 -0.03070214 -0.03076169 -0.03082322 -0.03088401 -0.03093515 -0.03097175 -0.03098563 -0.03096925 -0.03093387
 -0.03087723 -0.03082992 -0.03079629 -0.0307996 -0.03084345 -0.0309294 -0.03105777 -0.03121578 -0.0314016 -0.03159
 -0.0317758 -0.03191447 -0.03200255 -0.03199656 -0.03191229 -0.03176029 -0.03157011 -0.03139923 -0.03125653 -0.03118104
 -0.03115222 -0.03117022 -0.03120317 -0.03123209 -0.03124225 -0.03121812 -0.03118053 -0.03112911 -0.03109774 -0.03109399
 -0.03112453 -0.031193 -0.03126926 -0.03135177 -0.03141133 -0.03144916 -0.03147746 -0.03150101 -0.03155841 -0.0316469
 -0.03178163 -0.03194625 -0.03210985 -0.03225624 -0.03233733 -0.03236501 -0.03232832 -0.03226017 -0.03218751 -0.03211982
 -0.0320725 -0.0320355 -0.0320023 -0.03199131 -0.03200123 -0.03207434 -0.03222085 -0.0324462 -0.03275879 -0.03306847
 -0.03337118 -0.0334888 -0.03342165 -0.0331341 -0.03265882 -0.03219856 -0.03175973 -0.03147815 -0.03132769 -0.03131162
 -0.03140515 -0.03157305 -0.03178546 -0.03199856 -0.03217851 -0.03227816 -0.03229755 -0.03221078 -0.0320764 -0.03190815
 -0.03176278 -0.03166414 -0.03160781 -0.03159847 -0.03161039 -0.03163977 -0.0316905 -0.0317625 -0.03187231 -0.03201862
 -0.03218511 -0.03236519 -0.03250689 -0.03260729 -0.03262325 -0.03256619 -0.03244002 -0.03226324 -0.03206861 -0.0318702
 -0.03169669 -0.03155764 -0.03147093 -0.03143794 -0.03146689 -0.03154613 -0.0316762 -0.03183382 -0.03201585 -0.03219139
 -0.03235648 -0.03247811 -0.03255236 -0.03255785 -0.03249275 -0.03236729 -0.03218354 -0.03197759 -0.03175095 -0.03153073
 -0.03131644 -0.03111823 -0.03094002 -0.03079603 -0.03069155 -0.03064591 -0.03065143 -0.03071231 -0.03080273 -0.03090494
 -0.03099271 -0.03104236 -0.03105398 -0.03101666 -0.03095986 -0.03088693 -0.03083315 -0.03080625 -0.03082029 -0.03087913
 -0.03097039 -0.03109372 -0.03122456 -0.03136138 -0.03147713 -0.03157088 -0.03162065 -0.03163043 -0.03160127 -0.03154334
 -0.03148333 -0.0314276 -0.03140133 -0.03140111 -0.03143213 -0.03149148 -0.03157492 -0.0316918 -0.03184644 -0.03204586
 -0.03230078 -0.03258446 -0.03289912 -0.03318373 -0.03342793 -0.03359016 -0.03366272 -0.03364911 -0.03354914 -0.03336127
 -0.0330869 -0.03274383 -0.03234353 -0.03197624 -0.03164901 -0.03144521 -0.03134754 -0.03135954 -0.03144807 -0.03155667
 -0.03166065 -0.03169653 -0.03168519 -0.03161594 -0.03153498 -0.03147087 -0.03143876 -0.03145786 -0.03150376 -0.03157861
 -0.03163383 -0.03166108 -0.03162617 -0.03152049 -0.03137058 -0.03117664 -0.03101208 -0.03087975 -0.03083504 -0.03087227
 -0.03098455 -0.03115313 -0.03130027 -0.03140984 -0.03138561 -0.03125818 -0.03102864 -0.03075482 -0.0305215 -0.03033148
 -0.03022848 -0.03016126 -0.03011271 -0.03003824 -0.02990588 -0.02973321 -0.02951102 -0.02930231 -0.02911921 -0.02899165
 -0.02892938 -0.02888828 -0.02886708 -0.02877937 -0.02862363 -0.02836839 -0.02802809 -0.02769488 -0.0273784 -0.02717509
 -0.02706574 -0.02704759 -0.02710177 -0.02719178 -0.02730955 -0.02743546 -0.02755136 -0.02763992 -0.02767328 -0.02762546
 -0.02749733 -0.02727825 -0.02699592 -0.0266589 -0.02627143 -0.02583486 -0.0253534 -0.02482445 -0.0242893 -0.02375029
 -0.0232486 -0.02278518 -0.0223727 -0.02201067 -0.02170166 -0.02144572 -0.02124631 -0.02109997 -0.02100182 -0.0209424
 -0.02090658 -0.02087544 -0.02082736 -0.02072359 -0.02052307 -0.0201994 -0.01970191 -0.01910578 -0.01841693 -0.01775436
 -0.01716521 -0.01665895 -0.01625192 -0.01588459 -0.0155515 -0.01521255 -0.01486395 -0.01450921 -0.01414972 -0.01381809
 -0.01351426 -0.01325997 -0.01304039 -0.01281228 -0.01254566 -0.01212383 -0.01155982 -0.01079642 -0.009929533 -0.009065692
 -0.008261216 -0.007624452 -0.007109301 -0.006726966 -0.006398156 -0.006091109 -0.005756187 -0.005366318 -0.004932086 -0.004448676
 -0.003949899 -0.003441652 -0.002920201 -0.002386496 -0.001803239 -0.001169918 -0.0004789912 0.0002620894 0.0009979348 0.001723242
 0.002381595 0.002982837 0.003524038 0.004019035 0.004492983 0.004953362 0.005419715 0.005896192 0.006395142 0.006911153
 0.007447103 0.007987221 0.008520185 0.009057363 0.00959109 0.01017875 0.01083304 0.01157699 0.01242439 0.01327933
 0.01413727 0.01487925 0.01550369 0.01600847 0.01640444 0.01677689 0.01713144 0.0175414 0.01799566 0.01850446
 0.01904676 0.01958492 0.02011104 0.0205908 0.02104857 0.02148695 0.02195261 0.02247984 0.02308405 0.02379413
 0.02455336 0.02535619 0.02613036 0.02685727 0.02751655 0.02810036 0.02863524 0.02912185 0.02960282 0.03007977
 0.03057838 0.0310969 0.03163135 0.03218168 0.03274303 0.03332251 0.03394099 0.0345971 0.03530759 0.03604291
 0.03677385 0.03746692 0.03807198 0.03859891 0.039031 0.03941379 0.03976508 0.04010951 0.04046362 0.04080921
 0.04114537 0.04145406 0.04172894 0.04200053 0.04226935 0.04259777 0.04298766 0.04346535 0.04402331 0.04461233
 0.04522146 0.04577062 0.04626585 0.04667645 0.04702911 0.04736147 0.04769399 0.04807855 0.04849944 0.04896852
 0.04944138 0.04989054 0.05029312 0.05062075 0.05091261 0.05116699 0.0514567 0.05179823 0.05222565 0.05275045
 0.05333554 0.05398038 0.05461642 0.05524095 0.05581266 0.05633401 0.05680781 0.05723753 0.05764018 0.0580165
 0.05837513 0.05872056 0.05906317 0.05941293 0.0597903 0.06019402 0.06063458 0.06109392 0.06156106 0.06203071
 0.06249283 0.06296775 0.06346326 0.06397737 0.06451787 0.06503328 0.06551676 0.0659403 0.0662981 0.06665751
 0.06702292 0.06749857 0.06808033 0.06878407 0.06958624 0.07038693 0.07116675 0.07180899 0.07232773 0.07268698
 0.07292958 0.07310002 0.07323043 0.07337439 0.07352574 0.07369784 0.07387276 0.0740396 0.07420987 0.0743816
 0.07458209 0.07481886 0.07509509 0.07541382 0.07575692 0.07612325 0.07649995 0.07688651 0.07727622 0.07766976
 0.07806739 0.07847466 0.07891787 0.07940173 0.07996152 0.08058068 0.08125047 0.08193429 0.08257505 0.08315417
 0.08362422 0.08400829 0.08430383 0.0845471 0.08475724 0.08494513 0.08511996 0.08527447 0.08540606 0.08552426
 0.08562751 0.08574817 0.08588842 0.08607591 0.0863115 0.08659866 0.08693602 0.08731309 0.08772828 0.08817064
 0.08863564 0.08910676 0.08957408 0.0900089 0.09040635 0.09074119 0.0910311 0.09127794 0.09151781 0.09177815
 0.09207404 0.09242991 0.09280637 0.09320175 0.09355497 0.09384781 0.09407287 0.094221 0.09435191 0.0944697
 0.09461957 0.0948021 0.09498218 0.09515498 0.09525567 0.0952911 0.09525579 0.09516978 0.09509187 0.09503489
 0.0950577 0.0951526 0.09533778 0.09558966 0.0958939 0.09622421 0.09655632 0.09688186 0.09718531 0.09748872
 0.09779457 0.09812847 0.09850219 0.09889504 0.09931117 0.09968018 0.09999693 0.1002054 0.1003042 0.1003087
 0.1002252 0.1001201 0.09999575 0.09990007 0.09982748 0.09978176 0.09976625 0.09978448 0.09985466 0.1000102
 0.1002478 0.1005922 0.1009853 0.1014028 0.1017725 0.102044 0.1022163 0.102264 0.1022689 0.1022415
 0.1022621 0.1023483 0.1025003 0.1027227 0.1029462 0.1031672 0.1033138 0.1033869 0.1033653 0.1032601
 0.1031113 0.1029344 0.1027997 0.1027128 0.1027262 0.1028204 0.1029975 0.1032149 0.1034327 0.1036131
 0.1037108 0.1037308 0.1036545 0.1035317 0.1033715 0.1032259 0.1031094 0.1030435 0.103033 0.1030897
 0.1032141 0.1034356 0.1037556 0.1041923 0.1047397 0.1053477 0.1059984 0.1065736 0.1070611 0.107351
 0.107464 0.1073777 0.107151 0.1068555 0.1065524 0.1063395 0.1062237 0.1062566 0.1063689 0.1065505
 0.1067032 0.1067903 0.1067594 0.1065843 0.1062927 0.1058792 0.1054234 0.1049308 0.1044716 0.1040487
 0.1036832 0.1033726 0.1031007 0.1028663 0.1026552 0.1024709 0.1023183 0.1021971 0.1021148 0.1020548
 0.102003 0.1019236 0.1017778 0.1015319 0.1011427 0.1006185 0.09993917 0.09917103 0.09832459 0.09748411
 0.09667163 0.09593192 0.09527761 0.09470252 0.09420849 0.09376463 0.0933692 0.09297981 0.0925944 0.09217279
 0.09171996 0.0912369 0.0907382 0.0902752 0.08985054 0.08950502 0.08920918 0.08894057 0.08866085 0.08831366
 0.08789955 0.08738834 0.0868343 0.08624884 0.08570465 0.08523075 0.08486418 0.08462805 0.08448184 0.0844311
 0.08436751 0.08428302 0.08408121 0.08375768 0.08331315 0.08275563 0.08217473 0.08157758 0.08105237 0.08059143
 0.08021845 0.07991673 0.0796614 0.07943919 0.07921877 0.0789942 0.07874661 0.07847784 0.07818169 0.07786769
 0.07753734 0.07720467 0.07687397 0.07655838 0.07626218 0.07599048 0.07574631 0.07551739 0.07530383 0.07507993
 0.07484441 0.07458172 0.07429325 0.0739899 0.0736747 0.07337097 0.0730778 0.07280576 0.07254934 0.07230146
 0.07205718 0.07180501 0.0715443 0.07126921 0.07098317 0.07068629 0.07038364 0.07007813 0.06977185 0.06946727
 0.06915975 0.06884916 0.06852866 0.06819651 0.06785395 0.06750033 0.06714725 0.06679533 0.06645756 0.06613409
 0.06583099 0.06554715 0.06528059 0.06502847 0.06478125 0.06453463 0.06427383 0.06399728 0.06369401 0.06337027
 0.06302635 0.06267547 0.06232491 0.061993 0.06168836 0.06143275 0.06123707 0.06110844 0.06105785 0.06104447
 0.0610701 0.0610485 0.06097215 0.06077422 0.06045111 0.06001878 0.05948419 0.05893605 0.05838269 0.05791957
 0.05754294 0.05729723 0.05715892 0.05710299 0.05709227 0.05705591 0.05697281 0.05678209 0.05651066 0.05615006
 0.05575981 0.05537169 0.05501448 0.05471363 0.05444183 0.05419701 0.05395394 0.05370224 0.05347753 0.05327994
 0.05317567 0.05316824 0.05326971 0.05347351 0.05370177 0.05394242 0.05408211 0.05412281 0.05400284 0.05375002
 0.05339296 0.05296904 0.05255521 0.05216196 0.05183889 0.05155781 0.05131327 0.05107845 0.05082941 0.05058261
 0.05033512 0.05012052 0.04995214 0.04981936 0.04972671 0.04962541 0.04950979 0.04936606 0.0491932 0.04903891
 0.04890556 0.04883978 0.04883529 0.04887981 0.04896266 0.04903656 0.04910235 0.04913542 0.04914897 0.04915495
 0.04916047 0.04918452 0.04921033 0.04923777 0.04922939 0.04916544 0.04901978 0.04876991 0.04844192 0.04802808
 0.04760966 0.04719593 0.04686599 0.04663168 0.04649764 0.04646484 0.04645456 0.04646131 0.04639035 0.04624475
 0.0459901 0.04564351 0.04524546 0.04481524 0.04442054 0.04406663 0.04379636 0.04359598 0.04347072 0.04339295
 0.04334537 0.04329924 0.04323234 0.04313646 0.04299695 0.04284356 0.04267731 0.0425439 0.04245427 0.0424125
 0.04242392 0.04243059 0.0424295 0.04236552 0.04224101 0.04207676 0.04188234 0.04173106 0.04162037 0.04158497
 0.04160504 0.04164682 0.04170277 0.04173508 0.04177189 0.04182538 0.04193745 0.04214783 0.04247484 0.0429414
 0.04354393 0.04428347 0.04516564 0.04618993 0.04737304 0.04872062 0.0502227 0.05188335 0.05363327 0.05546909
 0.05727 0.05902855 0.060616 0.06202924 0.06318131 0.06407932 0.06470002 0.06505795 0.06517507 0.06506573
 0.06476158 0.06427676 0.06363437 0.06285948 0.06197077 0.0610136 0.06000973 0.05901822 0.05806229 0.05719446
 0.05643231 0.05580498 0.05531988 0.05499007 0.05481625 0.05482277 0.05501086 0.0554262 0.0560702 0.05697552
 0.05813511 0.05952454 0.0611278 0.06287181 0.06474683 0.0666884 0.06870487 0.07077885 0.07292862 0.07516966
 0.07751396 0.07997689 0.08256292 0.0852777 0.0881258 0.09111237 0.09423057 0.09748784 0.1008339 0.1042708
 0.1076912 0.1110884 0.1143304 0.1174089 0.12022 0.122761 0.1249799 0.126879 0.1284424 0.1296773
 0.1305926 0.1312163 0.1316057 0.1318267 0.1320041 0.132223 0.1326347 0.1332867 0.1342798 0.1355893
 0.1372373 0.1391577 0.1413312 0.1437046 0.1462611 0.1489685 0.1518217 0.1547826 0.1578491 0.1609667
 0.1641324 0.1672783 0.1703995 0.1734127 0.1763115 0.1790114 0.1815123 0.1837665 0.185782 0.1875596
 0.1890956 0.190398 0.1914225 0.1921374 0.1924511 0.1922895 0.1915501 0.1901475 0.1880478 0.1851908
 0.1816903 0.1775326 0.1729853 0.1680737 0.163123 0.1581679 0.1534553 0.1490036 0.1449054 0.1411587
 0.1377288 0.1346059 0.1317115 0.1290385 0.1265224 0.1241541 0.1218831 0.1196919 0.1175274 0.1153781
 0.1132016 0.1110169 0.1088173 0.1066504 0.1045391 0.1025253 0.1006318 0.09887665 0.09726702 0.09581853
 0.09453073 0.09344285 0.09255622 0.09193336 0.09157809 0.09154964 0.09184767 0.09247493 0.09341464 0.09456147
 0.09588309 0.09719212 0.09847601 0.09958819 0.1005799 0.1014522 0.1023168 0.1033029 0.1045187 0.1061089
 0.1081031 0.1105808 0.1134578 0.1167424 0.1202614 0.1239861 0.1277131 0.131412 0.1348871 0.1381223
 0.1408991 0.143206 0.1447339 0.1454629 0.1450212 0.1434063 0.140389 0.1360439 0.1305059 0.1239391
 0.1168158 0.1093108 0.1019556 0.09483538 0.08828413 0.08227021 0.07688985 0.072048 0.06771969 0.06381094
 0.06028106 0.05705929 0.05412149 0.05141382 0.04892395 0.04661509 0.04448194 0.04250228 0.04067448 0.038978
 0.03741149 0.03595112 0.03459553 0.03332389 0.03213539 0.03101577 0.02996452 0.02897281 0.02804112 0.02716732
 0.02634935 0.02558732 0.02486874 0.02418582 0.02351944 0.02285401 0.02218518 0.02150189 0.02082886 0.02016793
 0.01955402 0.01899584 0.01850229 0.01807817 0.0176938 0.01734786 0.01700062 0.01665133 0.01628947 0.0159184
 0.01555978 0.01521366 0.01489557 0.01459508 0.01429295 0.0139779 0.01361557 0.013213 0.01275933 0.0122815
 0.01179764 0.01133408 0.0109136 0.01054468 0.01023888 0.009985982 0.009788744 0.009620073 0.009478069 0.009324622
 0.009154992 0.0089442 0.00868951 0.008403169 0.008086825 0.00777625 0.007472212 0.007197663 0.006949759 0.006728118
 0.006531138 0.00635407 0.006197288 0.006060791 0.005941232 0.005835242 0.005737334 0.005639465 0.005544812 0.005450631
 0.005369334 0.005306977 0.005266148 0.005253101 0.00524538 0.005242134 0.005209271 0.005141636 0.005027072 0.004863427
 0.004678328 0.004473986 0.004296854 0.004147212 0.004050928 0.004001388 0.003985822 0.003994493 0.003992936 0.003978387
 0.003925929 0.003846686 0.003742147 0.003631375 0.003533889 0.00345682 0.003416188 0.003391569 0.003382089 0.003353765
 0.003294924 0.003191805 0.003036287 0.00284787 0.0026266 0.002403138 0.002179793 0.001972537 0.0017816 0.001605994
 0.001445069 0.00129358 0.001151173 0.001014034 0.0008813043 0.0007486759 0.0006154442 0.0004771962 0.0003365899 0.0001940171
 5.583667E-05 -7.234258E-05 -0.0001849858 -0.0002758655 -0.0003462828 -0.000393908 -0.0004267395 -0.0004459665 -0.0004609748 -0.0004738128
 -0.0004901265 -0.0005111665 -0.0005366754 -0.0005668507 -0.0005973024 -0.0006277001 -0.0006514856 -0.0006679534 -0.0006683579 -0.0006524048
 -0.0006123362 -0.0005520065 -0.0004754876 -0.0003931041 -0.000326224 -0.0002832467 -0.0002875357 -0.0003329906 -0.0004256262 -0.000546974
 -0.000686758 -0.0008327502 -0.0009749726 -0.001116642 -0.001256131 -0.001401 -0.001553253 -0.001712966 -0.001880894 -0.002051128
 -0.002223404 -0.002390301 -0.002551451 -0.002700116 -0.002836552 -0.002959237 -0.003069848 -0.003174947 -0.003276219 -0.003382444
 -0.003492911 -0.003610786 -0.003733699 -0.003859749 -0.003987046 -0.004113301 -0.004236954 -0.00435685 -0.0044704 -0.004576496
 -0.004672255 -0.004756134 -0.004828658 -0.004888666 -0.004943601 -0.004993552 -0.005051301 -0.005117796 -0.005202483 -0.005305443
 -0.005423343 -0.005554724 -0.005685635 -0.005815228 -0.005931266 -0.006036096 -0.006129256 -0.006215503 -0.006304013 -0.006398008
 -0.00650672 -0.006628518 -0.006766587 -0.006913959 -0.007067963 -0.007220059 -0.007365491 -0.007500291 -0.007621239 -0.007732181
 -0.00783297 -0.007929788 -0.008023751 -0.008115598 -0.008205688 -0.008288107 -0.00836261 -0.008424603 -0.008474898 -0.008518053
 -0.008556144 -0.008601451 -0.008654772 -0.008726085 -0.008812041 -0.008911622 -0.009019161 -0.009125796 -0.009229427 -0.009323555
 -0.009412103 -0.009495592 -0.009578148 -0.009662851 -0.009747756 -0.009833563 -0.009914801 -0.009990143 -0.01005783 -0.01011701
 -0.01017157 -0.01022164 -0.01027274 -0.01032508 -0.01038123 -0.0104409 -0.01050241 -0.01056568 -0.01062897 -0.01069342
 -0.01076153 -0.01083441 -0.01091656 -0.01100571 -0.01110166 -0.01119906 -0.01129248 -0.01137869 -0.01145296 -0.01151733
 -0.01157104 -0.01161855 -0.01166094 -0.01170196 -0.01174247 -0.0117852 -0.01183049 -0.01188112 -0.01193733 -0.01200105
 -0.01207233 -0.01215083 -0.01223602 -0.01232343 -0.01241167 -0.01249182 -0.01256261 -0.01261481 -0.01264987 -0.01266487
 -0.01266544 -0.01265719 -0.01264778 -0.01264695 -0.01265885 -0.01269122 -0.01273823 -0.01280142 -0.01286578 -0.0129273
 -0.01297358 -0.01299962 -0.01300922 -0.01300091 -0.01299223 -0.01298443 -0.01299124 -0.01301306 -0.01304746 -0.01309347
 -0.01314006 -0.01318779 -0.0132332 -0.01327874 -0.0133309 -0.0133897 -0.01345947 -0.01353623 -0.01361585 -0.01369601
 -0.01377124 -0.01384594 -0.01392107 -0.01400186 -0.01409283 -0.01418975 -0.01429389 -0.01439295 -0.01448422 -0.01456096
 -0.01462078 -0.01467066 -0.01471059 -0.0147541 -0.01480176 -0.01486162 -0.01493305 -0.01501363 -0.01510201 -0.01519032
 -0.01527802 -0.01535883 -0.0154341 -0.01550325 -0.01556872 -0.01563414 -0.01570018 -0.01576962 -0.01583987 -0.01591012
 -0.01597775 -0.01604053 -0.01610023 -0.0161566 -0.01621314 -0.01627119 -0.01632918 -0.0163874 -0.01644082 -0.01648887
 -0.01653152 -0.01656883 -0.01660605 -0.01664319 -0.01668262 -0.01672341 -0.01676186 -0.01679776 -0.0168279 -0.01685404
 -0.0168781 -0.01690242 -0.01693167 -0.01696604 -0.0170079 -0.01705526 -0.01710771 -0.01716272 -0.0172191 -0.01727475
 -0.01732889 -0.01737965 -0.01742656 -0.01746815 -0.01750394 -0.01753492 -0.01756094 -0.01758622 -0.01761095 -0.01763855
 -0.01766883 -0.01770116 -0.01773519 -0.01776869 -0.01780184 -0.0178342 -0.01786578 -0.0178966 -0.01792611 -0.01795326
 -0.01797838 -0.01800106 -0.01802291 -0.018045 -0.01806842 -0.0180944 -0.01812174 -0.01815035 -0.0181789 -0.01820679
 -0.01823485 -0.01826299 -0.01829306 -0.0183253 -0.0183592 -0.01839469 -0.01842754 -0.01845741 -0.01847875 -0.01849206
 -0.01849627 -0.01849332 -0.01848863 -0.01848432 -0.01848821 -0.01849982 -0.01852271 -0.0185531 -0.01858859 -0.01862541
 -0.01865933 -0.018691 -0.01871916 -0.01874712 -0.0187764 -0.01880627 -0.01883757 -0.01886486 -0.01888712 -0.01890348
 -0.01891328 -0.01892544 -0.01894045 -0.01896845 -0.01900941 -0.01906599 -0.01913809 -0.0192257 -0.01933069 -0.01945861
 -0.01961249 -0.01980181 -0.02002805 -0.02029761 -0.02061067 -0.02096879 -0.02137476 -0.02182914 -0.02234043 -0.02291135
 -0.02355399 -0.02427304 -0.02507597 -0.02596682 -0.02694087 -0.02800078 -0.02911921 -0.03029649 -0.03147143 -0.03264036
 -0.03370892 -0.03467134 -0.03543382 -0.03599275 -0.03628302 -0.03629833 -0.03598 -0.0353318 -0.03430247 -0.03297884
 -0.03144142 -0.02984809 -0.02840734 -0.02719045 -0.0263324 -0.02579158 -0.0255887 -0.02564655 -0.02595152 -0.02641007
 -0.02701027 -0.02762148 -0.02822669 -0.02870488 -0.02904002 -0.0292187 -0.02924012 -0.02915989 -0.02898061 -0.02874596
 -0.02845917 -0.02816059 -0.02785239 -0.02756685 -0.02729603 -0.0270399 -0.02678574 -0.02651264 -0.02621525 -0.02587753
 -0.02550578 -0.02509526 -0.0246677 -0.02422891 -0.02381032 -0.02342506 -0.02308834 -0.02280943 -0.02257448 -0.02238436
 -0.02221254 -0.02205678 -0.02189654 -0.02173071 -0.02155484 -0.02137025 -0.02119073 -0.0210185 -0.02087444 -0.02075692
 -0.02067325 -0.02061657 -0.02057538 -0.02054321 -0.02050371 -0.02045694 -0.02039564 -0.02032517 -0.02024714 -0.0201666
 -0.02008693 -0.02000984 -0.01993699 -0.01986723 -0.01980027 -0.01973674 -0.01967601 -0.0196244 -0.01958227 -0.01955731
 -0.01954994 -0.01955845 -0.01958195 -0.01960857 -0.01963769 -0.01965894 -0.0196739 -0.01968257 -0.01968684 -0.01969174
 -0.01969656 -0.01970288 -0.01970813 -0.01970961 -0.0197068 -0.01969765 -0.01968496 -0.01966917 -0.01965423 -0.01964169
 -0.01963377 -0.01963186 -0.01963387 -0.01964034 -0.01964394 -0.01964415 -0.01963332 -0.01961104 -0.01957826 -0.01953583
 -0.01949504 -0.01945661 -0.01943146 -0.0194176 -0.01941445 -0.01941863 -0.01942124 -0.01942189 -0.01941501 -0.01940403
 -0.01939072 -0.01937793 -0.01936934 -0.01936337 -0.01936096 -0.01935728 -0.01935058 -0.0193384 -0.01931888 -0.01929635
 -0.01927073 -0.01924982 -0.01923454 -0.01922724 -0.01922807 -0.01923122 -0.01923643 -0.01923825 -0.01923743 -0.01923577
 -0.01923391 -0.01923585 -0.01923994 -0.0192447 -0.01924731 -0.01924195 -0.01922846 -0.01920317 -0.0191705 -0.01913189
 -0.01909373 -0.01906008 -0.01903397 -0.01901841 -0.01900988 -0.01900867 -0.01900813 -0.019007 -0.01900255 -0.01899403
 -0.01898553 -0.01897724 -0.0189745 -0.01897713 -0.01898433 -0.01899503 -0.0190019 -0.01900487 -0.01899877 -0.01898639
 -0.0189714 -0.01895715 -0.01895198 -0.01895446 -0.01896745 -0.01898495 -0.01900305 -0.01901775 -0.01902486 -0.01902618
 -0.01902108 -0.01901324 -0.01900358 -0.01899389 -0.01898471 -0.01897588 -0.01896742 -0.01895914 -0.01895102 -0.01894361
 -0.01893701 -0.01893288 -0.01893128 -0.01893358 -0.01893923 -0.01894706 -0.01895641 -0.01896484 -0.01897281 -0.01897995
 -0.01898703 -0.01899548 -0.01900372 -0.0190116 -0.0190156 -0.01901318 -0.01900427 -0.01898686 -0.01896781 -0.01894796
 -0.01893539 -0.01893232 -0.01893784 -0.01895273 -0.01896606 -0.01897724 -0.01897763 -0.01896764 -0.01895163 -0.01893105
 -0.01891783 -0.01891157 -0.01891783 -0.01893365 -0.01895438 -0.01897808 -0.01899866 -0.01901751 -0.01903383 -0.01904956
 -0.01906686 -0.01908431 -0.01910218 -0.0191174 -0.01912842 -0.01913513 -0.01913674 -0.01913629 -0.01913424 -0.01913232
 -0.01913093 -0.01912847 -0.01912485 -0.01911842 -0.0191092 -0.0190977 -0.01908412 -0.01907005 -0.01905572 -0.01904278
 -0.01903143 -0.01902342 -0.01901786 -0.01901458 -0.0190113 -0.01900491 -0.01899491 -0.01897868 -0.01896038 -0.01894104
 -0.01892609 -0.01891877 -0.01891841 -0.0189265 -0.01893578 -0.01894526 -0.0189494 -0.0189471 -0.01894056 -0.01892981
 -0.01892182 -0.01891678 -0.01891876 -0.0189271 -0.0189398 -0.01895565 -0.01896907 -0.01897911 -0.01898025 -0.01897283
 -0.01895422 -0.0189272 -0.01889338 -0.01885711 -0.01882256 -0.01879231 -0.01876956 -0.01875299 -0.0187429 -0.01873731
 -0.01873528 -0.01873806 -0.01874557 -0.01876022 -0.0187826 -0.01880994 -0.01884218 -0.0188705 -0.01889451 -0.0189067
 -0.0189079 -0.01889957 -0.01888349 -0.01886772 -0.01885259 -0.01884358 -0.01883875 -0.01883711 -0.01883719 -0.01883642
 -0.01883518 -0.01883322 -0.01883021 -0.01882637 -0.01881969 -0.0188091 -0.01879459 -0.01877533 -0.01875504 -0.01873424
 -0.01871575 -0.01870021 -0.01868581 -0.01867249 -0.01865645 -0.01863769 -0.01861584 -0.0185916 -0.01856967 -0.01855064
 -0.01853981 -0.01853644 -0.01854179 -0.01855364 -0.0185688 -0.01858515 -0.01859868 -0.01860885 -0.01861325 -0.01861409
 -0.01861103 -0.01860955 -0.01861142 -0.01862196 -0.01864389 -0.01867508 -0.01871658 -0.01875847 -0.0187997 -0.01883392
 -0.01886051 -0.01888471 -0.01890701 -0.01893682 -0.01897367 -0.01901927 -0.01907167 -0.01912409 -0.01917492 -0.01921614
 -0.01924809 -0.01926693 -0.01927561 -0.01927549 -0.01927136 -0.01926766 -0.01926801 -0.01927659 -0.01929213 -0.01931644
 -0.01934187 -0.01936751 -0.01938325 -0.01938674 -0.01937441 -0.01934482 -0.01930613 -0.01925867 -0.01921469 -0.01917445
 -0.01914277 -0.01911879 -0.01909853 -0.01908138 -0.01906231 -0.01904218 -0.0190204 -0.01899865 -0.01897959 -0.01896455
 -0.01895655 -0.01895528 -0.01896195 -0.0189745 -0.01899244 -0.01901271 -0.01903448 -0.01905364 -0.01906938 -0.01907665
 -0.01907428 -0.01905992 -0.01903266 -0.01899753 -0.01895468 -0.01891371 -0.01887497 -0.01884461 -0.01882194 -0.01880533
 -0.01879334 -0.01877884 -0.01876166 -0.01873659 -0.01870697 -0.01867574 -0.01864782 -0.01863197 -0.01862714 -0.01863803
 -0.01865393 -0.0186702 -0.01867716 -0.01866733 -0.01864574 -0.01861087 -0.01857595 -0.01854395 -0.01851856 -0.01850132
 -0.01848413 -0.01846653 -0.01844235 -0.01841181 -0.01838024 -0.01834874 -0.01832847 -0.01831884 -0.01832418 -0.0183414
 -0.01836476 -0.01839106 -0.01841149 -0.018425 -0.01842614 -0.01841667 -0.01839517 -0.01836723 -0.01833489 -0.01830568
 -0.01828419 -0.01827081 -0.01826847 -0.01826597 -0.01826204 -0.01824545 -0.01821377 -0.01817071 -0.01811607 -0.01806521
 -0.01801869 -0.01798619 -0.01796676 -0.01795787 -0.01795818 -0.01796047 -0.01796468 -0.0179669 -0.01796791 -0.01796778
 -0.01796612 -0.01796312 -0.01795637 -0.01794362 -0.01792362 -0.01789383 -0.0178579 -0.0178161 -0.01777424 -0.01773413
 -0.01769901 -0.01766997 -0.01764746 -0.01763185 -0.01762095 -0.0176147 -0.01760885 -0.01760343 -0.01759948 -0.0175981
 -0.01760946 -0.01763273 -0.01767219 -0.01772085 -0.01776223 -0.0177889 -0.01777508 -0.01772817 -0.01764343 -0.01754061
 -0.01743772 -0.01734317 -0.01727073 -0.01721075 -0.01716312 -0.01711571 -0.01706389 -0.01700537 -0.01693783 -0.01686909
 -0.01679922 -0.01674073 -0.01669443 -0.01667198 -0.01667355 -0.01670102 -0.01675165 -0.01680638 -0.01685913 -0.01687155
 -0.01684356 -0.01674949 -0.01660594 -0.01643118 -0.01624311 -0.01607676 -0.01593121 -0.01581956 -0.01573133 -0.01566304
 -0.0156084 -0.01556462 -0.01552528 -0.01548991 -0.01544449 -0.0153864 -0.01530487 -0.0151971 -0.01506938 -0.01492163
 -0.01476883 -0.01461161 -0.01446005 -0.01431402 -0.01417719 -0.01404851 -0.01392558 -0.01380691 -0.0136867 -0.01356481
 -0.01343818 -0.01330733 -0.01317211 -0.0130318 -0.01288429 -0.01273365 -0.01257991 -0.01243337 -0.01230058 -0.01217987
 -0.01207625 -0.01196516 -0.01184311 -0.0116878 -0.01149353 -0.01127329 -0.01102696 -0.01078713 -0.01055451 -0.01033429
 -0.01012285 -0.00989091 -0.009637279 -0.009337679 -0.009001169 -0.008641357 -0.008266504 -0.007903681 -0.007544697 -0.007192333
 -0.006829756 -0.006440067 -0.006018153 -0.005551544 -0.005054948 -0.004532017 -0.00399458 -0.00345337 -0.002883555 -0.002290865
 -0.001596988 -0.0007975518 0.0002141858 0.001447918 0.002938963 0.004686168 0.006616788 0.008733051 0.01101085 0.0134804
 0.01626265 0.01939445 0.02305645 0.02723994 0.03204288 0.03736376 0.04313253 0.04918139 0.05533278 0.06145545
 0.06740312 0.07314479 0.0786375 0.0838632 0.08884305 0.09339567 0.09751044 0.100905 0.1035319 0.1053075
 0.1062155 0.1063833 0.1058183 0.1046753 0.1029628 0.1008194 0.09825022 0.09535491 0.09212818 0.08858492
 0.08476825 0.08072928 0.07661713 0.07266602 0.0689638 0.06571721 0.06283343 0.06031706 0.05805888 0.05600056
 0.0541122 0.0523725 0.05077637 0.04932248 0.04798993 0.04677367 0.04568021 0.04470786 0.04391312 0.04329724
 0.04286107 0.04259557 0.04241494 0.04231773 0.04225047 0.04222267 0.04223607 0.04229705 0.04241806 0.04260528
 0.04286552 0.04322331 0.04369272 0.04433046 0.04517622 0.04627579 0.04768611 0.04932238 0.05119623 0.05310443
 0.05500455 0.05677307 0.05838048 0.05983512 0.06113246 0.06234908 0.06349085 0.06469995 0.06599054 0.06756912
 0.06941627 0.07158273 0.07396882 0.07627641 0.07848082 0.08035243 0.08200309 0.08349779 0.08492862 0.08642171
 0.08799297 0.08969323 0.09150711 0.09343902 0.09547535 0.09762454 0.09981781 0.1020479 0.1042266 0.106334
 0.1083873 0.1103857 0.112369 0.1143358 0.1161811 0.117895 0.1193279 0.1204972 0.1214043 0.1220851
 0.1226612 0.1231314 0.1235671 0.1239134 0.124105 0.1241451 0.1239908 0.1237253 0.1233958 0.1230523
 0.1227432 0.1224389 0.1221446 0.1218069 0.1214119 0.120945 0.1203995 0.1197976 0.1191401 0.1184544
 0.117741 0.1169952 0.1162141 0.1153676 0.1144562 0.113464 0.1123977 0.1112662 0.1100853 0.1088891
 0.1076966 0.1065533 0.1054609 0.1044407 0.1034793 0.10257 0.1017142 0.1009065 0.1001675 0.09950482
 0.09892377 0.0984303 0.0980029 0.09763893 0.09732597 0.09706186 0.09685758 0.09671372 0.09664553 0.0966528
 0.0967388 0.0969025 0.09714002 0.09745152 0.09783522 0.09829241 0.09882463 0.09943378 0.1001227 0.1008944
 0.1017523 0.1027002 0.1037405 0.1048793 0.1061168 0.1074697 0.1089392 0.1105568 0.1123313 0.1142757
 0.1164003 0.1186447 0.1210083 0.1233732 0.1257333 0.1279899 0.1301375 0.1320928 0.1338377 0.1352302
 0.136262 0.1368101 0.1369283 0.1366586 0.1360862 0.1353543 0.1345219 0.1337082 0.1329215 0.1322079
 0.1315445 0.1309232 0.1303554 0.1298269 0.1294284 0.1291755 0.1291524 0.1293948 0.1297541 0.1302253
 0.1306017 0.1308751 0.13105 0.1311331 0.1311974 0.1312418 0.131295 0.1313524 0.1314138 0.1314774
 0.1315533 0.1316038 0.1316165 0.1314457 0.1309434 0.1299794 0.1283655 0.1262077 0.1234966 0.1203882
 0.1169253 0.1132447 0.109362 0.1054978 0.1016815 0.09809935 0.09477594 0.0917175 0.08892421 0.08630891
 0.08387102 0.08157533 0.07942894 0.07745726 0.0756547 0.07402401 0.07253792 0.07114112 0.06980427 0.06845704
 0.06708848 0.06565931 0.064174 0.06262467 0.06101543 0.05933914 0.0576272 0.05586725 0.05418619 0.05261011
 0.05123464 0.05009379 0.04909366 0.0482306 0.04739837 0.04659211 0.04580661 0.04504576 0.04435395 0.04372987
 0.04318697 0.04272312 0.04232902 0.04202496 0.04184639 0.041824 0.04202957 0.04245533 0.04312941 0.04400774
 0.04506152 0.04627549 0.04763011 0.04913811 0.05079918 0.05262551 0.05460482 0.05682911 0.05928491 0.06226325
 0.0657883 0.07011463 0.07525164 0.08079147 0.08667319 0.09203052 0.09686752 0.100754 0.1037641 0.1059176
 0.1072802 0.1079872 0.1081263 0.1078757 0.1073378 0.1066899 0.105989 0.1053489 0.1047302 0.1041556
 0.1035255 0.1027977 0.1019601 0.1009881 0.09996803 0.09890465 0.09790432 0.09697798 0.09618579 0.09553099
 0.09498529 0.09454387 0.09413895 0.0937703 0.09340177 0.09303812 0.09267891 0.09232289 0.09197138 0.09161048
 0.09121763 0.09078602 0.09028839 0.08975845 0.08919989 0.08868474 0.08824726 0.08794998 0.08782834 0.08788837
 0.0881423 0.08855876 0.08913638 0.08984029 0.09067123 0.09154581 0.09245917 0.09324511 0.09389753 0.09428807
 0.09443051 0.09433493 0.09402351 0.09357714 0.09300932 0.09239139 0.09172504 0.09104725 0.09034569 0.08962402
 0.08885973 0.08803847 0.08713885 0.08614478 0.08504876 0.08383884 0.08253939 0.0811445 0.07972882 0.07829753
 0.07694931 0.07569465 0.07458811 0.07363309 0.07283329 0.07218897 0.07170394 0.07138044 0.07123727 0.07127025
 0.07148255 0.0718514 0.07233698 0.07289177 0.07343253 0.07389664 0.074182 0.0742527 0.07403123 0.07356539
 0.07283922 0.07197882 0.07102126 0.07007653 0.0691847 0.06837009 0.06764657 0.06698213 0.06637513 0.06579783
 0.06524859 0.06472963 0.06424204 0.06380229 0.06340956 0.06306714 0.06277239 0.06251657 0.06230041 0.0621216
 0.06198091 0.0618813 0.06181556 0.06177961 0.06175834 0.0617403 0.06171006 0.06165595 0.0615711 0.06144764
 0.06129604 0.06111453 0.06092897 0.06074321 0.06057584 0.06043046 0.06029704 0.06017521 0.06004214 0.05989848
 0.05974635 0.05959151 0.05946877 0.05938515 0.05938503 0.05946987 0.05966861 0.05997082 0.06037706 0.06086388
 0.06140883 0.0619821 0.06255583 0.06310239 0.06360045 0.06403209 0.06438483 0.06465622 0.0648415 0.06495258
 0.06498976 0.06496958 0.06489333 0.06477682 0.06462096 0.06444476 0.0642494 0.06405576 0.0638639 0.06368557
 0.06351845 0.0633604 0.06320895 0.06305607 0.06290285 0.06274606 0.06259138 0.06244306 0.06230886 0.06219592
 0.06211039 0.06205698 0.06204071 0.06206288 0.0621333 0.06225345 0.0624368 0.06268664 0.06300566 0.06339609
 0.06383727 0.06432833 0.06482847 0.06533509 0.06580278 0.06623039 0.066586 0.06687392 0.06708967 0.06724534
 0.06736524 0.06746568 0.0675846 0.06773286 0.06794074 0.06820368 0.06853189 0.06890492 0.06931602 0.06974289
 0.07017436 0.07060257 0.07102189 0.07143872 0.0718531 0.07227238 0.07269744 0.07313062 0.07357205 0.07402714
 0.07449676 0.07499533 0.07552381 0.07609729 0.07671254 0.07736909 0.07805551 0.07874689 0.07942571 0.08005201
 0.08061208 0.08107205 0.08143212 0.08167811 0.08182498 0.08187554 0.08184844 0.08175167 0.08159602 0.0813863
 0.08112466 0.08081185 0.08045023 0.08003951 0.07958891 0.07909889 0.0785843 0.0780462 0.07750203 0.07695334
 0.07641853 0.07589921 0.07541166 0.07495588 0.07454073 0.07416381 0.07382537 0.07352227 0.07325068 0.07300904
 0.07279404 0.07260773 0.07244934 0.07232487 0.07223617 0.07218871 0.07218506 0.07222416 0.07230699 0.07242597
 0.07258031 0.07276491 0.07297927 0.07323084 0.0735207 0.07386806 0.07427351 0.0747522 0.07530013 0.07591149
 0.0765788 0.07727969 0.07801057 0.07875341 0.07951226 0.08028419 0.08107599 0.08189253 0.0827381 0.08361628
 0.08452998 0.08548087 0.08647151 0.08750289 0.08857658 0.08969326 0.09085225 0.0920543 0.0932899 0.09455881
 0.09583538 0.09711757 0.09836938 0.09958891 0.1007455 0.1018393 0.1028537 0.1037904 0.104645 0.1054189
 0.1061138 0.1067257 0.1072531 0.1076842 0.1080089 0.1082177 0.1082987 0.1082607 0.1080999 0.1078439
 0.1074965 0.1070922 0.1066361 0.1061628 0.1056761 0.1052034 0.104747 0.1043174 0.1039141 0.1035295
 0.1031608 0.1027877 0.1024047 0.1019796 0.1015073 0.1009541 0.1003275 0.09961767 0.09885437 0.09806356
 0.09728947 0.0965741 0.09596055 0.09548285 0.09517454 0.0950565 0.09514681 0.09545796 0.09597886 0.09671585
 0.09761304 0.0986698 0.09978889 0.1009647 0.1020911 0.1031637 0.1041082 0.1049255 0.1055857 0.1060931
 0.1064456 0.1066533 0.1067353 0.1067154 0.1066395 0.1065396 0.1064738 0.1064619 0.1065447 0.1067168
 0.1069928 0.1073387 0.1077508 0.1081738 0.1085935 0.1089639 0.1092711 0.1095123 0.1096835 0.1098111
 0.109897 0.1099537 0.1099809 0.1099686 0.1099164 0.1098166 0.109671 0.1094838 0.1092568 0.1089973
 0.1087052 0.1083844 0.1080325 0.1076478 0.1072279 0.1067676 0.1062743 0.1057475 0.105206 0.1046562
 0.1041162 0.1035915 0.1030966 0.1026332 0.1022228 0.1018679 0.1015888 0.1013876 0.1012594 0.1012027
 0.1011849 0.1012028 0.1012186 0.1012301 0.1012092 0.1011555 0.1010526 0.100903 0.1007028 0.1004584
 0.1001747 0.09986163 0.09952743 0.09918508 0.09884414 0.09851455 0.09820428 0.09791116 0.09763739 0.09737283
 0.09711578 0.09686022 0.09660538 0.09634687 0.09608456 0.0958075 0.09551487 0.09519196 0.09483717 0.09443299
 0.09397604 0.0934421 0.09282987 0.09211992 0.09132108 0.09043762 0.08948612 0.0884892 0.08746036 0.08641937
 0.08537353 0.08433266 0.08329988 0.08227927 0.08126914 0.0802697 0.07927914 0.07829612 0.07732648 0.07637031
 0.07543672 0.07452638 0.07364345 0.07278807 0.0719621 0.07116579 0.07040205 0.06967074 0.06897271 0.06830765
 0.0676754 0.06707502 0.06650663 0.06596405 0.06544099 0.06492737 0.06441051 0.06388856 0.06335496 0.06281705
 0.06227816 0.06173692 0.06119599 0.06064089 0.06006881 0.05947221 0.05884862 0.05820747 0.05754904 0.05688818
 0.05622559 0.05557279 0.05493056 0.05431014 0.05371247 0.05314802 0.05261665 0.05212384 0.0516677 0.05124779
 0.0508608 0.05050308 0.0501695 0.04985589 0.04955297 0.04925623 0.0489507 0.04862903 0.04828101 0.04789922
 0.04749392 0.04706416 0.04663156 0.04619961 0.04577279 0.04535211 0.04492421 0.04448891 0.04404592 0.04359742
 0.04316234 0.04274078 0.04234402 0.04196861 0.04160928 0.04126607 0.04093568 0.04062166 0.04032841 0.04005565
 0.03980501 0.03957463 0.03936265 0.03917202 0.03900443 0.03885877 0.03873816 0.0386255 0.0385192 0.03839793
 0.03825738 0.0380985 0.03792012 0.03775132 0.03759355 0.03747523 0.03739469 0.03735073 0.03733961 0.03734189
 0.0373598 0.03738898 0.03743508 0.03751101 0.03761049 0.03773462 0.03786442 0.03798119 0.03807546 0.03813138
 0.03816099 0.03816451 0.03815822 0.03814802 0.03813946 0.03813464 0.03813504 0.03814067 0.03815674 0.03818367
 0.03822453 0.03827932 0.03834637 0.03842592 0.03851868 0.03862657 0.03875875 0.03891695 0.03911314 0.0393428
 0.03960658 0.03988941 0.04017358 0.0404398 0.04066196 0.04083327 0.04093683 0.04098924 0.04098902 0.04097035
 0.04094176 0.04093456 0.04095843 0.04101935 0.04112177 0.0412412 0.04137653 0.04149797 0.04160474 0.04169398
 0.04176825 0.04184999 0.04193973 0.04205307 0.04218558 0.04233126 0.04248845 0.04264863 0.04281798 0.04300252
 0.04320468 0.04343326 0.04367492 0.04392526 0.04416727 0.0443889 0.04459324 0.04477582 0.0449567 0.04514018
 0.04533504 0.04554478 0.04575536 0.0459663 0.04615784 0.04632925 0.04647279 0.04658952 0.04668527 0.04676202
 0.04683213 0.04689652 0.04696521 0.04703598 0.04710986 0.04718256 0.0472483 0.0473047 0.04734607 0.04737563
 0.04739195 0.04740482 0.04741773 0.0474403 0.04747839 0.04752705 0.04758869 0.04764184 0.04768382 0.04770011
 0.04768838 0.04766215 0.04762252 0.04760028 0.04759672 0.0476367 0.04771886 0.04785174 0.04802945 0.04824132
 0.04847661 0.04870845 0.0489292 0.04911416 0.0492677 0.04938282 0.0494731 0.04954419 0.04961134 0.04968099
 0.04977046 0.04988566 0.05004149 0.05024394 0.05048981 0.05078195 0.05109239 0.05141981 0.05172788 0.05201507
 0.05226336 0.05247522 0.05266555 0.05283987 0.05303347 0.05324847 0.05351137 0.05381725 0.05417065 0.05456085
 0.05497763 0.05540327 0.05581916 0.05620471 0.0565367 0.05681607 0.0570289 0.05721508 0.05738079 0.05757421
 0.05781026 0.0580968 0.05844063 0.058806 0.05919114 0.0595568 0.05990141 0.06021261 0.06049207 0.06075133
 0.0609918 0.06122697 0.06145538 0.06167879 0.06189677 0.06210735 0.06231573 0.06252797 0.06275021 0.06299102
 0.06325352 0.06354092 0.06385977 0.06421272 0.06460891 0.06505311 0.06554436 0.06608353 0.06666658 0.06729181
 0.06796892 0.0686988 0.06948549 0.07032862 0.07119883 0.07209431 0.07298224 0.07386869 0.07476532 0.0756834
 0.07666613 0.07771651 0.07886413 0.0801011 0.08143166 0.08283832 0.08431267 0.08581643 0.08733417 0.08879137
 0.09016281 0.0913425 0.09229434 0.09293257 0.09322082 0.09318027 0.09279595 0.09221338 0.09144044 0.09064238
 0.08982714 0.08908506 0.08841514 0.08784031 0.08735589 0.08695286 0.08662409 0.08634251 0.08610357 0.08588332
 0.08568355 0.08549966 0.08532577 0.08515809 0.08497965 0.08477328 0.08454188 0.08427498 0.08400841 0.08375151
 0.08353249 0.0833637 0.08323381 0.08314537 0.08306422 0.08298811 0.08288419 0.08275092 0.08257388 0.08235587
 0.08212046 0.0818737 0.08166147 0.08148338 0.08136375 0.08129539 0.08127552 0.081295 0.0813428 0.08140128
 0.08144785 0.08147113 0.08144548 0.0814033 0.08134602 0.08133332 0.08140069 0.08151501 0.08168881 0.08180102
 0.08182685 0.08176279 0.0816027 0.08142272 0.08122618 0.08104531 0.08087752 0.08070391 0.08052257 0.0803114
 0.08007644 0.07982337 0.07956478 0.07933048 0.07913069 0.07899887 0.0789251 0.07891687 0.0789458 0.07899172
 0.07904096 0.07907801 0.07911176 0.07914373 0.07917428 0.07920518 0.0792269 0.07923687 0.07924107 0.07923964
 0.07924166 0.07924742 0.07924549 0.0792349 0.07920039 0.07914267 0.07905851 0.07894794 0.0788072 0.07864065
 0.07845068 0.07825504 0.07808423 0.07794511 0.0778663 0.07781759 0.07778528 0.07774627 0.07767689 0.07759833
 0.0775118 0.07744116 0.07739394 0.07737394 0.077382 0.07742556 0.07750556 0.07762451 0.07778247 0.07796585
 0.07817424 0.07840054 0.07864323 0.07889231 0.07914212 0.07936402 0.07956345 0.07973428 0.07989454 0.08007576
 0.0802736 0.08050246 0.08073226 0.08094062 0.08112101 0.08125898 0.08137582 0.08148061 0.0815677 0.08164023
 0.08167333 0.08165956 0.08161651 0.0815432 0.08148821 0.08145393 0.0814516 0.08147818 0.08149885 0.08151097
 0.08147956 0.08140981 0.08129783 0.08115672 0.08101499 0.08088046 0.08078402 0.08071069 0.08065685 0.08060499
 0.08053172 0.08045739 0.08038329 0.08034003 0.08034792 0.0803835 0.08045069 0.08049277 0.0804988 0.08045282
 0.08034973 0.08022418 0.08007788 0.07995492 0.07985628 0.07980786 0.07980544 0.0798405 0.07990435 0.07996089
 0.08000815 0.08002285 0.08000902 0.07996612 0.07988925 0.07977069 0.07961328 0.07940739 0.0791884 0.07897245
 0.07878448 0.07864776 0.07852431 0.07841194 0.07826184 0.07806038 0.07782375 0.07755008 0.07728964 0.0770451
 0.07683025 0.07664326 0.07646317 0.07628833 0.07609939 0.0758957 0.07566494 0.07540699 0.07511444 0.07479031
 0.07443463 0.07405464 0.07365455 0.07325178 0.07285712 0.07249573 0.07218561 0.07193442 0.07175168 0.07162527
 0.07155179 0.07153404 0.07157183 0.07167205 0.07183879 0.07201942 0.07221115</values></Ydata></AB><ScSm><Ydata ylabel="Single channel"><values byteorder="INTEL" format="FLOAT32" numvalues="1814"> 0.06521764 0.06523995 0.06531996 0.06547147 0.0656663 0.06585042 0.06598057 0.06605029 0.06607628 0.06606673
 0.06602786 0.06599951 0.06604784 0.06620315 0.06641762 0.06659368 0.06665823 0.06662823 0.06660637 0.06667803
 0.06679296 0.06677809 0.06650274 0.06603107 0.06558143 0.06532552 0.06527978 0.06543458 0.06586669 0.06653358
 0.06703313 0.06688742 0.06614359 0.06541221 0.06518938 0.06537816 0.06556875 0.06551301 0.06520434 0.06478906
 0.06461161 0.06512262 0.06643958 0.06797866 0.06865738 0.06757291 0.06464633 0.06084135 0.0578154 0.05703123
 0.05872633 0.06160404 0.06380367 0.06438423 0.0637867 0.06291395 0.06216144 0.06150817 0.06112182 0.06139899
 0.06241077 0.06352564 0.06372201 0.06244697 0.06027257 0.05850917 0.05801798 0.058656 0.05995378 0.06163883
 0.06293777 0.06215861 0.05833748 0.05335975 0.05114067 0.05390809 0.05982999 0.06481984 0.06618325 0.06411903
 0.06052889 0.05743441 0.05623709 0.0573332 0.06000552 0.06302567 0.06542008 0.06653544 0.0658664 0.06347966
 0.06045014 0.0583456 0.05826148 0.06039061 0.06398432 0.06741264 0.06889905 0.06783303 0.06517908 0.062447
 0.06069135 0.06051445 0.06220888 0.0654469 0.06926507 0.07264078 0.07492091 0.07586162 0.07565486 0.0748108
 0.07377434 0.07286207 0.07254845 0.07317234 0.07416962 0.07428321 0.07293692 0.07100195 0.0698947 0.07010835
 0.07081918 0.0708912 0.07002705 0.06858042 0.06642561 0.06294395 0.05841953 0.05441296 0.05220252 0.05180936
 0.05292602 0.05542243 0.05824963 0.0593497 0.05789458 0.05574795 0.05561279 0.05815039 0.0616316 0.06407027
 0.06506629 0.06568771 0.06707905 0.06928265 0.071073 0.07087055 0.06830063 0.06509434 0.06387676 0.06559715
 0.06861897 0.07074594 0.07154651 0.07214296 0.0732376 0.07402429 0.07301655 0.06980124 0.06602736 0.0644162
 0.06639628 0.07067008 0.07414711 0.07423933 0.07060834 0.06525725 0.06096397 0.05935564 0.06044591 0.06366782
 0.0685097 0.07399143 0.07841143 0.08029088 0.07945523 0.07695047 0.07385419 0.07027541 0.06591552 0.06172829
 0.06014474 0.06277539 0.06835252 0.07378322 0.0769197 0.07764638 0.07667954 0.07423472 0.07021045 0.06545617
 0.06221036 0.06237941 0.06526139 0.06792698 0.06829139 0.06702171 0.06604874 0.0661284 0.06654362 0.06660254
 0.06661902 0.06738127 0.0690462 0.07082673 0.07176585 0.07161625 0.07089122 0.07025069 0.06989989 0.06944546
 0.06844968 0.06729923 0.06718063 0.06879386 0.07139835 0.07356839 0.07462155 0.07488625 0.07477766 0.07406907
 0.07223438 0.06945746 0.06705965 0.06652987 0.06808555 0.07053166 0.07250878 0.07347339 0.07357069 0.07314882
 0.07252425 0.0718738 0.0712764 0.07094027 0.07116574 0.07192672 0.07275362 0.07320499 0.07323854 0.0730135
 0.07257515 0.07189544 0.07109238 0.07045868 0.07025962 0.07053117 0.07108554 0.07167727 0.0721086 0.07222982
 0.0719918 0.07152426 0.0710419 0.07064924 0.07033348 0.07012799 0.07013712 0.07037212 0.0706802 0.07088578
 0.07093126 0.07085014 0.07067434 0.0704179 0.07011257 0.06981966 0.06961627 0.06956127 0.06963736 0.06974189
 0.06978479 0.06977528 0.06976013 0.06971548 0.06957678 0.06935298 0.0691385 0.06901621 0.06899323 0.06902051
 0.06903228 0.06895748 0.06872947 0.0683417 0.06791411 0.06764989 0.06767176 0.0679237 0.0682556 0.06854989
 0.06874302 0.06880729 0.06876972 0.06869787 0.06862368 0.06851325 0.0683327 0.06812137 0.06798631 0.06801985
 0.06821142 0.06844962 0.06862228 0.06869477 0.06869216 0.06865776 0.06864212 0.06867224 0.06870902 0.06868249
 0.06858411 0.06848641 0.06846268 0.06851122 0.06856228 0.06855252 0.06849408 0.06846136 0.06850311 0.06858975
 0.06866036 0.06869467 0.06871963 0.06876017 0.06879663 0.06877499 0.06866903 0.06852637 0.06842607 0.0683943
 0.06839599 0.06840424 0.06843422 0.06850025 0.06857561 0.06861589 0.06860942 0.06858801 0.06858353 0.0685834
 0.06854481 0.0684519 0.06834002 0.0682587 0.06822711 0.06822962 0.06823973 0.06823968 0.06822421 0.06819403
 0.06815016 0.0680926 0.0680206 0.06793656 0.06785741 0.06781536 0.06782828 0.06786612 0.06786424 0.06778228
 0.06764508 0.0675183 0.06744403 0.0674058 0.06735889 0.06728524 0.0672074 0.06715444 0.06713238 0.06712855
 0.067128 0.06712198 0.06711854 0.06715167 0.06726079 0.0674434 0.06763807 0.06777303 0.06783158 0.06785841
 0.06790701 0.06799546 0.06810911 0.06822966 0.06835784 0.06851029 0.06868926 0.0688602 0.06898066 0.06905401
 0.06913088 0.06925388 0.06942438 0.06962217 0.06982468 0.070002 0.07012857 0.07021505 0.07030487 0.07042651
 0.07056786 0.07070668 0.07084525 0.07100035 0.07117485 0.07135951 0.07155622 0.07178181 0.07204728 0.07234038
 0.07262735 0.07287082 0.0730598 0.07323027 0.07344532 0.07374205 0.07409915 0.07445887 0.0747758 0.07504602
 0.0752977 0.07555803 0.07583258 0.07611904 0.07642967 0.07678027 0.07716 0.0775345 0.07788371 0.07821994
 0.07856508 0.07892403 0.07928646 0.07964523 0.08000711 0.08038411 0.08077373 0.08115167 0.08149256 0.08179647
 0.08208968 0.08240229 0.08274763 0.08311068 0.08344763 0.08371545 0.08392236 0.08413526 0.08441277 0.0847388
 0.0850495 0.0853192 0.08558721 0.08589602 0.08623457 0.08655875 0.08684734 0.08711852 0.08739836 0.08768575
 0.08794932 0.08815698 0.08831062 0.08844852 0.08861152 0.08881535 0.08906157 0.08935627 0.08969557 0.09004325
 0.09034768 0.0905811 0.09074944 0.09087469 0.090986 0.09111565 0.09127958 0.09146454 0.09164482 0.0918012
 0.09192113 0.0920067 0.09209463 0.09223984 0.09246057 0.09272203 0.09298898 0.09326737 0.0935746 0.09389527
 0.09420025 0.09449548 0.09481416 0.09515502 0.09546119 0.09567623 0.09579799 0.09586032 0.09588968 0.09590726
 0.0959491 0.0960412 0.09615704 0.0962284 0.09619813 0.0960447 0.09576708 0.09537329 0.09488885 0.0943632
 0.09386446 0.09346865 0.09324713 0.09325372 0.09351341 0.09400733 0.09466121 0.09536079 0.0959939 0.09647991
 0.09676695 0.09682926 0.09668474 0.09639339 0.09600717 0.09551904 0.09487455 0.09402752 0.09297037 0.0917166
 0.0902781 0.08867042 0.08693448 0.08514964 0.08342593 0.08187893 0.08060482 0.07967499 0.07914037 0.07901494
 0.07923786 0.07965738 0.08006549 0.0802581 0.08008471 0.07947912 0.07847148 0.07716753 0.0756979 0.07417412
 0.07267711 0.07126212 0.06996209 0.06880087 0.06782384 0.06711935 0.06680594 0.06699959 0.06778489 0.06918759
 0.07113992 0.07346375 0.07591207 0.07826025 0.08038262 0.08225879 0.08392769 0.08544551 0.08686873 0.08824128
 0.08958022 0.09087849 0.09212281 0.09330185 0.09439789 0.09537849 0.09619576 0.09679194 0.09711609 0.09715044
 0.09692842 0.09653233 0.09606938 0.09562072 0.09517723 0.09461838 0.09377927 0.09256206 0.09099986 0.08923903
 0.08748777 0.08598784 0.08502142 0.08491327 0.08596365 0.08829755 0.09173177 0.09579937 0.09994106 0.1037168
 0.106904 0.1094788 0.1115457 0.1132566 0.114742 0.1160806 0.1173088 0.118439 0.1194714 0.1204048
 0.1212489 0.1220264 0.1227644 0.1234806 0.1241742 0.1248284 0.1254296 0.1259876 0.1265336 0.1270953
 0.1276706 0.1282317 0.1287565 0.1292528 0.1297428 0.1302308 0.1307001 0.1311408 0.1315651 0.1319945
 0.1324425 0.1329067 0.1333681 0.1337983 0.1341805 0.1345248 0.1348577 0.135198 0.1355449 0.1358888
 0.1362252 0.136556 0.1368807 0.1371956 0.1375031 0.1378112 0.1381181 0.1384074 0.1386671 0.1389049
 0.1391386 0.1393761 0.1396126 0.1398433 0.1400748 0.1403245 0.1406084 0.1409252 0.1412541 0.14157
 0.1418618 0.1421363 0.1424099 0.1426954 0.1429941 0.1432965 0.1435909 0.1438731 0.1441468 0.1444179
 0.1446878 0.144953 0.1452079 0.1454485 0.1456743 0.1458899 0.1461035 0.1463221 0.146549 0.1467855
 0.1470326 0.1472881 0.1475447 0.1477925 0.1480257 0.1482466 0.1484673 0.148704 0.1489667 0.1492533
 0.1495547 0.1498607 0.1501637 0.1504594 0.1507489 0.151036 0.1513225 0.1516079 0.1518913 0.1521717
 0.1524485 0.1527231 0.1529985 0.1532755 0.1535509 0.1538216 0.1540865 0.1543487 0.1546142 0.1548878
 0.1551675 0.1554472 0.155724 0.1559984 0.1562695 0.1565359 0.1567995 0.1570631 0.1573254 0.1575826
 0.1578341 0.1580838 0.1583377 0.1585989 0.1588635 0.1591237 0.1593774 0.1596301 0.1598882 0.1601513
 0.160414 0.1606706 0.1609199 0.1611665 0.1614154 0.1616661 0.1619163 0.1621685 0.1624271 0.162689
 0.162946 0.1631939 0.1634364 0.1636798 0.1639256 0.1641697 0.1644109 0.1646568 0.1649143 0.1651796
 0.1654408 0.1656896 0.1659255 0.1661539 0.1663835 0.1666213 0.1668655 0.1671079 0.1673439 0.1675775
 0.1678175 0.1680688 0.1683262 0.1685798 0.1688261 0.1690701 0.1693143 0.1695564 0.1697986 0.1700484
 0.1703072 0.1705664 0.1708143 0.1710472 0.1712731 0.1715074 0.1717574 0.1720177 0.1722799 0.1725407
 0.1727988 0.1730528 0.1733043 0.1735545 0.1738025 0.1740504 0.174303 0.1745587 0.1748127 0.1750669
 0.175325 0.1755827 0.1758336 0.1760782 0.1763209 0.1765668 0.1768215 0.177085 0.1773493 0.1776071
 0.1778567 0.1780969 0.1783284 0.1785589 0.1787941 0.1790319 0.1792715 0.1795168 0.1797658 0.1800129
 0.1802574 0.180498 0.1807303 0.1809581 0.1811938 0.1814421 0.1816977 0.1819537 0.1822028 0.1824381
 0.1826645 0.1828932 0.1831273 0.183365 0.1836084 0.1838545 0.1840947 0.1843295 0.1845606 0.1847689
 0.1849081 0.1848692 0.1843717 0.1828446 0.1794106 0.1730615 0.1630571 0.149388 0.1329426 0.115196
 0.09766617 0.08151136 0.06740858 0.05564646 0.04628328 0.03924408 0.03437127 0.03151847 0.03066015 0.03200694
 0.03612795 0.04362004 0.05383297 0.06371702 0.06898747 0.06749925 0.06129596 0.0547471 0.05090786 0.05001996
 0.05079645 0.0521262 0.0536517 0.05556902 0.05822475 0.06172381 0.06590232 0.07074408 0.07659766 0.08373491
 0.09179913 0.0999411 0.1075474 0.114724 0.1220237 0.1297742 0.1377285 0.1453047 0.1520503 0.1578734
 0.1629576 0.1675557 0.1718458 0.1759125 0.1797952 0.1834894 0.1868667 0.1896403 0.1914956 0.1923261
 0.1923561 0.1920196 0.1917015 0.1915809 0.1916723 0.1919422 0.1923656 0.1929259 0.1936106 0.1944007
 0.1952556 0.1961258 0.1969813 0.1978138 0.1986169 0.1993776 0.2000842 0.2007309 0.2013185 0.2018514
 0.2023341 0.2027724 0.2031787 0.2035675 0.2039447 0.2043075 0.2046528 0.2049788 0.2052846 0.2055693
 0.20583 0.2060616 0.2062677 0.2064656 0.2066719 0.2068875 0.2071028 0.2073117 0.2075169 0.2077262
 0.2079453 0.2081672 0.2083778 0.2085741 0.2087708 0.208979 0.2091899 0.2093878 0.2095718 0.209757
 0.2099575 0.2101727 0.2103869 0.2105847 0.2107657 0.2109432 0.2111295 0.2113276 0.2115336 0.2117431
 0.2119548 0.2121723 0.2123958 0.2126172 0.2128314 0.2130469 0.2132735 0.2135063 0.2137343 0.2139546
 0.2141688 0.2143711 0.2145554 0.2147304 0.21492 0.2151442 0.2153967 0.2156485 0.2158781 0.2160894
 0.2162946 0.216494 0.2166808 0.2168531 0.2170197 0.2172038 0.2174302 0.217693 0.217954 0.2181885
 0.2184111 0.2186446 0.218891 0.2191411 0.2193828 0.2195949 0.2197621 0.2199065 0.220088 0.2203582
 0.2207085 0.2210676 0.2213656 0.2215976 0.2218104 0.2220446 0.2223133 0.2225964 0.2228172 0.2228886
 0.2228441 0.2228709 0.2231406 0.223639 0.2242044 0.2246934 0.2250689 0.2253668 0.2256252 0.225843
 0.2259853 0.2260287 0.2260202 0.2260905 0.2263656 0.2268376 0.2273591 0.2277935 0.2281202 0.2283755
 0.2285812 0.2287538 0.2288717 0.2288138 0.2284894 0.2280891 0.2280426 0.2286033 0.2295595 0.2304566
 0.2310456 0.2314107 0.2317174 0.2320054 0.2322398 0.2323461 0.2321004 0.231256 0.2300175 0.2291784
 0.2294634 0.2308018 0.232456 0.2337589 0.2345301 0.234923 0.2351524 0.2353501 0.235461 0.2352372
 0.2345182 0.2336089 0.2332072 0.2337542 0.234936 0.2360234 0.2366216 0.2368769 0.2370808 0.2373439
 0.2375249 0.2371902 0.2358542 0.2336917 0.2319088 0.2319011 0.2338901 0.2366563 0.2387454 0.2397235
 0.240081 0.2401677 0.2396841 0.2382281 0.2358888 0.2332155 0.2310679 0.2305086 0.2320958 0.2349919
 0.2374331 0.2384675 0.2387587 0.2394592 0.2408281 0.2422103 0.242908 0.2427307 0.2418839 0.2405856
 0.2389584 0.2373931 0.2367699 0.2378355 0.2402995 0.2429354 0.2447195 0.2456106 0.2460152 0.2455916
 0.2430088 0.2375429 0.2310802 0.2276056 0.2296898 0.2358 0.2419466 0.2456092 0.247122 0.2478075
 0.2482022 0.2479108 0.2458202 0.2406809 0.2330469 0.2265558 0.2254923 0.230546 0.2380306 0.2433367
 0.2441114 0.2405377 0.2344751 0.2288781 0.2266017 0.2286837 0.2338909 0.2399417 0.2448792 0.2476
 0.2478438 0.2460951 0.2435413 0.2417791 0.2416709 0.2420799 0.2407158 0.2370196 0.2330867 0.2305776
 0.2281239 0.2238483 0.2194923 0.2192836 0.2244562 0.231209 0.2349776 0.2350522 0.2337837 0.2322647
 0.2284406 0.2200463 0.2088293 0.2006223 0.2001821 0.206186 0.2123461 0.2134613 0.2094572 0.2036479
 0.1984011 0.1930764 0.1855987 0.1756488 0.1661511 0.1609766 0.1610092 0.1634382 0.1650791 0.1648432
 0.1626433 0.1584776 0.1543811 0.1550862 0.1638771 0.178378 0.1923053 0.2005217 0.2008304 0.1929117
 0.1792465 0.1667617 0.1634461 0.171195 0.1835384 0.1916157 0.1912329 0.1836209 0.1716618 0.15794
 0.1459695 0.1404846 0.1445808 0.1566436 0.1704754 0.1783844 0.1753818 0.1630173 0.1497618 0.1449218
 0.1501953 0.1585108 0.1620088 0.1592153 0.1539249 0.1501977 0.1499807 0.1529411 0.1568622 0.1596624
 0.1610813 0.1604536 0.154407 0.1409426 0.1251171 0.1158354 0.1165823 0.1234835 0.1324262 0.1427951
 0.1529389 0.157584 0.1537401 0.146395 0.1443743 0.1509908 0.1611487 0.1675734 0.1680277 0.165829
 0.1646171 0.164382 0.1632781 0.1619428 0.1636703 0.1699165 0.1777788 0.1832159 0.1852429 0.1856277
 0.1858435 0.1859291 0.1855046 0.1844381 0.1827814 0.1808618 0.1791815 0.1778363 0.1764084 0.1745642
 0.1720748 0.167994 0.1608919 0.1510504 0.1418248 0.137103 0.1372803 0.1394538 0.1415966 0.1437376
 0.144162 0.1382774 0.1245591 0.1095224 0.1030415 0.1088416 0.1217003 0.1334262 0.1391838 0.1379815
 0.1302049 0.1177071 0.1058187 0.1018167 0.1091315 0.124159 0.1401766 0.1530899 0.1620005 0.1661836
 0.1645357 0.1579942 0.1505166 0.1468755 0.1497691 0.15857 0.169514 0.1766584 0.1747443 0.1643927
 0.1546391 0.1563595 0.1708138 0.1875671 0.1961981 0.1969357 0.1966872 0.1982565 0.1987911 0.1972822
 0.1977397 0.2035739 0.2124675 0.2186363 0.2179684 0.20967 0.1955416 0.1801905 0.1699724 0.1681905
 0.1717258 0.1747726 0.1746863 0.1715984 0.1648337 0.1546317 0.1462816 0.1469087 0.1571278 0.1698109
 0.178171 0.1819813 0.1847792 0.1876341 0.1877826 0.1828558 0.1749315 0.1693364 0.1694172 0.173586
 0.1779806 0.1804913 0.180883 0.178582 0.1730026 0.1661153 0.1624614 0.1652921 0.1732921 0.1818578
 0.1872251 0.1888238 0.1882541 0.1871479 0.1860576 0.1845438 0.1822135 0.1801263 0.1806207 0.1847683
 0.1905384 0.1947893 0.1968076 0.1985729 0.2016289 0.2050055 0.2065489 0.2054505 0.2031013 0.2018862
 0.2032821 0.2066936 0.2098525 0.2106534 0.2090942 0.2074645 0.2082635 0.2118342 0.2163017 0.2196939
 0.221559 0.2225939 0.2234851 0.2243185 0.224526 0.2233232 0.2208054 0.2186145 0.2187802 0.2216932
 0.2257049 0.2287992 0.230203 0.2303356 0.2297699 0.22865 0.226964 0.2250232 0.2234594 0.2227603
 0.2229336 0.2236458 0.2245477 0.2254108 0.2261101 0.2266216 0.227002 0.2273088 0.227562 0.2277775
 0.2279605 0.2280541 0.2279745 0.2277318 0.2274497 0.2272248 0.2270155 0.2267189 0.2263044 0.2257935
 0.2251423 0.2242409 0.2230399 0.2215923 0.2199515 0.2181263 0.2162286 0.2146301 0.2138502 0.2141862
 0.2154377 0.2170151 0.2183246 0.2190632 0.2192367 0.2190202 0.2186391 0.2182936 0.2180942 0.2180373
 0.218056 0.2180992 0.2181616 0.218257 0.2183915 0.2185677 0.2187897 0.2190426 0.2192748 0.2194197
 0.2194376 0.2193301 0.2191225 0.2188365 0.2184744 0.2180129 0.2174115 0.2166378 0.215691 0.2146029
 0.2134202 0.2121871 0.2109332 0.2096604 0.208344 0.2069513 0.2054473 0.2037912 0.20197 0.2000527
 0.1981702 0.1964122 0.1947671 0.1931762 0.1916093 0.1900702 0.1885679 0.1871193 0.1857627 0.1845457
 0.1834968 0.1826087 0.1818402 0.1811333 0.1804305 0.1796828 0.1788569 0.1779473 0.1769841 0.1760204
 0.1750951 0.1741858 0.1731816 0.171903 0.1701529 0.1677659 0.1646462 0.1608105 0.1564147 0.1517313
 0.1470724 0.1427038 0.1387991 0.1354496 0.1326985 0.1305519 0.1289757 0.1279107 0.1273105 0.1271657
 0.1275015 0.1283503 0.129709 0.1315081 0.1336263 0.1359267 0.1382737 0.1405435 0.1426608 0.1446344
 0.1465339 0.1484159 0.1502717 0.1520429 0.1536753 0.1551417 0.1564174 0.1574655 0.1582693 0.1588645
 0.1593217 0.159709 0.1600778 0.160465 0.1608852 0.1613256 0.1617557 0.1621475 0.1624959 0.162822
 0.1631528 0.1635017 0.1638797 0.1643188 0.1648705 0.1655812 0.1664668 0.1675041 0.1686489 0.1698657
 0.1711375 0.1724553 0.173822 0.1752668 0.1768299 0.1785242 0.1803201 0.1821623 0.1839873 0.1857283
 0.187318 0.1886976 0.1898368 0.1907466 0.1914627 0.1920152 0.1924276 0.1927347 0.1929747 0.1931669
 0.193316 0.1934269 0.1934952 0.1934959 0.1934003 0.1932027 0.1929241 0.1925974 0.1922507 0.1919008
 0.1915621 0.191253 0.1909892 0.1907757 0.1906088 0.190473 0.190336 0.1901684 0.1899696 0.1897584
 0.1895367 0.1892759 0.1889333 0.1884691 0.1878622 0.1871233 0.1862865 0.1853779 0.1843955 0.1833198
 0.1821376 0.1808539 0.1794775 0.1780037 0.1764237 0.1747507 0.1730121 0.1712208 0.1693826 0.1675337
 0.1657383 0.1640452 0.1624643 0.1609829 0.1595806 0.1582298 0.1569009 0.1555795 0.1542799 0.1530426
 0.15191 0.1508947 0.1499729 0.1491055 0.1482646 0.1474526 0.1467028 0.1460511 0.1454988 0.1450156
 0.1445761 0.1441748 0.143817 0.1435199 0.1433114 0.1431991 0.1431412 0.1430636 0.142912 0.1426859
 0.1424339 0.1422131 0.142047 0.1419227 0.1418141 0.1416888 0.1414951 0.1411665 0.1406407 0.1398652
 0.1388023 0.137453 0.1358784 0.1341932 0.1325355 0.131024 0.1297251 0.1286556 0.1278051 0.1271414
 0.1266098 0.1261621 0.1257954 0.1255549 0.1254891 0.1255796 0.1257081 0.1257292 0.1256091 0.1254697
 0.1254751 0.1257015 0.1261107 0.1265967 0.1270445 0.1273866 0.1276203 0.1277665 0.127831 0.1278107
 0.1277052 0.1275146 0.1272474 0.126923 0.1265543 0.1261456 0.1257069 0.1252375 0.124709 0.1240945
 0.1233887 0.1225822 0.1216566 0.1206115 0.119448 0.11815 0.1167546 0.115425 0.1143889 0.1138003
 0.1136541 0.1137924 0.1140073 0.1141773 0.1142636 0.1141771 0.1138186 0.1133699 0.113394 0.1144309
 0.1164663 0.1188908 0.1209905 0.1224133 0.1231797 0.1234072 0.1231592 0.1224748 0.1213766 0.1198533
 0.1179247 0.1156803 0.1132201 0.1106564 0.108175 0.1059684 0.1041208 0.1026329 0.101487 0.1007086
 0.1004056 0.1002742 0.09875356 0.09382638 0.08611083 0.08029091 0.08120978 0.08843006 0.09649915 0.1007164
 0.1009108 0.09956659 0.09841764 0.09772466 0.09738004 0.09748003 0.09812526 0.09920822 0.1004175 0.1014203
 0.1020773 0.1024147 0.1023827 0.1016732 0.09968752 0.0957379 0.08960435 0.08202811 0.07445464 0.06818581
 0.06380676 0.06121913 0.05991605 0.05926648 0.05883224 0.05857635 0.05876206 0.05963941 0.06123295 0.06339917
 0.06598213 0.06879714 0.07151994 0.07380122 0.07554226 0.07690427 0.07801664 0.07882442 0.07923457 0.07925826
 0.0789777 0.07848215 0.07786369 0.07719822 0.07648776 0.07565933 0.07468773 0.07372637 0.07303216 0.07271559
 0.07264386 0.07262675 0.07259718 0.07257512 0.07256973 0.07256886 0.07256192 0.07256466 0.07264958 0.07289888
 0.07329331 0.07370489 0.07401518 0.07419604 0.07428736 0.0743167 0.07421429 0.07386002 0.07329769 0.07278587
 0.07246406 0.07209009 0.07134382 0.07032244 0.06950645 0.06925345 0.06948835 0.06986744 0.07009566 0.07007988
 0.06992349 0.06985623 0.07007627 0.07053423</values></Ydata></ScSm><ScRf><Ydata ylabel="Single channel"><values byteorder="INTEL" format="FLOAT32" numvalues="1820"> 0.06066416 0.06081291 0.06090294 0.06093691 0.06093958 0.06095436 0.06102559 0.06116945 0.06136002 0.06154368
 0.06167384 0.06173981 0.06175722 0.06173577 0.06168213 0.06163689 0.06166918 0.06180977 0.06200597 0.06215719
 0.0621962 0.06214872 0.0621185 0.06218506 0.06229556 0.06228176 0.06201857 0.06156712 0.0611348 0.06088643
 0.06084306 0.06100067 0.06142975 0.06207991 0.06255984 0.06241438 0.06169446 0.06098723 0.06076618 0.06093659
 0.06110652 0.0610413 0.06073732 0.06033527 0.06016239 0.06064392 0.06188478 0.06332569 0.06394459 0.06289935
 0.06012709 0.05654244 0.05370727 0.05299328 0.05461105 0.0573266 0.05938722 0.059921 0.05935903 0.05855394
 0.05786517 0.05725662 0.05688047 0.05711862 0.05804933 0.05907903 0.0592399 0.05801457 0.05595669 0.05430739
 0.05386421 0.05447367 0.05568969 0.05726151 0.05846146 0.05769733 0.05407839 0.0494038 0.04736143 0.05001993
 0.0556218 0.06031068 0.06156438 0.05959282 0.05620676 0.05331776 0.05223022 0.05328606 0.05579187 0.05860208
 0.06081997 0.06183651 0.06117628 0.05891418 0.05607608 0.0541326 0.05409265 0.05611855 0.05949939 0.0627051
 0.06407434 0.06304455 0.06052996 0.05795277 0.0563069 0.05615868 0.05777609 0.06084303 0.06445397 0.06765021
 0.06981031 0.07069186 0.07047525 0.06965914 0.0686831 0.06784645 0.06757437 0.06816134 0.06907194 0.06914109
 0.06784803 0.06602035 0.06498555 0.06519838 0.06587605 0.06594631 0.06512928 0.06375608 0.061706 0.05840362
 0.05413238 0.05036887 0.04830871 0.04796632 0.04905801 0.05145956 0.05416385 0.05521776 0.05384924 0.05182811
 0.05169978 0.05407686 0.05732754 0.05958895 0.06049717 0.06107096 0.06239387 0.06449567 0.06619957 0.06600349
 0.06356722 0.06055187 0.05944362 0.06111416 0.06398961 0.06599846 0.06676255 0.06736214 0.06844978 0.06923789
 0.0683153 0.06531725 0.06182851 0.06040572 0.06234917 0.06640206 0.0696601 0.06971377 0.0662684 0.06122864
 0.05722015 0.05576939 0.05688168 0.06003154 0.06474751 0.07009357 0.07443372 0.07634247 0.07563728 0.07330523
 0.07037839 0.06697778 0.06284363 0.05891814 0.05754299 0.06024094 0.06575882 0.07111131 0.07424574 0.07506321
 0.0742455 0.0719759 0.06814364 0.06360298 0.06058803 0.06097594 0.06403013 0.06681792 0.06728454 0.06612659
 0.06528249 0.06550171 0.06606244 0.06627969 0.06648228 0.0674611 0.06935039 0.07133362 0.0724436 0.07244229
 0.07185918 0.07137032 0.07118367 0.07088908 0.07004329 0.06907137 0.06920642 0.07113241 0.07403204 0.07642375
 0.07764305 0.07807206 0.07814279 0.07758509 0.07582067 0.07305168 0.07070427 0.07037157 0.07227089 0.07510497
 0.0774101 0.07861183 0.07888424 0.0786119 0.07813033 0.07762778 0.077203 0.07708697 0.07757691 0.07860503
 0.07965472 0.08027346 0.08043566 0.08030628 0.07992285 0.07927271 0.07852338 0.07801149 0.07799844 0.07847659
 0.07922425 0.08000169 0.0806276 0.08093248 0.08082048 0.08040887 0.07996123 0.07964621 0.07947597 0.07946733
 0.07969637 0.08015074 0.08065875 0.08103129 0.08120941 0.08124158 0.08118095 0.08104801 0.08086457 0.08069374
 0.08063742 0.08076438 0.08102338 0.08127766 0.08146492 0.08166085 0.08192518 0.08215663 0.08219648 0.08203702
 0.08183707 0.08174573 0.08178143 0.08187492 0.0819544 0.08195439 0.08179937 0.0814697 0.08109858 0.08092433
 0.08109719 0.08157107 0.08218834 0.08279183 0.08324976 0.08348686 0.08354317 0.08353125 0.08350393 0.08341777
 0.08323815 0.0830346 0.08295637 0.08311936 0.08350439 0.08396673 0.08435362 0.08459739 0.08471085 0.08475977
 0.08484368 0.08501735 0.08520731 0.0852804 0.0852159 0.08514182 0.08517909 0.0853026 0.08538377 0.08534482
 0.08524854 0.08523321 0.08536921 0.08559766 0.08581134 0.08597013 0.08612137 0.08631594 0.08651645 0.08660622
 0.08651282 0.08630736 0.08613634 0.08606673 0.08605938 0.0860889 0.08620316 0.08642764 0.08667614 0.0868192
 0.08682655 0.08679466 0.08682521 0.08690712 0.08693931 0.08685148 0.08667582 0.08650876 0.08643019 0.08645773
 0.08654742 0.08662473 0.08663073 0.08655752 0.08644272 0.0863295 0.08623794 0.08618227 0.08620413 0.08635376
 0.08661343 0.08685531 0.08691738 0.08674559 0.08645415 0.08622792 0.08615799 0.08617431 0.0861349 0.08596608
 0.0857104 0.08546019 0.08527294 0.08514801 0.08505595 0.08497637 0.08492266 0.08493878 0.08505186 0.08520985
 0.08528751 0.08518945 0.08494517 0.08467936 0.08449763 0.08442155 0.08441134 0.08441422 0.08440488 0.08440834
 0.08446538 0.08455744 0.08460246 0.08455001 0.08444554 0.08438176 0.08442295 0.08458012 0.08480211 0.08497821
 0.08501045 0.08491264 0.08480005 0.08476809 0.08481614 0.08489445 0.08497684 0.08506545 0.08515964 0.08525521
 0.08536652 0.08552505 0.08574852 0.0860142 0.08626428 0.08644401 0.08654845 0.08663683 0.08679049 0.08704611
 0.08736792 0.08768278 0.08793902 0.08813705 0.0883127 0.08849493 0.08868511 0.08888108 0.08910523 0.08938532
 0.08971295 0.09004593 0.09035221 0.0906332 0.09090593 0.09118039 0.09145969 0.09175633 0.09210068 0.09251565
 0.09296842 0.09336504 0.09362449 0.09375898 0.0938682 0.09406122 0.09438378 0.09478624 0.09514439 0.09535213
 0.09542933 0.0955113 0.09570146 0.09596631 0.09621365 0.09644017 0.09674016 0.09716925 0.09765117 0.09804392
 0.09827778 0.09841008 0.09854975 0.09874126 0.09893253 0.09905697 0.09912505 0.09920852 0.09934799 0.09952389
 0.09972656 0.09999906 0.1003722 0.1007934 0.1011644 0.101435 0.101626 0.1017777 0.1019081 0.1020113
 0.1020721 0.1020932 0.1021154 0.1021865 0.1022991 0.1023913 0.1024264 0.1024404 0.1024948 0.1026167
 0.1028069 0.1030684 0.1033866 0.1037053 0.1039764 0.1042298 0.1045429 0.1049205 0.1052536 0.1054357
 0.1054839 0.1054976 0.1055314 0.1055745 0.1056367 0.1057764 0.1060262 0.1063478 0.1066835 0.1070155
 0.1073564 0.1077047 0.1080248 0.1082616 0.108375 0.1083746 0.1083261 0.1083202 0.1084253 0.108655
 0.1089653 0.1092847 0.1095576 0.1097555 0.1098569 0.1098511 0.1097826 0.1097595 0.1098654 0.1100634
 0.1102155 0.1102009 0.1099912 0.1096183 0.1091114 0.1084914 0.1078056 0.1071382 0.1065775 0.1061773
 0.105955 0.1059262 0.1061266 0.1065743 0.1072117 0.1079143 0.1085633 0.1090813 0.1093933 0.1094113
 0.1090992 0.1085261 0.1078224 0.1070988 0.1064173 0.105797 0.1052159 0.1046426 0.1041147 0.1037774
 0.1038182 0.1043571 0.1053874 0.1067798 0.1083199 0.1097783 0.1110022 0.1119712 0.1127663 0.1134811
 0.1141638 0.114831 0.1155 0.116174 0.1168133 0.117364 0.1178216 0.1182348 0.118644 0.1190425
 0.1193963 0.11968 0.1198983 0.1200887 0.1202871 0.1204746 0.1205829 0.1205716 0.1204748 0.1203539
 0.1202262 0.1200568 0.1197989 0.1194333 0.1189995 0.1186151 0.1184565 0.1186865 0.1193646 0.1204105
 0.1216604 0.1229663 0.1242346 0.125384 0.1263198 0.126987 0.1274229 0.127728 0.1279942 0.1282722
 0.1285805 0.1289131 0.1292472 0.1295611 0.1298508 0.130132 0.1304309 0.1307618 0.1311026 0.1314037
 0.1316389 0.1318444 0.1320944 0.1324311 0.1328228 0.1331989 0.1335256 0.1338335 0.1341585 0.1344771
 0.1347304 0.1349048 0.1350558 0.1352555 0.1355399 0.1358989 0.1362815 0.136614 0.1368501 0.1370125
 0.1371673 0.1373591 0.137587 0.1378359 0.1380995 0.1383724 0.1386421 0.1389059 0.1391827 0.1394865
 0.1397904 0.1400375 0.1402007 0.1403184 0.1404607 0.1406634 0.1409025 0.1411287 0.1413193 0.1415031
 0.1417337 0.1420312 0.1423524 0.1426264 0.1428192 0.1429571 0.1430922 0.1432571 0.143453 0.1436641
 0.1438736 0.1440712 0.1442557 0.1444369 0.1446289 0.1448406 0.1450675 0.1452957 0.1455123 0.1457137
 0.145908 0.1461072 0.1463232 0.146568 0.1468505 0.147158 0.1474488 0.1476794 0.1478427 0.1479699
 0.1480967 0.1482399 0.1484005 0.1485756 0.1487626 0.1489608 0.1491707 0.1493892 0.1496084 0.1498207
 0.1500243 0.1502227 0.1504199 0.150619 0.1508241 0.1510413 0.1512735 0.1515122 0.1517384 0.1519372
 0.1521122 0.1522838 0.1524728 0.1526825 0.1528959 0.1530929 0.1532684 0.153434 0.1536038 0.1537846
 0.1539748 0.1541694 0.1543658 0.1545672 0.1547781 0.1549954 0.1552086 0.1554086 0.1555957 0.1557778
 0.1559627 0.1561525 0.1563461 0.1565447 0.15675 0.1569595 0.1571675 0.1573715 0.1575732 0.1577739
 0.1579729 0.1581689 0.1583602 0.1585474 0.1587342 0.158926 0.1591256 0.1593327 0.1595428 0.1597475
 0.159942 0.1601306 0.1603214 0.160517 0.160719 0.1609318 0.1611565 0.1613848 0.1616043 0.1618079
 0.1619995 0.1621937 0.1624059 0.1626373 0.162874 0.1631026 0.1633208 0.1635325 0.1637381 0.1639335
 0.1641162 0.1642925 0.1644724 0.1646579 0.1648405 0.1650164 0.1651916 0.1653731 0.1655607 0.1657512
 0.1659413 0.166129 0.1663175 0.1665124 0.166712 0.1669083 0.167099 0.1672888 0.1674819 0.1676787
 0.1678789 0.1680824 0.1682912 0.1685074 0.1687278 0.1689456 0.1691597 0.1693743 0.1695896 0.1698019
 0.1700132 0.1702262 0.1704378 0.1706452 0.1708504 0.1710542 0.1712563 0.1714584 0.1716615 0.1718641
 0.1720688 0.1722798 0.1724958 0.172713 0.1729304 0.1731439 0.1733464 0.1735429 0.1737473 0.1739634
 0.1741835 0.174402 0.1746178 0.174832 0.1750498 0.1752723 0.1754897 0.1756964 0.1759013 0.1761113
 0.1763194 0.1765212 0.1767188 0.1769013 0.1770259 0.1769756 0.1764678 0.174952 0.1715891 0.1654093
 0.1557003 0.1424621 0.1265648 0.1094372 0.09253869 0.07697801 0.06340376 0.05209375 0.04310422 0.03636176
 0.03171141 0.02900395 0.02820466 0.02951548 0.03349577 0.04072541 0.05055967 0.06003641 0.06503573 0.06353631
 0.05754569 0.05126614 0.04760251 0.0467656 0.04752631 0.04882996 0.05032691 0.05218914 0.05474529 0.05810911
 0.0621406 0.06682985 0.07249834 0.07938447 0.08713452 0.09494307 0.1022411 0.1091443 0.1161829 0.1236566
 0.1313077 0.1385708 0.1450266 0.1506098 0.1555056 0.1599496 0.1641023 0.1680395 0.171799 0.1753746
 0.1786345 0.1812922 0.1830489 0.1838201 0.1838354 0.1835092 0.1832012 0.1830813 0.1831691 0.1834357
 0.183853 0.1843976 0.1850531 0.1858039 0.1866222 0.1874723 0.1883236 0.1891513 0.189933 0.190659
 0.1913336 0.1919599 0.1925331 0.1930492 0.1935133 0.1939396 0.1943454 0.1947382 0.1951115 0.1954587
 0.1957852 0.1960974 0.1963913 0.1966608 0.1969072 0.1971374 0.19736 0.1975832 0.1978078 0.1980262
 0.1982336 0.1984353 0.1986387 0.1988457 0.1990535 0.1992576 0.199456 0.1996532 0.1998543 0.2000544
 0.2002426 0.2004171 0.2005887 0.2007711 0.2009715 0.2011856 0.2013983 0.2015948 0.2017738 0.2019454
 0.2021195 0.2023011 0.202491 0.2026851 0.2028803 0.2030828 0.203301 0.2035288 0.20375 0.203958
 0.2041628 0.2043768 0.2046029 0.204831 0.2050427 0.2052245 0.2053804 0.20553 0.2056969 0.2058957
 0.2061219 0.2063538 0.2065723 0.2067762 0.206974 0.2071685 0.2073554 0.2075324 0.2077049 0.207892
 0.2081146 0.2083691 0.2086265 0.2088669 0.2090965 0.209325 0.2095535 0.2097853 0.2100189 0.2102309
 0.2103954 0.2105269 0.2106867 0.2109353 0.2112748 0.2116407 0.211959 0.2122121 0.2124353 0.2126678
 0.2129261 0.2131889 0.2133792 0.2134184 0.2133537 0.2133766 0.2136481 0.2141396 0.214687 0.2151558
 0.2155164 0.215804 0.216056 0.2162759 0.2164307 0.2164917 0.2164986 0.2165793 0.2168608 0.2173356
 0.2178538 0.2182753 0.2185791 0.2188082 0.2189938 0.2191564 0.2192718 0.2192118 0.2188778 0.2184549
 0.2183717 0.2188821 0.2197745 0.220598 0.2211121 0.2214114 0.2216704 0.2219332 0.2221597 0.2222634
 0.2220174 0.2211857 0.2199789 0.2191756 0.2194768 0.2208016 0.2224234 0.2236952 0.2244512 0.2248472
 0.2250884 0.2252944 0.2254051 0.2251816 0.2244745 0.2235835 0.2231857 0.2237136 0.2248719 0.2259542
 0.2265651 0.2268335 0.2270423 0.2273111 0.2275127 0.2272218 0.2259521 0.2238673 0.2221467 0.2221524
 0.2240918 0.226773 0.2287931 0.2297495 0.2301223 0.2302364 0.2297845 0.2283745 0.2261068 0.2235281
 0.221474 0.2209619 0.2225142 0.2253098 0.2276534 0.2286521 0.2289642 0.2296893 0.2310489 0.2323969
 0.2330684 0.2328947 0.2320807 0.2308361 0.2292798 0.2277941 0.2272284 0.2282933 0.2306982 0.2332577
 0.2349868 0.2358495 0.2362436 0.2358376 0.2333355 0.2280411 0.2218062 0.2185036 0.2205971 0.2265655
 0.2325414 0.2361117 0.2376225 0.2383527 0.2388036 0.2385697 0.2365573 0.2315647 0.2241699 0.217944
 0.2170432 0.2220879 0.2294565 0.2346765 0.2354897 0.2320861 0.2262753 0.2209358 0.2188443 0.220998
 0.2261862 0.2321885 0.2371036 0.2398659 0.2402316 0.2386735 0.2363414 0.2347865 0.2348389 0.2353714
 0.234156 0.2306931 0.2270622 0.224859 0.2226957 0.2187309 0.2147141 0.2148213 0.2202497 0.2272395
 0.2313101 0.2317993 0.2310386 0.2300757 0.226841 0.2191053 0.2087072 0.2016187 0.2027262 0.2107574
 0.2194231 0.2235853 0.2233396 0.2221361 0.2221808 0.2221969 0.2192303 0.2125187 0.2054168 0.2025554
 0.204883 0.2088076 0.2104236 0.2086041 0.2035624 0.195601 0.1874174 0.184889 0.1920814 0.2062395
 0.2199705 0.2273358 0.2259686 0.215681 0.199336 0.1846641 0.1804929 0.1888042 0.2023125 0.2111804
 0.2108016 0.2025556 0.1896258 0.1748921 0.1623167 0.1572483 0.163185 0.1782711 0.1953881 0.2056424
 0.2032316 0.1900014 0.1759546 0.1720302 0.180066 0.1915056 0.1970029 0.1949246 0.1899139 0.1869399
 0.1884664 0.1940856 0.2009287 0.2063416 0.2099876 0.2107649 0.2039195 0.1867518 0.1661552 0.15409
 0.1551591 0.1641921 0.1758207 0.1893281 0.2025007 0.2082718 0.2026961 0.1924515 0.1891948 0.1971804
 0.2096047 0.2169495 0.2164154 0.2124542 0.2098588 0.2086378 0.2064212 0.2040208 0.2056107 0.2130004
 0.2225009 0.2290412 0.2314279 0.2319091 0.2323337 0.232744 0.232661 0.2319198 0.2305871 0.2290797
 0.2280426 0.227617 0.2273081 0.2267443 0.2256369 0.2225934 0.2154135 0.2041737 0.193214 0.1877055
 0.1881586 0.1907499 0.1930033 0.1952251 0.1951997 0.1867312 0.1678401 0.1474447 0.1388685 0.1469714
 0.1645352 0.1804679 0.1882978 0.1867183 0.176244 0.1593698 0.1432195 0.1373636 0.1460367 0.1640622
 0.1823605 0.1957734 0.2037309 0.2059444 0.2013727 0.1912668 0.1804675 0.1746669 0.1769005 0.1861683
 0.1978199 0.2048286 0.201198 0.1878663 0.1753648 0.1761145 0.1914304 0.20939 0.2182402 0.2183243
 0.2174363 0.2187025 0.2189709 0.217231 0.2180519 0.2252581 0.2362714 0.2446554 0.245764 0.2385557
 0.225017 0.2106925 0.2032598 0.2063291 0.2152779 0.2222419 0.2237205 0.2201088 0.2110435 0.1973876
 0.1862058 0.1865109 0.1988144 0.2139334 0.2234274 0.2272849 0.2301033 0.2331833 0.2329764 0.2264962
 0.2163374 0.2090857 0.208801 0.2134511 0.2183296 0.221028 0.2214374 0.2188973 0.2126144 0.2048956
 0.2011788 0.2052733 0.2153812 0.2257683 0.2318858 0.2331935 0.2317776 0.2296576 0.2274556 0.2245758
 0.2205288 0.2166576 0.2158961 0.2196435 0.2255442 0.2299053 0.2319304 0.2340042 0.2379447 0.2424985
 0.2448665 0.2437604 0.2406263 0.2383685 0.2390065 0.2420767 0.2449937 0.2452649 0.2428564 0.2404417
 0.24094 0.2447385 0.2496473 0.2533884 0.2554485 0.2566095 0.2576105 0.2584966 0.2585854 0.2569938
 0.2538917 0.2512099 0.2512604 0.254445 0.2588757 0.2623207 0.2640022 0.2644653 0.2643465 0.2637131
 0.2624234 0.260728 0.2592953 0.2586797 0.2589163 0.259655 0.2605257 0.2613052 0.2618937 0.2622885
 0.2625497 0.2627258 0.2628367 0.2629203 0.2630132 0.2630743 0.263025 0.262902 0.2628795 0.2630762
 0.2633994 0.2636401 0.2636611 0.2634191 0.262862 0.2619348 0.2606887 0.2592677 0.2577456 0.2560802
 0.2543377 0.2529278 0.2524744 0.2533501 0.2553318 0.2577394 0.2599006 0.261483 0.262478 0.2630152
 0.2632447 0.2633076 0.2633044 0.2632622 0.2631521 0.2629463 0.2626485 0.2622824 0.2618763 0.2614668
 0.2610985 0.2607957 0.2605344 0.2602551 0.2599089 0.2594861 0.2590074 0.2585017 0.2579863 0.2574479
 0.2568376 0.2561011 0.2552264 0.2542662 0.2533133 0.2524468 0.2516815 0.2509642 0.2502228 0.2494148
 0.2485155 0.2474899 0.2463291 0.2451212 0.2440286 0.2431597 0.2424811 0.2418679 0.2412101 0.2404499
 0.2395663 0.238574 0.2375255 0.2364714 0.2354138 0.2343132 0.2331323 0.2318572 0.230491 0.2290452
 0.2275329 0.225968 0.2243728 0.2227713 0.2211473 0.219412 0.2174299 0.2150748 0.2122515 0.2088886
 0.204954 0.2004978 0.1956735 0.1907012 0.1857983 0.1811339 0.1768282 0.1729737 0.1696471 0.1669145
 0.1648329 0.1634436 0.162765 0.1627979 0.1635279 0.1649134 0.1668785 0.1693211 0.1721151 0.1750996
 0.1780852 0.1808989 0.1834481 0.1857542 0.1879106 0.1899838 0.1919538 0.1937578 0.1953636 0.1967757
 0.1979952 0.199016 0.1998537 0.2005473 0.2011328 0.2016307 0.2020552 0.2024235 0.2027496 0.2030346
 0.2032704 0.2034583 0.2036194 0.2037816 0.2039623 0.2041663 0.2043982 0.2046783 0.2050438 0.2055178
 0.2060742 0.2066513 0.2072116 0.2077689 0.2083567 0.2089956 0.2097022 0.2105107 0.2114656 0.2125901
 0.2138636 0.2152283 0.2166141 0.2179489 0.2191576 0.2201735 0.2209595 0.2215084 0.2218281 0.22194
 0.2218842 0.2217011 0.2214092 0.2210161 0.2205431 0.2200231 0.2194741 0.2188898 0.2182579 0.2175819
 0.2168824 0.2161838 0.215499 0.2148204 0.2141271 0.2134145 0.2127149 0.2120709 0.2114881 0.2109296
 0.210361 0.209781 0.2092074 0.2086516 0.2081113 0.2075644 0.2069667 0.2062715 0.2054605 0.2045437
 0.2035291 0.2024084 0.2011805 0.1998699 0.1985063 0.197091 0.1956029 0.1940317 0.1923865 0.1906702
 0.1888627 0.1869453 0.1849389 0.1829125 0.1809494 0.1791067 0.1774026 0.1758272 0.1743563 0.1729617
 0.171625 0.170345 0.1691288 0.1679777 0.1668819 0.1658282 0.1648113 0.1638423 0.1629407 0.1621214
 0.1613905 0.1607499 0.1601976 0.1597291 0.1593352 0.1590012 0.1587234 0.1585319 0.1584668 0.1585166
 0.1586046 0.1586476 0.1586105 0.1585062 0.1583721 0.1582465 0.1581462 0.1580647 0.1579903 0.1578999
 0.1577353 0.1574115 0.1568502 0.1559956 0.1548212 0.1533438 0.1516266 0.1497711 0.1479142 0.1462048
 0.1447538 0.1436085 0.1427644 0.1421664 0.1417136 0.1413179 0.1409717 0.1407457 0.1407197 0.1409002
 0.141176 0.1413823 0.141449 0.141471 0.1416137 0.1419827 0.1425785 0.1433141 0.1440614 0.1447203
 0.1452451 0.1456126 0.1458187 0.1459089 0.1459479 0.1459519 0.1458912 0.1457412 0.145501 0.1451889
 0.1448321 0.1444321 0.1439563 0.1433854 0.1427288 0.1419849 0.1411429 0.1402143 0.1391996 0.138074
 0.1368881 0.1358333 0.1351468 0.1349826 0.1353582 0.1361444 0.1371321 0.1381763 0.1391983 0.1400186
 0.1403907 0.140376 0.1405479 0.1415865 0.1436256 0.1460958 0.1482321 0.1496425 0.1503469 0.1504556
 0.1500148 0.1490632 0.1476135 0.1456209 0.1431084 0.1402315 0.1371504 0.1339905 0.1309381 0.1281904
 0.1258372 0.1239063 0.1224224 0.1214381 0.1210753 0.1209459 0.1191308 0.1131706 0.1038451 0.09686014
 0.09803571 0.1067586 0.1164217 0.1214067 0.1215488 0.1198329 0.1183296 0.1173629 0.1168386 0.1169069
 0.1176861 0.11901 0.1204799 0.1217002 0.122504 0.1229143 0.1228758 0.1220264 0.119637 0.1148692
 0.1074601 0.09830484 0.08915193 0.08159 0.0763285 0.07322177 0.07164022 0.07083796 0.07030606 0.07000442
 0.07025208 0.07135019 0.07332341 0.07599794 0.07918142 0.0826351 0.08596823 0.08878544 0.09097283 0.0926941
 0.09408951 0.0951058 0.09562755 0.09564948 0.09528295 0.09467131 0.09393365 0.09313511 0.09225285 0.09120034
 0.0899744 0.08878343 0.08792698 0.08751716 0.08740626 0.08739131 0.0873784 0.08735089 0.08730562 0.08725072
 0.08720467 0.08720401 0.0873275 0.0876463 0.08811915 0.08858964 0.08890823 0.08904172 0.08906974 0.08905174
 0.08888045 0.08837575 0.08759914 0.08689392 0.08643616 0.08592229 0.08495685 0.08364756 0.08256224 0.08212682
 0.08225843 0.08256738 0.08273068 0.08265064 0.08244358 0.08238121 0.08270003 0.08331136 0.08378309 0.08375269
</values></Ydata></ScRf><Data_Parameters_AB><parameter name="DPF">1</parameter><parameter name="NPT">3497</parameter><parameter name="FXV">3996</parameter><parameter name="LXV">500</parameter><parameter name="CSF">1</parameter><parameter name="MXY">0.192451074719429</parameter><parameter name="MNY">-0.036298330873251</parameter><parameter name="DAT">27/05/2022</parameter><parameter name="TIM">12:20:58.135 (GMT+2)</parameter><parameter name="DXU">WN</parameter></Data_Parameters_AB><AB__Qtest><MainReport name="Quality Test Report"><Header><Line><Legend>Test result ok/not ok [1/0]: </Legend><Value>0</Value></Line><Line><Legend>Method file: </Legend><Value>C:\Users\Public\Documents\Bruker\OPUS_8.2.28\QT\IRBT_v3_default.QT</Value></Line></Header><Matrix><Line><Legend></Legend><Legend>min</Legend><Legend>max</Legend><Legend>measured</Legend></Line><Line><Value>Absorption (X-Range 1):</Value><Value>0.400000</Value><Value>2.000000</Value><Value>0.143532</Value></Line><Line><Value>Noise (X-Range 4):</Value><Value></Value><Value>0.000300</Value><Value>0.000075</Value></Line><Line><Value>Signal/Noise (X-Range 2):</Value><Value>200.000000</Value><Value></Value><Value>43.953190</Value></Line><Line><Value>Signal/Noise (X-Range 3):</Value><Value>40.000000</Value><Value></Value><Value>30.511225</Value></Line><Line><Value>Water vapour (X-Range 5):</Value><Value></Value><Value>0.000300</Value><Value>0.000122</Value></Line><Line><Value>Signal/Water (X-Range 2):</Value><Value>100.000000</Value><Value></Value><Value>27.007865</Value></Line><Line><Value>Signal/Water (X-Range 3):</Value><Value>20.000000</Value><Value></Value><Value>18.748196</Value></Line><Line><Value>Fringes (X-Range 6):</Value><Value></Value><Value>0.000100</Value><Value>0.000082</Value></Line></Matrix></MainReport></AB__Qtest><Data_Parameters_ScSm><parameter name="DPF">1</parameter><parameter name="NPT">1814</parameter><parameter name="FXV">3996.33169228125</parameter><parameter name="LXV">499.541461535156</parameter><parameter name="CSF">1</parameter><parameter name="MXY">0.248202234506607</parameter><parameter name="MNY">0.0306601524353027</parameter><parameter name="DAT">27/05/2022</parameter><parameter name="TIM">12:20:58.135 (GMT+2)</parameter><parameter name="DXU">WN</parameter></Data_Parameters_ScSm><Data_Parameters_ScRf><parameter name="DPF">1</parameter><parameter name="NPT">1820</parameter><parameter name="FXV">4004.04661832813</parameter><parameter name="LXV">495.683998511719</parameter><parameter name="CSF">1</parameter><parameter name="MXY">0.264465272426605</parameter><parameter name="MNY">0.0282046608626842</parameter><parameter name="DAT">27/05/2022</parameter><parameter name="TIM">12:20:31.450 (GMT+2)</parameter><parameter name="DXU">WN</parameter></Data_Parameters_ScRf><Optic_Parameters_Rf><parameter name="APR">0</parameter><parameter name="APT">Open</parameter><parameter name="BMS">KBr</parameter><parameter name="DTC">RT-DLaTGS_IR-Biotyper [Microplate reader]</parameter><parameter name="HPF">0</parameter><parameter name="LPF">10.0</parameter><parameter name="LPV">4000</parameter><parameter name="PGR">0</parameter><parameter name="RCH">Module port</parameter><parameter name="RDX">0</parameter><parameter name="SRC">MIR</parameter><parameter name="VEL">10.0</parameter><parameter name="SON">Off</parameter></Optic_Parameters_Rf><Acquisition_Parameters_Rf><parameter name="ADT">1</parameter><parameter name="AQM">DD</parameter><parameter name="CFE">0</parameter><parameter name="COR">0</parameter><parameter name="DEL">0</parameter><parameter name="DLY">0</parameter><parameter name="HFW">8000</parameter><parameter name="LFW">0</parameter><parameter name="NSR">32</parameter><parameter name="PLF">AB</parameter><parameter name="RES">6</parameter><parameter name="RGN">-1</parameter><parameter name="STR">0</parameter><parameter name="TCL">MakeCompatibleScalar (0, {WSV=1.000000, ARV=0});</parameter><parameter name="TDL">37</parameter><parameter name="RPO">0</parameter></Acquisition_Parameters_Rf><FT_-_Parameters_Rf><parameter name="APF">B3</parameter><parameter name="HFQ">500</parameter><parameter name="LFQ">4000</parameter><parameter name="NLI">0</parameter><parameter name="PHR">24</parameter><parameter name="PHZ">ML</parameter><parameter name="SPZ">NO</parameter><parameter name="ZFF">1</parameter></FT_-_Parameters_Rf><Optic_Parameters_><parameter name="APR">0</parameter><parameter name="APT">Open</parameter><parameter name="BMS">KBr</parameter><parameter name="CHN">Module port</parameter><parameter name="DTC">RT-DLaTGS_IR-Biotyper [Microplate reader]</parameter><parameter name="HPF">0</parameter><parameter name="LPF">10.0</parameter><parameter name="LPV">4000</parameter><parameter name="PGN">0</parameter><parameter name="RDX">0</parameter><parameter name="SRC">MIR</parameter><parameter name="VEL">10.0</parameter><parameter name="SON">Off</parameter></Optic_Parameters_><FT_-_Parameters_><parameter name="APF">B3</parameter><parameter name="HFQ">500</parameter><parameter name="LFQ">4000</parameter><parameter name="NLI">0</parameter><parameter name="PHR">24</parameter><parameter name="PHZ">ML</parameter><parameter name="SPZ">NO</parameter><parameter name="ZFF">1</parameter></FT_-_Parameters_><Acquisition_Parameters_><parameter name="ADT">1</parameter><parameter name="AQM">DD</parameter><parameter name="CFE">0</parameter><parameter name="COR">0</parameter><parameter name="DEL">0</parameter><parameter name="DLY">0</parameter><parameter name="HFW">8000</parameter><parameter name="LFW">0</parameter><parameter name="NSS">32</parameter><parameter name="PLF">AB</parameter><parameter name="RES">6</parameter><parameter name="SOT">0</parameter><parameter name="TCL">MakeCompatibleScalar (0, {WSV=1.000000, ARV=0});</parameter><parameter name="TDL">37</parameter><parameter name="SPO">0</parameter><parameter name="SGN">-1</parameter></Acquisition_Parameters_><Instrument_Parameters_Rf><parameter name="HFL">15800.168544</parameter><parameter name="LFL">0</parameter><parameter name="LWN">15800.168544</parameter><parameter name="ABP">32197</parameter><parameter name="SSP">1</parameter><parameter name="ARG">2</parameter><parameter name="ASG">2</parameter><parameter name="ASS">32</parameter><parameter name="GFW">16</parameter><parameter name="GBW">16</parameter><parameter name="BFW">0</parameter><parameter name="BBW">0</parameter><parameter name="PKA">7268</parameter><parameter name="PKL">4996</parameter><parameter name="PRA">7453</parameter><parameter name="PRL">5001</parameter><parameter name="P2A">1</parameter><parameter name="P2L">1</parameter><parameter name="P2R">1</parameter><parameter name="P2K">1</parameter><parameter name="DAQ">0</parameter><parameter name="AG2">1</parameter><parameter name="SSM">1</parameter><parameter name="RSN">24964</parameter><parameter name="CRR">0</parameter><parameter name="SRT">1653654031.45</parameter><parameter name="DUR">19.635986328125</parameter><parameter name="TSC">27.9</parameter><parameter name="MVD">0.246356055140495</parameter><parameter name="AN1">0.225818035515382</parameter><parameter name="AN2">0</parameter><parameter name="VSN">2.485 Apr  4 2017</parameter><parameter name="SRN">0085</parameter><parameter name="CAM">0</parameter><parameter name="INS">IR-Biotyper</parameter><parameter name="FOC">69</parameter><parameter name="RDY">1</parameter><parameter name="ARS">32</parameter></Instrument_Parameters_Rf><Sample_Parameters_><parameter name="BLD"></parameter><parameter name="CNM">Admin</parameter><parameter name="CPY"></parameter><parameter name="DPM"></parameter><parameter name="EXP">IRBT_v3_32Scans.XPM</parameter><parameter name="LCT"></parameter><parameter name="SFM">Microplate, HTS-XT</parameter><parameter name="SNM">220527-1039(v.2)_CLA33F (D_6)_B11_c9cc779b-7b74-4b33-9c19-04a6bf9c5ce6.0</parameter><parameter name="XPP">C:\Users\Public\Documents\Bruker\OPUS_8.2.28\XPM</parameter><parameter name="IST">OK</parameter><parameter name="CPG">1252</parameter><parameter name="UID">913834c4-b652-47ce-8cd6-fe564e44f9cb</parameter></Sample_Parameters_><Instrument_Parameters_><parameter name="HFL">15800.168544</parameter><parameter name="LFL">0</parameter><parameter name="LWN">15800.168544</parameter><parameter name="ABP">32197</parameter><parameter name="SSP">1</parameter><parameter name="ASG">2</parameter><parameter name="ARG">2</parameter><parameter name="ASS">32</parameter><parameter name="GFW">16</parameter><parameter name="GBW">16</parameter><parameter name="BFW">0</parameter><parameter name="BBW">0</parameter><parameter name="PKA">6726</parameter><parameter name="PKL">4988</parameter><parameter name="PRA">7014</parameter><parameter name="PRL">4993</parameter><parameter name="P2A">1</parameter><parameter name="P2L">1</parameter><parameter name="P2R">1</parameter><parameter name="P2K">1</parameter><parameter name="DAQ">0</parameter><parameter name="AG2">1</parameter><parameter name="SSM">1</parameter><parameter name="RSN">13108</parameter><parameter name="CRR">0</parameter><parameter name="SRT">1653654058.136</parameter><parameter name="DUR">19.635986328125</parameter><parameter name="TSC">27.9</parameter><parameter name="MVD">0.330353885889053</parameter><parameter name="AN1">0.225775993621932</parameter><parameter name="AN2">0</parameter><parameter name="VSN">2.485 Apr  4 2017</parameter><parameter name="SRN">0085</parameter><parameter name="CAM">0</parameter><parameter name="INS">IR-Biotyper</parameter><parameter name="FOC">69</parameter><parameter name="RDY">1</parameter></Instrument_Parameters_><History/></OPUSDataFile>
