<?xml version="1.0" encoding="UTF-8" ?>
<OPUSDataFile><AB><Ydata ylabel="Absorbance Units"><values byteorder="INTEL" format="FLOAT32" numvalues="3497"> -0.08400741 -0.08404461 -0.08406829 -0.08407893 -0.08406881 -0.08403757 -0.0839907 -0.08392944 -0.08387034 -0.08381533
 -0.08378456 -0.08377768 -0.08380577 -0.08386376 -0.08394668 -0.08404684 -0.08415007 -0.08425067 -0.08433699 -0.08440611
 -0.08445189 -0.08447445 -0.08447087 -0.08444757 -0.08440471 -0.08435428 -0.08429915 -0.08424756 -0.0842017 -0.08416165
 -0.08412763 -0.08409871 -0.08407485 -0.08405929 -0.08405204 -0.0840546 -0.0840661 -0.08408206 -0.08410171 -0.08411971
 -0.08413662 -0.08415145 -0.08416443 -0.08417596 -0.08418489 -0.08418945 -0.08419065 -0.08418684 -0.08418531 -0.0841892
 -0.08420493 -0.08423838 -0.08427992 -0.08433083 -0.08436765 -0.08438566 -0.08437759 -0.08434037 -0.08429985 -0.08425732
 -0.08424614 -0.08426581 -0.08431862 -0.08439925 -0.08447593 -0.08454655 -0.08458421 -0.08459617 -0.08458552 -0.0845613
 -0.0845411 -0.08452661 -0.08452813 -0.08453995 -0.08456176 -0.08458543 -0.08460694 -0.08461929 -0.08461888 -0.08460236
 -0.08456712 -0.08451794 -0.08445366 -0.08439048 -0.08432913 -0.08429216 -0.08428089 -0.08431031 -0.08437967 -0.08448311
 -0.08461606 -0.08474883 -0.08487585 -0.08495883 -0.0850006 -0.08498499 -0.0849268 -0.08484233 -0.08474624 -0.08466321
 -0.08459689 -0.08456097 -0.08454507 -0.08454902 -0.08455653 -0.08455972 -0.08455589 -0.08454055 -0.08452783 -0.08451968
 -0.08452497 -0.08454597 -0.08457106 -0.08459974 -0.08461397 -0.08461405 -0.08460021 -0.08457515 -0.08455639 -0.08454479
 -0.08455445 -0.08458077 -0.08462072 -0.0846672 -0.08470543 -0.08473523 -0.08474925 -0.08475338 -0.08475195 -0.08474289
 -0.08472722 -0.08469869 -0.08465128 -0.08459819 -0.0845376 -0.08450282 -0.08449871 -0.08455215 -0.08466872 -0.0848367
 -0.08505634 -0.08523802 -0.08537702 -0.08537728 -0.08525367 -0.08505437 -0.08479686 -0.08457601 -0.08438856 -0.08427407
 -0.08422186 -0.08423473 -0.08429447 -0.08438525 -0.08447992 -0.08455069 -0.08458254 -0.08455238 -0.0844826 -0.08437254
 -0.08425991 -0.08415637 -0.08407505 -0.08402109 -0.08398993 -0.08398137 -0.08399484 -0.08403031 -0.08408675 -0.08416329
 -0.08424617 -0.08433364 -0.08440651 -0.08446579 -0.08450481 -0.08452613 -0.08453448 -0.08452723 -0.08450169 -0.08445597
 -0.08438306 -0.08429345 -0.08419078 -0.08409224 -0.08400849 -0.08395053 -0.08392693 -0.0839344 -0.08397639 -0.08403356
 -0.08410446 -0.08416487 -0.08421198 -0.08423189 -0.08422355 -0.08418456 -0.08411537 -0.08402207 -0.08390624 -0.08378097
 -0.08364817 -0.08352204 -0.08340346 -0.08330182 -0.08321688 -0.0831534 -0.08310819 -0.08308144 -0.08306369 -0.08304802
 -0.08302501 -0.0829846 -0.08293223 -0.08286516 -0.08280087 -0.08274472 -0.08270206 -0.08267656 -0.08265494 -0.08263604
 -0.08261125 -0.0825798 -0.08254799 -0.08251625 -0.08249264 -0.08247642 -0.08246652 -0.08246134 -0.08245336 -0.08244313
 -0.08242749 -0.08240968 -0.0823942 -0.08238304 -0.08238162 -0.08238725 -0.082399 -0.08241601 -0.08243439 -0.08246577
 -0.08251337 -0.08258833 -0.08269981 -0.08282422 -0.08296357 -0.08306242 -0.08311376 -0.08309403 -0.08300073 -0.08285685
 -0.08266414 -0.08245286 -0.08222543 -0.08201234 -0.08181623 -0.08166535 -0.08155759 -0.08150537 -0.08149675 -0.08152032
 -0.08155522 -0.08156863 -0.08155486 -0.08149175 -0.08140077 -0.08128765 -0.08117273 -0.08106738 -0.08097536 -0.08090168
 -0.08083621 -0.08077861 -0.08071551 -0.08064499 -0.08056278 -0.08046831 -0.08036876 -0.0802649 -0.08017081 -0.08008727
 -0.08002871 -0.07999125 -0.07997108 -0.07995569 -0.07990792 -0.07982473 -0.07967569 -0.07948422 -0.07926814 -0.07904501
 -0.07884222 -0.07864844 -0.07846799 -0.07827637 -0.0780624 -0.07781897 -0.07753751 -0.07724031 -0.07692856 -0.07663105
 -0.07635222 -0.07609924 -0.07587346 -0.07565083 -0.07542968 -0.07517616 -0.07489303 -0.07458324 -0.07425365 -0.07393666
 -0.07363047 -0.07334743 -0.07308129 -0.07282666 -0.07257776 -0.07232815 -0.07206517 -0.07177754 -0.07145061 -0.07106829
 -0.07063828 -0.07015749 -0.06964538 -0.06910991 -0.06854703 -0.06795707 -0.06733559 -0.06668033 -0.06601006 -0.06532579
 -0.06464463 -0.06396707 -0.06329945 -0.06264284 -0.06200884 -0.06139755 -0.06081849 -0.06026493 -0.05972461 -0.05918936
 -0.05863798 -0.05806743 -0.0574692 -0.05683097 -0.05614168 -0.05538424 -0.05453403 -0.05362306 -0.05265025 -0.05167976
 -0.05073538 -0.04982746 -0.04896514 -0.04812311 -0.0472994 -0.04647546 -0.04564974 -0.04481629 -0.04397546 -0.04313605
 -0.04229913 -0.041481 -0.04067453 -0.0398639 -0.03902966 -0.03810267 -0.03708931 -0.03595255 -0.03475032 -0.03354855
 -0.03237353 -0.03128531 -0.03024737 -0.02925658 -0.02827143 -0.02726923 -0.02624295 -0.0251816 -0.02411019 -0.02303135
 -0.02196741 -0.02092296 -0.01989354 -0.01887967 -0.01785592 -0.01682133 -0.01575832 -0.01466916 -0.01356413 -0.01244512
 -0.01132634 -0.01020624 -0.00908623 -0.007967804 -0.006854567 -0.005747627 -0.004652905 -0.003561695 -0.002466466 -0.001366136
 -0.0002528703 0.0008539694 0.001943976 0.003019698 0.004070849 0.005149649 0.006264805 0.007453522 0.008727697 0.01003733
 0.01138077 0.01268082 0.01393597 0.01513323 0.01627815 0.01740822 0.01852794 0.01967857 0.02085599 0.02207434
 0.02331723 0.02456025 0.02579069 0.02697461 0.02812733 0.02924409 0.03036265 0.0315075 0.03269671 0.03395173
 0.03524622 0.03657915 0.03791562 0.03924759 0.0405604 0.04185056 0.04311898 0.0443652 0.04559994 0.04682362
 0.04804394 0.04926005 0.05046705 0.05166659 0.05286143 0.05405809 0.0552783 0.05652244 0.05780529 0.05911438
 0.06043978 0.06176921 0.0630862 0.06438895 0.06567092 0.06693561 0.06818277 0.0694169 0.07063957 0.07185236
 0.07305653 0.07424749 0.07542404 0.07659016 0.07774545 0.07891216 0.08009116 0.08129778 0.08252975 0.08377483
 0.08503067 0.08627959 0.08752278 0.088756 0.08997806 0.09118488 0.09237492 0.09354166 0.09469255 0.09583141
 0.09696712 0.0981087 0.09925344 0.1004036 0.1015503 0.1026916 0.1038187 0.1049302 0.1060151 0.1070715
 0.1080979 0.1090935 0.1100755 0.1110447 0.1120175 0.1129937 0.1139782 0.1149723 0.1159854 0.1170178
 0.1180789 0.1191593 0.1202462 0.1213289 0.1223834 0.123415 0.1244181 0.1254055 0.1263861 0.1273621
 0.1283377 0.1293091 0.1302755 0.1312373 0.1321945 0.1331464 0.1340932 0.1350312 0.1359603 0.136874
 0.1377717 0.1386386 0.1394749 0.1402721 0.1410364 0.1417917 0.1425453 0.1433356 0.1441563 0.1450169
 0.1459009 0.1467882 0.1476701 0.1485289 0.1493677 0.1501828 0.1509814 0.1517657 0.1525426 0.1533155
 0.1540841 0.1548499 0.1556042 0.1563451 0.1570752 0.1577938 0.1585186 0.1592499 0.1599879 0.1607293
 0.1614436 0.1621293 0.1627611 0.1633459 0.1638892 0.1644016 0.1649059 0.1654104 0.1659374 0.1664881
 0.1670748 0.1676848 0.1683157 0.1689477 0.1695703 0.1701759 0.1707585 0.1713228 0.1718686 0.1724001
 0.1729172 0.1734296 0.173938 0.1744562 0.1749845 0.1755161 0.1760482 0.1765508 0.1770239 0.1774499
 0.1778351 0.1781896 0.1785191 0.1788411 0.1791555 0.1794707 0.1797827 0.1800912 0.1803909 0.1806767
 0.1809516 0.1812127 0.1814758 0.1817455 0.1820323 0.1823419 0.1826621 0.1829934 0.1833143 0.1836233
 0.1839054 0.1841599 0.1843757 0.184553 0.1846857 0.1847771 0.1848382 0.1848745 0.1849078 0.1849411
 0.184991 0.1850584 0.1851528 0.1852717 0.1854192 0.1855831 0.1857572 0.185929 0.1860881 0.1862402
 0.1863839 0.1865321 0.186691 0.1868451 0.1869962 0.1871013 0.1871568 0.1871374 0.1870425 0.1868951
 0.1866994 0.1865059 0.1863149 0.1861559 0.1860213 0.1859016 0.1857933 0.1856812 0.1855751 0.1854847
 0.1854134 0.1853764 0.1853481 0.1853181 0.1852582 0.1851442 0.1849922 0.1847947 0.1846054 0.1844352
 0.1843193 0.1842682 0.1842648 0.1843107 0.1843491 0.1843767 0.1843314 0.1842136 0.1839995 0.1837005
 0.183359 0.182992 0.1826783 0.1824203 0.1822687 0.182199 0.1822027 0.1822408 0.1822706 0.1822652
 0.1821868 0.182045 0.181827 0.1815797 0.1813121 0.1810764 0.1808867 0.1807662 0.1807215 0.1807487
 0.1808483 0.1810129 0.1812419 0.1815247 0.1818577 0.1822044 0.1825554 0.1828438 0.1830629 0.1831499
 0.1831174 0.1829526 0.1826946 0.1823913 0.1820852 0.1818445 0.1816721 0.1816042 0.1815872 0.1816121
 0.1816051 0.1815377 0.1813732 0.1810917 0.18072 0.1802547 0.1797632 0.1792507 0.178771 0.1783264
 0.1779243 0.1775629 0.1772258 0.1769155 0.1766359 0.176394 0.1762184 0.1761058 0.1760717 0.1760874
 0.1761258 0.1761378 0.1760635 0.1758663 0.1754915 0.1749582 0.1742477 0.1734396 0.1725506 0.1716667
 0.1708121 0.1700256 0.1693184 0.1686875 0.1681345 0.1676427 0.1672111 0.1668049 0.1664208 0.166009
 0.1655726 0.1650978 0.1646003 0.1641276 0.1636843 0.1633158 0.162989 0.1626798 0.1623414 0.161906
 0.1613744 0.1607075 0.1599805 0.1592096 0.1584959 0.1578817 0.1574098 0.1571108 0.1569223 0.1568485
 0.1567587 0.156642 0.1564019 0.1560341 0.1555528 0.1549666 0.1543752 0.1537856 0.153291 0.1528841
 0.1525926 0.1523989 0.1522788 0.1522152 0.1521719 0.1521381 0.1520883 0.1520197 0.1519222 0.1517977
 0.1516466 0.1514639 0.1512522 0.1509898 0.1506755 0.1502747 0.1497829 0.1491698 0.1484316 0.1475618
 0.1465605 0.1454555 0.144251 0.1430004 0.1417092 0.1404338 0.1391768 0.1379777 0.1368344 0.1357631
 0.1347571 0.133815 0.1329241 0.1320723 0.1312444 0.1304248 0.1296058 0.1287773 0.127946 0.1271116
 0.1262835 0.1254659 0.1246523 0.1238431 0.1230239 0.1221926 0.1213523 0.1205031 0.1196677 0.1188464
 0.1180527 0.1172836 0.1165288 0.1157859 0.1150394 0.1142921 0.113542 0.1127933 0.1120526 0.1113196
 0.1105969 0.1098814 0.109169 0.1084668 0.1077722 0.1071109 0.1064907 0.1059339 0.105454 0.1050247
 0.104651 0.1042491 0.1038125 0.1032621 0.1025938 0.1018066 0.1009073 0.09997579 0.0990221 0.09814568
 0.09734489 0.09667422 0.09610958 0.09563076 0.09519634 0.09473047 0.09420941 0.09356491 0.09283082 0.09199867
 0.09114403 0.09030667 0.08952751 0.08884013 0.0882139 0.08764926 0.08710553 0.08657076 0.08606562 0.08558851
 0.08519888 0.08489981 0.08470314 0.08460232 0.0845203 0.08444421 0.08425685 0.08395881 0.0834809 0.08285169
 0.08209648 0.08125742 0.08041704 0.07959133 0.07883903 0.07813258 0.07747083 0.07682323 0.07616469 0.07550966
 0.07485344 0.0742323 0.07365973 0.07312853 0.07264396 0.07215792 0.07166488 0.07115104 0.07061541 0.07010693
 0.06962794 0.06922529 0.06889199 0.0686122 0.06837381 0.06812301 0.06785905 0.06755034 0.06720962 0.06684397
 0.0664639 0.06608894 0.06570966 0.06533157 0.06492276 0.06446983 0.06394184 0.06331786 0.06261051 0.06180866
 0.06098636 0.0601494 0.05938789 0.05871357 0.05815168 0.05770434 0.05730183 0.05693812 0.05651235 0.05602729
 0.05544303 0.05477839 0.05407803 0.05336061 0.05269675 0.05208453 0.05155721 0.05109282 0.05068111 0.05029723
 0.0499178 0.04952923 0.04911554 0.04868084 0.04821943 0.04775417 0.04728856 0.04684639 0.04643523 0.04604483
 0.04567766 0.04528337 0.0448592 0.04436851 0.04381407 0.04322642 0.04261359 0.04204466 0.04151536 0.04105223
 0.04063423 0.04022194 0.03980412 0.03933601 0.03883846 0.03831336 0.03779542 0.03731567 0.03688766 0.03653136
 0.03623397 0.03599572 0.03580162 0.03564687 0.03552815 0.03544478 0.03539268 0.03537305 0.03536101 0.03535539
 0.03530705 0.03521357 0.03502816 0.03475425 0.03438572 0.03393518 0.03344405 0.03292535 0.03243247 0.03196874
 0.03156443 0.03121543 0.0309283 0.03069892 0.03052666 0.03040621 0.03033642 0.03030643 0.03031368 0.0303431
 0.03039095 0.03044439 0.03049972 0.0305567 0.03061314 0.03069391 0.03080013 0.03097809 0.03122956 0.03159033
 0.03205627 0.03262171 0.03327635 0.03397974 0.03472289 0.03546318 0.03619776 0.03690161 0.03757856 0.03822023
 0.03884141 0.03944623 0.04006345 0.04070788 0.04140715 0.04218029 0.04302018 0.04393848 0.04487081 0.04581495
 0.04667101 0.04742874 0.0480146 0.048423 0.04865997 0.04873017 0.04870864 0.04860134 0.04848542 0.04835822
 0.04824913 0.04815519 0.0480775 0.04802983 0.04803129 0.04810731 0.04829749 0.04861296 0.0490807 0.04968744
 0.05043575 0.05130237 0.05228219 0.0533452 0.05448831 0.05566143 0.05685832 0.05802469 0.05915304 0.0602244
 0.06123707 0.06219679 0.0631009 0.06391212 0.06461752 0.06511257 0.06538692 0.06533737 0.06497927 0.0642896
 0.0633108 0.06210089 0.06070583 0.05920431 0.05762225 0.05601021 0.05436695 0.05270821 0.05101537 0.04928396
 0.04750174 0.04565953 0.04377774 0.04185278 0.03994358 0.03805387 0.03625314 0.0345461 0.03296921 0.03152169
 0.030191 0.02897333 0.02783629 0.02677947 0.02578505 0.02485294 0.0239773 0.0231501 0.02235556 0.02158488
 0.02081651 0.02005973 0.01930972 0.01859388 0.01792653 0.01732748 0.01681116 0.01637321 0.0160168 0.01572647
 0.01549902 0.01533003 0.01521737 0.01517547 0.01520501 0.01532582 0.01553682 0.01582454 0.01617817 0.01652004
 0.01683389 0.01700914 0.01704776 0.01688786 0.01656593 0.01611007 0.01557449 0.01503613 0.01453445 0.01413085
 0.01383706 0.01367954 0.01364714 0.01374671 0.01394369 0.01423833 0.01456234 0.01491111 0.01518532 0.01537667
 0.01538144 0.01519253 0.0147359 0.01401029 0.01299186 0.01168848 0.0101352 0.00835442 0.006445123 0.00444395
 0.002494652 0.0006249053 -0.001040168 -0.002517491 -0.003765146 -0.004846742 -0.005799068 -0.006683822 -0.00755381 -0.00842173
 -0.009311213 -0.01019301 -0.01106517 -0.01189474 -0.0126749 -0.01338865 -0.01403239 -0.01460707 -0.0151121 -0.01556761
 -0.01597514 -0.01636451 -0.01673618 -0.01710863 -0.01747888 -0.01784511 -0.01820313 -0.01854085 -0.01885613 -0.01913845
 -0.01939037 -0.0196078 -0.01980319 -0.01998218 -0.02016668 -0.0203713 -0.0206103 -0.02089836 -0.02121877 -0.02157564
 -0.0219226 -0.02225275 -0.02252633 -0.02273538 -0.02288591 -0.02297691 -0.02305485 -0.02312176 -0.02321571 -0.02333405
 -0.02347426 -0.0236332 -0.02379341 -0.0239609 -0.02414206 -0.02434567 -0.02459546 -0.02488395 -0.02521696 -0.0255688
 -0.02592043 -0.02624793 -0.02652976 -0.02675913 -0.02692564 -0.02703964 -0.02709847 -0.02712972 -0.02713498 -0.0271555
 -0.02719607 -0.02728725 -0.02743213 -0.0276234 -0.0278594 -0.02810344 -0.02835378 -0.02857955 -0.02878337 -0.02895952
 -0.02911215 -0.02925005 -0.02937472 -0.02949338 -0.02960484 -0.02971053 -0.02980873 -0.02989854 -0.02997823 -0.03004646
 -0.03010226 -0.03014376 -0.03017517 -0.03019517 -0.03021833 -0.03024619 -0.03029628 -0.03037167 -0.03047476 -0.03060648
 -0.03074691 -0.03089492 -0.03102786 -0.03114682 -0.03124927 -0.03133899 -0.0314316 -0.03152802 -0.03164104 -0.03176429
 -0.03189367 -0.03201835 -0.03212165 -0.03219903 -0.032236 -0.03224655 -0.03223028 -0.03221709 -0.03221906 -0.03225865
 -0.03234808 -0.03248189 -0.03266392 -0.03286674 -0.03308815 -0.03330187 -0.03350575 -0.03368793 -0.03384825 -0.03398766
 -0.03410723 -0.03421513 -0.03431293 -0.03441164 -0.0345121 -0.034623 -0.03474266 -0.03487306 -0.03500936 -0.03514649
 -0.03527928 -0.03540042 -0.03550971 -0.03560334 -0.03568819 -0.03576557 -0.03584395 -0.03592665 -0.03601593 -0.03611342
 -0.03621504 -0.03632048 -0.03642625 -0.03653199 -0.03663902 -0.03674736 -0.0368579 -0.03696951 -0.03707375 -0.0371685
 -0.03723854 -0.0372855 -0.03730342 -0.0373013 -0.03729239 -0.03728712 -0.03730656 -0.03735188 -0.03743408 -0.03754311
 -0.03767667 -0.0378232 -0.03797667 -0.03813192 -0.03828587 -0.03843844 -0.03858918 -0.03873852 -0.0388866 -0.03903217
 -0.03917519 -0.03931345 -0.03944685 -0.039574 -0.03969494 -0.0398094 -0.03991743 -0.04001891 -0.04011421 -0.04020397
 -0.04028946 -0.04037343 -0.0404568 -0.04054223 -0.04062923 -0.040718 -0.04080874 -0.04090128 -0.0409972 -0.04109776
 -0.04120164 -0.04130987 -0.04141517 -0.04151626 -0.04160785 -0.04168833 -0.0417628 -0.04183126 -0.04190537 -0.04198549
 -0.04207618 -0.04217618 -0.04227675 -0.04237649 -0.04246308 -0.04253866 -0.04260192 -0.0426583 -0.04271866 -0.04278474
 -0.04286559 -0.04295485 -0.04305016 -0.04314443 -0.04323041 -0.04331075 -0.04338356 -0.04345759 -0.04353605 -0.04362035
 -0.04371272 -0.04380361 -0.04389231 -0.04396906 -0.04403283 -0.04408291 -0.0441195 -0.04414983 -0.04417454 -0.04420218
 -0.04423272 -0.04427088 -0.04431558 -0.0443665 -0.04442175 -0.04447761 -0.04453244 -0.04458211 -0.04462682 -0.04466454
 -0.04469838 -0.04472948 -0.04476148 -0.04479689 -0.0448354 -0.0448781 -0.04492077 -0.04496249 -0.04500173 -0.04503762
 -0.0450753 -0.04511504 -0.04516303 -0.04521938 -0.04528288 -0.04535265 -0.0454201 -0.04548476 -0.04553938 -0.0455852
 -0.0456221 -0.04565182 -0.04567822 -0.04570149 -0.04572356 -0.04574389 -0.04576188 -0.04577928 -0.04579644 -0.04581698
 -0.04584284 -0.04587563 -0.04591706 -0.04596365 -0.04601542 -0.0460668 -0.04611715 -0.04616187 -0.0462005 -0.04623123
 -0.04625405 -0.04626996 -0.04627926 -0.0462851 -0.04628799 -0.04629206 -0.04629755 -0.04630763 -0.04632146 -0.04633933
 -0.04635908 -0.04637775 -0.04639391 -0.04640443 -0.04641084 -0.04641268 -0.04641344 -0.04641488 -0.04641815 -0.04642445
 -0.04643163 -0.04643943 -0.04644593 -0.04645063 -0.04645438 -0.04645715 -0.04646121 -0.04646665 -0.04647442 -0.04648444
 -0.04649616 -0.04650956 -0.0465242 -0.04654025 -0.04655803 -0.04657765 -0.04659951 -0.04662379 -0.04665093 -0.04668108
 -0.04671483 -0.0467512 -0.04679045 -0.04682904 -0.04686562 -0.04689688 -0.04692058 -0.04693918 -0.04695204 -0.04696656
 -0.04698382 -0.04700777 -0.04703913 -0.04707324 -0.04710984 -0.04714134 -0.04716787 -0.04718764 -0.04720163 -0.04721396
 -0.04722499 -0.04723838 -0.04725302 -0.04726819 -0.04728335 -0.04729662 -0.04731014 -0.04732509 -0.04734411 -0.0473702
 -0.04740197 -0.04744041 -0.04748042 -0.0475205 -0.04755731 -0.04758954 -0.04761756 -0.04764118 -0.04766171 -0.0476792
 -0.04769502 -0.04770927 -0.04772504 -0.04774246 -0.0477643 -0.04778993 -0.04781768 -0.0478468 -0.04787352 -0.04789872
 -0.04792219 -0.0479455 -0.04797142 -0.04799926 -0.04803019 -0.04806044 -0.04808769 -0.04810925 -0.04812259 -0.04812896
 -0.04812774 -0.04812279 -0.04811483 -0.04810665 -0.04809889 -0.04809169 -0.04808512 -0.04807877 -0.04807265 -0.04806808
 -0.04806528 -0.04806709 -0.04807343 -0.04808562 -0.04810295 -0.04812405 -0.04814799 -0.04817218 -0.04819588 -0.04821708
 -0.04823505 -0.04824844 -0.04825656 -0.0482583 -0.048254 -0.04824305 -0.04822783 -0.04820849 -0.0481892 -0.04817057
 -0.04815747 -0.04815065 -0.04815366 -0.04816705 -0.04818973 -0.04822156 -0.04825503 -0.04828948 -0.04831501 -0.0483316
 -0.04833338 -0.04832178 -0.04829782 -0.04826366 -0.04822436 -0.04818148 -0.04813942 -0.04809921 -0.04806321 -0.0480329
 -0.04801007 -0.04799556 -0.04799111 -0.04799354 -0.04800322 -0.04801255 -0.04801993 -0.04802002 -0.04801108 -0.04799682
 -0.04797709 -0.04796121 -0.04794963 -0.04794791 -0.04795567 -0.04797067 -0.04799236 -0.04801623 -0.04804325 -0.04807347
 -0.04811008 -0.04815945 -0.04822577 -0.0483179 -0.04843902 -0.04859533 -0.04878964 -0.04902443 -0.04930595 -0.04963627
 -0.05002588 -0.05047886 -0.05100149 -0.05159763 -0.05226027 -0.05299097 -0.05376706 -0.05458844 -0.05541096 -0.05623182
 -0.0569719 -0.05762504 -0.05809432 -0.05837972 -0.0584249 -0.05824558 -0.05786096 -0.05729213 -0.05659085 -0.05578072
 -0.0549113 -0.05402202 -0.05316931 -0.05238988 -0.05172861 -0.05120183 -0.05082947 -0.0506143 -0.05056534 -0.05066378
 -0.05091752 -0.051249 -0.05165605 -0.05201062 -0.05229979 -0.05245746 -0.05248034 -0.05240413 -0.05223294 -0.05202401
 -0.05177959 -0.0515414 -0.05130846 -0.05110108 -0.05091379 -0.05074425 -0.05058777 -0.05043579 -0.05028642 -0.05013583
 -0.049979 -0.04981117 -0.04962866 -0.04942571 -0.04921132 -0.04898592 -0.04876362 -0.04854864 -0.04834497 -0.04815441
 -0.04797277 -0.04779982 -0.04763259 -0.04747093 -0.04731506 -0.04716513 -0.04702302 -0.04688886 -0.04676453 -0.04664958
 -0.0465437 -0.04644594 -0.046354 -0.04626748 -0.04618459 -0.04610582 -0.0460311 -0.0459607 -0.04589456 -0.04583381
 -0.04577882 -0.04573125 -0.04569212 -0.04566081 -0.0456381 -0.04561884 -0.04560255 -0.04558387 -0.04556216 -0.04553556
 -0.04550399 -0.04546874 -0.04543016 -0.04539224 -0.04535573 -0.04532731 -0.04530673 -0.04529759 -0.04529701 -0.04530066
 -0.04530483 -0.04530098 -0.04528925 -0.04526551 -0.04523405 -0.04519649 -0.04515732 -0.04511948 -0.04508499 -0.04505552
 -0.04503043 -0.04501032 -0.0449918 -0.04497475 -0.04495392 -0.0449287 -0.04489677 -0.04485799 -0.04481679 -0.04477366
 -0.04473638 -0.04470461 -0.04468098 -0.04466351 -0.04464665 -0.04462893 -0.04460338 -0.04457154 -0.04453212 -0.04448889
 -0.04444544 -0.04440492 -0.04437144 -0.04434478 -0.04432689 -0.04431309 -0.04430282 -0.04428926 -0.0442704 -0.04424342
 -0.04420691 -0.04416538 -0.04411886 -0.04407505 -0.04403439 -0.04400152 -0.04397633 -0.04395882 -0.04394846 -0.0439424
 -0.04394013 -0.04393818 -0.04393677 -0.04393461 -0.04393238 -0.04393106 -0.04392995 -0.04392897 -0.04392645 -0.04392039
 -0.04391202 -0.04390076 -0.04389059 -0.04388325 -0.04387963 -0.04388111 -0.04388293 -0.04388453 -0.04388196 -0.04387452
 -0.04386345 -0.04384876 -0.04383411 -0.04381953 -0.0438067 -0.04379549 -0.04378598 -0.04377838 -0.04377343 -0.04377164
 -0.0437747 -0.04378275 -0.04379727 -0.04381686 -0.04384124 -0.04386687 -0.04389106 -0.04391083 -0.04392311 -0.04392933
 -0.04392841 -0.04392624 -0.04392399 -0.04392647 -0.04393519 -0.04394833 -0.04396621 -0.04398203 -0.04399541 -0.04400266
 -0.04400413 -0.04400389 -0.04400269 -0.04400766 -0.04401821 -0.04403651 -0.04406032 -0.04408519 -0.04410973 -0.04412873
 -0.04414418 -0.04415555 -0.0441673 -0.04418296 -0.04420505 -0.04423708 -0.0442755 -0.04432058 -0.04436554 -0.0444085
 -0.04444596 -0.04447645 -0.04450322 -0.0445263 -0.04455091 -0.04457739 -0.04460545 -0.04463461 -0.04465783 -0.04467471
 -0.04467848 -0.04467083 -0.04465351 -0.04463004 -0.04460981 -0.04459526 -0.04459535 -0.04460917 -0.04463987 -0.0446839
 -0.04474029 -0.04480346 -0.0448709 -0.04493582 -0.04499505 -0.04504474 -0.04508243 -0.04511124 -0.04513082 -0.04514801
 -0.04516358 -0.04518065 -0.04519948 -0.04521893 -0.04523896 -0.04525851 -0.04527767 -0.04529666 -0.04531522 -0.04533214
 -0.04534784 -0.04536187 -0.045377 -0.04539734 -0.04542613 -0.04547024 -0.04552711 -0.04559911 -0.04567606 -0.04575329
 -0.04582211 -0.04587623 -0.04591963 -0.0459507 -0.04598193 -0.04601566 -0.04605731 -0.0461084 -0.04616195 -0.04621764
 -0.04626791 -0.04631289 -0.0463539 -0.04639169 -0.04643217 -0.04647501 -0.0465224 -0.04657276 -0.04662332 -0.0466726
 -0.04671672 -0.04675533 -0.04678605 -0.0468104 -0.04682824 -0.04684283 -0.04685564 -0.04687007 -0.0468879 -0.04691045
 -0.04693871 -0.04697134 -0.04700839 -0.04704775 -0.04708903 -0.04713269 -0.04717868 -0.04722955 -0.0472852 -0.04734447
 -0.04740646 -0.04746423 -0.04751733 -0.04755938 -0.04759256 -0.04761856 -0.04764105 -0.04766785 -0.04769954 -0.04774131
 -0.04778845 -0.04783929 -0.04788816 -0.04793011 -0.04796647 -0.04799486 -0.04802499 -0.0480589 -0.04810425 -0.04816381
 -0.04823364 -0.04831422 -0.04839394 -0.04847208 -0.04854118 -0.04860131 -0.04865337 -0.04869794 -0.04873947 -0.04877812
 -0.04881698 -0.04885571 -0.04889506 -0.04893453 -0.04897328 -0.04901184 -0.04905013 -0.04908992 -0.04913297 -0.04917962
 -0.04923114 -0.04928531 -0.04934129 -0.04939839 -0.04945574 -0.04951606 -0.04958004 -0.04964732 -0.0497185 -0.04978594
 -0.04984923 -0.04990076 -0.04994072 -0.04997184 -0.04999556 -0.05002339 -0.05005584 -0.05010211 -0.0501596 -0.05022716
 -0.0503 -0.05036899 -0.05043127 -0.05047815 -0.05051322 -0.05053468 -0.05055273 -0.05057248 -0.0506024 -0.05064896
 -0.05070851 -0.05078362 -0.05085765 -0.05092839 -0.05098097 -0.05101251 -0.05102564 -0.05102008 -0.05101173 -0.05100121
 -0.05100038 -0.05100852 -0.05102614 -0.05105225 -0.0510829 -0.05111835 -0.05115725 -0.05120045 -0.05124925 -0.05130318
 -0.05136285 -0.05142559 -0.05148968 -0.05155189 -0.05160953 -0.05166188 -0.05170751 -0.05174885 -0.05178642 -0.05182158
 -0.05185509 -0.05188449 -0.05190964 -0.05192779 -0.05193865 -0.05194412 -0.05194451 -0.05194614 -0.05194935 -0.05195994
 -0.05197739 -0.05200284 -0.05203508 -0.05207133 -0.05211113 -0.05215199 -0.05219483 -0.0522401 -0.05228787 -0.05233924
 -0.05239127 -0.05244303 -0.05249023 -0.05253024 -0.0525631 -0.05258728 -0.05260884 -0.05262828 -0.05265281 -0.05268364
 -0.05272198 -0.05276816 -0.05281599 -0.05286521 -0.05290997 -0.05295104 -0.05299126 -0.05303182 -0.05308005 -0.05313459
 -0.05319641 -0.05326162 -0.05332326 -0.05337923 -0.05342306 -0.05345688 -0.05347955 -0.05349602 -0.05350854 -0.05352219
 -0.05353972 -0.05356375 -0.05359627 -0.0536347 -0.05367963 -0.05372353 -0.05376571 -0.05379942 -0.05382398 -0.05384134
 -0.05385197 -0.05386628 -0.0538847 -0.053916 -0.05395862 -0.05401125 -0.05407107 -0.0541293 -0.0541851 -0.05423215
 -0.05427236 -0.05430568 -0.05433384 -0.05435856 -0.05438028 -0.05439956 -0.05441707 -0.05443325 -0.05444836 -0.05446304
 -0.05447493 -0.05448368 -0.05448747 -0.05448563 -0.0544814 -0.05447479 -0.05447399 -0.05447945 -0.05449977 -0.05453481
 -0.05458815 -0.05465816 -0.05474066 -0.05483229 -0.05492236 -0.05500687 -0.05507283 -0.05511939 -0.05513842 -0.05513574
 -0.05511244 -0.05507807 -0.0550388 -0.05500128 -0.05497034 -0.0549469 -0.05493247 -0.05492495 -0.05492385 -0.05492979
 -0.05494257 -0.0549654 -0.05499853 -0.05504355 -0.05510041 -0.05516761 -0.05524433 -0.05532473 -0.05540601 -0.05547318
 -0.05552349 -0.05553921 -0.05552499 -0.05547931 -0.05541274 -0.05533923 -0.05526474 -0.05520005 -0.05514619 -0.05510658
 -0.0550817 -0.05507287 -0.05507857 -0.05509987 -0.05512898 -0.0551657 -0.05519665 -0.05522035 -0.05522568 -0.05521147
 -0.055178 -0.05512571 -0.05506703 -0.05500268 -0.05494478 -0.05489174 -0.05484337 -0.05479662 -0.05474234 -0.05467959
 -0.05460215 -0.05451048 -0.05440365 -0.05427928 -0.05413562 -0.05396854 -0.0537749 -0.05355232 -0.05330001 -0.0530129
 -0.05269145 -0.0523215 -0.0519009 -0.05141565 -0.05086226 -0.05024734 -0.04957053 -0.04885612 -0.04810492 -0.04732794
 -0.046524 -0.04568454 -0.0448139 -0.04392187 -0.04302488 -0.0421755 -0.04138525 -0.04070545 -0.04012877 -0.03966831
 -0.03930877 -0.03904139 -0.03885107 -0.03872751 -0.03865466 -0.03862323 -0.03862295 -0.03864648 -0.03870121 -0.03878605
 -0.03891828 -0.03910203 -0.03932912 -0.03960077 -0.03986746 -0.04012708 -0.04034256 -0.04051645 -0.0406565 -0.04076376
 -0.04084876 -0.04090626 -0.04092664 -0.04090443 -0.04082302 -0.04068295 -0.04047482 -0.04021027 -0.03989269 -0.03954551
 -0.03918349 -0.03882744 -0.03849275 -0.03817998 -0.03789379 -0.0376237 -0.03736654 -0.03712639 -0.03690251 -0.03670815
 -0.03654458 -0.0364131 -0.03631353 -0.0362381 -0.0361857 -0.03614455 -0.03611183 -0.03606994 -0.03601353 -0.03592004
 -0.03578057 -0.03556601 -0.03527274 -0.03487751 -0.03439836 -0.03384134 -0.03323171 -0.03258957 -0.03192492 -0.03124773
 -0.03055864 -0.02985919 -0.02915166 -0.02843913 -0.02770888 -0.02696416 -0.02614895 -0.02525926 -0.02424689 -0.02311247
 -0.02192612 -0.02069449 -0.01951421 -0.01837285 -0.01726183 -0.01616511 -0.01502776 -0.01384822 -0.01259834 -0.01127935
 -0.009890047 -0.008406485 -0.006817725 -0.00506471 -0.003104786 -0.0008985374 0.001610119 0.004325677 0.00725399 0.01019619
 0.01310778 0.01588299 0.0184944 0.02096254 0.02328425 0.02553771 0.02772881 0.0299962 0.0323534 0.03500128
 0.03791749 0.04113605 0.04455402 0.04785025 0.05100932 0.05380924 0.05637183 0.05878454 0.06113066 0.06353995
 0.06600578 0.06856314 0.07118689 0.0738681 0.07661016 0.07942457 0.08225447 0.08509776 0.0878583 0.09051455
 0.09308631 0.09557152 0.09804285 0.100501 0.1028868 0.1051912 0.1072927 0.1092082 0.1109498 0.1125563
 0.1141651 0.1157727 0.1174596 0.1191489 0.120744 0.1222417 0.1235785 0.1248472 0.1261081 0.1273763
 0.1286951 0.1299769 0.1312002 0.1323089 0.133277 0.1341401 0.1348952 0.1356181 0.1363155 0.1370271
 0.1377534 0.1384462 0.1391016 0.1396602 0.1401263 0.1404927 0.1407635 0.140946 0.1410445 0.1410671
 0.1410263 0.140943 0.1408284 0.1407029 0.1405681 0.1404267 0.1402936 0.1401694 0.1400945 0.140082
 0.1401599 0.1403399 0.1406137 0.1409816 0.1414353 0.1419734 0.1426048 0.1433297 0.1441578 0.1450888
 0.1461252 0.1472659 0.1485071 0.1498461 0.1512713 0.1527841 0.1543779 0.1560633 0.1578517 0.1597543
 0.1617886 0.1639547 0.1662598 0.1686952 0.1712595 0.1739417 0.176739 0.179639 0.1826418 0.1857216
 0.1888794 0.1920532 0.1952388 0.1983711 0.2014479 0.2044958 0.2075231 0.2106419 0.2138346 0.2170873
 0.2203375 0.2233622 0.2261539 0.2285735 0.2306789 0.2325134 0.2340806 0.2354106 0.2364645 0.2372171
 0.237663 0.2378126 0.2375912 0.2370192 0.2358298 0.2339519 0.2312801 0.2277212 0.2238772 0.2197933
 0.2158981 0.2122068 0.208474 0.2046861 0.2006112 0.1962761 0.1917064 0.186927 0.182061 0.1770471
 0.1718507 0.1663118 0.1601086 0.1533224 0.1457383 0.1380356 0.1306835 0.1240038 0.1184216 0.1134662
 0.1090656 0.1048382 0.1006474 0.0965003 0.09236974 0.08839592 0.08459422 0.08096529 0.07750837 0.07410794
 0.0707615 0.06739771 0.06403077 0.06069661 0.0574151 0.05427352 0.05127405 0.04846922 0.04583945 0.04338071
 0.0410664 0.03887485 0.0367627 0.03471127 0.03262499 0.03045775 0.02812028 0.02552084 0.02285608 0.02011817
 0.01769888 0.01568802 0.01404987 0.01280222 0.01165131 0.01058336 0.009442065 0.00823622 0.007015331 0.005795133
 0.004695436 0.003701041 0.002824595 0.002042856 0.001298684 0.0006077 -3.826993E-05 -0.0005995507 -0.001028152 -0.001323107
 -0.001459655 -0.001475695 -0.001385749 -0.001211922 -0.0009695814 -0.0006485676 -0.000254583 0.0002530619 0.0008720745 0.001696567
 0.002732995 0.004088214 0.005766755 0.007690963 0.009841807 0.01196386 0.01405509 0.01597104 0.01773241 0.01933818
 0.02079466 0.02211167 0.02329788 0.02435385 0.02533502 0.026287 0.02729658 0.02846066 0.0297697 0.03127738
 0.03282572 0.03436095 0.03581608 0.03714889 0.03843426 0.0396788 0.04093642 0.04221643 0.04348914 0.04475315
 0.04594859 0.04707706 0.04813477 0.04913652 0.05015724 0.05122096 0.05245011 0.05385601 0.05553824 0.05746131
 0.05961757 0.06195983 0.06442038 0.06700961 0.06971126 0.07255106 0.07555158 0.07867862 0.08193241 0.08524918
 0.08860537 0.09200796 0.0954451 0.09901375 0.102724 0.1066225 0.1107112 0.1148026 0.1188769 0.1226268
 0.1260542 0.1290155 0.1315248 0.1335688 0.1351242 0.136137 0.136566 0.1363094 0.1353779 0.1337237
 0.1314307 0.1285354 0.1251431 0.121317 0.1171244 0.1126008 0.1077849 0.1026741 0.09738956 0.09192917
 0.0865488 0.08127214 0.07628483 0.07159782 0.06715813 0.0629563 0.05884767 0.0548417 0.05091491 0.04709827
 0.04349703 0.04011308 0.03701535 0.03416124 0.03151523 0.0290335 0.02665108 0.02434876 0.02208894 0.0198737
 0.01769074 0.01556121 0.01348704 0.01149892 0.00960654 0.007819271 0.006143526 0.004552952 0.003046177 0.001593392
 0.0001928524 -0.001147419 -0.002424677 -0.003598497 -0.004668919 -0.00561351 -0.006439668 -0.00716257 -0.007787186 -0.00833425
 -0.008801361 -0.009193306 -0.009507922 -0.009741623 -0.009902008 -0.009988583 -0.01002516 -0.01001794 -0.01000763 -0.01000556
 -0.01005988 -0.01018289 -0.01041325 -0.01076027 -0.0112358 -0.01184418 -0.01255819 -0.01337662 -0.01424777 -0.01516959
 -0.01610322 -0.01704877 -0.01798885 -0.0189212 -0.01982961 -0.02070906 -0.02153888 -0.02231741 -0.02303193 -0.02368526
 -0.02427593 -0.02480637 -0.02527836 -0.02569244 -0.02604908 -0.02634946 -0.0265929 -0.02678538 -0.0269257 -0.02703237
 -0.027106 -0.02717714 -0.02724869 -0.02734449 -0.02746613 -0.02761357 -0.0277858 -0.02796789 -0.02815975 -0.02835242
 -0.02854869 -0.02875352 -0.0289707 -0.02921244 -0.02947938 -0.02978015 -0.03010808 -0.03046096 -0.03082631 -0.03119404
 -0.03155384 -0.03189737 -0.03221954 -0.03251738 -0.0327855 -0.03302246 -0.0332225 -0.03338386 -0.03350759 -0.03359298
 -0.03365023 -0.03367985 -0.03369477 -0.0336955 -0.03369194 -0.0336836 -0.03367309 -0.03365825 -0.03363286 -0.03359467
 -0.03353443 -0.03345266 -0.03334469 -0.03321553 -0.03306686 -0.03291 -0.03275234 -0.03260922 -0.03249126 -0.03240706
 -0.03236501 -0.03235636 -0.03238309 -0.03242245 -0.03247222 -0.03250685 -0.03252381 -0.03250278 -0.03244245 -0.03232592
 -0.03215142 -0.03189113 -0.03154104 -0.03105701 -0.03044431 -0.0296846 -0.02881717 -0.02791546 -0.02704791 -0.02636893
 -0.02590891 -0.02579082 -0.02593778 -0.0263532 -0.02688145 -0.02744026 -0.02791001 -0.02821433 -0.02834395 -0.02827205
 -0.02806768 -0.02773584 -0.02735046 -0.02692039 -0.02648568 -0.02604951 -0.02561578 -0.02518198 -0.02471179 -0.0241964
 -0.02355841 -0.02279469 -0.02183677 -0.0207203 -0.0194765 -0.01819681 -0.01704479 -0.01610747 -0.01558038 -0.01542579
 -0.01572074 -0.01626744 -0.01698845 -0.01768632 -0.01823705 -0.01865753 -0.01889579 -0.01917918 -0.01953748 -0.02015457
 -0.02106907 -0.02219469 -0.02353184 -0.02475257 -0.02583812 -0.02644065 -0.02656988 -0.02609081 -0.02508062 -0.02373618
 -0.02218608 -0.02085997 -0.01982502 -0.01943568 -0.01958575 -0.02031916 -0.02142481 -0.02273073 -0.02412144 -0.02545993
 -0.02678715 -0.02809195 -0.02941161 -0.03077464 -0.03209295 -0.03336262 -0.03446081 -0.03536917 -0.03606522 -0.03654527
 -0.03687663 -0.03706276 -0.03716773 -0.03719049 -0.03715406 -0.03705622 -0.03690046 -0.03668625 -0.03641468 -0.03608432
 -0.03569304 -0.03524015 -0.0347225 -0.03414431 -0.03350606 -0.03281801 -0.03208429 -0.03131897 -0.03052713 -0.0297237
 -0.02891366 -0.02810581 -0.02730368 -0.02650265 -0.02570311 -0.02489372 -0.0240736 -0.02324445 -0.02240732 -0.02158265
 -0.02077127 -0.01999102 -0.01923736 -0.01850386 -0.01778104 -0.01704197 -0.01627791 -0.01546092 -0.01458694 -0.01363872
 -0.01261926 -0.01152298 -0.0103619 -0.009139044 -0.007872763 -0.006570803 -0.005246324 -0.003906316 -0.002547299 -0.001171117
 0.000237279 0.001679935 0.003161603 0.004683206 0.006223784 0.007781486 0.009321522 0.01084254 0.01231831 0.01374949
 0.01512463 0.01644534 0.01770915 0.01891934 0.02007998 0.02119548 0.02227304 0.02331516 0.02432587 0.02530782
 0.02626193 0.027196 0.02811272 0.02902021 0.02992218 0.03081822 0.03170891 0.0325915 0.03346438 0.03434056
 0.03522023 0.03613781 0.03709526 0.03813033 0.03924165 0.04044028 0.04171751 0.04304608 0.04441326 0.04577338
 0.04711428 0.0483961 0.04960389 0.05070665 0.05168449 0.05251011 0.05317074 0.05364746 0.05394889 0.05406881
 0.05403929 0.05386219 0.05359083 0.05323082 0.05284896 0.05245286 0.05209457 0.05177859 0.05151721 0.05131004
 0.05114379 0.05101886 0.05093038 0.05088355 0.05089428 0.05097376 0.0511536 0.05145774 0.05193549 0.05262867
 0.05360776 0.05490863 0.05660716 0.05865425 0.06109606 0.06368669 0.06640083 0.06877991 0.07071751 0.07176039
 0.07178029 0.0706861 0.06841405 0.06537305 0.06157783 0.05767162 0.05368145 0.05007884 0.04684815 0.04410072
 0.04178675 0.03975968 0.03798013 0.03626158 0.03460241 0.03290984 0.03120585 0.02948358 0.02775846 0.02604617
 0.02434346 0.02265589 0.02096735 0.01927476 0.01755621 0.01580582 0.0140044 0.0121464 0.01022741 0.00824482
 0.006213232 0.004133124 0.002028099 -0.0001008787 -0.002237254 -0.004381892 -0.006534265 -0.008695313 -0.01087143 -0.01305712
 -0.01524409 -0.01741833 -0.01955095 -0.02162828 -0.02361962 -0.02552073 -0.02731554 -0.02900973 -0.03059966 -0.03210095
 -0.03351622 -0.03487018 -0.03616962 -0.03743501 -0.03867238 -0.03988601 -0.04107719 -0.04224552 -0.04339075 -0.04452339
 -0.04564394 -0.04676298 -0.04787847 -0.0489804 -0.05006342 -0.05109944 -0.05208353 -0.0529871 -0.05380899 -0.0545327
 -0.05516175 -0.05569305 -0.05613353 -0.05648769 -0.05676325 -0.05696431 -0.05710277 -0.05718072 -0.05722217 -0.05723098
 -0.05724109 -0.05725833 -0.05731375 -0.0574119 -0.05757143 -0.05779437 -0.05808171 -0.05843272 -0.05882731 -0.05926248
 -0.05970512 -0.06015275 -0.06057711 -0.06097715 -0.06133646 -0.06165273 -0.06191422 -0.06211874 -0.06225663 -0.06233298
 -0.06234588 -0.06231061 -0.06223458 -0.0621349 -0.06202191 -0.06190122 -0.0617789 -0.06164425 -0.06149694 -0.0613225
 -0.06111822 -0.06088321 -0.0606167 -0.06033342 -0.06003434 -0.05973898 -0.05944844 -0.05918027 -0.05893538 -0.05872784
 -0.05855678 -0.05842806 -0.05833789 -0.05828254 -0.05825655 -0.05825265 -0.05826227 -0.05827769 -0.0582842 -0.05827121
 -0.0582257 -0.05813695 -0.05800826 -0.05783564 -0.05763831 -0.05741904 -0.05719464 -0.05696849 -0.05674151 -0.05651435
 -0.0562771 -0.05602931 -0.05576354 -0.05547964 -0.05517458 -0.05484628 -0.05448425 -0.05408501 -0.0536289 -0.05312367
 -0.0525668 -0.05198915 -0.05142834 -0.05091858 -0.05051457 -0.05020709 -0.05002107 -0.0498883 -0.04979048 -0.04965148
 -0.0494393 -0.04913305 -0.04871589 -0.04823111 -0.04767885 -0.0471272 -0.04658123 -0.04609079 -0.04565738 -0.04528914
 -0.044982 -0.04470443 -0.04445171 -0.04418331 -0.04390232 -0.04359451 -0.0432705 -0.04294511 -0.04262577 -0.04233026
 -0.04205837 -0.04181641 -0.0416018 -0.04141636 -0.04125177 -0.04110926 -0.04096412 -0.04081168 -0.04062123 -0.04038393
 -0.04009184 -0.03974032 -0.0393518 -0.03892721 -0.03849524 -0.03805693 -0.03762252 -0.03719033 -0.03674965 -0.03629836
 -0.03581906 -0.03531469 -0.03478179 -0.0342316 -0.0336842 -0.03315076 -0.03265868 -0.03220423 -0.03179823 -0.03141976
 -0.03105873 -0.030697 -0.0303202 -0.02993295 -0.0295311 -0.02913462 -0.02874856 -0.0283774 -0.02802473 -0.02766808
 -0.027306 -0.0269195 -0.0265083 -0.02608453 -0.02564939 -0.02522123 -0.02479604 -0.02436319 -0.02391915 -0.02344294
 -0.02294464 -0.02243267 -0.02192267 -0.02144462 -0.0209963 -0.02059202 -0.02020814 -0.01983372 -0.01944792 -0.01903371
 -0.01859838 -0.018136 -0.01767902 -0.01723364 -0.01682166 -0.01645021 -0.0160991 -0.01576854 -0.01541365 -0.01503254
 -0.01460133 -0.01412161 -0.01359956 -0.01303668 -0.01244226 -0.01181791 -0.01116984 -0.01050685 -0.009847417 -0.00920556
 -0.008609456 -0.008067241 -0.00759957 -0.007201624 -0.006880407 -0.006615269 -0.006402276 -0.006209944 -0.006028149 -0.005833007
 -0.005616311 -0.005373928 -0.005103514 -0.004811601 -0.004498347 -0.004172091 -0.003833394 -0.003495231 -0.003158596 -0.002838428
 -0.002534891 -0.002256748 -0.00200335 -0.001778327 -0.001578583 -0.001402237 -0.001239245 -0.00107599 -0.0008999209 -0.0006918316
 -0.0004494022 -0.0001627228 0.0001582936 0.0005126959 0.0008869839 0.001277023 0.001671829 0.002067471 0.002462913 0.002856449
 0.003259149 0.003672143 0.004097342 0.004534459 0.004961752 0.005378361 0.00576547 0.006127042 0.006472986 0.006808526
 0.007155766 0.007516131 0.007903113 0.008316451 0.00876307 0.009237329 0.009739105 0.01025366 0.01077104 0.01127974
 0.01177079 0.0122422 0.01269277 0.01311659 0.01351294 0.01387281 0.01419375 0.01448022 0.01473215 0.01495798
 0.01515801 0.01533095 0.01547777 0.01560644 0.01572112 0.01584863 0.01599022 0.0161656 0.01636977 0.01660155
 0.01685607 0.01712724 0.017407 0.01768884 0.01795449 0.01818986 0.0183801 0.01851098 0.01858892 0.01860949
 0.01859686 0.01855284 0.0185115 0.01847655 0.01848357 0.01853662 0.01864684 0.0188145 0.01901549 0.01924808
 0.01948481 0.01972681 0.0199653 0.02020355 0.02044467 0.02069734 0.02098161 0.02130444 0.02169231 0.02212682
 0.02259996 0.0230911 0.02356754 0.02407096 0.0246034 0.02524155 0.02603801 0.02691662 0.02789008 0.02875907
 0.02948057 0.03006172 0.03049332 0.03091038 0.03131889 0.03177631 0.03227733 0.03278284 0.03328442 0.03371678
 0.03407871 0.03433148 0.03447964 0.03451262 0.03443973 0.03426956 0.03401227 0.03367927 0.03328481 0.03283496
 0.03236553 0.03189124 0.03145399 0.03107467 0.03076107 0.0305209 0.03033941 0.03021408 0.03014606 0.03013531
 0.03018304 0.03028914 0.0304339 0.03061754 0.03083612 0.03109175 0.03140385 0.03175492 0.03211158 0.03242325
 0.03255816 0.03248793 0.03208136 0.03141818 0.03050725 0.0295072 0.02854084 0.02770349 0.02709523 0.02667669
 0.02646299 0.02637128 0.02637438 0.02647845 0.02667376 0.02703907 0.02758574 0.02828891 0.02914652 0.02997094
 0.0307542 0.0313364 0.03173569 0.031967 0.03205917 0.03212051 0.03215861 0.03224703 0.0323724 0.03254826
 0.03275304 0.03296923 0.03317827 0.03335844 0.03350789 0.03361743 0.03369988 0.03375574 0.03380417 0.03384538
 0.03391742 0.03402321 0.03421385 0.03449571 0.03488129 0.0353712 0.03591422 0.03650469 0.03706185 0.03757912
 0.03797776 0.03825575 0.03835709 0.03830023 0.03809055 0.03776858 0.03740108 0.03701493 0.036671 0.03636151
 0.03609984 0.03587296 0.03567545 0.03550534 0.03536277 0.03523804 0.03512967 0.03502598 0.03492371 0.03482711
 0.03473664 0.03465126 0.03457087 0.03447483 0.03436248 0.03421928 0.03404677 0.03384679 0.03362031 0.03337027
 0.03309961 0.03281523 0.03252258 0.03223465 0.03195123 0.03167543 0.03141092 0.031155 0.03093252 0.03075564
 0.03064238 0.03061178 0.03062737 0.0306925 0.03072719 0.03072139 0.03060454 0.03036766 0.02998548 0.02945626
 0.02881141 0.02805514 0.02725016 0.02639819 0.02554059 0.02467627 0.02381827 0.02297605 0.02217492 0.02143123
 0.02078648 0.02023948 0.01980978 0.01947635 0.01923295 0.0190499 0.01891582 0.01878848 0.01865196 0.01847128
 0.01822891 0.01794104 0.01760345 0.01726807 0.01694006 0.01664689 0.01639033</values></Ydata></AB><ScSm><Ydata ylabel="Single channel"><values byteorder="INTEL" format="FLOAT32" numvalues="1814"> 0.07395169 0.07397042 0.07405873 0.07423432 0.07446179 0.07467405 0.07481888 0.0748918 0.07491606 0.07489824
 0.07483783 0.07478237 0.07482311 0.07500528 0.07526299 0.07546142 0.07550666 0.07543133 0.07537684 0.07545425
 0.07559658 0.07557895 0.07522997 0.07462583 0.07404055 0.07369441 0.07361818 0.07380909 0.07435977 0.07520077
 0.07581926 0.07562697 0.07469632 0.07378724 0.07350338 0.07371557 0.07392064 0.07382485 0.07343061 0.07292004
 0.07271151 0.07334855 0.07496056 0.07681897 0.07760346 0.07624041 0.07267095 0.06808454 0.06447611 0.06357726
 0.06563625 0.06907535 0.0716745 0.07234126 0.07163022 0.07061434 0.069732 0.06893004 0.06841415 0.0686899
 0.06986471 0.07117575 0.0713848 0.06983905 0.06724808 0.06517907 0.0646266 0.0653888 0.06690729 0.06887602
 0.07039157 0.06946679 0.06498668 0.05918492 0.05664691 0.05994888 0.06690747 0.07271472 0.07421555 0.07167683
 0.06738814 0.063761 0.0624187 0.06376629 0.06692438 0.07045797 0.07324347 0.07451821 0.07368849 0.07084624
 0.06727619 0.06483279 0.06479739 0.06737372 0.07164861 0.07567907 0.0773751 0.07604361 0.07284951 0.06958745
 0.06750154 0.06729193 0.06929224 0.07312015 0.07765533 0.08168688 0.08440534 0.08548718 0.08516638 0.08408502
 0.08280323 0.08170681 0.08134731 0.08210176 0.08327913 0.08338532 0.08174957 0.07941894 0.0780795 0.07831255
 0.07913077 0.07917905 0.07810598 0.07634231 0.07376301 0.06966366 0.06438638 0.05974761 0.05722204 0.05682068
 0.05817486 0.06111359 0.06439314 0.06562138 0.06387736 0.06138474 0.06130847 0.06437827 0.06850898 0.07134288
 0.07243127 0.0730733 0.07464041 0.07717299 0.07920469 0.07887426 0.07577816 0.07200111 0.07063572 0.07274482
 0.07634121 0.07882684 0.07972617 0.08039024 0.08163849 0.08249646 0.0812209 0.07737428 0.07292862 0.07104525
 0.07332365 0.07819986 0.08208083 0.08200625 0.07764108 0.07134199 0.06631725 0.06440953 0.06560207 0.06923806
 0.07473943 0.08097605 0.08597475 0.08802658 0.08693551 0.08390655 0.08017609 0.07588281 0.07071705 0.06579147
 0.06386688 0.06674075 0.07294515 0.07897042 0.08239849 0.08310687 0.08190059 0.0790251 0.07438927 0.06897321
 0.0652795 0.06539227 0.06847131 0.07123187 0.07138029 0.06969829 0.06835334 0.06819703 0.06845497 0.06837968
 0.06831042 0.06908045 0.07081967 0.07263871 0.07349205 0.07313267 0.0721455 0.07126155 0.07070422 0.07004312
 0.06880318 0.06740427 0.06712086 0.06868359 0.07126983 0.07334951 0.07422081 0.07426233 0.07392079 0.07294706
 0.07078413 0.06764182 0.06493136 0.06421828 0.06570164 0.06809135 0.06994951 0.07072271 0.07059087 0.06993907
 0.06910153 0.06825297 0.06746733 0.06695576 0.06701287 0.06758827 0.06819557 0.06840467 0.06819145 0.06771626
 0.06702106 0.06608962 0.06505986 0.06423123 0.06385016 0.06391925 0.06423745 0.06458664 0.06480557 0.06474277
 0.06431252 0.06362355 0.06291513 0.06233969 0.06190865 0.06163035 0.06155708 0.06166828 0.06181568 0.06183952
 0.06169373 0.06143023 0.06110309 0.06072673 0.06031262 0.05991238 0.05960996 0.05945822 0.05941479 0.059372
 0.05928186 0.05920736 0.05919743 0.05916528 0.05897628 0.05862516 0.05824551 0.05795979 0.05778305 0.05765896
 0.05752574 0.05732904 0.05701578 0.05657688 0.05611269 0.0558035 0.05576774 0.05597116 0.05628745 0.05659203
 0.05678448 0.05680715 0.05668986 0.05652075 0.0563447 0.05613308 0.05586187 0.05558025 0.05539402 0.05538939
 0.05555813 0.05579416 0.05597737 0.05605225 0.05603138 0.05597033 0.05594566 0.05599473 0.05605888 0.05603952
 0.05592255 0.05580011 0.05576173 0.05580016 0.05583281 0.05579814 0.0557237 0.05569456 0.05575576 0.05586737
 0.05596321 0.05602676 0.05609272 0.05618966 0.05629335 0.05633973 0.05629408 0.056201 0.05614042 0.05614126
 0.05617393 0.0562212 0.05630895 0.05645518 0.05662376 0.05675188 0.05681404 0.05684218 0.05687792 0.05691802
 0.05692483 0.05688459 0.05683039 0.05680516 0.05682321 0.05687103 0.05692682 0.05697277 0.05699952 0.05700598
 0.05699467 0.05696606 0.05691845 0.05685801 0.05681198 0.05681954 0.05689216 0.05698522 0.05702717 0.05698355
 0.0568874 0.05680507 0.0567743 0.05677609 0.0567647 0.05671917 0.05665864 0.05661358 0.05659716 0.05660346
 0.05661709 0.05662157 0.05661617 0.05663124 0.05670996 0.05685964 0.05702969 0.05715355 0.05721185 0.05724294
 0.0572947 0.05738001 0.05748029 0.05757932 0.05768613 0.05782361 0.05799197 0.05815199 0.058263 0.05833538
 0.05842214 0.05855856 0.05873513 0.05892679 0.05911548 0.05928002 0.05939896 0.05947776 0.05954982 0.0596383
 0.05973386 0.05981834 0.05989396 0.05997737 0.06007712 0.06019315 0.06033733 0.06054112 0.0608358 0.06122395
 0.06166948 0.06211787 0.0625357 0.0629366 0.06336416 0.06384452 0.06435676 0.06485049 0.06528916 0.06567654
 0.06604409 0.0664163 0.06679569 0.06718353 0.06759959 0.06806281 0.06855959 0.06905171 0.06951588 0.06995993
 0.07040156 0.07084677 0.07129234 0.07173903 0.07219566 0.07266938 0.07315129 0.07361693 0.07404794 0.07445152
 0.07485428 0.07528065 0.07573907 0.07621544 0.07667215 0.07707058 0.07741286 0.07774969 0.07812668 0.07853146
 0.07891665 0.07926764 0.07961951 0.08000652 0.0804226 0.08084213 0.08125758 0.08168148 0.0821215 0.08256344
 0.08297475 0.08332548 0.08361603 0.08388293 0.08416894 0.08449265 0.08485611 0.08526585 0.08572181 0.08619255
 0.08662754 0.08699577 0.08730038 0.0875652 0.08782354 0.08810706 0.08842521 0.08875991 0.08908857 0.08939795
 0.08967486 0.08991289 0.09014024 0.09040993 0.09074479 0.09111769 0.09150141 0.09190729 0.09235095 0.09280788
 0.0932417 0.09366382 0.09412269 0.09462577 0.09510873 0.09550093 0.09579408 0.09602676 0.09623305 0.09644093
 0.09669708 0.09704463 0.09747455 0.09792928 0.0983583 0.09875033 0.09911389 0.09945029 0.09975237 0.1000155
 0.1002417 0.1004382 0.1006227 0.1008275 0.10109 0.101422 0.1017873 0.1021208 0.1023738 0.1025334
 0.102599 0.1025677 0.102457 0.1023206 0.1022071 0.1021 0.1019204 0.1015956 0.1011096 0.100485
 0.09973624 0.098864 0.09789309 0.09690325 0.0960149 0.09534182 0.09495285 0.09486831 0.09507573 0.09553176
 0.09614926 0.09680292 0.09736321 0.0977211 0.09778176 0.09746674 0.0967596 0.09574983 0.09460445 0.093481
 0.0924646 0.09157297 0.09080637 0.0902008 0.08985464 0.08990465 0.09046244 0.09156102 0.09314592 0.09509274
 0.0972268 0.09935574 0.1013242 0.1030599 0.1045732 0.105913 0.1071268 0.1082537 0.1093294 0.1103734
 0.1113713 0.1122888 0.1131078 0.113836 0.1144828 0.1150408 0.1154911 0.1158164 0.1160124 0.1161002
 0.1161282 0.1161529 0.1162155 0.1163326 0.1164917 0.1166442 0.1167112 0.1166114 0.1162967 0.1157852
 0.1151878 0.114715 0.1146373 0.1151947 0.1164879 0.1184156 0.120709 0.1230515 0.1251997 0.127032
 0.1285259 0.1297196 0.1306839 0.1314954 0.1322102 0.1328582 0.1334572 0.1340232 0.1345684 0.1350972
 0.135609 0.1361071 0.1365992 0.1370888 0.1375684 0.1380265 0.1384654 0.1389038 0.1393599 0.1398333
 0.1403058 0.1407584 0.1411905 0.1416214 0.1420671 0.1425178 0.1429463 0.14334 0.1437155 0.1440993
 0.1445054 0.1449304 0.1453557 0.1457561 0.1461166 0.1464457 0.1467667 0.1470962 0.1474366 0.1477842
 0.1481355 0.1484824 0.148813 0.1491261 0.1494398 0.1497729 0.150117 0.1504385 0.1507151 0.1509613
 0.1512133 0.1514938 0.1517971 0.1521017 0.1523939 0.1526817 0.152987 0.1533215 0.1536689 0.1539977
 0.1542914 0.1545619 0.1548328 0.1551155 0.1554078 0.1557069 0.1560137 0.1563269 0.1566395 0.1569454
 0.1572445 0.1575407 0.1578375 0.1581371 0.15844 0.1587453 0.1590514 0.1593576 0.1596655 0.1599811
 0.1603112 0.1606503 0.1609777 0.161275 0.1615438 0.1617988 0.1620514 0.1623073 0.1625734 0.1628548
 0.1631484 0.163448 0.1637506 0.1640553 0.1643587 0.16466 0.1649642 0.1652746 0.1655854 0.1658873
 0.1661787 0.1664679 0.1667623 0.1670606 0.1673565 0.1676477 0.1679368 0.1682244 0.1685068 0.1687808
 0.1690469 0.1693083 0.1695698 0.1698359 0.1701096 0.1703902 0.1706724 0.1709472 0.1712069 0.1714524
 0.1716935 0.1719413 0.1721987 0.172459 0.1727119 0.1729546 0.1731951 0.1734422 0.1736943 0.1739429
 0.1741861 0.1744319 0.1746893 0.1749593 0.1752346 0.1755033 0.1757577 0.1760003 0.1762392 0.1764816
 0.1767294 0.1769798 0.1772272 0.1774691 0.1777094 0.1779523 0.178197 0.1784406 0.1786821 0.1789218
 0.1791614 0.1794033 0.1796484 0.1798934 0.1801362 0.1803794 0.1806279 0.180883 0.1811408 0.1813945
 0.1816418 0.1818884 0.1821391 0.1823905 0.1826351 0.1828683 0.1830873 0.1832931 0.1834946 0.1837021
 0.1839182 0.1841393 0.1843637 0.1845916 0.1848221 0.1850546 0.1852884 0.185523 0.1857608 0.1860059
 0.1862558 0.1865023 0.1867414 0.1869748 0.1872067 0.1874437 0.1876923 0.187951 0.1882123 0.1884716
 0.1887285 0.1889836 0.1892366 0.1894852 0.1897264 0.1899651 0.1902146 0.1904781 0.1907415 0.1909927
 0.1912328 0.191467 0.191699 0.1919332 0.1921707 0.1924079 0.1926474 0.1928971 0.1931542 0.1934067
 0.1936474 0.1938757 0.1940944 0.1943127 0.1945405 0.1947785 0.1950255 0.1952845 0.1955492 0.195802
 0.1960356 0.1962559 0.1964663 0.1966686 0.196873 0.1970865 0.1973065 0.1975316 0.1977582 0.1979631
 0.1980963 0.1980381 0.1974849 0.1958282 0.1921433 0.1853745 0.1747543 0.1602849 0.1429076 0.1241711
 0.105661 0.08858386 0.07364678 0.06115695 0.05118331 0.04365556 0.03842007 0.03534038 0.0344093 0.03586758
 0.04032931 0.04841526 0.05938582 0.06994126 0.0755123 0.07386449 0.06722958 0.06027149 0.05621569 0.05529141
 0.05611889 0.05751937 0.05912227 0.06114536 0.06395613 0.06765529 0.07206245 0.07716708 0.08334693 0.09088314
 0.0993789 0.1079252 0.1158851 0.1233941 0.1310493 0.1391897 0.1475379 0.1554713 0.162518 0.168595
 0.1739093 0.1787324 0.1832473 0.1875319 0.1916174 0.1954921 0.1990165 0.2018888 0.2037899 0.2046282
 0.2046547 0.2043206 0.2040103 0.2038936 0.2039824 0.2042497 0.2046768 0.2052458 0.2059385 0.2067327
 0.2075915 0.2084723 0.2093485 0.2102072 0.211033 0.2118065 0.2125134 0.2131478 0.2137166 0.214239
 0.2147307 0.2151919 0.2156176 0.216012 0.2163857 0.2167463 0.2170967 0.217435 0.2177549 0.2180524
 0.2183295 0.2185892 0.2188335 0.2190679 0.2193001 0.2195322 0.2197604 0.2199822 0.2202006 0.2204219
 0.2206498 0.2208789 0.2210986 0.2213071 0.2215159 0.2217363 0.2219661 0.2221956 0.2224192 0.2226391
 0.2228629 0.2230965 0.2233355 0.2235674 0.2237857 0.2239974 0.2242151 0.2244452 0.224685 0.2249258
 0.2251653 0.2254145 0.225684 0.2259649 0.2262389 0.2265017 0.2267617 0.227023 0.2272846 0.2275436
 0.2277874 0.2279946 0.2281628 0.2283264 0.2285349 0.2288113 0.2291288 0.2294326 0.2296888 0.2299103
 0.230131 0.2303672 0.2306103 0.2308438 0.231063 0.2312904 0.2315617 0.2318859 0.2322333 0.2325727
 0.232895 0.2331983 0.2334849 0.2337741 0.2340782 0.2343663 0.2345936 0.2347721 0.2349835 0.2353092
 0.2357488 0.2362109 0.2365961 0.2368864 0.2371388 0.2374146 0.23774 0.238089 0.2383627 0.2384561
 0.2384173 0.2384759 0.2388306 0.2394482 0.2401273 0.2407056 0.2411564 0.241531 0.2418717 0.2421701
 0.2423795 0.2424664 0.2424816 0.2425823 0.2429293 0.2435229 0.2441865 0.2447448 0.2451609 0.2454772
 0.2457303 0.2459513 0.2461164 0.2460745 0.2457124 0.245258 0.2452214 0.2458933 0.2470112 0.2480398
 0.2487031 0.2491203 0.2494907 0.2498478 0.2501325 0.2502514 0.2499531 0.2489633 0.2475292 0.2465801
 0.2469604 0.2485763 0.2505509 0.2521014 0.253031 0.2535353 0.2538647 0.2541562 0.254324 0.2540685
 0.2532127 0.2521411 0.2516944 0.2523909 0.253842 0.2551695 0.2559028 0.2562249 0.2564935 0.2568436
 0.2571005 0.2567424 0.2551963 0.2526786 0.2506186 0.2506553 0.2530383 0.2563301 0.2588302 0.2600362
 0.260516 0.2606637 0.260122 0.2584353 0.255739 0.2526976 0.2503034 0.2497496 0.2516404 0.2549905
 0.2577823 0.2589612 0.2593298 0.2602188 0.2618972 0.2635779 0.26444 0.2642629 0.2632924 0.2617951
 0.2599278 0.2581527 0.2574905 0.2587983 0.261726 0.2648389 0.2669459 0.2680057 0.2685028 0.2680455
 0.2650753 0.2587371 0.2512319 0.247218 0.2496942 0.2568614 0.2640601 0.2683575 0.2701567 0.2710115
 0.2715441 0.2712691 0.2688725 0.2629303 0.2541478 0.2467656 0.2456886 0.2516346 0.2603242 0.2664773
 0.2674076 0.2633079 0.2563119 0.2498652 0.2473131 0.2498665 0.2560751 0.2632641 0.2691349 0.2723855
 0.2727043 0.2706593 0.2676528 0.2655668 0.2653933 0.2657511 0.2639257 0.2592706 0.2542523 0.250828
 0.2474501 0.2419858 0.2364503 0.2356981 0.2411738 0.2485967 0.2528166 0.253048 0.2519565 0.250754
 0.2470784 0.2383724 0.2267117 0.2188699 0.2203815 0.2297833 0.2398896 0.2447842 0.2445045 0.2429642
 0.2427116 0.2423395 0.2385218 0.2304094 0.2218273 0.2180915 0.2203904 0.2247283 0.2266461 0.2247728
 0.2192734 0.2104236 0.2011728 0.1980609 0.2056622 0.2209614 0.2357363 0.2433392 0.2411219 0.2289474
 0.210072 0.1930119 0.1873964 0.1953716 0.2089904 0.2175141 0.2159388 0.2058858 0.1909689 0.1742902
 0.1598261 0.152883 0.1568981 0.1699248 0.1848146 0.1928514 0.1885648 0.173904 0.15842 0.1523913
 0.157588 0.1661591 0.1694599 0.1658771 0.159575 0.1550235 0.1543757 0.1572613 0.1612363 0.1640042
 0.1652413 0.1642172 0.1573689 0.1426431 0.1254123 0.1149714 0.1148546 0.120993 0.1291844 0.1388359
 0.1482344 0.1520117 0.1472273 0.1389929 0.1361222 0.1417875 0.1508326 0.1561106 0.1555652 0.1525662
 0.1506895 0.1499068 0.1484139 0.1467679 0.1480132 0.1534397 0.1602725 0.1647424 0.1659891 0.1657048
 0.1652541 0.1646532 0.1635567 0.1618578 0.1595984 0.1570688 0.1547377 0.1527188 0.1506758 0.1483631
 0.1456155 0.141591 0.1349773 0.1259088 0.1171539 0.1119815 0.1107728 0.1111826 0.1116417 0.1123402
 0.1120231 0.1070154 0.09612696 0.08470459 0.08074382 0.08717753 0.09971264 0.111678 0.1190061 0.1205147
 0.1160394 0.1069893 0.09842107 0.09740178 0.1071329 0.1238275 0.1408098 0.1542835 0.1636296 0.1681611
 0.1666985 0.1602461 0.1529983 0.1499685 0.1539763 0.1643408 0.1769711 0.1853017 0.1835239 0.1724772
 0.1623777 0.1652606 0.1822135 0.2013921 0.2113155 0.2125287 0.2127943 0.2150325 0.2159432 0.2146371
 0.215997 0.2239992 0.2358449 0.2447028 0.2456748 0.2376998 0.2228986 0.2070244 0.1979491 0.1993833
 0.2067361 0.2121823 0.2122891 0.2075424 0.1976572 0.1834183 0.1715572 0.1707224 0.1814084 0.1947894
 0.202761 0.2053275 0.2069299 0.2088728 0.2078179 0.2008723 0.1903042 0.1821056 0.1799952 0.1821342
 0.1842423 0.1841463 0.1818478 0.1769763 0.1690059 0.1598694 0.153982 0.1544551 0.1599866 0.1662057
 0.1697065 0.1702577 0.1696444 0.1694534 0.1700192 0.1706473 0.1707634 0.1713787 0.1748802 0.1823254
 0.1915129 0.1991488 0.2046036 0.2100717 0.217107 0.2243864 0.229212 0.2303973 0.2294298 0.2292599
 0.2319729 0.2371025 0.2419387 0.243832 0.242723 0.2414461 0.2431281 0.2481961 0.2542911 0.2589373
 0.2615663 0.2630257 0.2641431 0.2650398 0.2650858 0.2634243 0.2603165 0.2579322 0.2588376 0.2634402
 0.2695578 0.2746016 0.2776078 0.2791172 0.2798087 0.2797506 0.278792 0.2772383 0.2758735 0.2753509
 0.2757449 0.2767144 0.2778913 0.2790302 0.2799868 0.2807317 0.2813372 0.2818823 0.2824038 0.2829299
 0.2834672 0.283938 0.284231 0.2843661 0.2845261 0.2848516 0.2852606 0.2855442 0.2855743 0.2853132
 0.2846811 0.2835776 0.2820484 0.2802956 0.2784734 0.2765866 0.2747002 0.2732107 0.2727507 0.2736985
 0.2757823 0.2782089 0.2801522 0.2811339 0.2811367 0.2805751 0.2801017 0.2801899 0.2807858 0.2814091
 0.2816061 0.2812664 0.2805554 0.2796753 0.2787373 0.2777714 0.2767332 0.2754854 0.273895 0.2720701
 0.2704685 0.2696071 0.2695662 0.2698612 0.2699189 0.2696601 0.2695095 0.2698306 0.2704408 0.2706786
 0.2698839 0.267907 0.265342 0.2632354 0.2623342 0.2625293 0.2631212 0.2635794 0.2638814 0.2641894
 0.2644851 0.26461 0.2644703 0.2640712 0.2634255 0.2625166 0.261334 0.2599021 0.25827 0.2564822
 0.2545615 0.2525183 0.2503667 0.2481255 0.2458076 0.2434154 0.2409445 0.238407 0.2358499 0.2333266
 0.2308246 0.2282241 0.2253348 0.2219743 0.2180198 0.2134239 0.208217 0.202504 0.1964485 0.19025
 0.1841217 0.178266 0.172849 0.1679928 0.1637841 0.160278 0.1574939 0.1554236 0.1540538 0.1533754
 0.153372 0.1540085 0.1552248 0.1569194 0.1589287 0.1610328 0.1630041 0.1646802 0.1660235 0.1671266
 0.1681506 0.1692339 0.1704336 0.1717378 0.1731144 0.1745268 0.1759072 0.1771536 0.1781834 0.1789843
 0.1795958 0.1800515 0.1803464 0.1804342 0.1802196 0.1795557 0.1783089 0.1765329 0.1746581 0.1734677
 0.1737228 0.1756513 0.1787574 0.1821592 0.1851607 0.1875711 0.1895946 0.1915144 0.193485 0.1955256
 0.1976086 0.1997302 0.201937 0.2043139 0.2069413 0.2098527 0.2130238 0.2163878 0.2198581 0.2233429
 0.2267474 0.2299674 0.2329008 0.2354743 0.2376556 0.2394476 0.2408916 0.2420655 0.2430512 0.2438981
 0.2446288 0.2452639 0.2458204 0.2462893 0.24663 0.2467905 0.2467382 0.2464792 0.2460473 0.2454799
 0.2448118 0.2440913 0.2433846 0.242761 0.242273 0.2419351 0.2417129 0.2415394 0.2413456 0.2410735
 0.2406734 0.2401076 0.2393582 0.2384275 0.237336 0.2361116 0.2347658 0.2332853 0.2316576 0.2298993
 0.2280541 0.226171 0.2242861 0.2224099 0.2205238 0.2185858 0.2165349 0.2143095 0.2118997 0.2093895
 0.2069191 0.2045936 0.2024333 0.2003984 0.1984415 0.1965345 0.1946563 0.1927794 0.1909043 0.1891121
 0.1875295 0.1862001 0.1850186 0.1838241 0.182544 0.1812347 0.1800109 0.1789537 0.1780677 0.1773029
 0.1766088 0.1759704 0.1754108 0.1749785 0.1747169 0.1746132 0.174574 0.1744709 0.1742234 0.1738444
 0.1734109 0.1729901 0.1725907 0.172181 0.1717334 0.1712312 0.1706439 0.1699169 0.1689773 0.1677449
 0.1661702 0.1642797 0.1621701 0.1599573 0.1577535 0.1556759 0.1538321 0.1522814 0.1510186 0.149991
 0.1491313 0.148393 0.1477692 0.1472882 0.1469914 0.1468839 0.1468788 0.1468237 0.1466336 0.1463826
 0.1462348 0.1463022 0.1465785 0.1469699 0.1473656 0.1477019 0.1479664 0.14815 0.1482304 0.1482038
 0.1480881 0.1478875 0.1475928 0.1472098 0.1467599 0.1462666 0.1457509 0.1452115 0.1446104 0.1439053
 0.1430812 0.1421396 0.1410912 0.1399564 0.1387277 0.1373652 0.1359068 0.1345584 0.1336037 0.1332246
 0.1334094 0.1339788 0.1347054 0.1354506 0.1361434 0.1366204 0.1366695 0.1363841 0.1363392 0.1371806
 0.1390071 0.1412596 0.143217 0.1444984 0.1450885 0.1450762 0.1445246 0.1434926 0.1420071 0.1400471
 0.1376487 0.1349458 0.1320607 0.1290852 0.1261777 0.1235263 0.1212323 0.1193246 0.1178117 0.1167321
 0.1161894 0.1158075 0.1138029 0.107904 0.09883098 0.09188823 0.09254858 0.1003264 0.109085 0.1135349
 0.1134815 0.1117159 0.1101928 0.1092278 0.1087339 0.1088455 0.1096754 0.1110648 0.1125986 0.1138471
 0.1146403 0.1150273 0.1149691 0.1141239 0.1118165 0.1072623 0.1002078 0.0915335 0.08297063 0.07605597
 0.07139387 0.06873269 0.06740502 0.06670748 0.06619143 0.06581701 0.06585424 0.06660728 0.06819625 0.07054332
 0.07346614 0.07667944 0.07975839 0.08230866 0.08424629 0.08577445 0.08704713 0.0879879 0.08845095 0.08841258
 0.08796884 0.08725034 0.0863792 0.08544891 0.08449309 0.08348439 0.08242437 0.08145586 0.0808036 0.08054851
 0.08054267 0.08059457 0.08063597 0.08067089 0.08068563 0.08066638 0.08063325 0.08064413 0.08079514 0.08116069
 0.08168983 0.08221924 0.08261117 0.08283892 0.08294881 0.08295718 0.08276923 0.08227457 0.08160092 0.08111005
 0.08094668 0.08075226 0.08009825 0.07910308 0.07834967 0.0782349 0.07861607 0.07906891 0.07929228 0.07924552
 0.07908551 0.07908084 0.07945119 0.08011229</values></Ydata></ScSm><ScRf><Ydata ylabel="Single channel"><values byteorder="INTEL" format="FLOAT32" numvalues="1820"> 0.06066067 0.06082319 0.06092183 0.06095419 0.06094753 0.0609534 0.06102385 0.06117671 0.06137995 0.06156962
 0.06169219 0.06173886 0.06173315 0.06169053 0.06161942 0.06156389 0.06160026 0.06176244 0.06198946 0.0621653
 0.06221189 0.06215629 0.06211353 0.06217463 0.06228679 0.06226752 0.06197625 0.06147579 0.06099286 0.0607085
 0.06064354 0.06079128 0.06123218 0.0619209 0.06243962 0.06229157 0.06152023 0.06075162 0.06049902 0.06066844
 0.0608424 0.06076817 0.06044185 0.06001555 0.05983908 0.0603647 0.06170171 0.06324895 0.06391093 0.06279087
 0.0598337 0.05602618 0.0530272 0.05227564 0.0539789 0.05683026 0.0589883 0.05954428 0.05895768 0.05812123
 0.05739857 0.05673983 0.05631021 0.05653068 0.05749724 0.05858189 0.05875715 0.05747934 0.05533608 0.0536256
 0.05316894 0.05379713 0.05505138 0.05668345 0.05794432 0.0571814 0.05346556 0.04864806 0.04653494 0.04926983
 0.05504726 0.05987695 0.06113293 0.05903122 0.05547611 0.05247745 0.05138277 0.05251765 0.05514256 0.05806717
 0.0603647 0.0614057 0.06070223 0.05833886 0.05538392 0.05336618 0.05333746 0.05546729 0.05900808 0.06235547
 0.06377397 0.06268062 0.06003607 0.05733071 0.05560156 0.05543112 0.05709568 0.06027962 0.06405541 0.06741691
 0.06968854 0.07059833 0.07034025 0.0694529 0.06840774 0.06752164 0.06724034 0.06787179 0.06885134 0.06894848
 0.06760517 0.06568283 0.06457695 0.06477249 0.0654542 0.06549792 0.06460963 0.06314676 0.06100699 0.05760227
 0.05321204 0.04935021 0.04725522 0.04694262 0.04810096 0.05058062 0.05334171 0.0543879 0.05294804 0.050875
 0.05081181 0.05337394 0.05682728 0.05920457 0.0601271 0.06067614 0.06199722 0.0641274 0.06584537 0.06559501
 0.06303197 0.05989505 0.05877788 0.06057977 0.06363696 0.06576699 0.06657189 0.06719288 0.06832227 0.06913448
 0.06814894 0.0649876 0.06131504 0.05980567 0.06181239 0.06601344 0.06937333 0.06938766 0.06576894 0.0605149
 0.05635276 0.05485088 0.05600104 0.05926131 0.06415614 0.06972033 0.07424696 0.07624095 0.07550196 0.07305311
 0.06997195 0.06639077 0.06204139 0.05790477 0.05642918 0.05922308 0.06499797 0.07063636 0.07397354 0.07488396
 0.07407261 0.0717378 0.0677729 0.06307079 0.05995482 0.06037296 0.06355035 0.06642605 0.06685737 0.06557535
 0.06461413 0.06477475 0.06532179 0.06554556 0.06578127 0.06684413 0.06886731 0.07098828 0.07218002 0.07218185
 0.0715539 0.07102251 0.07081555 0.07049255 0.06957152 0.06849991 0.06859827 0.07061157 0.07367995 0.07621991
 0.07751153 0.0779593 0.07802735 0.07742324 0.07551808 0.07252446 0.06997844 0.06960036 0.07163049 0.07467473
 0.07715261 0.0784388 0.07871975 0.07841533 0.07789074 0.07734434 0.07687506 0.07673346 0.07725315 0.07837132
 0.07952465 0.08021012 0.08039463 0.08026159 0.07985362 0.07915014 0.07832646 0.07775171 0.07772155 0.07823679
 0.0790554 0.07990872 0.08059306 0.08092263 0.08079385 0.08033717 0.07984493 0.07950418 0.07932465 0.07931872
 0.07956722 0.08005743 0.0806035 0.08100348 0.08119886 0.08124238 0.08118468 0.08104218 0.08084017 0.08065189
 0.08058951 0.08072645 0.08100688 0.08128265 0.08148292 0.08168432 0.08195116 0.08218205 0.08221517 0.08204386
 0.08183347 0.08173989 0.0817838 0.0818921 0.08198342 0.0819805 0.08180098 0.08143166 0.08102614 0.0808441
 0.08103985 0.08155128 0.08220275 0.08283293 0.083314 0.08356881 0.08363044 0.08360972 0.08356359 0.08345098
 0.08323896 0.08300734 0.082923 0.083111 0.08354094 0.08404343 0.08444601 0.08467824 0.08476467 0.08478689
 0.08485554 0.08502887 0.08523012 0.08531827 0.08526421 0.08519302 0.08523037 0.08535756 0.08544528 0.08540872
 0.0853076 0.08528595 0.08542051 0.08565058 0.08586359 0.08602099 0.08617784 0.08638684 0.08660058 0.08669075
 0.08658619 0.086372 0.08620656 0.08615399 0.0861612 0.08619215 0.08629597 0.08650758 0.08674984 0.08689748
 0.08691814 0.08690038 0.08693668 0.08701238 0.08702992 0.08692466 0.08673357 0.08655785 0.08648008 0.08651409
 0.08660798 0.0866833 0.08668405 0.08660659 0.08649069 0.0863803 0.08629416 0.08624138 0.08625779 0.08639324
 0.08663601 0.08686727 0.08693283 0.08678049 0.08651638 0.08631109 0.08624627 0.08625397 0.08620048 0.08601786
 0.08575024 0.08549083 0.08529775 0.08516844 0.08507011 0.08498266 0.08492486 0.08494632 0.0850739 0.08524856
 0.08533694 0.085241 0.08499371 0.08472398 0.08453822 0.08445661 0.08443958 0.08443795 0.0844319 0.08444922
 0.08452557 0.08463006 0.08466965 0.08459389 0.08445983 0.08437554 0.08441427 0.08458369 0.08482079 0.08500526
 0.08503845 0.08493793 0.08482152 0.08478726 0.08483872 0.08492668 0.08501983 0.08511609 0.08521652 0.08531968
 0.08543808 0.08559957 0.08582148 0.08608327 0.08632756 0.0864973 0.08658578 0.08665514 0.08679572 0.08705449
 0.08739772 0.08774041 0.08801313 0.08820982 0.08837616 0.08855225 0.08873762 0.08892395 0.08913924 0.08942348
 0.08976715 0.09011228 0.09041747 0.09069277 0.0909673 0.09125066 0.09153623 0.09183089 0.09216857 0.09257911
 0.09303343 0.09343707 0.0937061 0.09384935 0.09396355 0.09415758 0.09448028 0.09488427 0.09524282 0.09544539
 0.09551132 0.09557954 0.09575702 0.09601293 0.09625755 0.09648649 0.09678636 0.09720565 0.09767303 0.09806156
 0.09831017 0.09846903 0.09863403 0.0988441 0.09904779 0.09917663 0.09923761 0.09930506 0.09942747 0.09959027
 0.09978443 0.1000546 0.1004357 0.1008748 0.1012664 0.1015482 0.1017346 0.1018725 0.1019959 0.1021076
 0.1021824 0.102205 0.1022115 0.1022647 0.1023725 0.1024714 0.1025117 0.1025245 0.1025802 0.1027138
 0.1029216 0.1031959 0.1035178 0.1038357 0.1041074 0.1043656 0.1046864 0.1050706 0.1054055 0.1055839
 0.1056248 0.1056296 0.1056536 0.1056862 0.1057389 0.105873 0.1061259 0.1064623 0.1068214 0.1071769
 0.1075334 0.1078875 0.1082085 0.1084476 0.1085665 0.1085718 0.1085256 0.1085179 0.1086205 0.1088524
 0.1091718 0.1095024 0.1097801 0.1099747 0.1100723 0.1100688 0.1100058 0.1099819 0.11008 0.1102742
 0.1104378 0.1104463 0.1102545 0.1098809 0.1093579 0.1087218 0.1080334 0.1073774 0.1068293 0.1064273
 0.1061856 0.1061341 0.1063248 0.1067768 0.1074203 0.1081227 0.1087697 0.1092922 0.1096169 0.1096482
 0.1093385 0.1087497 0.1080167 0.1072667 0.1065784 0.1059743 0.1054186 0.1048613 0.1043323 0.1039845
 0.104019 0.1045629 0.1056075 0.1070175 0.1085738 0.1100436 0.1112725 0.1122408 0.1130324 0.1137422
 0.114416 0.115069 0.1157233 0.1163911 0.117037 0.1176023 0.1180738 0.1184955 0.118908 0.119306
 0.1196567 0.1199377 0.1201584 0.1203578 0.1205669 0.1207596 0.1208642 0.1208432 0.1207383 0.1206168
 0.1204956 0.120333 0.1200761 0.1197055 0.1192611 0.118857 0.1186685 0.1188684 0.1195309 0.1205805
 0.1218453 0.1231688 0.1244566 0.1256287 0.1265872 0.1272706 0.127713 0.1280159 0.1282735 0.1285377
 0.1288264 0.1291349 0.129444 0.1297388 0.1300225 0.1303131 0.1306307 0.1309793 0.1313318 0.131642
 0.1318864 0.1320973 0.1323443 0.1326733 0.1330637 0.1334498 0.133791 0.1341073 0.1344304 0.1347394
 0.1349809 0.1351464 0.1352952 0.1354986 0.1357895 0.1361561 0.1365487 0.1368951 0.1371455 0.1373149
 0.1374655 0.1376472 0.1378682 0.138114 0.138372 0.1386333 0.1388893 0.1391423 0.1394112 0.1397085
 0.1400089 0.14026 0.1404375 0.1405767 0.1407361 0.1409388 0.1411608 0.1413689 0.1415608 0.1417714
 0.1420392 0.1423593 0.1426729 0.1429148 0.1430709 0.1431835 0.1433062 0.143465 0.143657 0.1438691
 0.1440883 0.1443028 0.1445053 0.1447007 0.1449019 0.1451167 0.1453397 0.145561 0.1457765 0.1459892
 0.1462019 0.146413 0.1466239 0.1468515 0.1471201 0.1474282 0.1477331 0.1479843 0.1481688 0.1483113
 0.1484414 0.1485744 0.1487186 0.1488783 0.1490524 0.1492376 0.1494332 0.1496386 0.1498508 0.1500676
 0.1502891 0.1505142 0.1507372 0.1509491 0.1511461 0.1513371 0.151538 0.1517549 0.1519762 0.1521862
 0.1523823 0.1525762 0.1527792 0.1529877 0.1531854 0.1533641 0.1535362 0.1537199 0.1539175 0.1541166
 0.1543092 0.1544984 0.1546898 0.1548853 0.155085 0.1552878 0.1554906 0.1556884 0.1558785 0.156065
 0.156257 0.1564581 0.1566603 0.1568549 0.1570454 0.1572415 0.1574449 0.1576492 0.1578494 0.1580461
 0.1582415 0.1584373 0.1586352 0.1588384 0.159049 0.1592613 0.1594639 0.1596515 0.1598313 0.1600147
 0.1602077 0.1604102 0.1606198 0.1608327 0.1610442 0.1612526 0.1614592 0.1616669 0.161879 0.1620965
 0.1623183 0.162543 0.1627693 0.1629938 0.1632138 0.1634313 0.1636495 0.1638659 0.1640742 0.1642698
 0.1644494 0.1646133 0.1647686 0.1649264 0.1650949 0.1652768 0.1654682 0.1656591 0.1658433 0.1660258
 0.1662158 0.1664149 0.1666197 0.166829 0.1670419 0.167253 0.1674549 0.1676431 0.1678221 0.1680054
 0.1682047 0.168419 0.16864 0.1688612 0.1690782 0.169288 0.1694931 0.1696965 0.1698948 0.1700882
 0.1702885 0.1705054 0.1707328 0.1709591 0.17118 0.1713955 0.1716081 0.1718223 0.172037 0.172245
 0.1724471 0.1726529 0.1728647 0.1730758 0.1732828 0.1734876 0.1736929 0.173903 0.1741201 0.1743371
 0.1745477 0.1747559 0.174967 0.1751796 0.175395 0.1756163 0.175837 0.1760502 0.1762592 0.1764656
 0.1766644 0.1768586 0.1770571 0.1772478 0.1773814 0.1773378 0.1768372 0.1753379 0.1720184 0.165933
 0.1563849 0.1433677 0.1277254 0.1108544 0.09418271 0.0787954 0.06533206 0.05407587 0.04509361 0.03832378
 0.03363068 0.03089237 0.03009536 0.03144215 0.03547435 0.04275395 0.0526327 0.06215491 0.06720082 0.06573746
 0.05976275 0.05348543 0.04982595 0.04900023 0.04976799 0.05106317 0.05254044 0.05438497 0.05692575 0.06025853
 0.06422761 0.06883037 0.07441087 0.08121984 0.08889608 0.09662231 0.1038283 0.1106355 0.1175776 0.1249561
 0.1325195 0.1397076 0.1460973 0.1516145 0.156444 0.1608283 0.1649294 0.1688134 0.1725083 0.17601
 0.1792009 0.1818125 0.1835553 0.18434 0.184382 0.1840836 0.1838008 0.1837024 0.1838049 0.1840771
 0.184492 0.1850281 0.1856692 0.1864002 0.187196 0.188022 0.1888475 0.1896494 0.1904106 0.1911235
 0.1917866 0.1923948 0.1929442 0.1934421 0.1939004 0.1943267 0.194729 0.1951171 0.195494 0.1958545
 0.1961935 0.1965095 0.1968015 0.1970718 0.1973242 0.1975599 0.1977822 0.1980002 0.1982197 0.198435
 0.1986401 0.19884 0.1990441 0.1992566 0.1994753 0.1996926 0.1998983 0.2000891 0.2002724 0.2004561
 0.2006415 0.200829 0.201022 0.2012217 0.2014248 0.2016277 0.2018286 0.2020267 0.2022217 0.2024135
 0.2026016 0.2027897 0.2029841 0.2031864 0.2033924 0.2036009 0.2038133 0.2040264 0.2042361 0.2044459
 0.2046589 0.2048707 0.205081 0.2052991 0.2055237 0.2057302 0.2058971 0.2060374 0.2061913 0.2063862
 0.2066116 0.2068337 0.2070316 0.207213 0.2073971 0.2075927 0.2077935 0.2079861 0.2081665 0.2083564
 0.2085872 0.2088559 0.2091219 0.2093584 0.2095795 0.2098048 0.2100329 0.21026 0.2104864 0.2106944
 0.2108562 0.2109803 0.2111304 0.2113766 0.2117248 0.2121012 0.2124212 0.2126664 0.2128803 0.2131096
 0.2133741 0.213652 0.2138582 0.2138979 0.2138108 0.2138055 0.2140724 0.214592 0.2151778 0.2156677
 0.2160288 0.2163163 0.2165829 0.216822 0.216974 0.2169932 0.2169306 0.2169467 0.2171983 0.2176847
 0.2182396 0.2187009 0.2190343 0.2192793 0.2194673 0.2196212 0.2197174 0.2196251 0.2192453 0.2187773
 0.2186767 0.2192155 0.2201719 0.2210634 0.2216229 0.2219411 0.2222011 0.2224548 0.2226679 0.2227542
 0.2224654 0.2215349 0.2201866 0.2192774 0.2195861 0.221026 0.2227904 0.224162 0.2249644 0.2253787
 0.2256297 0.2258368 0.2259244 0.2256339 0.2248184 0.2238227 0.2233894 0.2239751 0.2252386 0.2264054
 0.2270544 0.2273365 0.2275585 0.2278385 0.2280273 0.2276672 0.2262494 0.2239658 0.2220905 0.2220857
 0.2241733 0.2270685 0.229251 0.2302729 0.2306482 0.2307361 0.2302147 0.2286682 0.2262182 0.22347
 0.2213147 0.2208056 0.2224645 0.2254066 0.2278403 0.2288375 0.2291219 0.2298821 0.2313521 0.2328173
 0.2335369 0.2333209 0.2324057 0.2310399 0.2293608 0.2277708 0.2271678 0.2283055 0.230874 0.2336119
 0.2354721 0.2364124 0.2368442 0.2364055 0.2337169 0.2280387 0.2213393 0.2177503 0.219924 0.2262653
 0.2326464 0.2364625 0.2380615 0.2388146 0.239269 0.2389909 0.2368205 0.2315097 0.2236974 0.2171476
 0.2162041 0.2214939 0.2292182 0.2346985 0.2355534 0.2319465 0.225761 0.220049 0.2177815 0.2200443
 0.2255617 0.2319584 0.2371878 0.2401033 0.2404485 0.2387365 0.2362063 0.234526 0.234586 0.2351773
 0.2339087 0.2302251 0.2263298 0.2239514 0.2216706 0.2175484 0.2133888 0.2135555 0.2193027 0.2266734
 0.2309378 0.2313871 0.2304954 0.2294175 0.226023 0.2179677 0.2071331 0.199734 0.2008862 0.20929
 0.2183845 0.2227769 0.222531 0.2212439 0.221248 0.2212345 0.2180975 0.2109865 0.2033829 0.2001833
 0.2024906 0.2066251 0.2084828 0.2068114 0.2017836 0.1936862 0.1852743 0.1826209 0.1900009 0.2046634
 0.2189807 0.2267278 0.2253629 0.2146667 0.1976333 0.1823107 0.1778894 0.1864647 0.2004825 0.2096837
 0.2092466 0.2006531 0.1873088 0.1722178 0.1593745 0.154203 0.16032 0.1758642 0.1934935 0.2040092
 0.2014468 0.1877499 0.173227 0.1691356 0.1774046 0.189271 0.195077 0.1930288 0.1878382 0.1846823
 0.1862245 0.1920973 0.1992831 0.2049611 0.2087663 0.2096027 0.2026076 0.1849959 0.163816 0.1513087
 0.1521943 0.1612588 0.173145 0.1871626 0.2008929 0.206884 0.2010496 0.1903988 0.1870629 0.1954136
 0.2083242 0.2158958 0.2152612 0.211096 0.2084062 0.2072039 0.2050146 0.2026444 0.204375 0.2120534
 0.2218677 0.2286065 0.2310783 0.2316281 0.2321529 0.2326635 0.2326436 0.2319205 0.2305702 0.2290386
 0.2280143 0.2276562 0.2274447 0.2269724 0.22591 0.2227852 0.2153061 0.2035711 0.1921084 0.1862878
 0.1866323 0.1891823 0.1913927 0.1936183 0.1936111 0.1849751 0.1656055 0.1446158 0.1357069 0.1439297
 0.1619231 0.1783114 0.1864242 0.1848672 0.1741165 0.1567264 0.1400573 0.1339736 0.1427949 0.1611519
 0.1797306 0.1933025 0.2013137 0.2034334 0.1985738 0.1880605 0.1768924 0.1708752 0.1730882 0.182541
 0.1945047 0.2017234 0.1979642 0.184219 0.171435 0.1724373 0.1884733 0.2071294 0.2162817 0.2163715
 0.2154801 0.2167649 0.2168998 0.2149081 0.2156944 0.2233237 0.2350433 0.2439993 0.245256 0.2377376
 0.2235839 0.2086476 0.2009778 0.2043315 0.2138347 0.2212248 0.2228171 0.2190329 0.209541 0.1952919
 0.1836583 0.1840024 0.1968359 0.2126046 0.2225385 0.2266359 0.2296816 0.2330087 0.2328822 0.2261626
 0.2155585 0.2079593 0.207624 0.2124591 0.2175677 0.2204137 0.2208454 0.2181666 0.2115705 0.2034719
 0.1995409 0.2037753 0.2143429 0.2252689 0.2317547 0.2331722 0.2316774 0.2294017 0.2270157 0.2238896
 0.21951 0.2153326 0.2145028 0.2184969 0.2247699 0.2293743 0.2314832 0.2336555 0.2378137 0.242596
 0.2450201 0.2437388 0.2403118 0.2378372 0.2384717 0.2417291 0.2448407 0.2451108 0.2424842 0.2398442
 0.2403554 0.2444379 0.2497143 0.2537172 0.2558972 0.2570996 0.2581171 0.2590023 0.259029 0.257236
 0.2537883 0.2507815 0.2507588 0.2541854 0.2590026 0.2627582 0.2645904 0.2650892 0.264945 0.2642311
 0.2628031 0.260948 0.2593991 0.2587529 0.2590354 0.2598579 0.2608221 0.2616949 0.2623711 0.2628405
 0.2631572 0.2633651 0.2634819 0.2635517 0.2636251 0.2636693 0.2636027 0.2634603 0.2634258 0.2636279
 0.2639692 0.264228 0.2642645 0.2640398 0.2634956 0.2625606 0.2612842 0.259837 0.2583218 0.2566921
 0.2549785 0.2535645 0.2530871 0.2539539 0.2559599 0.2584123 0.2606124 0.2622072 0.2631827 0.2636833
 0.2638868 0.2639505 0.2639647 0.2639334 0.2638215 0.2636167 0.2633389 0.2630086 0.262634 0.2622347
 0.261855 0.2615341 0.2612633 0.2609851 0.2606384 0.2601997 0.2596907 0.2591543 0.2586192 0.2580714
 0.2574546 0.2567109 0.2558299 0.2548669 0.2539152 0.2530491 0.2522747 0.2515329 0.2507557 0.2499103
 0.2489812 0.2479409 0.2467858 0.2455995 0.244532 0.2436846 0.2430278 0.2424414 0.2418092 0.2410657
 0.2401909 0.239204 0.2381531 0.2370815 0.2359971 0.234879 0.2337012 0.2324427 0.2310933 0.2296604
 0.2281583 0.2265932 0.2249721 0.2233171 0.2216368 0.2198767 0.2179143 0.2156052 0.2128249 0.2094879
 0.2055679 0.201125 0.1963123 0.1913432 0.1864327 0.1817518 0.177423 0.1735439 0.1702024 0.1674702
 0.1653921 0.1639875 0.1632642 0.1632301 0.1638905 0.1652302 0.1671942 0.1696776 0.1725277 0.1755591
 0.1785806 0.181429 0.1840127 0.1863464 0.1885223 0.1906143 0.192608 0.1944367 0.1960612 0.1974892
 0.1987357 0.199801 0.2006836 0.2013964 0.2019676 0.2024318 0.2028199 0.2031559 0.2034597 0.2037434
 0.2040022 0.2042216 0.2043971 0.2045442 0.204691 0.2048667 0.2050951 0.2053942 0.2057763 0.2062383
 0.2067543 0.2072943 0.2078524 0.2084424 0.209071 0.2097375 0.2104588 0.2112747 0.2122232 0.2133197
 0.2145549 0.2158956 0.2172798 0.2186169 0.2198083 0.2207838 0.2215246 0.2220467 0.2223693 0.222503
 0.2224604 0.2222651 0.2219504 0.2215507 0.2210859 0.2205577 0.2199665 0.2193273 0.2186612 0.2179805
 0.2172896 0.216596 0.2159112 0.2152439 0.2145939 0.2139517 0.2133071 0.21266 0.2120207 0.2114006
 0.2108066 0.2102401 0.2096935 0.2091503 0.2085924 0.2080048 0.2073642 0.2066361 0.2057955 0.2048482
 0.2038192 0.2027205 0.2015429 0.2002758 0.1989235 0.1974983 0.196009 0.1944582 0.1928413 0.1911435
 0.1893404 0.1874157 0.1853917 0.1833402 0.1813532 0.1794951 0.1777804 0.1761877 0.1746863 0.1732574
 0.1718996 0.1706125 0.169381 0.1681898 0.1670489 0.1659864 0.1650157 0.1641228 0.1632882 0.1625094
 0.161797 0.1611573 0.1605855 0.1600807 0.1596515 0.1592996 0.1590201 0.1588277 0.1587518 0.1587825
 0.1588484 0.1588699 0.1588192 0.1587224 0.1586226 0.1585447 0.1584836 0.1584241 0.1583624 0.1582814
 0.1581164 0.1577732 0.1571747 0.1562788 0.1550732 0.1535814 0.1518673 0.1500317 0.1482051 0.1465191
 0.1450619 0.1438718 0.1429592 0.1422965 0.1418022 0.14139 0.1410424 0.14082 0.1407991 0.1409836
 0.1412531 0.1414332 0.1414622 0.1414611 0.1416163 0.1420312 0.1426896 0.1434891 0.1442906 0.1449847
 0.1455251 0.1458992 0.1461125 0.1462073 0.1462372 0.1462158 0.1461271 0.1459657 0.1457362 0.1454436
 0.1450977 0.1446941 0.1442028 0.1436079 0.1429278 0.1421768 0.1413543 0.140461 0.1394726 0.1383456
 0.1371285 0.1360298 0.1353141 0.13515 0.1355415 0.1363358 0.137321 0.1383642 0.1393861 0.1401941
 0.1405465 0.1405294 0.1407259 0.141794 0.1438427 0.1463038 0.1484304 0.1498377 0.1505428 0.1506607
 0.1502519 0.149362 0.1479961 0.1460943 0.1436646 0.1408517 0.1378154 0.1346947 0.1316945 0.1290205
 0.1267518 0.1248904 0.1234376 0.1224422 0.1220399 0.1218626 0.12001 0.1140359 0.1047113 0.09770831
 0.09882231 0.1074628 0.1170773 0.1220795 0.1222895 0.1206526 0.1192065 0.1182568 0.1177047 0.1177112
 0.1184176 0.119674 0.1210785 0.1222247 0.1229511 0.1233013 0.1232348 0.1223844 0.1200058 0.1152461
 0.1078289 0.09863564 0.08941065 0.08175921 0.07642168 0.07327485 0.07168604 0.07088643 0.07034542 0.07001698
 0.07022817 0.07129236 0.07324228 0.07590734 0.07909805 0.08257513 0.08593355 0.08875708 0.09093261 0.09265098
 0.09406763 0.09510745 0.09562938 0.09563968 0.09528206 0.09470561 0.09400015 0.093201 0.09228212 0.09117652
 0.08990681 0.08870103 0.08786293 0.08748951 0.08741011 0.0874128 0.08741571 0.08741422 0.08739504 0.08734174
 0.08726212 0.0872088 0.08728666 0.08757873 0.08803643 0.08849472 0.08880986 0.08895899 0.0890158 0.08901709
 0.08883641 0.08829445 0.08747447 0.08674655 0.08628799 0.08575998 0.08474061 0.08337398 0.08230004 0.08196454
 0.08222432 0.08261806 0.0828028 0.08269884 0.08243999 0.08231352 0.08258089 0.08317315 0.08365202 0.08363397
</values></Ydata></ScRf><Data_Parameters_AB><parameter name="DPF">1</parameter><parameter name="NPT">3497</parameter><parameter name="FXV">3996</parameter><parameter name="LXV">500</parameter><parameter name="CSF">1</parameter><parameter name="MXY">0.237812623381615</parameter><parameter name="MNY">-0.0853772833943367</parameter><parameter name="DAT">02/06/2022</parameter><parameter name="TIM">12:18:59.657 (GMT+2)</parameter><parameter name="DXU">WN</parameter></Data_Parameters_AB><AB__Qtest><MainReport name="Quality Test Report"><Header><Line><Legend>Test result ok/not ok [1/0]: </Legend><Value>0</Value></Line><Line><Legend>Method file: </Legend><Value>C:\Users\Public\Documents\Bruker\OPUS_8.2.28\QT\IRBT_v3_default.QT</Value></Line></Header><Matrix><Line><Legend></Legend><Legend>min</Legend><Legend>max</Legend><Legend>measured</Legend></Line><Line><Value>Absorption (X-Range 1):</Value><Value>0.400000</Value><Value>2.000000</Value><Value>0.209917</Value></Line><Line><Value>Noise (X-Range 4):</Value><Value></Value><Value>0.000300</Value><Value>0.000054</Value></Line><Line><Value>Signal/Noise (X-Range 2):</Value><Value>200.000000</Value><Value></Value><Value>59.786729</Value></Line><Line><Value>Signal/Noise (X-Range 3):</Value><Value>40.000000</Value><Value></Value><Value>106.933001</Value></Line><Line><Value>Water vapour (X-Range 5):</Value><Value></Value><Value>0.000300</Value><Value>0.000103</Value></Line><Line><Value>Signal/Water (X-Range 2):</Value><Value>100.000000</Value><Value></Value><Value>31.051611</Value></Line><Line><Value>Signal/Water (X-Range 3):</Value><Value>20.000000</Value><Value></Value><Value>55.538110</Value></Line><Line><Value>Fringes (X-Range 6):</Value><Value></Value><Value>0.000100</Value><Value>0.000063</Value></Line></Matrix></MainReport></AB__Qtest><Data_Parameters_ScSm><parameter name="DPF">1</parameter><parameter name="NPT">1814</parameter><parameter name="FXV">3996.33169228125</parameter><parameter name="LXV">499.541461535156</parameter><parameter name="CSF">1</parameter><parameter name="MXY">0.28557425737381</parameter><parameter name="MNY">0.0344092957675457</parameter><parameter name="DAT">02/06/2022</parameter><parameter name="TIM">12:18:59.657 (GMT+2)</parameter><parameter name="DXU">WN</parameter></Data_Parameters_ScSm><Data_Parameters_ScRf><parameter name="DPF">1</parameter><parameter name="NPT">1820</parameter><parameter name="FXV">4004.04661832813</parameter><parameter name="LXV">495.683998511719</parameter><parameter name="CSF">1</parameter><parameter name="MXY">0.265089154243469</parameter><parameter name="MNY">0.0300953648984432</parameter><parameter name="DAT">02/06/2022</parameter><parameter name="TIM">12:18:33.213 (GMT+2)</parameter><parameter name="DXU">WN</parameter></Data_Parameters_ScRf><Optic_Parameters_Rf><parameter name="APR">0</parameter><parameter name="APT">Open</parameter><parameter name="BMS">KBr</parameter><parameter name="DTC">RT-DLaTGS_IR-Biotyper [Microplate reader]</parameter><parameter name="HPF">0</parameter><parameter name="LPF">10.0</parameter><parameter name="LPV">4000</parameter><parameter name="PGR">0</parameter><parameter name="RCH">Module port</parameter><parameter name="RDX">0</parameter><parameter name="SRC">MIR</parameter><parameter name="VEL">10.0</parameter><parameter name="SON">Off</parameter></Optic_Parameters_Rf><Acquisition_Parameters_Rf><parameter name="ADT">1</parameter><parameter name="AQM">DD</parameter><parameter name="CFE">0</parameter><parameter name="COR">0</parameter><parameter name="DEL">0</parameter><parameter name="DLY">0</parameter><parameter name="HFW">8000</parameter><parameter name="LFW">0</parameter><parameter name="NSR">32</parameter><parameter name="PLF">AB</parameter><parameter name="RES">6</parameter><parameter name="RGN">-1</parameter><parameter name="STR">0</parameter><parameter name="TCL">MakeCompatibleScalar (0, {WSV=1.000000, ARV=0});</parameter><parameter name="TDL">37</parameter><parameter name="RPO">0</parameter></Acquisition_Parameters_Rf><FT_-_Parameters_Rf><parameter name="APF">B3</parameter><parameter name="HFQ">500</parameter><parameter name="LFQ">4000</parameter><parameter name="NLI">0</parameter><parameter name="PHR">24</parameter><parameter name="PHZ">ML</parameter><parameter name="SPZ">NO</parameter><parameter name="ZFF">1</parameter></FT_-_Parameters_Rf><Optic_Parameters_><parameter name="APR">0</parameter><parameter name="APT">Open</parameter><parameter name="BMS">KBr</parameter><parameter name="CHN">Module port</parameter><parameter name="DTC">RT-DLaTGS_IR-Biotyper [Microplate reader]</parameter><parameter name="HPF">0</parameter><parameter name="LPF">10.0</parameter><parameter name="LPV">4000</parameter><parameter name="PGN">0</parameter><parameter name="RDX">0</parameter><parameter name="SRC">MIR</parameter><parameter name="VEL">10.0</parameter><parameter name="SON">Off</parameter></Optic_Parameters_><FT_-_Parameters_><parameter name="APF">B3</parameter><parameter name="HFQ">500</parameter><parameter name="LFQ">4000</parameter><parameter name="NLI">0</parameter><parameter name="PHR">24</parameter><parameter name="PHZ">ML</parameter><parameter name="SPZ">NO</parameter><parameter name="ZFF">1</parameter></FT_-_Parameters_><Acquisition_Parameters_><parameter name="ADT">1</parameter><parameter name="AQM">DD</parameter><parameter name="CFE">0</parameter><parameter name="COR">0</parameter><parameter name="DEL">0</parameter><parameter name="DLY">0</parameter><parameter name="HFW">8000</parameter><parameter name="LFW">0</parameter><parameter name="NSS">32</parameter><parameter name="PLF">AB</parameter><parameter name="RES">6</parameter><parameter name="SOT">0</parameter><parameter name="TCL">MakeCompatibleScalar (0, {WSV=1.000000, ARV=0});</parameter><parameter name="TDL">37</parameter><parameter name="SPO">0</parameter><parameter name="SGN">-1</parameter></Acquisition_Parameters_><Instrument_Parameters_Rf><parameter name="HFL">15800.168544</parameter><parameter name="LFL">0</parameter><parameter name="LWN">15800.168544</parameter><parameter name="ABP">32197</parameter><parameter name="SSP">1</parameter><parameter name="ARG">2</parameter><parameter name="ASG">2</parameter><parameter name="ASS">32</parameter><parameter name="GFW">16</parameter><parameter name="GBW">16</parameter><parameter name="BFW">0</parameter><parameter name="BBW">0</parameter><parameter name="PKA">7266</parameter><parameter name="PKL">4996</parameter><parameter name="PRA">7450</parameter><parameter name="PRL">5001</parameter><parameter name="P2A">1</parameter><parameter name="P2L">1</parameter><parameter name="P2R">1</parameter><parameter name="P2K">1</parameter><parameter name="DAQ">0</parameter><parameter name="AG2">1</parameter><parameter name="SSM">1</parameter><parameter name="RSN">26163</parameter><parameter name="CRR">0</parameter><parameter name="SRT">1654172313.214</parameter><parameter name="DUR">19.6379852294922</parameter><parameter name="TSC">28.9</parameter><parameter name="MVD">0.195545166730881</parameter><parameter name="AN1">0.225826618333424</parameter><parameter name="AN2">0</parameter><parameter name="VSN">2.485 Apr  4 2017</parameter><parameter name="SRN">0085</parameter><parameter name="CAM">0</parameter><parameter name="INS">IR-Biotyper</parameter><parameter name="FOC">69</parameter><parameter name="RDY">1</parameter><parameter name="ARS">32</parameter></Instrument_Parameters_Rf><Sample_Parameters_><parameter name="BLD"></parameter><parameter name="CNM">Admin</parameter><parameter name="CPY"></parameter><parameter name="DPM"></parameter><parameter name="EXP">IRBT_v3_32Scans.XPM</parameter><parameter name="LCT"></parameter><parameter name="SFM">Microplate, HTS-XT</parameter><parameter name="SNM">220602-1054_CLA33F (D_19)_C10_b3d3fbaa-071a-4f91-8e03-3e32f40b90b1.0</parameter><parameter name="XPP">C:\Users\Public\Documents\Bruker\OPUS_8.2.28\XPM</parameter><parameter name="IST">OK</parameter><parameter name="CPG">1252</parameter><parameter name="UID">60154a82-f86b-4105-b363-0afc759e04eb</parameter></Sample_Parameters_><Instrument_Parameters_><parameter name="HFL">15800.168544</parameter><parameter name="LFL">0</parameter><parameter name="LWN">15800.168544</parameter><parameter name="ABP">32197</parameter><parameter name="SSP">1</parameter><parameter name="ASG">2</parameter><parameter name="ARG">2</parameter><parameter name="ASS">32</parameter><parameter name="GFW">16</parameter><parameter name="GBW">16</parameter><parameter name="BFW">0</parameter><parameter name="BBW">0</parameter><parameter name="PKA">7365</parameter><parameter name="PKL">4988</parameter><parameter name="PRA">7667</parameter><parameter name="PRL">4993</parameter><parameter name="P2A">1</parameter><parameter name="P2L">1</parameter><parameter name="P2R">1</parameter><parameter name="P2K">1</parameter><parameter name="DAQ">0</parameter><parameter name="AG2">1</parameter><parameter name="SSM">1</parameter><parameter name="RSN">13707</parameter><parameter name="CRR">0</parameter><parameter name="SRT">1654172339.658</parameter><parameter name="DUR">19.6379852294922</parameter><parameter name="TSC">28.9</parameter><parameter name="MVD">0.340515851974487</parameter><parameter name="AN1">0.225824106400613</parameter><parameter name="AN2">0</parameter><parameter name="VSN">2.485 Apr  4 2017</parameter><parameter name="SRN">0085</parameter><parameter name="CAM">0</parameter><parameter name="INS">IR-Biotyper</parameter><parameter name="FOC">69</parameter><parameter name="RDY">1</parameter></Instrument_Parameters_><History/></OPUSDataFile>
