<?xml version="1.0" encoding="UTF-8" ?>
<OPUSDataFile><AB><Ydata ylabel="Absorbance Units"><values byteorder="INTEL" format="FLOAT32" numvalues="3497"> -0.07649926 -0.07652304 -0.07654493 -0.07656523 -0.07657883 -0.07658552 -0.0765927 -0.07660062 -0.07661448 -0.07663366
 -0.07665727 -0.07668426 -0.07671138 -0.07673623 -0.07675233 -0.07675628 -0.07673825 -0.07670076 -0.07663919 -0.07656815
 -0.07649497 -0.07643848 -0.07641247 -0.07642043 -0.07647076 -0.0765437 -0.07663804 -0.07672636 -0.07680346 -0.07685735
 -0.07688539 -0.07689693 -0.07689235 -0.07688573 -0.076877 -0.07686822 -0.07685897 -0.07684626 -0.07683297 -0.07682731
 -0.07683301 -0.07686543 -0.07691996 -0.07699928 -0.07708884 -0.07717387 -0.07724193 -0.0772756 -0.07727879 -0.07724576
 -0.07719439 -0.07712901 -0.07706676 -0.07701365 -0.07697412 -0.07695088 -0.07693588 -0.07692876 -0.07692071 -0.07691123
 -0.07690241 -0.07689503 -0.07690075 -0.07691943 -0.07695759 -0.0770114 -0.07707125 -0.07713229 -0.07717698 -0.07720594
 -0.07721011 -0.07719804 -0.07717479 -0.0771512 -0.07713836 -0.07713968 -0.07716221 -0.07719763 -0.0772458 -0.07729346
 -0.077337 -0.07736903 -0.07738662 -0.07739535 -0.07739452 -0.07740254 -0.07742038 -0.07746825 -0.07754583 -0.07765559
 -0.07779201 -0.07792334 -0.07804318 -0.07810631 -0.07812153 -0.07808336 -0.07801236 -0.07794341 -0.07788195 -0.07785235
 -0.0778399 -0.07784275 -0.07784139 -0.07782273 -0.0777819 -0.07770984 -0.07762585 -0.07753093 -0.07745282 -0.07739711
 -0.07737514 -0.07739013 -0.07742644 -0.07748342 -0.07753349 -0.07757657 -0.07760475 -0.07762182 -0.07764792 -0.07768559
 -0.07775798 -0.07785826 -0.07798467 -0.0781221 -0.07824263 -0.07834104 -0.0783954 -0.07842091 -0.07842344 -0.07841332
 -0.07840143 -0.0783792 -0.07834353 -0.07829655 -0.07823283 -0.07818545 -0.07815776 -0.07818528 -0.07827464 -0.07841583
 -0.07860931 -0.07875656 -0.07885304 -0.07880354 -0.07862522 -0.07838251 -0.07809311 -0.07786169 -0.07768266 -0.07759545
 -0.07758568 -0.07765137 -0.07776764 -0.07790934 -0.07804375 -0.07813316 -0.07816804 -0.07812245 -0.07803658 -0.07791612
 -0.07781047 -0.07773834 -0.07770304 -0.07771125 -0.077733 -0.0777656 -0.07779013 -0.07780509 -0.07781873 -0.07783184
 -0.07785984 -0.07790122 -0.07795522 -0.07801667 -0.07806572 -0.07809833 -0.07809263 -0.07805187 -0.07796942 -0.07785621
 -0.0777204 -0.0775774 -0.07744097 -0.07732601 -0.07724427 -0.07720514 -0.07721666 -0.0772751 -0.07738463 -0.0775209
 -0.07768314 -0.07783328 -0.07796771 -0.07805461 -0.07809168 -0.07806984 -0.07799035 -0.07787227 -0.07771894 -0.07756165
 -0.07740179 -0.07726138 -0.07713973 -0.07704616 -0.07697941 -0.07694255 -0.07693148 -0.07694492 -0.07697198 -0.07700473
 -0.07703038 -0.07703785 -0.07702599 -0.07698933 -0.07694064 -0.07688164 -0.07682562 -0.07677546 -0.07673676 -0.07671035
 -0.07669961 -0.07670475 -0.0767305 -0.07677662 -0.07684027 -0.07691891 -0.07699388 -0.07706302 -0.07710566 -0.07712615
 -0.07712394 -0.07710676 -0.07708912 -0.07707296 -0.07706749 -0.07706918 -0.07707588 -0.07709166 -0.07711481 -0.07716163
 -0.07723957 -0.07735418 -0.07751496 -0.07768762 -0.07787172 -0.0780098 -0.07809432 -0.07810235 -0.07803158 -0.07789366
 -0.07768999 -0.07744311 -0.0771582 -0.07688092 -0.07661714 -0.07641619 -0.07627618 -0.0762208 -0.0762367 -0.0763172
 -0.07643422 -0.07655048 -0.07664661 -0.07668579 -0.0766857 -0.0766434 -0.07658813 -0.07653294 -0.07648879 -0.07646409
 -0.07644679 -0.07643737 -0.07641494 -0.0763764 -0.07631728 -0.07623672 -0.07615268 -0.07606641 -0.07600176 -0.07595862
 -0.07595029 -0.07597093 -0.07600747 -0.07604753 -0.07604809 -0.07601083 -0.07591163 -0.07577655 -0.07563113 -0.07548802
 -0.0753746 -0.07526966 -0.07517144 -0.0750497 -0.07488614 -0.07468574 -0.07443967 -0.07419245 -0.0739506 -0.07374805
 -0.07359226 -0.07346922 -0.0733793 -0.07326961 -0.0731383 -0.07294744 -0.07270414 -0.07244202 -0.07216951 -0.07194348
 -0.07175653 -0.07161775 -0.0715171 -0.07143956 -0.07138118 -0.07133354 -0.07128752 -0.07123619 -0.07116117 -0.07104959
 -0.07089006 -0.07067417 -0.07040031 -0.07006738 -0.06967029 -0.06920537 -0.0686874 -0.06811509 -0.06753088 -0.06693757
 -0.06636233 -0.06580553 -0.06526903 -0.0647537 -0.06426661 -0.06381029 -0.06340173 -0.06303667 -0.06271494 -0.06242533
 -0.06214697 -0.06187246 -0.06158631 -0.06127808 -0.06093835 -0.0605446 -0.06007507 -0.05953623 -0.05891532 -0.05826638
 -0.05760351 -0.05695783 -0.05634068 -0.05574374 -0.05516765 -0.05459923 -0.0540374 -0.0534811 -0.05293072 -0.05239599
 -0.05187729 -0.05138435 -0.05091279 -0.05045315 -0.04999309 -0.04949225 -0.04894686 -0.04832218 -0.04764411 -0.04693124
 -0.04620794 -0.04550733 -0.04482713 -0.04417704 -0.04354422 -0.04292595 -0.04231028 -0.04169267 -0.04106896 -0.04043647
 -0.03980248 -0.03916773 -0.03853684 -0.03791061 -0.03727628 -0.03663313 -0.03596583 -0.03527594 -0.03456841 -0.03384609
 -0.03312413 -0.03240318 -0.03169186 -0.03099149 -0.03030926 -0.02964403 -0.02900062 -0.02836727 -0.02773554 -0.02709487
 -0.02643268 -0.02575674 -0.02506746 -0.02437212 -0.02367649 -0.02296581 -0.02223736 -0.0214841 -0.02070137 -0.01992487
 -0.01915636 -0.0184381 -0.01777066 -0.01715431 -0.01658516 -0.0160336 -0.01549568 -0.01493803 -0.01436096 -0.01374581
 -0.01310043 -0.01242982 -0.01174399 -0.01105965 -0.01037892 -0.009711498 -0.009050456 -0.008394701 -0.007736499 -0.007071377
 -0.006398175 -0.005714215 -0.005027345 -0.004338088 -0.003656664 -0.002985199 -0.002321896 -0.001667238 -0.001003795 -0.0003309656
 0.000361821 0.001072479 0.001788368 0.002507692 0.003214523 0.003911683 0.004599538 0.005279987 0.005957942 0.00663128
 0.007298035 0.007959593 0.008615277 0.00927057 0.009930016 0.01059277 0.01126116 0.01192688 0.01258856 0.01323694
 0.01386954 0.0144833 0.01507627 0.01566045 0.01623607 0.01682828 0.01743787 0.01807653 0.01874133 0.01941287
 0.02008823 0.02074144 0.02137757 0.02199652 0.02260677 0.02322697 0.02385666 0.02450668 0.02516332 0.02581966
 0.02645794 0.02706207 0.02763095 0.02815427 0.02865966 0.02915101 0.02966123 0.03020008 0.03077078 0.03137694
 0.03199602 0.03262671 0.03324982 0.0338646 0.03446261 0.03504371 0.03560206 0.03613888 0.0366553 0.03715489
 0.03764857 0.03813903 0.03863741 0.03914303 0.0396607 0.04018548 0.04071608 0.04124304 0.0417597 0.0422604
 0.04273798 0.04320272 0.04365494 0.04411034 0.044574 0.04504377 0.04552102 0.04599172 0.0464546 0.04690829
 0.04735305 0.04779998 0.04824894 0.04870402 0.04916296 0.04961748 0.05006556 0.0504966 0.05091099 0.05130365
 0.05167795 0.05203605 0.05238189 0.05272033 0.05305273 0.05338061 0.05370696 0.05403167 0.0543643 0.05470817
 0.05506795 0.05544761 0.05583287 0.05622331 0.0565983 0.05695587 0.05729086 0.05760356 0.05790858 0.05820806
 0.05852678 0.0588663 0.05924938 0.05967142 0.06013449 0.06062482 0.06111683 0.06159744 0.06203499 0.06243047
 0.06277096 0.06306896 0.06332821 0.06356159 0.06377519 0.06397962 0.06417864 0.06438185 0.06459193 0.06481382
 0.06504899 0.06529523 0.06555268 0.06581526 0.06608269 0.06635103 0.0666209 0.06689662 0.06717871 0.06747414
 0.0677783 0.06808341 0.06837919 0.06863896 0.0688612 0.06902576 0.0691545 0.06925707 0.06936593 0.06950983
 0.06969498 0.06993984 0.07020806 0.07049505 0.07075674 0.07097911 0.07115999 0.07129355 0.07142063 0.07154421
 0.07169123 0.07186194 0.07203044 0.07219356 0.07230787 0.07237776 0.07239877 0.07238365 0.07236937 0.07236417
 0.07240582 0.07248855 0.07262411 0.07279306 0.07298246 0.07317084 0.0733362 0.07347825 0.07358396 0.07368785
 0.0737959 0.07394625 0.07415372 0.07440612 0.07470953 0.07499471 0.07525712 0.07543264 0.07551925 0.07552008
 0.07544137 0.0753452 0.07523539 0.07516581 0.07512969 0.07513309 0.07517055 0.07522982 0.07531839 0.07544416
 0.07560758 0.07582139 0.07605422 0.07629258 0.07649793 0.07664105 0.07673004 0.07675285 0.07676423 0.07677396
 0.07682204 0.07691933 0.07705075 0.07721746 0.07737372 0.07751738 0.07761479 0.07766698 0.07766913 0.07762678
 0.07756203 0.07748479 0.07743655 0.07742562 0.07749379 0.07763282 0.07785625 0.07813153 0.07843439 0.0787282
 0.07897507 0.07917117 0.07929736 0.07938972 0.07945414 0.07952802 0.07962263 0.0797471 0.07990407 0.08009572
 0.0803213 0.08060501 0.08094801 0.08137388 0.08187829 0.08243136 0.08301823 0.08354754 0.08400793 0.08430764
 0.08446265 0.08445089 0.08432173 0.08413337 0.08393864 0.0838207 0.08378596 0.0838792 0.08404071 0.08426198
 0.08445854 0.0845983 0.08463863 0.08455671 0.08438183 0.08411048 0.08381214 0.08349242 0.0831999 0.08293662
 0.08270115 0.08249145 0.08228376 0.08207983 0.08187518 0.08167613 0.08150218 0.08135436 0.08124959 0.0811727
 0.08111539 0.08104389 0.08092383 0.08072003 0.08039089 0.07993775 0.07933779 0.07865132 0.07788534 0.07712504
 0.07639199 0.07573304 0.07516195 0.07466604 0.07424697 0.07386295 0.0735118 0.07315406 0.07278908 0.07239422
 0.07197395 0.07153764 0.0710941 0.07067964 0.07029352 0.06995788 0.0696527 0.06935838 0.06905498 0.06870764
 0.06832589 0.06789813 0.06746261 0.06703325 0.06664585 0.06631921 0.06605675 0.06586872 0.06571531 0.06559632
 0.06544418 0.06525286 0.06497524 0.06460925 0.06417266 0.0636708 0.06317036 0.0626739 0.06223273 0.06183854
 0.06149198 0.06118211 0.06088344 0.06059369 0.06029697 0.05999828 0.05969734 0.05939825 0.05910515 0.05881641
 0.05853327 0.05824985 0.05796437 0.05767271 0.05737317 0.05706628 0.05675192 0.05643105 0.05610416 0.05576478
 0.05541253 0.05503805 0.05464162 0.05422295 0.05378444 0.05333879 0.05288856 0.05244957 0.05202148 0.05161233
 0.05121816 0.0508372 0.05046359 0.05009076 0.04971359 0.04932554 0.04892633 0.04851255 0.04809141 0.04766379
 0.04723937 0.04682099 0.04641231 0.04601481 0.04562537 0.04524388 0.04486745 0.04449595 0.04412834 0.04376416
 0.04339776 0.04302808 0.04264576 0.0422512 0.04183999 0.04141495 0.04097993 0.04053822 0.0400968 0.03965728
 0.03922385 0.03879768 0.03837911 0.03797498 0.03758557 0.03722872 0.03691045 0.0366447 0.03644179 0.03627498
 0.03614808 0.03598517 0.03578041 0.03546466 0.03503425 0.03449774 0.03386243 0.03321864 0.03257596 0.0320392
 0.03160287 0.03131233 0.03113725 0.03103763 0.0309709 0.03084857 0.0306543 0.0303224 0.02989552 0.02937452
 0.02883392 0.02831727 0.02785572 0.02747989 0.02715325 0.02687308 0.02660332 0.02633239 0.02608502 0.02586067
 0.02571061 0.02563753 0.02564324 0.02572237 0.02580878 0.02589408 0.02589361 0.02580926 0.02559694 0.02527651
 0.02486731 0.0243986 0.02392753 0.02346776 0.02306229 0.02269569 0.02237111 0.0220681 0.02177176 0.02148784
 0.02121303 0.02096456 0.02074979 0.02055863 0.02039278 0.0202233 0.02004631 0.01986102 0.0196672 0.01949899
 0.01935723 0.01926354 0.01921268 0.01918508 0.01917436 0.01914575 0.01910103 0.01902525 0.01892742 0.018816
 0.01869699 0.01858415 0.01846872 0.01835359 0.01821267 0.01803446 0.01779443 0.01747547 0.01708906 0.01662658
 0.01614802 0.01565837 0.01522855 0.01486792 0.01459583 0.01441397 0.01426616 0.01414743 0.01397468 0.01374987
 0.01343799 0.01305463 0.01263541 0.01219676 0.01179852 0.01144067 0.01115391 0.01092103 0.01073666 0.01057806
 0.01042637 0.01026412 0.01007472 0.009857847 0.009605199 0.009340785 0.009067214 0.008813821 0.008588721 0.008387276
 0.008212383 0.008020024 0.007807825 0.007541746 0.007223656 0.006872618 0.006494471 0.006137524 0.005799089 0.005498414
 0.005221788 0.004944184 0.004658923 0.004337949 0.003996004 0.003635968 0.00328163 0.002955217 0.00266433 0.002422521
 0.002217659 0.002048328 0.001903315 0.001777883 0.001674779 0.00159372 0.00153915 0.001512758 0.001500759 0.001502614
 0.001481479 0.001435233 0.001324536 0.001151638 0.0009070102 0.000601656 0.0002687107 -7.800511E-05 -0.0003870091 -0.0006543065
 -0.0008471826 -0.0009754028 -0.001036538 -0.001043993 -0.001008543 -0.0009367949 -0.0008355935 -0.0007062979 -0.0005493986 -0.0003713756
 -0.0001720846 3.340391E-05 0.0002425001 0.000445083 0.0006382616 0.0008369384 0.001041589 0.001293019 0.001593116 0.001978626
 0.002446444 0.002997376 0.003622761 0.004291086 0.004995562 0.005702872 0.006412857 0.007110097 0.007797472 0.008472184
 0.009138039 0.009795494 0.01045329 0.01111423 0.0117926 0.01249486 0.01322856 0.01399996 0.0147956 0.0156172
 0.01643076 0.01723411 0.01798825 0.01869078 0.01931102 0.01984758 0.02027628 0.02059557 0.02078152 0.0208359
 0.02074636 0.02052925 0.02020948 0.01982465 0.01944439 0.01911165 0.01890726 0.0188482 0.01898228 0.01928721
 0.019767 0.02038551 0.02112828 0.02197724 0.02292407 0.023966 0.0251031 0.02632275 0.02762512 0.02898192
 0.03039151 0.03182839 0.0332923 0.03477659 0.03628314 0.03782187 0.03939291 0.04100599 0.04265123 0.04431767
 0.04597423 0.04757653 0.04906143 0.05035339 0.05135422 0.05197155 0.05209732 0.05164031 0.05055789 0.04878642
 0.04643004 0.04347312 0.04016951 0.03654338 0.03289764 0.02926519 0.02586932 0.02272679 0.0199171 0.01743793
 0.01525175 0.01334909 0.01164978 0.01014789 0.008779334 0.007541075 0.006395648 0.005336781 0.004337569 0.003391791
 0.002478982 0.001603701 0.0007604592 -3.675015E-05 -0.000780653 -0.001463741 -0.002079646 -0.002632722 -0.003123497 -0.003553412
 -0.003924121 -0.004226494 -0.00446005 -0.004613589 -0.004686267 -0.004675117 -0.004581272 -0.004421474 -0.004202384 -0.00397492
 -0.003750564 -0.003604018 -0.003537549 -0.003602993 -0.003776911 -0.00405022 -0.004377343 -0.004702652 -0.004981338 -0.00515659
 -0.005203844 -0.005092111 -0.004817147 -0.004371578 -0.00375235 -0.00296095 -0.001976274 -0.0007947076 0.0006022665 0.002225016
 0.003999521 0.005926031 0.007736555 0.009408092 0.01051449 0.01103992 0.01064121 0.009371552 0.007226845 0.004340393
 0.001041957 -0.00253294 -0.005981425 -0.009257507 -0.0121256 -0.01464214 -0.01676814 -0.01859598 -0.02017088 -0.02155451
 -0.02278416 -0.02388355 -0.02486507 -0.0257426 -0.02651886 -0.02721203 -0.0278238 -0.02837302 -0.0288609 -0.02930444
 -0.02970454 -0.03007677 -0.03042204 -0.03075424 -0.03107375 -0.03139051 -0.03170242 -0.03201024 -0.0323088 -0.03258858
 -0.0328472 -0.03307482 -0.03328012 -0.03346452 -0.03364469 -0.03383191 -0.03403379 -0.03425981 -0.03449654 -0.03474484
 -0.03497854 -0.03519259 -0.03537159 -0.03551142 -0.03562393 -0.0357092 -0.03579679 -0.03588774 -0.03600087 -0.03613405
 -0.03627995 -0.03643628 -0.03658753 -0.03673784 -0.03688937 -0.03704933 -0.03723456 -0.03744281 -0.03768195 -0.03793635
 -0.0381966 -0.03844519 -0.03866798 -0.03885778 -0.03900661 -0.03911935 -0.03919328 -0.03924655 -0.03927967 -0.03932289
 -0.03937945 -0.0394742 -0.03960959 -0.03978148 -0.0399885 -0.04020017 -0.04041504 -0.04060701 -0.04077863 -0.04092667
 -0.0410547 -0.04117126 -0.04127707 -0.04137705 -0.04147189 -0.04156369 -0.04165517 -0.04175084 -0.04184793 -0.04194862
 -0.04204063 -0.04211892 -0.04217631 -0.04220578 -0.04222475 -0.04223267 -0.04226303 -0.04232058 -0.04241964 -0.04256244
 -0.04272461 -0.04290438 -0.04306422 -0.0432048 -0.04331286 -0.04339383 -0.04346409 -0.04352735 -0.04360397 -0.04369045
 -0.0437911 -0.04389779 -0.04400122 -0.04409659 -0.04417394 -0.04423911 -0.04429031 -0.04434258 -0.04440156 -0.04447915
 -0.0445817 -0.04470652 -0.04485574 -0.04501452 -0.04518172 -0.04534239 -0.04549533 -0.04563327 -0.04575615 -0.04586479
 -0.0459601 -0.04604913 -0.04613331 -0.04622268 -0.04631782 -0.04642617 -0.0465458 -0.04667773 -0.04681671 -0.04695695
 -0.04709246 -0.04721488 -0.04732348 -0.04741322 -0.04749277 -0.04756365 -0.04763694 -0.04771723 -0.04780623 -0.04790631
 -0.04800823 -0.0481112 -0.04820731 -0.04829568 -0.04837981 -0.04846011 -0.04854669 -0.04863914 -0.04873944 -0.04884482
 -0.04894396 -0.04903491 -0.04910446 -0.0491566 -0.04919111 -0.04921659 -0.04924451 -0.04928095 -0.04933664 -0.04941094
 -0.0495075 -0.04962086 -0.04975038 -0.04988806 -0.05003213 -0.05017364 -0.05031046 -0.05043771 -0.05055407 -0.05066197
 -0.05076139 -0.05085726 -0.05094972 -0.05104031 -0.05112889 -0.0512147 -0.05129808 -0.05138027 -0.05146159 -0.05154399
 -0.05162676 -0.05170962 -0.05179137 -0.05186993 -0.05194551 -0.05201682 -0.05208681 -0.05215668 -0.05222984 -0.05230866
 -0.05239275 -0.05248347 -0.05257481 -0.05266601 -0.0527511 -0.05282879 -0.05289981 -0.05296393 -0.05302766 -0.05309125
 -0.05315882 -0.05322994 -0.05330285 -0.05337687 -0.05344763 -0.05351562 -0.05357966 -0.05364139 -0.05370321 -0.05376709
 -0.05383692 -0.05391329 -0.05399879 -0.05409135 -0.0541914 -0.05429349 -0.05439578 -0.05449245 -0.05458104 -0.05465958
 -0.05472665 -0.05478578 -0.05483692 -0.0548862 -0.05493404 -0.05498572 -0.05504147 -0.0551045 -0.05517467 -0.05525235
 -0.055337 -0.05542648 -0.05552008 -0.05561487 -0.05570985 -0.05580201 -0.05588986 -0.05596977 -0.05604171 -0.05610301
 -0.05615854 -0.05620982 -0.05626389 -0.05632536 -0.05639428 -0.05647337 -0.05655251 -0.05663046 -0.05669701 -0.0567499
 -0.05679017 -0.05681732 -0.05684265 -0.05686674 -0.05690075 -0.05694462 -0.05700245 -0.05707318 -0.05715439 -0.05724428
 -0.05733678 -0.05742973 -0.05751585 -0.05759414 -0.05765925 -0.05771373 -0.05775742 -0.05779506 -0.05782994 -0.05786467
 -0.05790175 -0.05794013 -0.05797987 -0.05802032 -0.05806106 -0.0581037 -0.05814865 -0.05819468 -0.05824191 -0.05828465
 -0.0583227 -0.05835305 -0.0583766 -0.05840015 -0.05842507 -0.05846231 -0.05851074 -0.05857381 -0.05864719 -0.05872363
 -0.05880014 -0.05886811 -0.05893021 -0.05898522 -0.05903837 -0.05909384 -0.05915166 -0.05921423 -0.05927512 -0.05933269
 -0.05938265 -0.05942276 -0.05945759 -0.05948697 -0.05951967 -0.05955653 -0.0596007 -0.05965219 -0.05970636 -0.05976277
 -0.05981532 -0.05986438 -0.05990817 -0.059948 -0.05998694 -0.0600261 -0.0600694 -0.06011675 -0.06017016 -0.0602278
 -0.06028911 -0.06035085 -0.06041048 -0.06046634 -0.06051607 -0.06056289 -0.06060665 -0.0606535 -0.06070504 -0.06076343
 -0.0608297 -0.06089966 -0.06097319 -0.06104454 -0.06111347 -0.06117677 -0.06123446 -0.06128549 -0.06133021 -0.06136953
 -0.06140442 -0.06143831 -0.06147179 -0.06150828 -0.06154656 -0.06158648 -0.06162628 -0.06166374 -0.06169897 -0.06173078
 -0.06176185 -0.06179281 -0.06182715 -0.06186642 -0.06191137 -0.06196303 -0.06201771 -0.0620754 -0.06212962 -0.06217979
 -0.06222223 -0.06225685 -0.06228557 -0.06230878 -0.0623309 -0.06235221 -0.06237642 -0.06240359 -0.06243579 -0.06247304
 -0.06251661 -0.06256592 -0.06262092 -0.0626803 -0.06274315 -0.06280718 -0.06287088 -0.06293143 -0.0629871 -0.06303644
 -0.0630784 -0.06311353 -0.06314151 -0.0631648 -0.06318346 -0.06320146 -0.06321903 -0.06324132 -0.06326854 -0.06330281
 -0.06334361 -0.06338678 -0.06343164 -0.06347211 -0.06350881 -0.0635402 -0.06356789 -0.06359492 -0.06362164 -0.06365024
 -0.0636795 -0.06370892 -0.06373755 -0.06376436 -0.06378946 -0.06381256 -0.06383426 -0.06385478 -0.0638741 -0.06389225
 -0.06390931 -0.06392521 -0.06394107 -0.0639569 -0.06397509 -0.06399573 -0.06402066 -0.0640498 -0.06408299 -0.06411984
 -0.06415842 -0.06419802 -0.06423537 -0.06427012 -0.06429945 -0.0643247 -0.06434629 -0.06436656 -0.06438871 -0.06441235
 -0.06443918 -0.06446495 -0.06448796 -0.06450525 -0.06451454 -0.06451885 -0.06451803 -0.06451739 -0.06451793 -0.06452129
 -0.06452781 -0.06453609 -0.06454612 -0.06455845 -0.06457344 -0.06459515 -0.06462373 -0.06466247 -0.06471041 -0.06476613
 -0.06482866 -0.064894 -0.06496476 -0.06504126 -0.06513152 -0.06524248 -0.06538496 -0.0655685 -0.06580107 -0.06608947
 -0.06643577 -0.06684344 -0.06730627 -0.06782565 -0.06838372 -0.06898016 -0.06958427 -0.07019383 -0.07077862 -0.07133708
 -0.07185522 -0.07233297 -0.07276922 -0.07315862 -0.07347742 -0.07370851 -0.0737811 -0.07368632 -0.07335244 -0.07282436
 -0.07212458 -0.07133706 -0.07056404 -0.06984841 -0.06925956 -0.06879152 -0.06845765 -0.06824828 -0.06816183 -0.06819563
 -0.06835421 -0.06860553 -0.06895357 -0.06930416 -0.06965011 -0.06990787 -0.07007336 -0.07015119 -0.07014516 -0.07010095
 -0.07002026 -0.06993556 -0.06984504 -0.06976064 -0.06967784 -0.06959285 -0.06950106 -0.06939305 -0.06926804 -0.06912039
 -0.06895485 -0.06877155 -0.06858012 -0.06838492 -0.06819462 -0.06801412 -0.06784382 -0.06768508 -0.06753442 -0.06739087
 -0.06725743 -0.06713408 -0.06702759 -0.0669383 -0.06686456 -0.06680562 -0.0667513 -0.06670149 -0.06664974 -0.06659765
 -0.06654755 -0.06650013 -0.0664586 -0.0664217 -0.06638872 -0.06635885 -0.06633021 -0.06630456 -0.06628247 -0.06626597
 -0.06625704 -0.06625389 -0.06625725 -0.06626101 -0.06626397 -0.06626102 -0.06625061 -0.06623482 -0.06621332 -0.06619402
 -0.06617735 -0.06617039 -0.06617317 -0.06618833 -0.06621545 -0.0662538 -0.06630242 -0.06635823 -0.06641933 -0.06648021
 -0.06653871 -0.06658873 -0.06662986 -0.06665834 -0.06667773 -0.06668841 -0.06669729 -0.06670818 -0.06672516 -0.0667519
 -0.06678384 -0.0668214 -0.0668555 -0.06688435 -0.06690522 -0.06691727 -0.06692597 -0.06693159 -0.06693924 -0.06694877
 -0.06695947 -0.0669708 -0.06697901 -0.06698411 -0.06698375 -0.06697913 -0.06697119 -0.06696267 -0.06695835 -0.0669603
 -0.06697375 -0.06699614 -0.06702828 -0.06706398 -0.06709989 -0.067133 -0.06716065 -0.06718553 -0.06720781 -0.06722999
 -0.0672529 -0.06727464 -0.06729521 -0.06731149 -0.0673233 -0.06733084 -0.06733435 -0.06733734 -0.06734019 -0.06734697
 -0.0673577 -0.067375 -0.06739783 -0.06742562 -0.06745581 -0.06748398 -0.0675085 -0.06752478 -0.06753557 -0.06754045
 -0.06754553 -0.06755441 -0.0675694 -0.06759334 -0.06762123 -0.06765262 -0.06768171 -0.06770694 -0.06772917 -0.06774809
 -0.06776827 -0.06778993 -0.06781498 -0.06784325 -0.067873 -0.06790406 -0.06793446 -0.06796424 -0.06799249 -0.06801919
 -0.06804392 -0.06806658 -0.06808683 -0.06810459 -0.06811938 -0.06813202 -0.06814228 -0.0681532 -0.068166 -0.06818406
 -0.0682096 -0.06824142 -0.06828058 -0.06832019 -0.06835938 -0.06839244 -0.06841835 -0.06843886 -0.068454 -0.0684697
 -0.06848603 -0.068505 -0.06852581 -0.06854434 -0.06856027 -0.06856962 -0.0685744 -0.06857692 -0.06858055 -0.06859247
 -0.06861303 -0.06864706 -0.06868878 -0.06873637 -0.06878105 -0.06881705 -0.06884067 -0.06884754 -0.06884404 -0.06882984
 -0.06881671 -0.06880651 -0.06880733 -0.06882048 -0.06884606 -0.06888416 -0.06892883 -0.06897963 -0.0690288 -0.06907623
 -0.06911682 -0.06915158 -0.06918108 -0.0692071 -0.0692346 -0.0692639 -0.06929878 -0.069336 -0.06937378 -0.06940768
 -0.06943273 -0.06944891 -0.06945329 -0.06945278 -0.0694487 -0.06944913 -0.06945702 -0.06947387 -0.06950111 -0.06953303
 -0.06956931 -0.06960368 -0.06963572 -0.06966356 -0.06968735 -0.06970891 -0.0697287 -0.06975065 -0.06977515 -0.06980633
 -0.06984291 -0.06988464 -0.06992801 -0.0699667 -0.06999876 -0.07001787 -0.07002795 -0.07002905 -0.07002825 -0.07002972
 -0.0700373 -0.07005373 -0.07007913 -0.07011414 -0.07015748 -0.07020943 -0.07026573 -0.07032633 -0.07038324 -0.07043599
 -0.07047941 -0.07051364 -0.0705405 -0.07056057 -0.07057878 -0.07059504 -0.07061163 -0.07062788 -0.07064304 -0.07065713
 -0.07066955 -0.07068114 -0.07069273 -0.07070491 -0.07071883 -0.07073333 -0.07074793 -0.07076205 -0.07077451 -0.07078871
 -0.07080495 -0.07082793 -0.07085899 -0.07089775 -0.07094466 -0.0709948 -0.07104789 -0.07110133 -0.07115506 -0.07120837
 -0.07126053 -0.07130636 -0.0713447 -0.07136749 -0.07137617 -0.07136904 -0.07135096 -0.07132924 -0.07130854 -0.0712979
 -0.07129835 -0.07131473 -0.07134331 -0.07138423 -0.0714306 -0.07148002 -0.07152663 -0.07156786 -0.0716035 -0.07163261
 -0.07165986 -0.07168566 -0.07171329 -0.07174305 -0.07177238 -0.07180107 -0.07182468 -0.07184375 -0.07185952 -0.07187331
 -0.07189144 -0.07191386 -0.07194441 -0.07198065 -0.07202022 -0.07206044 -0.07209667 -0.07212861 -0.07215407 -0.07217474
 -0.07219081 -0.07220456 -0.07221675 -0.07222971 -0.07224408 -0.07226194 -0.07228376 -0.07231072 -0.07234306 -0.0723807
 -0.0724237 -0.07246895 -0.07251613 -0.07255916 -0.07259782 -0.07262719 -0.07264827 -0.0726622 -0.07267047 -0.07267791
 -0.07268436 -0.07269195 -0.0726995 -0.07270568 -0.07271158 -0.07271675 -0.07272527 -0.07273961 -0.07276188 -0.07279492
 -0.07283342 -0.07287759 -0.07291698 -0.07294946 -0.07296995 -0.07297695 -0.07297637 -0.07296843 -0.07296153 -0.07295574
 -0.07295203 -0.07294985 -0.07294524 -0.07293848 -0.07292841 -0.07291593 -0.07290296 -0.07288996 -0.07287853 -0.07286916
 -0.07286268 -0.07286059 -0.07286467 -0.07287521 -0.07289385 -0.07291683 -0.07294402 -0.07296809 -0.07298703 -0.07299585
 -0.07299255 -0.07298001 -0.0729579 -0.07293415 -0.07290929 -0.07288796 -0.07287016 -0.0728549 -0.072842 -0.07282992
 -0.07281872 -0.07280819 -0.072798 -0.07278674 -0.07277503 -0.07276259 -0.07275219 -0.07274769 -0.07274979 -0.07276232
 -0.07277896 -0.07279779 -0.07281087 -0.07281302 -0.07280564 -0.07278672 -0.07276608 -0.07274536 -0.07273087 -0.07272415
 -0.07272163 -0.07272329 -0.07272077 -0.07271387 -0.07269963 -0.07267916 -0.07265951 -0.07264178 -0.07263513 -0.07263785
 -0.07265074 -0.07266995 -0.07268852 -0.07270442 -0.07271173 -0.07271117 -0.07270116 -0.07268348 -0.07265846 -0.07262877
 -0.07259548 -0.07256088 -0.07252625 -0.07249054 -0.07245396 -0.07241368 -0.0723692 -0.07232069 -0.07226803 -0.07221553
 -0.07216348 -0.07211741 -0.07207745 -0.07204754 -0.07202686 -0.07201472 -0.07200902 -0.07200363 -0.07199743 -0.07198478
 -0.07196749 -0.07194552 -0.07192095 -0.07189633 -0.07187077 -0.07184467 -0.07181618 -0.07178432 -0.07174907 -0.07171003
 -0.07166836 -0.07162412 -0.07157877 -0.0715325 -0.07148629 -0.07144027 -0.07139418 -0.07134813 -0.0713045 -0.07126432
 -0.07123701 -0.07122308 -0.07123172 -0.07125861 -0.07129887 -0.07134273 -0.07136882 -0.07137227 -0.07133377 -0.07126481
 -0.07116654 -0.07105772 -0.07095127 -0.07085624 -0.0707816 -0.07072213 -0.07067916 -0.07064135 -0.07060637 -0.07056911
 -0.07052815 -0.07048713 -0.07044617 -0.07040977 -0.07037799 -0.07035118 -0.07032874 -0.07030673 -0.07028352 -0.07024977
 -0.07020482 -0.07014018 -0.07006029 -0.06996895 -0.06987213 -0.06978059 -0.06969434 -0.06961747 -0.06954763 -0.06948366
 -0.06942666 -0.06937717 -0.06933482 -0.06930136 -0.06926738 -0.06923209 -0.06918313 -0.06911829 -0.06903573 -0.06893484
 -0.06882545 -0.06870817 -0.06859467 -0.06848507 -0.06838591 -0.06829613 -0.06821475 -0.06814042 -0.06806844 -0.06799876
 -0.06792936 -0.06785984 -0.06778992 -0.06771613 -0.06763484 -0.06754465 -0.06744163 -0.06733265 -0.06721915 -0.06710906
 -0.0670063 -0.06690939 -0.0668197 -0.06672807 -0.06663347 -0.06652968 -0.06641591 -0.06629636 -0.06617139 -0.06605021
 -0.06593228 -0.06581794 -0.06570423 -0.0655769 -0.06543577 -0.06527048 -0.06508826 -0.0648987 -0.06470709 -0.064527
 -0.06435377 -0.06418878 -0.0640241 -0.06385344 -0.06367707 -0.06349196 -0.06330637 -0.06312206 -0.06294604 -0.06278124
 -0.06262401 -0.06247601 -0.06231564 -0.06214167 -0.06193074 -0.06168272 -0.06140818 -0.06110995 -0.06081848 -0.06053234
 -0.06026183 -0.06000161 -0.05974121 -0.05947719 -0.05919727 -0.05890179 -0.05858526 -0.05825157 -0.05790106 -0.05754158
 -0.05717941 -0.05681593 -0.05645787 -0.05608566 -0.05569674 -0.05526553 -0.054783 -0.05425597 -0.05368216 -0.05309047
 -0.05248316 -0.05187295 -0.05126037 -0.05065001 -0.05004274 -0.04945043 -0.04887096 -0.0483038 -0.04774017 -0.04715329
 -0.04653794 -0.0458656 -0.04514958 -0.04439432 -0.04361851 -0.04284555 -0.04207519 -0.04131594 -0.04055777 -0.03979713
 -0.03903062 -0.03825643 -0.03747403 -0.03668672 -0.03587155 -0.03503034 -0.03410084 -0.03307774 -0.03192736 -0.03065122
 -0.02934065 -0.02800163 -0.02673326 -0.02552154 -0.02435154 -0.0232075 -0.02203243 -0.02082496 -0.01955636 -0.018228
 -0.01683753 -0.01536457 -0.01379929 -0.01209178 -0.01020558 -0.008108353 -0.005753783 -0.003220259 -0.0005028787 0.002235119
 0.004958457 0.007572443 0.01005476 0.0124063 0.01462352 0.01675407 0.01880185 0.02086472 0.0229535 0.02522025
 0.02765287 0.03029902 0.03308752 0.03581109 0.03845197 0.04084824 0.04308053 0.04519908 0.04726483 0.04936618
 0.0515051 0.05370902 0.05596819 0.0582807 0.06065385 0.06309944 0.06557385 0.06807694 0.07052851 0.07291301
 0.07522587 0.07746488 0.07965352 0.08179061 0.08380042 0.08567417 0.08729468 0.08866424 0.08973557 0.09051208
 0.09097487 0.09113656 0.0909906 0.09060962 0.0900953 0.08950163 0.08893561 0.08837023 0.08781076 0.08725474
 0.08669516 0.08616049 0.08566994 0.08518773 0.08472327 0.08415955 0.08348622 0.08257487 0.08140918 0.08000609
 0.07837015 0.07672256 0.07506714 0.07353488 0.07209779 0.07068112 0.069266 0.06774583 0.06614037 0.06442623
 0.0626629 0.060926 0.05926235 0.0577591 0.05640011 0.05520431 0.05413527 0.05317143 0.05232251 0.05158133
 0.05098892 0.05055755 0.05028706 0.05018278 0.05020459 0.05034956 0.05058984 0.05092435 0.05135244 0.05187456
 0.0524961 0.05321476 0.05402202 0.05491429 0.05587488 0.05690414 0.05799351 0.05914787 0.06037013 0.06166619
 0.06304225 0.06450494 0.06606042 0.06771374 0.06946969 0.07132728 0.07328766 0.07534723 0.07750704 0.07975571
 0.08209614 0.0844813 0.0869095 0.08930661 0.09166922 0.09395997 0.09618045 0.0983411 0.1004336 0.1024259
 0.1042963 0.1059488 0.1073933 0.1085959 0.1095959 0.1104402 0.1111491 0.1117633 0.1122834 0.1127226
 0.1130753 0.1133526 0.1135058 0.1135378 0.1133291 0.1128444 0.1120535 0.1109194 0.1097008 0.1084188
 0.1072289 0.1061364 0.1050175 0.1038663 0.1025771 0.1011603 0.099618 0.09795815 0.09622233 0.09437651
 0.09239206 0.09017257 0.08753793 0.08448719 0.08085356 0.07697725 0.07305757 0.0693258 0.06602605 0.06295064
 0.06008015 0.05723107 0.05433156 0.05143687 0.04853844 0.04576183 0.04312202 0.04061723 0.03824688 0.03591888
 0.03363263 0.03134719 0.02907504 0.02686324 0.0247195 0.02269946 0.02078982 0.01899001 0.01728156 0.01563477
 0.01404118 0.01248634 0.01094977 0.009429318 0.007852039 0.006188361 0.004357501 0.002282337 0.0001218753 -0.002136085
 -0.004140357 -0.005814146 -0.007160259 -0.008160306 -0.009059552 -0.009869476 -0.01073207 -0.01164082 -0.01256712 -0.01349823
 -0.01434367 -0.01511472 -0.01580218 -0.01642176 -0.01701459 -0.0175624 -0.01806126 -0.01847451 -0.01875427 -0.01889842
 -0.01888323 -0.01873925 -0.01847652 -0.01811634 -0.01767161 -0.01713865 -0.0165254 -0.01578849 -0.01492974 -0.01385245
 -0.01254618 -0.01096291 -0.00910166 -0.007167923 -0.005183663 -0.003480618 -0.002051286 -0.001031055 -0.0003820323 -5.487419E-05
 -6.056541E-06 -0.0001190278 -0.0003563782 -0.0006074429 -0.0008599875 -0.001060825 -0.001206942 -0.001283716 -0.00128027 -0.001181723
 -0.001005247 -0.0007476506 -0.0004521159 -0.000129551 0.0001993513 0.0005288808 0.0008582456 0.001186826 0.001516094 0.001846097
 0.002177148 0.00250939 0.002843909 0.003181907 0.003528627 0.003889086 0.004280582 0.004712842 0.005216891 0.005797895
 0.006479147 0.007257164 0.008134035 0.009114293 0.01019904 0.0114017 0.01273244 0.01418818 0.01577327 0.0174676
 0.01926388 0.02116641 0.02317007 0.0253228 0.02763005 0.03011015 0.03276384 0.03547048 0.03821781 0.04081501
 0.04326357 0.04547543 0.04746103 0.04921902 0.05073638 0.05198964 0.05294617 0.05354108 0.05375947 0.0535504
 0.05294131 0.05192861 0.05056634 0.04887882 0.04691372 0.04469028 0.04224738 0.0395862 0.03679349 0.03387087
 0.03097768 0.02812902 0.0254384 0.02291254 0.02052374 0.0182662 0.01605297 0.0138881 0.01174739 0.009648748
 0.007646058 0.005744413 0.003989611 0.002360374 0.0008450796 -0.0005825489 -0.001958022 -0.003293098 -0.004610776 -0.005905585
 -0.007183183 -0.008426428 -0.009631227 -0.01078092 -0.01186884 -0.01289566 -0.01385835 -0.01477785 -0.0156558 -0.01651008
 -0.0173418 -0.01813552 -0.01888828 -0.01955534 -0.02013646 -0.0206046 -0.02096793 -0.02124109 -0.02143165 -0.02156665
 -0.02164451 -0.02167587 -0.02165353 -0.0215719 -0.02142986 -0.02121919 -0.02095888 -0.02065011 -0.02033338 -0.02002084
 -0.01975258 -0.01954191 -0.01940523 -0.01934882 -0.01936544 -0.0194557 -0.01960284 -0.01980597 -0.02004928 -0.02033196
 -0.0206407 -0.02097379 -0.0213156 -0.02166209 -0.02199116 -0.02229833 -0.02256121 -0.02277964 -0.02294236 -0.0230539
 -0.02311512 -0.02313028 -0.02310271 -0.02303627 -0.02293188 -0.0227993 -0.02263967 -0.02247136 -0.02229752 -0.02213939
 -0.02200058 -0.02189671 -0.02183 -0.02180571 -0.02182429 -0.0218821 -0.02197843 -0.02210341 -0.02225509 -0.02241746
 -0.02258747 -0.02274482 -0.02288928 -0.0230079 -0.0231075 -0.02319209 -0.02327206 -0.02336187 -0.02346556 -0.0235933
 -0.02373837 -0.02390148 -0.02407021 -0.02424065 -0.02440168 -0.0245495 -0.02467906 -0.02478826 -0.0248802 -0.02495463
 -0.02501922 -0.02507441 -0.02512332 -0.02516541 -0.02519329 -0.02520543 -0.02518814 -0.02514113 -0.0250552 -0.02493292
 -0.02477585 -0.02458661 -0.02437124 -0.02412875 -0.02386071 -0.02356462 -0.02323788 -0.02288234 -0.02249715 -0.02208854
 -0.02165818 -0.0212125 -0.02075285 -0.02028624 -0.01981336 -0.01934374 -0.0188782 -0.0184259 -0.01798741 -0.01756868
 -0.01716981 -0.01679372 -0.01643998 -0.01610728 -0.01579528 -0.01550055 -0.01522631 -0.01497647 -0.01475974 -0.01459198
 -0.0144814 -0.01444649 -0.01448359 -0.01460013 -0.01477654 -0.01500697 -0.01526532 -0.01554042 -0.01581551 -0.01608322
 -0.01634063 -0.0165861 -0.01682012 -0.01704279 -0.01725132 -0.01744548 -0.01762758 -0.0177983 -0.01796952 -0.0181412
 -0.01832002 -0.01850303 -0.01868101 -0.01885432 -0.01901486 -0.01917499 -0.01934947 -0.01955643 -0.01982698 -0.02016146
 -0.02057952 -0.02104679 -0.02155577 -0.02205509 -0.02252079 -0.02293031 -0.02326567 -0.02355936 -0.02381001 -0.02407748
 -0.0243687 -0.0247162 -0.02512299 -0.02556646 -0.02604354 -0.02649964 -0.02693326 -0.02730482 -0.02762143 -0.0278878
 -0.02811516 -0.02833699 -0.02855349 -0.02878503 -0.02901498 -0.02923194 -0.02941985 -0.02955712 -0.02964898 -0.02968892
 -0.02969766 -0.02968307 -0.0296548 -0.02962006 -0.02956588 -0.02949254 -0.0293781 -0.02921966 -0.0290088 -0.02874451
 -0.02844164 -0.02810162 -0.02775091 -0.0273898 -0.02703454 -0.02668141 -0.02632514 -0.02596087 -0.02557221 -0.02515966
 -0.02471416 -0.02424443 -0.02375629 -0.02326081 -0.02277033 -0.02228829 -0.02182111 -0.02136525 -0.02091983 -0.02048556
 -0.02006149 -0.01965385 -0.01926445 -0.01889156 -0.01853601 -0.01818553 -0.01783937 -0.01748926 -0.01713523 -0.01677862
 -0.01641884 -0.01605399 -0.01568009 -0.01528174 -0.01485235 -0.01436691 -0.0138216 -0.0131949 -0.01249501 -0.01171787
 -0.01088896 -0.01002478 -0.009156778 -0.008308433 -0.00749667 -0.006736172 -0.00602289 -0.005360517 -0.004732352 -0.004137051
 -0.003554685 -0.002982975 -0.002407633 -0.001827424 -0.001241519 -0.0006502986 -6.166868E-05 0.0005240485 0.001100867 0.001669136
 0.002226545 0.0027747 0.003315501 0.003853048 0.004396248 0.004946203 0.005510853 0.006080862 0.006652063 0.007212862
 0.007753578 0.008273237 0.008767984 0.009244291 0.009702578 0.01015098 0.01058956 0.01103427 0.01148639 0.01196391
 0.01246834 0.01300075 0.01356038 0.01413087 0.01471096 0.01528411 0.01584953 0.01639602 0.01692161 0.01741583
 0.01787612 0.01829361 0.01866535 0.01898538 0.01924815 0.01944721 0.01957794 0.01963443 0.01961937 0.01953026
 0.0193796 0.01916756 0.01891772 0.01863194 0.01834335 0.01805524 0.01779751 0.01757255 0.01739278 0.01725815
 0.01716527 0.01711273 0.01708942 0.01709334 0.01710962 0.01713878 0.01717206 0.01721705 0.01728237 0.01737787
 0.01752209 0.0177138 0.0179632 0.0182509 0.01857349 0.01889616 0.01920839 0.01946721 0.01966081 0.01975048
 0.01972679 0.01956949 0.01927335 0.0188464 0.01828783 0.01764006 0.01690668 0.01615858 0.01539967 0.01469472
 0.0140401 0.01345716 0.01293575 0.01245882 0.01201974 0.01159794 0.01119157 0.01079128 0.01039325 0.009991962
 0.009582009 0.009158149 0.008718866 0.008261963 0.007788811 0.007299495 0.006794824 0.006275299 0.005739126 0.005186405
 0.004612388 0.004016552 0.003401163 0.002767199 0.002136727 0.001512222 0.0009242261 0.0003718638 -0.0001315897 -0.0005903514
 -0.001009729 -0.001391969 -0.001743189 -0.002065729 -0.002363045 -0.002642766 -0.00291283 -0.00317888 -0.003448965 -0.003717304
 -0.003984347 -0.004240233 -0.004480293 -0.004707483 -0.004918873 -0.00513656 -0.005361574 -0.005624285 -0.00592714 -0.006284783
 -0.006696658 -0.007143338 -0.007621174 -0.008091409 -0.008553659 -0.008984187 -0.009388337 -0.00976886 -0.01013073 -0.01048548
 -0.01083379 -0.01118134 -0.01152745 -0.01187276 -0.01221868 -0.01256553 -0.01291707 -0.01327473 -0.01364214 -0.01402121
 -0.01441116 -0.01481247 -0.01522174 -0.01563848 -0.01606223 -0.01649302 -0.0169287 -0.01736866 -0.0177984 -0.01821624
 -0.01860147 -0.01895399 -0.01926223 -0.01952764 -0.01974853 -0.01992608 -0.02006081 -0.02015609 -0.02021541 -0.02024517
 -0.02025273 -0.02024167 -0.02021716 -0.02017775 -0.02012362 -0.02005454 -0.01996979 -0.01987287 -0.01976445 -0.01964651
 -0.01951958 -0.01938272 -0.01923592 -0.01907723 -0.01890667 -0.01872471 -0.01853263 -0.01834036 -0.01815122 -0.01798574
 -0.01784554 -0.01774787 -0.01768805 -0.01766643 -0.01767471 -0.01770162 -0.01774157 -0.01778482 -0.01783049 -0.0178754
 -0.01791966 -0.01796367 -0.01800355 -0.01803995 -0.01806134 -0.01806648 -0.01804114 -0.01798324 -0.01788514 -0.01774598
 -0.01756532 -0.01734317 -0.01708033 -0.01677741 -0.01643867 -0.01606714 -0.01567787 -0.01527579 -0.01488321 -0.01450252
 -0.01415054 -0.01382329 -0.01352406 -0.01324341 -0.01297421 -0.01270721 -0.01243344 -0.01215066 -0.01185401 -0.01155069
 -0.01124039 -0.0109367 -0.01064187 -0.01036825 -0.01011837 -0.009893347 -0.009693971 -0.009507022 -0.009331793 -0.009153878
 -0.008973611 -0.008788154 -0.008598227 -0.008406141 -0.008211073 -0.008010743 -0.007806508 -0.007597812 -0.007391904 -0.007198473
 -0.007023418 -0.006879234 -0.00675795 -0.006662501 -0.006569353 -0.006470622 -0.006341358 -0.00617016 -0.005952397 -0.005681266
 -0.005382618 -0.005057119 -0.004742974 -0.004443384 -0.004179727 -0.003952556 -0.003758887 -0.003597273 -0.003454156 -0.003327925
 -0.003204129 -0.003081744 -0.002949066 -0.002808654 -0.002659319 -0.002505855 -0.002356965 -0.002208721 -0.002064451 -0.001907087
 -0.001725993 -0.001509766 -0.00124526 -0.0009487792 -0.0006185207 -0.0002896602 2.967783E-05 0.0003223977 0.0005825143 0.0008281679
 0.001059932 0.001302594 0.001556719 0.001817418 0.002082129 0.002323479 0.002542188 0.002725337 0.002879934 0.003019962
 0.00315251 0.003299735 0.003462674 0.003653997 0.003866897 0.004100683 0.004344487 0.004589373 0.004832992 0.005069109
 0.005310033 0.005558317 0.005824112 0.006112549 0.006413076 0.006726029 0.007031657 0.007328076 0.007608903 0.007874079
 0.008132325 0.008384099 0.008637732 0.008891928 0.009144574 0.009394337 0.00963414 0.009867868 0.01009868 0.01033428
 0.01059016 0.01086237 0.01115766 0.01145492 0.01174025 0.01200345 0.01222933 0.01244221 0.01264463 0.01286698
 0.01312002 0.01339895 0.01370721 0.01401192 0.01431073 0.01457856 0.01481457 0.01502036 0.01519839 0.01537322
 0.01554702 0.01574594 0.01596506 0.01620465 0.01645473 0.016692 0.01691611 0.01711321 0.01729568 0.01747101
 0.01764925 0.01784057 0.01804731 0.01827269 0.01851851 0.01878758 0.0190732 0.01937737 0.01967601 0.01996676
 0.0202256 0.02044964 0.02063717 0.02078839 0.02092197 0.02103979 0.02116732 0.02130594 0.02147662 0.02167831
 0.02191908 0.0221964 0.02250866 0.02285417 0.02323029 0.02363434 0.0240634 0.02451318 0.02498061 0.02546039
 0.02595394 0.02643939 0.02691699 0.02733665 0.02768775 0.02793322 0.02806077 0.02810031 0.0280508 0.02798696
 0.02791247 0.02788282 0.02789788 0.0279766 0.02811593 0.02831207 0.02855971 0.02884044 0.02914998 0.02947055
 0.02979946 0.03012973 0.03044708 0.03073913 0.03098018 0.03114429 0.03122929 0.03121904 0.03115139 0.03103311
 0.03090427 0.03077624 0.03066461 0.03057238 0.03051278 0.03048672 0.03051287 0.03059197 0.03072134 0.0308985
 0.03109618 0.03131138 0.03151384 0.03170359 0.03186239 0.0319975 0.0321135 0.03222303 0.03234942 0.03249432
 0.03266991 0.03286881 0.033085 0.03332784 0.03360028 0.03391109 0.03427707 0.03463883 0.03498862 0.03526304
 0.03544236 0.0355741 0.03565934 0.03576288 0.03588758 0.03604074 0.03622003 0.0364015 0.03658464 0.03675571
 0.03691492 0.03705819 0.03718042 0.03727005 0.03731865 0.03730926 0.03723396 0.03707498 0.03683842 0.03651443
 0.03614054 0.03572782 0.03532363 0.03494908 0.03462053 0.0343476 0.0341221 0.03394383 0.03380816 0.03371524
 0.03365278 0.03361995 0.03358642 0.03355137 0.03349515 0.03341979 0.03332786 0.03321835 0.03309007 0.03293895
 0.03275355 0.03253548 0.03228266 0.03199635 0.03167818 0.03132572 0.03093137 0.03051538 0.0300793 0.02966487
 0.02928567 0.0289741 0.0287389 0.02860562 0.02858116 0.02866718 0.02886892 0.02910894 0.0293831 0.02958859
 0.02972867 0.02980698 0.02983923 0.02991967 0.03004832 0.03028024 0.03059424 0.03097148 0.03138835 0.03180188
 0.032192 0.03251639 0.03277939 0.03295721 0.03310628 0.033244 0.03343326 0.03370956 0.03406452 0.03451011
 0.03498525 0.03548146 0.03596225 0.03642168 0.03686742 0.03729977 0.03775028 0.0382211 0.03875081 0.03933473
 0.03997368 0.04064729 0.04128665 0.04187509 0.0423331 0.04267405 0.0428797 0.04297958 0.04299977 0.04296057
 0.04288512 0.04278519 0.04267391 0.04255144 0.04242373 0.04227347 0.04209575 0.04188776 0.0416442 0.04140039
 0.04115849 0.04095567 0.04079396 0.04067549 0.0405982 0.04053739 0.04048991 0.04042329 0.04033978 0.04022473
 0.04009378 0.0399761 0.03988327 0.03985678 0.03987256 0.03992665 0.03997523 0.03997978 0.03992435 0.03978593
 0.03957834 0.03930021 0.03897071 0.03859113 0.03819229 0.03777805 0.03737958 0.0370024 0.0366322 0.03626841
 0.03586657 0.03542735 0.03494707 0.03443205 0.03391912 0.03340965 0.03292798 0.032471 0.03204267 0.03164171
 0.03126855 0.03092027 0.03059114 0.03028739 0.03000672 0.02977264 0.02960058 0.02949283 0.02946357 0.02946454
 0.02948883 0.02948678 0.02944526 0.02936882 0.02925471 0.02914231 0.02903373</values></Ydata></AB><ScSm><Ydata ylabel="Single channel"><values byteorder="INTEL" format="FLOAT32" numvalues="1814"> 0.07271004 0.07272378 0.07280588 0.07297561 0.07320203 0.07341979 0.07357296 0.07364999 0.07366742 0.07363091
 0.07354838 0.07348076 0.0735258 0.07372279 0.07399543 0.07420514 0.07426096 0.074196 0.07414533 0.07421412
 0.07433994 0.07431286 0.07397448 0.0734004 0.07285158 0.07253258 0.07246327 0.07263634 0.0731487 0.07394788
 0.07454421 0.07435974 0.07345346 0.07256297 0.07228573 0.0725044 0.07272416 0.07264535 0.07226288 0.07175935
 0.071551 0.07216959 0.07373922 0.07555152 0.07632491 0.07501417 0.07155469 0.06709456 0.06357263 0.06268415
 0.0646873 0.06805319 0.07060895 0.07127155 0.0705725 0.06956507 0.06869192 0.06791136 0.06742203 0.06770596
 0.06885839 0.07013616 0.07034109 0.06884404 0.06633466 0.06433239 0.06380114 0.06454603 0.06602761 0.067949
 0.06942618 0.06851733 0.06413357 0.05845742 0.05597021 0.05919174 0.0659909 0.07167239 0.07315503 0.07069421
 0.06651413 0.06296448 0.06164128 0.06295609 0.0660537 0.06952295 0.07225651 0.07350754 0.07269995 0.06992643
 0.06643967 0.06404625 0.0639967 0.06649468 0.07065433 0.07458284 0.07624342 0.07496129 0.07186984 0.06871179
 0.06669427 0.06650141 0.06846434 0.07221119 0.07664302 0.08057506 0.08322464 0.0842869 0.08399264 0.08296179
 0.08173284 0.08067687 0.08033013 0.08106273 0.08220614 0.08230865 0.08071987 0.07846155 0.07717319 0.07741445
 0.07821928 0.07826851 0.07722314 0.07550513 0.07299076 0.06898728 0.06382421 0.05927721 0.05679427 0.05639356
 0.05771887 0.06060253 0.06382266 0.06503348 0.06333489 0.06090761 0.06084816 0.06386474 0.067916 0.07070248
 0.07179115 0.07244971 0.07401139 0.07651168 0.07851814 0.0782111 0.07519245 0.07150102 0.07017095 0.07225337
 0.07580578 0.07827741 0.07919286 0.07987089 0.0811174 0.08198144 0.08074901 0.07698075 0.07261541 0.07078084
 0.07307202 0.07795053 0.08185609 0.08184459 0.0775733 0.07137731 0.06644552 0.06461232 0.06586027 0.06953304
 0.07505606 0.08131204 0.08634505 0.08845502 0.08744311 0.08450785 0.08087806 0.07668205 0.07160516 0.06677106
 0.06495811 0.06796677 0.07431267 0.08046644 0.08400273 0.08480603 0.08369015 0.08089322 0.07630558 0.07091618
 0.06728294 0.06753938 0.07081999 0.07375935 0.07402076 0.07242219 0.07118753 0.07117526 0.07157569 0.07162112
 0.07167266 0.07259748 0.0745285 0.07654419 0.07756498 0.07733753 0.0764665 0.07570414 0.07527006 0.07470398
 0.0735164 0.072175 0.07204159 0.0738842 0.07681966 0.07921894 0.08033581 0.08057404 0.08040683 0.07955375
 0.0774006 0.07417351 0.07141386 0.07083176 0.07264683 0.07545628 0.07769291 0.07874489 0.07879463 0.07825389
 0.07749093 0.07670937 0.07600543 0.07562335 0.07589151 0.0767461 0.07763273 0.07806416 0.07801694 0.07767696
 0.07708891 0.07622626 0.07524079 0.07447548 0.07422051 0.07449068 0.07505643 0.0756506 0.07607395 0.07616324
 0.07584362 0.07524624 0.07462724 0.07413694 0.07377866 0.07357353 0.07360425 0.07386327 0.07418417 0.0743808
 0.0743916 0.07426035 0.07403755 0.07374464 0.07340698 0.07308774 0.07288057 0.07284729 0.0729427 0.07304019
 0.07307355 0.07310439 0.07318935 0.07324336 0.07312879 0.07284529 0.07254165 0.07235339 0.07229421 0.07229324
 0.07226935 0.07214998 0.07187156 0.07143575 0.07097927 0.07071965 0.07078043 0.07110008 0.07152496 0.07192443
 0.07220431 0.07231206 0.07228057 0.0721985 0.07210147 0.07194392 0.07169589 0.07142678 0.07127665 0.07134756
 0.07161064 0.07192414 0.07215455 0.07226406 0.0722857 0.07227437 0.07229313 0.07237344 0.07246099 0.07246077
 0.07235852 0.07224929 0.07222986 0.07229497 0.07235175 0.07232498 0.07224099 0.07219918 0.07226068 0.07239029
 0.07251588 0.07261195 0.07270404 0.07280976 0.07289398 0.07288984 0.07277526 0.07261772 0.07251202 0.07248184
 0.07248327 0.07249582 0.07255327 0.07267486 0.07281227 0.07289189 0.07289222 0.07285929 0.07284491 0.07284322
 0.07280248 0.07269439 0.07255182 0.07243434 0.07237326 0.0723554 0.07234592 0.07231686 0.07225833 0.07217254
 0.07206561 0.07194532 0.07181984 0.07169898 0.07160395 0.07156568 0.07159111 0.07163161 0.07160883 0.07148621
 0.0713069 0.07115181 0.07106274 0.07101201 0.07094448 0.07083739 0.07071285 0.07060447 0.07052916 0.07048691
 0.07046825 0.07045968 0.07046051 0.07049952 0.07061419 0.07079815 0.07098389 0.07109813 0.07113026 0.07113224
 0.07116066 0.07123542 0.07134444 0.07146752 0.07159849 0.0717517 0.07193454 0.07211336 0.07223506 0.07229096
 0.07233191 0.07241512 0.07256368 0.07277332 0.07301565 0.07323109 0.07336456 0.07342543 0.07348315 0.07359256
 0.07374798 0.07391617 0.07408413 0.07425823 0.07443933 0.07462485 0.07482855 0.0750768 0.07538145 0.07572237
 0.07605653 0.07634351 0.07657623 0.07679711 0.0770734 0.0774409 0.07787101 0.07829602 0.07866568 0.07898071
 0.07927703 0.07958166 0.0798918 0.08020245 0.08053755 0.08092859 0.08136915 0.08181778 0.08224583 0.08265845
 0.08306924 0.08347896 0.08388546 0.08429793 0.08473232 0.08519403 0.08566456 0.086108 0.0864989 0.08684495
 0.08717942 0.08753593 0.08793084 0.08835205 0.08875409 0.08908755 0.08935538 0.08962402 0.08995171 0.09031896
 0.09066078 0.09095997 0.09127045 0.09164181 0.09205425 0.09244691 0.09279071 0.0931117 0.09344839 0.09380081
 0.09412439 0.09437391 0.09455314 0.09471387 0.09490442 0.09513576 0.09540733 0.09573686 0.0961337 0.09655832
 0.09694276 0.09724765 0.09747823 0.09766002 0.09782474 0.09800516 0.09821494 0.09843989 0.09866162 0.09887214
 0.09905937 0.09921193 0.0993534 0.09953766 0.09979122 0.1000899 0.1004079 0.1007547 0.1011394 0.1015333
 0.1019037 0.1022709 0.1026853 0.1031453 0.1035734 0.1038952 0.1041134 0.1042811 0.1044347 0.1045922
 0.1047937 0.1050889 0.1054788 0.1059089 0.1063273 0.1067236 0.1071078 0.1074755 0.1078036 0.108068
 0.1082623 0.1084041 0.1085265 0.1086675 0.1088604 0.1091166 0.1094074 0.109675 0.1098725 0.1099821
 0.1099949 0.1099028 0.1097318 0.1095539 0.1094266 0.10932 0.1091326 0.1087789 0.1082452 0.1075627
 0.1067561 0.1058382 0.104842 0.1038409 0.1029284 0.1021816 0.1016502 0.1013808 0.1014313 0.1018331
 0.102528 0.1033605 0.104139 0.104697 0.1049068 0.1046849 0.1040259 0.1030215 0.1018193 0.1005541
 0.09930806 0.09810308 0.09691141 0.09570336 0.09452554 0.09353734 0.09296007 0.09299168 0.09375805 0.0952918
 0.09749761 0.1001328 0.1028685 0.1054201 0.107645 0.1095349 0.1111452 0.1125465 0.1138121 0.1149968
 0.1161106 0.1171296 0.1180391 0.1188506 0.1195799 0.1202236 0.12076 0.121164 0.1214304 0.1215922
 0.1217043 0.1218006 0.1218825 0.1219488 0.1220069 0.1220371 0.1219673 0.1217018 0.1211701 0.1203464
 0.1192555 0.1180092 0.1168697 0.1162602 0.1166334 0.1182222 0.1208591 0.1240407 0.1271945 0.1299217
 0.1320668 0.1336575 0.1348181 0.135699 0.1364277 0.1370865 0.1377135 0.1383142 0.138879 0.1394043
 0.1399004 0.140384 0.1408695 0.1413613 0.1418468 0.1423013 0.1427138 0.1431065 0.1435222 0.1439856
 0.1444788 0.1449581 0.1454005 0.1458262 0.1462643 0.1467068 0.1471181 0.1474845 0.1478303 0.1481887
 0.1485792 0.1490054 0.14945 0.149874 0.1502439 0.1505636 0.1508667 0.1511824 0.1515146 0.1518523
 0.1521872 0.1525207 0.1528596 0.1532109 0.1535792 0.1539579 0.1543226 0.1546429 0.1549114 0.1551547
 0.155411 0.1556981 0.1560046 0.1563064 0.1565945 0.1568891 0.1572229 0.157603 0.1579944 0.1583478
 0.1586427 0.1588998 0.1591541 0.1594261 0.1597161 0.1600191 0.1603324 0.1606521 0.1609708 0.1612825
 0.1615882 0.1618923 0.1621982 0.1625061 0.1628122 0.1631116 0.163404 0.1636954 0.163996 0.1643174
 0.1646683 0.1650412 0.1654051 0.1657226 0.1659813 0.1662052 0.1664331 0.1666883 0.1669687 0.1672596
 0.1675497 0.1678368 0.1681244 0.1684162 0.1687135 0.1690131 0.1693088 0.169596 0.1698764 0.170158
 0.1704517 0.1707642 0.1710905 0.1714135 0.1717168 0.1719982 0.1722682 0.1725388 0.1728155 0.1730964
 0.1733731 0.1736378 0.1738945 0.1741579 0.174438 0.1747295 0.1750187 0.175296 0.175561 0.1758203
 0.1760829 0.1763554 0.176641 0.1769376 0.1772366 0.1775264 0.1778007 0.1780639 0.1783268 0.1785984
 0.1788789 0.1791598 0.1794325 0.179699 0.1799711 0.1802561 0.1805475 0.1808317 0.1811006 0.1813581
 0.1816148 0.1818769 0.1821436 0.1824127 0.1826834 0.1829543 0.1832225 0.1834864 0.1837464 0.1840058
 0.1842754 0.184566 0.1848723 0.1851762 0.1854673 0.1857517 0.1860383 0.1863276 0.1866152 0.1868978
 0.1871768 0.1874576 0.1877425 0.1880254 0.1882974 0.1885559 0.1888037 0.1890467 0.1892909 0.1895377
 0.1897841 0.190032 0.1902881 0.1905525 0.1908177 0.1910804 0.1913435 0.1916094 0.1918797 0.1921557
 0.1924323 0.1927007 0.192961 0.1932212 0.1934863 0.193757 0.1940325 0.1943097 0.1945847 0.1948566
 0.1951247 0.1953882 0.1956538 0.1959304 0.1962154 0.1965 0.1967858 0.1970801 0.1973804 0.1976773
 0.1979617 0.1982281 0.1984815 0.1987403 0.1990151 0.1992943 0.1995631 0.199823 0.2000826 0.200345
 0.200609 0.2008708 0.2011299 0.2013957 0.2016759 0.2019612 0.2022373 0.2025055 0.2027735 0.2030414
 0.2033094 0.2035797 0.2038481 0.2041113 0.2043753 0.2046416 0.204903 0.2051603 0.2054166 0.2056502
 0.2058042 0.2057506 0.2051774 0.203461 0.1996464 0.1926349 0.1816209 0.1666004 0.148551 0.1290833
 0.109843 0.09208168 0.07653792 0.06353916 0.05316194 0.04533213 0.03988856 0.03669408 0.0357506 0.03731351
 0.04201628 0.05049336 0.06196323 0.07297856 0.07877256 0.07702561 0.07008814 0.06284072 0.05864156 0.05771232
 0.05860402 0.06008762 0.06177974 0.06391141 0.06686863 0.07075214 0.07536675 0.08070543 0.0871774 0.09508428
 0.1040032 0.1129712 0.1213195 0.1291951 0.1372247 0.1457602 0.1545137 0.1628445 0.170267 0.1766861
 0.1823002 0.187385 0.1921385 0.1966491 0.2009459 0.205011 0.2087073 0.2117374 0.2137769 0.2147197
 0.2148082 0.214506 0.214225 0.2141554 0.2143074 0.2146416 0.2151361 0.2157816 0.2165636 0.2174515
 0.2183985 0.2193613 0.2203179 0.2212551 0.2221538 0.2229956 0.2237748 0.2244954 0.2251629 0.2257812
 0.2263522 0.22688 0.2273746 0.2278419 0.2282772 0.2286781 0.2290569 0.2294287 0.2297946 0.2301458
 0.2304752 0.2307785 0.2310565 0.2313192 0.2315786 0.2318373 0.2320929 0.2323488 0.2326117 0.2328832
 0.2331596 0.2334361 0.2337082 0.2339733 0.2342303 0.2344757 0.2347052 0.2349231 0.2351442 0.2353819
 0.2356394 0.2359101 0.2361821 0.2364445 0.2366934 0.2369315 0.2371642 0.2373984 0.2376416 0.2378962
 0.2381605 0.2384363 0.2387234 0.2390098 0.2392825 0.2395453 0.2398121 0.2400867 0.2403644 0.2406413
 0.2409086 0.2411496 0.2413583 0.2415562 0.2417777 0.2420406 0.242331 0.2426181 0.2428841 0.2431371
 0.2433926 0.243654 0.2439128 0.2441573 0.2443871 0.244628 0.2449147 0.2452451 0.2455773 0.2458843
 0.24618 0.246484 0.2467986 0.2471235 0.2474501 0.2477388 0.247951 0.2481104 0.248307 0.2486255
 0.2490661 0.2495395 0.2499461 0.2502626 0.2505387 0.250834 0.2511796 0.2515495 0.2518317 0.2519073
 0.2518329 0.2518655 0.2522207 0.2528555 0.253547 0.2541253 0.2545699 0.2549406 0.2552819 0.2555803
 0.2557773 0.2558327 0.2558083 0.2558834 0.2562304 0.2568396 0.2575159 0.2580754 0.2584863 0.2588
 0.2590563 0.2592812 0.2594413 0.2593752 0.2589648 0.2584477 0.2583598 0.2590173 0.2601579 0.2612194
 0.2618949 0.262293 0.2626255 0.2629481 0.263217 0.2633325 0.2630158 0.2619695 0.2604522 0.2594374
 0.2598101 0.2614758 0.2635179 0.265109 0.2660328 0.2664942 0.2667654 0.267002 0.2671256 0.2668305
 0.2659287 0.2648032 0.2643079 0.2649755 0.2664194 0.2677531 0.2684966 0.2688223 0.269076 0.2693877
 0.2695862 0.26915 0.2674998 0.2648615 0.2627046 0.2627124 0.2651343 0.2684796 0.2709932 0.2721678
 0.2726024 0.2727039 0.2720908 0.2702819 0.2674176 0.2641944 0.2616495 0.261023 0.2629349 0.2663555
 0.2691911 0.2703505 0.270664 0.2715065 0.2731548 0.2747987 0.275601 0.2753447 0.2742831 0.2726828
 0.2706995 0.2688077 0.2680571 0.26933 0.2722705 0.2754099 0.2775253 0.278568 0.2790226 0.2784784
 0.2753442 0.2687629 0.261005 0.2568428 0.2593368 0.2666311 0.2739463 0.2782817 0.2800575 0.2808678
 0.2813474 0.2809955 0.2784589 0.2722712 0.2631599 0.2554911 0.2543113 0.2603549 0.2692167 0.2754653
 0.2763466 0.2720767 0.2648582 0.2582143 0.2555496 0.2580906 0.2643561 0.2716213 0.2775499 0.2808264
 0.2811411 0.2790731 0.2760502 0.2739965 0.273941 0.2744995 0.2729254 0.2685795 0.2639913 0.2611354
 0.2583679 0.2534677 0.2485254 0.2485452 0.2549414 0.263175 0.267858 0.2682036 0.2670332 0.2656357
 0.2615539 0.2521227 0.2395232 0.2308518 0.2319079 0.241186 0.2512307 0.255929 0.255354 0.2535754
 0.253221 0.2528042 0.2488431 0.2404182 0.2314501 0.2274006 0.2294687 0.2335161 0.2349572 0.2324313
 0.2261966 0.2166144 0.206723 0.2031777 0.210616 0.2259448 0.2407793 0.2483592 0.2460072 0.233585
 0.2143761 0.1969962 0.1911982 0.1991553 0.2128313 0.2213849 0.2197745 0.2096268 0.1945626 0.1777076
 0.163112 0.1561797 0.1603884 0.1737305 0.1889374 0.1971819 0.1929426 0.1782306 0.1627774 0.1570226
 0.1626956 0.1717292 0.175314 0.1718534 0.1656265 0.1612052 0.1607975 0.1640134 0.1683229 0.1713857
 0.1729225 0.1721793 0.1654205 0.1505404 0.1332457 0.1232988 0.1243358 0.1320334 0.1420477 0.1538246
 0.1653753 0.1706536 0.166427 0.1585228 0.1568829 0.1650157 0.176963 0.184504 0.1852586 0.1831042
 0.1821412 0.1822392 0.1812296 0.1798663 0.1819324 0.1890365 0.1977989 0.2036301 0.2055041 0.2055076
 0.2053239 0.2049853 0.2040662 0.202426 0.2001243 0.197538 0.1952481 0.1933753 0.1914757 0.1892185
 0.1863688 0.1818295 0.1739254 0.1628903 0.1523713 0.1465875 0.1459232 0.1472346 0.1484538 0.1497893
 0.1495001 0.1427042 0.1278655 0.1120542 0.1057683 0.1127992 0.1274534 0.1410081 0.1483097 0.1481527
 0.1407256 0.1279793 0.1159413 0.1128103 0.1222329 0.1398026 0.1578059 0.17184 0.1812093 0.1852596
 0.182796 0.1749564 0.1662968 0.16222 0.1657394 0.176105 0.1889407 0.1972776 0.1949829 0.1829466
 0.1719186 0.1745482 0.1919784 0.2117762 0.2218894 0.2228768 0.2228797 0.2249995 0.2258155 0.2243519
 0.2256096 0.2336868 0.2457033 0.2546127 0.2553688 0.2468945 0.2313838 0.2147765 0.2052669 0.2068534
 0.2149783 0.2216233 0.2230975 0.2195685 0.2104092 0.1963912 0.1848092 0.1849932 0.1974889 0.2128492
 0.2224014 0.2261515 0.2288338 0.231772 0.2312967 0.2243232 0.2134934 0.2055235 0.2045318 0.2084104
 0.2123157 0.2137423 0.2125878 0.2083075 0.2002436 0.1906916 0.1849009 0.1865474 0.1940031 0.2019493
 0.2062186 0.2064554 0.204773 0.2031416 0.2020963 0.2009411 0.1990685 0.1976565 0.199441 0.2056629
 0.2139003 0.22048 0.224668 0.2288842 0.234898 0.2413418 0.2453221 0.2455476 0.2435708 0.2424732
 0.2444109 0.2488843 0.2530912 0.2543203 0.2525392 0.2506685 0.2518873 0.2565883 0.2623357 0.2666146
 0.2688752 0.2699967 0.2708095 0.2714071 0.2711182 0.2690457 0.2654245 0.2624274 0.2626491 0.2665295
 0.2719087 0.2762129 0.2784933 0.2793024 0.2793272 0.2786448 0.2771164 0.275058 0.2732647 0.2724017
 0.2725434 0.2733266 0.2743528 0.2753615 0.2762081 0.2768529 0.2773322 0.2776816 0.2779267 0.2781355
 0.2783765 0.2786129 0.2787447 0.2787892 0.2789202 0.2792587 0.2796987 0.280009 0.2800385 0.2797292
 0.2790046 0.2777949 0.2761686 0.2743047 0.2722968 0.2700998 0.2677758 0.2657563 0.2647203 0.2650989
 0.2666857 0.2687644 0.2706087 0.2718542 0.2725008 0.2727329 0.272782 0.2728474 0.2730233 0.2732726
 0.2734873 0.2735878 0.2735679 0.273462 0.2733018 0.2731215 0.2729713 0.2728813 0.2728211 0.2727357
 0.2726246 0.2725504 0.2725568 0.2725981 0.2725649 0.2723735 0.2720284 0.2716045 0.271174 0.2707464
 0.2702797 0.2697441 0.2691631 0.2685799 0.2679909 0.2673312 0.2665181 0.2655006 0.2642923 0.2629872
 0.2617205 0.2605731 0.2595171 0.2584661 0.2573506 0.2561288 0.2547712 0.2532761 0.2516853 0.2500514
 0.2483982 0.2467203 0.245008 0.2432561 0.2414574 0.2395985 0.2376671 0.2356615 0.2335939 0.2314748
 0.2292769 0.2269039 0.2242097 0.2210664 0.2174109 0.2132304 0.2085424 0.2034151 0.1979934 0.1924758
 0.1870584 0.1818966 0.1771042 0.1727764 0.1690069 0.1658724 0.1634105 0.1616302 0.1605434 0.1601654
 0.1604914 0.1614829 0.1630623 0.165108 0.1674644 0.1699666 0.1724537 0.1747841 0.1768792 0.1787628
 0.1805344 0.1822843 0.1840344 0.1857509 0.187394 0.1889366 0.1903399 0.191547 0.1925246 0.1932964
 0.1939178 0.1944301 0.1948496 0.1951778 0.1954019 0.1955021 0.19548 0.1953843 0.1953051 0.1953424
 0.1955744 0.1960445 0.1967554 0.1976584 0.1986601 0.1996674 0.2006362 0.201571 0.2024936 0.2034267
 0.2043914 0.2054062 0.2064968 0.2077132 0.2091179 0.2107486 0.2125883 0.2145591 0.216541 0.218413
 0.2200872 0.2215049 0.2226242 0.2234351 0.2239729 0.224296 0.224456 0.2244892 0.2244266 0.2243067
 0.224177 0.2240666 0.2239542 0.223785 0.2235253 0.2231848 0.2227942 0.2223877 0.221998 0.2216436
 0.2213208 0.2210205 0.2207461 0.220509 0.2203108 0.2201308 0.2199293 0.2196685 0.2193318 0.2189193
 0.2184342 0.2178738 0.2172227 0.2164504 0.2155331 0.2144759 0.2133008 0.2120189 0.2106288 0.2091337
 0.2075477 0.2058937 0.2041993 0.2024854 0.2007537 0.1989871 0.1971532 0.1952162 0.1931703 0.1910662
 0.1889868 0.1869924 0.185094 0.1832681 0.1814823 0.1797216 0.1780021 0.176358 0.1748118 0.1733627
 0.1719995 0.170711 0.1694873 0.1683232 0.1672239 0.1662069 0.165294 0.1644963 0.1638074 0.1632116
 0.1626895 0.1622195 0.1617977 0.1614628 0.1612667 0.161202 0.1611788 0.1610876 0.160878 0.16058
 0.160268 0.1600018 0.1597902 0.1596046 0.1594149 0.1591967 0.1589106 0.1584883 0.1578345 0.1568491
 0.1554804 0.1537689 0.1518292 0.1497977 0.1478061 0.1459752 0.1443944 0.1431075 0.1421125 0.1413572
 0.1407478 0.1402049 0.1397201 0.1393513 0.1391632 0.1391585 0.139239 0.1392588 0.139159 0.1390349
 0.139045 0.139278 0.139717 0.140275 0.140838 0.141312 0.1416574 0.1418749 0.1419747 0.1419668
 0.1418579 0.141649 0.1413538 0.1410044 0.140621 0.1401959 0.1397173 0.1391809 0.1385799 0.1379098
 0.1371692 0.1363441 0.1354209 0.1344061 0.1332979 0.1320758 0.1307917 0.1296396 0.1288692 0.1286346
 0.1289181 0.129549 0.1303122 0.1310845 0.1318083 0.1323217 0.132405 0.1321508 0.1321448 0.1330407
 0.134928 0.1372237 0.1391864 0.1404366 0.1409834 0.1409411 0.1403826 0.139369 0.1379345 0.1360651
 0.1337867 0.1312079 0.128436 0.1255708 0.1227869 0.1202742 0.1181171 0.1163272 0.1149117 0.113925
 0.113488 0.113236 0.1114025 0.1057464 0.09699926 0.09040977 0.09134572 0.09926195 0.1080699 0.1125782
 0.1126366 0.1110003 0.1095684 0.1086337 0.1081168 0.1081645 0.1088977 0.1101746 0.1116142 0.1128174
 0.113612 0.1140213 0.1139979 0.1132201 0.1110377 0.1066773 0.09986903 0.09142423 0.08296823 0.07598324
 0.07113945 0.06831938 0.06694173 0.06629452 0.06587838 0.0656288 0.06582576 0.06677122 0.06853642 0.07097982
 0.07390083 0.07704948 0.08004541 0.08252092 0.08440582 0.08590116 0.08713529 0.08800414 0.0883622 0.08821189
 0.08767793 0.08690827 0.08602289 0.08508416 0.08407462 0.08293118 0.0816665 0.08047731 0.07964873 0.07929251
 0.0792558 0.07932438 0.07940741 0.07949252 0.0795559 0.07957505 0.07955963 0.07956254 0.07968745 0.08001679
 0.08049333 0.08094476 0.0812461 0.08140734 0.08151476 0.08160426 0.08155997 0.0812055 0.08059072 0.08004158
 0.079731 0.07936226 0.07855412 0.07743412 0.07657169 0.07636027 0.0766731 0.07709271 0.07729335 0.07720339
 0.07698242 0.07692972 0.07728031 0.07793371</values></Ydata></ScSm><ScRf><Ydata ylabel="Single channel"><values byteorder="INTEL" format="FLOAT32" numvalues="1820"> 0.06066135 0.06082638 0.06093078 0.06097031 0.06096822 0.06097337 0.06103696 0.06117712 0.06136461 0.06154216
 0.06166343 0.06172106 0.06173338 0.06171073 0.06165978 0.06162126 0.06166293 0.06181281 0.06201626 0.06217195
 0.06221096 0.06215716 0.06211697 0.06217716 0.06228607 0.0622626 0.06196628 0.06146207 0.06098164 0.06070898
 0.06066155 0.06082367 0.0612663 0.06194193 0.06244373 0.06229175 0.0615342 0.06078355 0.06053793 0.06070485
 0.06087951 0.06081493 0.06050113 0.06008141 0.05989978 0.06040489 0.0617075 0.06321935 0.06386586 0.06276321
 0.05984866 0.05608594 0.05311364 0.05236465 0.0540522 0.0568811 0.05902276 0.05957628 0.05899888 0.05817598
 0.05746864 0.05682818 0.05641508 0.05663943 0.05759259 0.05865598 0.05881781 0.05754243 0.05541218 0.05371381
 0.05326086 0.05388343 0.05512408 0.05673791 0.05798631 0.05723144 0.05354809 0.04877035 0.04667692 0.04939745
 0.05513833 0.05993656 0.06118651 0.0591033 0.05557425 0.05259293 0.05150134 0.05262666 0.05523167 0.05813055
 0.06040823 0.06144973 0.06077057 0.05844194 0.05551339 0.05350493 0.05347031 0.05558217 0.05909589 0.06241703
 0.06382552 0.06274526 0.06012723 0.05744518 0.05572714 0.0555573 0.05721579 0.06038599 0.06413697 0.06746527
 0.0697073 0.07060389 0.07035095 0.0694783 0.06844895 0.06757654 0.06730329 0.0679315 0.06889723 0.0689813
 0.06763647 0.06572238 0.0646234 0.06481779 0.0654951 0.06554122 0.06466635 0.06322471 0.06111063 0.05773601
 0.05337676 0.04953624 0.04744548 0.04712534 0.04827487 0.05074864 0.05350763 0.05456047 0.0531375 0.05107782
 0.05100378 0.05352712 0.0569345 0.059284 0.06020319 0.06075901 0.06207993 0.06419932 0.06590715 0.06566246
 0.06312428 0.06001533 0.05890536 0.06068595 0.06371058 0.06581984 0.06662124 0.06724368 0.06836712 0.06916681
 0.06817384 0.06502081 0.06137045 0.05988201 0.06189363 0.06608359 0.06942965 0.06944032 0.06582998 0.0605885
 0.05643462 0.05493456 0.05608217 0.05933383 0.06420857 0.06974246 0.07424279 0.07623188 0.07551435 0.07310171
 0.07005536 0.06650229 0.0621814 0.05807715 0.05662468 0.05941285 0.06514992 0.07073762 0.07403578 0.07493051
 0.07412522 0.07181355 0.06788439 0.06321925 0.06012193 0.06052732 0.06367034 0.06651695 0.06694376 0.06567799
 0.06473609 0.06490692 0.06545613 0.0656807 0.06591643 0.0669709 0.06897195 0.07106446 0.07223764 0.07224112
 0.07163012 0.0711164 0.07091852 0.07060152 0.06969544 0.0686468 0.06875706 0.07075441 0.07378463 0.07628465
 0.07754698 0.07797508 0.07803313 0.07743867 0.07557152 0.07263471 0.07013656 0.06977144 0.07177712 0.07478079
 0.07722718 0.07850171 0.0787867 0.07849219 0.077975 0.07742874 0.07695124 0.07679434 0.07729425 0.07839248
 0.07953113 0.08021048 0.08039655 0.08027019 0.07987279 0.07918261 0.07837109 0.07780159 0.07776723 0.07827262
 0.07908222 0.07993014 0.08061117 0.08093854 0.08081058 0.08035885 0.0798741 0.07954152 0.0793701 0.07937029
 0.07962013 0.08010723 0.08064876 0.08104386 0.08123285 0.08127078 0.08121485 0.08108385 0.08089579 0.08071361
 0.08064717 0.08077684 0.0810535 0.08132865 0.08152732 0.08172458 0.08198601 0.08221035 0.08223487 0.08205497
 0.08184058 0.08174993 0.08180189 0.08191983 0.08201941 0.08202206 0.08184592 0.08147836 0.08107129 0.08088352
 0.08107449 0.08158991 0.08225302 0.08289079 0.08336692 0.08361027 0.08366635 0.08364967 0.08361171 0.08350784
 0.08330727 0.08308926 0.08301289 0.08319524 0.08360641 0.08408493 0.08446609 0.08468331 0.08476318 0.08478932
 0.08487161 0.08506092 0.08526926 0.0853503 0.08528174 0.08520148 0.08524151 0.08537862 0.08547501 0.08544169
 0.08533977 0.08531573 0.08544683 0.08567216 0.08588036 0.08603457 0.08618976 0.08639739 0.08661026 0.08670144
 0.0865996 0.08638769 0.08622254 0.08616999 0.08618187 0.08622634 0.08635071 0.08658126 0.08683188 0.08697534
 0.08698433 0.08695269 0.08697405 0.08703379 0.08703874 0.08693114 0.08674803 0.08657992 0.08649866 0.08652034
 0.08660604 0.08668651 0.08670359 0.08664514 0.08654311 0.08643754 0.08634879 0.08629221 0.08630981 0.08645266
 0.08670381 0.08693484 0.0869841 0.08680253 0.08651045 0.08629197 0.08623026 0.08624972 0.08621047 0.08604302
 0.08578987 0.08554002 0.08534876 0.08521637 0.08511631 0.08503062 0.08497293 0.08498698 0.08510093 0.0852624
 0.0853422 0.08524155 0.08499246 0.08472536 0.08454758 0.0844775 0.08447231 0.0844802 0.08447907 0.08449459
 0.08456174 0.08465286 0.08468328 0.08461199 0.08449797 0.08443953 0.08449654 0.08467131 0.0849041 0.08507814
 0.08509642 0.08498263 0.08486363 0.08483733 0.08489516 0.08497804 0.08505856 0.08514487 0.08524217 0.08534715
 0.08547099 0.08563998 0.08586723 0.08612983 0.08637424 0.08654838 0.08664497 0.08672208 0.08686762 0.08712702
 0.08746447 0.08779559 0.08805643 0.08824581 0.08840933 0.08858518 0.08877387 0.08896814 0.08919246 0.08948027
 0.08981966 0.09015778 0.09046026 0.09073693 0.09100967 0.09128409 0.09156068 0.09185657 0.09220552 0.09262653
 0.09308044 0.09347068 0.0937169 0.09383488 0.09393177 0.09412502 0.09446132 0.09488042 0.09524363 0.09544072
 0.09550259 0.09557838 0.09577316 0.09604462 0.09629452 0.09652078 0.09681848 0.0972404 0.09771166 0.09809863
 0.09833755 0.09848217 0.09863428 0.09883656 0.09903876 0.09917265 0.09924322 0.099319 0.09944418 0.09960802
 0.09980874 0.1000907 0.1004792 0.1009156 0.1012991 0.1015772 0.1017656 0.1019038 0.1020187 0.1021161
 0.1021815 0.1022058 0.1022204 0.1022784 0.102385 0.1024828 0.1025285 0.102552 0.1026166 0.1027538
 0.1029632 0.1032404 0.103563 0.1038744 0.1041353 0.1043864 0.104706 0.1050902 0.1054244 0.1056056
 0.1056537 0.1056637 0.1056859 0.1057124 0.1057595 0.1058891 0.106135 0.1064595 0.1068029 0.1071436
 0.1074924 0.1078484 0.1081755 0.1084169 0.1085324 0.1085346 0.1084928 0.1084979 0.1086153 0.1088545
 0.1091694 0.1094905 0.1097669 0.1099739 0.110088 0.1100915 0.1100235 0.1099923 0.1100873 0.1102773
 0.1104275 0.1104166 0.1102129 0.1098444 0.1093396 0.1087211 0.1080386 0.1073763 0.1068196 0.1064193
 0.106194 0.1061662 0.1063758 0.1068358 0.1074789 0.1081779 0.1088216 0.1093406 0.109661 0.1096868
 0.1093712 0.1087814 0.1080616 0.1073381 0.1066718 0.1060634 0.1054774 0.1048889 0.1043533 0.1040262
 0.1040917 0.104659 0.1057115 0.1071145 0.1086543 0.1101057 0.1113203 0.1122804 0.1130698 0.1137825
 0.1144602 0.1151096 0.1157461 0.1163864 0.1170096 0.117569 0.1180495 0.1184808 0.1188919 0.1192789
 0.11962 0.1199 0.1201255 0.1203316 0.1205525 0.1207656 0.1208932 0.1208856 0.1207793 0.1206468
 0.1205137 0.1203433 0.1200826 0.1197102 0.1192673 0.118875 0.1187138 0.1189474 0.1196292 0.1206706
 0.1219073 0.1232011 0.1244687 0.1256289 0.126578 0.1272499 0.1276773 0.1279655 0.1282163 0.1284875
 0.1287946 0.1291239 0.1294497 0.1297532 0.1300339 0.1303088 0.1306042 0.1309345 0.1312779 0.131586
 0.1318333 0.1320533 0.1323151 0.1326605 0.1330618 0.1334479 0.1337778 0.1340782 0.1343911 0.1347035
 0.1349619 0.1351494 0.1353127 0.1355141 0.135788 0.136135 0.1365184 0.1368674 0.1371228 0.1372918
 0.137439 0.1376195 0.1378401 0.1380801 0.1383251 0.1385719 0.1388204 0.1390793 0.1393691 0.1396954
 0.1400174 0.1402687 0.1404251 0.1405372 0.140681 0.1408863 0.1411223 0.141343 0.1415379 0.1417416
 0.1419978 0.1423085 0.1426208 0.1428714 0.1430425 0.1431695 0.1433023 0.1434683 0.143667 0.1438846
 0.1441061 0.1443192 0.144518 0.1447092 0.1449087 0.145126 0.1453539 0.1455764 0.145786 0.1459884
 0.1461924 0.1463999 0.1466089 0.1468287 0.1470818 0.147377 0.147683 0.1479453 0.1481341 0.148266
 0.1483824 0.1485156 0.1486765 0.148859 0.1490509 0.1492447 0.1494416 0.1496452 0.149855 0.150066
 0.1502737 0.1504772 0.1506786 0.1508808 0.1510872 0.1513033 0.1515321 0.1517662 0.1519908 0.1521965
 0.1523877 0.1525772 0.1527753 0.1529812 0.1531828 0.1533668 0.1535329 0.1536967 0.1538753 0.1540736
 0.1542834 0.1544923 0.1546923 0.1548823 0.1550657 0.1552484 0.1554359 0.1556313 0.1558324 0.1560348
 0.1562352 0.1564301 0.1566167 0.1568004 0.1569943 0.1572048 0.157424 0.1576397 0.1578481 0.1580501
 0.1582442 0.1584281 0.1586064 0.15879 0.1589859 0.1591908 0.1593977 0.1596049 0.1598125 0.1600176
 0.1602192 0.1604231 0.1606325 0.1608411 0.161044 0.1612478 0.1614606 0.1616794 0.1618948 0.1621024
 0.1623079 0.1625202 0.1627425 0.1629668 0.1631828 0.1633909 0.1635989 0.1638093 0.1640165 0.1642131
 0.1643955 0.1645663 0.1647339 0.164906 0.1650846 0.1652673 0.1654511 0.1656322 0.1658093 0.1659871
 0.1661728 0.1663698 0.1665777 0.1667924 0.1670045 0.1672079 0.1674067 0.1676089 0.1678149 0.1680193
 0.1682194 0.1684174 0.1686188 0.1688281 0.1690422 0.1692541 0.1694641 0.1696768 0.1698881 0.1700911
 0.1702905 0.1704979 0.1707171 0.1709433 0.1711685 0.1713844 0.1715893 0.1717921 0.1719994 0.172207
 0.1724106 0.1726129 0.1728165 0.173021 0.1732266 0.1734325 0.1736388 0.1738526 0.1740806 0.1743145
 0.1745402 0.1747555 0.1749644 0.1751675 0.1753681 0.1755737 0.1757843 0.175995 0.1762047 0.1764136
 0.1766224 0.1768379 0.1770591 0.1772595 0.1773872 0.1773331 0.176827 0.1753262 0.1720042 0.165919
 0.1563848 0.1433979 0.1277908 0.1109434 0.0942779 0.07888541 0.0654164 0.05416338 0.04519605 0.03844435
 0.03375576 0.03099811 0.03016793 0.03149319 0.03553426 0.04284611 0.05275359 0.06228069 0.06731244 0.06583558
 0.0598597 0.05358934 0.04993523 0.04910751 0.04986481 0.05114347 0.05260433 0.05443956 0.05698109 0.06032182
 0.06430079 0.06891273 0.07450297 0.08132445 0.08901484 0.09675142 0.1039572 0.1107499 0.1176652 0.1250124
 0.1325504 0.139727 0.1461208 0.1516506 0.1564882 0.1608671 0.164953 0.1688231 0.1725107 0.1760091
 0.1791987 0.1818129 0.1835623 0.1843512 0.1843894 0.1840815 0.1837919 0.1836954 0.1838062 0.1840848
 0.1844982 0.1850288 0.1856695 0.1864079 0.1872092 0.1880293 0.1888414 0.1896355 0.190401 0.1911253
 0.1918002 0.1924186 0.1929754 0.1934763 0.1939355 0.1943645 0.1947688 0.1951495 0.1955051 0.1958381
 0.1961587 0.1964743 0.1967789 0.1970611 0.1973175 0.1975542 0.1977802 0.1980008 0.1982132 0.1984127
 0.1986045 0.1988015 0.1990092 0.199222 0.1994337 0.1996431 0.1998493 0.2000519 0.2002508 0.2004438
 0.2006278 0.2008047 0.2009806 0.2011594 0.2013448 0.2015422 0.2017515 0.2019613 0.202159 0.2023443
 0.2025283 0.2027228 0.2029275 0.2031297 0.2033211 0.2035145 0.203731 0.2039717 0.2042164 0.2044478
 0.2046627 0.2048633 0.2050553 0.2052485 0.2054437 0.2056243 0.205776 0.2059116 0.2060675 0.2062721
 0.2065171 0.2067641 0.2069817 0.207172 0.2073572 0.2075507 0.2077487 0.2079381 0.2081114 0.2082842
 0.2084887 0.2087375 0.2090068 0.2092679 0.2095162 0.2097572 0.2099906 0.2102184 0.2104408 0.2106378
 0.2107854 0.2109008 0.2110522 0.2113075 0.2116684 0.2120595 0.2123938 0.2126494 0.2128703 0.2131088
 0.2133854 0.2136691 0.2138645 0.2138788 0.2137648 0.2137433 0.2140074 0.214534 0.2151343 0.2156453
 0.2160274 0.2163212 0.2165695 0.2167761 0.2169047 0.2169235 0.2168774 0.2169128 0.2171797 0.217677
 0.218236 0.2186894 0.2190042 0.2192311 0.2194149 0.2195827 0.2197034 0.2196352 0.2192728 0.2188129
 0.2187067 0.2192219 0.220142 0.2210022 0.2215513 0.2218782 0.2221527 0.2224181 0.2226396 0.2227309
 0.2224459 0.2215271 0.2202025 0.2193151 0.2196233 0.2210379 0.2227698 0.2241176 0.2249049 0.2253067
 0.225549 0.2257594 0.2258681 0.2256117 0.224829 0.2238515 0.2234166 0.2239854 0.2252273 0.2263789
 0.2270258 0.2273147 0.2275407 0.2278148 0.2279943 0.2276368 0.2262423 0.2239966 0.2221559 0.2221632
 0.22423 0.2270786 0.2292114 0.2302046 0.2305794 0.2306847 0.2301839 0.2286533 0.2262132 0.2234697
 0.2213139 0.2207972 0.2224409 0.2253683 0.227803 0.228822 0.229133 0.2298993 0.2313477 0.2327816
 0.2334846 0.2332754 0.2323822 0.2310422 0.2293856 0.2278079 0.227199 0.2283112 0.2308445 0.2335522
 0.2353943 0.236327 0.2367606 0.2363404 0.233697 0.228089 0.2214635 0.2179196 0.220089 0.2263833
 0.2326999 0.2364561 0.2380097 0.2387363 0.2391871 0.2389305 0.2368073 0.2315693 0.2238436 0.2173614
 0.2164295 0.2216661 0.2293015 0.2347004 0.2355154 0.2319252 0.2258061 0.2201796 0.217972 0.2202368
 0.2256989 0.2320142 0.2371748 0.2400561 0.2404003 0.2387056 0.2361953 0.234527 0.2345891 0.2351846
 0.2339413 0.230309 0.2264713 0.2241341 0.2218804 0.2177867 0.213649 0.2137971 0.2194711 0.2267513
 0.230967 0.2314342 0.2306012 0.229583 0.226238 0.218239 0.2074726 0.2001199 0.2012544 0.2095781
 0.2185842 0.2229323 0.2226915 0.2214248 0.2214354 0.2214196 0.2183017 0.2112511 0.203733 0.2006044
 0.2029442 0.2070797 0.2089242 0.2072356 0.2021987 0.1941203 0.1857559 0.1831378 0.19049 0.2050557
 0.2192564 0.226926 0.2255535 0.2149212 0.1979997 0.182783 0.1783979 0.1869192 0.2008423 0.2099866
 0.2095711 0.2010565 0.1878005 0.1727779 0.1599799 0.1548293 0.1609301 0.1764165 0.1939723 0.2044436
 0.2018924 0.1882477 0.1737731 0.1696848 0.1779072 0.1897094 0.195474 0.1934265 0.1882699 0.1851518
 0.1867045 0.1925543 0.1997092 0.2053749 0.2091833 0.2100251 0.2030466 0.1854788 0.1643577 0.1518923
 0.1527898 0.1618419 0.1736861 0.1876261 0.2012759 0.2072466 0.2014739 0.1909086 0.1875979 0.1958915
 0.2087182 0.2162436 0.2156103 0.211458 0.2087651 0.2075502 0.2053538 0.2029728 0.204666 0.2122793
 0.2220266 0.2287194 0.2311644 0.2316959 0.2322111 0.2327266 0.2327223 0.2320126 0.230664 0.2291203
 0.228074 0.227689 0.2274496 0.2269503 0.2258676 0.2227436 0.2153032 0.2036471 0.1922816 0.1865458
 0.1869481 0.1895323 0.191756 0.1939705 0.1939436 0.1853204 0.1660237 0.145143 0.1363218 0.1445749
 0.1625533 0.1789162 0.1870171 0.185471 0.1747601 0.1574344 0.140824 0.1347539 0.1435364 0.1618325
 0.1803578 0.1938879 0.2018683 0.2039815 0.1991472 0.1886737 0.1775357 0.1715326 0.1737482 0.1831913
 0.1951371 0.2023537 0.1986339 0.1849537 0.1721988 0.173144 0.1890589 0.2076072 0.216717 0.2168106
 0.2159263 0.2172192 0.2173873 0.2154374 0.2162104 0.2237378 0.2353142 0.2441674 0.245403 0.2379362
 0.2238775 0.2090363 0.2014056 0.2047183 0.2141422 0.2214844 0.2230923 0.2193778 0.2099907 0.1958486
 0.1842628 0.1845486 0.1972474 0.2128933 0.2227729 0.2268602 0.2298876 0.2331833 0.2330549 0.2263885
 0.2158623 0.2083148 0.2079878 0.2128064 0.2178883 0.2206949 0.2210822 0.2183874 0.2118323 0.2038155
 0.1999499 0.2041823 0.2146772 0.225499 0.2318953 0.2332625 0.2317566 0.2294965 0.2271428 0.2240627
 0.2197366 0.2155957 0.2147561 0.2186963 0.2249137 0.2294985 0.2316103 0.233761 0.2378556 0.2425696
 0.2449708 0.2437249 0.2403625 0.2379384 0.2385769 0.2417862 0.2448284 0.2450594 0.2424486 0.239852
 0.240386 0.2444518 0.2496882 0.2536496 0.255799 0.2569931 0.2580323 0.2589592 0.2590267 0.2572681
 0.2538582 0.2508894 0.2508782 0.2542709 0.2590254 0.262724 0.2645255 0.2650181 0.2648844 0.2641925
 0.2627949 0.2609752 0.2594596 0.2588344 0.2591212 0.2599384 0.2608937 0.2617458 0.2623802 0.2627977
 0.2630801 0.2632871 0.2634239 0.2635088 0.2635788 0.2636094 0.2635382 0.2634123 0.2634109 0.2636431
 0.2639933 0.2642374 0.2642499 0.2640065 0.2634535 0.2625183 0.2612492 0.2598113 0.2582983 0.2566623
 0.2549455 0.2535409 0.2530817 0.2539657 0.2559826 0.2584363 0.2606226 0.2621904 0.2631409 0.2636321
 0.2638378 0.2638994 0.2639024 0.2638617 0.2637472 0.2635337 0.2632295 0.2628691 0.2624882 0.2621136
 0.2617691 0.2614718 0.2612117 0.260944 0.2606144 0.2601935 0.2596919 0.2591491 0.2586018 0.2580439
 0.2574211 0.2566781 0.2558124 0.2548791 0.2539513 0.253079 0.2522656 0.2514747 0.250666 0.2498239
 0.2489342 0.2479523 0.246844 0.2456685 0.2445738 0.2436787 0.2429739 0.2423494 0.2416874 0.2409184
 0.2400276 0.239048 0.238032 0.2370043 0.235947 0.2348356 0.2336641 0.2324265 0.2311047 0.229689
 0.2281895 0.2266197 0.2249906 0.2233194 0.2216139 0.2198321 0.2178687 0.2155831 0.2128356 0.2095185
 0.2055925 0.2011224 0.19628 0.191297 0.1863927 0.1817248 0.1773975 0.1735011 0.1701314 0.167376
 0.1652929 0.1639048 0.163213 0.1632145 0.1639026 0.1652499 0.1671934 0.1696345 0.1724419 0.175451
 0.1784752 0.1813422 0.1839488 0.1862976 0.1884705 0.1905431 0.1925167 0.194338 0.1959636 0.1973844
 0.1986006 0.1996104 0.2004314 0.2011121 0.201706 0.2022367 0.2026958 0.2030743 0.2033825 0.2036393
 0.2038577 0.2040499 0.2042342 0.2044246 0.2046243 0.2048367 0.2050749 0.2053595 0.2057134 0.2061491
 0.2066548 0.2072012 0.2077685 0.2083563 0.2089683 0.2096053 0.2102865 0.2110626 0.2119975 0.2131245
 0.214417 0.2158003 0.2171929 0.2185282 0.2197436 0.2207717 0.2215583 0.2220813 0.2223509 0.2224055
 0.2223039 0.2221026 0.2218293 0.2214823 0.2210532 0.2205458 0.2199755 0.2193589 0.2187048 0.2180148
 0.2172944 0.2165641 0.2158532 0.2151752 0.2145177 0.2138638 0.213217 0.2125936 0.2119969 0.2114125
 0.2108282 0.210244 0.2096643 0.2090919 0.2085257 0.2079505 0.20733 0.2066207 0.2057988 0.204869
 0.203846 0.2027361 0.2015388 0.2002592 0.198908 0.1974877 0.1959895 0.1944067 0.1927471 0.1910221
 0.1892242 0.187328 0.1853298 0.1832849 0.1812913 0.1794284 0.1777178 0.1761368 0.1746514 0.173237
 0.1718828 0.1705861 0.1693437 0.1681556 0.1670321 0.165985 0.1650139 0.1641047 0.1632432 0.1624286
 0.1616806 0.1610274 0.1604816 0.1600321 0.159658 0.1593403 0.1590722 0.1588725 0.1587737 0.1587767
 0.1588307 0.15887 0.1588564 0.1587876 0.1586868 0.1585842 0.1584917 0.1583994 0.1582979 0.1581781
 0.1580003 0.1576844 0.1571386 0.1562928 0.1551178 0.1536341 0.1519073 0.1500481 0.1482081 0.1465368
 0.1451183 0.1439666 0.1430687 0.1423939 0.1418789 0.1414591 0.1411196 0.1408999 0.1408584 0.1410122
 0.1412755 0.1414902 0.141574 0.1416156 0.1417853 0.1421832 0.1427898 0.1435103 0.1442359 0.1448916
 0.1454372 0.1458396 0.1460862 0.1462136 0.1462686 0.1462508 0.1461366 0.145929 0.1456509 0.1453242
 0.144966 0.1445675 0.1440898 0.1435134 0.1428545 0.1421199 0.1413031 0.1404144 0.139443 0.1383392
 0.1371294 0.1360151 0.1352804 0.1351173 0.1355323 0.1363565 0.1373627 0.1384172 0.1394531 0.1402903
 0.1406846 0.1407018 0.1409008 0.1419319 0.14392 0.1463262 0.148428 0.1498471 0.1505871 0.1507427
 0.1503628 0.1494917 0.1481294 0.1462077 0.1437411 0.1408958 0.1378438 0.1347168 0.1317179 0.1290668
 0.1268475 0.1250415 0.1236253 0.1226413 0.1222316 0.1220341 0.1201578 0.1141723 0.1048609 0.09789471
 0.09905373 0.107723 0.1173311 0.1222941 0.1224523 0.1207707 0.1192983 0.118348 0.1178183 0.1178465
 0.1185419 0.1197484 0.1210929 0.122202 0.1229185 0.1232663 0.12319 0.1223288 0.1199509 0.1152034
 0.1078005 0.09862167 0.08941816 0.08179151 0.0764637 0.07330115 0.07168664 0.07088035 0.07036883 0.07009885
 0.07036957 0.07146218 0.07339896 0.07603168 0.07920314 0.08268379 0.0860523 0.08887175 0.09102079 0.09270144
 0.09409847 0.09516238 0.09573968 0.09578519 0.09539984 0.09474634 0.09397858 0.09319076 0.09235603 0.09134349
 0.09010396 0.08884944 0.08793095 0.0875043 0.08741905 0.08744247 0.08746257 0.08746301 0.08744159 0.08739987
 0.08735044 0.08733328 0.08743913 0.0877516 0.08823434 0.08872826 0.08907935 0.08924811 0.08930147 0.08928387
 0.08908445 0.08853623 0.08771835 0.08697742 0.08647205 0.08587869 0.0848124 0.08343111 0.08235146 0.08199324
 0.08221342 0.08256748 0.08272734 0.08262275 0.082392 0.08231874 0.08265371 0.08331236 0.0838384 0.08383775
</values></Ydata></ScRf><Data_Parameters_AB><parameter name="DPF">1</parameter><parameter name="NPT">3497</parameter><parameter name="FXV">3996</parameter><parameter name="LXV">500</parameter><parameter name="CSF">1</parameter><parameter name="MXY">0.113537788391113</parameter><parameter name="MNY">-0.078853040933609</parameter><parameter name="DAT">31/05/2022</parameter><parameter name="TIM">11:18:22.618 (GMT+2)</parameter><parameter name="DXU">WN</parameter></Data_Parameters_AB><AB__Qtest><MainReport name="Quality Test Report"><Header><Line><Legend>Test result ok/not ok [1/0]: </Legend><Value>0</Value></Line><Line><Legend>Method file: </Legend><Value>C:\Users\Public\Documents\Bruker\OPUS_8.2.28\QT\IRBT_v3_default.QT</Value></Line></Header><Matrix><Line><Legend></Legend><Legend>min</Legend><Legend>max</Legend><Legend>measured</Legend></Line><Line><Value>Absorption (X-Range 1):</Value><Value>0.400000</Value><Value>2.000000</Value><Value>0.164132</Value></Line><Line><Value>Noise (X-Range 4):</Value><Value></Value><Value>0.000300</Value><Value>0.000063</Value></Line><Line><Value>Signal/Noise (X-Range 2):</Value><Value>200.000000</Value><Value></Value><Value>67.832934</Value></Line><Line><Value>Signal/Noise (X-Range 3):</Value><Value>40.000000</Value><Value></Value><Value>24.195081</Value></Line><Line><Value>Water vapour (X-Range 5):</Value><Value></Value><Value>0.000300</Value><Value>0.000040</Value></Line><Line><Value>Signal/Water (X-Range 2):</Value><Value>100.000000</Value><Value></Value><Value>107.691328</Value></Line><Line><Value>Signal/Water (X-Range 3):</Value><Value>20.000000</Value><Value></Value><Value>38.412025</Value></Line><Line><Value>Fringes (X-Range 6):</Value><Value></Value><Value>0.000100</Value><Value>0.000070</Value></Line></Matrix></MainReport></AB__Qtest><Data_Parameters_ScSm><parameter name="DPF">1</parameter><parameter name="NPT">1814</parameter><parameter name="FXV">3996.33169228125</parameter><parameter name="LXV">499.541461535156</parameter><parameter name="CSF">1</parameter><parameter name="MXY">0.281347393989563</parameter><parameter name="MNY">0.0357506014406681</parameter><parameter name="DAT">31/05/2022</parameter><parameter name="TIM">11:18:22.618 (GMT+2)</parameter><parameter name="DXU">WN</parameter></Data_Parameters_ScSm><Data_Parameters_ScRf><parameter name="DPF">1</parameter><parameter name="NPT">1820</parameter><parameter name="FXV">4004.04661832813</parameter><parameter name="LXV">495.683998511719</parameter><parameter name="CSF">1</parameter><parameter name="MXY">0.265018135309219</parameter><parameter name="MNY">0.030167929828167</parameter><parameter name="DAT">31/05/2022</parameter><parameter name="TIM">11:17:56.766 (GMT+2)</parameter><parameter name="DXU">WN</parameter></Data_Parameters_ScRf><Optic_Parameters_Rf><parameter name="APR">0</parameter><parameter name="APT">Open</parameter><parameter name="BMS">KBr</parameter><parameter name="DTC">RT-DLaTGS_IR-Biotyper [Microplate reader]</parameter><parameter name="HPF">0</parameter><parameter name="LPF">10.0</parameter><parameter name="LPV">4000</parameter><parameter name="PGR">0</parameter><parameter name="RCH">Module port</parameter><parameter name="RDX">0</parameter><parameter name="SRC">MIR</parameter><parameter name="VEL">10.0</parameter><parameter name="SON">Off</parameter></Optic_Parameters_Rf><Acquisition_Parameters_Rf><parameter name="ADT">1</parameter><parameter name="AQM">DD</parameter><parameter name="CFE">0</parameter><parameter name="COR">0</parameter><parameter name="DEL">0</parameter><parameter name="DLY">0</parameter><parameter name="HFW">8000</parameter><parameter name="LFW">0</parameter><parameter name="NSR">32</parameter><parameter name="PLF">AB</parameter><parameter name="RES">6</parameter><parameter name="RGN">-1</parameter><parameter name="STR">0</parameter><parameter name="TCL">MakeCompatibleScalar (0, {WSV=1.000000, ARV=0});</parameter><parameter name="TDL">37</parameter><parameter name="RPO">0</parameter></Acquisition_Parameters_Rf><FT_-_Parameters_Rf><parameter name="APF">B3</parameter><parameter name="HFQ">500</parameter><parameter name="LFQ">4000</parameter><parameter name="NLI">0</parameter><parameter name="PHR">24</parameter><parameter name="PHZ">ML</parameter><parameter name="SPZ">NO</parameter><parameter name="ZFF">1</parameter></FT_-_Parameters_Rf><Optic_Parameters_><parameter name="APR">0</parameter><parameter name="APT">Open</parameter><parameter name="BMS">KBr</parameter><parameter name="CHN">Module port</parameter><parameter name="DTC">RT-DLaTGS_IR-Biotyper [Microplate reader]</parameter><parameter name="HPF">0</parameter><parameter name="LPF">10.0</parameter><parameter name="LPV">4000</parameter><parameter name="PGN">0</parameter><parameter name="RDX">0</parameter><parameter name="SRC">MIR</parameter><parameter name="VEL">10.0</parameter><parameter name="SON">Off</parameter></Optic_Parameters_><FT_-_Parameters_><parameter name="APF">B3</parameter><parameter name="HFQ">500</parameter><parameter name="LFQ">4000</parameter><parameter name="NLI">0</parameter><parameter name="PHR">24</parameter><parameter name="PHZ">ML</parameter><parameter name="SPZ">NO</parameter><parameter name="ZFF">1</parameter></FT_-_Parameters_><Acquisition_Parameters_><parameter name="ADT">1</parameter><parameter name="AQM">DD</parameter><parameter name="CFE">0</parameter><parameter name="COR">0</parameter><parameter name="DEL">0</parameter><parameter name="DLY">0</parameter><parameter name="HFW">8000</parameter><parameter name="LFW">0</parameter><parameter name="NSS">32</parameter><parameter name="PLF">AB</parameter><parameter name="RES">6</parameter><parameter name="SOT">0</parameter><parameter name="TCL">MakeCompatibleScalar (0, {WSV=1.000000, ARV=0});</parameter><parameter name="TDL">37</parameter><parameter name="SPO">0</parameter><parameter name="SGN">-1</parameter></Acquisition_Parameters_><Instrument_Parameters_Rf><parameter name="HFL">15800.168544</parameter><parameter name="LFL">0</parameter><parameter name="LWN">15800.168544</parameter><parameter name="ABP">32197</parameter><parameter name="SSP">1</parameter><parameter name="ARG">2</parameter><parameter name="ASG">2</parameter><parameter name="ASS">32</parameter><parameter name="GFW">16</parameter><parameter name="GBW">16</parameter><parameter name="BFW">0</parameter><parameter name="BBW">0</parameter><parameter name="PKA">7268</parameter><parameter name="PKL">4996</parameter><parameter name="PRA">7449</parameter><parameter name="PRL">5001</parameter><parameter name="P2A">1</parameter><parameter name="P2L">1</parameter><parameter name="P2R">1</parameter><parameter name="P2K">1</parameter><parameter name="DAQ">0</parameter><parameter name="AG2">1</parameter><parameter name="SSM">1</parameter><parameter name="RSN">25435</parameter><parameter name="CRR">0</parameter><parameter name="SRT">1653995876.766</parameter><parameter name="DUR">19.6379852294922</parameter><parameter name="TSC">28.9</parameter><parameter name="MVD">0.302059710025787</parameter><parameter name="AN1">0.225780991339375</parameter><parameter name="AN2">0</parameter><parameter name="VSN">2.485 Apr  4 2017</parameter><parameter name="SRN">0085</parameter><parameter name="CAM">0</parameter><parameter name="INS">IR-Biotyper</parameter><parameter name="FOC">69</parameter><parameter name="RDY">1</parameter><parameter name="ARS">32</parameter></Instrument_Parameters_Rf><Sample_Parameters_><parameter name="BLD"></parameter><parameter name="CNM">Admin</parameter><parameter name="CPY"></parameter><parameter name="DPM"></parameter><parameter name="EXP">IRBT_v3_32Scans.XPM</parameter><parameter name="LCT"></parameter><parameter name="SFM">Microplate, HTS-XT</parameter><parameter name="SNM">220531-1021(v.3)_CLA33F (D_15)_C6_76825caf-1948-43a7-96f9-e37b355c4c8f.0</parameter><parameter name="XPP">C:\Users\Public\Documents\Bruker\OPUS_8.2.28\XPM</parameter><parameter name="IST">OK</parameter><parameter name="CPG">1252</parameter><parameter name="UID">c3f2ebf4-63c4-4121-a632-44c787dc3ba8</parameter></Sample_Parameters_><Instrument_Parameters_><parameter name="HFL">15800.168544</parameter><parameter name="LFL">0</parameter><parameter name="LWN">15800.168544</parameter><parameter name="ABP">32197</parameter><parameter name="SSP">1</parameter><parameter name="ASG">2</parameter><parameter name="ARG">2</parameter><parameter name="ASS">32</parameter><parameter name="GFW">16</parameter><parameter name="GBW">16</parameter><parameter name="BFW">0</parameter><parameter name="BBW">0</parameter><parameter name="PKA">7683</parameter><parameter name="PKL">4988</parameter><parameter name="PRA">7983</parameter><parameter name="PRL">4993</parameter><parameter name="P2A">1</parameter><parameter name="P2L">1</parameter><parameter name="P2R">1</parameter><parameter name="P2K">1</parameter><parameter name="DAQ">0</parameter><parameter name="AG2">1</parameter><parameter name="SSM">1</parameter><parameter name="RSN">13343</parameter><parameter name="CRR">0</parameter><parameter name="SRT">1653995902.618</parameter><parameter name="DUR">19.6379852294922</parameter><parameter name="TSC">28.9</parameter><parameter name="MVD">0.325370758771896</parameter><parameter name="AN1">0.225779203503199</parameter><parameter name="AN2">0</parameter><parameter name="VSN">2.485 Apr  4 2017</parameter><parameter name="SRN">0085</parameter><parameter name="CAM">0</parameter><parameter name="INS">IR-Biotyper</parameter><parameter name="FOC">69</parameter><parameter name="RDY">1</parameter></Instrument_Parameters_><History/></OPUSDataFile>
