<?xml version="1.0" encoding="UTF-8" ?>
<OPUSDataFile><AB><Ydata ylabel="Absorbance Units"><values byteorder="INTEL" format="FLOAT32" numvalues="3497"> -0.07142854 -0.07146957 -0.07148431 -0.07147308 -0.0714299 -0.0713545 -0.07125945 -0.07114651 -0.07104059 -0.07094383
 -0.0708825 -0.0708549 -0.07087222 -0.07092464 -0.07099692 -0.0710761 -0.07113273 -0.07116495 -0.0711555 -0.07111872
 -0.07105841 -0.07099226 -0.07093148 -0.07088354 -0.07085451 -0.07084276 -0.07084952 -0.07086935 -0.07090247 -0.07093751
 -0.07097381 -0.07099655 -0.0710049 -0.07099406 -0.07096505 -0.07092982 -0.07088995 -0.07086173 -0.07084394 -0.07084135
 -0.0708507 -0.07086608 -0.07088678 -0.07090801 -0.07093291 -0.07096391 -0.0710014 -0.071049 -0.07109789 -0.07114595
 -0.07118029 -0.07119447 -0.07118625 -0.07115182 -0.07110363 -0.07104265 -0.07098226 -0.07092429 -0.07087041 -0.07082081
 -0.07077302 -0.07072757 -0.07069082 -0.07066395 -0.07065865 -0.07067294 -0.0707071 -0.07075584 -0.07080626 -0.07085585
 -0.0708933 -0.07092214 -0.07094199 -0.07095654 -0.07097013 -0.07097971 -0.07098568 -0.07098167 -0.07096402 -0.07093478
 -0.07089186 -0.07084864 -0.0708062 -0.07078004 -0.07077195 -0.07078992 -0.07083451 -0.07090209 -0.07099143 -0.07108568
 -0.07118183 -0.0712527 -0.07129666 -0.0712904 -0.07124061 -0.07114921 -0.07102904 -0.0709026 -0.07077771 -0.07067331
 -0.07058855 -0.07052996 -0.07049092 -0.07046986 -0.07046021 -0.07045823 -0.07046432 -0.07047725 -0.07050215 -0.07054069
 -0.07058924 -0.07064865 -0.07070069 -0.07074436 -0.07076291 -0.070757 -0.07073221 -0.07069169 -0.0706584 -0.07063331
 -0.07063383 -0.07065536 -0.07069682 -0.07075036 -0.070802 -0.07084758 -0.07087608 -0.07088828 -0.07088192 -0.0708563
 -0.07080901 -0.07074516 -0.07066177 -0.07058246 -0.07051067 -0.07047456 -0.07048103 -0.07053532 -0.07064131 -0.07076531
 -0.07090592 -0.07099034 -0.07101751 -0.0709544 -0.07081301 -0.0706566 -0.07049119 -0.07037458 -0.07029991 -0.07027915
 -0.07030371 -0.07036739 -0.07045579 -0.0705535 -0.0706384 -0.07068609 -0.07068793 -0.07062435 -0.07052505 -0.07039334
 -0.07026957 -0.07016885 -0.07009352 -0.07004872 -0.07001113 -0.06997808 -0.06994288 -0.06990479 -0.069881 -0.06987207
 -0.06989049 -0.06993346 -0.0699895 -0.070054 -0.07010262 -0.07013457 -0.07013468 -0.07010664 -0.07004885 -0.06996798
 -0.06986921 -0.06976398 -0.06966225 -0.06957523 -0.06951244 -0.06947792 -0.06947626 -0.06950437 -0.0695635 -0.06964415
 -0.06974687 -0.06985047 -0.06995413 -0.07002515 -0.07006139 -0.07004318 -0.06997167 -0.06986425 -0.06972484 -0.06958857
 -0.06945571 -0.06934622 -0.06925704 -0.06919046 -0.06914371 -0.06911341 -0.06909665 -0.0690897 -0.06908748 -0.06908512
 -0.06907747 -0.06905996 -0.06903102 -0.06898776 -0.06893545 -0.06887309 -0.06881498 -0.06876242 -0.06873324 -0.06872995
 -0.06875845 -0.0688195 -0.06889915 -0.06899571 -0.06907936 -0.06914824 -0.06917307 -0.06915753 -0.06909744 -0.0690036
 -0.06890102 -0.06879837 -0.06872405 -0.0686768 -0.0686683 -0.06868885 -0.06873386 -0.06879652 -0.06887007 -0.06895685
 -0.06905743 -0.06916986 -0.0692974 -0.06941846 -0.0695311 -0.06960966 -0.06965037 -0.06964722 -0.06959956 -0.06950672
 -0.06936929 -0.06919422 -0.06898709 -0.06878971 -0.06860788 -0.06849054 -0.06843156 -0.06844527 -0.06851059 -0.0686005
 -0.06868864 -0.06872543 -0.06871442 -0.06863384 -0.06851969 -0.06838756 -0.06826241 -0.06816041 -0.06808338 -0.06803685
 -0.06800769 -0.06799567 -0.06798091 -0.06796083 -0.06792589 -0.06787494 -0.06782159 -0.06776704 -0.06773508 -0.06772486
 -0.06774458 -0.06778678 -0.06782716 -0.06785669 -0.06783351 -0.06776783 -0.06765381 -0.06751686 -0.06739121 -0.06728049
 -0.06720552 -0.06714385 -0.06708845 -0.06701938 -0.06692162 -0.0668066 -0.06667063 -0.06654666 -0.06644144 -0.06636873
 -0.06633336 -0.06631234 -0.06630497 -0.06626931 -0.06620445 -0.06609214 -0.06593834 -0.06577811 -0.06561655 -0.06549615
 -0.06541086 -0.0653659 -0.06535445 -0.0653659 -0.06539789 -0.06544527 -0.06550118 -0.06556135 -0.06560977 -0.06563678
 -0.06562803 -0.06557415 -0.0654728 -0.06532047 -0.06512304 -0.06487906 -0.06460708 -0.06430786 -0.06400871 -0.06371159
 -0.06343098 -0.0631671 -0.06292079 -0.06269254 -0.06248666 -0.06230409 -0.06215272 -0.0620296 -0.06193198 -0.06185403
 -0.06178337 -0.06171741 -0.06164914 -0.06157385 -0.0614885 -0.06137866 -0.06123329 -0.0610485 -0.06081406 -0.06055602
 -0.06027871 -0.06000724 -0.05974838 -0.05950722 -0.0592859 -0.05907701 -0.0588803 -0.05868484 -0.05849051 -0.0582963
 -0.05810387 -0.05792709 -0.0577646 -0.05762244 -0.05748903 -0.05733587 -0.05715379 -0.05690338 -0.05660596 -0.05626982
 -0.0559243 -0.05560287 -0.05530976 -0.05505952 -0.05484075 -0.05465287 -0.0544825 -0.05432651 -0.05417221 -0.05401725
 -0.05385061 -0.05367091 -0.05346973 -0.05324632 -0.05299827 -0.05272591 -0.05243774 -0.05213499 -0.05183169 -0.05152737
 -0.05122751 -0.05093066 -0.05063448 -0.05034078 -0.05005182 -0.04976961 -0.04949983 -0.04923727 -0.04898015 -0.04872097
 -0.04845283 -0.0481776 -0.04789464 -0.04760592 -0.04731435 -0.04700802 -0.0466846 -0.04633782 -0.04596378 -0.04559119
 -0.04522138 -0.04489146 -0.04460197 -0.04435493 -0.04414712 -0.04395374 -0.04377298 -0.04358298 -0.04338629 -0.04317813
 -0.04296332 -0.04274952 -0.04253814 -0.04233671 -0.04213755 -0.04193946 -0.04172556 -0.04148496 -0.04120634 -0.04087719
 -0.04051373 -0.04011415 -0.03971347 -0.03931813 -0.03895234 -0.03862125 -0.0383239 -0.0380612 -0.03781091 -0.03757183
 -0.03732045 -0.03705751 -0.03677829 -0.03648537 -0.03618845 -0.03588762 -0.03558837 -0.03528895 -0.03498739 -0.03468528
 -0.03438343 -0.03408492 -0.03379418 -0.03350911 -0.03323052 -0.03295329 -0.03267401 -0.03239495 -0.03211442 -0.03184345
 -0.03158406 -0.03134352 -0.03112434 -0.03091652 -0.03071998 -0.0305128 -0.03029419 -0.03005215 -0.02978868 -0.02951501
 -0.02923357 -0.02896311 -0.02870054 -0.02844843 -0.02819891 -0.02793674 -0.02765946 -0.0273535 -0.02703062 -0.02669378
 -0.0263636 -0.02605522 -0.02577831 -0.02554536 -0.02534055 -0.02516473 -0.02498865 -0.02480606 -0.02460099 -0.0243693
 -0.02411678 -0.02384323 -0.02356329 -0.02327769 -0.02299935 -0.02272879 -0.02247644 -0.02224199 -0.02203061 -0.02183945
 -0.02166417 -0.02149961 -0.02133347 -0.02116267 -0.02097628 -0.02077828 -0.02056746 -0.02035153 -0.02013658 -0.01992266
 -0.01971263 -0.0194993 -0.0192794 -0.01905596 -0.01882702 -0.01860976 -0.01840695 -0.01822331 -0.01806038 -0.01789385
 -0.01772236 -0.0175168 -0.01727877 -0.01700816 -0.01671119 -0.01641642 -0.0161286 -0.0158781 -0.01566203 -0.01549183
 -0.01535567 -0.01524327 -0.01514138 -0.01503166 -0.01491264 -0.01477543 -0.01463094 -0.01448244 -0.0143367 -0.01419817
 -0.01406173 -0.0139271 -0.01378934 -0.01364718 -0.01350372 -0.01335915 -0.01321571 -0.01307332 -0.01292673 -0.01277545
 -0.01261276 -0.01243893 -0.01225113 -0.01205101 -0.01184097 -0.01162478 -0.01141038 -0.01120255 -0.01101194 -0.01083938
 -0.01069085 -0.01056119 -0.01044926 -0.01034881 -0.01025607 -0.01016976 -0.01008847 -0.01001371 -0.0099462 -0.009883289
 -0.009825346 -0.00976406 -0.009698882 -0.009622335 -0.009534156 -0.009432355 -0.009317313 -0.009191167 -0.009055034 -0.008914324
 -0.008771881 -0.008638964 -0.008517799 -0.008420412 -0.008341889 -0.008283091 -0.008231114 -0.008173632 -0.008101479 -0.008001328
 -0.007881271 -0.007737928 -0.007594988 -0.007458818 -0.00734815 -0.007270998 -0.00721878 -0.007193796 -0.0071634 -0.007125007
 -0.007057983 -0.006962177 -0.006858327 -0.006749688 -0.006677459 -0.006639343 -0.006648746 -0.006694939 -0.00675231 -0.006812315
 -0.006842399 -0.006846284 -0.006813514 -0.006755764 -0.006680849 -0.006597876 -0.006516663 -0.006437647 -0.006364595 -0.00629135
 -0.006216631 -0.006135909 -0.006046787 -0.005954286 -0.005857772 -0.005770974 -0.0056948 -0.005642232 -0.005613796 -0.005613834
 -0.005641582 -0.005691949 -0.005763245 -0.005845239 -0.005935501 -0.006022218 -0.00610171 -0.006160865 -0.006197033 -0.006198603
 -0.006171299 -0.006112644 -0.006040946 -0.005966668 -0.005907657 -0.005878316 -0.005874934 -0.005903567 -0.005937453 -0.005972409
 -0.005985033 -0.005969231 -0.005932235 -0.005872827 -0.005826002 -0.005793431 -0.005803948 -0.005855571 -0.005941403 -0.006054882
 -0.00615879 -0.006250234 -0.00629783 -0.006309229 -0.006283678 -0.006233651 -0.006177982 -0.006122594 -0.006082143 -0.006052925
 -0.006037133 -0.006029115 -0.006025908 -0.006026725 -0.006030026 -0.006039392 -0.006056093 -0.006078616 -0.006108471 -0.006130027
 -0.006142636 -0.006123617 -0.00607204 -0.005980942 -0.005852809 -0.005709439 -0.005555309 -0.005425382 -0.005320326 -0.005262471
 -0.005245645 -0.005269343 -0.005322882 -0.005391186 -0.005464113 -0.005524848 -0.005570673 -0.005591978 -0.005598217 -0.005589259
 -0.005582329 -0.005582893 -0.005603421 -0.00564901 -0.005717765 -0.005811057 -0.00591714 -0.006035201 -0.006155585 -0.006277838
 -0.006399 -0.006518752 -0.006633375 -0.006741336 -0.006832697 -0.006906075 -0.006950809 -0.006968776 -0.006956412 -0.006922313
 -0.0068746 -0.006829237 -0.006804507 -0.006815094 -0.006880313 -0.006996393 -0.007171526 -0.007379076 -0.007613976 -0.007846687
 -0.008069014 -0.008267377 -0.008438225 -0.008579566 -0.00869074 -0.00877386 -0.008829185 -0.008870794 -0.008900459 -0.008943436
 -0.008999089 -0.009079007 -0.009177551 -0.009281432 -0.009388263 -0.009483546 -0.009574629 -0.009666134 -0.009765477 -0.009885526
 -0.0100201 -0.01017188 -0.01032367 -0.01046799 -0.01059144 -0.01068616 -0.01075299 -0.01078831 -0.01080941 -0.01081671
 -0.01083723 -0.01087332 -0.0109453 -0.01105406 -0.01119615 -0.01136936 -0.01154857 -0.01173142 -0.01189122 -0.01202965
 -0.01213693 -0.01221874 -0.01228277 -0.01233365 -0.01238275 -0.01242951 -0.01247789 -0.01252517 -0.01256927 -0.01261252
 -0.01265429 -0.01270162 -0.01275731 -0.01282363 -0.01290224 -0.01298954 -0.01308456 -0.01318983 -0.01330483 -0.01344347
 -0.01360646 -0.01380489 -0.01403763 -0.01429625 -0.01457707 -0.01485564 -0.0151294 -0.01537603 -0.0155971 -0.01578427
 -0.01594262 -0.0160757 -0.01618973 -0.01629192 -0.01638864 -0.01648603 -0.01659038 -0.01670608 -0.01683787 -0.01698899
 -0.01715861 -0.01734843 -0.01754926 -0.01776083 -0.01796892 -0.01817218 -0.018361 -0.01853487 -0.01869526 -0.01884276
 -0.01898522 -0.01912243 -0.01925738 -0.01938887 -0.01951369 -0.01963256 -0.01974449 -0.01985315 -0.01996391 -0.02007953
 -0.02020636 -0.02034162 -0.02048713 -0.02063343 -0.02077776 -0.02090705 -0.02101552 -0.0210977 -0.02114804 -0.02118316
 -0.02120212 -0.02124069 -0.02130208 -0.02141212 -0.02157219 -0.02177225 -0.0220094 -0.02224559 -0.0224781 -0.02267063
 -0.02282568 -0.02293 -0.02299309 -0.02302755 -0.02304772 -0.023082 -0.02313916 -0.02324393 -0.023386 -0.02356992
 -0.02376979 -0.02397263 -0.02416326 -0.02433011 -0.02448191 -0.02461873 -0.02474949 -0.02487823 -0.02498848 -0.02507986
 -0.02512585 -0.02512506 -0.02507905 -0.02499097 -0.02490036 -0.02481169 -0.02477252 -0.02478093 -0.02485855 -0.02499393
 -0.02517353 -0.02538195 -0.02558731 -0.02578364 -0.0259482 -0.02609266 -0.026217 -0.02633803 -0.0264675 -0.026605
 -0.02675588 -0.0269035 -0.02704406 -0.02716951 -0.0272766 -0.02737379 -0.02746182 -0.02754401 -0.02762059 -0.02767914
 -0.02771949 -0.02773473 -0.02772805 -0.02771474 -0.02769807 -0.02769951 -0.02771587 -0.02775168 -0.02779935 -0.02784758
 -0.02789364 -0.02792713 -0.02795686 -0.02798337 -0.0280242 -0.0280885 -0.0281892 -0.02833623 -0.02852178 -0.02874999
 -0.02898866 -0.02923499 -0.02945155 -0.02963362 -0.02976791 -0.0298534 -0.02991336 -0.02995032 -0.03000475 -0.03007668
 -0.03018914 -0.0303353 -0.03050423 -0.0306867 -0.03085434 -0.03100437 -0.03111759 -0.03120042 -0.03125113 -0.03128131
 -0.03129829 -0.03131441 -0.03133848 -0.03137686 -0.03143627 -0.03150814 -0.03159339 -0.03167379 -0.03174545 -0.03180393
 -0.03184689 -0.03189511 -0.03194965 -0.03203361 -0.03214636 -0.03228425 -0.03244375 -0.0326003 -0.03275381 -0.03288917
 -0.03301245 -0.03313123 -0.03324959 -0.03338057 -0.03351783 -0.03366143 -0.03379807 -0.03391687 -0.0340098 -0.03406737
 -0.03409448 -0.03408916 -0.03406416 -0.03402218 -0.03397301 -0.03391904 -0.0338624 -0.03380335 -0.03374408 -0.03368463
 -0.03363905 -0.03360873 -0.03361769 -0.03366566 -0.03376589 -0.03391166 -0.03408758 -0.03428275 -0.03446232 -0.03462136
 -0.03473331 -0.03480527 -0.03483357 -0.03483094 -0.03480668 -0.03476901 -0.03472545 -0.03467792 -0.03462854 -0.03457841
 -0.03452787 -0.0344791 -0.03443275 -0.03438842 -0.03434656 -0.034301 -0.03425145 -0.03418647 -0.03410546 -0.03399687
 -0.03386113 -0.03369436 -0.03349904 -0.03328194 -0.03304612 -0.03280247 -0.03255253 -0.03230376 -0.03205642 -0.03181341
 -0.03157525 -0.03134362 -0.03111752 -0.03089767 -0.0306799 -0.03046267 -0.03024345 -0.03001974 -0.02979886 -0.02958053
 -0.02937958 -0.02919771 -0.02904312 -0.02891657 -0.02880845 -0.02871766 -0.02862495 -0.0285305 -0.02842523 -0.02831214
 -0.02819875 -0.02808561 -0.02798035 -0.02787578 -0.0277638 -0.02763609 -0.02747705 -0.02728949 -0.02706834 -0.02682507
 -0.02656582 -0.02629501 -0.02601708 -0.02572749 -0.02542448 -0.02511164 -0.02478736 -0.02446954 -0.02415953 -0.02387438
 -0.02361524 -0.02339044 -0.02320084 -0.02305954 -0.02296898 -0.02295268 -0.02301116 -0.02316147 -0.02339684 -0.02371135
 -0.02409226 -0.02451578 -0.02497051 -0.02543227 -0.02589842 -0.02635657 -0.02681513 -0.02727428 -0.0277464 -0.02823796
 -0.02875014 -0.0292876 -0.02983244 -0.03038394 -0.03091602 -0.03142558 -0.03189816 -0.0323325 -0.03273323 -0.03310096
 -0.03344717 -0.03377138 -0.03407609 -0.03435935 -0.03461358 -0.03483988 -0.03503488 -0.03520636 -0.0353656 -0.03552109
 -0.03569015 -0.03587015 -0.03606823 -0.03626832 -0.03646373 -0.03664014 -0.03678816 -0.03690945 -0.03700118 -0.03707505
 -0.03713331 -0.03718011 -0.03721713 -0.03723434 -0.03723131 -0.03719401 -0.03712249 -0.03701615 -0.03687863 -0.03673333
 -0.03658634 -0.03647563 -0.03640188 -0.03638991 -0.03642796 -0.03650972 -0.03661573 -0.03671937 -0.03680779 -0.03685867
 -0.03687442 -0.03684779 -0.0367931 -0.0367128 -0.03662468 -0.03653301 -0.03645429 -0.03639141 -0.03635882 -0.03635785
 -0.03640379 -0.03649757 -0.03665653 -0.03688135 -0.0371851 -0.03756614 -0.03802188 -0.03854568 -0.03911253 -0.03971069
 -0.04029805 -0.04086431 -0.04136902 -0.04181524 -0.04218587 -0.04250144 -0.0427718 -0.04302 -0.04326485 -0.04351106
 -0.04376834 -0.04402098 -0.04426731 -0.04449037 -0.04468555 -0.04485128 -0.04498583 -0.04510177 -0.04519967 -0.04529494
 -0.04538797 -0.04548556 -0.04558666 -0.04568714 -0.04578574 -0.04587486 -0.04595501 -0.04602329 -0.04608162 -0.04613223
 -0.04617652 -0.04621667 -0.04625492 -0.04629309 -0.04633557 -0.04638547 -0.04644567 -0.04651982 -0.0466018 -0.04669274
 -0.04677621 -0.04684966 -0.04689945 -0.04692254 -0.04692448 -0.04690503 -0.04688759 -0.04687312 -0.04687965 -0.04690539
 -0.04694587 -0.0469982 -0.04704673 -0.0470931 -0.04713263 -0.04717078 -0.04721636 -0.04727105 -0.04734229 -0.04742499
 -0.04751828 -0.04761414 -0.04770775 -0.04779281 -0.0478655 -0.04792285 -0.04796223 -0.04798806 -0.04799952 -0.04800918
 -0.04801817 -0.04803831 -0.04807069 -0.04811484 -0.04817032 -0.04822641 -0.04828247 -0.04832854 -0.04836521 -0.04838946
 -0.04840247 -0.04840538 -0.04840018 -0.0483903 -0.04837935 -0.04837356 -0.04837473 -0.04838862 -0.04840907 -0.04843565
 -0.04845697 -0.04846713 -0.04846299 -0.04844001 -0.04841055 -0.04837508 -0.04835122 -0.0483416 -0.04835248 -0.0483848
 -0.04843003 -0.04848748 -0.04854304 -0.04859649 -0.04863937 -0.04867304 -0.04869844 -0.04871763 -0.04873718 -0.0487574
 -0.04878309 -0.04881056 -0.04883757 -0.04885922 -0.04886911 -0.048868 -0.04885234 -0.04883168 -0.04880824 -0.04879348
 -0.04879184 -0.04880682 -0.04884084 -0.04888767 -0.04894731 -0.04900999 -0.04907507 -0.0491345 -0.04918795 -0.04923069
 -0.04926301 -0.04928462 -0.04929675 -0.04930426 -0.04930858 -0.04931648 -0.04932786 -0.04934638 -0.04936947 -0.04939559
 -0.04942141 -0.04944294 -0.04945949 -0.04946833 -0.04947392 -0.04947682 -0.04948354 -0.04949665 -0.04951743 -0.04954737
 -0.04958084 -0.04961735 -0.04965257 -0.04968604 -0.04971973 -0.04975369 -0.04978909 -0.04982506 -0.04985492 -0.04987776
 -0.04988483 -0.04987843 -0.04985959 -0.04983309 -0.0498089 -0.04978937 -0.04978281 -0.04978666 -0.04980191 -0.04982449
 -0.04985175 -0.04988221 -0.04991439 -0.04994867 -0.04998505 -0.05002321 -0.05006341 -0.05010311 -0.05014231 -0.05017656
 -0.05020563 -0.05022419 -0.05023216 -0.05022874 -0.05021481 -0.05019706 -0.05017675 -0.05016369 -0.05015735 -0.0501618
 -0.05017464 -0.05019273 -0.05021529 -0.05023935 -0.05026665 -0.05029866 -0.0503341 -0.05037436 -0.05041183 -0.05044373
 -0.05046373 -0.0504676 -0.05046074 -0.05044211 -0.05042636 -0.05041524 -0.05041878 -0.05043817 -0.05047109 -0.05051718
 -0.05056628 -0.05061776 -0.05066181 -0.05069861 -0.05072331 -0.05073743 -0.05074232 -0.05074057 -0.05073809 -0.05073609
 -0.05073956 -0.05074624 -0.05075616 -0.05076568 -0.05077173 -0.05077446 -0.05077226 -0.05076985 -0.05076845 -0.05077095
 -0.05077889 -0.05078875 -0.05080058 -0.0508084 -0.05081162 -0.05080973 -0.05080288 -0.05079683 -0.05079187 -0.05079351
 -0.05080086 -0.05081295 -0.05082826 -0.05084143 -0.05085236 -0.05085764 -0.05085953 -0.0508596 -0.0508603 -0.0508652
 -0.05087357 -0.05088689 -0.05090075 -0.05091379 -0.05092163 -0.05092197 -0.05091573 -0.05090195 -0.05088694 -0.05087113
 -0.05086158 -0.05085893 -0.05086614 -0.05088322 -0.05090822 -0.05094054 -0.05097431 -0.0510085 -0.051035 -0.05105355
 -0.05105831 -0.05105158 -0.05103429 -0.05101103 -0.0509888 -0.0509703 -0.05096185 -0.05096061 -0.0509675 -0.05097637
 -0.05098446 -0.05098823 -0.05098523 -0.0509776 -0.05096516 -0.05095142 -0.05093691 -0.05092304 -0.05090998 -0.05089757
 -0.05088584 -0.0508763 -0.05086901 -0.05086565 -0.05086577 -0.05086853 -0.0508729 -0.05087519 -0.05087522 -0.05087028
 -0.05086232 -0.05085269 -0.05084396 -0.05083967 -0.05083977 -0.05084628 -0.0508551 -0.05086554 -0.05087156 -0.05087101
 -0.05086056 -0.05083858 -0.05080692 -0.05076513 -0.05071981 -0.05067132 -0.0506271 -0.05058745 -0.05055562 -0.05053131
 -0.0505126 -0.05049932 -0.05048923 -0.05048305 -0.0504821 -0.05048652 -0.0504979 -0.05051436 -0.05053405 -0.05055486
 -0.05057333 -0.05059052 -0.05060566 -0.05062158 -0.05063995 -0.0506605 -0.05068415 -0.05070704 -0.0507285 -0.05074561
 -0.05075774 -0.05076472 -0.05076648 -0.05076304 -0.05075439 -0.05073969 -0.05071923 -0.05069523 -0.05066858 -0.05064516
 -0.05062492 -0.05061158 -0.05060272 -0.05059513 -0.05058656 -0.05057127 -0.05055126 -0.05052545 -0.05049912 -0.05047576
 -0.05045843 -0.05045019 -0.05044944 -0.05045686 -0.05046806 -0.05048262 -0.05049492 -0.05050429 -0.05050524 -0.05049714
 -0.0504789 -0.0504506 -0.0504187 -0.0503838 -0.05035467 -0.05033097 -0.05031612 -0.05030849 -0.05030488 -0.05030388
 -0.05030071 -0.05029542 -0.05028569 -0.05027311 -0.05025828 -0.05024301 -0.05022882 -0.05021664 -0.05020738 -0.05020094
 -0.05019745 -0.05019683 -0.05019917 -0.05020377 -0.05021068 -0.05021824 -0.05022639 -0.05023269 -0.050237 -0.05023728
 -0.05023355 -0.05022505 -0.05021227 -0.05019736 -0.05018092 -0.05016639 -0.0501531 -0.05014173 -0.05013009 -0.0501149
 -0.0500955 -0.05006899 -0.05003854 -0.05000508 -0.04997263 -0.04994372 -0.04991943 -0.04990096 -0.049887 -0.04987741
 -0.04987134 -0.04986876 -0.04986817 -0.04986966 -0.04986826 -0.04986368 -0.04984965 -0.04982642 -0.04979394 -0.0497539
 -0.04971523 -0.04967926 -0.04965585 -0.04964296 -0.0496418 -0.0496478 -0.04965426 -0.04965892 -0.04965622 -0.0496477
 -0.04963288 -0.04961322 -0.04958977 -0.04956178 -0.04952882 -0.04949195 -0.04945059 -0.04941004 -0.04937071 -0.04933903
 -0.04931571 -0.04930314 -0.04930146 -0.04930918 -0.04932612 -0.04934958 -0.04937942 -0.0494138 -0.04945236 -0.04949293
 -0.0495352 -0.04957672 -0.04961922 -0.0496626 -0.04971343 -0.04977692 -0.04986304 -0.04998071 -0.05013569 -0.05033517
 -0.05057332 -0.05085203 -0.05115476 -0.0514792 -0.05180713 -0.05213564 -0.0524527 -0.05275672 -0.05304597 -0.05332028
 -0.053578 -0.05381681 -0.05401215 -0.05415826 -0.05420869 -0.05416457 -0.05400034 -0.05373116 -0.05337314 -0.05295193
 -0.05251063 -0.05207565 -0.05169242 -0.05137151 -0.05113704 -0.05098244 -0.05091202 -0.05091192 -0.05098113 -0.05109684
 -0.05125775 -0.05142418 -0.05159149 -0.05172022 -0.05180512 -0.05184372 -0.05183586 -0.05180092 -0.05173941 -0.05166208
 -0.05156937 -0.05146905 -0.051362 -0.05125617 -0.05115031 -0.0510453 -0.05094028 -0.05083364 -0.05072688 -0.05062225
 -0.05051718 -0.0504122 -0.05029902 -0.05017254 -0.05003118 -0.04987074 -0.04970333 -0.04953001 -0.04936612 -0.04921463
 -0.04908104 -0.04896668 -0.04886528 -0.04877651 -0.04868811 -0.04859991 -0.04850532 -0.04840605 -0.04830814 -0.04821366
 -0.04813391 -0.04806751 -0.04801787 -0.04798052 -0.04794988 -0.04792272 -0.04789295 -0.04786038 -0.04782308 -0.04778123
 -0.04773447 -0.04768301 -0.04762619 -0.04756727 -0.04750644 -0.04744904 -0.04739604 -0.04734976 -0.04731066 -0.04727735
 -0.04724976 -0.04722646 -0.04720746 -0.04719271 -0.0471819 -0.04717359 -0.04716687 -0.04715779 -0.04714582 -0.04712739
 -0.04710355 -0.04707402 -0.04704115 -0.04700724 -0.04697471 -0.04694625 -0.04692269 -0.04690561 -0.04689341 -0.04688639
 -0.04688079 -0.04687626 -0.04686723 -0.04685285 -0.0468289 -0.04679463 -0.04675193 -0.04670088 -0.04665009 -0.04660005
 -0.0465599 -0.04652893 -0.04650829 -0.04649588 -0.04648481 -0.04647398 -0.04645671 -0.04643459 -0.046407 -0.04637623
 -0.04634525 -0.04631367 -0.04628268 -0.04624975 -0.04621347 -0.04617337 -0.046128 -0.04608185 -0.04603524 -0.04599458
 -0.04596118 -0.04593739 -0.04592395 -0.04591611 -0.04591363 -0.04590815 -0.04589946 -0.04588248 -0.0458581 -0.04582872
 -0.04579582 -0.04576599 -0.04573979 -0.04572251 -0.04571229 -0.04570925 -0.04570943 -0.04570867 -0.04570339 -0.04568876
 -0.04566529 -0.0456308 -0.04559111 -0.04554728 -0.04550636 -0.04547064 -0.04544237 -0.0454227 -0.04540857 -0.04539984
 -0.04539308 -0.04538807 -0.04538388 -0.04538045 -0.04537693 -0.04537287 -0.0453651 -0.04535326 -0.04533407 -0.04530843
 -0.0452764 -0.04524004 -0.04520263 -0.04516619 -0.04513447 -0.04510811 -0.04508931 -0.0450763 -0.04506926 -0.0450645
 -0.04506065 -0.04505529 -0.04504709 -0.04503764 -0.04502678 -0.04501809 -0.04501206 -0.04500939 -0.04501016 -0.04501148
 -0.04501308 -0.04501103 -0.04500527 -0.04499332 -0.04497567 -0.04495244 -0.04492482 -0.04489578 -0.04486608 -0.04483875
 -0.04481266 -0.04478768 -0.04476263 -0.04473586 -0.04470891 -0.0446819 -0.0446572 -0.04463645 -0.04461788 -0.04460179
 -0.04458382 -0.04456295 -0.04453876 -0.04451076 -0.04448411 -0.0444591 -0.04444086 -0.04442934 -0.04442475 -0.04442635
 -0.04442973 -0.04443406 -0.04443385 -0.04442906 -0.04441648 -0.04439733 -0.044372 -0.04434234 -0.04431072 -0.0442782
 -0.04424657 -0.04421568 -0.04418583 -0.04415698 -0.04412888 -0.04410282 -0.04407921 -0.04405832 -0.04404075 -0.04402284
 -0.04400441 -0.04398075 -0.04395153 -0.04391765 -0.04387953 -0.04384419 -0.04381173 -0.04378685 -0.04376817 -0.04375291
 -0.04373993 -0.04372444 -0.04370734 -0.04368772 -0.04366754 -0.04364915 -0.04363297 -0.04362056 -0.04361043 -0.04360233
 -0.04359438 -0.04358565 -0.04357584 -0.04356452 -0.04355274 -0.04354063 -0.04352896 -0.04351782 -0.04350721 -0.04349713
 -0.04348828 -0.04348074 -0.0434758 -0.04347326 -0.04347251 -0.04347303 -0.04347248 -0.04347064 -0.04346598 -0.0434579
 -0.04344519 -0.04342599 -0.04339726 -0.04335891 -0.04330821 -0.04325115 -0.04318915 -0.04313131 -0.04308191 -0.04304484
 -0.0430228 -0.04301235 -0.04301369 -0.04302086 -0.04303337 -0.0430457 -0.04305753 -0.04306315 -0.04306237 -0.04305144
 -0.04303097 -0.04300291 -0.04296845 -0.04293325 -0.04289791 -0.04286694 -0.0428399 -0.04281824 -0.04280077 -0.04278705
 -0.04277468 -0.0427618 -0.04274588 -0.04272438 -0.0426982 -0.04266611 -0.04263372 -0.04260202 -0.04257667 -0.04255932
 -0.04254974 -0.04254846 -0.04255023 -0.04255478 -0.0425572 -0.04255737 -0.04255346 -0.04254558 -0.04253377 -0.04251803
 -0.04249832 -0.04247455 -0.0424462 -0.04241373 -0.0423772 -0.04233835 -0.0422992 -0.04226149 -0.0422277 -0.04219774
 -0.04217261 -0.04215053 -0.04213096 -0.04211295 -0.04209624 -0.0420799 -0.04206402 -0.04204585 -0.04202501 -0.04200039
 -0.04197181 -0.04194387 -0.04191678 -0.04189507 -0.04187787 -0.04186147 -0.04184459 -0.0418192 -0.04178683 -0.04174642
 -0.0417023 -0.04166199 -0.04162787 -0.04160718 -0.04159687 -0.04159769 -0.04160363 -0.04161146 -0.04161676 -0.04161677
 -0.04161038 -0.04159665 -0.04157614 -0.04154857 -0.04151597 -0.04147822 -0.04144042 -0.04140284 -0.04137224 -0.04134872
 -0.04133444 -0.04132833 -0.04132393 -0.04131981 -0.04130604 -0.04128349 -0.04124852 -0.04120464 -0.04115661 -0.04110691
 -0.04106164 -0.04101855 -0.04097836 -0.04093677 -0.04089073 -0.04083993 -0.04078221 -0.04072371 -0.04066527 -0.04061386
 -0.04057135 -0.04053874 -0.04051685 -0.04049987 -0.04048755 -0.04047323 -0.0404568 -0.04043633 -0.0404123 -0.04038728
 -0.0403614 -0.04033679 -0.04031277 -0.04028832 -0.04026364 -0.04023818 -0.04021349 -0.04019192 -0.04017283 -0.04015788
 -0.04014159 -0.04012116 -0.0400924 -0.0400511 -0.04000295 -0.03994772 -0.03989581 -0.03984978 -0.03981179 -0.03978306
 -0.03975626 -0.03973097 -0.03970179 -0.03966883 -0.03963535 -0.03960187 -0.0395743 -0.03955187 -0.03953492 -0.03952174
 -0.0395077 -0.03949227 -0.03947196 -0.03944788 -0.03941999 -0.03938961 -0.03935777 -0.0393258 -0.03929462 -0.03926565
 -0.03924012 -0.03921717 -0.03919762 -0.03917611 -0.03915194 -0.03911998 -0.0390791 -0.03903135 -0.03897665 -0.03892259
 -0.03886946 -0.03882257 -0.03878153 -0.03874582 -0.0387147 -0.0386848 -0.03865552 -0.03862329 -0.03858814 -0.03854788
 -0.03850422 -0.03845826 -0.03841203 -0.03836815 -0.03832648 -0.03828813 -0.03825084 -0.0382137 -0.0381759 -0.03813684
 -0.03809727 -0.03805745 -0.03801662 -0.03797478 -0.0379302 -0.03788264 -0.03783393 -0.03778436 -0.03774063 -0.03770301
 -0.03767736 -0.03766255 -0.03765748 -0.03765949 -0.03766099 -0.03765927 -0.03764528 -0.03761889 -0.03757546 -0.03751813
 -0.03744752 -0.03736824 -0.03728267 -0.0371962 -0.03711111 -0.03703299 -0.03696409 -0.03690673 -0.03686228 -0.03682777
 -0.03680323 -0.03678362 -0.03676857 -0.03675529 -0.03674369 -0.03673241 -0.03672101 -0.03670545 -0.03668461 -0.03665085
 -0.03660458 -0.0365416 -0.03646628 -0.03638478 -0.03630132 -0.03622511 -0.03615522 -0.03609442 -0.03603952 -0.03598905
 -0.03594127 -0.03589519 -0.03584933 -0.03580347 -0.03575454 -0.03570178 -0.03564377 -0.03557991 -0.03551314 -0.03544362
 -0.03537448 -0.03530581 -0.03523802 -0.03517128 -0.03510705 -0.03504574 -0.03499041 -0.0349403 -0.03489566 -0.03485381
 -0.03480983 -0.03476148 -0.03470276 -0.03463549 -0.03455791 -0.03447637 -0.03439419 -0.03431684 -0.0342486 -0.03418791
 -0.03413599 -0.03408651 -0.03403825 -0.0339878 -0.03393419 -0.03387961 -0.0338241 -0.03377092 -0.03372007 -0.03367066
 -0.03362213 -0.03356972 -0.03351288 -0.03344619 -0.03337054 -0.03328518 -0.03319255 -0.03309742 -0.03300063 -0.03290607
 -0.03281149 -0.03271604 -0.032618 -0.03251459 -0.03240998 -0.03230425 -0.03220536 -0.03211659 -0.03203889 -0.0319749
 -0.03191155 -0.03184853 -0.03176515 -0.03165948 -0.03152708 -0.0313685 -0.03120492 -0.03103713 -0.03088206 -0.03073668
 -0.03059601 -0.03045689 -0.03030643 -0.03014606 -0.02997128 -0.02978769 -0.02960112 -0.02941584 -0.02923932 -0.02906944
 -0.0289091 -0.02874811 -0.02858355 -0.02840398 -0.02820285 -0.02798565 -0.02774938 -0.02752023 -0.02730161 -0.02710788
 -0.02694115 -0.02678887 -0.02665035 -0.02651051 -0.02637008 -0.02622997 -0.02609096 -0.02595884 -0.02582999 -0.02569725
 -0.02555571 -0.02538942 -0.02520296 -0.02499364 -0.02477368 -0.0245558 -0.02434247 -0.02414124 -0.02394406 -0.02374908
 -0.0235499 -0.02334361 -0.02312965 -0.02290826 -0.02267476 -0.02242994 -0.02215596 -0.02185125 -0.02150766 -0.0211258
 -0.0207371 -0.02034321 -0.01997422 -0.01962522 -0.01928826 -0.01895859 -0.01861707 -0.01826413 -0.01789223 -0.01750159
 -0.01709263 -0.01665614 -0.01618656 -0.01566655 -0.01508052 -0.01442575 -0.01368799 -0.01290647 -0.0120854 -0.01128002
 -0.01050482 -0.009780019 -0.009112258 -0.008489707 -0.007912689 -0.007355648 -0.00681675 -0.006253662 -0.005663195 -0.004992451
 -0.004249743 -0.003438735 -0.00258669 -0.001786683 -0.001038217 -0.0003936434 0.0001807991 0.0007137952 0.001225577 0.001750877
 0.002285451 0.002837318 0.003396952 0.003960486 0.004526489 0.00509587 0.005657852 0.006211786 0.00674009 0.007238936
 0.007710851 0.00815557 0.00858133 0.008988011 0.00935991 0.009696061 0.009978071 0.01021097 0.01040821 0.01057852
 0.0107586 0.01094657 0.01116197 0.01138433 0.01158812 0.01176998 0.01191001 0.01203279 0.01215143 0.01227707
 0.0124239 0.01257324 0.01272321 0.01285245 0.01295408 0.0130273 0.01306963 0.0130969 0.01310998 0.01312601
 0.01314555 0.01316776 0.01319123 0.01320113 0.01319748 0.01317217 0.01312724 0.01306385 0.01298585 0.01290091
 0.0128141 0.01273634 0.01266961 0.01261986 0.01258751 0.01257261 0.01258199 0.01261801 0.01268909 0.01280067
 0.01294695 0.01312895 0.01333237 0.01355466 0.0137928 0.01404607 0.01431888 0.01461137 0.01492367 0.01525543
 0.01560298 0.01596619 0.01634267 0.01673229 0.01713324 0.01754583 0.01796912 0.01840529 0.01885714 0.01932632
 0.01981623 0.02032542 0.02085402 0.02140013 0.02196277 0.02254115 0.02313549 0.02374236 0.02436215 0.02498573
 0.02561264 0.02622936 0.02683457 0.02742092 0.02798833 0.02855011 0.0291079 0.02968686 0.03028261 0.03088897
 0.03149378 0.03205046 0.03256121 0.03300453 0.03339655 0.03375661 0.03408429 0.03439137 0.0346585 0.0348745
 0.03502857 0.03511321 0.03512122 0.0350539 0.03488169 0.03459698 0.0341851 0.03363452 0.03301731 0.03233862
 0.03165467 0.03096751 0.03025039 0.02950208 0.02869917 0.02784592 0.02695427 0.02602625 0.02508025 0.02410307
 0.0230806 0.02198625 0.02076106 0.01942489 0.01794562 0.0164444 0.01500737 0.01368914 0.01256507 0.01154765
 0.01062261 0.009720042 0.00881356 0.007912171 0.007011315 0.006147297 0.005324209 0.004543622 0.003805396 0.003079253
 0.002364361 0.001639636 0.0009093648 0.0001842647 -0.0005287576 -0.001199647 -0.001828783 -0.002398995 -0.00292207 -0.003407099
 -0.003868059 -0.004323091 -0.004780969 -0.005253306 -0.0057451 -0.006264301 -0.006802788 -0.00736796 -0.00791181 -0.008426135
 -0.008866488 -0.009218747 -0.009514311 -0.009753374 -0.009986571 -0.01021629 -0.01045828 -0.01071049 -0.01095472 -0.01118876
 -0.01138985 -0.01156123 -0.01170216 -0.01181574 -0.01190998 -0.0119825 -0.012033 -0.01205911 -0.01205697 -0.01202893
 -0.01197574 -0.01189879 -0.01179993 -0.01167607 -0.01152691 -0.01134843 -0.01114072 -0.0108952 -0.01061244 -0.01027027
 -0.009866603 -0.009385277 -0.00882579 -0.008228705 -0.007598703 -0.007006115 -0.00644852 -0.005948994 -0.005500342 -0.005089167
 -0.004713798 -0.004365371 -0.004041241 -0.003738355 -0.003441009 -0.003133645 -0.002796918 -0.002403138 -0.001970578 -0.001491398
 -0.00102282 -0.0005878787 -0.0002031967 0.000118281 0.0004020939 0.0006506918 0.0008813983 0.001096593 0.001296916 0.001482503
 0.001653551 0.001810868 0.001963766 0.002114062 0.002276081 0.00245218 0.002657627 0.002894341 0.003175429 0.003498288
 0.003865591 0.004271455 0.004709431 0.005178429 0.005675155 0.006201315 0.006758822 0.007341882 0.007950646 0.008572335
 0.009203376 0.00983853 0.01047531 0.0111221 0.01177988 0.01244986 0.01313203 0.01379178 0.01442595 0.0149844
 0.01546772 0.01585402 0.01614573 0.0163421 0.01643925 0.01642896 0.01630438 0.01604851 0.01566418 0.01514347
 0.01450498 0.01375735 0.01292467 0.01202209 0.01106282 0.010055 0.00900297 0.007905418 0.006784806 0.005640002
 0.004523966 0.003441443 0.002432499 0.001499484 0.000634056 -0.0001658855 -0.0009308622 -0.001660276 -0.002367173 -0.003046543
 -0.003686896 -0.004285973 -0.004830837 -0.005326555 -0.005774484 -0.006182609 -0.006560329 -0.00691328 -0.007249071 -0.00756944
 -0.007877664 -0.008172253 -0.008453389 -0.008719379 -0.008969288 -0.009205162 -0.009426748 -0.009639505 -0.009844096 -0.0100422
 -0.01023395 -0.01041168 -0.01057471 -0.01071162 -0.01082285 -0.0109049 -0.01095923 -0.01098938 -0.01099582 -0.01098093
 -0.01094567 -0.01089161 -0.01082235 -0.01074191 -0.01065492 -0.01056568 -0.01047892 -0.01039752 -0.01032703 -0.01027019
 -0.0102299 -0.01020804 -0.01020192 -0.01021143 -0.01023381 -0.0102685 -0.01031809 -0.01038269 -0.01046387 -0.01056105
 -0.01066701 -0.01078036 -0.01088874 -0.01099163 -0.01108021 -0.01115554 -0.01121546 -0.01126185 -0.01129707 -0.01132181
 -0.01133824 -0.01134504 -0.01134159 -0.0113276 -0.01130174 -0.01126792 -0.01122693 -0.01118319 -0.01113834 -0.01109271
 -0.01104656 -0.01099961 -0.01095151 -0.0109071 -0.01086664 -0.01083563 -0.0108138 -0.01079835 -0.01078826 -0.01077517
 -0.01075977 -0.01073933 -0.01071712 -0.01069978 -0.01068972 -0.01069504 -0.01071344 -0.01074634 -0.01078824 -0.01083557
 -0.01088321 -0.01092768 -0.01096517 -0.01099372 -0.01101046 -0.01101383 -0.01100502 -0.01098332 -0.01095542 -0.0109219
 -0.01088814 -0.01085451 -0.01081979 -0.01078392 -0.01074529 -0.01070486 -0.01066818 -0.01063621 -0.01061688 -0.01060721
 -0.01060538 -0.0106047 -0.01059276 -0.01056577 -0.01051244 -0.01043764 -0.01034009 -0.01022959 -0.01011153 -0.009991412
 -0.009873256 -0.009756281 -0.009641105 -0.009525851 -0.009410242 -0.009293383 -0.009175239 -0.00905419 -0.00893015 -0.008800768
 -0.008665765 -0.008520948 -0.008365487 -0.008190975 -0.007998465 -0.007784376 -0.007556902 -0.007331904 -0.007122586 -0.006960487
 -0.006848525 -0.006808115 -0.006820566 -0.006882105 -0.006962103 -0.007042788 -0.0071028 -0.007128297 -0.007116091 -0.007061831
 -0.00697203 -0.006847141 -0.006692609 -0.006509068 -0.006299484 -0.006064035 -0.005807281 -0.005529508 -0.005236411 -0.004927377
 -0.004601215 -0.004256933 -0.003887169 -0.003497756 -0.003094082 -0.002695373 -0.002334556 -0.002032928 -0.001834184 -0.001734099
 -0.001753788 -0.001850546 -0.002011362 -0.002183502 -0.002340072 -0.002464071 -0.002539958 -0.002596686 -0.002635221 -0.00269283
 -0.002775182 -0.00288692 -0.003029125 -0.003168998 -0.003304254 -0.003392535 -0.003435027 -0.003415317 -0.003343238 -0.003245541
 -0.003136002 -0.003065354 -0.003035554 -0.003078318 -0.003175881 -0.003321233 -0.003492516 -0.003666432 -0.003838033 -0.003996048
 -0.004148737 -0.004298545 -0.004445306 -0.00459186 -0.004723998 -0.004840135 -0.004926336 -0.004980366 -0.005000391 -0.004986017
 -0.004945965 -0.004880834 -0.004801581 -0.004708276 -0.004607105 -0.004496902 -0.004376706 -0.00424477 -0.00409585 -0.003929589
 -0.003741804 -0.003535995 -0.003313078 -0.003081317 -0.002847261 -0.002619074 -0.002404297 -0.002203629 -0.002020594 -0.001847475
 -0.001683423 -0.001519474 -0.001353829 -0.001181472 -0.001001496 -0.00081305 -0.000615978 -0.0004126005 -0.0002031043 9.039934E-06
 0.0002237691 0.0004392327 0.0006551252 0.0008694443 0.001081458 0.001287659 0.001489009 0.001684295 0.001878244 0.002075849
 0.002281843 0.002503138 0.002738444 0.002990326 0.00325155 0.003520009 0.003789452 0.004057086 0.004323053 0.004586643
 0.004851203 0.005117299 0.005384228 0.005652077 0.005915133 0.006173192 0.006422504 0.006663356 0.006896234 0.007121119
 0.007337996 0.007546958 0.007747645 0.007941624 0.008131818 0.008318724 0.008504774 0.008688032 0.008866274 0.009042453
 0.009215974 0.009395773 0.009586761 0.009788907 0.01000564 0.01022218 0.01043658 0.01063632 0.01081903 0.01098578
 0.01113636 0.0112778 0.01141061 0.01154382 0.01167872 0.01182933 0.0119961 0.01219002 0.01240704 0.01264349
 0.01289167 0.01313607 0.01337091 0.01358173 0.01376866 0.0139259 0.01405844 0.0141681 0.01425742 0.01432905
 0.01437909 0.01440631 0.01441074 0.01439029 0.01435932 0.01431894 0.01428407 0.01425621 0.01422857 0.01420025
 0.01415086 0.01408162 0.01398991 0.01388228 0.01378389 0.01370156 0.01366762 0.01368245 0.01376306 0.01390347
 0.0141033 0.01435566 0.01465546 0.01499434 0.01537181 0.01576086 0.01616012 0.01650866 0.01679494 0.01694675
 0.01694651 0.01676423 0.01638947 0.01586241 0.01518364 0.01443826 0.01363073 0.01284285 0.01207539 0.01137363
 0.0107327 0.0101573 0.009640943 0.00916819 0.008736031 0.008331958 0.007954694 0.007599153 0.007260375 0.006933416
 0.006611106 0.006287138 0.005959195 0.005623455 0.005285342 0.004944583 0.004611332 0.004287386 0.003980333 0.003691922
 0.003419667 0.003163737 0.002913907 0.002669736 0.002423549 0.002175404 0.001922636 0.001664896 0.001398899 0.001124847
 0.0008404952 0.0005488943 0.0002541465 -3.95907E-05 -0.0003252322 -0.0006000306 -0.0008595291 -0.001100968 -0.001321033 -0.001519602
 -0.001693622 -0.001853057 -0.001998471 -0.002146306 -0.002300089 -0.00246871 -0.002654394 -0.00285388 -0.003067261 -0.003286317
 -0.003510572 -0.003731192 -0.00394763 -0.004151318 -0.004342356 -0.004516221 -0.004674143 -0.004817095 -0.004946464 -0.005065209
 -0.00517453 -0.005277148 -0.00537391 -0.00546684 -0.005555232 -0.005639217 -0.005718016 -0.005790576 -0.005859551 -0.005925052
 -0.005991471 -0.006059702 -0.006132349 -0.006209738 -0.006294581 -0.006387169 -0.00648787 -0.006596304 -0.006702603 -0.006805191
 -0.006886073 -0.006945426 -0.006973119 -0.006973234 -0.006951129 -0.006912722 -0.006871742 -0.006832457 -0.006806936 -0.006794937
 -0.00680215 -0.00682153 -0.006851546 -0.00688181 -0.006907281 -0.006921894 -0.006922125 -0.006908768 -0.006880932 -0.006843178
 -0.0067956 -0.006745283 -0.006692678 -0.00664509 -0.006602709 -0.006567145 -0.006537575 -0.00650794 -0.006477224 -0.006437327
 -0.006388581 -0.006326841 -0.006255079 -0.006176147 -0.006095217 -0.006020624 -0.005955442 -0.005906924 -0.005871588 -0.005850466
 -0.005835934 -0.005825324 -0.00581155 -0.005792433 -0.005761369 -0.005716679 -0.005654254 -0.005572562 -0.005477518 -0.005369134
 -0.005261105 -0.005153919 -0.005054336 -0.004961275 -0.00486828 -0.004774135 -0.004669046 -0.004554477 -0.00442878 -0.004295882
 -0.004162303 -0.004032172 -0.003914166 -0.003809759 -0.003724001 -0.003655101 -0.003603981 -0.003566562 -0.003542517 -0.003523745
 -0.003509303 -0.003485724 -0.003450132 -0.003393296 -0.003312235 -0.003215993 -0.003104429 -0.003000787 -0.002906045 -0.002835726
 -0.002788473 -0.002759597 -0.002745847 -0.002729537 -0.002709008 -0.002669376 -0.002612756 -0.002535298 -0.002442279 -0.002339114
 -0.002230761 -0.002123907 -0.002021448 -0.001927392 -0.00184237 -0.001768726 -0.001701764 -0.001642142 -0.00157791 -0.001506773
 -0.001419832 -0.001314294 -0.001198107 -0.001071091 -0.0009542405 -0.000848448 -0.0007677532 -0.0007107299 -0.0006710672 -0.0006453731
 -0.0006139813 -0.0005755371 -0.0005144048 -0.000434342 -0.0003343654 -0.0002213606 -0.0001048186 1.103802E-05 0.0001178151 0.0002165132
 0.0003052222 0.0003860885 0.0004599653 0.000527144 0.0005875928 0.0006426789 0.0006918925 0.0007412496 0.0007911253 0.0008494463
 0.0009170325 0.000995625 0.001085101 0.001177673 0.00127281 0.001361476 0.001445258 0.00152633 0.001608094 0.001702945
 0.001810855 0.001939663 0.002082866 0.002234828 0.002389232 0.002536003 0.002677322 0.002810694 0.00294254 0.003077382
 0.003211064 0.003345628 0.003464954 0.00356528 0.003639393 0.003683778 0.003714855 0.003733197 0.003762234 0.003802781
 0.003859301 0.003930196 0.00400141 0.004072339 0.004131407 0.004182101 0.004228134 0.004275162 0.004337214 0.004416486
 0.004524756 0.004654306 0.004804171 0.004959564 0.005109211 0.005246275 0.005362627 0.005464574 0.005552851 0.005631505
 0.005702739 0.005760739 0.005804361 0.005834487 0.005850367 0.005868705 0.00589037 0.005932842 0.005995737 0.006082546
 0.006191037 0.006312799 0.006444618 0.006572404 0.00669377 0.006795856 0.006880783 0.006944568 0.006994559 0.00703563
 0.007076887 0.00712571 0.007189116 0.007273688 0.007377186 0.00750279 0.007635021 0.007771353 0.007898432 0.008012505
 0.008120536 0.008222518 0.008331465 0.008447628 0.008560858 0.008668984 0.008744625 0.008788916 0.008790511 0.008757968
 0.008710299 0.008659252 0.008640144 0.008656591 0.008734873 0.008857078 0.009020246 0.00919039 0.009341045 0.009455577
 0.009512801 0.009532938 0.009514929 0.009492718 0.009474293 0.009477641 0.009507164 0.009564684 0.009650958 0.009761652
 0.009896481 0.01004702 0.01021232 0.01038019 0.01054877 0.01070231 0.01083904 0.01094297 0.01101815 0.01106275
 0.01108825 0.01111214 0.01113944 0.0111858 0.01123983 0.01129864 0.01135103 0.01138782 0.01141435 0.01142958
 0.01144343 0.01145899 0.01147611 0.01149525 0.01151429 0.01153286 0.01155387 0.01157749 0.01160791 0.01164528
 0.01169356 0.01175163 0.01181661 0.01188525 0.01194357 0.01199367 0.01203067 0.01206454 0.01211087 0.01216937
 0.01224906 0.01233638 0.01241974 0.01250497 0.0125848 0.01269491 0.01285178 0.01305253 0.01330919 0.01355241
 0.01377017 0.01394443 0.01407004 0.01418688 0.0142967 0.01442325 0.01456462 0.01470826 0.01484977 0.01495822
 0.01503326 0.015054 0.01503058 0.01497148 0.01489505 0.01483567 0.01479763 0.01480565 0.0148354 0.01487878
 0.01490915 0.01490666 0.01487327 0.01480188 0.01471501 0.01461582 0.01452548 0.01444816 0.014392 0.01435897
 0.01433724 0.01432618 0.01430724 0.0142817 0.01425702 0.01423811 0.01425824 0.01431537 0.01442571 0.01457201
 0.01472617 0.01486794 0.01494957 0.01497171 0.01491037 0.014793 0.01462883 0.0144519 0.01428357 0.01413751
 0.01402475 0.01394125 0.013886 0.01386623 0.0138825 0.01394534 0.0140581 0.01418775 0.01433253 0.01443863
 0.01450803 0.01454624 0.01456153 0.01460708 0.01467923 0.01479691 0.01494445 0.01509436 0.01523827 0.01534933
 0.0154298 0.01547078 0.01548058 0.01546005 0.01542493 0.01538317 0.0153464 0.01532196 0.01530818 0.01530484
 0.01531569 0.01533997 0.01539268 0.015476 0.01558635 0.01572352 0.01586261 0.01600328 0.01613512 0.01625887
 0.01637652 0.01648254 0.01655864 0.01660008 0.01658145 0.01651545 0.01640642 0.01627929 0.01616178 0.01607505
 0.01604441 0.01607891 0.01619566 0.01637371 0.01661832 0.01686993 0.01711786 0.0173057 0.01741968 0.0174557
 0.01740981 0.01731965 0.01718712 0.01705372 0.01692046 0.01681235 0.01672617 0.01665801 0.01660123 0.01652915
 0.01644135 0.01632143 0.01617736 0.01601488 0.0158401 0.01566004 0.01548435 0.01531843 0.01518265 0.01509197
 0.01504795 0.01506218 0.01509601 0.01514404 0.01516671 0.0151547 0.01510357 0.01501101 0.01489232 0.01474826
 0.0146002 0.01444931 0.014319 0.01420534 0.01409989 0.01399252 0.01383698 0.01364012 0.01338636 0.01310767
 0.0128545 0.01263472 0.01248959 0.01237705 0.01227664 0.01215828 0.01198782 0.01179932 0.01159164 0.01142258
 0.01131006 0.01126966 0.0113118 0.01139748 0.01152605 0.01163213 0.01171196</values></Ydata></AB><ScSm><Ydata ylabel="Single channel"><values byteorder="INTEL" format="FLOAT32" numvalues="1814"> 0.07174344 0.07176016 0.07183245 0.07198074 0.07217991 0.07237384 0.07251513 0.07259573 0.07263117 0.07262388
 0.07257473 0.07253054 0.07257381 0.07274164 0.07297427 0.07315634 0.07320812 0.07315496 0.07311574 0.07318815
 0.07331941 0.07331844 0.0730365 0.0725366 0.07205261 0.07177079 0.07171226 0.07187292 0.07234098 0.07306664
 0.07360367 0.07342996 0.07260638 0.07180815 0.07157516 0.07179274 0.07200623 0.07194217 0.07159483 0.07112919
 0.07092628 0.07147554 0.07289615 0.0745479 0.07526135 0.0740693 0.07089327 0.06677721 0.06351431 0.0626843
 0.06453264 0.06764273 0.07000278 0.07061319 0.06996584 0.06903338 0.06823091 0.06753168 0.06711959 0.067421
 0.06850579 0.06969113 0.06988296 0.06849524 0.06614981 0.06425783 0.0637424 0.06444371 0.0658511 0.06766456
 0.06903991 0.06814633 0.06395826 0.0585456 0.05616241 0.05920464 0.06565522 0.07107174 0.07254708 0.0703158
 0.06644518 0.0631195 0.06184499 0.06303848 0.06591898 0.06916416 0.07173049 0.07291585 0.07217911 0.06960279
 0.0663505 0.06409954 0.06401249 0.06629261 0.07014063 0.0738069 0.07538138 0.07421356 0.07135192 0.06842694
 0.06656925 0.06641333 0.06825703 0.07173874 0.07582772 0.07943808 0.08187676 0.08288129 0.08265464 0.08174686
 0.08064239 0.07968115 0.07935832 0.08001931 0.08105721 0.08114347 0.07968132 0.07760691 0.07642577 0.07665658
 0.07741736 0.07749632 0.07657486 0.07502045 0.0726836 0.06890365 0.06400923 0.05969198 0.05731557 0.05689152
 0.058101 0.06081971 0.06390886 0.0651286 0.06357855 0.06127304 0.06112424 0.0638361 0.06754745 0.07013765
 0.07119526 0.07187178 0.0733829 0.07575524 0.077664 0.07742111 0.07464452 0.07120976 0.06993169 0.07180582
 0.07505466 0.07732424 0.07817241 0.07881805 0.08001079 0.0808737 0.07981031 0.07639067 0.07239483 0.07072941
 0.07289603 0.0774847 0.08119111 0.08126332 0.07735755 0.07163245 0.06706561 0.0653876 0.06660066 0.07010116
 0.07535189 0.08130285 0.08611954 0.08820377 0.08735669 0.08469398 0.08137643 0.07753414 0.07286482 0.06841541
 0.06681059 0.06976509 0.07588151 0.08181569 0.08526754 0.08612745 0.08515957 0.08256875 0.07822961 0.07309051
 0.06963681 0.06996212 0.073258 0.07627313 0.07672754 0.07539289 0.07441194 0.07460028 0.07514437 0.07528433
 0.0753949 0.0763655 0.07835388 0.08045794 0.08160435 0.08152699 0.08080705 0.08018166 0.07987329 0.0794355
 0.07839027 0.07720309 0.07721964 0.07919523 0.08225341 0.08478345 0.08604804 0.0864452 0.08644028 0.08575132
 0.08376391 0.08069636 0.07807665 0.07760867 0.07952131 0.08242854 0.08477554 0.08595616 0.08615293 0.08576989
 0.08516412 0.08453475 0.08397867 0.08373561 0.08412755 0.08509462 0.08609419 0.08664371 0.08671519 0.08649081
 0.08601675 0.08526944 0.0844029 0.08376056 0.08362967 0.08402094 0.08470568 0.0854218 0.08596988 0.08617638
 0.08595537 0.08544088 0.08490623 0.08451545 0.08426888 0.08417645 0.08431602 0.08468108 0.08510368 0.08539471
 0.08549485 0.08545319 0.08532171 0.08511773 0.08486067 0.08461122 0.08446956 0.08451028 0.08469544 0.08489313
 0.08502714 0.08515307 0.08532394 0.08544955 0.08539065 0.08515415 0.08489981 0.08476847 0.08477229 0.08483818
 0.08488579 0.08484077 0.08462994 0.08424354 0.08381864 0.08358935 0.08370155 0.08410771 0.08465198 0.08518495
 0.08558509 0.085779 0.08579738 0.08574305 0.08567013 0.08554552 0.08534186 0.08512338 0.08502533 0.08515285
 0.08548597 0.08588618 0.08620977 0.0863985 0.08647045 0.08648879 0.08654611 0.08669369 0.0868604 0.08691661
 0.08683997 0.08675221 0.08677129 0.08687899 0.08695661 0.08692496 0.0868317 0.08680045 0.08690122 0.08708793
 0.08726723 0.08740286 0.0875351 0.08770692 0.087883 0.08795837 0.0878709 0.08769101 0.08755571 0.08752225
 0.08754449 0.08758838 0.08769163 0.08788028 0.0880885 0.08821309 0.08822905 0.08821154 0.08824 0.08830632
 0.08833274 0.0882647 0.08812585 0.08798954 0.08791974 0.08793551 0.08800645 0.08807217 0.08807954 0.08801594
 0.08791019 0.08780162 0.08771154 0.08765088 0.08765009 0.08775211 0.08794857 0.08813512 0.0881727 0.08801465
 0.08776069 0.08756801 0.08750913 0.0875211 0.08748595 0.08734598 0.08713844 0.08693922 0.08679453 0.08670239
 0.0866356 0.0865727 0.0865225 0.08652763 0.08662445 0.08678059 0.08689027 0.08686247 0.08671097 0.08653575
 0.08642482 0.08639549 0.08641413 0.086441 0.08646365 0.08650745 0.08659983 0.08671372 0.08677739 0.08675811
 0.08670562 0.08670025 0.08678894 0.08697101 0.08719788 0.08737859 0.08743969 0.08740149 0.08736166 0.08739167
 0.0874811 0.08758619 0.0876914 0.0878045 0.08792546 0.0880504 0.08819583 0.08839466 0.08866461 0.08898581
 0.08930817 0.0895814 0.08979162 0.08997894 0.09021205 0.09053192 0.09091542 0.09129475 0.09161522 0.09187782
 0.09212609 0.09239286 0.09267211 0.09295125 0.09325069 0.09360314 0.09400261 0.09440378 0.09477334 0.09511808
 0.09546156 0.09581414 0.096173 0.0965416 0.09694023 0.097388 0.09786478 0.0983026 0.09863773 0.09887485
 0.09908859 0.09936386 0.09973538 0.1001619 0.1005462 0.1008106 0.1009805 0.1011698 0.1014584 0.1018068
 0.1021253 0.1024041 0.1027246 0.103144 0.1036128 0.1040227 0.1043184 0.1045426 0.104777 0.1050518
 0.1053212 0.1055281 0.1056773 0.1058268 0.1060163 0.1062382 0.1064886 0.1068024 0.1072045 0.1076501
 0.1080539 0.1083677 0.1086024 0.1087892 0.1089511 0.1090979 0.1092264 0.1093344 0.1094437 0.109585
 0.1097479 0.1098829 0.109972 0.1100625 0.11021 0.1104232 0.1106866 0.1109989 0.1113533 0.1117091
 0.1120314 0.1123483 0.1127214 0.1131456 0.1135229 0.1137652 0.1138901 0.1139798 0.1140784 0.1141831
 0.1143151 0.1145287 0.1148406 0.1152005 0.1155516 0.1158847 0.1162216 0.1165657 0.1168852 0.1171334
 0.1172815 0.1173436 0.1173732 0.1174365 0.1175825 0.1178234 0.1181283 0.1184393 0.1187039 0.11889
 0.1189724 0.1189386 0.1188309 0.1187521 0.118781 0.1188807 0.1189185 0.1187778 0.118432 0.1179147
 0.1172591 0.1164891 0.1156517 0.1148323 0.1141281 0.1136072 0.1133003 0.1132253 0.1134053 0.1138403
 0.114463 0.1151475 0.115768 0.1162319 0.1164549 0.1163493 0.1158784 0.1151106 0.1141917 0.1132651
 0.1124211 0.1116877 0.1110447 0.1104715 0.1100192 0.1098329 0.1100823 0.1108654 0.1121641 0.1138529
 0.1157269 0.1175541 0.1191591 0.1204889 0.1216 0.1225788 0.1234808 0.124337 0.1251774 0.126014
 0.1268149 0.1275329 0.1281598 0.1287263 0.1292554 0.1297379 0.1301489 0.1304695 0.1307017 0.1308762
 0.1310303 0.1311641 0.1312409 0.1312409 0.1311906 0.1311224 0.1310246 0.1308454 0.1305364 0.1300925
 0.1295819 0.1291603 0.1290444 0.1294289 0.1303855 0.1318186 0.1335209 0.1352832 0.1369579 0.1384408
 0.1396488 0.140549 0.1411912 0.1416778 0.1421001 0.1425088 0.1429222 0.1433397 0.1437487 0.1441364
 0.1445003 0.1448522 0.1452146 0.1456035 0.1460068 0.146389 0.146728 0.1470444 0.147387 0.1477854
 0.148219 0.148637 0.1490139 0.1493747 0.14975 0.1501217 0.1504432 0.1507057 0.1509551 0.1512443
 0.1515952 0.1519985 0.1524159 0.1527887 0.153077 0.1533004 0.1535187 0.1537721 0.1540543 0.1543407
 0.1546226 0.154906 0.1551941 0.1554877 0.155796 0.1561263 0.1564578 0.1567452 0.1569647 0.1571466
 0.1573469 0.157591 0.1578566 0.158108 0.1583388 0.1585801 0.1588696 0.1592102 0.1595572 0.1598514
 0.1600704 0.1602436 0.1604205 0.1606291 0.1608674 0.1611205 0.1613754 0.1616228 0.1618588 0.1620895
 0.1623278 0.162581 0.1628444 0.1631077 0.1633652 0.1636175 0.1638684 0.1641209 0.1643778 0.1646475
 0.1649411 0.1652566 0.1655682 0.1658401 0.1660567 0.1662327 0.1663968 0.1665712 0.1667671 0.1669872
 0.167227 0.1674751 0.1677195 0.1679547 0.1681845 0.1684164 0.1686536 0.1688957 0.1691431 0.169396
 0.1696508 0.1699039 0.170159 0.1704215 0.1706862 0.1709383 0.1711707 0.1713926 0.1716184 0.1718514
 0.1720826 0.1723034 0.1725156 0.1727275 0.1729445 0.1731659 0.1733886 0.1736092 0.1738247 0.1740367
 0.1742514 0.1744742 0.1747042 0.174936 0.1751656 0.1753937 0.1756237 0.1758544 0.1760774 0.1762877
 0.1764938 0.1767102 0.1769424 0.177183 0.177421 0.1776507 0.1778742 0.1780963 0.1783197 0.178545
 0.1787725 0.1790011 0.1792274 0.1794496 0.1796693 0.1798872 0.1801022 0.1803162 0.180534 0.1807581
 0.1809883 0.1812233 0.181461 0.1816994 0.1819386 0.1821779 0.1824127 0.1826402 0.182864 0.1830878
 0.1833114 0.1835359 0.1837645 0.1839958 0.1842236 0.1844441 0.1846564 0.1848621 0.1850645 0.185266
 0.1854661 0.1856657 0.185868 0.1860753 0.1862878 0.1865055 0.1867245 0.1869387 0.1871499 0.1873662
 0.1875883 0.1878086 0.1880246 0.1882409 0.1884615 0.188688 0.1889199 0.1891502 0.1893703 0.189582
 0.189795 0.1900158 0.1902449 0.190477 0.190704 0.1909252 0.191151 0.1913884 0.1916307 0.1918704
 0.1921079 0.1923424 0.1925699 0.1927895 0.1930013 0.1932064 0.193416 0.1936439 0.193886 0.1941229
 0.1943445 0.1945567 0.1947704 0.1949957 0.1952347 0.1954782 0.1957177 0.1959549 0.1961898 0.1964165
 0.1966368 0.1968588 0.1970824 0.1973051 0.1975318 0.1977605 0.1979802 0.1981902 0.1983972 0.1985882
 0.1987126 0.1986428 0.1980668 0.1963698 0.1926159 0.1857308 0.1749309 0.1602214 0.14257 0.1235618
 0.1048108 0.08753727 0.07245243 0.05986223 0.04983138 0.04228214 0.03705034 0.03398784 0.03307786 0.03455561
 0.03903598 0.04714954 0.05816868 0.06878934 0.07441419 0.07277914 0.06611352 0.05910572 0.05500752 0.0540601
 0.05488441 0.05629789 0.05792357 0.05997339 0.06281426 0.06655008 0.0710011 0.07615265 0.08237971 0.08996992
 0.09853998 0.107188 0.1152675 0.1228946 0.1306536 0.1388862 0.1473286 0.1553702 0.1625383 0.1687375
 0.1741603 0.1790715 0.1836534 0.1879864 0.192108 0.1960174 0.1995842 0.2025072 0.2044593 0.205337
 0.2053788 0.2050325 0.2046939 0.2045528 0.2046333 0.2049067 0.2053472 0.2059327 0.2066422 0.2074501
 0.2083175 0.2092047 0.2100892 0.2109602 0.211802 0.2125939 0.2133203 0.2139743 0.2145594 0.2150886
 0.2155738 0.2160214 0.2164394 0.2168389 0.2172245 0.2175942 0.2179461 0.2182781 0.2185851 0.2188652
 0.2191236 0.2193656 0.2195936 0.2198099 0.2200171 0.2202175 0.2204169 0.2206224 0.2208358 0.2210548
 0.2212795 0.2215082 0.221731 0.2219366 0.2221235 0.2223006 0.2224803 0.2226734 0.2228816 0.2230944
 0.2232996 0.2234955 0.2236879 0.2238804 0.2240736 0.2242684 0.2244646 0.2246633 0.2248669 0.2250738
 0.2252793 0.2254843 0.225696 0.2259172 0.2261446 0.2263758 0.2266079 0.2268349 0.2270559 0.2272762
 0.2274911 0.2276821 0.2278403 0.2279846 0.2281485 0.2283504 0.2285778 0.2288003 0.2290008 0.2291887
 0.2293802 0.229578 0.2297736 0.2299585 0.2301314 0.2303083 0.2305181 0.2307706 0.231042 0.2313059
 0.2315591 0.2318085 0.2320589 0.2323168 0.2325781 0.2328109 0.232983 0.2331121 0.2332705 0.2335279
 0.2338843 0.2342599 0.2345667 0.2347896 0.234984 0.2352089 0.2354872 0.2357904 0.2360239 0.2360883
 0.2360225 0.2360316 0.2362992 0.2368044 0.2373708 0.2378515 0.2382191 0.2385193 0.2387897 0.2390222
 0.2391727 0.2392127 0.2391942 0.2392629 0.239557 0.2400616 0.2406065 0.2410367 0.2413334 0.2415509
 0.2417304 0.2418957 0.2420159 0.2419509 0.2415988 0.2411571 0.2410717 0.2416034 0.2425335 0.2433974
 0.2439439 0.2442645 0.2445333 0.2447929 0.2450055 0.245087 0.2447975 0.2438805 0.2425596 0.2416731
 0.2419759 0.2433797 0.2451004 0.2464405 0.2472224 0.2476161 0.2478456 0.2480394 0.2481302 0.2478566
 0.2470603 0.2460738 0.2456342 0.2461991 0.2474324 0.2485655 0.2491817 0.2494343 0.2496317 0.2498942
 0.2500759 0.2497263 0.2483427 0.2461056 0.2442552 0.244226 0.2462472 0.2490704 0.2512061 0.2522104
 0.2525827 0.252672 0.2521642 0.2506513 0.2482325 0.2454701 0.2432396 0.2426348 0.2442396 0.247198
 0.2496954 0.2507529 0.251052 0.2517705 0.2531631 0.2545512 0.2552255 0.2550062 0.2541123 0.2527614
 0.2510712 0.2494461 0.248796 0.2498842 0.2524039 0.2550926 0.2569003 0.2577881 0.2581777 0.2577194
 0.2550417 0.2494074 0.2427757 0.2392493 0.2414407 0.2477317 0.2540113 0.2577187 0.2592353 0.2599382
 0.2603716 0.2601064 0.2579718 0.2526693 0.2447848 0.2380972 0.2370389 0.2423077 0.2500788 0.2555897
 0.256422 0.2527785 0.2465878 0.2408949 0.2386276 0.240841 0.2462634 0.2525479 0.257679 0.2605282
 0.2608462 0.2591424 0.2566314 0.2549413 0.2549416 0.2554457 0.2541072 0.2503962 0.2465025 0.2441074
 0.2417435 0.2374669 0.2331281 0.233139 0.2387628 0.2460341 0.2502376 0.250686 0.2498326 0.2487612
 0.2452765 0.2370328 0.2259701 0.2183637 0.2193493 0.2276119 0.2365718 0.2408309 0.2404561 0.2390373
 0.2388805 0.2386632 0.2353235 0.2280955 0.2204985 0.2173578 0.2196428 0.2235906 0.2251238 0.2230688
 0.2176444 0.2091613 0.2004405 0.1976236 0.2049421 0.2194975 0.2335737 0.2410049 0.2393607 0.2284679
 0.2112966 0.1958417 0.1912218 0.1994736 0.2130718 0.2218836 0.221183 0.2123877 0.1987424 0.1831924
 0.1698161 0.1640822 0.1695119 0.1841787 0.2008859 0.2107055 0.2078301 0.1941016 0.1794993 0.1749352
 0.1822703 0.1930386 0.1979838 0.1954946 0.1901616 0.186845 0.1878927 0.1928785 0.1990454 0.2038472
 0.2069637 0.2073563 0.2004738 0.1837132 0.1637013 0.1519747 0.1529818 0.161685 0.172803 0.1856016
 0.1980463 0.2034809 0.1981461 0.1883631 0.1852288 0.1928307 0.2047173 0.2118119 0.2114119 0.2077229
 0.2052896 0.204113 0.2019412 0.1995575 0.2009451 0.2078254 0.216673 0.2226461 0.2246093 0.2247143
 0.224729 0.2246967 0.2241714 0.2230103 0.2212792 0.219359 0.2178403 0.2168473 0.2159226 0.2147363
 0.2130461 0.2096035 0.2024228 0.1915913 0.1810804 0.1756257 0.1757087 0.1778201 0.1796507 0.1814618
 0.1812698 0.1734725 0.1562924 0.1378748 0.1303724 0.138212 0.1548022 0.1700093 0.1778843 0.1771522
 0.1681803 0.1532124 0.1389092 0.1343198 0.1435026 0.1615944 0.1799872 0.1937532 0.2022838 0.2052069
 0.2014525 0.1922172 0.1822276 0.1770844 0.1798131 0.1894609 0.2014468 0.2088138 0.2055948 0.1926944
 0.1806006 0.1817437 0.1974714 0.2158415 0.2250339 0.225361 0.2246577 0.2261004 0.2265339 0.2249115
 0.2257928 0.2330246 0.244036 0.2523565 0.2532932 0.2457826 0.2318215 0.2169821 0.2089808 0.2114758
 0.2198894 0.2263797 0.2274458 0.2234834 0.2141307 0.2002113 0.1886961 0.18853 0.2002744 0.2148836
 0.2240055 0.2275965 0.2301727 0.2330159 0.2326354 0.2260852 0.2158963 0.2085162 0.207913 0.2120763
 0.2163739 0.2184422 0.2182111 0.2151085 0.2084159 0.2003622 0.1961629 0.1994776 0.2086207 0.2181639
 0.2238214 0.2251373 0.2241413 0.2227483 0.221483 0.2196861 0.2168221 0.2141514 0.2144859 0.2191518
 0.2258318 0.2309228 0.2336693 0.2364275 0.2409737 0.2460517 0.2488993 0.24826 0.2455677 0.2436904
 0.2446364 0.2479676 0.2511246 0.2516144 0.2493896 0.2471195 0.2477345 0.2516343 0.2566246 0.2604081
 0.2624614 0.263576 0.26451 0.2653324 0.2653918 0.2638217 0.2607769 0.258162 0.2582868 0.2615706
 0.2661311 0.2697172 0.2715207 0.2720637 0.2719767 0.2713367 0.2700157 0.2682731 0.2667804 0.266095
 0.2662604 0.2669411 0.2677803 0.2685517 0.2691365 0.2695173 0.2697607 0.2699333 0.270063 0.2701789
 0.2703058 0.2704002 0.2703826 0.2702793 0.2702497 0.2704099 0.2706811 0.2708725 0.2708585 0.2705978
 0.2700295 0.2690759 0.2677583 0.266205 0.264502 0.2626363 0.2606997 0.2591187 0.2585292 0.2593029
 0.261197 0.2635005 0.2655095 0.2668671 0.2675748 0.2678341 0.2678967 0.2679495 0.2680398 0.2680913
 0.2679997 0.2677188 0.2672682 0.2666892 0.2660177 0.2652931 0.2645602 0.2638413 0.2631221 0.2623943
 0.2617052 0.2611347 0.2607124 0.2603734 0.2600085 0.2595478 0.2589865 0.2583444 0.2576247 0.2568154
 0.2559209 0.2549877 0.2540966 0.2533131 0.252635 0.2519912 0.2512853 0.2504434 0.2494549 0.2484019
 0.2474243 0.2466108 0.2459249 0.2452506 0.2444872 0.2435867 0.2425427 0.2413788 0.2401372 0.238852
 0.2375339 0.2361799 0.2347823 0.2333242 0.2317839 0.2301516 0.2284359 0.226656 0.2248333 0.2229882
 0.2211221 0.219181 0.2170429 0.214553 0.2115766 0.2080291 0.2038935 0.1992428 0.1942411 0.1891029
 0.1840353 0.179203 0.1747274 0.1707064 0.167229 0.1643676 0.1621648 0.1606388 0.1597976 0.1596413
 0.1601585 0.161327 0.1630978 0.1653677 0.1679785 0.1707472 0.173494 0.1760662 0.1783779 0.1804444
 0.1823566 0.1841959 0.185967 0.1876186 0.189117 0.1904707 0.1916809 0.1927129 0.1935483 0.1942323
 0.1948356 0.1953839 0.1958522 0.1962074 0.1964338 0.1965272 0.1964908 0.1963534 0.1962005 0.1961756
 0.1964225 0.1970017 0.1978593 0.1988727 0.199927 0.2009606 0.2019589 0.2029226 0.2038564 0.2047781
 0.2057144 0.2066868 0.2077175 0.2088414 0.2100907 0.2114706 0.2129616 0.2145354 0.2161499 0.2177391
 0.2192199 0.2205105 0.2215544 0.2223362 0.2228725 0.2231886 0.2233148 0.2232945 0.2231744 0.2229856
 0.2227405 0.2224394 0.2220741 0.2216365 0.2211288 0.22056 0.2199445 0.2193096 0.2186882 0.2180935
 0.2175162 0.2169499 0.2164011 0.2158747 0.2153657 0.214862 0.2143467 0.2138045 0.2132342 0.2126482
 0.2120574 0.2114555 0.2108111 0.2100788 0.2092322 0.2082798 0.2072373 0.2060981 0.2048488 0.2034981
 0.2020694 0.2005728 0.1990016 0.197351 0.1956327 0.1938612 0.192026 0.1900896 0.1880355 0.1859125
 0.1838162 0.181832 0.1800047 0.1783352 0.1767878 0.1753132 0.1738783 0.1724769 0.1711199 0.1698293
 0.1686279 0.1675185 0.1664793 0.1654878 0.1645402 0.1636521 0.1628497 0.162155 0.1615692 0.1610744
 0.1606489 0.1602773 0.1599573 0.1597126 0.1595787 0.1595548 0.1595808 0.1595731 0.1594799 0.1593043
 0.1590922 0.1588976 0.1587475 0.1586343 0.1585317 0.1583997 0.1581813 0.1578059 0.1571958 0.1562776
 0.1550179 0.1534546 0.1516788 0.1497984 0.14793 0.1461952 0.1446879 0.1434534 0.1424949 0.141774
 0.1412151 0.1407512 0.1403717 0.1401173 0.1400374 0.1401381 0.1403342 0.1404786 0.1404926 0.1404598
 0.1405552 0.1408992 0.1414882 0.1422124 0.1429219 0.1435093 0.1439479 0.14425 0.1444275 0.1445048
 0.1445158 0.1444658 0.1443318 0.1441016 0.143786 0.1434091 0.1429975 0.1425574 0.1420626 0.1414858
 0.1408184 0.140049 0.1391653 0.1381789 0.137094 0.1358836 0.1345868 0.1334077 0.1326377 0.1324725
 0.1329021 0.1337314 0.1347135 0.135708 0.1366621 0.1374231 0.1377575 0.1377163 0.1378482 0.1388143
 0.1407483 0.1431051 0.1451496 0.1464936 0.1471438 0.1472147 0.1467682 0.1458411 0.1444371 0.1425152
 0.1400952 0.137311 0.1343111 0.1312297 0.1282595 0.1255968 0.1233287 0.1214664 0.1200114 0.1190134
 0.1186024 0.1184009 0.1165454 0.1106658 0.1015295 0.0946677 0.09573241 0.1041443 0.1134873 0.1182885
 0.1183853 0.1166888 0.1152176 0.114282 0.1137725 0.1138135 0.1145247 0.1157734 0.1171839 0.1183572
 0.1191239 0.1195108 0.1194624 0.1186299 0.1163203 0.1117127 0.1045128 0.09556605 0.08659063 0.0791703
 0.07402184 0.07100317 0.06947862 0.06870436 0.06818734 0.06788653 0.06809588 0.06911214 0.07099056 0.07357687
 0.0766677 0.08001545 0.08323722 0.08594908 0.08804952 0.08971108 0.09106635 0.09205206 0.09256158 0.09259687
 0.09225305 0.09165452 0.09091615 0.09010132 0.08919214 0.08812493 0.0869094 0.08573356 0.08487342 0.08444187
 0.08430141 0.08426013 0.08424442 0.08425052 0.08426012 0.08425432 0.08423488 0.08423416 0.08434258 0.08465511
 0.08514027 0.08563165 0.08597779 0.08615342 0.08622946 0.08624832 0.08610778 0.08564657 0.08493127 0.08429496
 0.0838999 0.08343715 0.08253124 0.08132172 0.08037183 0.0800613 0.08027629 0.08063856 0.08084403 0.08079532
 0.08060025 0.08052294 0.08080177 0.08137232</values></Ydata></ScSm><ScRf><Ydata ylabel="Single channel"><values byteorder="INTEL" format="FLOAT32" numvalues="1820"> 0.06058403 0.06074334 0.06084003 0.06087214 0.06086577 0.06086982 0.06093484 0.06108043 0.06127888 0.06146964
 0.06159908 0.06165615 0.0616653 0.06164732 0.06161193 0.06159163 0.06164376 0.06179298 0.0619881 0.06213389
 0.06216864 0.06212135 0.06209525 0.06216715 0.0622841 0.0622817 0.06203704 0.06160606 0.06118572 0.06093336
 0.060872 0.06100625 0.0614135 0.06204596 0.0625179 0.06238417 0.06169675 0.06102587 0.06082516 0.0609981
 0.06116597 0.06110273 0.06080309 0.06040445 0.06023149 0.06070353 0.06192162 0.06333555 0.06394318 0.06291814
 0.06019744 0.05667891 0.05389788 0.05320232 0.05479776 0.05747079 0.05950097 0.06003319 0.05948733 0.05869444
 0.05800811 0.05740357 0.05703897 0.05728468 0.05820726 0.0592239 0.0593937 0.05821025 0.05620474 0.05458549
 0.05414274 0.05474198 0.05595068 0.05751226 0.0586975 0.05793426 0.05434903 0.04972111 0.04769136 0.05030259
 0.05582282 0.06045121 0.06170376 0.05978522 0.05647121 0.05363801 0.05257272 0.05361779 0.05609146 0.05886475
 0.06105815 0.06207693 0.06145201 0.05924846 0.05646466 0.05454036 0.05447069 0.05642878 0.05973139 0.06288025
 0.06423663 0.06323953 0.06078399 0.05826619 0.05665996 0.056519 0.058105 0.06110456 0.06462529 0.06773074
 0.06982668 0.07069039 0.07049846 0.0697256 0.06879016 0.06798399 0.06772675 0.06830522 0.0691912 0.06924674
 0.06797137 0.06618184 0.06517676 0.06539786 0.0660769 0.06616152 0.06537297 0.0640309 0.06201477 0.05876256
 0.05455825 0.05085471 0.0488223 0.04847145 0.04953124 0.05189468 0.05457451 0.05563448 0.054299 0.05230922
 0.05217927 0.05451746 0.05772023 0.05995873 0.06087458 0.06145691 0.06275532 0.06479814 0.06644598 0.06624182
 0.06385596 0.06090926 0.05982968 0.06146798 0.06428285 0.06624696 0.0669916 0.06757566 0.06863832 0.06940909
 0.06850769 0.06557648 0.06216438 0.06077346 0.06267917 0.06665262 0.06984802 0.06990282 0.06652771 0.061589
 0.05765898 0.05623338 0.05731792 0.06039664 0.06500584 0.07023147 0.07447965 0.07636014 0.07568952 0.07342508
 0.07057552 0.06726348 0.06323282 0.0593969 0.05804488 0.06067663 0.06607676 0.07132502 0.07440726 0.07522386
 0.07444279 0.07223938 0.06849326 0.06403269 0.06105386 0.06141499 0.06440592 0.0671488 0.06762041 0.06649818
 0.06567857 0.06589101 0.06642547 0.06661551 0.06679337 0.06774329 0.06960096 0.07156451 0.07267919 0.07270226
 0.07214539 0.07166907 0.07147937 0.07117754 0.07033326 0.06936893 0.06949806 0.07139122 0.07424393 0.07660072
 0.0778071 0.07823403 0.07830346 0.07775265 0.07601814 0.07330093 0.07100167 0.07068254 0.07255261 0.07533485
 0.07759275 0.07876624 0.07903177 0.07877208 0.07831644 0.07784115 0.07743197 0.07731144 0.07777693 0.07877174
 0.07979551 0.08040443 0.08057006 0.08045287 0.08008985 0.07946461 0.07873388 0.07822491 0.07819939 0.07865758
 0.07938691 0.08015456 0.08078182 0.08109614 0.08099468 0.08059019 0.080149 0.07984671 0.07969628 0.07970493
 0.07993761 0.0803801 0.08086643 0.08121382 0.08136985 0.08139125 0.08133556 0.08121802 0.08104993 0.08088751
 0.08083121 0.08095126 0.08120088 0.08145065 0.08164279 0.08184889 0.08211881 0.08234497 0.08237118 0.08219758
 0.08199081 0.08190537 0.08196002 0.08207749 0.08217396 0.08217983 0.08202733 0.08170515 0.08134476 0.08117685
 0.08134796 0.08181421 0.08242193 0.08301841 0.08347546 0.0837165 0.08377439 0.08375508 0.08371344 0.08361654
 0.08343942 0.08325047 0.08318713 0.08335385 0.08372968 0.08417452 0.08453846 0.08475582 0.08484706 0.08488919
 0.08498619 0.08518508 0.08539776 0.08548085 0.08541651 0.08534622 0.08539984 0.08554518 0.08563796 0.08559312
 0.08547913 0.08544306 0.08555993 0.08577383 0.08598112 0.08614275 0.08630236 0.08650607 0.08671588 0.0868185
 0.08674312 0.08655618 0.08639701 0.08633043 0.08632116 0.08634718 0.08645441 0.08666548 0.08689719 0.08702819
 0.08703281 0.08700429 0.0870391 0.08712539 0.08716257 0.08707735 0.08689956 0.08672941 0.08665192 0.08668312
 0.08677454 0.0868529 0.08686504 0.08680305 0.08669683 0.08658301 0.08648378 0.08642089 0.08643995 0.08658744
 0.08683886 0.08706546 0.08711399 0.08694155 0.08666329 0.08645235 0.08638839 0.08640326 0.08636612 0.08620884
 0.08596825 0.08572724 0.08553836 0.08540229 0.08529553 0.08520444 0.08514516 0.08515999 0.08527302 0.08542988
 0.08550525 0.08540751 0.08517037 0.08491658 0.0847449 0.08467469 0.08467106 0.0846847 0.08468635 0.08469406
 0.08474475 0.08482131 0.08484755 0.08478084 0.08467241 0.08461563 0.08466934 0.0848342 0.08505102 0.08521183
 0.08523069 0.08513017 0.08502343 0.08499874 0.08505183 0.0851329 0.08521707 0.08530883 0.08540976 0.08551451
 0.08563345 0.08579594 0.08602101 0.08628733 0.08653679 0.08671345 0.08681083 0.08688633 0.0870231 0.08726612
 0.08758819 0.08791484 0.08818421 0.08838935 0.08856678 0.08874781 0.08893321 0.08912146 0.08933941 0.08961755
 0.08994474 0.0902756 0.09058045 0.09086559 0.0911478 0.09143126 0.09171426 0.09200896 0.09234739 0.09275393
 0.09319761 0.09358639 0.09383963 0.09396947 0.0940766 0.09426984 0.09459051 0.09498423 0.09532884 0.09552734
 0.09560721 0.09570205 0.09590568 0.09617686 0.09642442 0.09665107 0.09695345 0.09738383 0.09786314 0.09825061
 0.09847824 0.09860328 0.09873645 0.0989275 0.09912714 0.09926353 0.09933791 0.09941801 0.09954897 0.09971836
 0.09992018 0.1001964 0.1005746 0.1009991 0.1013725 0.1016473 0.1018461 0.1020071 0.1021442 0.1022467
 0.1022957 0.1022931 0.102287 0.1023385 0.1024498 0.1025559 0.1026065 0.1026279 0.1026844 0.1028118
 0.1030131 0.1032853 0.1036075 0.1039251 0.1041959 0.1044521 0.1047667 0.1051395 0.1054628 0.1056363
 0.1056799 0.1056912 0.1057229 0.1057643 0.1058233 0.1059549 0.1061925 0.1065032 0.1068327 0.1071611
 0.1074984 0.1078447 0.1081676 0.1084109 0.1085271 0.1085194 0.108456 0.1084345 0.1085264 0.1087427
 0.1090388 0.1093477 0.1096161 0.1098123 0.1099109 0.1099007 0.1098263 0.1097931 0.1098844 0.110069
 0.1102165 0.1102072 0.1100075 0.109644 0.1091455 0.1085344 0.1078584 0.1072002 0.1066442 0.1062418
 0.1060151 0.1059893 0.1062027 0.1066627 0.1073 0.1079919 0.1086321 0.1091515 0.1094731 0.1095019
 0.109195 0.1086185 0.1079054 0.1071753 0.1064982 0.1058927 0.1053276 0.1047634 0.1042366 0.103895
 0.1039268 0.1044505 0.1054592 0.1068267 0.1083454 0.1097935 0.1110229 0.1120105 0.1128255 0.1135463
 0.1142157 0.114861 0.1155172 0.1161965 0.1168535 0.117424 0.1178969 0.118319 0.1187314 0.1191279
 0.1194751 0.1197513 0.1199673 0.1201645 0.1203759 0.1205759 0.1206909 0.1206798 0.1205819 0.1204677
 0.1203588 0.1202139 0.1199737 0.1196123 0.1191728 0.1187824 0.1186244 0.1188602 0.1195418 0.1205833
 0.1218221 0.1231164 0.1243803 0.1255362 0.1264854 0.1271622 0.1275984 0.1279017 0.1281746 0.1284665
 0.1287818 0.1291039 0.1294146 0.129707 0.1299869 0.1302677 0.1305664 0.1308934 0.1312326 0.1315448
 0.1318047 0.1320372 0.1323045 0.1326492 0.1330478 0.1334302 0.1337549 0.1340496 0.1343585 0.1346689
 0.1349268 0.1351158 0.1352826 0.1354873 0.1357608 0.1360998 0.1364661 0.1367929 0.1370313 0.1371987
 0.1373605 0.1375639 0.1378065 0.1380642 0.1383229 0.1385778 0.1388251 0.1390725 0.1393447 0.139655
 0.1399714 0.1402328 0.1404096 0.1405382 0.1406843 0.1408804 0.1411046 0.1413167 0.1415062 0.1417064
 0.141962 0.1422774 0.1426005 0.1428619 0.1430349 0.1431524 0.1432699 0.1434224 0.1436138 0.1438306
 0.1440546 0.1442689 0.1444659 0.144655 0.1448553 0.1450764 0.1453086 0.1455339 0.1457442 0.145946
 0.1461479 0.146351 0.1465572 0.1467824 0.1470459 0.1473428 0.1476347 0.1478778 0.1480586 0.1481968
 0.1483215 0.1484527 0.1486009 0.1487719 0.148967 0.1491825 0.1494082 0.1496304 0.1498404 0.1500402
 0.1502377 0.1504361 0.150634 0.150833 0.151041 0.1512653 0.1515038 0.1517433 0.1519658 0.1521605
 0.1523335 0.1525054 0.1526949 0.1529018 0.1531091 0.153302 0.153484 0.1536693 0.1538638 0.154061
 0.1542537 0.1544426 0.1546322 0.1548248 0.1550189 0.1552128 0.1554075 0.1556058 0.1558078 0.1560104
 0.1562106 0.1564063 0.1565968 0.1567847 0.1569774 0.1571799 0.1573877 0.1575902 0.1577803 0.1579611
 0.1581456 0.1583452 0.1585586 0.1587733 0.1589792 0.1591771 0.1593736 0.159574 0.1597782 0.1599821
 0.1601826 0.1603811 0.1605801 0.1607799 0.1609819 0.1611904 0.1614067 0.1616254 0.1618398 0.1620473
 0.1622497 0.1624544 0.1626706 0.1628996 0.1631327 0.1633611 0.1635829 0.1637992 0.1640072 0.1642014
 0.1643798 0.1645481 0.1647152 0.1648833 0.1650474 0.1652079 0.1653729 0.1655489 0.1657368 0.1659369
 0.1661461 0.1663557 0.166559 0.1667592 0.166963 0.1671723 0.167384 0.1675922 0.1677929 0.1679885
 0.1681848 0.1683839 0.1685864 0.1687952 0.16901 0.1692249 0.169436 0.1696442 0.1698498 0.1700553
 0.1702679 0.1704894 0.1707116 0.1709273 0.1711367 0.1713405 0.1715373 0.1717298 0.1719211 0.1721129
 0.1723118 0.1725253 0.1727498 0.1729742 0.1731936 0.1734082 0.1736198 0.1738339 0.174054 0.174273
 0.1744861 0.1747018 0.1749285 0.1751602 0.1753848 0.1755953 0.1757922 0.1759866 0.176193 0.1764102
 0.1766257 0.1768397 0.1770565 0.1772567 0.1773853 0.1773246 0.1767981 0.1752611 0.1718821 0.1657074
 0.1560427 0.1428914 0.1271074 0.1100958 0.09330021 0.07782537 0.06432159 0.05306749 0.04411585 0.03738698
 0.03272639 0.03000131 0.02920113 0.03053781 0.03455818 0.04182243 0.05167771 0.06116797 0.06618336 0.06470601
 0.05873831 0.05247535 0.04881916 0.04797925 0.04872331 0.04999799 0.05146574 0.05331207 0.05586345 0.05921393
 0.06320371 0.06782212 0.07341087 0.08023235 0.08794137 0.09572241 0.10299 0.109849 0.1168305 0.1242462
 0.1318541 0.1390944 0.1455387 0.1511088 0.1559865 0.1604131 0.164553 0.1684782 0.1722178 0.1757629
 0.178992 0.1816359 0.1834027 0.1841994 0.1842429 0.1839414 0.1836554 0.1835545 0.1836539 0.1839209
 0.1843289 0.18486 0.1855018 0.1862403 0.1870477 0.1878857 0.1887211 0.1895307 0.1902993 0.1910202
 0.1916903 0.192303 0.1928557 0.1933587 0.1938272 0.1942688 0.1946836 0.1950705 0.1954293 0.1957653
 0.1960899 0.1964086 0.1967126 0.1969883 0.1972321 0.1974509 0.1976586 0.1978695 0.1980879 0.198306
 0.1985154 0.1987175 0.1989177 0.1991196 0.1993252 0.199535 0.1997456 0.1999519 0.2001512 0.2003436
 0.2005315 0.2007201 0.2009134 0.2011091 0.2013015 0.2014873 0.2016658 0.2018391 0.2020124 0.2021929
 0.2023845 0.2025874 0.2027974 0.203008 0.2032159 0.2034251 0.2036398 0.2038577 0.204078 0.2043061
 0.2045403 0.2047671 0.2049775 0.2051762 0.2053667 0.2055424 0.2057006 0.2058564 0.2060337 0.2062447
 0.2064772 0.2067034 0.2069057 0.2070919 0.2072829 0.2074884 0.2076992 0.2078963 0.2080713 0.2082439
 0.2084489 0.2086957 0.2089573 0.2092066 0.2094431 0.2096771 0.2099142 0.2101586 0.2104053 0.2106253
 0.2107879 0.2109075 0.2110507 0.2112851 0.211614 0.2119693 0.2122785 0.2125308 0.2127639 0.2130107
 0.2132814 0.2135544 0.2137547 0.2138028 0.213744 0.2137703 0.2140438 0.2145348 0.2150752 0.215529
 0.2158746 0.2161602 0.2164276 0.2166691 0.2168343 0.2168862 0.216871 0.2169297 0.2171963 0.217661
 0.2181696 0.2185816 0.2188808 0.219115 0.2193153 0.2194965 0.219629 0.2195887 0.2192854 0.2189006
 0.2188437 0.2193535 0.220224 0.2210262 0.2215395 0.2218607 0.2221471 0.2224192 0.2226275 0.2226984
 0.2224286 0.2215973 0.220412 0.2196339 0.2199453 0.2212571 0.2228448 0.224071 0.2247868 0.2251651
 0.2254146 0.22564 0.2257668 0.2255588 0.2248817 0.2240413 0.2236971 0.2242523 0.2253978 0.2264434
 0.2270215 0.2272753 0.2274809 0.2277446 0.2279351 0.2276418 0.2264009 0.2243769 0.2227132 0.2227292
 0.2246263 0.2272466 0.229225 0.2301682 0.2305411 0.2306563 0.2302167 0.22885 0.2266568 0.2241569
 0.2221489 0.221628 0.2231239 0.2258514 0.2281538 0.2291463 0.2294616 0.2301731 0.2315001 0.2328127
 0.2334628 0.2332929 0.2325104 0.2313178 0.2298181 0.228374 0.2278173 0.2288517 0.2311995 0.2337039
 0.2354042 0.2362673 0.2366755 0.2362949 0.2338575 0.2286914 0.2226113 0.2193986 0.2214581 0.2273038
 0.2331545 0.2366444 0.2381068 0.238798 0.2392224 0.2389952 0.2370464 0.2321863 0.2249613 0.2188573
 0.2179534 0.2228798 0.2301024 0.2352336 0.2360516 0.232745 0.2270921 0.2219023 0.2198761 0.2219836
 0.2270506 0.2329138 0.237711 0.2403943 0.2407336 0.2392106 0.2369593 0.2354819 0.2355662 0.2361011
 0.2349178 0.2315374 0.2279911 0.225831 0.2236948 0.2197855 0.2158238 0.2159043 0.2212009 0.2280347
 0.2320281 0.2325436 0.2318589 0.2309706 0.2278222 0.2202287 0.2100131 0.2030404 0.204097 0.2119407
 0.2204281 0.2245361 0.2243433 0.2231981 0.2232361 0.2232049 0.2202385 0.2136346 0.2067071 0.2039738
 0.2063145 0.2101794 0.2117533 0.2099513 0.2049722 0.1970969 0.1889957 0.1864875 0.1935786 0.2075258
 0.2210302 0.2282613 0.226914 0.2168033 0.2007313 0.186303 0.1822121 0.1904047 0.2037038 0.2124414
 0.2120997 0.2040126 0.1912648 0.176686 0.1642312 0.159216 0.1650808 0.179974 0.1968794 0.2070361
 0.2047067 0.1916889 0.1778432 0.1739672 0.1818774 0.1931377 0.1985442 0.1965095 0.1916205 0.1887508
 0.1902877 0.1958129 0.2025192 0.207815 0.211372 0.2120911 0.2052725 0.18826 0.1678914 0.1560169
 0.1571848 0.1662242 0.1777501 0.19104 0.2039795 0.2096666 0.2042079 0.1941391 0.190925 0.1987799
 0.2110314 0.2183059 0.2178227 0.2139401 0.2113665 0.2101163 0.2078758 0.2054656 0.2070048 0.2142685
 0.2236125 0.2300369 0.2323664 0.2328154 0.2332035 0.2335704 0.233448 0.232684 0.2313513 0.2298525
 0.2288049 0.228337 0.2279673 0.2273397 0.2261764 0.2231187 0.216021 0.2049718 0.1942371 0.1888911
 0.1894209 0.1920477 0.1943199 0.1965304 0.196489 0.1880861 0.1693864 0.1492205 0.1407556 0.1487753
 0.1661234 0.1818376 0.1895486 0.1879998 0.1777129 0.1611312 0.1452564 0.1395295 0.1481513 0.1660241
 0.1841654 0.1974555 0.2053332 0.2075425 0.2030738 0.193147 0.1825176 0.1768045 0.1790183 0.1881711
 0.199657 0.2065397 0.2029226 0.1897466 0.1773981 0.1781274 0.1932431 0.2109897 0.2197486 0.2198244
 0.2189111 0.2201428 0.2204453 0.2187881 0.2196093 0.2266579 0.2374348 0.2456475 0.2467316 0.2396453
 0.2263267 0.2122248 0.2049004 0.2079174 0.2167283 0.2235824 0.2250212 0.2214284 0.2124441 0.1989177
 0.1878184 0.1880493 0.2001371 0.2150373 0.2244128 0.2282279 0.2310019 0.2340213 0.233797 0.2273897
 0.2173619 0.2102185 0.2099728 0.2146088 0.2194532 0.2221088 0.2224776 0.2199303 0.213693 0.2060368
 0.2023254 0.2063206 0.2162499 0.2264561 0.2324589 0.2337397 0.232367 0.2303299 0.228226 0.2254492
 0.2215049 0.21771 0.2169531 0.2206193 0.2264023 0.2306761 0.232658 0.2346893 0.238554 0.243026
 0.2453747 0.2443478 0.2413448 0.2391772 0.2398107 0.2428095 0.2456597 0.2459155 0.243535 0.2411438
 0.2416208 0.2453584 0.2502093 0.2539296 0.2560032 0.2571861 0.2581986 0.2590905 0.2592084 0.2576963
 0.2547098 0.2521154 0.2521648 0.255263 0.2595855 0.2629626 0.264628 0.2650968 0.2649777 0.2643404
 0.2630627 0.2613983 0.2599919 0.2593757 0.2595901 0.2603084 0.2611727 0.2619517 0.2625356 0.2629246
 0.2631872 0.2633703 0.2634819 0.263551 0.2636192 0.2636621 0.2636156 0.2635139 0.2635107 0.2637054
 0.2640095 0.2642382 0.2642711 0.2640548 0.263515 0.2625858 0.2613237 0.2598817 0.2583376 0.2566507
 0.2548915 0.2534755 0.253029 0.25392 0.2559163 0.2583283 0.2604768 0.2620283 0.2629836 0.2634893
 0.2637071 0.2637748 0.2637818 0.2637468 0.2636399 0.2634357 0.2631428 0.2627886 0.2624003 0.2620061
 0.2616387 0.261323 0.2610549 0.2607958 0.260489 0.2600933 0.2596108 0.2590837 0.2585524 0.2580102
 0.2574012 0.2566659 0.2557952 0.2548446 0.2539038 0.2530447 0.2522773 0.2515481 0.2507914 0.2499754
 0.2490836 0.2480771 0.2469347 0.2457367 0.2446498 0.2437902 0.2431264 0.2425267 0.2418692 0.2410944
 0.2401985 0.2392161 0.2381954 0.2371602 0.2360942 0.2349671 0.2337638 0.2324818 0.2311187 0.2296754
 0.2281626 0.2265947 0.2249863 0.2233537 0.2216937 0.2199458 0.2179884 0.2156808 0.2129037 0.2095714
 0.2056503 0.2011982 0.1963775 0.1914088 0.1865003 0.1818114 0.1774613 0.1735518 0.1701759 0.16741
 0.1653046 0.1638833 0.1631536 0.1631213 0.163791 0.1651443 0.1671135 0.1695758 0.172369 0.1753149
 0.178243 0.1810177 0.183566 0.185894 0.1880633 0.1901277 0.1920805 0.1938742 0.195479 0.1968976
 0.1981302 0.1991631 0.2000008 0.2006802 0.2012436 0.2017179 0.202125 0.2024904 0.2028286 0.2031299
 0.2033788 0.2035813 0.203768 0.2039691 0.2041962 0.2044495 0.2047325 0.2050583 0.2054465 0.2059115
 0.2064455 0.2070201 0.2076147 0.2082326 0.2088832 0.2095675 0.2102982 0.2111185 0.2120794 0.2132002
 0.2144582 0.2158076 0.2171919 0.2185392 0.2197598 0.2207699 0.2215254 0.2220308 0.222318 0.2224239
 0.2223819 0.2222167 0.2219423 0.2215707 0.2211187 0.2206016 0.2200281 0.2194064 0.2187462 0.2180539
 0.2173362 0.216613 0.2159121 0.2152466 0.2146086 0.2139872 0.2133803 0.2127871 0.212198 0.2116015
 0.2109993 0.210407 0.2098389 0.2092927 0.2087483 0.2081728 0.2075265 0.206778 0.2059246 0.2049901
 0.2039905 0.2029115 0.2017274 0.2004351 0.1990553 0.1976083 0.1961009 0.1945336 0.1929084 0.1912208
 0.1894463 0.1875513 0.1855344 0.183458 0.181428 0.1795354 0.1778151 0.176249 0.1747931 0.173408
 0.1720744 0.1707864 0.1695418 0.168346 0.167213 0.1661466 0.1651325 0.1641617 0.1632507 0.1624284
 0.1617095 0.161086 0.1605399 0.1600609 0.1596525 0.1593195 0.1590628 0.1588944 0.1588351 0.1588752
 0.1589516 0.1589873 0.1589471 0.1588467 0.1587223 0.1586015 0.158494 0.158402 0.1583258 0.1582461
 0.1581037 0.15781 0.1572719 0.1564127 0.1552013 0.1536765 0.1519317 0.1500826 0.1482556 0.1465743
 0.1451236 0.1439395 0.14303 0.1423721 0.1418976 0.1415279 0.1412367 0.1410639 0.1410676 0.1412505
 0.1415079 0.1416816 0.1417096 0.1417023 0.1418413 0.1422328 0.1428608 0.1436221 0.1443851 0.1450558
 0.1455979 0.1459973 0.1462494 0.1463836 0.1464392 0.1464161 0.1462923 0.1460746 0.1457944 0.1454795
 0.1451448 0.1447772 0.1443333 0.1437831 0.1431309 0.1423834 0.1415419 0.1406178 0.1395965 0.1384341
 0.1371762 0.1360435 0.1353218 0.1351824 0.1356068 0.1364233 0.1374269 0.1385046 0.1395819 0.1404442
 0.1408143 0.1407611 0.140888 0.1418963 0.1439288 0.1464252 0.1486242 0.1501117 0.1508716 0.1510006
 0.1505645 0.1496304 0.1482229 0.1462872 0.1438246 0.1409758 0.1379056 0.1347531 0.1317143 0.1289937
 0.1266852 0.1248033 0.1233451 0.1223479 0.1219444 0.1217659 0.1199021 0.1138957 0.1045348 0.09754264
 0.09874909 0.1075265 0.1172406 0.1222622 0.1224377 0.1207577 0.1192785 0.1183048 0.1177408 0.1177582
 0.118504 0.1198165 0.1212693 0.1224429 0.1231836 0.1235432 0.1234746 0.1226065 0.1202067 0.1154364
 0.1080202 0.09883228 0.08960828 0.08194711 0.07658781 0.07340913 0.07178172 0.07094878 0.07039997 0.0700965
 0.07034674 0.07143992 0.07340545 0.07608756 0.07930754 0.08282129 0.08621191 0.08905788 0.0912447 0.09295553
 0.09434308 0.09535518 0.09588294 0.09593198 0.09561157 0.09504742 0.09433995 0.09354626 0.09264658 0.0915588
 0.09027641 0.08900768 0.08807431 0.08762503 0.08753271 0.08758473 0.0876586 0.08770507 0.08769806 0.08764325
 0.08757244 0.08753676 0.08762576 0.08791776 0.08836851 0.08881163 0.08910008 0.08922122 0.0892704 0.08929714
 0.08916752 0.08868285 0.08790617 0.08719325 0.0867276 0.08620443 0.08522705 0.08390898 0.08282967 0.0824237
 0.08259796 0.08293113 0.08307737 0.08295548 0.08271974 0.08265664 0.0829867 0.08360235 0.08406177 0.08399695
</values></Ydata></ScRf><Data_Parameters_AB><parameter name="DPF">1</parameter><parameter name="NPT">3497</parameter><parameter name="FXV">3996</parameter><parameter name="LXV">500</parameter><parameter name="CSF">1</parameter><parameter name="MXY">0.0351212173700333</parameter><parameter name="MNY">-0.071484312415123</parameter><parameter name="DAT">20/05/2022</parameter><parameter name="TIM">10:52:00.391 (GMT+2)</parameter><parameter name="DXU">WN</parameter></Data_Parameters_AB><AB__Qtest><MainReport name="Quality Test Report"><Header><Line><Legend>Test result ok/not ok [1/0]: </Legend><Value>0</Value></Line><Line><Legend>Method file: </Legend><Value>C:\Users\Public\Documents\Bruker\OPUS_8.2.28\QT\IRBT_v3_default.QT</Value></Line></Header><Matrix><Line><Legend></Legend><Legend>min</Legend><Legend>max</Legend><Legend>measured</Legend></Line><Line><Value>Absorption (X-Range 1):</Value><Value>0.400000</Value><Value>2.000000</Value><Value>0.061498</Value></Line><Line><Value>Noise (X-Range 4):</Value><Value></Value><Value>0.000300</Value><Value>0.000058</Value></Line><Line><Value>Signal/Noise (X-Range 2):</Value><Value>200.000000</Value><Value></Value><Value>14.478164</Value></Line><Line><Value>Signal/Noise (X-Range 3):</Value><Value>40.000000</Value><Value></Value><Value>18.715273</Value></Line><Line><Value>Water vapour (X-Range 5):</Value><Value></Value><Value>0.000300</Value><Value>0.000030</Value></Line><Line><Value>Signal/Water (X-Range 2):</Value><Value>100.000000</Value><Value></Value><Value>27.571737</Value></Line><Line><Value>Signal/Water (X-Range 3):</Value><Value>20.000000</Value><Value></Value><Value>35.640746</Value></Line><Line><Value>Fringes (X-Range 6):</Value><Value></Value><Value>0.000100</Value><Value>0.000060</Value></Line></Matrix></MainReport></AB__Qtest><Data_Parameters_ScSm><parameter name="DPF">1</parameter><parameter name="NPT">1814</parameter><parameter name="FXV">3996.33169228125</parameter><parameter name="LXV">499.541461535156</parameter><parameter name="CSF">1</parameter><parameter name="MXY">0.272063672542572</parameter><parameter name="MNY">0.0330778621137142</parameter><parameter name="DAT">20/05/2022</parameter><parameter name="TIM">10:52:00.391 (GMT+2)</parameter><parameter name="DXU">WN</parameter></Data_Parameters_ScSm><Data_Parameters_ScRf><parameter name="DPF">1</parameter><parameter name="NPT">1820</parameter><parameter name="FXV">4004.04661832813</parameter><parameter name="LXV">495.683998511719</parameter><parameter name="CSF">1</parameter><parameter name="MXY">0.265096783638</parameter><parameter name="MNY">0.0292011313140392</parameter><parameter name="DAT">20/05/2022</parameter><parameter name="TIM">10:51:34.755 (GMT+2)</parameter><parameter name="DXU">WN</parameter></Data_Parameters_ScRf><Optic_Parameters_Rf><parameter name="APR">0</parameter><parameter name="APT">Open</parameter><parameter name="BMS">KBr</parameter><parameter name="DTC">RT-DLaTGS_IR-Biotyper [Microplate reader]</parameter><parameter name="HPF">0</parameter><parameter name="LPF">10.0</parameter><parameter name="LPV">4000</parameter><parameter name="PGR">0</parameter><parameter name="RCH">Module port</parameter><parameter name="RDX">0</parameter><parameter name="SRC">MIR</parameter><parameter name="VEL">10.0</parameter><parameter name="SON">Off</parameter></Optic_Parameters_Rf><Acquisition_Parameters_Rf><parameter name="ADT">1</parameter><parameter name="AQM">DD</parameter><parameter name="CFE">0</parameter><parameter name="COR">0</parameter><parameter name="DEL">0</parameter><parameter name="DLY">0</parameter><parameter name="HFW">8000</parameter><parameter name="LFW">0</parameter><parameter name="NSR">32</parameter><parameter name="PLF">AB</parameter><parameter name="RES">6</parameter><parameter name="RGN">-1</parameter><parameter name="STR">0</parameter><parameter name="TCL">MakeCompatibleScalar (0, {WSV=1.000000, ARV=0});</parameter><parameter name="TDL">37</parameter><parameter name="RPO">0</parameter></Acquisition_Parameters_Rf><FT_-_Parameters_Rf><parameter name="APF">B3</parameter><parameter name="HFQ">500</parameter><parameter name="LFQ">4000</parameter><parameter name="NLI">0</parameter><parameter name="PHR">24</parameter><parameter name="PHZ">ML</parameter><parameter name="SPZ">NO</parameter><parameter name="ZFF">1</parameter></FT_-_Parameters_Rf><Optic_Parameters_><parameter name="APR">0</parameter><parameter name="APT">Open</parameter><parameter name="BMS">KBr</parameter><parameter name="CHN">Module port</parameter><parameter name="DTC">RT-DLaTGS_IR-Biotyper [Microplate reader]</parameter><parameter name="HPF">0</parameter><parameter name="LPF">10.0</parameter><parameter name="LPV">4000</parameter><parameter name="PGN">0</parameter><parameter name="RDX">0</parameter><parameter name="SRC">MIR</parameter><parameter name="VEL">10.0</parameter><parameter name="SON">Off</parameter></Optic_Parameters_><FT_-_Parameters_><parameter name="APF">B3</parameter><parameter name="HFQ">500</parameter><parameter name="LFQ">4000</parameter><parameter name="NLI">0</parameter><parameter name="PHR">24</parameter><parameter name="PHZ">ML</parameter><parameter name="SPZ">NO</parameter><parameter name="ZFF">1</parameter></FT_-_Parameters_><Acquisition_Parameters_><parameter name="ADT">1</parameter><parameter name="AQM">DD</parameter><parameter name="CFE">0</parameter><parameter name="COR">0</parameter><parameter name="DEL">0</parameter><parameter name="DLY">0</parameter><parameter name="HFW">8000</parameter><parameter name="LFW">0</parameter><parameter name="NSS">32</parameter><parameter name="PLF">AB</parameter><parameter name="RES">6</parameter><parameter name="SOT">0</parameter><parameter name="TCL">MakeCompatibleScalar (0, {WSV=1.000000, ARV=0});</parameter><parameter name="TDL">37</parameter><parameter name="SPO">0</parameter><parameter name="SGN">-1</parameter></Acquisition_Parameters_><Instrument_Parameters_Rf><parameter name="HFL">15800.168544</parameter><parameter name="LFL">0</parameter><parameter name="LWN">15800.168544</parameter><parameter name="ABP">32197</parameter><parameter name="SSP">1</parameter><parameter name="ARG">2</parameter><parameter name="ASG">2</parameter><parameter name="ASS">32</parameter><parameter name="GFW">16</parameter><parameter name="GBW">16</parameter><parameter name="BFW">0</parameter><parameter name="BBW">0</parameter><parameter name="PKA">7377</parameter><parameter name="PKL">4990</parameter><parameter name="PRA">7525</parameter><parameter name="PRL">5001</parameter><parameter name="P2A">1</parameter><parameter name="P2L">1</parameter><parameter name="P2R">1</parameter><parameter name="P2K">1</parameter><parameter name="DAQ">0</parameter><parameter name="AG2">1</parameter><parameter name="SSM">1</parameter><parameter name="RSN">24487</parameter><parameter name="CRR">0</parameter><parameter name="SRT">1653043894.755</parameter><parameter name="DUR">19.6379852294922</parameter><parameter name="TSC">28.9</parameter><parameter name="MVD">0.307614773511887</parameter><parameter name="AN1">0.225798338804592</parameter><parameter name="AN2">0</parameter><parameter name="VSN">2.485 Apr  4 2017</parameter><parameter name="SRN">0085</parameter><parameter name="CAM">0</parameter><parameter name="INS">IR-Biotyper</parameter><parameter name="FOC">69</parameter><parameter name="RDY">1</parameter><parameter name="ARS">32</parameter></Instrument_Parameters_Rf><Sample_Parameters_><parameter name="BLD"></parameter><parameter name="CNM">Admin</parameter><parameter name="CPY"></parameter><parameter name="DPM"></parameter><parameter name="EXP">IRBT_v3_32Scans.XPM</parameter><parameter name="LCT"></parameter><parameter name="SFM">Microplate, HTS-XT</parameter><parameter name="SNM">220520-0930(v.3)_CLA33F (D_1)_D2_76ae3d12-cfee-4899-8abb-22a26be060a1.0</parameter><parameter name="XPP">C:\Users\Public\Documents\Bruker\OPUS_8.2.28\XPM</parameter><parameter name="IST">OK</parameter><parameter name="CPG">1252</parameter><parameter name="UID">0df6af83-1137-435c-986c-c29191cc8e89</parameter></Sample_Parameters_><Instrument_Parameters_><parameter name="HFL">15800.168544</parameter><parameter name="LFL">0</parameter><parameter name="LWN">15800.168544</parameter><parameter name="ABP">32197</parameter><parameter name="SSP">1</parameter><parameter name="ASG">2</parameter><parameter name="ARG">2</parameter><parameter name="ASS">32</parameter><parameter name="GFW">16</parameter><parameter name="GBW">16</parameter><parameter name="BFW">0</parameter><parameter name="BBW">0</parameter><parameter name="PKA">7842</parameter><parameter name="PKL">4990</parameter><parameter name="PRA">8065</parameter><parameter name="PRL">4993</parameter><parameter name="P2A">1</parameter><parameter name="P2L">1</parameter><parameter name="P2R">1</parameter><parameter name="P2K">1</parameter><parameter name="DAQ">0</parameter><parameter name="AG2">1</parameter><parameter name="SSM">1</parameter><parameter name="RSN">12868</parameter><parameter name="CRR">0</parameter><parameter name="SRT">1653043920.391</parameter><parameter name="DUR">19.6379852294922</parameter><parameter name="TSC">28.9</parameter><parameter name="MVD">0.241550624370575</parameter><parameter name="AN1">0.225804998483334</parameter><parameter name="AN2">0</parameter><parameter name="VSN">2.485 Apr  4 2017</parameter><parameter name="SRN">0085</parameter><parameter name="CAM">0</parameter><parameter name="INS">IR-Biotyper</parameter><parameter name="FOC">69</parameter><parameter name="RDY">1</parameter></Instrument_Parameters_><History/></OPUSDataFile>
