<?xml version="1.0" encoding="UTF-8" ?>
<OPUSDataFile><AB><Ydata ylabel="Absorbance Units"><values byteorder="INTEL" format="FLOAT32" numvalues="3497"> -0.05855728 -0.05851762 -0.05847574 -0.0584312 -0.05839114 -0.05835593 -0.05832276 -0.05829141 -0.05825768 -0.05822266
 -0.05819063 -0.05816314 -0.05814872 -0.05814614 -0.0581578 -0.05817934 -0.05820515 -0.05823099 -0.05824994 -0.05825972
 -0.05825548 -0.05823967 -0.05821063 -0.05817733 -0.05814173 -0.05811439 -0.05809912 -0.05809722 -0.05811071 -0.05812867
 -0.0581505 -0.05816375 -0.05816771 -0.05816063 -0.05814312 -0.05812296 -0.05810051 -0.05808224 -0.05806664 -0.0580519
 -0.0580361 -0.05801344 -0.05798378 -0.05794387 -0.05789553 -0.05783909 -0.05777767 -0.05771264 -0.05764993 -0.05759225
 -0.05754644 -0.05751663 -0.05750196 -0.05750481 -0.05751281 -0.05752445 -0.0575293 -0.05752536 -0.05751872 -0.05750962
 -0.05751438 -0.05753297 -0.05757028 -0.05762294 -0.05767322 -0.05771797 -0.05773403 -0.05772597 -0.05769047 -0.05763951
 -0.05759154 -0.05755435 -0.05754748 -0.05756314 -0.05760468 -0.05765336 -0.0576993 -0.05773224 -0.05774358 -0.05774079
 -0.05772305 -0.05770398 -0.05768573 -0.05767677 -0.05767812 -0.05769502 -0.05772781 -0.05777874 -0.05784703 -0.05792376
 -0.05800532 -0.05806511 -0.0581 -0.05808046 -0.05801484 -0.05790437 -0.05776791 -0.05763819 -0.05752559 -0.05745879
 -0.05742888 -0.05744318 -0.05747457 -0.05751239 -0.05752909 -0.05750747 -0.05745219 -0.05735548 -0.05725805 -0.05716475
 -0.05711154 -0.05710487 -0.05713404 -0.05719898 -0.05725329 -0.05729609 -0.05730382 -0.05728216 -0.05725523 -0.05722806
 -0.05723529 -0.05727021 -0.0573372 -0.05742004 -0.057492 -0.05754575 -0.05755785 -0.05754016 -0.0574941 -0.05743209
 -0.0573619 -0.05728907 -0.05721456 -0.05715346 -0.05710748 -0.05709989 -0.05713607 -0.05722277 -0.05736451 -0.05752127
 -0.05769144 -0.05777676 -0.057776 -0.05764662 -0.05740655 -0.05715434 -0.05689776 -0.0567215 -0.056613 -0.05658418
 -0.05661964 -0.05670186 -0.05681146 -0.05692112 -0.05701161 -0.05705425 -0.05705314 -0.05699469 -0.05691769 -0.05683316
 -0.05677302 -0.05675314 -0.05676005 -0.0567964 -0.05682811 -0.05685103 -0.05685327 -0.05683367 -0.05681039 -0.05678455
 -0.0567769 -0.05678563 -0.05681065 -0.05684647 -0.05687205 -0.05688412 -0.05686177 -0.05680997 -0.05672573 -0.05662004
 -0.05650408 -0.05638817 -0.056284 -0.05619885 -0.05613954 -0.05611097 -0.05611759 -0.05615691 -0.05623192 -0.05632441
 -0.05643385 -0.05653114 -0.05661317 -0.05666017 -0.05667059 -0.05664539 -0.05658537 -0.05650417 -0.05640278 -0.05629408
 -0.05617849 -0.05606362 -0.0559512 -0.05584889 -0.05575933 -0.05569135 -0.05564425 -0.0556231 -0.05561902 -0.05562862
 -0.05563743 -0.05563559 -0.05561646 -0.05557222 -0.05551379 -0.05544042 -0.05537344 -0.05531667 -0.05528277 -0.05527449
 -0.05528658 -0.05531901 -0.05535707 -0.05540005 -0.05543542 -0.05546339 -0.05547921 -0.0554841 -0.05548031 -0.05546882
 -0.05545317 -0.05543396 -0.0554133 -0.05539287 -0.05537437 -0.05536249 -0.05536046 -0.05537579 -0.05541436 -0.05547842
 -0.05557401 -0.05568483 -0.05581151 -0.05592018 -0.05600424 -0.0560462 -0.05604149 -0.05600646 -0.05594203 -0.05585203
 -0.05573597 -0.05558035 -0.05538966 -0.05518728 -0.05498162 -0.05482144 -0.05470487 -0.05465602 -0.05465916 -0.05470074
 -0.05475862 -0.05479651 -0.05481118 -0.05478152 -0.05473062 -0.05466611 -0.05460659 -0.05456356 -0.05453762 -0.05453343
 -0.05453631 -0.05454532 -0.05454202 -0.05452342 -0.05448727 -0.0544329 -0.05437851 -0.05432521 -0.05429433 -0.05428503
 -0.05430412 -0.05434549 -0.05439024 -0.05442933 -0.05442501 -0.05438327 -0.05429267 -0.05417455 -0.05405487 -0.05393767
 -0.05384068 -0.05374496 -0.05364446 -0.05352292 -0.05336728 -0.05319037 -0.05298937 -0.05279706 -0.05261963 -0.05247474
 -0.05236722 -0.05228136 -0.05221698 -0.05213335 -0.05202916 -0.05187809 -0.05168608 -0.05148403 -0.05127789 -0.05111261
 -0.05098021 -0.05088213 -0.05080931 -0.05074412 -0.05068599 -0.05062759 -0.05056889 -0.05050983 -0.05044285 -0.05036481
 -0.05026537 -0.05014003 -0.04998064 -0.04978491 -0.04954357 -0.04925341 -0.04891674 -0.04853195 -0.04811965 -0.04768097
 -0.04723647 -0.04678717 -0.04634945 -0.04592536 -0.0455384 -0.04518944 -0.04489818 -0.0446569 -0.04445706 -0.0442864
 -0.04411714 -0.04394527 -0.04375547 -0.04354451 -0.04330829 -0.04303282 -0.04270484 -0.04232913 -0.04189719 -0.04144749
 -0.04099031 -0.04054726 -0.04012657 -0.0397204 -0.03932921 -0.0389403 -0.0385527 -0.03816333 -0.03777254 -0.03738909
 -0.03701348 -0.03665648 -0.03631287 -0.03596972 -0.03561467 -0.03520244 -0.03473708 -0.0341946 -0.03361141 -0.03302784
 -0.03246298 -0.03195605 -0.03148746 -0.03105865 -0.03064211 -0.03022609 -0.02979457 -0.02933904 -0.02886036 -0.02835595
 -0.02783859 -0.02730924 -0.02678059 -0.02625382 -0.02572978 -0.02520816 -0.02468001 -0.02414568 -0.02360323 -0.02305462
 -0.02250769 -0.02196296 -0.0214263 -0.0208962 -0.02037336 -0.01985403 -0.01933427 -0.01880932 -0.01827131 -0.01772482
 -0.01716776 -0.01661446 -0.01607361 -0.01554208 -0.01502636 -0.01449186 -0.01393269 -0.01332472 -0.01266013 -0.01197209
 -0.01126163 -0.01058261 -0.009936208 -0.009334199 -0.008773011 -0.008230067 -0.007702344 -0.007164055 -0.006616827 -0.006049741
 -0.005471023 -0.004890419 -0.004316603 -0.00376846 -0.003240638 -0.002740418 -0.002243208 -0.001737045 -0.001199202 -0.0006119134
 1.556466E-05 0.0006880927 0.001374221 0.002068763 0.002748925 0.003410568 0.004048128 0.004660521 0.005257583 0.005840131
 0.006426019 0.007015995 0.007624172 0.008250065 0.008899734 0.009570992 0.01026256 0.01096849 0.01167801 0.01238343
 0.01306851 0.01373328 0.01436988 0.01498752 0.01558997 0.01618376 0.01677395 0.01735841 0.0179378 0.01850796
 0.01906749 0.01961798 0.02015851 0.02070033 0.02124389 0.02180636 0.02238829 0.02299781 0.023633 0.02428202
 0.02494196 0.02559244 0.02623441 0.02685918 0.02747122 0.02807573 0.02867459 0.02927445 0.02987004 0.03046016
 0.03103561 0.03158808 0.03211895 0.03262221 0.03311976 0.03361493 0.03413434 0.0346859 0.03527252 0.03589751
 0.03653944 0.03719726 0.03784711 0.038488 0.03910561 0.03970014 0.04026613 0.04080545 0.04132244 0.04182099
 0.04231445 0.04280564 0.04330733 0.043818 0.04434194 0.04487376 0.04541007 0.04594599 0.04647623 0.04700225
 0.04752281 0.04804267 0.04856465 0.0490838 0.0496009 0.05010238 0.05058556 0.05105112 0.05149814 0.05194931
 0.05240559 0.05288405 0.05338249 0.05388937 0.0544008 0.05489146 0.0553624 0.05580165 0.05621688 0.05661702
 0.05701015 0.05741319 0.05782484 0.05825265 0.05868467 0.05911458 0.05953576 0.05994044 0.06033905 0.06073279
 0.06113269 0.06154317 0.061958 0.0623774 0.06279045 0.06319597 0.06359539 0.06398889 0.06438355 0.06477953
 0.0651806 0.06558745 0.066006 0.06643578 0.06688095 0.06733491 0.0677875 0.06823035 0.06864543 0.06903385
 0.06938781 0.06971809 0.07002959 0.07033049 0.07062683 0.07091834 0.07120648 0.07148798 0.07176161 0.07202987
 0.07229211 0.07255885 0.0728308 0.07311755 0.0734193 0.07373371 0.07405951 0.07438412 0.07470679 0.07501724
 0.075316 0.07559928 0.07586802 0.07612131 0.07636275 0.07659514 0.07682698 0.07706723 0.07732292 0.07760439
 0.07790442 0.07822645 0.0785462 0.07885733 0.07913952 0.07938429 0.07960045 0.0797862 0.07996973 0.08015386
 0.08034291 0.08053634 0.08070205 0.0808392 0.080924 0.08096328 0.08097707 0.08097415 0.08099356 0.0810351
 0.08111885 0.08123663 0.08138625 0.08155724 0.0817394 0.08192253 0.08209482 0.08225709 0.08240182 0.08255226
 0.08271264 0.08290891 0.08315176 0.08342937 0.08374611 0.08404665 0.0843275 0.08453463 0.08466613 0.08471622
 0.08468947 0.08462755 0.08453479 0.08445539 0.08438721 0.08434531 0.08432885 0.08434071 0.0843873 0.08448272
 0.08462111 0.08481109 0.08501635 0.08521787 0.08537753 0.08546492 0.08548952 0.08543963 0.08537009 0.08528963
 0.08524507 0.08524724 0.0852944 0.08538926 0.08548645 0.08558346 0.08562396 0.08560812 0.08551177 0.08534492
 0.08514161 0.08491747 0.08474104 0.08461671 0.08459302 0.08465094 0.08478948 0.08497266 0.08516566 0.08533667
 0.0854488 0.08550005 0.08547286 0.08540224 0.08529197 0.0851884 0.08510266 0.08506152 0.0850706 0.08513947
 0.08526922 0.08546981 0.08574151 0.08608106 0.08648371 0.08690356 0.08733001 0.08768322 0.08795953 0.08809856
 0.08811881 0.08802223 0.08784825 0.08765268 0.08747295 0.08737367 0.08735672 0.08745477 0.08761917 0.08784396
 0.08805316 0.08822131 0.08829458 0.08825062 0.08809755 0.08782782 0.08750608 0.08713612 0.08678553 0.08645733
 0.08617182 0.08592664 0.08570251 0.08549934 0.08530469 0.08512554 0.0849787 0.08486856 0.08481836 0.08481456
 0.08485498 0.08490369 0.0849271 0.08488544 0.08473529 0.08447067 0.08406678 0.08357086 0.08298606 0.08238468
 0.08178311 0.08123043 0.08073781 0.0803157 0.07996704 0.07967687 0.0794442 0.07923397 0.07904369 0.0788317
 0.07860067 0.07833979 0.07805938 0.0777903 0.07753333 0.07731271 0.07710559 0.07688938 0.07664073 0.07631771
 0.07593544 0.0754797 0.07500943 0.0745452 0.07414882 0.0738506 0.0736637 0.07360709 0.07361716 0.07369447
 0.07372549 0.07370029 0.07353882 0.07323752 0.07281759 0.07228685 0.07174043 0.07118334 0.0706946 0.07026655
 0.06991643 0.06963284 0.06939903 0.06920762 0.0690425 0.06889328 0.06874581 0.06858484 0.06839392 0.06816759
 0.06789514 0.06759083 0.06725535 0.06690978 0.06656045 0.06621308 0.06587101 0.06552149 0.06516391 0.06478439
 0.06438229 0.06395864 0.06351481 0.06306609 0.06261465 0.06218016 0.06176365 0.06138023 0.06102673 0.06070641
 0.06040819 0.06011853 0.05982279 0.05949801 0.05914194 0.05874025 0.05831361 0.05786569 0.0574252 0.05700515
 0.05661331 0.05625743 0.05591722 0.0555916 0.05525652 0.05490906 0.054544 0.05416103 0.05376972 0.05337051
 0.05297126 0.05257198 0.05217659 0.05178549 0.05140273 0.05102739 0.05066042 0.05029817 0.049935 0.04956922
 0.04919479 0.04881776 0.04843761 0.0480703 0.04772092 0.04741216 0.04715386 0.04695714 0.04683301 0.04674803
 0.04670531 0.04662242 0.04649286 0.04624315 0.04586935 0.04537608 0.04477013 0.04413445 0.04347815 0.04289775
 0.0423907 0.04200534 0.04172047 0.04151778 0.04136296 0.04119315 0.04098729 0.04068841 0.04031985 0.0398718
 0.03940056 0.03893554 0.03850502 0.03813399 0.03779422 0.03748383 0.03717432 0.03685525 0.0365568 0.03627869
 0.03608129 0.03596779 0.03594979 0.03602161 0.03611654 0.03622362 0.03624313 0.03617456 0.03595582 0.03560965
 0.03515103 0.03461828 0.03408143 0.03356023 0.03311248 0.03271582 0.03237481 0.03205541 0.03173386 0.03141484
 0.0310901 0.03079058 0.03052703 0.03029438 0.03009787 0.0298915 0.0296703 0.02941624 0.0291281 0.02884779
 0.02857781 0.02836411 0.02820168 0.02808536 0.02800589 0.02792596 0.02784464 0.02773993 0.0276181 0.02748104
 0.02733051 0.02717243 0.02699742 0.02680329 0.02657183 0.02629369 0.02595323 0.02553809 0.02506034 0.02451253
 0.02395261 0.0233845 0.02288503 0.02246391 0.02214703 0.02193648 0.02177001 0.02164155 0.02145159 0.02120204
 0.02084786 0.02040815 0.01992518 0.01941982 0.01896687 0.01856587 0.01825555 0.01801123 0.0178228 0.01765925
 0.01749224 0.0173045 0.01707522 0.01681293 0.01651114 0.01620282 0.01589364 0.01561564 0.01537841 0.01517365
 0.01500437 0.01481876 0.01461401 0.01434952 0.0140273 0.01366707 0.01327533 0.01290539 0.0125539 0.01224027
 0.01194999 0.01165486 0.01135106 0.01101347 0.01066034 0.01030162 0.00995723 0.009650091 0.00937914 0.00915214
 0.008955945 0.008785841 0.008638725 0.00851173 0.008411398 0.008339402 0.008293621 0.008275523 0.008262636 0.008253878
 0.008210794 0.0081316 0.007981665 0.007763771 0.007474253 0.007123794 0.006747901 0.0063588 0.006005206 0.005690054
 0.005442086 0.00525381 0.005128116 0.005055691 0.00502986 0.005044498 0.005095553 0.005175787 0.005283424 0.005406076
 0.005541379 0.005674983 0.005803439 0.005922678 0.006030261 0.006146371 0.006271818 0.006451087 0.006686288 0.007018395
 0.007443965 0.007965002 0.008570072 0.009218553 0.009899901 0.01056588 0.01121708 0.0118306 0.0124171 0.01297977
 0.01352952 0.01407589 0.01462706 0.01518894 0.01577028 0.01637619 0.01700972 0.01767664 0.01835595 0.01904939
 0.01970751 0.02032658 0.0208555 0.02129081 0.02161444 0.02182762 0.02194849 0.02197939 0.0219447 0.02184378
 0.02168424 0.02147028 0.02120903 0.02092193 0.02064338 0.02040485 0.02025948 0.02021998 0.02032105 0.02054214
 0.02088385 0.02131641 0.02182649 0.02240345 0.02304142 0.02374068 0.02450235 0.02531375 0.02617501 0.02705994
 0.02796711 0.02886626 0.02975488 0.03059174 0.03137246 0.03204596 0.03261224 0.03303996 0.03334044 0.03352545
 0.03360761 0.03362003 0.03355363 0.03342059 0.03317934 0.03280681 0.03224749 0.03146194 0.0304219 0.02909604
 0.02752277 0.025692 0.02371455 0.02159934 0.0194881 0.01739569 0.01543135 0.01360323 0.01195033 0.0104715
 0.009147528 0.007974012 0.006913135 0.005961911 0.005090449 0.004294783 0.003552128 0.00285445 0.002177566 0.001515933
 0.0008498877 0.0001879 -0.0004733857 -0.001112518 -0.001718649 -0.002274577 -0.002769283 -0.003201232 -0.003566843 -0.003873722
 -0.004122784 -0.004319318 -0.004464503 -0.004555281 -0.004591614 -0.004564547 -0.004474526 -0.004325489 -0.004123816 -0.003911986
 -0.003702616 -0.003569835 -0.003518287 -0.003604653 -0.003809584 -0.004132664 -0.00453316 -0.004965108 -0.00538567 -0.00574336
 -0.006012459 -0.006160054 -0.006190365 -0.006092153 -0.005897945 -0.005611275 -0.005273134 -0.004890506 -0.004494272 -0.004086672
 -0.003705901 -0.003353268 -0.003116341 -0.003002527 -0.003149596 -0.003561663 -0.004345699 -0.005478262 -0.006937558 -0.008666323
 -0.01051026 -0.01241323 -0.01419643 -0.01585249 -0.01728909 -0.01855342 -0.01965138 -0.02063798 -0.02155157 -0.02241199
 -0.02323928 -0.02402525 -0.02477086 -0.02546962 -0.02611962 -0.02672289 -0.02727931 -0.02779227 -0.02826187 -0.02869593
 -0.02909515 -0.02947313 -0.02983038 -0.03017743 -0.03051357 -0.03084149 -0.03116015 -0.03146857 -0.03176532 -0.03204768
 -0.03231399 -0.03255942 -0.03278801 -0.03299845 -0.03320484 -0.03341436 -0.03364014 -0.03389258 -0.03416453 -0.03445996
 -0.03475042 -0.03503187 -0.03527967 -0.0354887 -0.03566502 -0.03580817 -0.03594792 -0.03608528 -0.03623877 -0.03640585
 -0.03657562 -0.03674644 -0.03690246 -0.0370511 -0.03720291 -0.03736822 -0.03757477 -0.0378183 -0.03811 -0.03842717
 -0.03875536 -0.03907157 -0.03935613 -0.0396021 -0.03979981 -0.03995773 -0.04007401 -0.04016864 -0.04024307 -0.04032531
 -0.04041874 -0.04054301 -0.04070019 -0.04088284 -0.04108977 -0.04129442 -0.04149619 -0.04167739 -0.04184118 -0.04199136
 -0.04213133 -0.04227285 -0.04241588 -0.04256634 -0.04272168 -0.04288153 -0.04304192 -0.04320031 -0.04335022 -0.04348792
 -0.04360583 -0.04369891 -0.0437668 -0.04380533 -0.04383149 -0.04384527 -0.04387733 -0.04393128 -0.04402849 -0.04417132
 -0.04435089 -0.0445658 -0.04478428 -0.04500489 -0.04520085 -0.04537479 -0.04552269 -0.04564966 -0.04576804 -0.04588045
 -0.04599917 -0.0461204 -0.04624553 -0.04636666 -0.04647597 -0.04657176 -0.04664735 -0.04671536 -0.04677755 -0.04685233
 -0.04694646 -0.04706593 -0.04721479 -0.04738231 -0.04756818 -0.04775849 -0.04795217 -0.04814196 -0.04832764 -0.04850668
 -0.04867915 -0.04884388 -0.04900147 -0.04915362 -0.04930157 -0.04944995 -0.04959892 -0.04975174 -0.04990614 -0.05006061
 -0.05021277 -0.05035904 -0.05050088 -0.05063725 -0.05077302 -0.05091016 -0.05105164 -0.05119962 -0.05135106 -0.05150631
 -0.05165878 -0.05180776 -0.05194831 -0.05207991 -0.05220258 -0.05231645 -0.05242565 -0.05253022 -0.05263258 -0.05273161
 -0.05282332 -0.05290728 -0.0529784 -0.05304123 -0.05310058 -0.05316454 -0.05324692 -0.05335009 -0.05348374 -0.05363908
 -0.05381451 -0.05399837 -0.05418456 -0.05436854 -0.05454764 -0.05472112 -0.05488909 -0.05504694 -0.05519414 -0.05532647
 -0.05544324 -0.05555196 -0.0556533 -0.05576307 -0.05588141 -0.05601726 -0.05616817 -0.05632804 -0.05649426 -0.05665544
 -0.05681242 -0.05696083 -0.05710414 -0.05724564 -0.05738703 -0.05753208 -0.05767815 -0.05782543 -0.05796864 -0.05810551
 -0.05823224 -0.05834643 -0.05845007 -0.05854214 -0.05863148 -0.05871865 -0.05881449 -0.05891994 -0.05903985 -0.05917415
 -0.05931782 -0.05946987 -0.05961972 -0.05976694 -0.05990342 -0.06003071 -0.06014857 -0.0602597 -0.06036942 -0.06047922
 -0.06059379 -0.06071236 -0.06083607 -0.06096318 -0.06109318 -0.06122352 -0.06135349 -0.06147917 -0.06159912 -0.06171132
 -0.06181423 -0.06191306 -0.06200778 -0.06210791 -0.06221426 -0.06233133 -0.06245905 -0.06259204 -0.06272948 -0.06286177
 -0.06298901 -0.06310602 -0.06321461 -0.06331708 -0.06341588 -0.06351727 -0.06362198 -0.06373449 -0.06385221 -0.06397483
 -0.06409805 -0.06421889 -0.06433471 -0.064443 -0.06454478 -0.06463921 -0.06473073 -0.06481972 -0.06491211 -0.06500878
 -0.06511328 -0.06522615 -0.06534515 -0.06547003 -0.06559368 -0.06571559 -0.06582792 -0.06593083 -0.06602023 -0.06609783
 -0.06616563 -0.06622741 -0.06629123 -0.066361 -0.06644652 -0.06654711 -0.06666753 -0.06679997 -0.0669417 -0.06708304
 -0.06721832 -0.06734405 -0.06745702 -0.06756102 -0.06765601 -0.06774715 -0.0678351 -0.06792317 -0.06801164 -0.06810263
 -0.0681962 -0.06829267 -0.06839161 -0.06848925 -0.06858481 -0.06867237 -0.06875218 -0.06882126 -0.068882 -0.06893726
 -0.06899049 -0.06904794 -0.06911123 -0.0691852 -0.06926706 -0.06935704 -0.06945004 -0.06954314 -0.06963545 -0.06972533
 -0.06981687 -0.0699111 -0.07000829 -0.07010934 -0.07020696 -0.07030065 -0.07038447 -0.07045832 -0.07052622 -0.07058917
 -0.07065807 -0.07073345 -0.07082412 -0.07092872 -0.07104882 -0.07118039 -0.07131669 -0.07145251 -0.07157688 -0.0716887
 -0.07178123 -0.07186048 -0.07192785 -0.07199078 -0.07205357 -0.07211912 -0.07218933 -0.07226471 -0.07234536 -0.0724332
 -0.07252876 -0.07263099 -0.07274016 -0.07284797 -0.07295398 -0.07304848 -0.07313186 -0.07320344 -0.07326528 -0.07332715
 -0.07339069 -0.07346693 -0.07355423 -0.07365532 -0.07376567 -0.0738799 -0.07399461 -0.07410384 -0.07420774 -0.07430423
 -0.07439552 -0.07448194 -0.07456592 -0.07464792 -0.07473128 -0.07481652 -0.07490752 -0.07500511 -0.07510944 -0.07522083
 -0.07533411 -0.07544898 -0.07555911 -0.07566448 -0.07576244 -0.07585361 -0.07593964 -0.07602108 -0.0761006 -0.07617807
 -0.0762545 -0.07632954 -0.07640281 -0.07647482 -0.07654576 -0.07661676 -0.07668846 -0.07676235 -0.07683901 -0.07692051
 -0.07700748 -0.07710199 -0.0772052 -0.0773147 -0.07743108 -0.07754511 -0.07765622 -0.07775458 -0.07783982 -0.07791051
 -0.07796763 -0.07802033 -0.07806986 -0.07812785 -0.07819343 -0.0782709 -0.07835649 -0.07844458 -0.07853144 -0.07860808
 -0.07867558 -0.0787302 -0.07877862 -0.07882381 -0.07887307 -0.07893136 -0.07900025 -0.07908239 -0.07917242 -0.07927023
 -0.07936752 -0.07946301 -0.0795517 -0.0796328 -0.07970762 -0.07977623 -0.07984287 -0.07990766 -0.07997344 -0.08003992
 -0.08010663 -0.08017348 -0.08023964 -0.08030567 -0.0803722 -0.08044019 -0.08051187 -0.08058635 -0.08066455 -0.08074239
 -0.08081739 -0.08088612 -0.08094475 -0.08099759 -0.08104397 -0.08109411 -0.08115082 -0.08121747 -0.081296 -0.08137764
 -0.08146189 -0.08153948 -0.08161005 -0.08167624 -0.08173896 -0.08180898 -0.08188655 -0.08197882 -0.08208486 -0.08220495
 -0.08233931 -0.08248784 -0.08265306 -0.08283833 -0.08304695 -0.08328391 -0.08355024 -0.08384908 -0.08417758 -0.08453537
 -0.08491905 -0.08532637 -0.08576001 -0.08621851 -0.08671503 -0.08725181 -0.08783514 -0.08846787 -0.08911787 -0.08978308
 -0.09038906 -0.09093238 -0.09134889 -0.09164171 -0.091795 -0.09181275 -0.09169918 -0.0914573 -0.09108612 -0.09061236
 -0.09006728 -0.08949836 -0.08896971 -0.08850611 -0.08814819 -0.08789563 -0.08775786 -0.08773144 -0.08781942 -0.08800852
 -0.08830511 -0.08864702 -0.08903284 -0.08935618 -0.08960558 -0.08973812 -0.08975182 -0.08970566 -0.08960386 -0.08951452
 -0.08943562 -0.08939272 -0.08937787 -0.089379 -0.08938798 -0.08937921 -0.08935267 -0.08929589 -0.08921508 -0.08911355
 -0.08899254 -0.08885431 -0.08869813 -0.08852074 -0.08833492 -0.0881418 -0.08796296 -0.08780455 -0.08767516 -0.08757855
 -0.08750451 -0.08745291 -0.0874079 -0.08736868 -0.08732688 -0.08728284 -0.08723826 -0.0871939 -0.08715519 -0.08712194
 -0.08709659 -0.08707812 -0.08706519 -0.08705764 -0.08705445 -0.08705615 -0.08706325 -0.08707518 -0.08709218 -0.08711198
 -0.08713341 -0.08715507 -0.08717577 -0.08719695 -0.08721846 -0.08724315 -0.08727167 -0.08730411 -0.08734076 -0.0873777
 -0.08741472 -0.08744831 -0.08747875 -0.08750808 -0.08753708 -0.08757156 -0.08761097 -0.0876569 -0.08770732 -0.08775802
 -0.08780821 -0.08785401 -0.08789746 -0.08793936 -0.08798157 -0.08802641 -0.08807268 -0.0881208 -0.08816781 -0.08821253
 -0.08825389 -0.08829099 -0.08832578 -0.08835834 -0.08839108 -0.08842435 -0.08845788 -0.08849169 -0.08852527 -0.08855893
 -0.08859637 -0.08863785 -0.08868776 -0.08874445 -0.08880497 -0.08886648 -0.08891999 -0.08896615 -0.08900074 -0.08902884
 -0.08905456 -0.08908173 -0.08911572 -0.08915451 -0.08919891 -0.08924484 -0.08929053 -0.08933525 -0.08937813 -0.08942125
 -0.0894649 -0.08950997 -0.08955675 -0.08960303 -0.08964869 -0.08969039 -0.08972809 -0.08976063 -0.08978858 -0.08981463
 -0.08983952 -0.0898674 -0.08989831 -0.08993465 -0.08997546 -0.09002027 -0.09006801 -0.09011725 -0.09016734 -0.09021721
 -0.09026682 -0.09031584 -0.09036452 -0.09041284 -0.09046128 -0.09051 -0.09055909 -0.09060871 -0.09065786 -0.09070648
 -0.09075371 -0.09079951 -0.09084465 -0.09088926 -0.09093525 -0.09098251 -0.09103161 -0.09108212 -0.09113283 -0.09118348
 -0.09123282 -0.09128068 -0.09132608 -0.09136926 -0.09140951 -0.09144899 -0.09148867 -0.09153184 -0.0915813 -0.0916362
 -0.09169818 -0.09176009 -0.09182064 -0.09187353 -0.09191689 -0.09195212 -0.09197882 -0.09200407 -0.09202825 -0.09205782
 -0.09209289 -0.09213648 -0.09218819 -0.09224743 -0.09231328 -0.09238233 -0.09245368 -0.09252325 -0.0925912 -0.09265575
 -0.09271798 -0.09277848 -0.09283815 -0.09289823 -0.09295815 -0.09301829 -0.09307657 -0.09313236 -0.09318395 -0.09323034
 -0.09327303 -0.09331183 -0.0933505 -0.09338937 -0.09343137 -0.09347669 -0.09352618 -0.09357984 -0.09363788 -0.0937002
 -0.09376636 -0.09383567 -0.09390556 -0.09397511 -0.09404075 -0.09410215 -0.09415696 -0.09420573 -0.094248 -0.09428506
 -0.09431754 -0.09434713 -0.09437485 -0.09440197 -0.09442919 -0.09445716 -0.09448601 -0.09451717 -0.09455076 -0.09458916
 -0.09463272 -0.09468164 -0.09473597 -0.09479301 -0.09485269 -0.09491316 -0.09497478 -0.09503921 -0.09510651 -0.09517842
 -0.09525327 -0.09532818 -0.09540074 -0.09546504 -0.09552082 -0.09556468 -0.09559938 -0.0956256 -0.09564725 -0.09566637
 -0.09568664 -0.09570958 -0.09573884 -0.0957759 -0.09582134 -0.09587622 -0.09593475 -0.09599675 -0.09605353 -0.0961045
 -0.09614669 -0.09618045 -0.09621096 -0.09623912 -0.09627344 -0.09631409 -0.09636683 -0.09642988 -0.09650254 -0.09658112
 -0.09665895 -0.09673334 -0.09679722 -0.09685305 -0.09689946 -0.09694254 -0.09698587 -0.09703171 -0.09708278 -0.09713516
 -0.09718847 -0.09723877 -0.09728484 -0.09732814 -0.09736855 -0.09740991 -0.09745248 -0.0974969 -0.09754298 -0.09758714
 -0.09762933 -0.09766713 -0.09770133 -0.09773366 -0.09776498 -0.09779856 -0.09783421 -0.097873 -0.09791481 -0.09795948
 -0.09800807 -0.09806155 -0.09812016 -0.09818506 -0.09825344 -0.09832497 -0.09839527 -0.09846321 -0.09852555 -0.09858163
 -0.09862925 -0.09866802 -0.09869777 -0.0987184 -0.09873381 -0.09874442 -0.09875765 -0.09877383 -0.09879931 -0.0988335
 -0.09887788 -0.0989307 -0.09898841 -0.09904938 -0.09910856 -0.09916661 -0.09922188 -0.09927673 -0.0993332 -0.0993911
 -0.09945198 -0.09951115 -0.09956717 -0.09961618 -0.09965599 -0.09968936 -0.09971598 -0.0997419 -0.09976789 -0.09979634
 -0.0998275 -0.09985822 -0.09988833 -0.09991441 -0.09993676 -0.09995579 -0.09997233 -0.09999015 -0.1000094 -0.1000331
 -0.1000596 -0.100088 -0.1001168 -0.1001433 -0.1001688 -0.1001927 -0.1002198 -0.1002525 -0.1002937 -0.1003465
 -0.1004059 -0.1004726 -0.1005341 -0.1005884 -0.1006269 -0.1006477 -0.1006562 -0.1006527 -0.10065 -0.1006485
 -0.1006541 -0.1006658 -0.1006807 -0.1006983 -0.1007157 -0.1007333 -0.1007515 -0.1007693 -0.1007858 -0.1007998
 -0.1008085 -0.1008143 -0.100817 -0.1008219 -0.1008323 -0.1008497 -0.1008768 -0.1009079 -0.1009425 -0.1009733
 -0.1009985 -0.1010169 -0.1010276 -0.1010365 -0.1010438 -0.1010552 -0.1010708 -0.1010911 -0.1011155 -0.1011388
 -0.1011603 -0.1011735 -0.1011794 -0.1011768 -0.1011702 -0.101167 -0.1011717 -0.1011946 -0.1012322 -0.1012875
 -0.101348 -0.1014074 -0.1014556 -0.101485 -0.1014994 -0.1014971 -0.1014891 -0.1014774 -0.1014668 -0.1014584
 -0.1014501 -0.1014417 -0.1014323 -0.1014218 -0.1014134 -0.1014074 -0.1014081 -0.101415 -0.1014293 -0.1014493
 -0.1014721 -0.1014959 -0.1015164 -0.1015327 -0.1015423 -0.1015453 -0.1015406 -0.1015301 -0.1015137 -0.1014959
 -0.1014782 -0.1014649 -0.1014579 -0.1014571 -0.1014634 -0.1014716 -0.1014816 -0.101487 -0.1014873 -0.1014796
 -0.101464 -0.1014426 -0.1014162 -0.1013907 -0.1013664 -0.1013478 -0.101334 -0.1013249 -0.1013199 -0.1013179
 -0.1013199 -0.1013276 -0.10134 -0.1013586 -0.1013774 -0.1013938 -0.1014013 -0.1013952 -0.1013765 -0.1013431
 -0.1013036 -0.1012589 -0.1012176 -0.101181 -0.1011507 -0.1011272 -0.1011063 -0.1010877 -0.1010704 -0.1010552
 -0.1010495 -0.1010538 -0.1010759 -0.1011121 -0.1011574 -0.1012033 -0.1012306 -0.1012355 -0.1012018 -0.1011402
 -0.101053 -0.1009561 -0.1008613 -0.1007742 -0.1007016 -0.1006385 -0.1005847 -0.1005353 -0.1004888 -0.1004468
 -0.1004093 -0.1003795 -0.1003576 -0.1003431 -0.1003361 -0.100336 -0.1003427 -0.1003559 -0.1003735 -0.100387
 -0.1003932 -0.1003764 -0.100339 -0.1002765 -0.1001973 -0.1001113 -0.1000238 -0.0999437 -0.09987217 -0.09981225
 -0.0997638 -0.09972831 -0.09970178 -0.09968466 -0.09966712 -0.09964772 -0.09961691 -0.09957311 -0.09951333 -0.0994371
 -0.09934662 -0.09924214 -0.09912959 -0.09900983 -0.09889241 -0.09877784 -0.09867377 -0.09857964 -0.09849799 -0.09842749
 -0.0983675 -0.09831503 -0.0982668 -0.0982177 -0.09816124 -0.09809617 -0.09801781 -0.09793372 -0.09784572 -0.09776136
 -0.09768459 -0.09761302 -0.09754773 -0.09747946 -0.09740691 -0.09732608 -0.0972363 -0.09714357 -0.09704811 -0.09695529
 -0.09686366 -0.09676406 -0.09665377 -0.09651343 -0.09634644 -0.09615012 -0.09593485 -0.09572088 -0.09551235 -0.09532579
 -0.09515432 -0.09499804 -0.09484778 -0.09469642 -0.09454245 -0.09438193 -0.09422189 -0.09406324 -0.09391381 -0.09377659
 -0.09364841 -0.09353135 -0.09340011 -0.09325324 -0.09306274 -0.09282839 -0.09256227 -0.09226782 -0.09198162 -0.09170227
 -0.09144388 -0.09119983 -0.09095823 -0.09071363 -0.09044859 -0.09016341 -0.08984911 -0.08951403 -0.08916133 -0.08880304
 -0.08845016 -0.08810234 -0.08776713 -0.08742093 -0.08705913 -0.08665847 -0.08620927 -0.08572584 -0.08520706 -0.08468419
 -0.08415993 -0.08364387 -0.08313636 -0.08263835 -0.08215053 -0.08168156 -0.08122943 -0.08079254 -0.08036228 -0.07991253
 -0.07943652 -0.07890353 -0.07832385 -0.07769549 -0.07703908 -0.07637616 -0.07571333 -0.07506308 -0.07442026 -0.07378467
 -0.07315459 -0.07252923 -0.07190929 -0.07129814 -0.07067572 -0.07004439 -0.06934252 -0.06856547 -0.06766573 -0.06664398
 -0.06556986 -0.06445064 -0.06338701 -0.06236909 -0.06140281 -0.0604734 -0.05953887 -0.05859382 -0.05760898 -0.0565806
 -0.05549688 -0.05434005 -0.05309671 -0.05172873 -0.05020701 -0.04850577 -0.04658753 -0.0445169 -0.04228803 -0.04004519
 -0.03781828 -0.0356985 -0.03370665 -0.03184507 -0.03011758 -0.02847644 -0.02691769 -0.02534156 -0.0237373 -0.02195294
 -0.020001 -0.01783621 -0.01552928 -0.01328717 -0.01112717 -0.009209091 -0.007454735 -0.005815668 -0.004235429 -0.002630103
 -0.001002675 0.0006699401 0.002373878 0.004103385 0.005867157 0.007674025 0.009495042 0.01133126 0.01312207 0.014855
 0.01653458 0.0181594 0.01976047 0.02133738 0.0228355 0.02424851 0.02548736 0.02656111 0.02746393 0.02821682
 0.02888348 0.02947207 0.03003455 0.0305583 0.0310412 0.03148754 0.03189379 0.03228673 0.03268997 0.03309945
 0.03352882 0.03393081 0.03429353 0.03458048 0.03477777 0.03489014 0.03491332 0.03488342 0.0348018 0.03472215
 0.0346467 0.03460035 0.03457935 0.03455582 0.03452635 0.03445776 0.03435392 0.03420605 0.03402758 0.03383919
 0.03365963 0.03352682 0.03344675 0.03343961 0.03350441 0.03364 0.03386658 0.03419162 0.03463686 0.0352194
 0.03590992 0.03670918 0.03756543 0.03846889 0.0394112 0.04038981 0.04142499 0.04251757 0.04367867 0.04490814
 0.04620834 0.04757866 0.04901916 0.05052567 0.05208575 0.05369447 0.05533304 0.05700504 0.05870603 0.06044529
 0.06223129 0.06406886 0.06596524 0.06791795 0.069929 0.07198977 0.0740988 0.07624568 0.07842893 0.08063686
 0.08287047 0.08509696 0.08731499 0.08947329 0.09156965 0.09358721 0.0955283 0.09741942 0.09925077 0.1009929
 0.1026186 0.1040147 0.1051878 0.1060871 0.1067527 0.1072267 0.1075273 0.1076919 0.1077181 0.1076176
 0.1073777 0.1070135 0.1064412 0.1056618 0.1044872 0.1028573 0.100749 0.09810428 0.0953698 0.09258261
 0.09000178 0.08763618 0.0852889 0.0829508 0.08045503 0.07781847 0.0750465 0.07215471 0.06921332 0.06618685
 0.06305742 0.05972448 0.05599799 0.05189808 0.04727102 0.04249038 0.03779453 0.03339623 0.02954471 0.02599569
 0.02271544 0.01951091 0.01630563 0.0131526 0.01004344 0.007093127 0.004315822 0.001700474 -0.0007539262 -0.003140111
 -0.005458753 -0.007751501 -0.01000657 -0.01218184 -0.01426842 -0.01620952 -0.01801668 -0.01968336 -0.02123391 -0.02270169
 -0.02410652 -0.02547835 -0.02683834 -0.02820172 -0.02961243 -0.03109687 -0.03268146 -0.03441408 -0.03614715 -0.0378727
 -0.03936658 -0.04057274 -0.04154307 -0.0422705 -0.04293262 -0.04353775 -0.04416374 -0.04480579 -0.0454336 -0.04604119
 -0.04657798 -0.04705092 -0.04745992 -0.04780715 -0.04810447 -0.04833308 -0.04846934 -0.04849772 -0.04838493 -0.04814785
 -0.04778541 -0.0473243 -0.04678006 -0.04616102 -0.04547575 -0.04471602 -0.04388671 -0.04295034 -0.04190928 -0.04067161
 -0.03922861 -0.03751501 -0.03552867 -0.03342413 -0.03121957 -0.02918692 -0.02731764 -0.02570573 -0.02432353 -0.02312357
 -0.0220961 -0.02119961 -0.0204263 -0.0197587 -0.01915702 -0.01858284 -0.01797313 -0.01725791 -0.01643759 -0.01546997
 -0.01446514 -0.01345701 -0.0125053 -0.01164194 -0.01082427 -0.0100513 -0.009275837 -0.008492053 -0.007692142 -0.006875588
 -0.006062394 -0.005253084 -0.00446209 -0.003684802 -0.002905774 -0.002114198 -0.00126468 -0.0003509057 0.0006700376 0.001783059
 0.002984555 0.004256002 0.005568604 0.006932924 0.008347231 0.009824771 0.01138083 0.01298912 0.01464951 0.01631344
 0.01796638 0.01959361 0.02118696 0.02277612 0.02436431 0.02595956 0.02756208 0.02908147 0.03050906 0.03170924
 0.0326825 0.03336347 0.03375788 0.03385581 0.03365061 0.03312289 0.03226331 0.03104134 0.02947218 0.02755005
 0.02532418 0.02282301 0.02010602 0.01721141 0.01417482 0.01101589 0.007755212 0.00438952 0.0009945134 -0.002430019
 -0.005734568 -0.0089045 -0.01184326 -0.01454507 -0.01704469 -0.0193471 -0.02152872 -0.02358633 -0.02554095 -0.02738202
 -0.02907916 -0.03063492 -0.03203375 -0.03329833 -0.03445468 -0.03553111 -0.03656894 -0.03758646 -0.03861385 -0.03964853
 -0.0407016 -0.04174855 -0.04278482 -0.04378297 -0.04473345 -0.04563089 -0.04647071 -0.04727206 -0.04803625 -0.04878056
 -0.04950605 -0.05019821 -0.05085417 -0.05143098 -0.05192773 -0.05231509 -0.05259938 -0.05278721 -0.05288537 -0.05291326
 -0.05287415 -0.05278051 -0.05263724 -0.05245215 -0.05223575 -0.05199536 -0.05174893 -0.05150439 -0.05128649 -0.05110427
 -0.05098059 -0.05092295 -0.05094315 -0.05104509 -0.05122722 -0.05149075 -0.05181972 -0.05221333 -0.05264273 -0.05310618
 -0.05357431 -0.05404569 -0.05449786 -0.05492851 -0.05531781 -0.05566319 -0.05594756 -0.05617264 -0.05633226 -0.05643284
 -0.05647909 -0.05647676 -0.05643163 -0.05634804 -0.05622835 -0.05608044 -0.05590559 -0.05571833 -0.05552042 -0.05533294
 -0.05515835 -0.05502008 -0.05492084 -0.05487463 -0.05488248 -0.0549389 -0.05504265 -0.05517504 -0.05533484 -0.05550512
 -0.05568592 -0.05586842 -0.05605331 -0.05623772 -0.05642265 -0.05660882 -0.05679604 -0.05698504 -0.05717354 -0.05735992
 -0.05754281 -0.05772081 -0.05789429 -0.05806407 -0.0582262 -0.05838111 -0.05851854 -0.05863682 -0.0587294 -0.05879501
 -0.05883627 -0.05885327 -0.05885065 -0.05882835 -0.05878613 -0.05872377 -0.05863945 -0.05853396 -0.05840908 -0.05826598
 -0.05810909 -0.05793755 -0.05775269 -0.05755123 -0.05732935 -0.05708603 -0.05681696 -0.05652967 -0.05622559 -0.05591656
 -0.0556081 -0.05530458 -0.05500951 -0.05471664 -0.05442546 -0.05413033 -0.05383009 -0.05352878 -0.05322656 -0.05293144
 -0.05264325 -0.0523612 -0.05208349 -0.0517971 -0.05150263 -0.05119123 -0.0508738 -0.05056858 -0.05029545 -0.05009792
 -0.04998483 -0.04999154 -0.05009539 -0.05029747 -0.05055078 -0.0508313 -0.05109996 -0.05133399 -0.05152302 -0.051658
 -0.05174951 -0.05179761 -0.05181472 -0.05180227 -0.0517664 -0.05170759 -0.05162818 -0.05152785 -0.05140298 -0.05125114
 -0.05105485 -0.05081148 -0.0504969 -0.05012035 -0.04968369 -0.04921895 -0.04877659 -0.04839587 -0.04814991 -0.04804253
 -0.04811603 -0.0483135 -0.04862418 -0.04896513 -0.04929881 -0.04958517 -0.04979803 -0.0499679 -0.05009204 -0.05022996
 -0.05038903 -0.05059402 -0.05084759 -0.05111433 -0.05139049 -0.05160881 -0.05176886 -0.05182975 -0.05180436 -0.05171703
 -0.05158798 -0.05148409 -0.05140906 -0.05140741 -0.05145414 -0.05153916 -0.0516322 -0.05169959 -0.05173898 -0.05173512
 -0.05170987 -0.05167064 -0.05162494 -0.05158152 -0.05151389 -0.05142089 -0.05126571 -0.05104316 -0.05074198 -0.05036069
 -0.04992035 -0.04942262 -0.04889799 -0.04834679 -0.04778628 -0.04721481 -0.04663484 -0.04604527 -0.04544409 -0.04483205
 -0.0442085 -0.04357731 -0.04294115 -0.04230839 -0.04168577 -0.041083 -0.04050821 -0.03996446 -0.03945621 -0.03897772
 -0.0385293 -0.03810067 -0.03769061 -0.03728839 -0.03689274 -0.03649637 -0.03609872 -0.03569799 -0.03529401 -0.03488449
 -0.03446801 -0.03403415 -0.0335805 -0.03309188 -0.03256712 -0.03199517 -0.03137706 -0.03070846 -0.02999396 -0.02923534
 -0.02844302 -0.02762497 -0.02679347 -0.02595796 -0.0251253 -0.02430036 -0.02348609 -0.02268358 -0.02189739 -0.02112888
 -0.02037823 -0.0196464 -0.01892337 -0.01820864 -0.01748996 -0.01676723 -0.01603861 -0.01530563 -0.014578 -0.0138579
 -0.01315955 -0.01248355 -0.01183978 -0.01122517 -0.01064 -0.01007784 -0.009531577 -0.008993974 -0.008456826 -0.007914293
 -0.007359704 -0.00679377 -0.006213806 -0.005627978 -0.005038884 -0.004448259 -0.003858939 -0.003255688 -0.002637354 -0.001989018
 -0.001309292 -0.0006032989 0.0001283308 0.0008722893 0.00162884 0.002394547 0.003169226 0.003952228 0.004738912 0.0055186
 0.006282392 0.007011486 0.007693602 0.008307808 0.008840024 0.009270488 0.009592722 0.009794232 0.009884945 0.009862433
 0.009751004 0.009553344 0.009304976 0.009010068 0.008711263 0.008413458 0.008149692 0.007922764 0.007742468 0.007608923
 0.007521146 0.007479921 0.007491329 0.007555938 0.007680837 0.007862924 0.008097951 0.008381698 0.008703552 0.009063305
 0.009455523 0.009883801 0.01035068 0.01085524 0.01140358 0.0119729 0.01256469 0.01312164 0.01363537 0.01402782
 0.01428504 0.01434358 0.01419264 0.0138128 0.01320067 0.0123939 0.01139676 0.01029622 0.009099272 0.007900608
 0.006700113 0.005550169 0.004441359 0.003375182 0.002342256 0.001325147 0.0003200464 -0.0006851627 -0.001691095 -0.002702204
 -0.003718492 -0.004739572 -0.005770879 -0.006811725 -0.007878326 -0.008974595 -0.01011496 -0.01130481 -0.01253841 -0.01381685
 -0.01512142 -0.01645088 -0.01779325 -0.01914801 -0.02050856 -0.02187319 -0.02322667 -0.02456522 -0.02586486 -0.02712241
 -0.02831588 -0.0294464 -0.03050353 -0.03149583 -0.03242863 -0.03331404 -0.03416589 -0.03498873 -0.03579061 -0.0365679
 -0.03731943 -0.03804768 -0.03875111 -0.03944237 -0.04012362 -0.04080399 -0.04148557 -0.04216618 -0.04284604 -0.04351559
 -0.0441741 -0.04480715 -0.04541339 -0.04597551 -0.04649296 -0.04695357 -0.04735884 -0.04770592 -0.04799826 -0.04824
 -0.04843666 -0.0485966 -0.04872547 -0.04883188 -0.04891712 -0.04898515 -0.04903298 -0.04905949 -0.04906519 -0.0490486
 -0.04901754 -0.04897221 -0.04892578 -0.04887976 -0.04884486 -0.04882235 -0.04880806 -0.04880114 -0.04877947 -0.04874234
 -0.04867204 -0.04857287 -0.04845385 -0.04832127 -0.04819942 -0.0480875 -0.04799738 -0.04792066 -0.04785148 -0.04778123
 -0.04769945 -0.04760227 -0.04748309 -0.0473448 -0.04718571 -0.04701476 -0.04683441 -0.04665035 -0.04646526 -0.04627418
 -0.04607716 -0.04586618 -0.04564041 -0.04540086 -0.04514797 -0.04489394 -0.04464053 -0.04440751 -0.04419666 -0.04402762
 -0.0438988 -0.04381771 -0.04377747 -0.04376919 -0.04378478 -0.04380999 -0.04383862 -0.04386108 -0.04387041 -0.04386044
 -0.04382364 -0.04375502 -0.04365134 -0.04351026 -0.0433326 -0.0431178 -0.0428689 -0.04258533 -0.04227781 -0.04194664
 -0.04161186 -0.04127434 -0.04094849 -0.04063284 -0.04032142 -0.04001119 -0.03968371 -0.0393401 -0.03897133 -0.03858657
 -0.0381979 -0.03781756 -0.03746907 -0.03715491 -0.03688996 -0.03665966 -0.03646144 -0.03627392 -0.03608594 -0.0358878
 -0.03567212 -0.03544599 -0.03520885 -0.03497261 -0.03473897 -0.03451364 -0.03429738 -0.03408928 -0.03388929 -0.0336954
 -0.0335075 -0.033324 -0.03314469 -0.0329675 -0.03279265 -0.03261972 -0.03244887 -0.03228159 -0.03211423 -0.03194407
 -0.03176295 -0.03156132 -0.03133612 -0.03107947 -0.03080181 -0.03050464 -0.03020192 -0.02989933 -0.02960013 -0.02930669
 -0.02901427 -0.02872221 -0.02842993 -0.02813713 -0.0278488 -0.02756515 -0.02728972 -0.02702199 -0.0267595 -0.02650019
 -0.02623342 -0.02595661 -0.02565512 -0.02533099 -0.02497833 -0.02460802 -0.02423069 -0.02386134 -0.02351921 -0.02321102
 -0.02295028 -0.02272705 -0.02254299 -0.02237706 -0.0222239 -0.02206475 -0.0218945 -0.0217043 -0.02149182 -0.02125741
 -0.02100052 -0.02073145 -0.02045089 -0.02017584 -0.01990641 -0.01965177 -0.01940886 -0.01916796 -0.01892572 -0.01866573
 -0.01838935 -0.01809008 -0.01777409 -0.01744598 -0.01711502 -0.01679119 -0.01648315 -0.01620252 -0.01594397 -0.01571223
 -0.01548363 -0.0152514 -0.01499949 -0.01471944 -0.01442783 -0.01412418 -0.01383876 -0.01357459 -0.01333867 -0.01313077
 -0.01292749 -0.0127267 -0.0124978 -0.01224222 -0.01194819 -0.01162371 -0.01128586 -0.01094405 -0.01062813 -0.0103376
 -0.0100872 -0.009865288 -0.009665436 -0.009478322 -0.009294289 -0.009112809 -0.008931736 -0.008750411 -0.008569482 -0.008382441
 -0.008188264 -0.007980589 -0.007757748 -0.007521628 -0.007271592 -0.007023221 -0.006777409 -0.006554958 -0.006355037 -0.006179303
 -0.006022687 -0.00586027 -0.00568905 -0.005484235 -0.005251511 -0.004989119 -0.004707771 -0.004421646 -0.004140303 -0.003878656
 -0.003641578 -0.003439166 -0.003264909 -0.003121103 -0.002989913 -0.002866788 -0.002735762 -0.00259224 -0.002429143 -0.002244407
 -0.002038483 -0.001810485 -0.001576111 -0.001336386 -0.001119722 -0.0009260096 -0.0007667173 -0.0006367626 -0.0005165776 -0.0004012234
 -0.0002650406 -0.0001060672 9.121041E-05 0.000329165 0.0006198831 0.0009583278 0.001349056 0.001770158 0.002210943 0.002644174
 0.003054257 0.003424181 0.003743954 0.004010729 0.004218674 0.004389719 0.004523298 0.004663164 0.004813336 0.004997305
 0.005215835 0.00545227 0.005705417 0.00595621 0.006206556 0.006458479 0.006710812 0.006962118 0.007207306 0.007432537
 0.00763979 0.007825239 0.007994256 0.008153605 0.008298944 0.008429762 0.008540307 0.008624945 0.008690977 0.008738325
 0.008779347 0.008816344 0.008859796 0.008910681 0.00898298 0.009078084 0.009203554 0.009359659 0.009540009 0.009744418
 0.009969367 0.01021443 0.01047809 0.01075511 0.01102626 0.01129047 0.01153146 0.0117622 0.0119966 0.01224155
 0.01251274 0.01280265 0.01310417 0.01343321 0.01378899 0.01421223 0.01473104 0.01530305 0.01593808 0.01650754
 0.01698688 0.01735315 0.01759869 0.01778233 0.01790672 0.01801013 0.01809276 0.01816976 0.01823975 0.01830537
 0.01836231 0.01839621 0.01840773 0.01838814 0.0183479 0.01830366 0.01825068 0.01819781 0.01811478 0.01797813
 0.01778056 0.01750012 0.01718557 0.01684277 0.01653794 0.01628863 0.01612926 0.01607142 0.01609806 0.01621179
 0.01634297 0.01648791 0.01656898 0.01658767 0.01653237 0.0164148 0.0162944 0.01617625 0.01611461 0.0160933
 0.01610674 0.01612862 0.01611252 0.01605083 0.01590718 0.01571607 0.01548174 0.01526714 0.01511038 0.0150321
 0.0150612 0.01513788 0.01525592 0.01535191 0.01540985 0.01543976 0.0154394 0.01545062 0.01547541 0.01553147
 0.01561895 0.0157475 0.01591354 0.01610741 0.0163161 0.01648583 0.01661757 0.0166762 0.016696 0.01671505
 0.01676148 0.01689152 0.01708407 0.01734923 0.01763668 0.01792326 0.01817426 0.01836951 0.01850504 0.01857168
 0.01859915 0.0185873 0.01858803 0.01860657 0.01867158 0.0187846 0.0189267 0.01909552 0.01925664 0.01940958
 0.0195338 0.0196314 0.01969663 0.01973626 0.01976258 0.01978135 0.01981183 0.01984317 0.01987306 0.01988442
 0.01985897 0.01980177 0.0197084 0.01959446 0.01946522 0.01932769 0.01918115 0.01904848 0.01893131 0.01886235
 0.01884723 0.01886935 0.01892793 0.01896341 0.01897511 0.01893744 0.01885544 0.01874681 0.01861217 0.0184614
 0.01829538 0.01811757 0.01793744 0.01777468 0.01762762 0.01750733 0.01739307 0.01727036 0.01713121 0.01696225
 0.01678221 0.01659521 0.01641513 0.0162501 0.01608459 0.01591977 0.01572186 0.01548719 0.01519885 0.01485576
 0.0144967 0.01412608 0.01381506 0.01356033 0.01338336 0.01326772 0.01316473 0.0130666 0.01292549 0.01275535
 0.01255732 0.01234631 0.01214113 0.01194651 0.01177035 0.01161969 0.01150142 0.01141493 0.01136614 0.01133165
 0.01130829 0.01127026 0.01121131 0.01112892 0.0110207 0.01091266 0.01080617</values></Ydata></AB><ScSm><Ydata ylabel="Single channel"><values byteorder="INTEL" format="FLOAT32" numvalues="1814"> 0.06956553 0.06957173 0.0696377 0.06978603 0.06999122 0.07019246 0.07033683 0.07041441 0.07044278 0.07042682
 0.07036711 0.07030913 0.07033743 0.0704942 0.07072189 0.07090054 0.07094378 0.07087666 0.07082544 0.07089365
 0.07102223 0.07100338 0.07067794 0.07011858 0.06958127 0.06926692 0.06919737 0.06936653 0.06986263 0.07062664
 0.07118785 0.07100347 0.07014085 0.06930311 0.06904775 0.06925182 0.06944545 0.06935629 0.06899045 0.0685184
 0.06832267 0.06890185 0.0703809 0.0720979 0.07283758 0.07159972 0.06831583 0.06407608 0.0607252 0.05987252
 0.06175851 0.06493167 0.06733911 0.06796385 0.0673096 0.06636307 0.06553255 0.06477871 0.06429969 0.06456116
 0.06565467 0.06687175 0.06707151 0.06565249 0.06326483 0.06135073 0.06083208 0.06153243 0.06294115 0.06476942
 0.06617032 0.06529985 0.06113027 0.05573764 0.05337357 0.05642524 0.06287026 0.06825724 0.06966505 0.06733459
 0.06337374 0.06000982 0.05875501 0.05999882 0.06293175 0.06621746 0.06880464 0.06998307 0.06920911 0.06657675
 0.06327504 0.06100972 0.06095865 0.06331576 0.06724966 0.0709726 0.07255322 0.07134703 0.06842379 0.0654322
 0.06351433 0.06331845 0.06516109 0.06869404 0.07287993 0.07659794 0.07910544 0.08011092 0.07983218 0.07885828
 0.07769942 0.07670386 0.07637715 0.07707202 0.07815792 0.07825696 0.07674749 0.0745969 0.07336519 0.07359046
 0.07435963 0.07441908 0.07344268 0.07182776 0.06945683 0.0656734 0.06078851 0.05648358 0.05413066 0.05374869
 0.05500396 0.05774292 0.06081121 0.06198266 0.06039331 0.05809909 0.05803508 0.06088433 0.06472281 0.06736929
 0.06840321 0.06901893 0.07048057 0.07282787 0.0747133 0.07442186 0.07157624 0.06809671 0.06684643 0.06882071
 0.07218651 0.07453237 0.07540805 0.07606137 0.07725458 0.07808569 0.07693101 0.07337583 0.06925669 0.06753238
 0.06970809 0.07432589 0.07802045 0.07801245 0.07398043 0.06813117 0.06347808 0.06175811 0.06296235 0.06647676
 0.07175586 0.0777325 0.08254685 0.08458707 0.08366584 0.08092088 0.07751928 0.07358013 0.06879678 0.06423416
 0.06254458 0.06545708 0.07156631 0.07750697 0.08095834 0.0817994 0.08079623 0.07816937 0.07381389 0.06868164
 0.06523156 0.06551992 0.0687245 0.0716116 0.07192232 0.07043029 0.06927465 0.06928983 0.06970209 0.06977539
 0.069864 0.07080996 0.07274048 0.07475779 0.07580774 0.07563528 0.07482374 0.07411245 0.07372796 0.07322446
 0.07211328 0.07083578 0.07071573 0.07251134 0.07537484 0.07772507 0.07883444 0.07909403 0.0789624 0.07816409
 0.07609946 0.07298549 0.07031681 0.06975572 0.07152313 0.07426406 0.07645812 0.07750958 0.07759312 0.07710201
 0.07638524 0.07563816 0.07495811 0.07458548 0.07484208 0.07567304 0.07654678 0.07698788 0.0769641 0.0766481
 0.0760819 0.07524443 0.07429045 0.07355601 0.07331739 0.07358231 0.07413039 0.07471211 0.07513823 0.07524193
 0.07493779 0.07434911 0.07373281 0.0732455 0.07289387 0.0726959 0.0727292 0.07298456 0.07329778 0.07348686
 0.0734939 0.07336327 0.07314291 0.07285022 0.07250669 0.07217339 0.07194653 0.0718943 0.07197613 0.07206506
 0.07209235 0.07211865 0.07220122 0.07225469 0.07213829 0.07184635 0.07152471 0.07131204 0.07122838 0.07120642
 0.07116628 0.07103809 0.07075974 0.07032623 0.06986189 0.06957899 0.06961022 0.06990897 0.07032794 0.07073028
 0.07101071 0.07110818 0.07105273 0.07093757 0.07080993 0.07063592 0.07038735 0.07012284 0.06996816 0.07002038
 0.07026065 0.070563 0.07079811 0.07091339 0.07092257 0.07087743 0.07085687 0.0709095 0.07098436 0.07097833
 0.07086935 0.07075159 0.07072438 0.0707821 0.07082848 0.07078707 0.07068798 0.07063563 0.07069293 0.07082276
 0.07094851 0.07103932 0.07111865 0.07120902 0.07128336 0.07127737 0.07116441 0.07100772 0.07090352 0.07087886
 0.07088844 0.07090521 0.0709585 0.07107159 0.07120622 0.07129614 0.07132025 0.07132072 0.07134408 0.07137896
 0.07137109 0.07129583 0.07119089 0.07111417 0.07109112 0.07110725 0.0711319 0.07113943 0.07111898 0.07107369
 0.07101245 0.07094127 0.07086045 0.07077403 0.07070757 0.07070497 0.07078287 0.07088692 0.07091962 0.07082888
 0.0706594 0.07050443 0.07041296 0.07035514 0.07027492 0.07015738 0.07003433 0.0699397 0.06988044 0.06984539
 0.06982101 0.0697969 0.06977709 0.0697923 0.06987841 0.07002543 0.07016309 0.07022044 0.07019675 0.07015578
 0.07015555 0.07020259 0.07026974 0.07033681 0.07041088 0.07051592 0.07065809 0.07080127 0.07089679 0.07094164
 0.07098459 0.07107116 0.07120869 0.07138271 0.07157083 0.07173522 0.07184103 0.0718988 0.07196228 0.0720703
 0.07221036 0.07234921 0.07247815 0.07261334 0.07276787 0.07294399 0.07314896 0.07339965 0.0737052 0.07404894
 0.07438924 0.07468201 0.07491522 0.07512748 0.07538292 0.07571745 0.07611047 0.07650729 0.07686412 0.07717517
 0.0774643 0.07775368 0.07804559 0.07834133 0.07866454 0.07904211 0.07946505 0.07989152 0.08029202 0.0806732
 0.08105627 0.08144976 0.08184902 0.08225162 0.08266513 0.08309604 0.08353128 0.08393963 0.08430068 0.08462744
 0.0849547 0.08531233 0.08571054 0.08613136 0.08652569 0.08684473 0.08709688 0.08735502 0.08768026 0.08805135
 0.08839869 0.08869968 0.08900416 0.08936132 0.08975629 0.0901374 0.09048243 0.09081465 0.09116241 0.09152041
 0.09185037 0.09211495 0.09231524 0.09249453 0.09270079 0.09295305 0.09325373 0.09361356 0.09403462 0.09447645
 0.09487251 0.09518485 0.0954253 0.09562937 0.09583066 0.09605177 0.09629647 0.09655091 0.09680111 0.09703748
 0.09724248 0.09740374 0.09755056 0.09774349 0.09800993 0.09831973 0.09864134 0.09898695 0.09937531 0.09978111
 0.1001639 0.1005327 0.100936 0.1013806 0.1017994 0.1021221 0.1023469 0.102521 0.1026798 0.102844
 0.103053 0.103351 0.103737 0.1041595 0.1045685 0.1049506 0.1053147 0.1056619 0.1059787 0.106248
 0.1064614 0.1066261 0.1067652 0.1069169 0.107123 0.1074008 0.1077193 0.108016 0.1082425 0.108382
 0.1084268 0.1083697 0.1082356 0.1080916 0.1079901 0.1079034 0.1077404 0.1074265 0.1069482 0.1063256
 0.1055721 0.1046988 0.103747 0.1028008 0.1019635 0.1013202 0.1009217 0.1007971 0.1009688 0.1014333
 0.1021236 0.102908 0.1036343 0.1041698 0.1044048 0.104259 0.1037194 0.1028658 0.1018361 0.1007614
 0.09972753 0.09877282 0.09790251 0.09712242 0.09648785 0.09612227 0.09617709 0.09676698 0.09792994 0.09961377
 0.1016726 0.103887 0.1060286 0.1079435 0.1095904 0.1110078 0.1122573 0.1133972 0.114478 0.1155227
 0.1165103 0.1174038 0.1181961 0.1189116 0.119566 0.1201456 0.1206237 0.1209829 0.1212251 0.1213766
 0.1214774 0.1215575 0.1216314 0.1217141 0.1218204 0.1219319 0.1219799 0.1218754 0.1215604 0.1210405
 0.1203958 0.1197839 0.1194322 0.1195975 0.1204771 0.1220978 0.1242699 0.1266631 0.1289546 0.1309346
 0.1325259 0.1337529 0.1347028 0.1354795 0.1361626 0.1367951 0.1373962 0.1379744 0.1385296 0.1390572
 0.1395576 0.1400428 0.1405306 0.1410293 0.1415266 0.1419993 0.1424396 0.1428696 0.1433249 0.143821
 0.1443357 0.1448296 0.1452865 0.1457289 0.1461831 0.1466411 0.1470723 0.1474667 0.1478463 0.1482391
 0.1486601 0.1491089 0.1495665 0.1499982 0.1503781 0.1507145 0.15104 0.1513785 0.1517317 0.1520924
 0.1524585 0.1528309 0.1532055 0.153577 0.1539472 0.1543197 0.1546851 0.155022 0.1553219 0.1556044
 0.155901 0.1562257 0.1565648 0.1568958 0.1572148 0.1575437 0.157908 0.1583054 0.1587007 0.1590547
 0.1593561 0.159627 0.1599011 0.1601994 0.1605235 0.1608643 0.1612121 0.1615578 0.1618943 0.1622228
 0.1625526 0.1628917 0.1632381 0.1635832 0.1639191 0.1642433 0.1645589 0.1648732 0.1651991 0.1655526
 0.1659399 0.1663434 0.1667281 0.1670696 0.1673712 0.1676541 0.1679361 0.1682269 0.1685313 0.1688475
 0.1691679 0.1694875 0.1698105 0.1701444 0.1704902 0.1708396 0.1711839 0.1715214 0.171857 0.1721943
 0.172533 0.1728726 0.1732138 0.173554 0.1738874 0.1742117 0.1745314 0.1748528 0.1751787 0.1755069
 0.1758317 0.176149 0.1764618 0.176777 0.1770957 0.1774109 0.1777166 0.1780156 0.1783158 0.178624
 0.1789405 0.179261 0.1795814 0.1799017 0.1802236 0.1805461 0.1808665 0.1811831 0.1814952 0.1818037
 0.1821111 0.1824202 0.1827329 0.18305 0.1833709 0.1836919 0.18401 0.1843245 0.1846364 0.1849472
 0.185259 0.1855733 0.1858897 0.1862085 0.1865304 0.1868522 0.1871688 0.1874804 0.187792 0.1881063
 0.188423 0.1887415 0.1890609 0.1893791 0.1896958 0.19001 0.1903205 0.1906321 0.1909553 0.1912915
 0.191628 0.1919539 0.1922717 0.1925904 0.1929132 0.1932338 0.19354 0.1938252 0.1940974 0.1943721
 0.1946569 0.1949489 0.195243 0.195538 0.1958382 0.1961486 0.1964672 0.1967854 0.1971022 0.1974257
 0.1977568 0.1980857 0.1984059 0.1987208 0.1990356 0.1993534 0.1996762 0.2000035 0.2003335 0.2006667
 0.2010015 0.2013326 0.2016595 0.2019865 0.202314 0.2026384 0.20296 0.2032802 0.2035991 0.2039203
 0.2042489 0.2045801 0.2049053 0.2052248 0.205543 0.2058625 0.2061884 0.2065233 0.2068559 0.2071727
 0.2074754 0.2077737 0.2080736 0.2083851 0.2087171 0.2090619 0.2094022 0.2097324 0.2100546 0.210371
 0.2106899 0.2110204 0.2113556 0.2116836 0.2120043 0.212318 0.2126189 0.2129142 0.2132175 0.2135138
 0.2137388 0.2137491 0.2132241 0.2115395 0.2077327 0.2006776 0.18953 0.1742541 0.1558196 0.1358573
 0.1160555 0.09771423 0.08161134 0.06809975 0.05727373 0.04907426 0.04335336 0.03998515 0.03898226 0.04061701
 0.04555677 0.05446935 0.06653462 0.07813507 0.0842714 0.08250789 0.07529576 0.06773328 0.0633322 0.06233341
 0.06323744 0.06477452 0.06655245 0.06880986 0.07193706 0.07602443 0.08086009 0.08643609 0.09318142 0.1014139
 0.1106988 0.12004 0.1287426 0.1369513 0.145305 0.1541614 0.163223 0.1718339 0.1794999 0.1861294
 0.1919286 0.197178 0.2020765 0.206717 0.2111403 0.2153386 0.2191677 0.2223086 0.2244202 0.2254
 0.2255094 0.2252285 0.2249729 0.22493 0.2251114 0.2254829 0.2260216 0.2267093 0.2275261 0.2284493
 0.2294438 0.230468 0.2314906 0.2324928 0.2334566 0.2343633 0.2351995 0.2359604 0.2366531 0.237294
 0.2378964 0.2384648 0.2390026 0.2395155 0.2400057 0.240474 0.2409236 0.2413527 0.2417524 0.2421192
 0.2424625 0.2427928 0.2431132 0.2434264 0.243738 0.2440511 0.2443654 0.2446793 0.2449913 0.2453008
 0.2456106 0.2459222 0.2462306 0.2465304 0.2468233 0.2471122 0.2473965 0.2476773 0.247962 0.2482559
 0.2485573 0.2488621 0.2491654 0.2494594 0.2497398 0.2500136 0.2502964 0.2505994 0.2509177 0.2512346
 0.2515401 0.2518443 0.2521625 0.252492 0.2528179 0.2531348 0.2534485 0.253765 0.2540906 0.2544281
 0.2547601 0.2550527 0.2552926 0.2555108 0.2557589 0.2560647 0.2564111 0.2567546 0.2570674 0.2573598
 0.2576587 0.2579732 0.2582885 0.2585846 0.2588603 0.2591453 0.2594771 0.2598551 0.2602386 0.2605974
 0.2609382 0.2612755 0.2616139 0.2619592 0.2623072 0.2626234 0.2628734 0.2630813 0.2633343 0.263714
 0.2642174 0.2647474 0.2651991 0.265555 0.2658743 0.2662148 0.2665974 0.2669939 0.2673026 0.2674117
 0.2673729 0.2674372 0.2678263 0.2685085 0.269263 0.2699078 0.2704127 0.2708389 0.2712353 0.2715861
 0.2718276 0.2719188 0.2719237 0.2720258 0.2724047 0.2730563 0.2737814 0.2743891 0.2748464 0.275207
 0.2755102 0.2757803 0.2759795 0.2759356 0.2755242 0.2749988 0.2749256 0.2756332 0.2768396 0.2779558
 0.2786704 0.2791079 0.2794915 0.2798676 0.2801761 0.2803096 0.2799838 0.2788956 0.2773187 0.2762733
 0.2766843 0.2784474 0.2805999 0.2822815 0.2832776 0.2838093 0.2841547 0.2844566 0.2846151 0.2843119
 0.2833688 0.2822039 0.2817174 0.2824654 0.2840329 0.285474 0.2862746 0.2866219 0.2868942 0.2872366
 0.2874691 0.2870401 0.2853369 0.2825957 0.2803645 0.2804169 0.283013 0.2865779 0.2892584 0.2905165
 0.290984 0.291096 0.2904584 0.2885677 0.2855698 0.2821936 0.2795299 0.2788911 0.2809398 0.2845906
 0.2876255 0.2888871 0.2892572 0.2901916 0.2919766 0.2937439 0.2946028 0.2943313 0.2932143 0.2915455
 0.2894877 0.2875329 0.2867824 0.2881632 0.2912957 0.2946298 0.2968794 0.2979974 0.2984949 0.2979308
 0.2946127 0.2876325 0.279408 0.2750102 0.2776837 0.2854512 0.293237 0.2978551 0.2997508 0.3006201
 0.3011448 0.3007947 0.2981285 0.2915867 0.2819422 0.2738316 0.2726136 0.27907 0.2885227 0.2952035
 0.2961861 0.2916941 0.2840567 0.2770123 0.2741841 0.276884 0.2835425 0.291265 0.2975686 0.3010545
 0.3013967 0.2992173 0.2960356 0.2938883 0.2938563 0.2944614 0.2927871 0.2881627 0.2832871 0.2802665
 0.2773523 0.2721721 0.2669362 0.2669657 0.2737753 0.2825447 0.2875399 0.2879212 0.2866924 0.2852254
 0.2809043 0.270893 0.2575118 0.2483078 0.2494491 0.2593314 0.2700188 0.275007 0.274382 0.2724824
 0.2721058 0.2716714 0.267477 0.258543 0.2490364 0.2447706 0.2470287 0.2514139 0.2530483 0.2504753
 0.2439445 0.233817 0.2233406 0.2196533 0.2277364 0.2442868 0.2603255 0.2686071 0.2662551 0.253106
 0.2326691 0.2141998 0.2081958 0.2170029 0.2319688 0.2414162 0.2399078 0.2291687 0.2130663 0.1949759
 0.179338 0.1720903 0.1770677 0.1921098 0.2092719 0.2188325 0.2146339 0.1988099 0.1820931 0.1760921
 0.1827893 0.1932424 0.1976301 0.1941599 0.1876148 0.1831198 0.1831631 0.1873161 0.1927223 0.1967176
 0.1989516 0.1984994 0.1910018 0.1739567 0.1538558 0.1419429 0.1425061 0.1506427 0.1613063 0.1738233
 0.1860736 0.1913807 0.1860547 0.1764145 0.1734306 0.181072 0.1928933 0.1999133 0.199499 0.1958417
 0.1934384 0.1922786 0.1901038 0.1876191 0.1886849 0.1949809 0.2030681 0.2082291 0.2093868 0.2086773
 0.2078363 0.2069007 0.2054374 0.2033128 0.2005927 0.197656 0.1950919 0.1930317 0.1910356 0.1887742
 0.1860117 0.181645 0.17398 0.1632062 0.1529148 0.1473061 0.1468033 0.1483145 0.1498008 0.151484
 0.1516064 0.1452133 0.1307115 0.1152558 0.1095533 0.1175346 0.1334311 0.1482985 0.1567671 0.1574595
 0.1504156 0.1375906 0.1253752 0.1225775 0.1331905 0.152553 0.1723795 0.1878901 0.1982954 0.2028687
 0.200309 0.1918541 0.1824684 0.1780387 0.1818273 0.1929869 0.2067581 0.2156184 0.2129604 0.1997281
 0.1874865 0.1898952 0.2082732 0.2292942 0.2399485 0.2407519 0.2404324 0.2423689 0.2429226 0.2410173
 0.2419614 0.2501342 0.2624978 0.2715812 0.2720445 0.2627839 0.246172 0.2285003 0.2183553 0.2198201
 0.2279353 0.2341613 0.2346813 0.2299275 0.2195137 0.2042847 0.1916525 0.1911451 0.2033279 0.2185089
 0.2277672 0.2310753 0.233268 0.2357298 0.2347775 0.2272993 0.215941 0.2074522 0.2059895 0.2094698
 0.2130671 0.2143068 0.2131295 0.2090238 0.2013425 0.1923841 0.1874197 0.1901624 0.1989945 0.2085435
 0.2145377 0.2165112 0.2164919 0.2163885 0.2166738 0.2165757 0.215459 0.214625 0.2170489 0.224094
 0.2331768 0.2403449 0.2447897 0.2491195 0.2552833 0.2618641 0.2657835 0.2656782 0.2632434 0.2618037
 0.2636705 0.2683016 0.2726878 0.2739081 0.2718991 0.269764 0.2709058 0.2757666 0.2817589 0.2861914
 0.2884741 0.2895748 0.2904274 0.2911561 0.2910285 0.2890515 0.2854442 0.2825016 0.2829735 0.2873147
 0.2932124 0.2979211 0.3004348 0.3013493 0.3014 0.3006726 0.2990242 0.2967968 0.2948403 0.2938662
 0.2939606 0.2947487 0.2958196 0.2969041 0.2978494 0.2986102 0.2992181 0.2997003 0.3000727 0.3003954
 0.300726 0.3010144 0.3011543 0.301173 0.3012637 0.301565 0.3019755 0.3022573 0.3022512 0.3018956
 0.3011069 0.2998027 0.2980502 0.2960478 0.2939135 0.2916198 0.2892504 0.2872712 0.2863908 0.2870392
 0.2889694 0.2913966 0.2935197 0.2949204 0.2955954 0.2957875 0.2958187 0.2959418 0.2962196 0.2965282
 0.2966968 0.2966446 0.296395 0.2960032 0.2955055 0.2949277 0.294295 0.2936047 0.2928168 0.2919255
 0.2910439 0.2903621 0.2899825 0.2898096 0.2896258 0.2892682 0.2887241 0.2880767 0.2873873 0.2866378
 0.2857751 0.2848006 0.2838036 0.2828911 0.2820808 0.2812744 0.2803336 0.2791772 0.2778302 0.2764088
 0.2750432 0.2737831 0.2725707 0.2713085 0.2699299 0.2684069 0.2667351 0.2649407 0.2630753 0.2611845
 0.2592869 0.2573881 0.2554907 0.2535856 0.2516454 0.2496391 0.2475527 0.2453937 0.243178 0.24091
 0.2385587 0.236039 0.2332207 0.2299724 0.2262017 0.2218587 0.2169353 0.2114978 0.2057166 0.1998287
 0.1940596 0.1885752 0.1834946 0.1789196 0.1749448 0.1716416 0.1690476 0.1671778 0.1660393 0.1656276
 0.1659195 0.1668704 0.1684042 0.1704006 0.1727036 0.1751434 0.1775482 0.1797615 0.1816973 0.1833878
 0.1849581 0.1865322 0.1881585 0.1898126 0.1914462 0.1930129 0.1944551 0.195706 0.1967265 0.1975254
 0.1981307 0.1985568 0.1988142 0.1989282 0.1989299 0.1988324 0.1986284 0.1983233 0.1979795 0.1977313
 0.1977423 0.198136 0.1989479 0.2001186 0.2015233 0.2030285 0.2045446 0.2060402 0.2075243 0.2090244
 0.2105677 0.2121761 0.2138888 0.2157773 0.2179123 0.2203133 0.2229416 0.2257245 0.2285659 0.2313439
 0.2339242 0.2361911 0.2380811 0.2395996 0.2407997 0.2417411 0.2424704 0.2430285 0.2434523 0.2437671
 0.2439848 0.2441039 0.2441103 0.2439863 0.243724 0.2433232 0.2427934 0.2421644 0.2414783 0.2407592
 0.2400087 0.2392358 0.2384709 0.2377458 0.2370678 0.2364115 0.2357347 0.2350161 0.2342749 0.2335432
 0.2328231 0.2320781 0.2312545 0.2303053 0.2292119 0.2279899 0.2266611 0.2252271 0.2236807 0.2220338
 0.2203177 0.2185627 0.2167829 0.2149758 0.2131314 0.2112326 0.2092384 0.20709 0.2047716 0.202359
 0.1999768 0.1977115 0.1955832 0.1935779 0.1916744 0.1898508 0.1880922 0.1863968 0.1847732 0.1832371
 0.1818037 0.1804687 0.179206 0.1779927 0.1768338 0.1757594 0.1747994 0.1739595 0.1732206 0.1725623
 0.1719793 0.1714713 0.1710369 0.1706885 0.1704461 0.1702961 0.1701734 0.1700017 0.1697427 0.1694091
 0.1690457 0.1686989 0.1683895 0.1681108 0.167842 0.1675469 0.1671659 0.1666218 0.1658359 0.1647413
 0.1633051 0.1615517 0.1595565 0.1574299 0.1553133 0.1533592 0.1516796 0.1503149 0.1492461 0.1484123
 0.1477256 0.1471134 0.1465677 0.1461478 0.1459274 0.1459142 0.1460003 0.1460235 0.1459181 0.1457841
 0.1457874 0.1460233 0.1464782 0.1470654 0.1476724 0.1482097 0.1486319 0.1489147 0.149046 0.1490425
 0.1489353 0.1487356 0.1484469 0.1480952 0.1477114 0.1473019 0.1468531 0.1463371 0.1457163 0.1449771
 0.1441451 0.1432507 0.1423041 0.1412965 0.1401847 0.138915 0.137544 0.1363055 0.1354888 0.1352573
 0.1355799 0.1362753 0.1371243 0.1379928 0.1388079 0.139402 0.1395613 0.1393778 0.1394187 0.1403173
 0.1421673 0.1444191 0.1463651 0.1476319 0.1482103 0.1481977 0.1476641 0.14667 0.145236 0.1433238
 0.1409466 0.1382268 0.1352973 0.132272 0.1293271 0.12666 0.1243742 0.1224919 0.1210078 0.1199546
 0.1194474 0.1191116 0.1171209 0.1111518 0.1019585 0.09498407 0.0958128 0.1039147 0.1130026 0.117686
 0.1177793 0.1161197 0.1146765 0.1137518 0.1132444 0.1132853 0.1140022 0.1152733 0.1167229 0.1179292
 0.1186892 0.1190143 0.1188696 0.1179528 0.1156107 0.1110293 0.1038928 0.09502316 0.08612782 0.07878577
 0.07370784 0.07074578 0.06925835 0.06850113 0.06799369 0.06771262 0.06794946 0.06897247 0.07081114 0.07331839
 0.07632758 0.0796238 0.0828201 0.085494 0.08751285 0.08906037 0.0903067 0.09121245 0.09166987 0.09167056
 0.09129924 0.09067512 0.0899244 0.08913153 0.08827808 0.08726808 0.0860806 0.08490613 0.0840456 0.08363136
 0.08353033 0.08354346 0.08357896 0.08361006 0.08361132 0.08358526 0.08356659 0.08360127 0.08376399 0.08412315
 0.08463199 0.08512686 0.085471 0.08565445 0.08575181 0.08579315 0.08565886 0.08518524 0.08445998 0.08384427
 0.08350417 0.08309902 0.08221753 0.0810027 0.08005881 0.07979172 0.08006275 0.08044736 0.08062737 0.08053283
 0.08030783 0.08023822 0.08056633 0.08120601</values></Ydata></ScSm><ScRf><Ydata ylabel="Single channel"><values byteorder="INTEL" format="FLOAT32" numvalues="1820"> 0.06051772 0.06066868 0.06075543 0.06078599 0.06078888 0.06080506 0.06087447 0.06101378 0.06120185 0.0613872
 0.06152113 0.06159062 0.06161053 0.06158948 0.06153329 0.06148507 0.06151812 0.06166425 0.06186684 0.06201953
 0.06205194 0.06199221 0.06195175 0.06201734 0.06213431 0.06212215 0.06184486 0.06136759 0.06091329 0.06065537
 0.06060886 0.06076394 0.06119767 0.06186424 0.06235675 0.06219706 0.06143651 0.06068958 0.06045399 0.06063298
 0.06081475 0.06074802 0.06042641 0.06000103 0.05981866 0.06032372 0.06162331 0.06313115 0.06377794 0.06268486
 0.05979242 0.05606216 0.05312128 0.05238754 0.05406822 0.05687663 0.0589981 0.05953967 0.05895863 0.05813752
 0.05743398 0.05679456 0.05637595 0.05659072 0.05753884 0.05860947 0.05879109 0.05754029 0.05542869 0.05373693
 0.05328334 0.05390949 0.05516109 0.05678102 0.05801848 0.05724413 0.05355632 0.04879835 0.04672852 0.0494476
 0.05515683 0.05991663 0.061149 0.05907762 0.0555776 0.05262191 0.05153641 0.0526453 0.05522239 0.05809715
 0.06036176 0.06140018 0.06072736 0.05841593 0.055511 0.05352005 0.05348512 0.05557713 0.05906071 0.06235691
 0.06375928 0.06269485 0.06010539 0.05745074 0.05574781 0.05557336 0.05720482 0.06033245 0.06404109 0.06734189
 0.06957541 0.07047725 0.07023587 0.06937611 0.06835906 0.06749757 0.06723116 0.06785854 0.06881684 0.06889483
 0.06755367 0.06565242 0.06456631 0.06476722 0.06544937 0.06550768 0.06465258 0.06322943 0.06112932 0.05777398
 0.05344802 0.04964616 0.04757925 0.04725697 0.04838547 0.05083627 0.05358555 0.05464875 0.05325098 0.05121637
 0.05115395 0.05367473 0.05707455 0.05941831 0.06033112 0.0608727 0.06216743 0.06425257 0.06593078 0.06567696
 0.06315576 0.06007511 0.05897973 0.06075054 0.06375526 0.06585526 0.06666104 0.06728685 0.06840228 0.06919061
 0.06820007 0.06506886 0.06144506 0.05996417 0.0619517 0.06609705 0.06940772 0.06941942 0.06584863 0.06065914
 0.05653797 0.05503926 0.05616404 0.05937732 0.06420223 0.06968431 0.07414705 0.0761226 0.07541239 0.07302088
 0.07000759 0.06650054 0.06223284 0.05817099 0.05672793 0.05948473 0.06516742 0.07070829 0.07398574 0.07488333
 0.07409305 0.07180384 0.06790772 0.06328544 0.06022609 0.06064486 0.06377354 0.0665973 0.06701239 0.0657451
 0.06479886 0.06495872 0.06549855 0.06572093 0.06595737 0.06700909 0.06900338 0.07108892 0.07225794 0.07226047
 0.07165115 0.071141 0.0709468 0.07063091 0.06972052 0.06865869 0.06874445 0.07071003 0.07371359 0.07620411
 0.0774748 0.07791842 0.07798755 0.07739706 0.07553276 0.07260253 0.07010899 0.06973498 0.07171626 0.07469316
 0.07712512 0.07839906 0.078688 0.0783955 0.07788193 0.0773485 0.07689207 0.07675049 0.07724557 0.07832129
 0.07943667 0.08010346 0.08028418 0.080153 0.07975267 0.07906651 0.07826617 0.07770988 0.07768392 0.0781878
 0.07898606 0.07981868 0.08048728 0.08080754 0.08067565 0.08022055 0.07973328 0.0794028 0.07924101 0.07925563
 0.07951727 0.08000812 0.08054605 0.08093475 0.08111963 0.08115803 0.08110429 0.08097236 0.08077994 0.08059465
 0.08052743 0.08065265 0.08091731 0.0811795 0.08137576 0.0815846 0.08186273 0.08209646 0.08211838 0.08192995
 0.08171093 0.08162369 0.08168253 0.0818036 0.0819013 0.08190307 0.0817336 0.08137926 0.08098377 0.08079794
 0.0809802 0.08148214 0.08213478 0.08276872 0.08324494 0.0834862 0.08353502 0.08350889 0.08346471 0.08336059
 0.08316465 0.08295295 0.08288065 0.08306164 0.08346598 0.08393744 0.08431941 0.08454904 0.0846471 0.08468616
 0.08477023 0.08495414 0.0851583 0.08524195 0.08518229 0.08511057 0.08514921 0.08527081 0.08534517 0.08529647
 0.08519035 0.08516684 0.08529706 0.08552316 0.08573911 0.08590494 0.08606606 0.08627044 0.08647901 0.0865755
 0.08648929 0.08629338 0.08613473 0.08607809 0.08608045 0.0861135 0.08622371 0.08643706 0.08667202 0.08680733
 0.08681644 0.08678995 0.08682116 0.08689773 0.0869223 0.08682563 0.08663936 0.08646323 0.08638175 0.08641166
 0.0865045 0.08658421 0.08659311 0.08652224 0.08640688 0.08629153 0.08619994 0.0861462 0.08616814 0.08631459
 0.08657039 0.0868099 0.08687194 0.0867051 0.08642541 0.08621264 0.0861486 0.08616132 0.08611691 0.08594836
 0.08569513 0.08544287 0.08524727 0.08510967 0.08500157 0.08490358 0.0848339 0.08484437 0.08496636 0.08514265
 0.08523565 0.08514111 0.0848912 0.08462034 0.08443891 0.0843651 0.08435602 0.08436267 0.08436571 0.08438867
 0.0844612 0.08455268 0.08457901 0.0845005 0.08437835 0.08431618 0.08437879 0.08456679 0.08481206 0.08499043
 0.08500414 0.08488025 0.08474864 0.0847099 0.08475997 0.08484478 0.08493713 0.08503756 0.08514085 0.08523969
 0.08535124 0.0855113 0.0857361 0.0859981 0.0862394 0.08640973 0.08650683 0.08659038 0.08674505 0.08701151
 0.08734955 0.08767259 0.08792045 0.08810195 0.08827031 0.08846084 0.08866321 0.08886122 0.08907685 0.08934652
 0.08966564 0.08999012 0.09028973 0.09057184 0.09085469 0.09114352 0.09143792 0.09175105 0.09211357 0.09254484
 0.09300621 0.09340007 0.09364717 0.09376573 0.09385946 0.09403696 0.09434377 0.0947343 0.09508803 0.09529755
 0.09537992 0.0954704 0.09567139 0.09594339 0.09618793 0.09640172 0.09668419 0.09709631 0.09756701 0.09795832
 0.09819873 0.09833834 0.09848338 0.0986848 0.09889488 0.09903867 0.09911445 0.09919337 0.09932542 0.09949604
 0.09969319 0.09996004 0.1003337 0.1007649 0.1011506 0.1014315 0.1016224 0.1017646 0.1018838 0.1019829
 0.1020468 0.1020685 0.1020828 0.1021455 0.1022608 0.1023649 0.1024077 0.1024197 0.1024727 0.1026054
 0.1028166 0.1030965 0.1034204 0.1037318 0.1039899 0.1042335 0.1045432 0.1049212 0.1052559 0.1054416
 0.1054945 0.1055078 0.1055316 0.1055593 0.105611 0.1057508 0.1060083 0.106338 0.106678 0.1070103
 0.1073487 0.1076927 0.1080083 0.1082436 0.1083608 0.108367 0.1083237 0.1083195 0.1084254 0.1086588
 0.108977 0.109307 0.1095904 0.109797 0.1099043 0.1099006 0.1098294 0.1097986 0.1098967 0.1100939
 0.1102553 0.1102549 0.1100558 0.1096855 0.1091737 0.1085446 0.1078515 0.1071853 0.1066354 0.1062481
 0.1060333 0.1060071 0.1062093 0.1066571 0.1072886 0.1079794 0.1086179 0.1091342 0.1094549 0.1094839
 0.1091736 0.1085886 0.1078688 0.1071386 0.1064648 0.10586 0.1052928 0.1047262 0.1041974 0.1038572
 0.1039012 0.1044517 0.1054946 0.1068907 0.1084252 0.1098772 0.111101 0.1120737 0.1128679 0.1135727
 0.1142418 0.1149027 0.1155773 0.1162629 0.1169096 0.1174592 0.1179101 0.1183146 0.1187145 0.1191032
 0.119449 0.1197301 0.1199514 0.1201468 0.120348 0.1205369 0.1206485 0.1206425 0.1205502 0.1204316
 0.1203082 0.1201495 0.1199059 0.11955 0.1191148 0.1187198 0.1185479 0.1187657 0.119433 0.1204708
 0.1217193 0.1230319 0.1243105 0.1254662 0.1264015 0.1270664 0.1275066 0.1278241 0.1281024 0.1283817
 0.1286767 0.1289871 0.1292987 0.1295961 0.1298772 0.1301547 0.1304498 0.1307752 0.131115 0.131427
 0.1316836 0.1319095 0.132169 0.1325047 0.1328918 0.1332636 0.1335864 0.1338922 0.1342196 0.1345438
 0.1348026 0.1349809 0.1351341 0.1353308 0.1356031 0.1359445 0.1363144 0.136648 0.1368988 0.1370821
 0.137256 0.1374613 0.1376945 0.1379345 0.1381724 0.1384113 0.1386553 0.1389112 0.1391931 0.1395073
 0.1398255 0.1400924 0.1402747 0.1403997 0.1405315 0.140713 0.1409352 0.1411614 0.1413728 0.1415911
 0.1418534 0.1421644 0.1424773 0.1427314 0.142906 0.1430316 0.1431548 0.1433038 0.1434833 0.1436864
 0.1439017 0.1441149 0.1443165 0.144511 0.144712 0.1449262 0.1451451 0.145356 0.1455546 0.145747
 0.1459419 0.1461461 0.1463665 0.146615 0.146902 0.1472163 0.1475161 0.1477571 0.1479295 0.1480619
 0.1481889 0.1483285 0.1484874 0.14867 0.1488743 0.1490868 0.1492924 0.1494879 0.1496826 0.149884
 0.1500891 0.1502907 0.1504875 0.1506853 0.1508921 0.1511141 0.1513502 0.1515874 0.1518067 0.152
 0.1521776 0.1523583 0.1525545 0.1527633 0.1529714 0.1531681 0.1533547 0.1535399 0.1537289 0.1539218
 0.1541169 0.15431 0.1544966 0.1546767 0.1548573 0.1550467 0.1552474 0.1554552 0.1556618 0.1558605
 0.1560518 0.1562424 0.1564378 0.1566383 0.1568405 0.1570384 0.1572287 0.1574152 0.1576063 0.1578092
 0.1580258 0.158251 0.1584713 0.1586721 0.1588506 0.1590201 0.1591977 0.1593922 0.1596006 0.1598132
 0.1600208 0.1602207 0.160417 0.1606174 0.1608295 0.161056 0.1612898 0.1615179 0.1617322 0.1619345
 0.1621322 0.1623324 0.1625392 0.1627532 0.1629726 0.1631955 0.1634187 0.1636351 0.1638357 0.1640148
 0.1641755 0.1643316 0.1644993 0.1646842 0.1648788 0.1650736 0.1652624 0.1654415 0.165616 0.1658015
 0.1660085 0.1662299 0.1664505 0.1666615 0.1668618 0.1670543 0.167245 0.1674403 0.1676417 0.1678479
 0.168055 0.1682569 0.1684517 0.1686466 0.1688488 0.1690575 0.1692698 0.1694855 0.1697033 0.1699206
 0.1701367 0.1703503 0.1705581 0.1707597 0.1709558 0.1711455 0.1713345 0.1715366 0.1717572 0.1719851
 0.1722085 0.1724246 0.1726353 0.1728447 0.1730577 0.1732705 0.173473 0.1736678 0.1738696 0.174084
 0.1743047 0.1745258 0.1747432 0.1749549 0.1751681 0.1753914 0.1756174 0.1758327 0.1760381 0.1762418
 0.1764471 0.1766546 0.1768601 0.1770445 0.177166 0.1771186 0.176633 0.1751777 0.1719466 0.166011
 0.1566785 0.1439237 0.1285545 0.1119305 0.09546061 0.08022629 0.06686656 0.05566178 0.04668253 0.03988347
 0.03514947 0.03237393 0.03155503 0.03290794 0.03698157 0.04432654 0.05426507 0.06381541 0.0688577 0.06738256
 0.06141054 0.05515268 0.05151479 0.05069692 0.05145244 0.05272131 0.05417364 0.05600971 0.0585604 0.06190703
 0.06587721 0.07046557 0.07602535 0.08281136 0.09045412 0.0981283 0.1052673 0.1119994 0.1188542 0.126123
 0.1335569 0.1406155 0.146895 0.1523206 0.1570598 0.1613425 0.165335 0.1691161 0.1727176 0.1761293
 0.1792324 0.1817715 0.1834728 0.1842497 0.1843077 0.184038 0.1837881 0.1837168 0.1838306 0.1840968
 0.1844976 0.185023 0.1856593 0.1863854 0.1871692 0.1879764 0.1887819 0.1895646 0.1903039 0.1909913
 0.1916312 0.1922249 0.1927666 0.1932578 0.1937098 0.1941335 0.1945341 0.1949135 0.1952721 0.195614
 0.1959467 0.1962705 0.1965733 0.1968453 0.1970901 0.1973178 0.1975346 0.1977454 0.1979555 0.1981673
 0.1983794 0.1985907 0.1988011 0.1990117 0.1992233 0.1994343 0.19964 0.1998381 0.2000325 0.2002275
 0.2004223 0.2006132 0.200798 0.2009809 0.2011726 0.2013814 0.2016022 0.2018175 0.2020128 0.2021889
 0.20236 0.2025414 0.202737 0.2029361 0.2031287 0.2033202 0.2035233 0.2037399 0.2039614 0.2041816
 0.2043988 0.2046127 0.2048267 0.2050426 0.2052478 0.2054201 0.2055559 0.2056846 0.2058481 0.2060657
 0.2063192 0.2065704 0.2067951 0.2069985 0.2071984 0.2074017 0.2076006 0.2077817 0.2079415 0.2081022
 0.2083008 0.2085492 0.2088206 0.209086 0.2093413 0.2095887 0.209824 0.2100497 0.2102722 0.2104785
 0.2106462 0.2107853 0.2109507 0.2111985 0.2115298 0.2118827 0.2121879 0.2124303 0.2126439 0.2128677
 0.213124 0.2133977 0.2136055 0.2136522 0.213578 0.2135893 0.2138667 0.2143813 0.2149503 0.2154263
 0.2157846 0.2160712 0.2163239 0.2165354 0.216664 0.2166842 0.2166514 0.2167123 0.2170027 0.2175059
 0.2180519 0.2184871 0.2187931 0.2190233 0.219211 0.2193703 0.21947 0.2193827 0.2190181 0.2185742
 0.2184904 0.2190228 0.2199524 0.2208169 0.2213675 0.2216964 0.2219759 0.2222463 0.2224656 0.2225466
 0.2222526 0.2213351 0.2200203 0.2191413 0.2194474 0.2208473 0.2225552 0.2238783 0.2246515 0.2250556
 0.2253115 0.2255359 0.2256544 0.2254104 0.2246497 0.2236982 0.2232796 0.2238486 0.2250795 0.2262132
 0.226832 0.2270837 0.2272778 0.2275412 0.2277306 0.2273893 0.2260095 0.2237807 0.2219594 0.2219764
 0.2240344 0.2268676 0.2289983 0.2300029 0.2303833 0.2304779 0.2299672 0.2284516 0.2260548 0.2233643
 0.2212498 0.2207514 0.2223897 0.2252959 0.2277041 0.2286967 0.2289807 0.2297207 0.231149 0.2325741
 0.2332792 0.2330798 0.2322018 0.2308799 0.2292399 0.227673 0.2270656 0.2281689 0.2306844 0.2333698
 0.235189 0.2360998 0.2365137 0.2360821 0.2334499 0.2278862 0.2213254 0.2178282 0.2199932 0.2262394
 0.232505 0.2362398 0.2377993 0.2385373 0.2389923 0.2387375 0.2366292 0.231431 0.2237602 0.2173162
 0.2163791 0.2215749 0.2291688 0.2345546 0.2353935 0.2318572 0.2258043 0.2202262 0.2180221 0.2202436
 0.2256431 0.23191 0.2370495 0.2399293 0.2402812 0.2386025 0.2361162 0.2344664 0.2345247 0.2350982
 0.2338399 0.2302145 0.2263936 0.2240682 0.2218317 0.2177782 0.2136928 0.2138686 0.2195272 0.2267711
 0.2309633 0.2314271 0.2305954 0.2295787 0.2262573 0.2183255 0.2076529 0.2003664 0.2014939 0.2097439
 0.2186589 0.2229439 0.2226784 0.2214091 0.221423 0.2214189 0.2183404 0.2113658 0.2039309 0.2008424
 0.2031602 0.2072467 0.2090646 0.207388 0.2023896 0.1943608 0.1860387 0.183424 0.1907185 0.2051821
 0.2192829 0.2268966 0.2255341 0.2149827 0.1981916 0.1830984 0.1787643 0.1872418 0.2010684 0.2101332
 0.2096961 0.2012112 0.188008 0.1730417 0.1602924 0.1551631 0.1612365 0.1766512 0.1941289 0.204565
 0.2020506 0.188504 0.1741362 0.170098 0.1782869 0.1900097 0.1957147 0.1936623 0.1885397 0.1854505
 0.1869905 0.1927854 0.1998765 0.2054996 0.2092871 0.210125 0.20318 0.1857006 0.1646916 0.1523038
 0.1532228 0.1622589 0.174058 0.1879142 0.201463 0.2073765 0.2016243 0.1911148 0.1878223 0.1960748
 0.2088466 0.2163552 0.2157454 0.2116182 0.2089244 0.2076964 0.2055042 0.203147 0.2048545 0.2124494
 0.2221539 0.2287974 0.2311887 0.2316603 0.2321229 0.232612 0.2326068 0.2319037 0.2305572 0.2290156
 0.2279795 0.2276121 0.2273876 0.2268885 0.2257923 0.2226646 0.2152622 0.2036886 0.1924088 0.1867129
 0.1871035 0.1896637 0.1918865 0.1941274 0.1941485 0.1856018 0.166407 0.1456139 0.1368134 0.1450045
 0.162874 0.1791357 0.1871794 0.1856326 0.1749806 0.1577633 0.1412687 0.1352582 0.1440114 0.1622207
 0.1806628 0.1941463 0.2021153 0.2042484 0.1994703 0.1890843 0.1780397 0.1721016 0.1743276 0.1837215
 0.1955835 0.2027318 0.1990072 0.1853879 0.1726963 0.173626 0.1894335 0.207862 0.2169233 0.2170339
 0.2161627 0.2174327 0.2175755 0.2156253 0.216396 0.2238773 0.2353643 0.2441257 0.2453099 0.2378597
 0.2238902 0.2091745 0.2016328 0.204945 0.2142977 0.2215601 0.2231205 0.2193977 0.2100476 0.1959878
 0.1844888 0.1848023 0.1974474 0.212998 0.2227913 0.2268175 0.2297985 0.2330586 0.2329236 0.2262984
 0.2158473 0.2083584 0.2080327 0.2128081 0.217852 0.2206563 0.2210674 0.2184001 0.2118698 0.2038763
 0.2000207 0.20423 0.2146678 0.2254262 0.231786 0.2331529 0.2316694 0.2294374 0.2271102 0.2240592
 0.2197728 0.2156743 0.2148478 0.2187474 0.2248921 0.229422 0.2315178 0.2336695 0.2377589 0.2424693
 0.2448876 0.2436766 0.2403412 0.2379141 0.2385226 0.2417019 0.2447425 0.2450041 0.2424273 0.2398267
 0.2403012 0.2442794 0.2494491 0.2533898 0.2555492 0.2567532 0.2577874 0.2587039 0.2587798 0.2570681
 0.2537327 0.2508209 0.2508069 0.2541384 0.2588161 0.2624662 0.264261 0.2647755 0.264672 0.2640075
 0.262632 0.2608256 0.2593109 0.2586771 0.2589523 0.2597545 0.2606903 0.2615324 0.2621855 0.2626477
 0.2629673 0.2631751 0.2632836 0.2633458 0.2634193 0.2634655 0.263392 0.2632324 0.2631784 0.2633666
 0.2637044 0.263975 0.2640395 0.2638471 0.2633188 0.262372 0.2610635 0.2595775 0.2580234 0.2563577
 0.2546215 0.2532107 0.2527625 0.2536723 0.2557198 0.2581987 0.2604029 0.2619864 0.2629536 0.2634566
 0.2636591 0.2637033 0.2636874 0.2636387 0.2635304 0.2633367 0.2630629 0.2627307 0.2623572 0.26196
 0.2615721 0.261231 0.2609456 0.2606767 0.2603604 0.2599542 0.2594669 0.2589425 0.2584125 0.2578585
 0.2572232 0.2564577 0.2555624 0.2545942 0.2536432 0.2527849 0.2520286 0.2513126 0.2505629 0.2497469
 0.2488503 0.2478365 0.2466857 0.2454786 0.2443806 0.2435099 0.2428395 0.2422417 0.2415956 0.2408401
 0.2399648 0.2389952 0.2379753 0.2369317 0.2358528 0.234712 0.2334993 0.2322163 0.2308595 0.2294227
 0.2279079 0.2263261 0.2246981 0.2230486 0.2213777 0.2196261 0.2176751 0.2153845 0.2126299 0.2093217
 0.2054247 0.2009872 0.1961593 0.1911657 0.1862384 0.181557 0.1772401 0.173375 0.1700374 0.1672902
 0.1651807 0.1637471 0.1630219 0.1630218 0.1637315 0.1651014 0.1670582 0.1695068 0.1723168 0.1753175
 0.1783211 0.1811647 0.1837552 0.1860993 0.1882786 0.1903641 0.1923503 0.1941792 0.1958081 0.1972289
 0.1984456 0.1994647 0.2003053 0.2009974 0.2015718 0.2020544 0.2024661 0.2028226 0.2031347 0.2034059
 0.2036343 0.2038242 0.203995 0.2041745 0.2043844 0.2046328 0.2049154 0.2052309 0.2055961 0.2060346
 0.2065439 0.2070915 0.2076496 0.2082188 0.2088142 0.2094536 0.2101627 0.2109781 0.2119364 0.2130581
 0.2143323 0.2157078 0.2171057 0.218441 0.2196375 0.220635 0.221397 0.2219127 0.2221953 0.2222802
 0.2222149 0.2220339 0.2217485 0.2213645 0.220896 0.2203602 0.2197722 0.2191492 0.2185061 0.2178462
 0.2171646 0.2164641 0.2157582 0.2150581 0.2143686 0.2136969 0.2130556 0.212449 0.2118648 0.2112879
 0.2107179 0.2101625 0.2096188 0.2090708 0.208502 0.207899 0.2072428 0.2065081 0.2056763 0.2047442
 0.2037196 0.2026099 0.2014208 0.2001603 0.1988349 0.1974381 0.195951 0.1943638 0.192691 0.1909512
 0.1891345 0.1872095 0.1851793 0.1831195 0.181141 0.1793156 0.1776441 0.1760848 0.1745993 0.1731777
 0.1718328 0.1705711 0.1693737 0.1682123 0.1670809 0.1659969 0.1649757 0.1640174 0.1631205 0.1622966
 0.161565 0.160932 0.1603828 0.1599012 0.1594853 0.1591353 0.1588502 0.1586504 0.1585746 0.1586216
 0.1587177 0.15877 0.1587349 0.1586286 0.1584937 0.1583677 0.1582661 0.1581873 0.1581273 0.1580718
 0.1579671 0.1577143 0.1571983 0.1563313 0.1550915 0.1535324 0.1517539 0.1498742 0.1480273 0.1463452
 0.1449155 0.1437684 0.1429001 0.1422732 0.1418096 0.141429 0.1411027 0.1408685 0.1408005 0.1409366
 0.1411958 0.1414056 0.141468 0.1414713 0.1416032 0.1419911 0.1426335 0.1434216 0.1442058 0.1448815
 0.1454191 0.1458143 0.1460603 0.1461755 0.1461984 0.1461477 0.1460245 0.1458357 0.1455884 0.1452892
 0.1449562 0.1445906 0.1441527 0.1436023 0.1429369 0.1421707 0.141319 0.140397 0.1393837 0.138236
 0.1370091 0.1359174 0.13522 0.1350707 0.1354638 0.1362509 0.1372352 0.1382989 0.1393666 0.1402356
 0.1406432 0.1406492 0.1408172 0.1418123 0.143781 0.1461982 0.1483324 0.1497827 0.150538 0.1506902
 0.1502904 0.1493956 0.1480353 0.1461658 0.1437916 0.1410459 0.1380807 0.1350261 0.1320772 0.1294422
 0.1272202 0.1254292 0.1240597 0.1231253 0.1227324 0.1225179 0.1206203 0.114632 0.1053279 0.09835446
 0.09948339 0.1081175 0.1177034 0.1226534 0.122798 0.121106 0.1196317 0.1186766 0.1181302 0.1181472
 0.1188596 0.1200988 0.1214519 0.1225274 0.1231917 0.1235022 0.1234096 0.1225299 0.120109 0.1152967
 0.1078306 0.0986101 0.08938639 0.08175166 0.07642581 0.07328068 0.07169856 0.07092717 0.07043599 0.07016194
 0.07040912 0.07147797 0.07341143 0.07606441 0.0792575 0.08273248 0.08606661 0.08885854 0.09102172 0.09274441
 0.09415676 0.09517668 0.09567988 0.0956785 0.0953016 0.09469622 0.09397994 0.09321429 0.09236409 0.09132664
 0.09009258 0.08887567 0.08798322 0.08753455 0.08738986 0.08735277 0.0873348 0.08732545 0.08732088 0.0873127
 0.08729717 0.08730468 0.08742487 0.08773687 0.08819736 0.08865243 0.08896463 0.08910435 0.08913727 0.08910712
 0.088902 0.08834273 0.08749729 0.08672982 0.08623961 0.08572167 0.08476269 0.08347277 0.08244158 0.08209152
 0.08229715 0.08263173 0.08277719 0.08266336 0.08242211 0.08232785 0.08262588 0.08324254 0.08374588 0.08374877
</values></Ydata></ScRf><Data_Parameters_AB><parameter name="DPF">1</parameter><parameter name="NPT">3497</parameter><parameter name="FXV">3996</parameter><parameter name="LXV">500</parameter><parameter name="CSF">1</parameter><parameter name="MXY">0.107718132436275</parameter><parameter name="MNY">-0.10154527425766</parameter><parameter name="DAT">30/05/2022</parameter><parameter name="TIM">12:14:33.256 (GMT+2)</parameter><parameter name="DXU">WN</parameter></Data_Parameters_AB><AB__Qtest><MainReport name="Quality Test Report"><Header><Line><Legend>Test result ok/not ok [1/0]: </Legend><Value>0</Value></Line><Line><Legend>Method file: </Legend><Value>C:\Users\Public\Documents\Bruker\OPUS_8.2.28\QT\IRBT_v3_default.QT</Value></Line></Header><Matrix><Line><Legend></Legend><Legend>min</Legend><Legend>max</Legend><Legend>measured</Legend></Line><Line><Value>Absorption (X-Range 1):</Value><Value>0.400000</Value><Value>2.000000</Value><Value>0.156878</Value></Line><Line><Value>Noise (X-Range 4):</Value><Value></Value><Value>0.000300</Value><Value>0.000052</Value></Line><Line><Value>Signal/Noise (X-Range 2):</Value><Value>200.000000</Value><Value></Value><Value>43.826732</Value></Line><Line><Value>Signal/Noise (X-Range 3):</Value><Value>40.000000</Value><Value></Value><Value>41.911458</Value></Line><Line><Value>Water vapour (X-Range 5):</Value><Value></Value><Value>0.000300</Value><Value>0.000072</Value></Line><Line><Value>Signal/Water (X-Range 2):</Value><Value>100.000000</Value><Value></Value><Value>31.522306</Value></Line><Line><Value>Signal/Water (X-Range 3):</Value><Value>20.000000</Value><Value></Value><Value>30.144748</Value></Line><Line><Value>Fringes (X-Range 6):</Value><Value></Value><Value>0.000100</Value><Value>0.000045</Value></Line></Matrix></MainReport></AB__Qtest><Data_Parameters_ScSm><parameter name="DPF">1</parameter><parameter name="NPT">1814</parameter><parameter name="FXV">3996.33169228125</parameter><parameter name="LXV">499.541461535156</parameter><parameter name="CSF">1</parameter><parameter name="MXY">0.30225732922554</parameter><parameter name="MNY">0.0389822572469711</parameter><parameter name="DAT">30/05/2022</parameter><parameter name="TIM">12:14:33.256 (GMT+2)</parameter><parameter name="DXU">WN</parameter></Data_Parameters_ScSm><Data_Parameters_ScRf><parameter name="DPF">1</parameter><parameter name="NPT">1820</parameter><parameter name="FXV">4004.04661832813</parameter><parameter name="LXV">495.683998511719</parameter><parameter name="CSF">1</parameter><parameter name="MXY">0.264775514602661</parameter><parameter name="MNY">0.0315550342202187</parameter><parameter name="DAT">30/05/2022</parameter><parameter name="TIM">12:14:06.911 (GMT+2)</parameter><parameter name="DXU">WN</parameter></Data_Parameters_ScRf><Optic_Parameters_Rf><parameter name="APR">0</parameter><parameter name="APT">Open</parameter><parameter name="BMS">KBr</parameter><parameter name="DTC">RT-DLaTGS_IR-Biotyper [Microplate reader]</parameter><parameter name="HPF">0</parameter><parameter name="LPF">10.0</parameter><parameter name="LPV">4000</parameter><parameter name="PGR">0</parameter><parameter name="RCH">Module port</parameter><parameter name="RDX">0</parameter><parameter name="SRC">MIR</parameter><parameter name="VEL">10.0</parameter><parameter name="SON">Off</parameter></Optic_Parameters_Rf><Acquisition_Parameters_Rf><parameter name="ADT">1</parameter><parameter name="AQM">DD</parameter><parameter name="CFE">0</parameter><parameter name="COR">0</parameter><parameter name="DEL">0</parameter><parameter name="DLY">0</parameter><parameter name="HFW">8000</parameter><parameter name="LFW">0</parameter><parameter name="NSR">32</parameter><parameter name="PLF">AB</parameter><parameter name="RES">6</parameter><parameter name="RGN">-1</parameter><parameter name="STR">0</parameter><parameter name="TCL">MakeCompatibleScalar (0, {WSV=1.000000, ARV=0});</parameter><parameter name="TDL">37</parameter><parameter name="RPO">0</parameter></Acquisition_Parameters_Rf><FT_-_Parameters_Rf><parameter name="APF">B3</parameter><parameter name="HFQ">500</parameter><parameter name="LFQ">4000</parameter><parameter name="NLI">0</parameter><parameter name="PHR">24</parameter><parameter name="PHZ">ML</parameter><parameter name="SPZ">NO</parameter><parameter name="ZFF">1</parameter></FT_-_Parameters_Rf><Optic_Parameters_><parameter name="APR">0</parameter><parameter name="APT">Open</parameter><parameter name="BMS">KBr</parameter><parameter name="CHN">Module port</parameter><parameter name="DTC">RT-DLaTGS_IR-Biotyper [Microplate reader]</parameter><parameter name="HPF">0</parameter><parameter name="LPF">10.0</parameter><parameter name="LPV">4000</parameter><parameter name="PGN">0</parameter><parameter name="RDX">0</parameter><parameter name="SRC">MIR</parameter><parameter name="VEL">10.0</parameter><parameter name="SON">Off</parameter></Optic_Parameters_><FT_-_Parameters_><parameter name="APF">B3</parameter><parameter name="HFQ">500</parameter><parameter name="LFQ">4000</parameter><parameter name="NLI">0</parameter><parameter name="PHR">24</parameter><parameter name="PHZ">ML</parameter><parameter name="SPZ">NO</parameter><parameter name="ZFF">1</parameter></FT_-_Parameters_><Acquisition_Parameters_><parameter name="ADT">1</parameter><parameter name="AQM">DD</parameter><parameter name="CFE">0</parameter><parameter name="COR">0</parameter><parameter name="DEL">0</parameter><parameter name="DLY">0</parameter><parameter name="HFW">8000</parameter><parameter name="LFW">0</parameter><parameter name="NSS">32</parameter><parameter name="PLF">AB</parameter><parameter name="RES">6</parameter><parameter name="SOT">0</parameter><parameter name="TCL">MakeCompatibleScalar (0, {WSV=1.000000, ARV=0});</parameter><parameter name="TDL">37</parameter><parameter name="SPO">0</parameter><parameter name="SGN">-1</parameter></Acquisition_Parameters_><Instrument_Parameters_Rf><parameter name="HFL">15800.168544</parameter><parameter name="LFL">0</parameter><parameter name="LWN">15800.168544</parameter><parameter name="ABP">32197</parameter><parameter name="SSP">1</parameter><parameter name="ARG">2</parameter><parameter name="ASG">2</parameter><parameter name="ASS">32</parameter><parameter name="GFW">16</parameter><parameter name="GBW">16</parameter><parameter name="BFW">0</parameter><parameter name="BBW">0</parameter><parameter name="PKA">7284</parameter><parameter name="PKL">4996</parameter><parameter name="PRA">7457</parameter><parameter name="PRL">5001</parameter><parameter name="P2A">1</parameter><parameter name="P2L">1</parameter><parameter name="P2R">1</parameter><parameter name="P2K">1</parameter><parameter name="DAQ">0</parameter><parameter name="AG2">1</parameter><parameter name="SSM">1</parameter><parameter name="RSN">25310</parameter><parameter name="CRR">0</parameter><parameter name="SRT">1653912846.911</parameter><parameter name="DUR">19.6369934082031</parameter><parameter name="TSC">28.2</parameter><parameter name="MVD">0.255656599998474</parameter><parameter name="AN1">0.225802309160238</parameter><parameter name="AN2">0</parameter><parameter name="VSN">2.485 Apr  4 2017</parameter><parameter name="SRN">0085</parameter><parameter name="CAM">0</parameter><parameter name="INS">IR-Biotyper</parameter><parameter name="FOC">69</parameter><parameter name="RDY">1</parameter><parameter name="ARS">32</parameter></Instrument_Parameters_Rf><Sample_Parameters_><parameter name="BLD"></parameter><parameter name="CNM">Admin</parameter><parameter name="CPY"></parameter><parameter name="DPM"></parameter><parameter name="EXP">IRBT_v3_32Scans.XPM</parameter><parameter name="LCT"></parameter><parameter name="SFM">Microplate, HTS-XT</parameter><parameter name="SNM">220530-1021_CLA33F (D_11)_F10_7ee39ec8-dab9-4f3f-9e53-039a1f3f167e.0</parameter><parameter name="XPP">C:\Users\Public\Documents\Bruker\OPUS_8.2.28\XPM</parameter><parameter name="IST">OK</parameter><parameter name="CPG">1252</parameter><parameter name="UID">929b456a-6641-47e8-98ec-3b6bbd97331f</parameter></Sample_Parameters_><Instrument_Parameters_><parameter name="HFL">15800.168544</parameter><parameter name="LFL">0</parameter><parameter name="LWN">15800.168544</parameter><parameter name="ABP">32197</parameter><parameter name="SSP">1</parameter><parameter name="ASG">2</parameter><parameter name="ARG">2</parameter><parameter name="ASS">32</parameter><parameter name="GFW">16</parameter><parameter name="GBW">16</parameter><parameter name="BFW">0</parameter><parameter name="BBW">0</parameter><parameter name="PKA">8007</parameter><parameter name="PKL">4988</parameter><parameter name="PRA">8229</parameter><parameter name="PRL">4993</parameter><parameter name="P2A">1</parameter><parameter name="P2L">1</parameter><parameter name="P2R">1</parameter><parameter name="P2K">1</parameter><parameter name="DAQ">0</parameter><parameter name="AG2">1</parameter><parameter name="SSM">1</parameter><parameter name="RSN">13281</parameter><parameter name="CRR">0</parameter><parameter name="SRT">1653912873.257</parameter><parameter name="DUR">19.6379852294922</parameter><parameter name="TSC">28.2</parameter><parameter name="MVD">0.338771253824234</parameter><parameter name="AN1">0.225834678900258</parameter><parameter name="AN2">0</parameter><parameter name="VSN">2.485 Apr  4 2017</parameter><parameter name="SRN">0085</parameter><parameter name="CAM">0</parameter><parameter name="INS">IR-Biotyper</parameter><parameter name="FOC">69</parameter><parameter name="RDY">1</parameter></Instrument_Parameters_><History/></OPUSDataFile>
