<?xml version="1.0" encoding="UTF-8" ?>
<OPUSDataFile><AB><Ydata ylabel="Absorbance Units"><values byteorder="INTEL" format="FLOAT32" numvalues="3497"> 0.003386454 0.003329652 0.003261643 0.003180422 0.003115941 0.003069723 0.00305986 0.003084973 0.003133264 0.003200836
 0.003258321 0.003305403 0.003323673 0.003319171 0.00329661 0.00326189 0.003227942 0.003194092 0.003165035 0.003137221
 0.003108493 0.003079127 0.003048013 0.003018457 0.002991896 0.002968462 0.002949086 0.002929793 0.002910499 0.002884894
 0.002852388 0.002808105 0.002751754 0.002686443 0.002612953 0.002542788 0.002475956 0.002419285 0.002370146 0.002322257
 0.002274611 0.00221986 0.002162962 0.002108871 0.002061394 0.00202976 0.002006376 0.001989448 0.001968604 0.00193392
 0.001894226 0.001846805 0.001817287 0.001813252 0.00184245 0.001911045 0.001990309 0.002079085 0.002139813 0.002170316
 0.002158189 0.002104656 0.002023533 0.001916817 0.00180321 0.001683187 0.00156748 0.001457279 0.001360401 0.001278391
 0.001218193 0.001177771 0.001157842 0.001155122 0.001165833 0.001192651 0.001235954 0.001298558 0.001384813 0.00148188
 0.001590952 0.001681919 0.001751367 0.001768692 0.001730169 0.001620598 0.001438833 0.001198255 0.0009027928 0.0006069514
 0.0003193552 0.0001238921 1.881422E-05 5.288219E-05 0.0001960394 0.0004035171 0.0006422437 0.0008304141 0.0009695318 0.001023871
 0.001021433 0.0009698916 0.00090273 0.0008407995 0.0008028944 0.0008056035 0.0008346484 0.0008938462 0.0009443805 0.000980048
 0.0009761927 0.0009272576 0.000853724 0.0007563522 0.0006783426 0.000619386 0.000584812 0.0005678282 0.0005261221 0.0004589667
 0.000334864 0.0001716602 -5.710722E-06 -0.0001747752 -0.0002787956 -0.0003269842 -0.000300391 -0.0002357091 -0.0001612254 -8.693145E-05
 -2.91913E-05 2.32355E-05 7.949309E-05 0.0001113144 0.0001195372 4.540403E-05 -0.0001254943 -0.0003992861 -0.0007870034 -0.001168741
 -0.001539066 -0.001668072 -0.001556631 -0.001166036 -0.0005384327 6.093848E-05 0.0006245731 0.0009789856 0.001156588 0.001151206
 0.0009924825 0.0007194848 0.0003735386 8.392112E-06 -0.0003184578 -0.0005375352 -0.0006332109 -0.0005568861 -0.0003908731 -0.0001481207
 7.24706E-05 0.0002332145 0.0003281926 0.000345979 0.0003330596 0.0002945031 0.0002448496 0.000185435 0.0001029696 -1.677396E-06
 -0.0001183868 -0.0002420927 -0.0003330463 -0.0003905051 -0.000387719 -0.0003334715 -0.0002356573 -0.0001036302 4.489001E-05 0.0001992248
 0.0003425262 0.0004600151 0.0005324363 0.0005568773 0.0005225872 0.0004455489 0.0003278276 0.0001894627 3.552919E-05 -0.0001190215
 -0.0002730329 -0.0004023166 -0.0005057122 -0.0005459925 -0.000520623 -0.0004178646 -0.0002399566 -2.309271E-05 0.0002289226 0.0004731207
 0.0007094498 0.0009167622 0.001093216 0.001224023 0.001306584 0.001325494 0.001291451 0.001204591 0.001095022 0.0009850004
 0.0009048471 0.0008828785 0.0009171165 0.001021766 0.001151972 0.001303281 0.001415985 0.001476906 0.001463308 0.00136782
 0.001224451 0.001034404 0.0008570076 0.0006946041 0.000592167 0.0005463897 0.0005604271 0.0006235344 0.0006955486 0.0007689125
 0.0008003357 0.0007973042 0.0007505135 0.0006765775 0.0005950688 0.0005090581 0.0004350783 0.0003475381 0.000236858 8.055475E-05
 -0.0001427569 -0.0004005927 -0.0006978936 -0.0009542032 -0.001153893 -0.001258236 -0.001256969 -0.001187621 -0.001052217 -0.0008637849
 -0.0006221994 -0.0003159447 4.498157E-05 0.0003971135 0.0007272635 0.000941613 0.001051421 0.001029559 0.0009133753 0.0007524497
 0.000586814 0.0004966882 0.0004709172 0.0005375482 0.0006432643 0.000760845 0.0008652397 0.0009344447 0.0009826303 0.001006994
 0.001035596 0.001073877 0.001135484 0.001224775 0.001321864 0.001426183 0.001498102 0.001536425 0.001516963 0.001444553
 0.001336563 0.001207341 0.00112425 0.00109638 0.00119549 0.001388922 0.001657769 0.00195307 0.002194051 0.00238576
 0.002494681 0.00256989 0.002631015 0.002716158 0.002854163 0.003027423 0.00324353 0.00344583 0.003623015 0.00375012
 0.003817718 0.003875948 0.003926258 0.004070092 0.004309405 0.004686495 0.005182543 0.005680078 0.006162242 0.006486534
 0.006675105 0.006712589 0.006629946 0.006475403 0.006271813 0.00606064 0.005873839 0.005749924 0.005717966 0.005814963
 0.006021257 0.006342558 0.006735755 0.007185632 0.007687451 0.008240404 0.008829932 0.009458358 0.01006612 0.01064927
 0.01117093 0.01163133 0.01204274 0.0124065 0.01273843 0.01303645 0.01329839 0.01352539 0.01371694 0.01388093
 0.01402821 0.01417419 0.01433453 0.014545 0.0148389 0.0152516 0.01583497 0.01652884 0.01733745 0.01813545
 0.0188783 0.01953676 0.02009022 0.02059197 0.02104569 0.02149613 0.02194745 0.02239476 0.02283607 0.02322432
 0.02355989 0.02381342 0.02400701 0.02420833 0.02445836 0.024922 0.02557824 0.02649963 0.02755847 0.02860828
 0.02958425 0.03034941 0.03097353 0.03145216 0.03188331 0.03231307 0.03278091 0.0333166 0.03388425 0.03448295
 0.03507109 0.03563981 0.03620476 0.03676533 0.03737777 0.03804355 0.0387884 0.0396044 0.04044271 0.04129404
 0.04208889 0.04283289 0.04350334 0.04411599 0.04468824 0.0452365 0.04578885 0.04635641 0.04696422 0.04759915
 0.04826548 0.04893062 0.04957378 0.0502063 0.05081448 0.0514801 0.0522191 0.05307636 0.05407092 0.05509552
 0.05614581 0.0570712 0.05786896 0.05851905 0.0590331 0.05949408 0.05990941 0.06035763 0.06083124 0.06135268
 0.06190459 0.06246255 0.06301897 0.06354494 0.06406496 0.06458294 0.06514736 0.06579613 0.06653799 0.06740329
 0.06831523 0.06926282 0.07015926 0.07098084 0.07170906 0.07233514 0.07289438 0.07338786 0.07386882 0.07433965
 0.07484175 0.07537425 0.0759483 0.07656211 0.0772128 0.07790227 0.07863849 0.07941423 0.08022892 0.08105025
 0.08183657 0.08255896 0.08316459 0.08367641 0.08408417 0.08444639 0.08478983 0.08513928 0.08551563 0.08588582
 0.08624756 0.08656577 0.08683095 0.08707133 0.08728635 0.08755742 0.08788764 0.08833043 0.08887789 0.08949178
 0.09015625 0.09077589 0.0913513 0.09182736 0.09223072 0.09258642 0.09291962 0.09328266 0.09366601 0.09408629
 0.09450709 0.09490608 0.09527021 0.09557682 0.09587021 0.09615228 0.09649331 0.09691066 0.09743086 0.09806512
 0.09876609 0.09953274 0.1002823 0.1010113 0.1016644 0.102244 0.1027469 0.1031784 0.1035593 0.1038935
 0.1041999 0.1044859 0.1047736 0.105073 0.1054104 0.1057817 0.1061953 0.1066345 0.1070867 0.1075553
 0.1080348 0.1085477 0.1091069 0.1096929 0.110312 0.1108916 0.1114206 0.1118716 0.1122379 0.1126072
 0.1129844 0.1134873 0.1141097 0.1148572 0.1157021 0.1165184 0.1172854 0.1178657 0.1182813 0.1184985
 0.1185779 0.118589 0.1185789 0.1186287 0.1187264 0.1188954 0.1190896 0.1192897 0.1194801 0.119646
 0.1198134 0.1199844 0.1201857 0.1204222 0.1206974 0.1210126 0.1213532 0.1217185 0.1220888 0.1224658
 0.1228538 0.1232618 0.1237378 0.1242847 0.124947 0.1256964 0.126506 0.1273277 0.1280785 0.1287389
 0.1292498 0.1296402 0.1299083 0.1300959 0.1302236 0.1303109 0.1303671 0.1304047 0.1304238 0.1304566
 0.1305056 0.1306093 0.1307715 0.1310036 0.1313059 0.1316605 0.1320659 0.1325001 0.1329611 0.1334306
 0.1339013 0.1343432 0.1347482 0.1350794 0.1353474 0.1355412 0.1357015 0.1358598 0.1360585 0.136345
 0.136709 0.1371725 0.1376574 0.1381477 0.138565 0.1388814 0.139106 0.1392291 0.1393401 0.1394459
 0.1396047 0.1398172 0.1400343 0.1402489 0.1403704 0.1404058 0.1403362 0.1401869 0.1400245 0.1398685
 0.1397963 0.1398016 0.1399141 0.1401049 0.1403587 0.1406444 0.1409329 0.1412174 0.1414811 0.1417507
 0.1420309 0.1423457 0.142708 0.1430888 0.1434913 0.1438402 0.1441294 0.1443091 0.1443783 0.1443634
 0.1442703 0.1441674 0.1440546 0.1439686 0.1439026 0.1438499 0.143817 0.1438091 0.1438466 0.1439684
 0.1441665 0.1444634 0.144796 0.1451325 0.1454094 0.1455757 0.1456489 0.14561 0.1455509 0.1454874
 0.1454916 0.1455818 0.1457414 0.1459735 0.1461931 0.1463959 0.1464997 0.1465061 0.1463937 0.1461757
 0.1459025 0.1455923 0.1453291 0.1451188 0.145021 0.1450145 0.1451025 0.1452402 0.1453862 0.1454994
 0.1455322 0.1454859 0.1453388 0.145142 0.1449029 0.1446812 0.1444925 0.1443646 0.1443039 0.1443188
 0.14441 0.1445969 0.1448807 0.1452738 0.1457703 0.1463214 0.1469087 0.1474133 0.1478223 0.1480216
 0.1480336 0.1478364 0.1474948 0.1470894 0.1466864 0.1463938 0.146216 0.1462075 0.1462915 0.1464546
 0.1465945 0.1466715 0.1466359 0.146461 0.1461781 0.1457828 0.145352 0.1448916 0.1444629 0.1440688
 0.1437213 0.1434184 0.1431415 0.1428908 0.1426573 0.1424464 0.1422722 0.1421368 0.1420571 0.1420174
 0.1420103 0.1419965 0.1419376 0.1417907 0.1415074 0.141085 0.1404967 0.1398022 0.1390074 0.1381975
 0.1373921 0.1366468 0.1359739 0.1353879 0.1348922 0.1344757 0.1341377 0.1338409 0.1335819 0.133309
 0.1330251 0.1327148 0.1323912 0.1320926 0.1318192 0.1316 0.1314034 0.1311963 0.130946 0.1305943
 0.1301587 0.1296188 0.1290465 0.1284663 0.1279538 0.1275448 0.1272608 0.1271238 0.1270745 0.1271149
 0.127129 0.1271073 0.1269562 0.1266715 0.1262559 0.1257169 0.1251404 0.1245342 0.1239865 0.1234944
 0.1230954 0.1227789 0.1225421 0.1223707 0.122245 0.122146 0.1220474 0.1219338 0.1217827 0.121597
 0.121369 0.1211185 0.12085 0.1205818 0.1203199 0.1200684 0.1198298 0.1195959 0.1193665 0.1191277
 0.1188785 0.1186064 0.1183116 0.1179932 0.1176546 0.117313 0.116973 0.11666 0.1163731 0.1161258
 0.1159084 0.1157131 0.1155276 0.1153349 0.1151296 0.1149006 0.114653 0.1143852 0.1141079 0.1138247
 0.1135433 0.1132672 0.1129956 0.1127295 0.1124611 0.1121897 0.1119104 0.1116231 0.1113333 0.1110416
 0.1107588 0.1104849 0.1102252 0.1099773 0.1097371 0.1095015 0.1092619 0.1090171 0.1087608 0.1084943
 0.1082161 0.1079306 0.1076376 0.1073513 0.1070742 0.1068351 0.1066446 0.1065227 0.1064838 0.1064941
 0.106558 0.1065842 0.1065653 0.1064238 0.1061555 0.1057701 0.105275 0.1047602 0.1042344 0.1037959
 0.10344 0.1032103 0.1030824 0.1030279 0.1030108 0.1029596 0.1028572 0.1026464 0.1023586 0.1019905
 0.1016019 0.101227 0.1008904 0.1006164 0.1003742 0.1001601 0.0999497 0.09973262 0.09954521 0.09938786
 0.09932408 0.09935725 0.09949899 0.09974317 0.1000183 0.1003119 0.1005141 0.1006231 0.1005669 0.1003695
 0.1000434 0.09962939 0.09920052 0.09877732 0.09841935 0.09810524 0.09783915 0.09759337 0.09734609 0.09711127
 0.09688518 0.09670107 0.0965726 0.09648593 0.09644559 0.09639668 0.09633273 0.09623899 0.09611433 0.09601201
 0.09593442 0.09593043 0.09599251 0.09610227 0.09624755 0.09637234 0.09647729 0.0965323 0.09655301 0.09655143
 0.09654104 0.09654712 0.09656011 0.09658888 0.09659529 0.09656385 0.09645773 0.09625149 0.09596284 0.09557947
 0.09518931 0.09480072 0.09450977 0.09433021 0.09427343 0.09434091 0.09443749 0.09455626 0.09457734 0.09450546
 0.09430153 0.09398896 0.0936297 0.09324453 0.09291942 0.09264796 0.09246305 0.09233765 0.09225293 0.09218898
 0.09212113 0.09204841 0.09196152 0.09187219 0.09178014 0.09170666 0.09165594 0.09164921 0.09169375 0.09177759
 0.09190323 0.09201577 0.09211218 0.09215209 0.09213845 0.09210384 0.09205653 0.09206841 0.09213451 0.09227902
 0.09248268 0.09270628 0.09294738 0.09317324 0.09341884 0.09370565 0.09408168 0.09459379 0.09526611 0.09612666
 0.09717488 0.09841575 0.0998482 0.1014726 0.1032901 0.1053047 0.1074913 0.1098525 0.1123066 0.1148493
 0.1173403 0.1197703 0.1219812 0.1239685 0.1256199 0.1269441 0.1279099 0.1285349 0.1288453 0.1288574
 0.1286081 0.128113 0.1273981 0.1264922 0.1254164 0.1242232 0.1229363 0.1216296 0.1203288 0.1191117
 0.1180008 0.1170532 0.116282 0.1157148 0.1153551 0.1152264 0.11533 0.1157092 0.1163659 0.1173374
 0.1186162 0.1201798 0.1220074 0.1240109 0.1261713 0.128394 0.1306797 0.1329833 0.1353231 0.1377031
 0.1401418 0.1426571 0.145255 0.1479452 0.1507224 0.1535893 0.1565285 0.1595422 0.1625848 0.1656563
 0.1686706 0.1716223 0.1744063 0.1770163 0.1793761 0.1814851 0.1833226 0.1848927 0.186208 0.1872738
 0.1881093 0.1887319 0.1891812 0.1895045 0.1897893 0.1901001 0.1905501 0.1911709 0.1920382 0.1931182
 0.1944209 0.1958796 0.1974688 0.1991501 0.2009042 0.2027373 0.2046473 0.2066473 0.2087408 0.2109084
 0.2131499 0.2153995 0.2176515 0.2198089 0.2218662 0.2237364 0.2254242 0.2268976 0.2281712 0.2292676
 0.2301935 0.2309793 0.2316018 0.2320569 0.2322862 0.2322505 0.2318728 0.2310998 0.2298794 0.2281652
 0.225992 0.2233375 0.2203597 0.217066 0.2136919 0.2102599 0.2069703 0.2038374 0.20094 0.1982763
 0.1958162 0.1935534 0.1914299 0.1894445 0.1875649 0.1857874 0.1840915 0.18246 0.180856 0.1792604
 0.1776304 0.1759702 0.1742619 0.1725381 0.1708089 0.1691133 0.1674674 0.1659013 0.1644228 0.1630644
 0.1618285 0.1607673 0.1598836 0.1592519 0.1588767 0.1588292 0.1591093 0.1597238 0.1606542 0.1617867
 0.1630874 0.164358 0.1655875 0.166628 0.1675322 0.1683066 0.1690552 0.1699037 0.1709422 0.1723008
 0.1739894 0.1760707 0.1784532 0.1811344 0.1839549 0.1868828 0.1897511 0.1925304 0.1950848 0.1974007
 0.1993465 0.2009149 0.2019141 0.2023306 0.2019139 0.2006585 0.1983852 0.1951378 0.1909656 0.1859775
 0.1804619 0.1745481 0.1685971 0.162689 0.1570754 0.1517583 0.1468301 0.1422453 0.1380046 0.1340568
 0.1303836 0.1269412 0.1237167 0.120672 0.1177987 0.1150709 0.1124845 0.1100268 0.1076967 0.1054836
 0.1033868 0.1013921 0.09949908 0.09769585 0.09598258 0.0943531 0.09280857 0.09134847 0.08997481 0.0886926
 0.08749879 0.08639611 0.08536766 0.08440387 0.08347844 0.08257193 0.08167186 0.08076312 0.07986483 0.07897558
 0.07813223 0.07734249 0.07662366 0.07598159 0.07539058 0.07484989 0.07431228 0.07377654 0.07322153 0.07265128
 0.07208658 0.0715296 0.07100442 0.07050129 0.07000785 0.06951085 0.06897569 0.06840677 0.0677892 0.06714968
 0.06650394 0.06588133 0.06530587 0.06478813 0.06434194 0.06395348 0.06362543 0.06332505 0.06304847 0.06275988
 0.06245376 0.06211682 0.0617471 0.06136535 0.06097312 0.06060269 0.06025369 0.05993877 0.0596545 0.05939245
 0.05915155 0.05892393 0.05871196 0.05851747 0.05834004 0.05818113 0.05803607 0.05790022 0.05777324 0.05765148
 0.05754349 0.0574527 0.0573827 0.05733906 0.05730306 0.05727446 0.0572216 0.05713981 0.05701719 0.05685171
 0.05666904 0.05647112 0.05629877 0.0561519 0.05605012 0.0559881 0.05595407 0.05594207 0.05592868 0.05591359
 0.05588377 0.05584521 0.05580069 0.05575475 0.05571543 0.05567563 0.05563672 0.05557976 0.05549727 0.05537527
 0.05520553 0.05499465 0.05474037 0.05446482 0.05416989 0.05387643 0.05358604 0.05331117 0.05305232 0.05281764
 0.052607 0.05242442 0.05226786 0.05213158 0.05201179 0.05189452 0.05177849 0.05165272 0.05152291 0.05139044
 0.0512655 0.05115845 0.05107431 0.05102174 0.05099327 0.05098954 0.05099642 0.05100948 0.05102123 0.05102846
 0.05103465 0.05103967 0.0510488 0.05106257 0.05108 0.051101 0.05112255 0.0511453 0.05117343 0.05120783
 0.05125636 0.05131576 0.05138277 0.0514495 0.05149881 0.05152655 0.05151764 0.05147838 0.05140848 0.05131681
 0.05121046 0.05108973 0.05095729 0.05080833 0.05064062 0.05045727 0.05025725 0.05005215 0.0498432 0.04963936
 0.04944155 0.04925008 0.04906482 0.04888139 0.04869963 0.04851625 0.04833151 0.04814484 0.04795662 0.04776774
 0.04757831 0.04738876 0.04719964 0.04701108 0.04682579 0.04664569 0.04647468 0.04631594 0.04617135 0.04604332
 0.0459291 0.04582908 0.04573728 0.04565296 0.04556954 0.04548624 0.04539777 0.04530372 0.04520012 0.04508682
 0.04496158 0.04482469 0.04467729 0.04452046 0.04435968 0.04419574 0.04403425 0.04387407 0.04371575 0.04355752
 0.0433963 0.04323351 0.04306843 0.04290571 0.04274828 0.04259897 0.04246067 0.04233085 0.04220989 0.04209261
 0.04197796 0.04186294 0.04174699 0.04162923 0.04150957 0.04138673 0.04126066 0.04113046 0.04099658 0.04086236
 0.04072867 0.0406018 0.04048115 0.04036876 0.04026221 0.04015733 0.04005314 0.03994582 0.03983733 0.03972838
 0.03962013 0.03951431 0.0394088 0.03930271 0.0391957 0.03908657 0.03897998 0.03887665 0.03878038 0.0386923
 0.03860942 0.03853175 0.03845319 0.03837355 0.03829062 0.03820465 0.03811736 0.03802859 0.03793861 0.03784643
 0.037749 0.03764606 0.03753469 0.03741732 0.03729526 0.03717303 0.0370556 0.03694552 0.03684689 0.03675741
 0.03667762 0.03660292 0.03653171 0.03646218 0.03639337 0.0363266 0.03626202 0.03619977 0.03613999 0.03607946
 0.03601801 0.03595188 0.03588142 0.03580797 0.03573276 0.03566246 0.03559777 0.03554493 0.03550241 0.03547054
 0.03544654 0.03542634 0.03540884 0.03539104 0.03537421 0.03535862 0.0353443 0.03533212 0.03531871 0.03530355
 0.03528232 0.03525374 0.03521711 0.0351719 0.03512068 0.03506358 0.03500311 0.0349394 0.03487433 0.03480811
 0.0347436 0.03468082 0.03462199 0.03456574 0.03450957 0.03445075 0.03438231 0.03430284 0.03420614 0.03409548
 0.0339707 0.03383859 0.03370369 0.03357081 0.03344415 0.03332272 0.03320727 0.03309522 0.03298543 0.03288048
 0.03278018 0.03269063 0.0326125 0.03254597 0.03249087 0.03243806 0.03238696 0.03232758 0.03226106 0.03218709
 0.03210843 0.03203403 0.03196444 0.03190666 0.03185596 0.03180913 0.03175993 0.03169952 0.03162834 0.0315422
 0.03144921 0.0313523 0.03125724 0.03116789 0.03108058 0.03099555 0.03090675 0.03081276 0.03071518 0.03061368
 0.0305174 0.03042678 0.03034961 0.03028548 0.03023385 0.03019304 0.03015429 0.03011653 0.03007087 0.03001937
 0.02996138 0.02990094 0.02984432 0.02979262 0.02975034 0.02971401 0.02968289 0.02965296 0.02962169 0.02958829
 0.02955185 0.02951314 0.02947243 0.02942901 0.02938294 0.02933246 0.02927734 0.02921794 0.02915437 0.02909159
 0.02903002 0.02897617 0.02892943 0.02889067 0.02885785 0.02882457 0.02879019 0.02874913 0.02870442 0.02865768
 0.02861308 0.02857639 0.02854748 0.02852941 0.02851652 0.02850718 0.0284958 0.02847945 0.02845839 0.02843161
 0.02840352 0.02837472 0.02834715 0.02832111 0.02829576 0.02827111 0.0282487 0.02822878 0.02821509 0.02820701
 0.0282036 0.02820322 0.02819971 0.02819274 0.02817813 0.0281574 0.02813101 0.0281005 0.02806736 0.02803355
 0.02800045 0.02797083 0.02794687 0.02792839 0.02791674 0.02790678 0.02789771 0.02788493 0.02786737 0.02784504
 0.02781783 0.02778674 0.02775177 0.02771029 0.02766182 0.02760049 0.02752546 0.02742959 0.02731177 0.02716498
 0.02698796 0.02677527 0.02652435 0.02622984 0.02588767 0.02549146 0.02503913 0.02452618 0.02395566 0.02332888
 0.02264507 0.02190743 0.02109972 0.02021971 0.01924884 0.01818005 0.01703499 0.0158112 0.01459058 0.01337786
 0.01228892 0.01133046 0.01061398 0.01014322 0.009999347 0.01017673 0.01070824 0.0115672 0.01273404 0.01412677
 0.01563174 0.01713038 0.01844593 0.01953124 0.02028341 0.02074009 0.02088735 0.02079209 0.02046405 0.01999695
 0.01939954 0.01881924 0.01827533 0.01790142 0.01771763 0.01769812 0.01784148 0.01802131 0.01823485 0.01841103
 0.0185573 0.01867597 0.0187779 0.01890079 0.01904953 0.01925754 0.01951444 0.0198199 0.02016006 0.02051622
 0.02089051 0.02127859 0.0216848 0.02211685 0.02255186 0.02298743 0.02338785 0.02374165 0.02404198 0.02428271
 0.02449327 0.02467504 0.02486285 0.0250585 0.02527271 0.02550362 0.02573255 0.0259566 0.02614894 0.02631096
 0.0264316 0.02651764 0.02657834 0.02662102 0.026662 0.02670318 0.02675396 0.02681023 0.02687252 0.02693454
 0.02699313 0.02704431 0.02708557 0.02711677 0.02713693 0.02714956 0.02715475 0.02715784 0.02715931 0.0271631
 0.02716942 0.02717639 0.02718353 0.02718407 0.02717804 0.02716132 0.02713589 0.02710617 0.02707452 0.02704936
 0.02702992 0.0270193 0.02701443 0.02701258 0.02701293 0.02701345 0.02701583 0.02702093 0.02702827 0.02703846
 0.02704827 0.02705689 0.02706266 0.02706495 0.02706501 0.02706289 0.02705969 0.02705548 0.02705074 0.02704566
 0.02704244 0.02704142 0.02704609 0.02705581 0.02707086 0.02708894 0.02710486 0.02711665 0.02711799 0.0271104
 0.02709213 0.02706817 0.02704159 0.02701671 0.02699693 0.02698331 0.02697702 0.02697789 0.02698624 0.02700085
 0.02702204 0.0270451 0.02706975 0.02709001 0.02710555 0.02711595 0.02712161 0.02712798 0.0271352 0.02714703
 0.02716237 0.02717917 0.02719658 0.02721104 0.02722373 0.02723485 0.02724606 0.02725991 0.02727563 0.02729418
 0.02731214 0.02732777 0.02733924 0.02734468 0.02734696 0.0273461 0.02734657 0.02734933 0.02735532 0.02736494
 0.02737522 0.02738603 0.02739484 0.02740175 0.02740742 0.02741227 0.0274191 0.02742811 0.0274418 0.02745953
 0.02748146 0.02750603 0.02753077 0.02755463 0.02757484 0.02759298 0.02760891 0.02762572 0.02764571 0.02766828
 0.027695 0.02771909 0.02773942 0.02774937 0.02774679 0.02773476 0.02771279 0.02769192 0.02767275 0.02766281
 0.02766184 0.02766758 0.02767944 0.02769228 0.02770667 0.0277221 0.02773929 0.02776026 0.02778391 0.02780959
 0.02783533 0.02785829 0.02787814 0.0278932 0.0279052 0.02791475 0.02792273 0.02793012 0.0279349 0.02793678
 0.02793386 0.02792532 0.0279137 0.027899 0.02788598 0.02787495 0.02786592 0.02785861 0.02784854 0.02783587
 0.02781911 0.02779954 0.02778143 0.0277653 0.0277552 0.02774964 0.02774811 0.02774866 0.02774855 0.02774712
 0.02774255 0.02773611 0.02772756 0.02771992 0.02771418 0.02771289 0.02771723 0.02772664 0.02774141 0.02775914
 0.02777963 0.02780105 0.0278233 0.0278444 0.02786423 0.02788046 0.02789338 0.02790352 0.02791175 0.02792204
 0.02793426 0.02795054 0.02796928 0.02798848 0.02800736 0.0280239 0.02803882 0.02805236 0.02806422 0.02807472
 0.02808201 0.02808516 0.02808426 0.02807842 0.02807211 0.02806567 0.02806461 0.02806967 0.0280828 0.02810421
 0.02813203 0.02816612 0.02820411 0.02824585 0.0282895 0.02833444 0.02837745 0.02841751 0.02845002 0.02847549
 0.02849189 0.02850234 0.02850928 0.02851652 0.0285282 0.02854591 0.02857237 0.02860543 0.02864569 0.0286875
 0.02872977 0.02876693 0.02879758 0.02882034 0.02883462 0.02884371 0.02884774 0.0288512 0.02885436 0.02886183
 0.02887384 0.02889493 0.028924 0.02896007 0.02900007 0.02903533 0.02906462 0.02908002 0.02908655 0.02908607
 0.02908631 0.02909565 0.02911477 0.02914856 0.02918779 0.02923057 0.02926709 0.02929323 0.02930929 0.02931346
 0.02931659 0.02931939 0.02933343 0.02935958 0.02939873 0.0294503 0.02950366 0.02955805 0.02960234 0.02963793
 0.02966374 0.02968276 0.02970276 0.02972419 0.02975293 0.02978414 0.02981526 0.02983917 0.02984844 0.02984046
 0.02981004 0.02976282 0.0296987 0.02962751 0.02955187 0.02947837 0.02940909 0.0293437 0.02928264 0.02922169
 0.02916056 0.02909852 0.02903584 0.02897764 0.02892422 0.02888065 0.02884594 0.02881904 0.02879842 0.0287792
 0.02876135 0.02874237 0.02872346 0.02870551 0.02868834 0.02867265 0.02865618 0.02863749 0.02861606 0.02859027
 0.02856487 0.02854023 0.02852337 0.02851606 0.02851969 0.02853524 0.02855544 0.02857994 0.02860093 0.02861831
 0.02863068 0.02863836 0.028643 0.0286445 0.02864297 0.02863888 0.02863303 0.02862699 0.02862428 0.02862513
 0.02863207 0.02864227 0.02865411 0.02866545 0.02867377 0.02868088 0.02868658 0.0286942 0.02870516 0.0287189
 0.02873603 0.0287522 0.02876691 0.02877792 0.02878491 0.02879209 0.02879983 0.02881541 0.02883873 0.02887311
 0.02891714 0.02896732 0.02902137 0.02907196 0.02911657 0.02914681 0.02916246 0.02915775 0.02913986 0.0291106
 0.02908403 0.02906944 0.0290747 0.02910855 0.02915985 0.02922934 0.02929594 0.02935532 0.02939726 0.02941909
 0.02942728 0.02942196 0.0294144 0.02940486 0.02939687 0.02938967 0.02937875 0.02936419 0.02934332 0.02931795
 0.02929156 0.02926562 0.02924445 0.02922879 0.02922076 0.02922227 0.02923646 0.02926218 0.02930213 0.02934567
 0.02939 0.02942312 0.02943924 0.029441 0.02942636 0.02941062 0.02939545 0.0293905 0.0293968 0.02940996
 0.02942958 0.0294472 0.02946294 0.02947387 0.02948067 0.02948467 0.02948617 0.0294866 0.02948584 0.0294841
 0.02948192 0.02947923 0.02947898 0.02948339 0.0294959 0.0295203 0.02955478 0.02960097 0.02965041 0.02970146
 0.0297458 0.029781 0.02980601 0.02981985 0.02982906 0.02983395 0.02984238 0.02985432 0.0298673 0.02987989
 0.02987858 0.02986421 0.02983044 0.02978501 0.02974518 0.02971968 0.02973712 0.02979094 0.02988887 0.03000914
 0.03013343 0.03024994 0.03034236 0.03041938 0.03047936 0.03053751 0.0305987 0.03066921 0.03075246 0.0308415
 0.03093675 0.03102323 0.03110002 0.03115262 0.03118075 0.03118135 0.03115719 0.03112709 0.03109692 0.03110377
 0.03114804 0.03125503 0.03140993 0.03159776 0.03180199 0.03199159 0.03216563 0.03231123 0.03243534 0.03253873
 0.03262744 0.0327024 0.03277518 0.03284706 0.03293762 0.03305135 0.03319793 0.03338065 0.03358728 0.03381745
 0.03405304 0.03429344 0.03453 0.03476291 0.03498963 0.03521046 0.03542516 0.03563425 0.03583883 0.03603956
 0.03623696 0.03643484 0.03663705 0.03685096 0.037087 0.03734256 0.03762313 0.03791001 0.0381952 0.03846989
 0.03872516 0.03898164 0.03924105 0.03952659 0.0398437 0.04018151 0.04054007 0.04089395 0.04124314 0.04159868
 0.04196524 0.04238965 0.04287056 0.0434324 0.04405864 0.04471318 0.0453851 0.04602811 0.04665995 0.04728095
 0.0479223 0.04861654 0.0493748 0.05022108 0.05113111 0.05210055 0.05310557 0.05412775 0.0552037 0.05632329
 0.05761141 0.05907563 0.06087951 0.06303848 0.06559278 0.06853967 0.07174702 0.07521594 0.07888556 0.08279324
 0.08707855 0.09177487 0.09707508 0.1029339 0.1093944 0.1162951 0.1234584 0.1306857 0.1377196 0.1444601
 0.1507484 0.1566195 0.162052 0.1670939 0.1717853 0.1760104 0.1797711 0.1828482 0.1852041 0.1867892
 0.1875916 0.1877315 0.187215 0.1861587 0.1845671 0.1825246 0.1800343 0.1771581 0.1738945 0.1702521
 0.1662726 0.1620047 0.1575879 0.1532382 0.1490477 0.1452148 0.1416705 0.1384311 0.1354104 0.1325632
 0.1298728 0.1273249 0.1249198 0.1226582 0.120521 0.1185023 0.1166195 0.1148706 0.113345 0.1120452
 0.1109979 0.1101906 0.109518 0.108973 0.1084646 0.1080014 0.1075625 0.1071561 0.1067885 0.1064656
 0.1061942 0.1059898 0.1058608 0.1058466 0.1059708 0.1062789 0.1068128 0.1075368 0.1084695 0.1094701
 0.1105145 0.1114918 0.1123791 0.1131607 0.1138312 0.1144394 0.1149898 0.1155971 0.1162739 0.1171969
 0.1183514 0.1197896 0.1214289 0.1230282 0.1245659 0.1258522 0.1269792 0.1280014 0.1289919 0.1300537
 0.1311915 0.1324408 0.1337844 0.1352203 0.1367433 0.1383612 0.1400219 0.1417207 0.1433852 0.1449981
 0.1465831 0.1481402 0.1497135 0.1513022 0.1528072 0.1542185 0.1553879 0.1563349 0.157067 0.1576292
 0.1581751 0.1587058 0.1593257 0.1599438 0.1604567 0.1608386 0.1609925 0.1610237 0.1609821 0.1609262
 0.1609166 0.1608971 0.1608629 0.1607594 0.1605616 0.1603144 0.1600132 0.1597697 0.1595942 0.1595349
 0.1595912 0.1596391 0.1596705 0.1595531 0.159301 0.1589174 0.1584207 0.1578701 0.1572727 0.1566725
 0.1560664 0.1554677 0.1548724 0.1542759 0.1536903 0.1531172 0.1525849 0.1521097 0.1517018 0.1513759
 0.1510958 0.1508572 0.1506237 0.1503855 0.1501591 0.1499435 0.1497861 0.1496892 0.1496883 0.1497829
 0.1499819 0.1502832 0.1506824 0.1511775 0.1517605 0.1524293 0.153175 0.1539992 0.1548987 0.1558807
 0.156951 0.1581161 0.1593823 0.1607527 0.1622287 0.1638182 0.1655231 0.1673539 0.1693184 0.1713927
 0.1735823 0.1757962 0.1780294 0.180172 0.1822189 0.184121 0.1858775 0.1874731 0.1888922 0.1900448
 0.190915 0.1913837 0.1914942 0.1912673 0.1907839 0.1901769 0.1894919 0.1888352 0.1881902 0.1875781
 0.1869727 0.186351 0.1857551 0.1851739 0.1847398 0.1844818 0.1844913 0.1848129 0.1852406 0.1857644
 0.186148 0.1863822 0.1865081 0.1865348 0.1865724 0.186616 0.1866972 0.1868013 0.1868957 0.1869746
 0.1870142 0.1870046 0.1869478 0.1867591 0.1863729 0.1856563 0.1844681 0.182817 0.1806515 0.1780804
 0.1751176 0.1718974 0.1684338 0.1649252 0.1613985 0.1580164 0.1547998 0.151765 0.1489127 0.14619
 0.1435985 0.1411389 0.1388211 0.1367034 0.1347809 0.13308 0.1315657 0.1301796 0.1288797 0.1275741
 0.1262471 0.1248441 0.1233752 0.1218301 0.1202238 0.118553 0.116861 0.1151423 0.1135214 0.1120285
 0.1107339 0.1096676 0.1087242 0.1078973 0.1070973 0.1063203 0.1055876 0.1049039 0.1043302 0.1038624
 0.1035062 0.1032577 0.1030951 0.1030451 0.10315 0.10345 0.1040367 0.1049001 0.1060775 0.1075087
 0.1091569 0.1109906 0.1129811 0.1151268 0.1174209 0.1198659 0.1224415 0.1252609 0.1283069 0.1319375
 0.1361832 0.1413403 0.1474197 0.1539127 0.1607483 0.1669031 0.1723908 0.1767526 0.1800851 0.182472
 0.1839865 0.1848125 0.1850345 0.1848427 0.1843446 0.1837253 0.1830505 0.1824502 0.1818633 0.1813101
 0.1806553 0.1798354 0.1788547 0.1776838 0.1764576 0.1751882 0.1740099 0.1729383 0.1720238 0.1712692
 0.1706181 0.1700654 0.1695302 0.1690146 0.1684887 0.1679592 0.1674357 0.1669163 0.1664072 0.1658885
 0.1653316 0.1647219 0.1640195 0.1632583 0.1624351 0.1616349 0.1608941 0.1602963 0.1598839 0.1596821
 0.1597092 0.1599445 0.1603903 0.161009 0.1618032 0.1626604 0.163574 0.1643223 0.1648972 0.1651315
 0.1650439 0.1646515 0.1639866 0.1631659 0.1622149 0.1612498 0.1602794 0.1593758 0.1585162 0.1577113
 0.1569099 0.1560794 0.1551738 0.1541554 0.1530186 0.1517432 0.1503788 0.1489238 0.1474746 0.1460427
 0.1447217 0.1435227 0.1424879 0.1416201 0.14094 0.1404505 0.1401947 0.1401742 0.1404273 0.1409405
 0.1416962 0.1426602 0.1437565 0.1449275 0.146062 0.1470801 0.1478525 0.1483238 0.1483881 0.1481004
 0.1474319 0.146555 0.1455173 0.1444789 0.1434968 0.1426101 0.1418399 0.1411406 0.1405101 0.1399091
 0.1393352 0.138791 0.1382779 0.1378141 0.1373982 0.1370303 0.1367081 0.1364214 0.1361721 0.1359608
 0.1357868 0.1356523 0.1355466 0.1354593 0.1353783 0.1352905 0.13519 0.1350719 0.134929 0.1347589
 0.1345512 0.1343014 0.1340097 0.1336736 0.1333086 0.1329156 0.1325121 0.132099 0.1316888 0.1312827
 0.1308989 0.1305416 0.1302449 0.1300158 0.1298986 0.1298961 0.1300418 0.1303237 0.1307431 0.1312705
 0.1318775 0.1325276 0.1331859 0.1338196 0.1344036 0.1349148 0.135338 0.1356677 0.1358967 0.1360428
 0.1361055 0.1361164 0.136078 0.1360209 0.1359469 0.1358797 0.1358198 0.1357798 0.1357577 0.1357487
 0.1357485 0.135738 0.1357149 0.1356622 0.1355843 0.1354786 0.1353559 0.1352265 0.1351025 0.1349961
 0.134918 0.1348752 0.1348803 0.1349369 0.1350647 0.135269 0.1355661 0.135962 0.1364458 0.1370195
 0.137639 0.138302 0.1389524 0.1395876 0.1401613 0.140673 0.1410941 0.1414287 0.1416725 0.1418382
 0.141951 0.1420309 0.142122 0.1422395 0.1424214 0.1426644 0.142983 0.1433545 0.1437727 0.1442111
 0.1446577 0.1450979 0.1455249 0.1459365 0.1463311 0.146712 0.1470789 0.1474422 0.1478024 0.148183
 0.1485858 0.1490421 0.1495527 0.1501412 0.1508035 0.1515405 0.152339 0.1531717 0.1540157 0.1548225
 0.1555677 0.1562021 0.1567169 0.1570834 0.157319 0.1574209 0.157424 0.1573396 0.1571975 0.1570083
 0.1567841 0.1565294 0.1562426 0.1559243 0.1555692 0.1551769 0.1547438 0.1542705 0.1537646 0.1532298
 0.1526938 0.1521628 0.1516764 0.1512365 0.1508701 0.1505695 0.1503354 0.150156 0.1500166 0.1499102
 0.1498252 0.1497622 0.1497174 0.1496964 0.1496997 0.1497357 0.1498062 0.1499198 0.1500786 0.1502853
 0.1505409 0.1508406 0.1511841 0.1515716 0.152004 0.1524987 0.1530571 0.1537007 0.1544247 0.1552247
 0.1560874 0.1569774 0.1578855 0.1587768 0.1596573 0.1605185 0.1613742 0.1622339 0.1631065 0.1639998
 0.1649181 0.1658634 0.166843 0.1678586 0.1689188 0.1700262 0.1711797 0.1723807 0.1736113 0.1748708
 0.1761285 0.1773827 0.1786037 0.1797908 0.1809258 0.1820085 0.1830295 0.1839851 0.1848635 0.1856567
 0.186346 0.1869252 0.1873773 0.1877052 0.1879031 0.1879831 0.1879499 0.1878162 0.1875874 0.1872734
 0.1868754 0.1864126 0.1858854 0.1853291 0.1847469 0.1841703 0.1836019 0.18305 0.1825142 0.181987
 0.1814668 0.1809397 0.1803996 0.179816 0.1791795 0.1784467 0.1776219 0.1766841 0.1756659 0.1745899
 0.1735096 0.1724713 0.1715328 0.170736 0.1701311 0.1697472 0.1696119 0.1697435 0.1701261 0.1707673
 0.1715975 0.172615 0.1737089 0.1748728 0.1759891 0.177053 0.1779797 0.1787697 0.1793852 0.1798311
 0.180103 0.180213 0.1801824 0.1800384 0.1798327 0.1796028 0.1794154 0.1792972 0.1792977 0.1794139
 0.1796649 0.1800141 0.1804583 0.1809376 0.1814386 0.1819024 0.1823165 0.1826449 0.1828818 0.1830115
 0.1830325 0.1829418 0.1827405 0.1824481 0.182069 0.181645 0.1811791 0.1807062 0.1802233 0.1797398
 0.1792511 0.1787524 0.1782417 0.1777142 0.17717 0.1766062 0.1760288 0.175438 0.1748476 0.1742618
 0.1736947 0.17315 0.1726411 0.1721699 0.1717539 0.1713953 0.1711067 0.1708894 0.1707347 0.1706413
 0.17058 0.1705479 0.1705089 0.1704602 0.1703698 0.1702385 0.1700496 0.1698096 0.1695224 0.1691953
 0.1688394 0.1684595 0.1680617 0.1676548 0.1672439 0.1668422 0.1664571 0.1660925 0.1657521 0.1654304
 0.1651261 0.1648405 0.1645732 0.1643307 0.1641138 0.1639118 0.1637228 0.1635108 0.1632723 0.162963
 0.1625823 0.1621017 0.1615278 0.1608622 0.1601147 0.1593062 0.1584391 0.1575257 0.1565632 0.1555489
 0.1544947 0.1534017 0.1522989 0.1511982 0.15012 0.1490741 0.1480608 0.1470814 0.1461333 0.1452157
 0.144331 0.1434793 0.1426578 0.141866 0.1410955 0.1403461 0.1396124 0.1388946 0.1381914 0.1375037
 0.1368335 0.1361817 0.1355521 0.1349411 0.1343476 0.1337619 0.1331749 0.1325795 0.131967 0.1313395
 0.1306949 0.1300394 0.1293747 0.128705 0.1280319 0.127354 0.126672 0.1259745 0.1252607 0.1245181
 0.1237467 0.1229535 0.1221413 0.1213355 0.1205377 0.1197684 0.1190266 0.1183193 0.1176489 0.1170222
 0.1164438 0.1159249 0.1154618 0.1150591 0.1146987 0.1143738 0.1140586 0.113741 0.1134024 0.1130333
 0.1126324 0.1121967 0.1117347 0.1112473 0.1107356 0.1101997 0.1096346 0.1090406 0.1084259 0.1077932
 0.1071675 0.1065502 0.1059624 0.1054011 0.1048691 0.1043618 0.1038707 0.1033939 0.1029239 0.1024637
 0.1020124 0.1015762 0.1011593 0.1007632 0.1003912 0.100038 0.09970279 0.09938171 0.09907342 0.09877906
 0.09849894 0.098231 0.09797527 0.09772525 0.09748082 0.09724138 0.09700803 0.09678931 0.09658697 0.09641277
 0.09626899 0.09616833 0.09611174 0.09610942 0.09615466 0.09624575 0.09636709 0.09650481 0.09664342 0.09676874
 0.09687283 0.09694827 0.0969943 0.09700806 0.09699612 0.09695768 0.09690865 0.0968501 0.0968018 0.09676532
 0.09675404 0.09676839 0.09681099 0.09688156 0.09697814 0.09710169 0.09725581 0.09744134 0.09766582 0.0979218
 0.09820302 0.09848977 0.09875367 0.09897673 0.09912818 0.0992104 0.09921102 0.09915374 0.09904283 0.09891001
 0.09876377 0.09863441 0.09852952 0.098467 0.09845185 0.0984763 0.09854088 0.09861928 0.09871037 0.09879603
 0.09887727 0.09895578 0.0990326 0.09911422 0.09919905 0.09928493 0.09937194 0.09945669 0.09954651 0.09964897
 0.09977345 0.09993403 0.1001286 0.1003635 0.1006223 0.1008998 0.1011809 0.1014585 0.10173 0.1019934
 0.1022507 0.1025022 0.1027482 0.1029887 0.1032251 0.1034573 0.103682 0.103897 0.1040826 0.1042357
 0.1043298 0.1043676 0.1043414 0.10426 0.1041378 0.103982 0.1038083 0.1036213 0.1034286 0.1032404
 0.1030639 0.1029115 0.1027935 0.102707 0.1026567 0.1026211 0.1025966 0.1025661 0.1025256 0.1024789
 0.1024262 0.1023743 0.1023232 0.1022621 0.1021908 0.1020978 0.1019883 0.1018786 0.1017771 0.1017191
 0.1017043 0.1017529 0.1018511 0.1019903 0.1021508 0.1023095 0.1024557 0.1025716 0.1026669 0.1027381
 0.1028091 0.1028866 0.1029868 0.1031155 0.1032747 0.1034653 0.1036872 0.1039403 0.104223 0.1045348
 0.1048632 0.1052073 0.1055515 0.1058972 0.1062416 0.1065879 0.1069445 0.1073135 0.1077039 0.108114
 0.1085482 0.1089949 0.1094471 0.1098867 0.1102965 0.1106756 0.1110129 0.1113378 0.1116556 0.1119989
 0.1123779 0.1127977 0.1132625 0.1137515 0.1142642 0.1147716 0.1152725 0.1157459 0.116193 0.1166159
 0.1170174 0.1174148 0.1178051 0.1181894 0.1185622 0.1189071 0.1192331 0.1195405 0.1198546 0.1202004
 0.1205978 0.121071 0.121619 0.1222504 0.1229481 0.1237101 0.1245142 0.1253541 0.1262219 0.1271136
 0.1280467 0.1290224 0.1300585 0.1311558 0.1323065 0.1335104 0.1347589 0.1360567 0.1374237 0.1388647
 0.1404079 0.1420483 0.1437927 0.1456267 0.1475376 0.1494994 0.1514898 0.1534644 0.1553966 0.1572195
 0.1589087 0.1603654 0.1615619 0.1623871 0.1628045 0.1627887 0.1623154 0.1615237 0.1604172 0.1592165
 0.1579327 0.1567236 0.1555895 0.1545905 0.1537199 0.1529794 0.1523586 0.1518273 0.1513738 0.1509578
 0.150575 0.1502009 0.1498384 0.1494823 0.149135 0.1487976 0.14847 0.1481544 0.1478418 0.1475321
 0.1472064 0.1468581 0.1464891 0.1460946 0.1457163 0.145357 0.1450545 0.1448102 0.1446129 0.1444598
 0.144316 0.1441813 0.1440359 0.1438816 0.1437124 0.1435318 0.1433441 0.1431526 0.1429688 0.1427821
 0.1425874 0.1423694 0.1421062 0.1418202 0.1415045 0.1412274 0.1410169 0.1408894 0.1408701 0.1408584
 0.1408418 0.1407559 0.1405912 0.1403601 0.140063 0.1397228 0.1393425 0.1389612 0.138584 0.1382638
 0.1379949 0.1377912 0.1376341 0.137488 0.1373426 0.137162 0.1369554 0.1367151 0.1364629 0.1362097
 0.1359796 0.1357885 0.1356464 0.1355626 0.135529 0.1355442 0.1356086 0.1357217 0.135891 0.1361199
 0.1363684 0.1366341 0.1368266 0.136944 0.136932 0.1368011 0.1365786 0.1362771 0.135953 0.1356102
 0.1352831 0.134976 0.134708 0.1344892 0.1343378 0.1342587 0.1342633 0.1343445 0.1345072 0.1347237
 0.1349903 0.1352656 0.1355367 0.1357937 0.1360308 0.1362714 0.1365195 0.1367551 0.1369771 0.137122
 0.1371921 0.1371907 0.137133 0.1371094 0.1371248 0.1372502 0.1374656 0.1377646 0.1381185 0.1384788
 0.1388288 0.1391262 0.1393826 0.1395897 0.1397729 0.1399522 0.1401103 0.1402549 0.1403246 0.1402999
 0.1401761 0.1399392 0.1396855 0.1394215 0.1392357 0.1391326 0.1390967 0.1391227 0.13914 0.1391475
 0.1391014 0.1390069 0.1388571 0.1386596 0.1384266 0.1381674 0.1379005 0.1376349 0.1373846 0.1371627
 0.1369843 0.136855 0.136793 0.1367551 0.1367382 0.1366694 0.1365217 0.1362996 0.1359895 0.1356959
 0.1354275 0.1352593 0.1351955 0.1352038 0.1352801 0.1353613 0.1354479 0.1355135 0.1355582 0.1355694
 0.1355433 0.1354636 0.1353315 0.1351403 0.1348966 0.1346014 0.1342718 0.1339151 0.1335656 0.1332436
 0.1329699 0.132764 0.1325996 0.1324765 0.1323553 0.1322268 0.132092 0.1319489 0.1318272 0.1317283
 0.1316522 0.1315944 0.1314999 0.1313619 0.131108 0.1307463 0.1302573 0.1296739 0.1290612 0.1284499
 0.1279272 0.1274835 0.127147 0.126884 0.1266761 0.1265011 0.1263445 0.1261873 0.1260205 0.1258287
 0.1256006 0.1253618 0.1251104 0.1249038 0.1247486 0.1246658 0.1246569</values></Ydata></AB><ScSm><Ydata ylabel="Single channel"><values byteorder="INTEL" format="FLOAT32" numvalues="1814"> 0.06041113 0.06043538 0.06051363 0.06065758 0.06083963 0.06100988 0.06112979 0.06119595 0.06122521 0.061222
 0.06118545 0.06115069 0.06118585 0.06132568 0.06152359 0.06168233 0.0617344 0.06170442 0.06169473 0.06178167
 0.06190947 0.0619106 0.06166225 0.06122539 0.06080615 0.06056975 0.06053643 0.06069553 0.0611097 0.06173158
 0.06218829 0.06204468 0.06135387 0.06068542 0.06049413 0.06068124 0.06086157 0.06080662 0.06051439 0.06012278
 0.05995104 0.06041665 0.06162859 0.06304701 0.06367303 0.06267566 0.05998193 0.05647627 0.05368407 0.05295781
 0.0545217 0.0571788 0.05920796 0.05974116 0.05918926 0.05838479 0.05768731 0.05707783 0.05671928 0.05698216
 0.05792545 0.05895793 0.0591375 0.0579599 0.05595456 0.05432858 0.05387723 0.05447027 0.05567223 0.05722799
 0.05842487 0.05770408 0.05417316 0.04956681 0.0475001 0.05003799 0.05549574 0.06010135 0.06136683 0.05947527
 0.05617674 0.05332783 0.05221968 0.05322821 0.05570338 0.05851211 0.06074587 0.06179112 0.06117566 0.05896094
 0.05614506 0.05418475 0.05409792 0.05606293 0.05938611 0.06255955 0.06393819 0.06295426 0.06050169 0.05798302
 0.05637407 0.05622264 0.05778999 0.06077444 0.0642945 0.06741157 0.06952113 0.07039267 0.0701994 0.06941211
 0.06844479 0.06759464 0.06730473 0.06789059 0.06882849 0.06894951 0.06771296 0.06592046 0.06488517 0.06507225
 0.06572764 0.06579964 0.06500389 0.06366048 0.06165698 0.05842991 0.05424381 0.0505369 0.04848982 0.04812637
 0.04916342 0.05147567 0.05408967 0.05510513 0.05375994 0.05177702 0.05165367 0.0540006 0.05721781 0.0594664
 0.06037598 0.06093858 0.06221927 0.06425998 0.06592269 0.06573756 0.06335243 0.06037128 0.05923085 0.06081531
 0.06360896 0.06557412 0.0663093 0.06685542 0.06786332 0.06858498 0.06764461 0.06466149 0.061158 0.05964422
 0.06144184 0.0653644 0.06856939 0.06866594 0.0653289 0.06039576 0.05642924 0.05493539 0.05592584 0.05887089
 0.06329763 0.06831209 0.07235712 0.07407315 0.07329468 0.07097724 0.06810759 0.06478943 0.06075789 0.05689299
 0.05541822 0.0578003 0.06287549 0.06781633 0.07066098 0.07130489 0.07040589 0.06816557 0.06448792 0.06013307
 0.05713118 0.05722887 0.05980676 0.06220431 0.06251307 0.06132953 0.06041151 0.06045371 0.06080866 0.06084691
 0.06084725 0.06151611 0.06299084 0.06456215 0.06537263 0.06520515 0.06452423 0.06392315 0.06358536 0.0631544
 0.06223007 0.06115441 0.06099828 0.06240296 0.06470992 0.06663464 0.06755847 0.06777596 0.06766106 0.06700792
 0.06533995 0.06281963 0.0606342 0.06012509 0.06149403 0.06367226 0.06543846 0.06630071 0.06638581 0.06600366
 0.06543432 0.06483141 0.06426476 0.06392966 0.06410979 0.06478925 0.06553996 0.06595275 0.06598468 0.06578469
 0.06539933 0.06479938 0.06407954 0.06349622 0.06329337 0.06351572 0.0640028 0.06453378 0.06492688 0.06504428
 0.06483849 0.06442206 0.06398591 0.06362429 0.06332542 0.06311908 0.06310374 0.06329782 0.06356795 0.0637523
 0.06379311 0.063719 0.06356113 0.06333305 0.06305908 0.062788 0.06258856 0.0625219 0.06258149 0.06267546
 0.0627159 0.06270589 0.0626895 0.06265308 0.06254552 0.06237284 0.06220821 0.06211611 0.06210523 0.06214146
 0.06216949 0.06211993 0.06192653 0.06158269 0.06119892 0.06095925 0.06097263 0.06118698 0.06146901 0.06171798
 0.0618807 0.06193313 0.06190047 0.06184583 0.06179692 0.06171607 0.06156535 0.06137976 0.06126052 0.06129289
 0.06146483 0.06167547 0.06183027 0.06190517 0.06191934 0.06189779 0.061876 0.06188427 0.06190297 0.06187709
 0.06179287 0.06170584 0.06168051 0.06172208 0.06177377 0.06177751 0.06173767 0.06171576 0.06175683 0.06184079
 0.06191728 0.06196517 0.06200157 0.06204542 0.06208284 0.06207165 0.06198989 0.06187581 0.06179553 0.06177275
 0.061779 0.06179119 0.06182307 0.06189074 0.06197426 0.06203147 0.06204318 0.06203131 0.06202618 0.06202425
 0.06199523 0.06192949 0.06185792 0.06181931 0.06182367 0.06185259 0.06188283 0.06190239 0.06190952 0.06190393
 0.06188349 0.06184728 0.06179628 0.0617338 0.06167489 0.06164942 0.06167611 0.06173037 0.06175459 0.06171047
 0.06161513 0.0615208 0.06146231 0.06142944 0.06138974 0.06132973 0.06126537 0.06121767 0.06119164 0.06117964
 0.06117163 0.06116034 0.06115118 0.06117197 0.06125599 0.06140093 0.06155434 0.06165691 0.061699 0.06172243
 0.06177058 0.06185029 0.06194061 0.06202367 0.0621039 0.06220159 0.06232496 0.06245071 0.06254661 0.06261387
 0.06268752 0.06279412 0.06293038 0.0630828 0.0632394 0.06337908 0.06348091 0.06355563 0.06364331 0.0637662
 0.06390196 0.06401652 0.06410837 0.06420523 0.06432766 0.0644744 0.06464115 0.06483585 0.06506736 0.06532606
 0.06558184 0.06580281 0.0659811 0.06614529 0.0663432 0.06660368 0.06691101 0.06721735 0.0674824 0.06770451
 0.06791341 0.06813411 0.06836698 0.06860843 0.06887426 0.06918178 0.06951693 0.06984362 0.07014535 0.07043791
 0.0707408 0.07105422 0.07136823 0.07168138 0.07200281 0.07233851 0.07267806 0.07299784 0.07328171 0.07353781
 0.073792 0.07406815 0.07437518 0.0747 0.07500559 0.0752531 0.07544476 0.07563384 0.07587038 0.07614417
 0.07640512 0.07663413 0.07686469 0.07713018 0.07741844 0.07769314 0.07794181 0.07818444 0.07844134 0.07870536
 0.0789453 0.07913292 0.07926933 0.07938586 0.07951751 0.07968082 0.07988122 0.08012609 0.0804119 0.08070669
 0.08096718 0.08117165 0.08132347 0.08143456 0.08152482 0.08162494 0.08175473 0.08190271 0.082041 0.08214998
 0.08222301 0.08227037 0.08233096 0.08245232 0.08264232 0.08286375 0.08308876 0.08333014 0.0836017 0.08387831
 0.08412478 0.08434698 0.08458093 0.08483285 0.08505793 0.08520659 0.0852702 0.0852713 0.08523284 0.08517709
 0.08513469 0.08512068 0.08510205 0.08501017 0.08478867 0.08442055 0.08391763 0.08330461 0.08261985 0.08192228
 0.08128766 0.08079289 0.08050032 0.08045245 0.08066923 0.08113428 0.0817803 0.08250025 0.08318174 0.08373194
 0.08408256 0.08419894 0.08409636 0.0838296 0.08344448 0.08293952 0.08228177 0.08145215 0.08046222 0.07933274
 0.07807488 0.07670149 0.07525086 0.07379495 0.07242452 0.07122502 0.07026121 0.06957899 0.06920869 0.06915081
 0.06935036 0.06969071 0.07002008 0.07019146 0.07009572 0.06968554 0.06898592 0.06807614 0.06704848 0.06597733
 0.06491801 0.06391419 0.06299572 0.06218255 0.06150915 0.0610448 0.06088108 0.06109872 0.06174299 0.06281066
 0.06423689 0.0658918 0.06760918 0.06924327 0.07071561 0.07201922 0.07318878 0.07426941 0.07529934 0.07629988
 0.07727295 0.07821362 0.07912523 0.08001406 0.08086947 0.08165629 0.08232456 0.08282012 0.08309457 0.08312532
 0.08293793 0.08260836 0.08223483 0.08188641 0.08155407 0.08114374 0.08053163 0.07964819 0.07852522 0.07727982
 0.07606876 0.07506292 0.07445436 0.07445927 0.07527009 0.07695998 0.07941228 0.08234465 0.08541486 0.08833022
 0.09090824 0.09309074 0.09492406 0.09650949 0.09794366 0.09928406 0.1005501 0.1017403 0.1028477 0.1038699
 0.1048134 0.1056915 0.1065192 0.1073063 0.108052 0.1087475 0.1093907 0.1099966 0.1105905 0.1111899
 0.1117922 0.112381 0.1129446 0.1134878 0.1140209 0.1145411 0.115036 0.1155041 0.1159607 0.1164218
 0.1168929 0.117372 0.1178487 0.1183005 0.1187046 0.1190586 0.1193831 0.1197026 0.1200274 0.1203541
 0.1206749 0.1209843 0.1212809 0.1215695 0.1218591 0.1221544 0.1224469 0.1227183 0.1229563 0.1231657
 0.1233624 0.1235586 0.1237563 0.1239525 0.1241497 0.1243632 0.1246138 0.1249095 0.1252342 0.1255571
 0.1258565 0.1261342 0.1264071 0.1266882 0.1269772 0.1272653 0.1275443 0.1278113 0.1280662 0.1283093
 0.1285393 0.1287541 0.128954 0.1291435 0.1293274 0.129507 0.1296807 0.1298492 0.130018 0.1301973
 0.1303967 0.1306165 0.1308432 0.1310584 0.1312554 0.1314468 0.1316528 0.1318855 0.1321436 0.1324191
 0.132705 0.1329971 0.1332926 0.1335882 0.133881 0.1341695 0.1344549 0.1347396 0.1350227 0.1352984
 0.1355628 0.1358198 0.1360781 0.1363415 0.1366058 0.1368657 0.137122 0.1373801 0.1376451 0.1379175
 0.1381927 0.1384642 0.1387291 0.1389904 0.1392512 0.1395106 0.1397649 0.1400137 0.1402619 0.1405161
 0.1407773 0.141039 0.1412936 0.1415398 0.141782 0.142025 0.1422707 0.1425176 0.1427637 0.1430073
 0.1432478 0.1434844 0.1437185 0.1439545 0.1441966 0.1444442 0.1446932 0.1449413 0.1451876 0.1454319
 0.1456743 0.1459148 0.1461536 0.1463908 0.1466246 0.1468499 0.1470652 0.1472794 0.1475053 0.1477452
 0.1479896 0.1482284 0.1484573 0.148677 0.1488895 0.1490955 0.1492954 0.1494941 0.1497027 0.1499292
 0.1501713 0.1504199 0.1506649 0.1508987 0.1511213 0.1513403 0.1515647 0.1517985 0.1520405 0.1522854
 0.1525272 0.1527641 0.1529991 0.1532322 0.1534602 0.1536824 0.1539017 0.1541219 0.1543453 0.1545711
 0.1547962 0.1550225 0.1552595 0.1555123 0.1557736 0.1560342 0.1562916 0.1565463 0.1567982 0.1570469
 0.1572885 0.157519 0.157744 0.1579738 0.1582081 0.1584383 0.1586644 0.1588923 0.1591231 0.1593557
 0.1595911 0.1598267 0.1600559 0.1602781 0.1604979 0.1607184 0.1609417 0.1611678 0.1613901 0.1616038
 0.1618151 0.1620306 0.1622483 0.1624651 0.1626815 0.1628961 0.1631074 0.1633175 0.1635237 0.1637215
 0.1639193 0.164131 0.1643539 0.1645758 0.1647948 0.1650132 0.165227 0.1654344 0.1656368 0.1658234
 0.1659583 0.1659418 0.1655147 0.1641595 0.1610913 0.1554119 0.1464621 0.1342348 0.1195249 0.1036469
 0.08794719 0.07345617 0.06078973 0.05022407 0.04181882 0.03549993 0.03111674 0.02853614 0.02774162 0.02893261
 0.03262797 0.03936277 0.04854448 0.05742713 0.06216344 0.06083119 0.05526446 0.04937967 0.04591443 0.0450905
 0.0457668 0.04695885 0.04834553 0.05008903 0.05248557 0.05562709 0.05937697 0.06372997 0.06899575 0.07540746
 0.08263955 0.08993415 0.09674658 0.1031722 0.1097024 0.1166282 0.1237306 0.1304953 0.1365225 0.1417296
 0.1462777 0.1503918 0.1542339 0.1578818 0.1613707 0.1646945 0.1677338 0.1702251 0.1718863 0.1726292
 0.1726614 0.1723692 0.1720908 0.1719841 0.172065 0.1723072 0.1726906 0.1732001 0.1738199 0.1745288
 0.1752957 0.1760871 0.1768779 0.1776483 0.1783791 0.1790594 0.1796892 0.1802708 0.1808054 0.1812962
 0.1817469 0.1821584 0.1825334 0.1828788 0.1832026 0.183511 0.183808 0.1840929 0.184362 0.1846131
 0.1848461 0.1850586 0.1852514 0.1854335 0.1856165 0.1858038 0.1859916 0.1861764 0.1863581 0.1865407
 0.1867291 0.1869227 0.1871141 0.1872958 0.1874658 0.1876258 0.187779 0.187931 0.1880871 0.1882495
 0.1884203 0.188603 0.1887963 0.1889915 0.1891794 0.1893584 0.1895337 0.1897115 0.189892 0.1900681
 0.1902359 0.1904041 0.1905844 0.1907759 0.1909713 0.1911711 0.1913807 0.1915973 0.1918125 0.1920212
 0.1922196 0.1924001 0.1925587 0.1927054 0.1928627 0.1930504 0.1932667 0.1934869 0.1936875 0.1938683
 0.1940428 0.1942175 0.1943884 0.1945472 0.1946907 0.1948352 0.1950107 0.1952277 0.195461 0.1956841
 0.1958967 0.1961098 0.1963255 0.196541 0.1967484 0.1969246 0.197049 0.1971389 0.197255 0.1974591
 0.1977578 0.1980876 0.1983699 0.1985815 0.1987572 0.1989409 0.1991547 0.1993833 0.1995562 0.1995965
 0.1995423 0.1995654 0.1998102 0.2002492 0.2007337 0.2011436 0.2014523 0.2016927 0.2019017 0.202085
 0.2022112 0.2022479 0.2022251 0.2022589 0.2024733 0.202875 0.2033356 0.2037217 0.2040009 0.2042069
 0.204376 0.204538 0.2046712 0.2046522 0.2043879 0.2040492 0.2040299 0.2045638 0.2054572 0.2062905
 0.2068306 0.2071563 0.2074286 0.2076904 0.2079055 0.2079979 0.207766 0.2069966 0.2058828 0.2051412
 0.2054203 0.2066453 0.2081378 0.2092937 0.2099665 0.2103166 0.210542 0.2107452 0.210859 0.2106578
 0.2100051 0.2091808 0.2088128 0.2092987 0.2103597 0.2113403 0.2118791 0.2121012 0.2122689 0.2124887
 0.2126394 0.2123342 0.2111384 0.2092083 0.2076174 0.2076057 0.2093703 0.2118318 0.2137042 0.2146029
 0.214955 0.2150588 0.2146426 0.2133566 0.2112903 0.2089302 0.2070275 0.2065192 0.2079093 0.21047
 0.2126458 0.2135901 0.21388 0.2145243 0.215748 0.2169787 0.2176086 0.2174691 0.2167316 0.2155792
 0.2141218 0.2127178 0.2121608 0.2131184 0.2153293 0.2176976 0.2193062 0.2201121 0.220472 0.2200821
 0.2177616 0.2128718 0.2070988 0.2039967 0.205856 0.2113038 0.2167738 0.2200128 0.2213224 0.2218944
 0.2222195 0.2219468 0.2200738 0.2154738 0.2086375 0.2028157 0.2018375 0.2063175 0.2129612 0.2176546
 0.218304 0.215077 0.2096306 0.2045953 0.2025158 0.2043158 0.2088895 0.2141973 0.2184984 0.2208232
 0.2209538 0.2193249 0.2169813 0.2153247 0.215114 0.2153499 0.2140137 0.2106125 0.2069997 0.2046466
 0.2023436 0.1984198 0.1943947 0.1939914 0.1983052 0.2039969 0.2070456 0.2068136 0.2053564 0.2036397
 0.1998809 0.1920988 0.1817757 0.1739175 0.1726021 0.1766869 0.1807907 0.1805008 0.1758376 0.1697624
 0.164451 0.1594825 0.1531141 0.1449614 0.1373008 0.1332256 0.1334074 0.1354966 0.1368565 0.1366134
 0.1347509 0.1313193 0.1280191 0.1287726 0.1363316 0.1487701 0.160874 0.168317 0.1691821 0.1631134
 0.1521299 0.1420518 0.1396633 0.1466233 0.1574774 0.1647007 0.1647096 0.1585273 0.1485897 0.1371104
 0.1271506 0.1228529 0.1269395 0.1380183 0.1506642 0.1580943 0.1558626 0.1452995 0.1339171 0.1300188
 0.1351333 0.142932 0.1463675 0.1441263 0.1396373 0.1365719 0.1366975 0.1397114 0.1435844 0.1464045
 0.147927 0.1475371 0.142128 0.1298361 0.1152806 0.1066533 0.1072002 0.1133869 0.1214184 0.1307195
 0.1398156 0.1439124 0.1402354 0.1332561 0.1309925 0.1365157 0.1452658 0.1506698 0.1506954 0.1483466
 0.146934 0.1464676 0.1452697 0.1438667 0.1451838 0.1505458 0.1574015 0.1621536 0.163893 0.1641585
 0.1642459 0.1641911 0.1636668 0.1625713 0.1609611 0.1591219 0.1574885 0.1561455 0.1547405 0.1530112
 0.1507979 0.1472998 0.1412466 0.1328192 0.1248881 0.120834 0.1210166 0.1229054 0.1247293 0.1265391
 0.1268731 0.1217155 0.1096912 0.09647592 0.09074397 0.09581 0.1071135 0.1174385 0.1224997 0.1214238
 0.1145871 0.1036374 0.0932126 0.08963104 0.09587526 0.1088065 0.1225626 0.1335923 0.1411737 0.1447421
 0.1433463 0.137753 0.1313484 0.1282542 0.130811 0.1384803 0.1480017 0.1542162 0.1525472 0.1435228
 0.1349944 0.1364335 0.1489615 0.1635122 0.1709927 0.1715615 0.1712191 0.1724335 0.1727386 0.1712192
 0.1712969 0.1759037 0.1830598 0.1878244 0.1867245 0.1791454 0.1666412 0.1530834 0.1438302 0.1417407
 0.1442893 0.1466132 0.1464246 0.1437712 0.138068 0.1295048 0.1224952 0.1230181 0.1316267 0.1423621
 0.1494976 0.1527947 0.1552132 0.1576791 0.157896 0.1538685 0.1473186 0.1427133 0.1428887 0.1465456
 0.1504468 0.1527869 0.1533174 0.1515122 0.1468612 0.1410457 0.1379536 0.1403978 0.1473101 0.1547888
 0.1595888 0.1611508 0.1607891 0.1599038 0.159011 0.1577689 0.1558395 0.1541001 0.1545255 0.1580308
 0.1628845 0.1663801 0.167867 0.1690167 0.1711715 0.1735617 0.1744328 0.1731849 0.171048 0.1700096
 0.1712297 0.1741383 0.1768164 0.177515 0.1762408 0.1749057 0.1756011 0.1786203 0.1823959 0.1852711
 0.1868666 0.1877707 0.1885583 0.1892991 0.1895305 0.1886251 0.1866825 0.1850665 0.185443 0.1881057
 0.1916539 0.194391 0.1956613 0.1958039 0.1952957 0.1942757 0.1927664 0.1910559 0.1896841 0.1890579
 0.1891738 0.1897366 0.1904349 0.1910641 0.1915229 0.1918141 0.1920149 0.19219 0.1923538 0.1925076
 0.1926467 0.1927166 0.1926321 0.1923747 0.1920256 0.1916721 0.1913195 0.1909304 0.1905041 0.1900527
 0.1895197 0.188795 0.187823 0.1866332 0.1852588 0.1837064 0.182083 0.1807207 0.1800715 0.1803891
 0.1814945 0.1828707 0.1839937 0.1845905 0.1846609 0.1843636 0.1839121 0.1835015 0.183243 0.1831375
 0.183118 0.1831246 0.1831405 0.1831748 0.1832384 0.1833434 0.1835019 0.1836995 0.1838765 0.1839556
 0.1838934 0.1836982 0.1834069 0.1830555 0.1826582 0.182196 0.1816217 0.1808921 0.1800024 0.178985
 0.1778789 0.1767114 0.1755057 0.1742869 0.1730701 0.1718453 0.1705744 0.1692044 0.1677081 0.1661299
 0.1645734 0.1631219 0.1617781 0.1604913 0.1592199 0.1579533 0.1567017 0.1554957 0.1543863 0.1534193
 0.1526066 0.1519252 0.1513397 0.1508137 0.1503046 0.1497629 0.1491522 0.1484679 0.1477381 0.1470104
 0.1463308 0.1457039 0.1450506 0.1442067 0.1429717 0.1411683 0.1386909 0.135547 0.1318801 0.1279421
 0.1240152 0.1203329 0.1170465 0.1142405 0.1119573 0.1102003 0.1089307 0.1080861 0.1076152 0.1075005
 0.1077612 0.1084354 0.1095427 0.1110543 0.1128932 0.1149521 0.1171011 0.1192037 0.1211634 0.1229657
 0.1246658 0.1263234 0.1279466 0.1294917 0.1309082 0.1321702 0.1332615 0.1341582 0.1348476 0.1353577
 0.1357524 0.1361019 0.1364587 0.1368452 0.1372558 0.1376729 0.1380812 0.1384678 0.1388255 0.1391591
 0.1394787 0.1397874 0.1400922 0.1404253 0.1408426 0.1413946 0.1420975 0.1429287 0.1438552 0.1448632
 0.1459519 0.1471084 0.1483146 0.1495748 0.1509124 0.1523365 0.1538304 0.1553628 0.1568927 0.1583674
 0.159728 0.1609225 0.161921 0.1627281 0.1633766 0.1639033 0.1643333 0.1646825 0.1649638 0.1651922
 0.16539 0.1655741 0.1657396 0.1658643 0.165926 0.1659051 0.1657866 0.1655789 0.1653203 0.1650534
 0.1648032 0.1645827 0.1644047 0.1642809 0.1642181 0.1642099 0.1642289 0.1642379 0.164214 0.164155
 0.1640622 0.1639242 0.1637161 0.1634136 0.1630108 0.1625194 0.1619458 0.1612811 0.160519 0.1596681
 0.1587378 0.1577251 0.1566181 0.1554031 0.1540742 0.1526422 0.1511267 0.1495403 0.1479016 0.1462608
 0.1446863 0.1432204 0.1418633 0.140593 0.1393833 0.1382057 0.1370338 0.1358569 0.1346974 0.1336124
 0.1326614 0.131857 0.1311541 0.1304914 0.1298359 0.1291922 0.1285844 0.1280338 0.1275455 0.1271141
 0.1267362 0.1264104 0.1261349 0.125912 0.1257478 0.1256356 0.1255471 0.1254437 0.1252962 0.125097
 0.1248644 0.1246327 0.124433 0.1242869 0.124204 0.1241657 0.1241123 0.1239587 0.1236204 0.1230286
 0.1221504 0.1210084 0.1196725 0.1182341 0.1167998 0.1154852 0.114382 0.1135257 0.1128915 0.11241
 0.1119974 0.111608 0.1112678 0.1110467 0.1109974 0.111103 0.1112588 0.1113232 0.1112337 0.1110741
 0.1110055 0.111137 0.1114643 0.1118934 0.1123033 0.1126141 0.1128123 0.1129154 0.1129318 0.1128621
 0.1127052 0.1124538 0.1121111 0.1117067 0.1112769 0.1108375 0.1103869 0.1099128 0.1093902 0.1087934
 0.108104 0.1073044 0.1063876 0.1053663 0.104236 0.1029624 0.1015705 0.1002233 0.09914485 0.09846587
 0.09815296 0.09804936 0.09798492 0.09788257 0.09773662 0.0974887 0.09706064 0.09661002 0.09662692 0.09758246
 0.09945748 0.1017055 0.1036893 0.1050882 0.1059019 0.1062163 0.1060901 0.1055779 0.1047081 0.1034572
 0.1018356 0.09994756 0.09791563 0.09583321 0.09381211 0.09197247 0.09038596 0.08908912 0.08810218 0.08745959
 0.08724803 0.08719339 0.08593506 0.08172196 0.0750955 0.07012388 0.07099946 0.07732299 0.08436061 0.08805734
 0.08828197 0.08717053 0.08619326 0.08557453 0.08526059 0.08537762 0.08601967 0.08706333 0.08820157 0.08912641
 0.08971131 0.08997497 0.08987974 0.08918765 0.08741523 0.08397156 0.07863484 0.07201539 0.06536707 0.05984568
 0.05597634 0.05366513 0.05246055 0.0518268 0.0514057 0.05116535 0.05131526 0.05206958 0.05347302 0.05541463
 0.05773039 0.06021132 0.06256236 0.06451637 0.06602431 0.06722088 0.06819619 0.06890838 0.06929813 0.06936897
 0.06916226 0.06874335 0.06820734 0.06763393 0.06702343 0.06631106 0.06548369 0.06467986 0.06410842 0.06384325
 0.06377331 0.06377086 0.06380381 0.06386281 0.06390075 0.06388392 0.06382863 0.06378742 0.06384368 0.06407012
 0.06444154 0.06483562 0.06514563 0.06535633 0.06550901 0.06560718 0.06554947 0.06521167 0.06465635 0.06414972
 0.06383619 0.06350981 0.06289189 0.06205758 0.06140438 0.06122667 0.06145336 0.06178266 0.06196021 0.06192314
 0.06178835 0.06177077 0.06203341 0.06249951</values></Ydata></ScSm><ScRf><Ydata ylabel="Single channel"><values byteorder="INTEL" format="FLOAT32" numvalues="1820"> 0.0605895 0.06074005 0.06083701 0.06087984 0.06088638 0.06089512 0.06095327 0.06108645 0.06127545 0.06146385
 0.06159785 0.06166513 0.06168634 0.06167381 0.06162922 0.06158628 0.06161333 0.06174709 0.06194095 0.06209504
 0.0621381 0.06209257 0.06206312 0.06213216 0.06224655 0.06223445 0.06196935 0.06151653 0.06108785 0.06084538
 0.06080211 0.06095066 0.06136746 0.06201049 0.06249201 0.06235559 0.06164798 0.06094895 0.06072506 0.06088273
 0.06103998 0.06097161 0.06067554 0.06028758 0.06012874 0.0606196 0.06186395 0.06330438 0.06392008 0.06286886
 0.06009103 0.05650847 0.05368564 0.05298533 0.05460503 0.057307 0.05934747 0.05986633 0.05929924 0.05849578
 0.05781107 0.05720734 0.05683584 0.05707627 0.05800573 0.05903355 0.05919666 0.05797892 0.05593029 0.05428763
 0.05384772 0.05445851 0.05567398 0.05724201 0.05843583 0.05766743 0.0540497 0.04938054 0.04734233 0.04999829
 0.05558956 0.06026354 0.06150403 0.05952471 0.05613667 0.05325036 0.0521688 0.05323146 0.05574281 0.05855795
 0.06078339 0.06181253 0.06116925 0.05892364 0.05609391 0.05414492 0.05408691 0.05608939 0.05944866 0.06263985
 0.06400615 0.06298676 0.06049186 0.05793557 0.05630445 0.05616008 0.05776885 0.06081776 0.06440784 0.06758572
 0.06973147 0.07060193 0.07037708 0.06955764 0.06858778 0.06776913 0.06752017 0.0681223 0.06903425 0.06910028
 0.06781366 0.06600294 0.06498088 0.06518888 0.06584798 0.06590173 0.06508045 0.06371292 0.06167289 0.05838474
 0.05413368 0.05039365 0.04835305 0.04801912 0.04910586 0.05149473 0.05418865 0.05523965 0.05387129 0.05184639
 0.05170966 0.05407944 0.05733004 0.05959979 0.06051864 0.06109425 0.06240243 0.06447712 0.06615637 0.06595201
 0.06352518 0.06052508 0.05942424 0.06109118 0.06395885 0.06596219 0.06672246 0.0673162 0.06839478 0.0691735
 0.06824724 0.065257 0.06178672 0.06038307 0.06233441 0.06637993 0.06962201 0.06966317 0.0662189 0.06119578
 0.05721167 0.05578176 0.05690388 0.06004874 0.06474193 0.07004985 0.07435112 0.07624005 0.07554097 0.07322937
 0.07032284 0.06694023 0.06282652 0.05892052 0.05755254 0.06024061 0.06574031 0.07107937 0.0742119 0.07503817
 0.07423556 0.07198195 0.06816217 0.063628 0.06061095 0.06098605 0.06402086 0.0667951 0.06726415 0.06612047
 0.0652876 0.06550573 0.06605741 0.06626648 0.06646325 0.0674337 0.06930953 0.07127741 0.0723751 0.07236872
 0.07179125 0.07131862 0.07115187 0.07087095 0.07002808 0.06905076 0.06917641 0.07109231 0.07398301 0.07636599
 0.07757276 0.07798451 0.07803977 0.0774779 0.07572478 0.07297808 0.07065354 0.07033397 0.0722333 0.07505943
 0.07735542 0.07854941 0.0788172 0.07854834 0.07808078 0.07759519 0.0771779 0.07705525 0.07753141 0.07854921
 0.07959717 0.0802216 0.08039365 0.08027534 0.0798995 0.07924696 0.0784833 0.07795259 0.07792747 0.07840435
 0.0791557 0.07993369 0.08055417 0.08085091 0.0807333 0.08032301 0.07988557 0.0795885 0.07943855 0.07944518
 0.07968077 0.0801345 0.08063607 0.08099473 0.08115217 0.08116404 0.08109082 0.08095274 0.0807669 0.08059502
 0.08054067 0.08067197 0.08093499 0.08119313 0.08138756 0.08159516 0.08187051 0.08210424 0.08213376 0.08195547
 0.08173849 0.08164343 0.08169404 0.08181314 0.08191093 0.08191052 0.08174299 0.08140256 0.08102535 0.08084331
 0.08100774 0.08148448 0.08212256 0.08275501 0.08323278 0.08347169 0.08351526 0.08348425 0.0834377 0.08333756
 0.08315593 0.08296661 0.08291486 0.08310519 0.08350666 0.08396743 0.08433382 0.08454573 0.08463076 0.08466747
 0.08475685 0.08494484 0.0851474 0.08522543 0.08515899 0.08508282 0.08512495 0.08525993 0.08534987 0.08530709
 0.08519298 0.08515346 0.08526895 0.08548717 0.08570211 0.08586982 0.08603094 0.08623075 0.08643167 0.0865227
 0.08643797 0.08624921 0.08609612 0.08603735 0.08603118 0.08605577 0.08616261 0.08637764 0.08661462 0.08674704
 0.08674799 0.08671389 0.08674389 0.08682577 0.08685867 0.08677177 0.08659616 0.08642817 0.08634788 0.08637245
 0.08645927 0.0865372 0.08654763 0.08647737 0.08635989 0.08624242 0.08615205 0.08610253 0.08612834 0.08627649
 0.08653292 0.08677292 0.0868337 0.0866612 0.08637141 0.08614773 0.08607695 0.08608964 0.08605127 0.08589335
 0.08565423 0.08541667 0.08523164 0.08509809 0.08499037 0.08489336 0.08482525 0.08483345 0.08494628 0.08510958
 0.08519365 0.08509992 0.08485789 0.08459312 0.08441123 0.08433515 0.08432876 0.08434121 0.08434406 0.08435723
 0.08441935 0.0845127 0.08455607 0.08449977 0.08439144 0.08432639 0.08436882 0.08452643 0.08474559 0.08491707
 0.08494705 0.08485176 0.08474521 0.08471958 0.08477133 0.08484945 0.08492954 0.08501809 0.08511773 0.08522277
 0.08534167 0.08550015 0.08571447 0.08596669 0.08620717 0.08638522 0.08649096 0.08657578 0.08672141 0.08697358
 0.0873014 0.08762379 0.0878769 0.08806013 0.0882211 0.08839969 0.08859665 0.08880201 0.0890328 0.08931513
 0.08963834 0.08995934 0.09025285 0.09053153 0.09081511 0.09110336 0.09138808 0.09168167 0.09202279 0.09243881
 0.09289315 0.09328674 0.09353925 0.09366845 0.09377752 0.09397322 0.09429619 0.09469489 0.09504883 0.09525716
 0.09533986 0.09542552 0.09561087 0.09586452 0.0961036 0.09633026 0.09663454 0.09706598 0.09755018 0.0979508
 0.09819642 0.09833533 0.09847179 0.09865577 0.09884357 0.09897175 0.09904841 0.09914078 0.09928468 0.09945872
 0.09965739 0.09993017 0.1003092 0.1007369 0.1011113 0.1013815 0.101568 0.1017111 0.1018327 0.1019315
 0.1019901 0.102003 0.1020094 0.1020678 0.1021819 0.102287 0.1023342 0.1023553 0.1024206 0.1025627
 0.1027724 0.1030372 0.1033409 0.1036425 0.1039074 0.1041632 0.1044747 0.1048407 0.105161 0.1053422
 0.1054026 0.1054301 0.1054695 0.1055104 0.1055686 0.105706 0.1059555 0.1062779 0.1066126 0.1069377
 0.1072661 0.1076025 0.1079182 0.1081598 0.1082831 0.1082912 0.1082461 0.1082389 0.1083426 0.1085752
 0.1088934 0.1092229 0.109504 0.109705 0.1098038 0.1097903 0.1097108 0.109675 0.1097706 0.1099652
 0.1101213 0.1101119 0.1099022 0.1095249 0.1090164 0.108401 0.1077231 0.1070637 0.1065104 0.1061158
 0.1058937 0.1058587 0.10605 0.1064896 0.1071221 0.1078242 0.1084775 0.1090015 0.1093176 0.1093358
 0.1090171 0.1084291 0.1077087 0.1069793 0.1063094 0.1057112 0.1051505 0.1045905 0.1040707 0.1037382
 0.1037783 0.1043077 0.1053217 0.1066983 0.1082296 0.1096869 0.1109169 0.1118983 0.1127067 0.1134255
 0.1140986 0.114751 0.1154124 0.1160899 0.1167386 0.1172995 0.1177661 0.1181845 0.1185912 0.1189769
 0.1193111 0.1195754 0.1197798 0.1199627 0.120159 0.1203491 0.1204636 0.1204609 0.1203763 0.120273
 0.1201651 0.1200093 0.1197538 0.1193839 0.1189463 0.1185604 0.1183999 0.1186262 0.1192993 0.120338
 0.1215786 0.1228777 0.1241476 0.1253077 0.1262584 0.1269386 0.1273824 0.1276905 0.1279564 0.1282315
 0.1285296 0.1288407 0.1291445 0.1294289 0.1296985 0.1299727 0.1302768 0.1306208 0.1309769 0.1312918
 0.1315387 0.1317533 0.1320084 0.1323468 0.1327403 0.1331206 0.133452 0.1337625 0.1340871 0.1344023
 0.1346506 0.1348211 0.1349723 0.1351761 0.1354648 0.1358247 0.1362058 0.1365395 0.1367829 0.136955
 0.137115 0.1373045 0.1375262 0.1377676 0.1380218 0.1382824 0.1385403 0.1387982 0.1390767 0.1393871
 0.139699 0.1399546 0.1401252 0.1402446 0.1403763 0.1405556 0.1407688 0.1409827 0.141185 0.1413992
 0.1416593 0.1419667 0.1422756 0.142529 0.1427066 0.1428361 0.1429621 0.1431158 0.1433066 0.1435284
 0.1437635 0.1439898 0.1441948 0.1443859 0.1445826 0.1447963 0.1450206 0.1452416 0.1454532 0.145659
 0.1458633 0.1460661 0.146271 0.1464946 0.1467557 0.1470465 0.1473256 0.1475515 0.1477208 0.1478627
 0.148004 0.1481528 0.1483109 0.1484834 0.1486735 0.1488776 0.1490876 0.1492959 0.1494984 0.1496946
 0.149887 0.1500798 0.1502775 0.150482 0.1506932 0.150913 0.151143 0.1513788 0.1516082 0.1518203
 0.1520132 0.1521947 0.152378 0.1525708 0.1527678 0.1529578 0.1531388 0.1533221 0.1535173 0.1537211
 0.1539227 0.1541171 0.1543081 0.1545012 0.1546969 0.1548928 0.1550883 0.1552836 0.1554772 0.1556691
 0.1558631 0.1560604 0.156256 0.1564474 0.1566397 0.1568372 0.1570382 0.1572402 0.1574449 0.1576532
 0.1578607 0.1580603 0.158248 0.1584283 0.1586119 0.1588068 0.1590114 0.1592193 0.1594251 0.1596245
 0.1598157 0.1600045 0.1602003 0.1604078 0.1606263 0.1608527 0.1610818 0.1613068 0.1615248 0.1617375
 0.1619452 0.1621486 0.1623532 0.1625658 0.1627872 0.163011 0.1632287 0.1634364 0.163636 0.1638309
 0.164019 0.1641959 0.1643639 0.1645307 0.1647005 0.1648723 0.1650462 0.1652254 0.1654143 0.1656119
 0.1658097 0.1659988 0.1661824 0.1663732 0.166576 0.1667839 0.1669904 0.1671962 0.1674057 0.1676195
 0.1678317 0.1680349 0.1682306 0.1684304 0.1686405 0.1688551 0.1690674 0.1692763 0.1694825 0.1696885
 0.1699009 0.1701218 0.1703447 0.1705656 0.1707863 0.1710029 0.1712061 0.171396 0.1715847 0.1717839
 0.1719962 0.1722116 0.172416 0.1726093 0.1728096 0.1730276 0.1732523 0.1734702 0.1736806 0.1738878
 0.1740932 0.1742985 0.1745033 0.1747073 0.1749173 0.1751384 0.175362 0.1755764 0.1757838 0.175992
 0.1762027 0.176415 0.1766229 0.1768075 0.1769298 0.1768845 0.1763912 0.1748899 0.1715349 0.1653638
 0.1556773 0.1424776 0.1266263 0.1095435 0.09268431 0.07715292 0.06359467 0.05229114 0.04330632 0.03656828
 0.03191745 0.02920521 0.02840529 0.02972477 0.0337166 0.04094885 0.05077189 0.06023056 0.06521716 0.06371734
 0.0577369 0.0514724 0.04782258 0.04698981 0.04773727 0.04901344 0.05048497 0.05233862 0.054901 0.05827115
 0.06230019 0.06698506 0.07265927 0.07956133 0.08732457 0.09513396 0.1024252 0.1093237 0.1163607 0.1238291
 0.1314682 0.1387154 0.1451541 0.1507179 0.1555913 0.1600116 0.1641404 0.1680512 0.1717793 0.1753218
 0.1785588 0.1812157 0.1829893 0.1837759 0.1837912 0.183455 0.1831412 0.1830217 0.1831073 0.183366
 0.1837788 0.1843291 0.1849953 0.1857515 0.186566 0.1874049 0.1882426 0.1890616 0.1898466 0.190585
 0.1912666 0.1918825 0.1924334 0.1929336 0.1933981 0.1938323 0.1942395 0.1946252 0.1949902 0.1953319
 0.1956538 0.1959636 0.1962626 0.1965449 0.1968046 0.1970406 0.1972589 0.1974688 0.1976761 0.1978797
 0.1980795 0.1982791 0.1984808 0.1986845 0.1988915 0.1991023 0.1993139 0.1995221 0.1997242 0.1999162
 0.2000964 0.2002729 0.2004578 0.2006538 0.2008517 0.2010432 0.201231 0.201423 0.2016216 0.2018217
 0.2020212 0.2022257 0.2024385 0.2026494 0.2028476 0.2030394 0.2032397 0.20345 0.203659 0.2038641
 0.204075 0.204296 0.2045182 0.2047294 0.204924 0.2051013 0.2052638 0.2054199 0.2055869 0.2057821
 0.2060052 0.2062359 0.2064547 0.2066611 0.2068657 0.2070722 0.2072724 0.2074541 0.2076153 0.2077802
 0.2079839 0.2082329 0.2084964 0.2087462 0.2089817 0.2092109 0.2094357 0.2096608 0.2098876 0.2100954
 0.2102592 0.2103934 0.2105588 0.2108148 0.2111599 0.2115242 0.2118322 0.2120715 0.2122864 0.2125209
 0.2127877 0.2130598 0.213258 0.2133057 0.2132514 0.2132872 0.2135748 0.2140807 0.2146285 0.2150765
 0.2154063 0.2156763 0.215934 0.2161691 0.2163271 0.2163711 0.2163517 0.2164132 0.2166901 0.2171713
 0.2177004 0.2181343 0.2184536 0.2187035 0.2189116 0.2190868 0.219194 0.2191095 0.2187538 0.2183248
 0.2182445 0.2187561 0.219651 0.2204894 0.2210308 0.2213567 0.2216296 0.2218907 0.2221031 0.222186
 0.2219189 0.2210721 0.2198606 0.2190633 0.219376 0.220707 0.2223182 0.2235612 0.224282 0.2246527
 0.2248874 0.2251039 0.2252341 0.2250309 0.2243415 0.2234672 0.2230855 0.2236212 0.2247689 0.2258244
 0.2264088 0.2266689 0.2268904 0.2271784 0.2273865 0.227082 0.2257915 0.2236992 0.221991 0.2220168
 0.2239711 0.2266604 0.2286855 0.2296434 0.2300111 0.2301143 0.2296547 0.2282544 0.2260177 0.2234752
 0.221437 0.2209123 0.2224401 0.2252204 0.2275616 0.2285584 0.2288553 0.2295507 0.2308787 0.2322118
 0.2328939 0.2327469 0.2319572 0.2307218 0.2291605 0.227666 0.2270983 0.2281708 0.2305881 0.2331588
 0.2348965 0.235766 0.2361635 0.2357577 0.2332592 0.2279793 0.2217672 0.2184834 0.2205826 0.2265419
 0.2324959 0.2360325 0.2375046 0.2382068 0.238654 0.2384395 0.2364576 0.2314956 0.2241238 0.2179044
 0.2169872 0.2219984 0.229332 0.2345275 0.2353294 0.2319276 0.2261323 0.2208184 0.2187524 0.2209199
 0.2261049 0.2320901 0.236984 0.2397296 0.2400867 0.2385259 0.2361955 0.2346472 0.2347125 0.2352641
 0.2340708 0.2306228 0.2269872 0.2247611 0.2225785 0.2186214 0.2146361 0.2147702 0.2201958 0.2271565
 0.2311983 0.2316821 0.2309413 0.23001 0.2268076 0.2191028 0.2087306 0.2016477 0.2027293 0.2107167
 0.2193532 0.2235222 0.2233085 0.2221321 0.2221775 0.2221721 0.219183 0.2124622 0.20536 0.2024971
 0.2048271 0.2087721 0.2104243 0.2086349 0.203605 0.195651 0.1874849 0.1849723 0.1921533 0.2062682
 0.2199484 0.2272832 0.2259162 0.2156559 0.1993545 0.1847243 0.1805691 0.1888583 0.2023213 0.2111546
 0.2107755 0.2025576 0.1896611 0.1749494 0.1623824 0.1573085 0.1632233 0.1782771 0.1953679 0.2056189
 0.2032307 0.1900378 0.1760215 0.1721001 0.1801077 0.1915096 0.1969882 0.1949189 0.1899301 0.1869722
 0.1885005 0.1941057 0.2009195 0.2062919 0.209899 0.2106561 0.2038234 0.1867018 0.1661677 0.1541558
 0.1552514 0.1642802 0.1758791 0.1893407 0.2024674 0.2082118 0.2026372 0.1924116 0.1891727 0.1971649
 0.2095885 0.2169355 0.2164128 0.2124693 0.2098891 0.208674 0.2064561 0.2040512 0.2056309 0.2129981
 0.2224653 0.2289719 0.2313326 0.2317965 0.2322123 0.2326215 0.2325406 0.2318002 0.2304688 0.2289666
 0.2279366 0.2275173 0.2272172 0.2266651 0.225562 0.2225057 0.2153041 0.2040529 0.1930996 0.1876059
 0.1880744 0.1906826 0.1929533 0.1951874 0.1951739 0.1867318 0.1678837 0.1475253 0.1389538 0.1470278
 0.1645501 0.1804501 0.1882652 0.1866924 0.1762456 0.1594103 0.1432943 0.1374578 0.146138 0.1641629
 0.1824508 0.1958403 0.2037703 0.2059698 0.2014067 0.1913231 0.1805449 0.1747585 0.1770017 0.1862735
 0.1979203 0.2049211 0.2012947 0.1879815 0.1754914 0.176224 0.1915018 0.2094274 0.2182561 0.2183205
 0.2174173 0.2186932 0.2189995 0.2172925 0.2181068 0.2252706 0.2362382 0.2445963 0.2456997 0.2385014
 0.2249868 0.2106949 0.2032898 0.2063717 0.2153217 0.2222854 0.2237638 0.2201461 0.2110701 0.1974091
 0.1862315 0.1865376 0.1988274 0.2139267 0.2234119 0.2272716 0.2300859 0.2331494 0.2329296 0.226456
 0.2163156 0.2090745 0.2087873 0.2134362 0.218327 0.2210442 0.2214639 0.2189226 0.2126395 0.2049288
 0.2012185 0.205301 0.2153728 0.2257081 0.2317704 0.2330352 0.2316066 0.2295125 0.2273596 0.2245249
 0.2205045 0.2166468 0.2158914 0.2196329 0.2255107 0.2298403 0.2318399 0.2338988 0.2378294 0.2423776
 0.2447554 0.2436814 0.2405851 0.2383407 0.2389539 0.2419804 0.2448694 0.2451461 0.2427667 0.2403789
 0.2408817 0.2446615 0.2495444 0.2532671 0.2553143 0.2564541 0.2574234 0.2582891 0.258397 0.2568675
 0.2538401 0.2512059 0.2512584 0.2544096 0.2587972 0.2622125 0.2638857 0.2643513 0.2642295 0.2635854
 0.2622919 0.2606093 0.2591943 0.2585826 0.2588086 0.2595378 0.2604122 0.2612043 0.2618023 0.2621965
 0.2624476 0.2626065 0.2626953 0.262757 0.2628367 0.2629022 0.2628776 0.262789 0.2627869 0.2629691
 0.2632482 0.2634486 0.2634651 0.2632531 0.2627351 0.2618375 0.2606118 0.2592053 0.257687 0.2560107
 0.2542494 0.2528221 0.2523539 0.2532127 0.255177 0.2575752 0.2597393 0.2613313 0.2623381 0.262894
 0.2631508 0.2632343 0.2632254 0.2631516 0.2630067 0.2627875 0.2625076 0.2621819 0.2618157 0.2614202
 0.2610336 0.2607011 0.2604292 0.2601672 0.2598456 0.2594287 0.2589307 0.258393 0.2578473 0.257287
 0.2566654 0.255928 0.2550587 0.254104 0.2531532 0.2522824 0.251502 0.2507572 0.2499871 0.2491657
 0.2482751 0.2472702 0.246126 0.2449232 0.2438321 0.2429741 0.2423185 0.2417295 0.2410848 0.2403301
 0.2394583 0.2384849 0.2374419 0.2363625 0.2352629 0.2341395 0.2329746 0.2317413 0.2304177 0.2289991
 0.2274921 0.2259082 0.2242762 0.2226371 0.2209949 0.2192742 0.2173378 0.2150398 0.2122578 0.2089062
 0.2049589 0.2004797 0.1956322 0.1906433 0.1857328 0.1810639 0.176748 0.1728784 0.16954 0.1668021
 0.1647189 0.1633308 0.1626564 0.1626905 0.1634134 0.1647929 0.1667695 0.1692399 0.1720566 0.175045
 0.1780296 0.1808605 0.1834426 0.1857692 0.187915 0.1899607 0.1919154 0.1937242 0.1953398 0.1967545
 0.1979737 0.1989954 0.1998248 0.2004908 0.2010399 0.2015134 0.2019328 0.2023047 0.2026317 0.2029151
 0.2031538 0.2033543 0.203537 0.2037217 0.2039167 0.2041281 0.2043747 0.2046833 0.2050727 0.2055394
 0.2060578 0.2066017 0.2071637 0.2077471 0.2083508 0.2089816 0.2096746 0.2104838 0.211449 0.2125795
 0.2138539 0.2152236 0.2166179 0.2179549 0.2191533 0.220148 0.2209063 0.2214273 0.2217275 0.2218324
 0.2217754 0.2215906 0.2213055 0.2209391 0.2205011 0.219994 0.2194258 0.2188144 0.2181695 0.2174819
 0.2167502 0.2160085 0.2153045 0.2146505 0.2140163 0.2133725 0.212726 0.2121041 0.2115178 0.2109525
 0.2103894 0.2098251 0.209266 0.2087124 0.2081479 0.2075439 0.2068717 0.2061148 0.2052726 0.2043523
 0.2033547 0.202269 0.2010841 0.199801 0.1984313 0.1969866 0.195473 0.1938956 0.19226 0.1905641
 0.1887882 0.1869037 0.1849098 0.1828648 0.180865 0.1789888 0.1772663 0.1756898 0.1742302 0.1728495
 0.1715192 0.1702318 0.1689924 0.167812 0.1667062 0.1656792 0.1647103 0.1637759 0.1628839 0.1620678
 0.1613492 0.160721 0.1601661 0.1596795 0.1592641 0.1589158 0.1586313 0.1584311 0.1583484 0.1583789
 0.158463 0.1585266 0.1585248 0.1584493 0.1583237 0.1581925 0.1580891 0.1580135 0.1579441 0.157851
 0.157683 0.1573613 0.1567989 0.1559325 0.1547452 0.1532661 0.1515559 0.1497071 0.1478569 0.1461585
 0.1447166 0.143566 0.1426996 0.1420732 0.1416014 0.1412039 0.1408693 0.1406567 0.140639 0.1408254
 0.1411072 0.1413107 0.1413564 0.1413474 0.1414741 0.1418589 0.1424956 0.1432765 0.1440586 0.1447406
 0.1452833 0.1456731 0.1459104 0.1460315 0.1460794 0.1460551 0.145939 0.1457345 0.1454641 0.1451514
 0.1448132 0.1444323 0.1439585 0.1433705 0.142696 0.1419574 0.1411534 0.1402783 0.139295 0.138143
 0.1368704 0.1357133 0.1349691 0.1348156 0.1352402 0.1360672 0.137069 0.1381103 0.1391248 0.1399405
 0.1403257 0.1403547 0.1405875 0.1416656 0.1436973 0.1461279 0.1482305 0.1496368 0.1503601 0.1504863
 0.1500436 0.1490757 0.1476166 0.1456373 0.1431543 0.140304 0.137237 0.1340869 0.1310544 0.1283436
 0.1260393 0.1241547 0.1226962 0.1217055 0.1213087 0.1211331 0.119276 0.1132912 0.1039655 0.09700145
 0.09820195 0.106933 0.1165791 0.1215299 0.1216391 0.1199087 0.1184171 0.1174772 0.1169704 0.1170295
 0.1177806 0.1190806 0.120544 0.1217698 0.1225825 0.1230085 0.1230005 0.1221897 0.1198239 0.1150474
 0.1076018 0.09839708 0.08918863 0.08156773 0.07625444 0.07311772 0.07153384 0.0707536 0.07026213 0.07000794
 0.0702893 0.07139007 0.07333943 0.07598853 0.07916781 0.08263915 0.08599317 0.08881895 0.09100702 0.09273739
 0.09415464 0.09518951 0.09570903 0.0957092 0.09531908 0.09469712 0.09396392 0.09317593 0.09230035 0.09124516
 0.0900069 0.08879691 0.08791988 0.08749474 0.08737776 0.08736137 0.08734354 0.0873087 0.08726272 0.08721288
 0.08716181 0.08713754 0.08723313 0.08753644 0.08799975 0.08845111 0.08875076 0.08889791 0.08898492 0.08904101
 0.08891326 0.08840422 0.08759757 0.08687278 0.08642276 0.08592822 0.08496425 0.0836312 0.08252661 0.08211321
 0.08230761 0.08267751 0.08285727 0.08274367 0.08247985 0.0823686 0.08266475 0.08328243 0.0837767 0.08376204
</values></Ydata></ScRf><Data_Parameters_AB><parameter name="DPF">1</parameter><parameter name="NPT">3497</parameter><parameter name="FXV">3996</parameter><parameter name="LXV">500</parameter><parameter name="CSF">1</parameter><parameter name="MXY">0.232286185026169</parameter><parameter name="MNY">-0.00166807195637375</parameter><parameter name="DAT">27/05/2022</parameter><parameter name="TIM">12:06:14.141 (GMT+2)</parameter><parameter name="DXU">WN</parameter></Data_Parameters_AB><AB__Qtest><MainReport name="Quality Test Report"><Header><Line><Legend>Test result ok/not ok [1/0]: </Legend><Value>0</Value></Line><Line><Legend>Method file: </Legend><Value>C:\Users\Public\Documents\Bruker\OPUS_8.2.28\QT\IRBT_v3_default.QT</Value></Line></Header><Matrix><Line><Legend></Legend><Legend>min</Legend><Legend>max</Legend><Legend>measured</Legend></Line><Line><Value>Absorption (X-Range 1):</Value><Value>0.400000</Value><Value>2.000000</Value><Value>0.159667</Value></Line><Line><Value>Noise (X-Range 4):</Value><Value></Value><Value>0.000300</Value><Value>0.000113</Value></Line><Line><Value>Signal/Noise (X-Range 2):</Value><Value>200.000000</Value><Value></Value><Value>19.660643</Value></Line><Line><Value>Signal/Noise (X-Range 3):</Value><Value>40.000000</Value><Value></Value><Value>20.346052</Value></Line><Line><Value>Water vapour (X-Range 5):</Value><Value></Value><Value>0.000300</Value><Value>0.000125</Value></Line><Line><Value>Signal/Water (X-Range 2):</Value><Value>100.000000</Value><Value></Value><Value>17.829497</Value></Line><Line><Value>Signal/Water (X-Range 3):</Value><Value>20.000000</Value><Value></Value><Value>18.451069</Value></Line><Line><Value>Fringes (X-Range 6):</Value><Value></Value><Value>0.000100</Value><Value>0.000086</Value></Line></Matrix></MainReport></AB__Qtest><Data_Parameters_ScSm><parameter name="DPF">1</parameter><parameter name="NPT">1814</parameter><parameter name="FXV">3996.33169228125</parameter><parameter name="LXV">499.541461535156</parameter><parameter name="CSF">1</parameter><parameter name="MXY">0.222219482064247</parameter><parameter name="MNY">0.0277416221797466</parameter><parameter name="DAT">27/05/2022</parameter><parameter name="TIM">12:06:14.141 (GMT+2)</parameter><parameter name="DXU">WN</parameter></Data_Parameters_ScSm><Data_Parameters_ScRf><parameter name="DPF">1</parameter><parameter name="NPT">1820</parameter><parameter name="FXV">4004.04661832813</parameter><parameter name="LXV">495.683998511719</parameter><parameter name="CSF">1</parameter><parameter name="MXY">0.264351338148117</parameter><parameter name="MNY">0.0284052938222885</parameter><parameter name="DAT">27/05/2022</parameter><parameter name="TIM">12:05:46.805 (GMT+2)</parameter><parameter name="DXU">WN</parameter></Data_Parameters_ScRf><Optic_Parameters_Rf><parameter name="APR">0</parameter><parameter name="APT">Open</parameter><parameter name="BMS">KBr</parameter><parameter name="DTC">RT-DLaTGS_IR-Biotyper [Microplate reader]</parameter><parameter name="HPF">0</parameter><parameter name="LPF">10.0</parameter><parameter name="LPV">4000</parameter><parameter name="PGR">0</parameter><parameter name="RCH">Module port</parameter><parameter name="RDX">0</parameter><parameter name="SRC">MIR</parameter><parameter name="VEL">10.0</parameter><parameter name="SON">Off</parameter></Optic_Parameters_Rf><Acquisition_Parameters_Rf><parameter name="ADT">1</parameter><parameter name="AQM">DD</parameter><parameter name="CFE">0</parameter><parameter name="COR">0</parameter><parameter name="DEL">0</parameter><parameter name="DLY">0</parameter><parameter name="HFW">8000</parameter><parameter name="LFW">0</parameter><parameter name="NSR">32</parameter><parameter name="PLF">AB</parameter><parameter name="RES">6</parameter><parameter name="RGN">-1</parameter><parameter name="STR">0</parameter><parameter name="TCL">MakeCompatibleScalar (0, {WSV=1.000000, ARV=0});</parameter><parameter name="TDL">37</parameter><parameter name="RPO">0</parameter></Acquisition_Parameters_Rf><FT_-_Parameters_Rf><parameter name="APF">B3</parameter><parameter name="HFQ">500</parameter><parameter name="LFQ">4000</parameter><parameter name="NLI">0</parameter><parameter name="PHR">24</parameter><parameter name="PHZ">ML</parameter><parameter name="SPZ">NO</parameter><parameter name="ZFF">1</parameter></FT_-_Parameters_Rf><Optic_Parameters_><parameter name="APR">0</parameter><parameter name="APT">Open</parameter><parameter name="BMS">KBr</parameter><parameter name="CHN">Module port</parameter><parameter name="DTC">RT-DLaTGS_IR-Biotyper [Microplate reader]</parameter><parameter name="HPF">0</parameter><parameter name="LPF">10.0</parameter><parameter name="LPV">4000</parameter><parameter name="PGN">0</parameter><parameter name="RDX">0</parameter><parameter name="SRC">MIR</parameter><parameter name="VEL">10.0</parameter><parameter name="SON">Off</parameter></Optic_Parameters_><FT_-_Parameters_><parameter name="APF">B3</parameter><parameter name="HFQ">500</parameter><parameter name="LFQ">4000</parameter><parameter name="NLI">0</parameter><parameter name="PHR">24</parameter><parameter name="PHZ">ML</parameter><parameter name="SPZ">NO</parameter><parameter name="ZFF">1</parameter></FT_-_Parameters_><Acquisition_Parameters_><parameter name="ADT">1</parameter><parameter name="AQM">DD</parameter><parameter name="CFE">0</parameter><parameter name="COR">0</parameter><parameter name="DEL">0</parameter><parameter name="DLY">0</parameter><parameter name="HFW">8000</parameter><parameter name="LFW">0</parameter><parameter name="NSS">32</parameter><parameter name="PLF">AB</parameter><parameter name="RES">6</parameter><parameter name="SOT">0</parameter><parameter name="TCL">MakeCompatibleScalar (0, {WSV=1.000000, ARV=0});</parameter><parameter name="TDL">37</parameter><parameter name="SPO">0</parameter><parameter name="SGN">-1</parameter></Acquisition_Parameters_><Instrument_Parameters_Rf><parameter name="HFL">15800.168544</parameter><parameter name="LFL">0</parameter><parameter name="LWN">15800.168544</parameter><parameter name="ABP">32197</parameter><parameter name="SSP">1</parameter><parameter name="ARG">2</parameter><parameter name="ASG">2</parameter><parameter name="ASS">32</parameter><parameter name="GFW">16</parameter><parameter name="GBW">16</parameter><parameter name="BFW">0</parameter><parameter name="BBW">0</parameter><parameter name="PKA">7265</parameter><parameter name="PKL">4996</parameter><parameter name="PRA">7449</parameter><parameter name="PRL">5001</parameter><parameter name="P2A">1</parameter><parameter name="P2L">1</parameter><parameter name="P2R">1</parameter><parameter name="P2K">1</parameter><parameter name="DAQ">0</parameter><parameter name="AG2">1</parameter><parameter name="SSM">1</parameter><parameter name="RSN">24932</parameter><parameter name="CRR">0</parameter><parameter name="SRT">1653653146.806</parameter><parameter name="DUR">19.635986328125</parameter><parameter name="TSC">27.9</parameter><parameter name="MVD">3.58164548873901</parameter><parameter name="AN1">0.225813536307774</parameter><parameter name="AN2">0</parameter><parameter name="VSN">2.485 Apr  4 2017</parameter><parameter name="SRN">0085</parameter><parameter name="CAM">0</parameter><parameter name="INS">IR-Biotyper</parameter><parameter name="FOC">69</parameter><parameter name="RDY">1</parameter><parameter name="ARS">32</parameter></Instrument_Parameters_Rf><Sample_Parameters_><parameter name="BLD"></parameter><parameter name="CNM">Admin</parameter><parameter name="CPY"></parameter><parameter name="DPM"></parameter><parameter name="EXP">IRBT_v3_32Scans.XPM</parameter><parameter name="LCT"></parameter><parameter name="SFM">Microplate, HTS-XT</parameter><parameter name="SNM">220527-1039(v.2)_CLA33F (D_6)_B9_ba88dac8-6c2c-475b-81c5-ff01cc1d4620.0</parameter><parameter name="XPP">C:\Users\Public\Documents\Bruker\OPUS_8.2.28\XPM</parameter><parameter name="IST">OK</parameter><parameter name="CPG">1252</parameter><parameter name="UID">557bc1c8-2021-468b-930e-3fed9fc1abd4</parameter></Sample_Parameters_><Instrument_Parameters_><parameter name="HFL">15800.168544</parameter><parameter name="LFL">0</parameter><parameter name="LWN">15800.168544</parameter><parameter name="ABP">32197</parameter><parameter name="SSP">1</parameter><parameter name="ASG">4</parameter><parameter name="ARG">2</parameter><parameter name="ASS">32</parameter><parameter name="GFW">16</parameter><parameter name="GBW">16</parameter><parameter name="BFW">0</parameter><parameter name="BBW">0</parameter><parameter name="PKA">5973</parameter><parameter name="PKL">4988</parameter><parameter name="PRA">6259</parameter><parameter name="PRL">4993</parameter><parameter name="P2A">1</parameter><parameter name="P2L">1</parameter><parameter name="P2R">1</parameter><parameter name="P2K">1</parameter><parameter name="DAQ">0</parameter><parameter name="AG2">1</parameter><parameter name="SSM">1</parameter><parameter name="RSN">13092</parameter><parameter name="CRR">0</parameter><parameter name="SRT">1653653174.141</parameter><parameter name="DUR">19.635986328125</parameter><parameter name="TSC">27.9</parameter><parameter name="MVD">0.424194246530533</parameter><parameter name="AN1">0.225807724159128</parameter><parameter name="AN2">0</parameter><parameter name="VSN">2.485 Apr  4 2017</parameter><parameter name="SRN">0085</parameter><parameter name="CAM">0</parameter><parameter name="INS">IR-Biotyper</parameter><parameter name="FOC">69</parameter><parameter name="RDY">1</parameter></Instrument_Parameters_><History/></OPUSDataFile>
