<?xml version="1.0" encoding="UTF-8" ?>
<OPUSDataFile><AB><Ydata ylabel="Absorbance Units"><values byteorder="INTEL" format="FLOAT32" numvalues="3497"> -0.05183235 -0.05186036 -0.05189862 -0.05194817 -0.05199387 -0.05203494 -0.05205777 -0.05206265 -0.05204845 -0.05201815
 -0.05198831 -0.05196158 -0.05195824 -0.05197352 -0.0520088 -0.05205259 -0.05208612 -0.05210412 -0.05209007 -0.05205352
 -0.051995 -0.0519284 -0.05186262 -0.05180093 -0.05174714 -0.05169811 -0.05165266 -0.05161416 -0.05158232 -0.0515657
 -0.05156556 -0.05158079 -0.05161139 -0.05164309 -0.0516752 -0.05169436 -0.05170202 -0.05169913 -0.05168912 -0.05168474
 -0.05168784 -0.05171058 -0.05174937 -0.05180607 -0.05187063 -0.05193366 -0.05198414 -0.05200893 -0.05200708 -0.0519718
 -0.05191553 -0.05184003 -0.05176067 -0.05168189 -0.05161113 -0.05155053 -0.05150088 -0.05146237 -0.05143622 -0.05142247
 -0.05142261 -0.05143642 -0.05146158 -0.05149721 -0.051537 -0.0515799 -0.05161878 -0.05165324 -0.0516784 -0.0516955
 -0.05170356 -0.05170633 -0.05170759 -0.05171031 -0.05171949 -0.05173163 -0.05174801 -0.05175827 -0.05175914 -0.05174208
 -0.0517027 -0.05164553 -0.0515686 -0.05149249 -0.05141808 -0.05137378 -0.05136126 -0.05139986 -0.05148853 -0.05161932
 -0.05178585 -0.05194609 -0.05209314 -0.05217522 -0.0521994 -0.0521521 -0.05205436 -0.05193558 -0.0518098 -0.05170691
 -0.05162614 -0.05157862 -0.0515532 -0.05154823 -0.051549 -0.05154851 -0.05154247 -0.05152594 -0.05151269 -0.05150346
 -0.05151607 -0.05155358 -0.05161149 -0.05168987 -0.05175716 -0.05181204 -0.05182783 -0.05180774 -0.0517571 -0.05168257
 -0.0516115 -0.05154784 -0.05151632 -0.05151368 -0.05154807 -0.05160798 -0.05168525 -0.05176439 -0.05183077 -0.05187319
 -0.05187917 -0.05185267 -0.05178759 -0.05171073 -0.0516253 -0.05156475 -0.05153616 -0.05155338 -0.0516208 -0.05171641
 -0.05183955 -0.05192148 -0.0519601 -0.05190618 -0.05177102 -0.05160407 -0.05141467 -0.05126645 -0.05115483 -0.05110091
 -0.05109546 -0.05113497 -0.05120487 -0.05128919 -0.05137008 -0.05142677 -0.05145242 -0.05143351 -0.05138462 -0.05130616
 -0.05122006 -0.0511325 -0.05105505 -0.05099069 -0.05094396 -0.05091542 -0.05091049 -0.05092954 -0.05097521 -0.05104694
 -0.05113705 -0.05124276 -0.05134311 -0.05143453 -0.05149075 -0.05151344 -0.05149077 -0.05143271 -0.05135002 -0.05125353
 -0.05116107 -0.05107689 -0.05101119 -0.05096185 -0.05093139 -0.05091317 -0.05090587 -0.05090156 -0.05089745 -0.05089114
 -0.0508811 -0.05087249 -0.05086614 -0.05086087 -0.05085681 -0.05084092 -0.05081298 -0.05076712 -0.05070553 -0.05064006
 -0.05057265 -0.05051797 -0.05047448 -0.05044601 -0.05042956 -0.05042187 -0.05042024 -0.05042052 -0.05041999 -0.05041507
 -0.05040412 -0.05038474 -0.05035819 -0.05032374 -0.0502856 -0.05024427 -0.0502055 -0.05017024 -0.05014335 -0.05012577
 -0.05011682 -0.05011663 -0.05011801 -0.05012063 -0.05011756 -0.05010959 -0.05009826 -0.05008512 -0.05007773 -0.05007561
 -0.05008195 -0.05009422 -0.05010926 -0.05012561 -0.0501388 -0.05015266 -0.05016626 -0.05019191 -0.05023585 -0.05030899
 -0.05042162 -0.05056014 -0.05072948 -0.05088149 -0.05100926 -0.05107232 -0.05106224 -0.0509962 -0.05087443 -0.05073411
 -0.0505761 -0.0504139 -0.05024863 -0.05009365 -0.04995266 -0.0498491 -0.04978267 -0.04976762 -0.0497942 -0.0498557
 -0.04993277 -0.04999728 -0.05004108 -0.0500418 -0.05001741 -0.04997108 -0.04992248 -0.04988333 -0.04985221 -0.04983437
 -0.04980719 -0.04976739 -0.04969767 -0.04959336 -0.04947294 -0.0493368 -0.04922705 -0.04914512 -0.04911776 -0.04914222
 -0.04921472 -0.04932718 -0.04944766 -0.04956547 -0.04963282 -0.04965325 -0.04960531 -0.04951203 -0.04939487 -0.04926812
 -0.04915475 -0.04905036 -0.04895969 -0.04887275 -0.04878534 -0.0486955 -0.04860016 -0.04850864 -0.04842185 -0.04834928
 -0.04829299 -0.04824859 -0.04821629 -0.04817403 -0.04812083 -0.04803628 -0.04792368 -0.04779651 -0.04766072 -0.04754956
 -0.04746221 -0.04741374 -0.04739989 -0.04742099 -0.04747028 -0.04754402 -0.04762313 -0.04769393 -0.0477294 -0.04770508
 -0.04762174 -0.04746699 -0.04727714 -0.04706073 -0.04683995 -0.04662245 -0.04640321 -0.04618234 -0.04595592 -0.04572357
 -0.04548805 -0.04524969 -0.04501386 -0.0447822 -0.04456886 -0.04437627 -0.04422376 -0.04410883 -0.04403709 -0.04399922
 -0.0439808 -0.0439745 -0.04396591 -0.04394891 -0.04391687 -0.04385493 -0.04375147 -0.04360032 -0.04338958 -0.04314634
 -0.04287434 -0.04260256 -0.04233843 -0.04208908 -0.04185659 -0.04163842 -0.0414344 -0.04124652 -0.04107527 -0.04093136
 -0.04081468 -0.04073261 -0.04067872 -0.04063416 -0.04058357 -0.04047206 -0.04029781 -0.04001986 -0.03967545 -0.03929485
 -0.0389126 -0.0385765 -0.03828462 -0.03805237 -0.0378601 -0.0377051 -0.03756332 -0.03742821 -0.03728001 -0.03711313
 -0.03692226 -0.03670565 -0.03646732 -0.03620744 -0.03592913 -0.03563275 -0.03532455 -0.03500609 -0.03469242 -0.03438471
 -0.0340968 -0.03382695 -0.03357761 -0.0333464 -0.03313055 -0.03292692 -0.03273171 -0.03253875 -0.03234119 -0.03213502
 -0.03191397 -0.03168327 -0.03144389 -0.03119957 -0.03095395 -0.03069656 -0.03042585 -0.03013395 -0.02981747 -0.02949692
 -0.02917305 -0.02887721 -0.02861005 -0.02837897 -0.02818138 -0.0280009 -0.02783415 -0.02765767 -0.02747067 -0.02725675
 -0.02702215 -0.02676908 -0.02650839 -0.0262565 -0.02601722 -0.02580369 -0.02560355 -0.02541553 -0.02521935 -0.02500374
 -0.02476499 -0.02449654 -0.02421562 -0.02392402 -0.02363854 -0.02336217 -0.02309773 -0.02284597 -0.02259694 -0.02235007
 -0.0220933 -0.02182702 -0.02154858 -0.02125949 -0.02096503 -0.020666 -0.02036698 -0.02006895 -0.01977511 -0.01948827
 -0.0192139 -0.01895268 -0.0187088 -0.01847658 -0.01825426 -0.01803506 -0.01781451 -0.01759321 -0.01736903 -0.01715094
 -0.01694025 -0.01674462 -0.01656633 -0.01639819 -0.0162404 -0.01606963 -0.01588483 -0.01566623 -0.01541582 -0.01514033
 -0.01484453 -0.01455432 -0.01427025 -0.01400876 -0.01376433 -0.01353347 -0.01331248 -0.01309291 -0.01287872 -0.01266987
 -0.01247264 -0.01229274 -0.01212821 -0.01198225 -0.01184115 -0.01170259 -0.01155087 -0.01138183 -0.01119024 -0.01097409
 -0.01073986 -0.01048766 -0.01022882 -0.00996396 -0.009704337 -0.009450542 -0.009212849 -0.008990859 -0.008789135 -0.008605123
 -0.008434501 -0.008273523 -0.008112215 -0.007949843 -0.007780218 -0.007606948 -0.007431342 -0.007256305 -0.007085588 -0.006915496
 -0.006745717 -0.006571183 -0.006388674 -0.006203192 -0.006014114 -0.005833509 -0.005663656 -0.005504984 -0.005358363 -0.005205489
 -0.005045344 -0.004856492 -0.004639706 -0.004390909 -0.004114801 -0.003829549 -0.003541616 -0.003280106 -0.003046568 -0.002860988
 -0.002713789 -0.002602206 -0.002511209 -0.002423842 -0.002335249 -0.002235551 -0.002130195 -0.002020956 -0.001905965 -0.001786642
 -0.001652621 -0.001500557 -0.001332599 -0.001147013 -0.0009628196 -0.0007813219 -0.0006170021 -0.0004701883 -0.0003390681 -0.0002224806
 -0.0001100656 -9.922341E-08 0.0001204814 0.0002534231 0.0004122927 0.0005940041 0.0008017758 0.001024302 0.001248026 0.001461821
 0.001648095 0.001807061 0.001931816 0.002031629 0.002108813 0.002171574 0.002222775 0.002267865 0.002307476 0.002350668
 0.002398101 0.002461859 0.002543021 0.002647969 0.002776759 0.002924472 0.003089898 0.003260386 0.003434546 0.003599278
 0.003753719 0.003888393 0.004003372 0.004093114 0.004161275 0.00420795 0.004244403 0.004279572 0.004328384 0.004405503
 0.004512804 0.004659935 0.004824056 0.005002393 0.005165271 0.005304075 0.005412335 0.005486103 0.005543869 0.005586824
 0.005628632 0.005669528 0.005700849 0.005721972 0.005721862 0.005703736 0.005677099 0.005646358 0.005632007 0.005631339
 0.005650407 0.005680464 0.005710204 0.005736992 0.005750946 0.005761987 0.005772423 0.005795683 0.005839515 0.005908635
 0.006007458 0.006131014 0.006280364 0.006442789 0.006618205 0.006783762 0.006938038 0.007055244 0.007134423 0.007169253
 0.007162293 0.007135623 0.00709223 0.007059581 0.007035926 0.007030058 0.007039156 0.00706014 0.007094765 0.00714521
 0.007210508 0.007294519 0.007383109 0.007469865 0.007536808 0.007571041 0.007573147 0.007536143 0.00748541 0.007423656
 0.007379915 0.007359998 0.007369084 0.007409293 0.007456603 0.007509695 0.0075382 0.007542672 0.007515501 0.007461654
 0.007401819 0.007340371 0.007303561 0.007288561 0.007303994 0.007340586 0.007388705 0.007440386 0.007482829 0.007515464
 0.007532662 0.007540577 0.007540295 0.007538642 0.007537857 0.007543101 0.007555217 0.007581024 0.007620928 0.007685491
 0.007775686 0.007898147 0.008052994 0.008232852 0.008435695 0.00863893 0.008839637 0.009010754 0.00915172 0.00924481
 0.009295146 0.009302949 0.009278616 0.009236794 0.009187237 0.009146408 0.009116141 0.009104555 0.009104331 0.009115596
 0.009125539 0.009130642 0.009119011 0.009086751 0.00903075 0.008948722 0.00885191 0.008740702 0.008631123 0.008523876
 0.008423837 0.008330448 0.008238481 0.008148939 0.008063251 0.007985282 0.007929189 0.007895659 0.007896489 0.007921747
 0.007965131 0.008008078 0.008029523 0.008015244 0.007945559 0.007824393 0.007644398 0.007428817 0.007181584 0.006930612
 0.006682965 0.006455169 0.006251298 0.006073405 0.005922416 0.005791382 0.005679888 0.005575594 0.005477738 0.005373132
 0.005262638 0.005143218 0.005017636 0.004894302 0.004772896 0.004658679 0.004545521 0.004426057 0.004296416 0.004146371
 0.003985086 0.003812817 0.003648496 0.003501417 0.003384787 0.003307495 0.003264837 0.003260435 0.003270109 0.003292817
 0.003293641 0.003269459 0.003195235 0.003069835 0.0028976 0.00268145 0.002454675 0.002220917 0.002018295 0.00184521
 0.001718806 0.001630294 0.001570254 0.001527312 0.001479725 0.001421139 0.001334649 0.001224587 0.001086415 0.0009338467
 0.0007710289 0.0006140904 0.0004696884 0.0003465606 0.0002494406 0.0001731368 0.0001188029 7.030058E-05 2.638339E-05 -2.592624E-05
 -8.729372E-05 -0.0001602235 -0.0002447006 -0.0003410397 -0.0004498532 -0.0005758973 -0.0007176822 -0.0008746338 -0.001040713 -0.001202059
 -0.001354321 -0.001482345 -0.001591241 -0.001678836 -0.00175673 -0.00183277 -0.001915298 -0.002011252 -0.002122122 -0.002250752
 -0.002392862 -0.002549075 -0.002709281 -0.002872734 -0.003026426 -0.003168912 -0.003294612 -0.003403239 -0.003500946 -0.003588288
 -0.003673932 -0.003757558 -0.003841342 -0.003925385 -0.004009923 -0.004098109 -0.004197049 -0.004309724 -0.004446008 -0.004601318
 -0.004776965 -0.004960394 -0.005143549 -0.005314465 -0.005464585 -0.005588597 -0.005681914 -0.005746591 -0.005780004 -0.005797698
 -0.005799071 -0.005817395 -0.005855265 -0.005943937 -0.006085064 -0.006274149 -0.006507651 -0.006741001 -0.006970364 -0.007148397
 -0.007280065 -0.007353928 -0.007384493 -0.007397927 -0.007408572 -0.007453082 -0.007532075 -0.007665087 -0.007832956 -0.008030593
 -0.008231131 -0.008417056 -0.008580127 -0.008709674 -0.0088226 -0.008921113 -0.009019209 -0.009122186 -0.009214968 -0.009297657
 -0.009340868 -0.009343049 -0.009298254 -0.00920917 -0.009107278 -0.008997649 -0.008926767 -0.008894736 -0.008929655 -0.009021681
 -0.009164599 -0.009342704 -0.009527237 -0.009710288 -0.009869001 -0.01001064 -0.01013288 -0.01024566 -0.01035653 -0.01046078
 -0.01055945 -0.01064239 -0.01070454 -0.01075516 -0.01079314 -0.01084248 -0.01090625 -0.01098841 -0.01108933 -0.01118072
 -0.01126121 -0.01130335 -0.01131073 -0.01128933 -0.011246 -0.01120932 -0.01118063 -0.01117921 -0.01119831 -0.01123582
 -0.01128447 -0.01133364 -0.01138371 -0.01142952 -0.01147982 -0.01153725 -0.01161103 -0.01170714 -0.01182177 -0.01195823
 -0.01209405 -0.01222717 -0.01233231 -0.01240562 -0.01244747 -0.01245764 -0.0124693 -0.01248449 -0.01254014 -0.01263384
 -0.01277213 -0.01294668 -0.01313161 -0.01331988 -0.01348023 -0.0136142 -0.01370837 -0.01377235 -0.01381066 -0.01383533
 -0.01385697 -0.01388424 -0.01392574 -0.01398124 -0.01405486 -0.01413419 -0.01421848 -0.01428908 -0.01434209 -0.014371
 -0.01437333 -0.01436669 -0.0143519 -0.01435515 -0.01437644 -0.01442204 -0.01448862 -0.01455841 -0.01462972 -0.01468567
 -0.01472995 -0.01476364 -0.01478929 -0.01481418 -0.01483227 -0.01484091 -0.01483021 -0.01479035 -0.01471864 -0.01460972
 -0.01446841 -0.014296 -0.01409379 -0.01386367 -0.0135982 -0.01329602 -0.01295383 -0.0125693 -0.01216522 -0.01174254
 -0.01135309 -0.01099983 -0.01073613 -0.01056076 -0.0104952 -0.01053144 -0.01065316 -0.01085009 -0.01108973 -0.01136495
 -0.01164965 -0.01194031 -0.01222343 -0.01249645 -0.01275395 -0.01299209 -0.01320804 -0.01339714 -0.01355682 -0.01368534
 -0.01378113 -0.01384734 -0.01388415 -0.01389532 -0.01388179 -0.0138389 -0.01376655 -0.01364906 -0.01348557 -0.01325928
 -0.01297171 -0.01262212 -0.01221655 -0.0117763 -0.01130786 -0.01083928 -0.01037012 -0.009914105 -0.009463393 -0.009014218
 -0.008559364 -0.008090855 -0.007607264 -0.00710536 -0.006586499 -0.006049952 -0.005499344 -0.004933542 -0.004365561 -0.003795353
 -0.003247624 -0.002724152 -0.002252088 -0.001833177 -0.001484399 -0.001205686 -0.0009984031 -0.0008604733 -0.0007802238 -0.0007542265
 -0.0007646746 -0.0008066964 -0.0008610666 -0.0009204575 -0.0009646576 -0.0009866072 -0.000969313 -0.0009115032 -0.0008054201 -0.000655953
 -0.0004641057 -0.0002329705 3.536863E-05 0.00034218 0.0006879363 0.001071187 0.001492727 0.001944278 0.002425699 0.00292345
 0.003436864 0.003944702 0.004445152 0.004906977 0.005328481 0.005681362 0.005968396 0.006183259 0.006333673 0.006436026
 0.006495673 0.006532582 0.006539765 0.006521784 0.006455639 0.006327908 0.006107899 0.005774126 0.00530912 0.004695615
 0.003950458 0.003067572 0.002101723 0.00105676 5.9329E-06 -0.001043432 -0.002031185 -0.002952939 -0.003784031 -0.004524996
 -0.005184414 -0.005764813 -0.00628676 -0.006751945 -0.007176617 -0.007563429 -0.00792582 -0.008269095 -0.008608714 -0.008947772
 -0.009298106 -0.009654519 -0.01001855 -0.01037859 -0.01072909 -0.01105925 -0.01136361 -0.01163577 -0.01187277 -0.01207268
 -0.01223425 -0.01236048 -0.0124516 -0.0125101 -0.01253631 -0.01252269 -0.01246872 -0.01236278 -0.01220732 -0.01201079
 -0.01178159 -0.01155739 -0.01134491 -0.01118459 -0.01106861 -0.01100674 -0.01097545 -0.01095174 -0.01091116 -0.01082349
 -0.01068018 -0.0104642 -0.0101883 -0.009850376 -0.009476485 -0.009071345 -0.00866292 -0.008255903 -0.00787408 -0.007519459
 -0.00721859 -0.006972712 -0.006827663 -0.006787089 -0.0069185 -0.007223864 -0.007756055 -0.008502359 -0.009448794 -0.01056319
 -0.01175858 -0.01300182 -0.0141902 -0.01531614 -0.01632377 -0.01723355 -0.01804289 -0.01877668 -0.01945081 -0.02007492
 -0.02065732 -0.02119796 -0.02169764 -0.02215867 -0.02258113 -0.02296986 -0.02332525 -0.02365229 -0.02395125 -0.02422963
 -0.02448796 -0.02473624 -0.02497449 -0.02520806 -0.02543562 -0.02565462 -0.02586377 -0.02605789 -0.02623763 -0.02640107
 -0.02655115 -0.02669013 -0.02682243 -0.02695249 -0.02708387 -0.02722083 -0.02736193 -0.02750909 -0.02765384 -0.02779504
 -0.02792195 -0.02803191 -0.02812159 -0.02818947 -0.02824378 -0.02828481 -0.02832555 -0.02836645 -0.02841502 -0.02847058
 -0.02853158 -0.028597 -0.02866157 -0.02872542 -0.02878574 -0.02884432 -0.02890294 -0.02896374 -0.02903051 -0.02910362
 -0.02918564 -0.02927313 -0.02936597 -0.02945678 -0.02954296 -0.02961751 -0.02967693 -0.02972264 -0.0297529 -0.0297801
 -0.02980525 -0.0298402 -0.0298861 -0.02994071 -0.03000351 -0.03006207 -0.03011646 -0.03016096 -0.0301979 -0.03023452
 -0.03027203 -0.03031862 -0.03037147 -0.03043002 -0.03048923 -0.03054218 -0.0305861 -0.03061551 -0.03063131 -0.03063185
 -0.03062092 -0.03059905 -0.03057195 -0.03054069 -0.03051243 -0.03048824 -0.03047576 -0.03047616 -0.03049285 -0.0305263
 -0.03057238 -0.03063066 -0.03069198 -0.03075584 -0.03081414 -0.03086687 -0.0309095 -0.0309424 -0.03096363 -0.03097511
 -0.03097895 -0.03097834 -0.03097864 -0.03098097 -0.03098889 -0.0310002 -0.03101416 -0.03103033 -0.03104718 -0.03106952
 -0.03109845 -0.03113759 -0.03118879 -0.03124729 -0.03131336 -0.03137635 -0.03143555 -0.03148345 -0.03151991 -0.03154371
 -0.03155548 -0.03155925 -0.03155626 -0.03155374 -0.03155304 -0.03156205 -0.03158035 -0.03161193 -0.03165291 -0.03170059
 -0.03174939 -0.031793 -0.03182882 -0.03185224 -0.03186668 -0.03187172 -0.03187389 -0.03187488 -0.03187971 -0.03188994
 -0.03190623 -0.03192899 -0.03195639 -0.03198833 -0.03202307 -0.03206047 -0.03209854 -0.03213657 -0.03216832 -0.03219255
 -0.03219936 -0.03219019 -0.03216195 -0.03212161 -0.03208047 -0.03204558 -0.03203336 -0.03204056 -0.03207291 -0.03211624
 -0.03216362 -0.03220319 -0.0322261 -0.03223428 -0.03222488 -0.03220981 -0.03219068 -0.03217785 -0.03217306 -0.03217974
 -0.03219838 -0.03222754 -0.03226707 -0.0323129 -0.03236447 -0.03241538 -0.03246493 -0.03250603 -0.03253937 -0.03256243
 -0.03257832 -0.03259178 -0.03260546 -0.03262608 -0.03265146 -0.03268273 -0.03271488 -0.03274442 -0.03277 -0.03278917
 -0.03280595 -0.0328212 -0.03283755 -0.03285632 -0.03287448 -0.03289192 -0.03290495 -0.03291317 -0.0329174 -0.03291776
 -0.03291851 -0.0329196 -0.03292263 -0.03292706 -0.03293104 -0.03293503 -0.03293881 -0.03294469 -0.03295732 -0.03297789
 -0.03301138 -0.03305385 -0.03310466 -0.0331561 -0.03320279 -0.03324027 -0.03326377 -0.03327746 -0.03328056 -0.03328262
 -0.03328566 -0.03329488 -0.03331199 -0.03333133 -0.03335279 -0.0333662 -0.03337133 -0.03336692 -0.03335405 -0.03334184
 -0.03333077 -0.03332861 -0.03333321 -0.03334239 -0.03335375 -0.03336076 -0.03336411 -0.03336151 -0.03335578 -0.03334889
 -0.03334278 -0.0333395 -0.0333394 -0.03334307 -0.03335055 -0.03336201 -0.03337718 -0.03339632 -0.03341727 -0.03344006
 -0.03346044 -0.03347808 -0.03349001 -0.0334962 -0.03349856 -0.03349765 -0.03349949 -0.03350408 -0.03351537 -0.03353159
 -0.0335499 -0.03356801 -0.03357935 -0.03358411 -0.03357874 -0.03356723 -0.0335517 -0.03353697 -0.03352751 -0.03352397
 -0.03352887 -0.03353709 -0.03354792 -0.0335555 -0.03355801 -0.03355495 -0.03354548 -0.03353526 -0.03352456 -0.03352046
 -0.03352322 -0.03353559 -0.033557 -0.03358368 -0.03361448 -0.03364185 -0.03366524 -0.03367856 -0.0336829 -0.03367698
 -0.03366341 -0.03364505 -0.03362473 -0.03360646 -0.03359131 -0.0335818 -0.03357599 -0.03357404 -0.03357223 -0.03356904
 -0.03356381 -0.03355547 -0.03354837 -0.03354277 -0.03354382 -0.03355214 -0.03356746 -0.03358958 -0.03361047 -0.03362946
 -0.03363658 -0.03363256 -0.03361474 -0.03358627 -0.03355486 -0.03352393 -0.03350498 -0.03349777 -0.03350794 -0.03353095
 -0.03356483 -0.03360416 -0.03364441 -0.03368301 -0.03371743 -0.03374761 -0.03377321 -0.03379376 -0.03380943 -0.03381766
 -0.03381813 -0.03380911 -0.03379027 -0.03376411 -0.03373087 -0.03369775 -0.03366514 -0.03363981 -0.03362124 -0.03361075
 -0.03360682 -0.0336055 -0.03360585 -0.03360352 -0.03359972 -0.03359406 -0.03358886 -0.03358678 -0.03358784 -0.03359342
 -0.03360109 -0.03360965 -0.03361874 -0.03362723 -0.03363899 -0.03365484 -0.03367654 -0.03370525 -0.0337341 -0.03376287
 -0.03378137 -0.0337892 -0.0337837 -0.03376574 -0.03374298 -0.03371637 -0.03369534 -0.03367881 -0.03366882 -0.03366249
 -0.03365428 -0.03364321 -0.03362406 -0.03360095 -0.03357518 -0.03355343 -0.0335415 -0.03354111 -0.03355626 -0.03357994
 -0.03361171 -0.03364106 -0.03366541 -0.03367921 -0.03368081 -0.03367217 -0.03365311 -0.03362969 -0.03360222 -0.0335762
 -0.03355171 -0.03353195 -0.03351661 -0.03350626 -0.03350001 -0.03349539 -0.03349167 -0.03348548 -0.03347827 -0.03347011
 -0.0334643 -0.03346491 -0.0334722 -0.03348921 -0.03350976 -0.03353246 -0.03354924 -0.03355646 -0.03355226 -0.03353451
 -0.03350963 -0.03347772 -0.03344874 -0.03342364 -0.03340811 -0.03340233 -0.03340296 -0.03340915 -0.033411 -0.03340811
 -0.03339269 -0.03336633 -0.03332935 -0.03328499 -0.03324011 -0.03319771 -0.03316572 -0.03314427 -0.03313769 -0.03314127
 -0.03315381 -0.03316857 -0.03318136 -0.03319025 -0.03319274 -0.03319321 -0.03319222 -0.03319333 -0.03319759 -0.03320313
 -0.03321004 -0.03321343 -0.03321307 -0.03320607 -0.03319271 -0.03317461 -0.03315311 -0.03313572 -0.03312431 -0.03312934
 -0.03315074 -0.0331945 -0.03325689 -0.03333544 -0.03342529 -0.03351916 -0.03361787 -0.03371717 -0.03382776 -0.0339527
 -0.03410468 -0.03429133 -0.03450778 -0.03475772 -0.03501448 -0.03527448 -0.03551894 -0.03574393 -0.03597343 -0.03620868
 -0.03648816 -0.03680854 -0.03714998 -0.03749795 -0.0377626 -0.03793484 -0.0379307 -0.0377652 -0.03741999 -0.03693974
 -0.0363783 -0.03578873 -0.03525153 -0.03478615 -0.03443588 -0.03418946 -0.03405284 -0.03400944 -0.03405657 -0.03417467
 -0.03436369 -0.03458239 -0.03482852 -0.03503992 -0.03521039 -0.0353049 -0.03532168 -0.03527172 -0.03515758 -0.03500991
 -0.03483294 -0.0346659 -0.03451048 -0.03439648 -0.03431531 -0.03426443 -0.03423009 -0.03418802 -0.03413422 -0.03405267
 -0.03395132 -0.03383005 -0.03369991 -0.03356673 -0.03343688 -0.03331435 -0.03319952 -0.03309314 -0.03299461 -0.03290366
 -0.03282226 -0.03275066 -0.03268882 -0.0326367 -0.03258729 -0.03254016 -0.0324876 -0.03243021 -0.0323673 -0.03229991
 -0.03223129 -0.03216178 -0.0320932 -0.03202684 -0.03196499 -0.03191005 -0.03186631 -0.03183274 -0.03181169 -0.03179565
 -0.03178188 -0.03176289 -0.03173422 -0.03169722 -0.0316502 -0.03160239 -0.0315549 -0.03151487 -0.03148346 -0.03145858
 -0.03144012 -0.03142114 -0.03140162 -0.03137916 -0.03135442 -0.0313301 -0.0313061 -0.03128362 -0.03126186 -0.03123895
 -0.03121586 -0.03119295 -0.03117221 -0.03115697 -0.03114542 -0.03113823 -0.03113017 -0.03111827 -0.03110058 -0.03107479
 -0.03104478 -0.03101076 -0.03097766 -0.03094635 -0.03091925 -0.03089672 -0.03087946 -0.03086751 -0.03085775 -0.03084963
 -0.0308354 -0.03081482 -0.0307815 -0.03073766 -0.03068673 -0.03063317 -0.03058952 -0.03055755 -0.03054777 -0.0305543
 -0.03057629 -0.03060306 -0.03062562 -0.03063858 -0.03063485 -0.0306199 -0.03059327 -0.03056427 -0.03053573 -0.03051028
 -0.03048952 -0.03046795 -0.03044531 -0.03041526 -0.03037744 -0.03033216 -0.03028004 -0.03022908 -0.03018012 -0.03014258
 -0.03011586 -0.0301034 -0.03010284 -0.03011085 -0.03012432 -0.03013716 -0.03014623 -0.03014566 -0.03013381 -0.03010631
 -0.0300668 -0.0300144 -0.02995867 -0.02990237 -0.02985453 -0.02981862 -0.02979567 -0.02978708 -0.02978632 -0.02979315
 -0.02979877 -0.02980267 -0.02979941 -0.02978919 -0.02977331 -0.0297526 -0.0297329 -0.02971425 -0.02970032 -0.02968964
 -0.02968038 -0.02967148 -0.02965989 -0.02964652 -0.02963109 -0.02961505 -0.02959977 -0.02958511 -0.02957157 -0.02955792
 -0.02954371 -0.02952845 -0.02951173 -0.02949444 -0.02947657 -0.0294598 -0.02944433 -0.02943118 -0.02942045 -0.02941178
 -0.0294051 -0.02939948 -0.02939485 -0.02939048 -0.02938604 -0.02938014 -0.02937195 -0.0293585 -0.02933992 -0.02931424
 -0.02928432 -0.02925217 -0.02922183 -0.02919795 -0.0291804 -0.02917156 -0.0291659 -0.02916197 -0.02915525 -0.02914357
 -0.02912878 -0.02911054 -0.02909344 -0.02907805 -0.02906542 -0.02905565 -0.02904656 -0.02903811 -0.02902932 -0.02902023
 -0.02901079 -0.02900056 -0.0289879 -0.02897239 -0.0289519 -0.02892713 -0.02889786 -0.02886609 -0.02883386 -0.02880334
 -0.02877727 -0.02875573 -0.02874019 -0.02872759 -0.02871753 -0.02870572 -0.02869067 -0.02867146 -0.02864729 -0.02862142
 -0.02859405 -0.02856876 -0.0285458 -0.02852587 -0.02850883 -0.02849278 -0.02847758 -0.0284613 -0.02844446 -0.0284277
 -0.02841236 -0.02840229 -0.02839783 -0.02840228 -0.02841264 -0.02842756 -0.02844177 -0.02845026 -0.02845051 -0.02843859
 -0.02841806 -0.02838867 -0.02835697 -0.02832473 -0.02829576 -0.02827149 -0.02825014 -0.02823191 -0.02821203 -0.0281902
 -0.02816354 -0.0281323 -0.02809985 -0.02806712 -0.02804231 -0.02802529 -0.02802103 -0.02802654 -0.0280372 -0.02804968
 -0.02805494 -0.0280545 -0.0280455 -0.02803344 -0.02802285 -0.02801463 -0.02801238 -0.0280087 -0.02800155 -0.02798524
 -0.02795636 -0.02792013 -0.02787608 -0.02783532 -0.02779925 -0.02777225 -0.02775478 -0.02774203 -0.02773363 -0.02772306
 -0.02771064 -0.02769519 -0.02767767 -0.02766143 -0.02764647 -0.02763489 -0.02762532 -0.02761621 -0.02760666 -0.02759452
 -0.02758066 -0.02756481 -0.02754867 -0.02753294 -0.0275196 -0.02750939 -0.02750447 -0.02750587 -0.02751322 -0.02752724
 -0.02754272 -0.02755936 -0.02757107 -0.02757743 -0.02757632 -0.02756773 -0.0275516 -0.02752796 -0.02749642 -0.02745792
 -0.02741545 -0.02737096 -0.02733128 -0.02729668 -0.02727146 -0.02725309 -0.0272401 -0.02723061 -0.02722181 -0.02721503
 -0.02721006 -0.027209 -0.02721306 -0.0272218 -0.0272358 -0.02725198 -0.02727017 -0.0272863 -0.02729999 -0.02730749
 -0.02730852 -0.0273008 -0.02728432 -0.02725904 -0.02722551 -0.02718731 -0.02714568 -0.02710749 -0.02707327 -0.02704856
 -0.02703166 -0.02702249 -0.02701832 -0.02701564 -0.02701285 -0.02700745 -0.02699862 -0.02698546 -0.02696676 -0.02694174
 -0.02691009 -0.02687103 -0.02682753 -0.02677944 -0.02673302 -0.02668884 -0.02665269 -0.02662505 -0.02660616 -0.02659572
 -0.02658776 -0.02658191 -0.02657233 -0.02655981 -0.02654436 -0.02652697 -0.02651058 -0.0264947 -0.0264799 -0.02646521
 -0.02644931 -0.02643244 -0.02641438 -0.02639542 -0.02637577 -0.02635529 -0.02633385 -0.02631188 -0.02628968 -0.02626643
 -0.02624242 -0.02621388 -0.0261803 -0.02613991 -0.02609239 -0.02604395 -0.02599513 -0.02595664 -0.02592836 -0.02591527
 -0.02591522 -0.02592253 -0.02593428 -0.02593924 -0.02593728 -0.02592176 -0.025897 -0.02586529 -0.02583186 -0.02580321
 -0.02577878 -0.02576141 -0.02574467 -0.02572641 -0.02570243 -0.02566998 -0.02563301 -0.02559114 -0.02555269 -0.02551856
 -0.02549444 -0.0254809 -0.02547611 -0.02547961 -0.02548196 -0.02548252 -0.02547159 -0.02545018 -0.02541663 -0.02537369
 -0.02532773 -0.02528097 -0.02524108 -0.02520714 -0.02518183 -0.0251615 -0.02514372 -0.02512601 -0.02510522 -0.02508363
 -0.02506118 -0.02504127 -0.02502564 -0.02501225 -0.02500157 -0.0249876 -0.02496951 -0.02494506 -0.02491391 -0.02487971
 -0.02484267 -0.02480651 -0.0247711 -0.02473723 -0.02470456 -0.02467217 -0.02463979 -0.02460613 -0.02457134 -0.02453484
 -0.02449767 -0.02446092 -0.02442536 -0.02439253 -0.0243613 -0.02433174 -0.02430164 -0.02427007 -0.02423555 -0.02419725
 -0.02415561 -0.0241101 -0.02406463 -0.02401938 -0.02398008 -0.02394725 -0.02392167 -0.0239031 -0.02388526 -0.02386803
 -0.02384719 -0.02382384 -0.02380097 -0.02377864 -0.02375952 -0.02374079 -0.02371827 -0.02368994 -0.02365016 -0.02360181
 -0.02354509 -0.0234842 -0.02342198 -0.02336059 -0.02330134 -0.02324631 -0.02319625 -0.02315273 -0.02311656 -0.02308592
 -0.0230609 -0.02303755 -0.02301555 -0.02299405 -0.02297312 -0.02295556 -0.02294124 -0.02293094 -0.02292301 -0.02291069
 -0.02289253 -0.02285945 -0.02281476 -0.02275947 -0.02269972 -0.02264486 -0.02259661 -0.02256096 -0.02253415 -0.02251607
 -0.02250144 -0.02248836 -0.02247162 -0.02244963 -0.02241761 -0.02237406 -0.02231822 -0.02224935 -0.02217239 -0.02208759
 -0.02200028 -0.02191063 -0.02182021 -0.02172915 -0.02163891 -0.02155038 -0.02146813 -0.0213933 -0.02133195 -0.02128357
 -0.02125134 -0.02123065 -0.02121799 -0.0212057 -0.02118458 -0.02115253 -0.02110305 -0.02104524 -0.02098087 -0.02092
 -0.02086756 -0.02082155 -0.02078375 -0.02074204 -0.0206951 -0.02063454 -0.02055936 -0.02047293 -0.02037556 -0.02027592
 -0.02017405 -0.0200743 -0.01997561 -0.01987541 -0.01977306 -0.0196646 -0.01955176 -0.01943597 -0.01931906 -0.01920475
 -0.01909234 -0.01898277 -0.01887422 -0.0187657 -0.01865616 -0.01854528 -0.01843087 -0.01831325 -0.01818585 -0.0180485
 -0.01788959 -0.01770818 -0.01749056 -0.01723542 -0.01693917 -0.01660201 -0.01623503 -0.01583792 -0.01541453 -0.0149604
 -0.01445739 -0.01390082 -0.0132651 -0.01255452 -0.01176074 -0.01090172 -0.009995711 -0.009065103 -0.008137793 -0.007226794
 -0.006350105 -0.005507613 -0.004703328 -0.003934933 -0.003198853 -0.002511204 -0.001871772 -0.001312064 -0.0008368676 -0.0004595347
 -0.0001821201 5.961484E-06 0.0001053486 0.0001303949 8.182153E-05 -2.822948E-05 -0.000199392 -0.0004230265 -0.0007000967 -0.001031566
 -0.001412317 -0.001839266 -0.002290009 -0.002732762 -0.003149419 -0.003505453 -0.003810841 -0.004060335 -0.004271504 -0.004452327
 -0.004609757 -0.004748327 -0.00486701 -0.004966958 -0.005042677 -0.005094608 -0.005108249 -0.005082455 -0.005006715 -0.004881368
 -0.004729129 -0.004551977 -0.004379604 -0.004208063 -0.004034577 -0.003853271 -0.003644123 -0.003406462 -0.003128268 -0.002814051
 -0.002466206 -0.002085603 -0.001678024 -0.001230322 -0.0007377408 -0.0001819734 0.000452956 0.001151958 0.001922201 0.002706478
 0.003494669 0.004243069 0.004942396 0.005588585 0.006179581 0.006737717 0.007264721 0.007803888 0.008359061 0.008988508
 0.009686058 0.01046184 0.0112889 0.01208401 0.01284296 0.01350794 0.0141101 0.01467076 0.01521304 0.0157709
 0.01634603 0.01695018 0.01757813 0.01822979 0.01890224 0.01959757 0.02029869 0.02100362 0.02169148 0.0223572
 0.02300799 0.02364398 0.02427497 0.0249006 0.02549233 0.02604813 0.02653398 0.02695569 0.02732311 0.02764489
 0.02795762 0.02825444 0.02854334 0.02880312 0.02899931 0.0291381 0.02920703 0.02923462 0.02923846 0.02923284
 0.02923146 0.02922991 0.02923052 0.02922298 0.02920552 0.02917075 0.02911768 0.02903947 0.02893542 0.02880186
 0.02863887 0.02845605 0.02825448 0.02804912 0.0278394 0.02763 0.02742001 0.02720797 0.02699582 0.0267861
 0.02658281 0.026394 0.02621888 0.02606077 0.02591434 0.0257749 0.02564553 0.02552287 0.02542497 0.02535665
 0.02533253 0.02535899 0.02542898 0.02554331 0.02568603 0.02585577 0.02604364 0.02624929 0.02647361 0.02671734
 0.02698832 0.02728686 0.02761948 0.02798419 0.02837845 0.0287998 0.02924095 0.0297028 0.03018272 0.03068448
 0.03121104 0.0317651 0.03235012 0.03296508 0.03361104 0.03428384 0.03498245 0.03570337 0.03644593 0.03720691
 0.03798681 0.03877446 0.03956943 0.04035403 0.04112748 0.04188354 0.04262258 0.04334936 0.04405973 0.0447361
 0.04537071 0.0459247 0.04640454 0.04680274 0.04713429 0.04742232 0.04766575 0.04787469 0.04803683 0.04814462
 0.04819529 0.04818595 0.04811479 0.04798315 0.04777719 0.04749039 0.04713515 0.04670732 0.04626662 0.04581961
 0.04537417 0.04493027 0.04444482 0.04391782 0.04333378 0.04269775 0.04202887 0.04132975 0.04062385 0.0398991
 0.0391495 0.03834081 0.0374145 0.03635931 0.03511085 0.03376773 0.0323772 0.03102831 0.02980111 0.0286471
 0.02756852 0.02650817 0.025445 0.0243947 0.02335413 0.02236503 0.02143228 0.02055706 0.01973924 0.01894754
 0.01818134 0.01742242 0.01667407 0.01594465 0.01523705 0.01456622 0.01393027 0.01333333 0.01277 0.01223476
 0.01172081 0.01122073 0.01072456 0.01022634 0.009707567 0.0091573 0.008564153 0.007909261 0.00724798 0.00658227
 0.006001876 0.005528485 0.005147223 0.00486157 0.00460125 0.004362972 0.004113133 0.003853616 0.003595483 0.003341214
 0.003111144 0.002902377 0.002714535 0.002546842 0.002394649 0.002265336 0.002168541 0.002109396 0.002099489 0.002133304
 0.002210036 0.002325678 0.002475958 0.002666593 0.002897627 0.00317821 0.003508501 0.003905349 0.004367865 0.004937564
 0.005618045 0.006444843 0.007419209 0.008476218 0.009606255 0.01067308 0.01167638 0.01254414 0.01328524 0.01389193
 0.01437076 0.01472838 0.01497868 0.01514034 0.01523977 0.01530864 0.01537643 0.01547864 0.0156188 0.01581772
 0.01603228 0.01625122 0.0164447 0.01659773 0.01672994 0.01684029 0.01696343 0.01710301 0.01727379 0.01747655
 0.01769488 0.01792738 0.01815129 0.01836788 0.01857188 0.018767 0.01896304 0.01916249 0.0193766 0.01960407
 0.01984742 0.02010588 0.02037735 0.02066829 0.02098229 0.02132632 0.02170727 0.02211984 0.02256569 0.0230301
 0.02350909 0.02399703 0.02449132 0.02500038 0.02552528 0.02606605 0.02662259 0.02716045 0.02767628 0.02811827
 0.02848611 0.02875108 0.02891651 0.02897903 0.02894085 0.02880561 0.02857354 0.02824578 0.02782437 0.0273094
 0.02671035 0.02603181 0.02528947 0.02449283 0.02365122 0.02277082 0.02185162 0.02089189 0.01990591 0.0188916
 0.0178929 0.01691314 0.01599353 0.01513645 0.01434931 0.01363116 0.01297115 0.0123692 0.01181949 0.01132323
 0.01088302 0.01049694 0.01016466 0.009876821 0.009620989 0.009382335 0.009139706 0.008883159 0.008595263 0.008282305
 0.007939804 0.007587418 0.007230449 0.006886568 0.006561673 0.006262341 0.005991138 0.005745078 0.005524434 0.005321524
 0.00513593 0.004963073 0.004803346 0.00466094 0.004536615 0.00443755 0.004362922 0.004313962 0.004288626 0.004282805
 0.004294791 0.004319944 0.004357554 0.004405409 0.00446228 0.004528012 0.004596808 0.004667527 0.004728493 0.004775408
 0.004799649 0.004797054 0.004770274 0.004718449 0.004650305 0.004566752 0.004471813 0.00436577 0.004247464 0.00411708
 0.003976197 0.003826183 0.003675507 0.003526567 0.003392245 0.00327449 0.003185102 0.003122817 0.003092052 0.003087418
 0.00310503 0.00313881 0.003182816 0.003233037 0.003286098 0.003338871 0.003390341 0.003435035 0.003471885 0.003494582
 0.003501498 0.003492037 0.003465325 0.003430832 0.003389032 0.003352612 0.00332159 0.003298964 0.003283369 0.003267365
 0.003250857 0.003228836 0.00320373 0.003179441 0.003156772 0.003139877 0.003125757 0.00311251 0.003097671 0.003077562
 0.003054511 0.003027791 0.003003455 0.002983013 0.002973281 0.002975919 0.002997098 0.003038412 0.003101204 0.003186444
 0.003285524 0.003398065 0.003507307 0.00361251 0.003699331 0.003768878 0.003820134 0.003856229 0.003888103 0.00391815
 0.003958292 0.004007752 0.004070838 0.004145277 0.004229689 0.004323354 0.004424876 0.00453522 0.00465482 0.00478354
 0.004922481 0.005066761 0.005216434 0.005361733 0.005501151 0.005626903 0.005737342 0.005836821 0.005925398 0.006018791
 0.006117629 0.006234617 0.006368293 0.006516348 0.006675485 0.006831867 0.006983936 0.007120118 0.007242444 0.007349137
 0.007442581 0.007525567 0.007597759 0.007659781 0.007711093 0.007750992 0.007781255 0.007802677 0.007815396 0.007820182
 0.007813433 0.007794177 0.007763229 0.007719958 0.007673686 0.007624946 0.007580698 0.00754066 0.007500817 0.007460336
 0.00741134 0.007354442 0.007287713 0.007212475 0.007131197 0.007044479 0.006954371 0.006861291 0.006766057 0.0066703
 0.006574494 0.006483558 0.006398803 0.006329606 0.006279659 0.00625618 0.006263348 0.00629635 0.006356383 0.006428306
 0.006510745 0.006591534 0.006669748 0.006744518 0.006816244 0.006891967 0.006971918 0.007061608 0.007159605 0.007263498
 0.007371363 0.007476087 0.007579141 0.007678805 0.007779847 0.007887759 0.008004889 0.008135721 0.008278809 0.00843412
 0.008601656 0.008781187 0.008973858 0.009180873 0.009397895 0.009625024 0.009853819 0.01008324 0.0103093 0.01053162
 0.01075318 0.01097423 0.01119968 0.01142933 0.01166474 0.01190428 0.01214286 0.01237811 0.01260084 0.0128112
 0.01300447 0.01318382 0.01335165 0.0135095 0.01366045 0.01380185 0.01393334 0.01405141 0.01415428 0.01424092
 0.01430992 0.01436508 0.01440588 0.01444247 0.01447566 0.0145155 0.01456278 0.0146187 0.01468309 0.01475222
 0.01482639 0.01490591 0.01499134 0.01508553 0.01518784 0.0152982 0.01541551 0.01553833 0.01566439 0.01579143
 0.01591447 0.0160279 0.01613043 0.01621704 0.01629797 0.01637446 0.01646185 0.01656476 0.01669194 0.01684642
 0.0170275 0.01723624 0.01746208 0.01770464 0.01794442 0.01818079 0.01840119 0.01860745 0.01880691 0.01900128
 0.01920271 0.01940847 0.01961724 0.01982653 0.02002976 0.02022974 0.02042703 0.02062538 0.02082884 0.02103791
 0.02125502 0.02147624 0.02170282 0.02192172 0.02213066 0.02231455 0.02246869 0.02259521 0.02269264 0.02277849
 0.02285391 0.0229272 0.02299814 0.02306072 0.02311471 0.02315575 0.02318465 0.02320297 0.02321047 0.02320723
 0.0231929 0.02316613 0.02312878 0.02308226 0.02302929 0.02297263 0.02291442 0.02285726 0.02280035 0.02274526
 0.02268537 0.02261952 0.02254082 0.02244662 0.02234108 0.02222344 0.02210809 0.02199584 0.0219012 0.02182468
 0.02177512 0.02175168 0.02175344 0.02177759 0.02181172 0.0218543 0.0218935 0.02193272 0.02197334 0.02201735
 0.0220704 0.02212589 0.02218081 0.02222686 0.02225739 0.02227019 0.02226337 0.02223423 0.02218242 0.02210204
 0.02199129 0.02185093 0.0216803 0.02148681 0.02127094 0.02103748 0.02078678 0.0205244 0.02025153 0.01998019
 0.01971094 0.01945336 0.0192057 0.0189678 0.01873859 0.01851547 0.01829934 0.0180911 0.01788931 0.01769456
 0.01750044 0.01730468 0.01709729 0.01687386 0.01662652 0.01635043 0.01605019 0.01572392 0.01539017 0.01505058
 0.01472216 0.01440643 0.01410637 0.01382181 0.01354739 0.01328254 0.01302077 0.01276157 0.0124987 0.0122333
 0.01196468 0.01169562 0.01143241 0.01117325 0.01091999 0.01066561 0.01040307 0.0101316 0.009846376 0.009556683
 0.009265391 0.008979341 0.008701845 0.008432547 0.008171493 0.007920335 0.007678937 0.007452398 0.007241152 0.007046246
 0.00686752 0.006700638 0.006544833 0.006392324 0.006242169 0.006085051 0.005922716 0.005753439 0.005583605 0.005424732
 0.005281241 0.00516563 0.005074115 0.005008592 0.004961615 0.004929141 0.004905588 0.004888558 0.004870971 0.004851069
 0.004820403 0.00477651 0.004717651 0.004642358 0.004560301 0.004471758 0.004393457 0.004326146 0.004283486 0.004264274
 0.004265623 0.004284195 0.004302527 0.00432075 0.00432852 0.004331695 0.004338134 0.004349063 0.004372646 0.004398815
 0.004421324 0.004431315 0.004418047 0.00438852 0.004340692 0.004291966 0.004247294 0.004217848 0.004208203 0.004213836
 0.004235696 0.004258883 0.004282289 0.004297284 0.004303938 0.00430987 0.004315898 0.00433317 0.004360003 0.004394619
 0.004434881 0.004472554 0.004509367 0.004544957 0.004581094 0.004621837 0.004662913 0.00470277 0.004734477 0.00475219
 0.004754767 0.004738188 0.004711513 0.004674517 0.004645123 0.00462654 0.004633505 0.004669707 0.004729528 0.004813482
 0.004897889 0.004981774 0.005049004 0.00510109 0.005144216 0.005180487 0.005223836 0.005272719 0.005330571 0.005393228
 0.005453708 0.005509895 0.005555093 0.005591205 0.005616756 0.005636808 0.005653435 0.005673142 0.005698537 0.005736994
 0.005791449 0.005865674 0.00596256 0.006073175 0.006198063 0.006316446 0.006426732 0.00651497 0.006581082 0.006634308
 0.006676523 0.006729199 0.006791487 0.006872231 0.006966085 0.007061611 0.007155079 0.007230853 0.007294928 0.007346798
 0.007399279 0.007466344 0.007551083 0.007664445 0.007789158 0.007922208 0.008041061 0.008136025 0.008203461 0.008238507
 0.008258004 0.008263007 0.00827169 0.008285758 0.008311742 0.008349803 0.008397539 0.008454915 0.008520194 0.008594565
 0.00868279 0.008786048 0.008911962 0.009057152 0.009221177 0.009393359 0.009560062 0.009708862 0.009820885 0.009895004
 0.009919913 0.009915318 0.009883894 0.009855784 0.009842034 0.00985687 0.009908167 0.009982268 0.01007947 0.01017709
 0.01027316 0.01035703 0.01042827 0.01048412 0.01052451 0.01054652 0.01055165 0.01054432 0.01052856 0.01051922
 0.01051832 0.01053813 0.01057597 0.01063327 0.01070674 0.01079338 0.01089172 0.01100034 0.01111694 0.01124095
 0.01136769 0.01149625 0.01162014 0.01173812 0.01184421 0.01193728 0.01201508 0.01207704 0.01212743 0.01216673
 0.01220977 0.0122582 0.01233495 0.01243863 0.01257823 0.0127436 0.0129088 0.01306413 0.01317137 0.01324102
 0.01326672 0.01327538 0.01329388 0.01333406 0.01341786 0.01352885 0.01366599 0.01380934 0.01395009 0.01408639
 0.01421573 0.01434362 0.0144715 0.01459435 0.01471239 0.01481062 0.01488845 0.0149388 0.01496348 0.01497705
 0.0149825 0.01500362 0.01503932 0.01509884 0.015179 0.01527623 0.01539151 0.01552594 0.01567747 0.01584831
 0.0160243 0.01619649 0.01635417 0.01648628 0.01660277 0.0167033 0.01680322 0.0169067 0.01701793 0.0171378
 0.01727011 0.0174151 0.01757919 0.01776245 0.01795565 0.01815696 0.01834331 0.01851487 0.01865871 0.01877974
 0.01888515 0.01898258 0.01909121 0.01921697 0.01937959 0.01957329 0.01980363 0.02005068 0.02030285 0.02054339
 0.02075967 0.02094937 0.02110909 0.02123973 0.02134079 0.021414 0.02145826 0.02148666 0.02149997 0.02151258
 0.02152509 0.02153828 0.02155224 0.02156732 0.02158515 0.02161514 0.02165739 0.02171734 0.02179365 0.02188534
 0.0219931 0.02212012 0.02225954 0.0224108 0.02255122 0.022665 0.02273479 0.02274237 0.02270226 0.02261053
 0.02250461 0.02239177 0.02230046 0.02223807 0.0222008 0.02219056 0.02217153 0.02214198 0.02207226 0.02196516
 0.02183981 0.02170167 0.02159253 0.02150827 0.021457 0.02143298 0.02142341 0.02143571 0.02147809 0.02155027
 0.02166142 0.02178948 0.02191865 0.02204235 0.02214475 0.0222594 0.02239792 0.02256927 0.02278846 0.02298863
 0.02316059 0.02326823 0.02330502 0.02329787 0.02324814 0.02319543 0.02314152 0.02312039 0.02312976 0.02317828
 0.02325669 0.02333859 0.02341819 0.02346774 0.02349154 0.02348637 0.02345102 0.02338564 0.0232808 0.02312514
 0.02292829 0.02268643 0.02243103 0.02217099 0.02193232 0.02172171 0.02155864 0.02144643 0.02140167 0.02142779
 0.02150677 0.02163742 0.02176381 0.02188443 0.0219626 0.02200303 0.02201366 0.02199704 0.0219666 0.02191995
 0.02185505 0.0217776 0.02169397 0.02161346 0.02155206 0.02150394 0.02147094 0.02144289 0.02141436 0.02138144
 0.02134231 0.02129157 0.02122452 0.02115651 0.02108645 0.02105216 0.02105878 0.02110204 0.02118157 0.02124483
 0.02129194 0.02130719 0.02129752 0.02129651 0.02130404 0.02133752 0.02139219 0.0214642 0.02155367 0.02166299
 0.02178196 0.02190461 0.02201005 0.02207662 0.02210555 0.02208656 0.02204539 0.02198888 0.02193545 0.02188999
 0.02186632 0.02186581 0.02190937 0.02200014 0.02213448 0.02231213 0.02249505 0.02268188 0.02284528 0.02298679
 0.02310337 0.02319272 0.0232448 0.02325765 0.02321775 0.02313496 0.02301764 0.022878 0.02273379 0.02258888
 0.02245071 0.02232349 0.02221048 0.02211657 0.02204419 0.0219957 0.02197072 0.021979 0.02202314 0.0221022
 0.02221912 0.02232743 0.0224247 0.02245716 0.02242661 0.02234063 0.02220619 0.02206966 0.0219303 0.02180866
 0.02170279 0.02161556 0.02155242 0.0215262 0.02153285 0.02157739 0.0216407 0.02171058 0.02177073 0.02181101
 0.0218165 0.02178051 0.02169031 0.02153612 0.0213431 0.02110949 0.02089247 0.02069886 0.02054502 0.0204321
 0.02031473 0.02019137 0.02002757 0.01982972 0.01961693 0.019398 0.01921451 0.01906908 0.01899309 0.01897306
 0.01900817 0.01906579 0.01910766 0.01911474 0.01905002 0.01894039 0.01878557 0.0186285 0.01848776 0.018377
 0.01830451 0.01826498 0.01825862 0.01828183 0.01833539 0.01839812 0.01846886</values></Ydata></AB><ScSm><Ydata ylabel="Single channel"><values byteorder="INTEL" format="FLOAT32" numvalues="1814"> 0.06856713 0.06858753 0.06866772 0.06882407 0.06902995 0.06922828 0.06936958 0.06944489 0.06947145 0.06945448
 0.06939636 0.06934389 0.06937838 0.06953417 0.0697497 0.06991377 0.06995664 0.06990968 0.06988462 0.0699639
 0.07008715 0.07007188 0.06978537 0.06929731 0.06883132 0.06855826 0.06849486 0.06864421 0.06910005 0.06981442
 0.07034945 0.07019523 0.06940825 0.06863913 0.06840739 0.06860211 0.06878724 0.0687043 0.06835321 0.06789559
 0.06769889 0.06823465 0.06961542 0.07121645 0.07190128 0.07073586 0.06765245 0.06366779 0.06051659 0.05972345
 0.0615227 0.06454046 0.06682628 0.06741245 0.06677917 0.06586993 0.06508248 0.06438798 0.06397229 0.0642616
 0.06532533 0.06648611 0.06666686 0.06530201 0.06301291 0.0611794 0.06068952 0.06137628 0.06274289 0.06450204
 0.06583358 0.06496126 0.06089965 0.05566548 0.05337745 0.05634054 0.06258743 0.06781243 0.06920417 0.06700003
 0.06321912 0.05999181 0.0587754 0.05995587 0.0627602 0.06590633 0.06839193 0.06954107 0.0688261 0.06632416
 0.06316559 0.06098165 0.0609039 0.06313001 0.06687835 0.07043993 0.07195425 0.07079431 0.06798878 0.06512909
 0.0633155 0.06316273 0.06495929 0.06835783 0.07236126 0.07590737 0.07830213 0.07927503 0.07902919 0.07811818
 0.07702562 0.07608423 0.07577465 0.07643023 0.07745185 0.07753642 0.07610175 0.07406884 0.07291321 0.07313877
 0.07387714 0.073943 0.07303154 0.07151152 0.06924507 0.06558926 0.06085652 0.0566835 0.05439343 0.05399945
 0.05518844 0.05782969 0.06081425 0.06197888 0.06046347 0.05822448 0.0580814 0.06071548 0.06432302 0.06684227
 0.06786404 0.06850323 0.06995154 0.07224953 0.07411147 0.07388401 0.0711859 0.06784551 0.06661007 0.06844752
 0.07162046 0.07383554 0.07466772 0.07530674 0.07647628 0.07731332 0.07626437 0.07292546 0.06904382 0.06744602
 0.06957625 0.07404844 0.07764703 0.07770267 0.07388844 0.06830788 0.06385836 0.06222454 0.06341249 0.0668384
 0.07197556 0.07779013 0.0824846 0.0845013 0.08365764 0.08105494 0.07782799 0.07409442 0.06955153 0.06522234
 0.06367089 0.06656751 0.07254438 0.07833713 0.08170047 0.0825275 0.08157076 0.07904217 0.07482564 0.06983979
 0.06649454 0.06682073 0.07003063 0.0729644 0.07340656 0.07210504 0.07113992 0.07130818 0.07183043 0.07197565
 0.0721035 0.07306677 0.07501064 0.07705732 0.07816654 0.07808481 0.07738453 0.07678927 0.07651636 0.0761259
 0.07514575 0.07402466 0.07407017 0.07601409 0.07899868 0.08145511 0.08267222 0.08304735 0.0830373 0.08236335
 0.08042368 0.07743533 0.0748954 0.07446808 0.07637133 0.07924362 0.08156006 0.08272681 0.08292417 0.08255064
 0.0819594 0.08134833 0.0808115 0.08057943 0.08096547 0.08191548 0.08290491 0.0834637 0.08356051 0.08336627
 0.08292056 0.0822011 0.0813638 0.08074737 0.08063035 0.08102061 0.08169644 0.08240742 0.08296347 0.08319421
 0.08300865 0.08252962 0.08202021 0.08164169 0.08139974 0.08131289 0.08146373 0.08184302 0.08227712 0.0825754
 0.08268073 0.08264348 0.08251591 0.08231707 0.08206813 0.08182955 0.08169976 0.08175096 0.08194215 0.08214048
 0.08227323 0.08240153 0.08258112 0.0827207 0.08267757 0.0824548 0.08220997 0.0820841 0.08208992 0.08215414
 0.08219624 0.08214358 0.08192627 0.08153784 0.08111669 0.0808962 0.08102023 0.08143754 0.081986 0.08251132
 0.08289506 0.08307396 0.08308693 0.083038 0.08297727 0.08286529 0.08266775 0.08244552 0.08233644 0.08245137
 0.0827748 0.0831695 0.083489 0.0836715 0.08373611 0.0837501 0.08380482 0.08394495 0.08409832 0.08414253
 0.08406084 0.08397302 0.08399382 0.08410467 0.084185 0.08415163 0.08405271 0.08401926 0.08412711 0.08432682
 0.08451571 0.08465187 0.08477619 0.08493218 0.08508271 0.08512603 0.08501042 0.08481258 0.08466367 0.08461299
 0.08461638 0.08464652 0.08474044 0.08491766 0.08511067 0.08522253 0.08523526 0.08522403 0.08525979 0.08532324
 0.08533289 0.08524298 0.08509128 0.08495772 0.08489966 0.08492288 0.0849885 0.0850382 0.08502795 0.08495268
 0.08484212 0.08473038 0.08463193 0.08455391 0.08452819 0.0846027 0.08477427 0.08494259 0.08496995 0.08480664
 0.08454657 0.08434402 0.08427358 0.08427553 0.08423333 0.08408993 0.08388335 0.08368741 0.08354322 0.08344571
 0.08337066 0.08330336 0.08325712 0.0832739 0.08338572 0.08355468 0.0836702 0.08364013 0.0834825 0.08330424
 0.08319794 0.08318153 0.08321953 0.08326844 0.08331122 0.08337139 0.0834782 0.08360574 0.08368091 0.08367041
 0.08362477 0.08362298 0.0837091 0.08388378 0.08410442 0.0842847 0.08435058 0.08431992 0.08428955 0.084331
 0.08443166 0.08454409 0.08465259 0.08477097 0.08490436 0.08504508 0.08519945 0.08539401 0.08564636 0.08593728
 0.0862158 0.08643471 0.08659029 0.08673427 0.08693883 0.08723794 0.08759867 0.08794992 0.08824042 0.08847421
 0.08869423 0.08893248 0.08918332 0.08943341 0.0897011 0.090019 0.09038353 0.09075238 0.09109522 0.09142303
 0.09176231 0.09212001 0.09248354 0.09284723 0.09322926 0.09365168 0.09409803 0.0945053 0.09481754 0.09504406
 0.0952543 0.095523 0.09588115 0.0962927 0.09666607 0.096922 0.09707864 0.09724498 0.09750317 0.09782231
 0.09812087 0.09838887 0.09869911 0.09909976 0.09954019 0.09992149 0.1001983 0.100414 0.1006428 0.1009075
 0.1011597 0.1013412 0.1014569 0.1015708 0.1017335 0.1019446 0.1021963 0.1025112 0.1029018 0.1033204
 0.1036876 0.1039645 0.1041684 0.1043335 0.1044823 0.1046205 0.104739 0.1048293 0.1049091 0.1050095
 0.1051298 0.105236 0.1053189 0.105419 0.1055764 0.1057891 0.1060409 0.1063358 0.1066714 0.1070068
 0.1073028 0.1075865 0.1079237 0.108315 0.1086657 0.1088858 0.108987 0.1090442 0.1090981 0.1091476
 0.1092145 0.1093503 0.1095727 0.1098387 0.1100928 0.1103128 0.1105033 0.1106686 0.1108018 0.1108888
 0.1109236 0.110928 0.1109565 0.1110742 0.1113243 0.1117026 0.1121526 0.1125912 0.1129511 0.113198
 0.1133135 0.1132934 0.1131823 0.113076 0.1130447 0.1130524 0.1129809 0.1127338 0.112294 0.1116895
 0.1109415 0.1100678 0.1091172 0.1081794 0.1073531 0.1067097 0.1062888 0.1061251 0.1062587 0.1066929
 0.1073469 0.1080736 0.1087324 0.1092266 0.1094733 0.1093887 0.1089397 0.1081931 0.1072829 0.106335
 0.10543 0.1046016 0.1038431 0.1031394 0.1025336 0.1021588 0.1021851 0.1027311 0.1038172 0.1053616
 0.10719 0.1090737 0.1108095 0.1122987 0.1135555 0.1146456 0.1156259 0.1165376 0.1174211 0.1182967
 0.1191383 0.119898 0.1205642 0.1211694 0.1217412 0.1222687 0.1227185 0.1230638 0.1233024 0.1234601
 0.1235697 0.1236368 0.1236401 0.1235741 0.1234664 0.1233359 0.1231533 0.1228608 0.1224183 0.1218325
 0.1211706 0.1205754 0.1202597 0.1204493 0.1212848 0.1227368 0.1246095 0.1266388 0.1285983 0.1303345
 0.1317558 0.1328392 0.1336427 0.1342719 0.1348194 0.1353348 0.1358368 0.1363287 0.136806 0.137261
 0.1376899 0.1380988 0.1385074 0.1389343 0.139371 0.13978 0.1401348 0.140457 0.1408025 0.1412069
 0.1416493 0.1420744 0.1424549 0.1428178 0.1431974 0.1435753 0.143899 0.1441546 0.1443907 0.1446689
 0.1450164 0.1454192 0.1458326 0.1461998 0.1464879 0.1467154 0.1469313 0.1471697 0.1474347 0.1477176
 0.1480121 0.1483095 0.1485988 0.1488802 0.1491727 0.1494902 0.149811 0.1500875 0.1502977 0.1504748
 0.1506759 0.1509238 0.1511913 0.1514359 0.1516484 0.1518644 0.1521298 0.1524512 0.1527838 0.1530711
 0.1532933 0.1534756 0.1536578 0.1538623 0.1540885 0.1543271 0.1545703 0.1548125 0.1550495 0.1552823
 0.1555178 0.1557612 0.1560095 0.1562537 0.1564888 0.1567189 0.1569526 0.1571944 0.1574454 0.1577101
 0.1579947 0.1582939 0.1585851 0.1588415 0.159051 0.1592202 0.159367 0.1595123 0.1596748 0.159866
 0.1600886 0.1603365 0.1605964 0.1608515 0.1610916 0.1613199 0.1615486 0.1617861 0.1620304 0.1622752
 0.1625196 0.1627696 0.1630265 0.1632801 0.1635163 0.1637311 0.1639335 0.1641369 0.1643505 0.1645763
 0.164809 0.1650411 0.1652694 0.1654944 0.1657156 0.165932 0.1661469 0.1663643 0.1665816 0.1667936
 0.1670018 0.1672141 0.1674341 0.1676581 0.1678802 0.1680987 0.1683147 0.1685283 0.1687389 0.1689489
 0.1691633 0.1693844 0.1696094 0.1698345 0.1700599 0.1702877 0.1705169 0.1707426 0.1709609 0.1711736
 0.1713863 0.1716011 0.1718155 0.1720271 0.1722352 0.1724382 0.1726377 0.1728429 0.1730637 0.1732996
 0.1735416 0.1737815 0.1740153 0.1742419 0.1744639 0.1746852 0.1749072 0.1751311 0.1753586 0.1755891
 0.175821 0.1760561 0.1762958 0.1765345 0.1767622 0.1769727 0.1771681 0.1773573 0.1775514 0.1777537
 0.1779583 0.1781608 0.178363 0.178564 0.1787594 0.1789509 0.1791462 0.1793512 0.1795669 0.17979
 0.1800123 0.1802279 0.1804411 0.1806585 0.18088 0.1811052 0.1813382 0.1815787 0.1818172 0.1820462
 0.1822653 0.1824785 0.1826926 0.1829119 0.1831313 0.1833443 0.1835553 0.1837735 0.1840006 0.1842331
 0.1844659 0.1846919 0.184908 0.1851216 0.1853393 0.1855585 0.1857763 0.1859944 0.1862116 0.1864265
 0.1866436 0.186866 0.1870895 0.1873123 0.1875358 0.1877571 0.1879762 0.1882006 0.188431 0.1886556
 0.1888702 0.1890818 0.1892941 0.1895094 0.1897352 0.1899707 0.190204 0.1904313 0.190655 0.1908573
 0.1909874 0.190925 0.1903744 0.1887476 0.1851476 0.1785426 0.1681707 0.154015 0.1369842 0.1185998
 0.1004374 0.08370432 0.06910526 0.05693418 0.04724415 0.03995794 0.0349213 0.03198964 0.03113409 0.03256618
 0.03687229 0.04466585 0.05525647 0.0654659 0.07086156 0.06925827 0.06280705 0.05603292 0.05207268 0.05115502
 0.05194578 0.05330568 0.05487777 0.05687108 0.05963668 0.0632699 0.06760083 0.07262652 0.07871329 0.0861254
 0.09446971 0.1028633 0.1106917 0.1180871 0.1256214 0.1336117 0.141783 0.149536 0.1564215 0.1623631
 0.1675597 0.1722735 0.176683 0.1808646 0.184847 0.1886189 0.1920499 0.1948514 0.1967079 0.1975161
 0.1975107 0.1971387 0.196795 0.1966639 0.1967605 0.1970449 0.1974801 0.1980408 0.1987148 0.1994909
 0.2003414 0.2012273 0.2021134 0.2029698 0.2037724 0.2045166 0.2052156 0.2058769 0.2064912 0.2070441
 0.2075309 0.2079623 0.2083614 0.2087459 0.2091147 0.2094584 0.2097776 0.2100808 0.2103714 0.2106478
 0.2109092 0.211154 0.2113794 0.2115854 0.2117773 0.2119634 0.2121536 0.2123545 0.2125644 0.2127767
 0.2129869 0.2131952 0.2134025 0.2136098 0.2138156 0.2140158 0.2142094 0.214401 0.2145932 0.2147818
 0.2149651 0.2151507 0.2153465 0.2155487 0.2157466 0.2159354 0.2161199 0.216308 0.2165009 0.216693
 0.2168841 0.2170867 0.2173108 0.2175486 0.2177848 0.2180142 0.2182385 0.2184556 0.2186648 0.2188699
 0.2190668 0.2192392 0.2193791 0.2195055 0.2196569 0.2198622 0.2201125 0.220365 0.2205805 0.2207573
 0.2209231 0.2211007 0.2212909 0.2214787 0.2216547 0.2218351 0.2220505 0.2223082 0.2225801 0.2228397
 0.223085 0.2233216 0.2235506 0.223778 0.224005 0.2242077 0.2243586 0.2244762 0.2246316 0.2248927
 0.2252556 0.2256389 0.2259581 0.2261998 0.2264097 0.2266329 0.2268896 0.2271636 0.2273744 0.2274273
 0.2273569 0.2273625 0.2276258 0.2281267 0.228689 0.2291643 0.2295258 0.2298197 0.2300833 0.2303082
 0.2304558 0.2305022 0.2304929 0.2305592 0.2308341 0.2313125 0.2318388 0.2322661 0.2325756 0.2328152
 0.2330164 0.2331958 0.2333234 0.2332644 0.232919 0.2324799 0.2323877 0.2329036 0.2338159 0.234667
 0.2352094 0.2355344 0.2358136 0.2360846 0.2363031 0.2363836 0.236094 0.2351867 0.2338816 0.2330015
 0.2332915 0.2346692 0.2363642 0.2376866 0.238461 0.2388576 0.2390957 0.2392954 0.2393891 0.2391302
 0.238371 0.2374315 0.2370194 0.2375743 0.2387702 0.2398672 0.2404716 0.2407371 0.2409551 0.2412286
 0.2414074 0.2410505 0.2396715 0.2374607 0.2356489 0.2356447 0.2376581 0.2404483 0.2425527 0.2435467
 0.2439249 0.244019 0.2435054 0.2419839 0.2395724 0.2368454 0.2346682 0.234102 0.2357019 0.2386176
 0.2410696 0.242106 0.2424035 0.2431183 0.2444959 0.2458668 0.246534 0.2463198 0.2454397 0.2441109
 0.2424522 0.2408611 0.240231 0.2413118 0.2437996 0.2464495 0.2482318 0.249115 0.2495146 0.2490761
 0.2464413 0.2408859 0.2343456 0.2308663 0.2330262 0.2392356 0.245439 0.2491015 0.2505946 0.2512842
 0.2517151 0.2514592 0.2493522 0.2441197 0.2363579 0.2297985 0.2287892 0.2339907 0.2416325 0.2470444
 0.2478575 0.2442625 0.2381495 0.2325281 0.2303016 0.2325115 0.2378867 0.2440972 0.2491543 0.2519547
 0.252262 0.2505828 0.2481139 0.2464548 0.2464591 0.2469599 0.245645 0.241983 0.2381205 0.2357199
 0.2333589 0.2291413 0.2248875 0.2249235 0.2304745 0.2376266 0.2417338 0.2421202 0.2412093 0.2400819
 0.2365833 0.2283995 0.2174314 0.2098439 0.2106644 0.2185588 0.2270261 0.2307562 0.2298291 0.2277848
 0.2269149 0.225992 0.2221135 0.2145806 0.2067897 0.2033791 0.2052992 0.2089703 0.2104903 0.2087123
 0.20382 0.1960965 0.1882287 0.1860744 0.1936572 0.2081727 0.2221966 0.2297779 0.2285351 0.2182649
 0.2018409 0.1870421 0.1827502 0.1909631 0.2043628 0.2130668 0.2124524 0.2039142 0.190658 0.1755778
 0.1626289 0.1571128 0.1624612 0.1768098 0.1931404 0.202731 0.1999118 0.1864963 0.1722443 0.1678106
 0.1749964 0.1855182 0.1903257 0.1878326 0.1825166 0.1791436 0.1800415 0.1848089 0.1907366 0.1953137
 0.1982226 0.1984779 0.1916914 0.1753546 0.1558893 0.1444558 0.145354 0.1537393 0.1645591 0.1771158
 0.1893611 0.1947455 0.1896092 0.1801661 0.177269 0.1848852 0.1966706 0.2037338 0.203443 0.199937
 0.1976791 0.1966714 0.1947013 0.1925298 0.1940531 0.2009498 0.2097581 0.2157327 0.2177631 0.2179558
 0.2180401 0.2180613 0.2175862 0.2164719 0.2147762 0.212874 0.211355 0.2103507 0.2094117 0.208199
 0.2064512 0.2029306 0.1957067 0.1849092 0.1744731 0.1690536 0.1691111 0.1711958 0.1730427 0.1749019
 0.1748125 0.167263 0.150485 0.1324292 0.1249884 0.1325193 0.1486014 0.1633277 0.1708673 0.1699651
 0.1609917 0.1461657 0.1320174 0.1273879 0.1362267 0.1537853 0.1716842 0.1851312 0.1935129 0.1964288
 0.192816 0.1838429 0.174119 0.1691008 0.1717469 0.181154 0.192874 0.200111 0.1970192 0.1844764
 0.1727353 0.1739295 0.1893427 0.2072911 0.2162559 0.2165905 0.2159651 0.217451 0.2179236 0.2163524
 0.2172191 0.2243031 0.2350779 0.2431857 0.2440187 0.236542 0.2227187 0.2079818 0.1998319 0.2018341
 0.2095988 0.2156085 0.2165383 0.2127714 0.2039031 0.1906772 0.1798099 0.1799316 0.1915577 0.2059135
 0.2149019 0.2184686 0.2209834 0.2237054 0.2232864 0.2169066 0.2070432 0.1999536 0.1994778 0.2036571
 0.2079938 0.2101851 0.2101396 0.2072751 0.2008869 0.1931643 0.1892148 0.1926191 0.2017295 0.2112335
 0.2169206 0.218307 0.2173459 0.2159078 0.2145294 0.2125943 0.2096076 0.2068343 0.2070483 0.2115447
 0.2180293 0.2229395 0.2255064 0.2280274 0.2322568 0.2369938 0.2395658 0.2387765 0.2360571 0.2342173
 0.2351952 0.2385218 0.241662 0.2421667 0.2399997 0.2377915 0.2384174 0.2422569 0.2471464 0.2508363
 0.2528271 0.2539046 0.2548116 0.2556113 0.2556637 0.2541236 0.2511493 0.2486118 0.2487738 0.2520396
 0.256559 0.2601239 0.2619359 0.2624905 0.2623909 0.2617193 0.2603787 0.2586513 0.2572029 0.256571
 0.2567882 0.2575169 0.2583965 0.2591983 0.2598131 0.2602367 0.2605304 0.2607379 0.2608724 0.2609712
 0.2610759 0.2611517 0.2611203 0.2610047 0.2609528 0.2610652 0.2612635 0.2613813 0.2613199 0.2610391
 0.2604598 0.2594962 0.2581829 0.2566631 0.25502 0.2532254 0.2513536 0.2498119 0.2492204 0.2499537
 0.2517915 0.2540483 0.2560416 0.2574362 0.2582377 0.258601 0.2586934 0.2586544 0.2585753 0.2584776
 0.2583342 0.2581247 0.2578638 0.2575731 0.2572542 0.2569132 0.2565913 0.256339 0.2561582 0.2559896
 0.2557618 0.2554439 0.255052 0.254615 0.2541378 0.2535911 0.2529334 0.2521414 0.2512277 0.2502392
 0.2492391 0.2482822 0.2473882 0.2465304 0.2456558 0.2447195 0.2436897 0.2425297 0.2412245 0.2398491
 0.2385597 0.237472 0.2365634 0.2357146 0.2348175 0.2338258 0.2327423 0.2315949 0.2304146 0.2292182
 0.2280101 0.2267914 0.2255568 0.224286 0.2229511 0.2215317 0.2200234 0.2184383 0.2168017 0.2151373
 0.2134387 0.2116419 0.2096321 0.2072844 0.2044963 0.2011879 0.197315 0.192915 0.1881328 0.1831839
 0.1782892 0.17363 0.1693322 0.1654783 0.1621383 0.1593819 0.1572613 0.1557989 0.1550006 0.1548686
 0.1554022 0.1565892 0.1583829 0.1606769 0.1633116 0.16611 0.1689036 0.1715476 0.173959 0.1761516
 0.1782083 0.1801946 0.1821005 0.1838664 0.1854525 0.1868615 0.1881 0.1891525 0.1900097 0.1906976
 0.1912578 0.1917187 0.1920978 0.1924098 0.1926621 0.1928596 0.1930181 0.1931657 0.1933373 0.19357
 0.193888 0.1942871 0.1947458 0.1952532 0.1958159 0.1964419 0.1971265 0.1978509 0.1985933 0.1993456
 0.2001171 0.2009293 0.2018209 0.2028477 0.204053 0.2054344 0.2069491 0.2085421 0.2101549 0.2117194
 0.2131604 0.2144074 0.2154133 0.2161711 0.2167072 0.2170566 0.2172496 0.2173133 0.2172652 0.2171106
 0.216857 0.2165233 0.2161295 0.2156906 0.2152182 0.2147124 0.2141588 0.2135532 0.2129167 0.212277
 0.2116468 0.211031 0.2104379 0.2098743 0.2093364 0.2088114 0.2082843 0.2077492 0.2072066 0.2066523
 0.2060769 0.205478 0.2048509 0.2041692 0.2033952 0.2025099 0.2015122 0.2004021 0.1991828 0.1978682
 0.1964734 0.1950083 0.1934834 0.1919062 0.1902727 0.1885719 0.1867898 0.1849098 0.1829359 0.1809202
 0.178947 0.1770817 0.175349 0.173746 0.1722541 0.1708435 0.1694869 0.1681728 0.1669076 0.1657093
 0.1645929 0.1635518 0.1625588 0.161591 0.160651 0.1597684 0.1589848 0.158325 0.1577726 0.1572827
 0.156823 0.1563996 0.1560514 0.1558242 0.1557338 0.1557403 0.1557673 0.1557496 0.1556586 0.1554993
 0.1553055 0.155124 0.1549819 0.1548718 0.1547672 0.1546315 0.1544116 0.1540422 0.1534596 0.1526059
 0.15144 0.1499635 0.1482372 0.1463752 0.144525 0.1428291 0.1413828 0.1402222 0.1393387 0.1386823
 0.1381715 0.1377396 0.1373809 0.1371452 0.1370891 0.1372114 0.1374072 0.1375199 0.1374875 0.1374206
 0.1375 0.1378238 0.1383693 0.1390463 0.1397483 0.1403801 0.1408745 0.1411965 0.1413538 0.1413949
 0.1413647 0.141266 0.1410893 0.1408531 0.1405823 0.1402758 0.1399143 0.1394742 0.1389319 0.1382838
 0.1375498 0.136745 0.1358728 0.1349355 0.1339094 0.1327479 0.1314873 0.1303258 0.1295358 0.1292967
 0.1296065 0.1302973 0.1311477 0.1320228 0.1328587 0.1335001 0.1337372 0.1336512 0.1337906 0.134777
 0.1367041 0.1390238 0.1410307 0.1423611 0.1430168 0.1430919 0.1426403 0.1417095 0.1403176 0.1384321
 0.1360778 0.1333881 0.1304968 0.127512 0.1246151 0.1220201 0.1198352 0.1180632 0.1166786 0.1157195
 0.1153248 0.1151383 0.1133458 0.1076401 0.09877436 0.09213366 0.09321104 0.1014357 0.1105668 0.1152833
 0.115418 0.1137825 0.1123313 0.1113838 0.1108704 0.1109439 0.1117261 0.1130657 0.1145659 0.1158175
 0.1166453 0.1170658 0.1170187 0.1161724 0.1138716 0.1093402 0.1023163 0.09363718 0.08495709 0.07777293
 0.07275689 0.06978796 0.06827679 0.06750815 0.06700014 0.06671832 0.06695364 0.06798742 0.0698633 0.07243051
 0.07549234 0.07879716 0.08195308 0.08457686 0.08658123 0.08815689 0.08944964 0.09040391 0.09091339 0.09096561
 0.09062994 0.09001817 0.08926369 0.08846104 0.0876012 0.08660055 0.08544648 0.08432245 0.0835105 0.08312607
 0.0830295 0.0830254 0.08303145 0.0830307 0.08300364 0.08295286 0.08290683 0.0829037 0.08301859 0.08333027
 0.08380166 0.08427073 0.08459781 0.08476731 0.08484524 0.08486111 0.08471222 0.08424816 0.0835363 0.08290104
 0.08250981 0.08207041 0.08120156 0.08000721 0.07902767 0.07866544 0.07884772 0.07920608 0.07941151 0.07934698
 0.07912861 0.07903816 0.07931733 0.07989214</values></Ydata></ScSm><ScRf><Ydata ylabel="Single channel"><values byteorder="INTEL" format="FLOAT32" numvalues="1820"> 0.06056545 0.06071705 0.06081088 0.06084937 0.06085424 0.06086444 0.0609228 0.06105094 0.06123187 0.06141497
 0.06154751 0.06161163 0.06162407 0.06160218 0.06155753 0.06152795 0.06157614 0.06172879 0.06193216 0.06208585
 0.06212375 0.06207427 0.06204363 0.06211141 0.06222294 0.06220902 0.06194559 0.06149559 0.06106656 0.06082062
 0.06077584 0.06092891 0.06135437 0.06200488 0.06249047 0.06235724 0.06165474 0.06096248 0.06074539 0.06090869
 0.06106763 0.06099265 0.06068045 0.06027141 0.06009304 0.06056981 0.0618072 0.06324963 0.06387729 0.06284458
 0.06008282 0.05650455 0.05367291 0.05295999 0.05457475 0.05728302 0.05933607 0.05986664 0.05930505 0.05849813
 0.05780265 0.057187 0.05680815 0.0570465 0.0579773 0.0590113 0.05918951 0.05799445 0.05596469 0.0543244
 0.05387059 0.05446655 0.05568067 0.05725896 0.05846121 0.05769189 0.05406887 0.04939722 0.04735932 0.05001484
 0.0556049 0.06027935 0.06152266 0.05954804 0.05616689 0.05328929 0.05221564 0.05328327 0.05579643 0.0586094
 0.06082684 0.06184351 0.06118899 0.05893813 0.0561085 0.05416095 0.05410282 0.05610298 0.05945747 0.06264016
 0.06399421 0.06296447 0.06047051 0.05792948 0.056318 0.05618364 0.05778883 0.06082798 0.06440931 0.06757966
 0.06971809 0.07058562 0.07036674 0.06955791 0.06859176 0.06776409 0.06750047 0.06809461 0.06901002 0.06908578
 0.06780697 0.06599775 0.06497159 0.06517358 0.06582856 0.06588261 0.06506662 0.06370708 0.06167302 0.05838595
 0.05413388 0.05039624 0.04836295 0.04803743 0.04912887 0.05151744 0.05421045 0.05526729 0.05391306 0.0519003
 0.05176026 0.05411019 0.05733727 0.05959267 0.06050932 0.06109165 0.0624119 0.0644992 0.06618487 0.06597668
 0.06353854 0.06052564 0.05941395 0.06107319 0.06393909 0.06594865 0.0667184 0.06731573 0.0683897 0.06916396
 0.06824252 0.06526522 0.06180644 0.06040501 0.06234933 0.06638442 0.06961846 0.06965667 0.06621474 0.06119863
 0.05722393 0.05580059 0.05692051 0.06005376 0.06473318 0.07003478 0.07433954 0.07623512 0.07553948 0.07322992
 0.07032996 0.06695941 0.06285752 0.0589568 0.0575854 0.06026398 0.06575377 0.0710866 0.07421483 0.0750338
 0.07422017 0.07195765 0.06813751 0.06361179 0.06060623 0.06098954 0.06402802 0.06680417 0.06727387 0.0661256
 0.06528091 0.06548516 0.06602873 0.06623857 0.06644306 0.06742513 0.0693136 0.07129166 0.07239415 0.07238547
 0.07179808 0.07130952 0.07112703 0.07083981 0.07000507 0.06904484 0.06918383 0.07110003 0.07397947 0.07634874
 0.07754847 0.0779644 0.07803384 0.07748915 0.0757468 0.07299942 0.07066494 0.07033132 0.07221557 0.07502785
 0.07731537 0.07850961 0.07878387 0.07852152 0.07805847 0.07757895 0.07716915 0.0770466 0.07750773 0.07850027
 0.07952648 0.08014104 0.08031323 0.08020043 0.07983482 0.07919897 0.07845736 0.07794807 0.07793546 0.0784118
 0.07915371 0.07992234 0.08053912 0.0808362 0.08071825 0.08030406 0.07985894 0.07955164 0.07939245 0.07939607
 0.07963627 0.08009708 0.08060224 0.08096228 0.08112474 0.08114653 0.08108304 0.08095069 0.08076702 0.08059353
 0.08053111 0.08064842 0.08089763 0.08114731 0.08133729 0.08154164 0.08181728 0.08205965 0.08210512 0.0819429
 0.08173595 0.0816426 0.08168536 0.08178964 0.0818764 0.08188015 0.08173007 0.08140717 0.08103982 0.08086238
 0.08102649 0.08149105 0.08210346 0.08270914 0.08317456 0.0834184 0.08347402 0.08345181 0.08340932 0.08331195
 0.08313203 0.0829391 0.08287619 0.08305162 0.08344126 0.0838974 0.08426501 0.08447792 0.08455851 0.08458809
 0.0846768 0.08487572 0.08509615 0.08519107 0.08513627 0.08506425 0.08510038 0.08522068 0.08529669 0.08525199
 0.08514995 0.08512584 0.08524582 0.0854529 0.08565019 0.08580807 0.08597413 0.08618995 0.08640854 0.08650976
 0.08642276 0.08622153 0.08605554 0.08599439 0.08599951 0.08604136 0.08615921 0.08637256 0.08659925 0.08672222
 0.08672 0.08668694 0.08671714 0.086796 0.08682448 0.08673529 0.08656262 0.08640385 0.08633655 0.08637111
 0.08645716 0.08652228 0.08651702 0.08644021 0.08632812 0.08622029 0.08613694 0.0860929 0.08612514 0.08627681
 0.08652811 0.08675659 0.08680903 0.08663753 0.08635406 0.08613342 0.08605881 0.08606485 0.08602181 0.08586127
 0.08561891 0.08537761 0.08519022 0.08505511 0.08494476 0.08484639 0.08478416 0.08480729 0.08493762 0.08511156
 0.08519497 0.08509195 0.08483849 0.08456624 0.08438321 0.08431002 0.08430588 0.08431797 0.08432014 0.08433469
 0.08439703 0.08448337 0.08451243 0.08444345 0.08433401 0.08428106 0.08434226 0.08451693 0.08474533 0.08491555
 0.08493523 0.08482593 0.08470911 0.08468346 0.08474682 0.08484106 0.08492978 0.0850116 0.08509087 0.08517115
 0.08527334 0.08543264 0.08566408 0.08593741 0.08619228 0.08637905 0.08649336 0.08658408 0.0867255 0.08696378
 0.08727788 0.08759569 0.08785436 0.08804758 0.08821478 0.0883904 0.08857641 0.08876929 0.0889916 0.08927159
 0.08959956 0.08993162 0.09023637 0.09051782 0.09079444 0.09107565 0.09136271 0.09166456 0.09200673 0.09241068
 0.09284818 0.09323139 0.09348142 0.09361146 0.09372456 0.09392995 0.09426364 0.09466325 0.09500344 0.09519137
 0.09526091 0.09534875 0.09554863 0.09581915 0.09606887 0.09629853 0.09660141 0.09702866 0.09750495 0.09789537
 0.09813382 0.09827304 0.09841645 0.09860945 0.0988041 0.09893366 0.09900522 0.09908984 0.09923019 0.09940725
 0.09961005 0.09988227 0.1002571 0.1006814 0.1010529 0.1013174 0.1014963 0.1016348 0.1017581 0.1018641
 0.1019338 0.1019606 0.1019807 0.102046 0.1021557 0.1022501 0.1022903 0.1023124 0.1023806 0.1025216
 0.1027305 0.1030019 0.1033161 0.1036195 0.1038716 0.1041092 0.1044127 0.1047895 0.1051336 0.1053369
 0.1054058 0.1054284 0.1054582 0.1054927 0.1055474 0.105679 0.105919 0.106233 0.1065643 0.1068902
 0.1072213 0.1075643 0.1078919 0.108144 0.1082672 0.1082651 0.1082091 0.1081979 0.1083027 0.1085365
 0.1088532 0.1091789 0.1094546 0.1096502 0.1097458 0.1097344 0.1096632 0.1096393 0.1097448 0.1099436
 0.1100985 0.1100867 0.109878 0.109506 0.1090023 0.1083881 0.1077102 0.1070529 0.1065019 0.1061064
 0.1058831 0.1058532 0.1060564 0.1065081 0.1071456 0.1078435 0.1084857 0.1089969 0.1093038 0.1093194
 0.1090059 0.1084291 0.10772 0.1069965 0.1063262 0.1057237 0.1051549 0.1045817 0.1040454 0.1036996
 0.1037354 0.1042703 0.1052943 0.1066797 0.1082175 0.1096811 0.1109138 0.1118882 0.1126807 0.1133854
 0.1140541 0.1147096 0.1153752 0.1160549 0.1167046 0.1172646 0.1177265 0.1181374 0.1185396 0.1189325
 0.1192871 0.1195757 0.1197945 0.1199758 0.1201613 0.120344 0.1204616 0.1204674 0.1203858 0.1202753
 0.1201569 0.1199983 0.119751 0.1193919 0.1189547 0.1185525 0.1183664 0.1185727 0.1192425 0.1202943
 0.1215535 0.1228627 0.1241271 0.1252693 0.1261999 0.1268677 0.1273124 0.1276332 0.1279162 0.1282037
 0.1285079 0.128824 0.1291372 0.1294353 0.1297177 0.1299963 0.1302909 0.130614 0.1309486 0.1312521
 0.1314998 0.1317219 0.1319835 0.1323228 0.1327119 0.1330855 0.1334095 0.1337113 0.1340286 0.134347
 0.1346141 0.1348113 0.1349814 0.1351862 0.1354613 0.1358036 0.136171 0.1364972 0.1367384 0.1369139
 0.1370822 0.137281 0.1375052 0.137738 0.1379764 0.138224 0.1384793 0.1387439 0.1390308 0.1393454
 0.1396577 0.1399141 0.1400894 0.1402194 0.1403677 0.1405654 0.1407924 0.1410109 0.141208 0.1414084
 0.1416496 0.1419394 0.1422373 0.1424848 0.1426587 0.1427875 0.1429203 0.1430871 0.1432889 0.1435114
 0.1437381 0.1439535 0.14415 0.1443354 0.1445285 0.1447419 0.1449699 0.1451954 0.1454065 0.1456054
 0.145802 0.1460027 0.1462116 0.1464412 0.1467088 0.1470103 0.1473052 0.1475447 0.1477146 0.1478426
 0.1479668 0.1481085 0.1482706 0.1484503 0.1486446 0.1488494 0.1490574 0.1492615 0.1494609 0.1496606
 0.1498637 0.1500686 0.150274 0.1504823 0.1506966 0.1509179 0.1511438 0.1513677 0.1515811 0.1517795
 0.1519664 0.1521521 0.1523474 0.1525531 0.152757 0.1529461 0.1531228 0.1533019 0.1534929 0.153691
 0.153887 0.1540769 0.1542646 0.1544573 0.1546577 0.1548616 0.1550634 0.1552636 0.155466 0.1556713
 0.1558758 0.1560751 0.1562668 0.1564527 0.1566378 0.1568272 0.1570236 0.1572274 0.157436 0.1576438
 0.1578455 0.1580418 0.1582387 0.1584417 0.1586493 0.1588532 0.1590475 0.1592365 0.1594281 0.1596224
 0.1598137 0.1600016 0.1601918 0.1603892 0.160596 0.1608129 0.1610368 0.1612605 0.1614781 0.1616886
 0.1618955 0.1621055 0.1623217 0.1625382 0.1627467 0.1629493 0.1631581 0.1633806 0.1636098 0.1638271
 0.1640165 0.1641791 0.1643321 0.1644905 0.1646556 0.1648252 0.1650019 0.1651884 0.165383 0.1655836
 0.1657878 0.165992 0.1661958 0.1664025 0.1666107 0.1668143 0.167012 0.1672085 0.167407 0.1676084
 0.1678113 0.168013 0.1682136 0.1684197 0.1686342 0.1688504 0.1690617 0.1692703 0.1694808 0.1696941
 0.1699075 0.170115 0.1703117 0.1705037 0.1707025 0.1709113 0.1711252 0.171343 0.171563 0.1717782
 0.1719854 0.1721904 0.1723968 0.172601 0.1727991 0.1729908 0.1731819 0.1733849 0.1736062 0.1738347
 0.1740559 0.1742687 0.1744785 0.1746887 0.1749059 0.1751344 0.1753648 0.1755847 0.1757952 0.1760028
 0.17621 0.176419 0.1766264 0.1768105 0.1769263 0.1768691 0.1763688 0.1748775 0.1715512 0.1654192
 0.1557713 0.1426055 0.1267821 0.1097163 0.09285896 0.07732172 0.06376518 0.05247484 0.04349964 0.03675166
 0.03207442 0.02933757 0.02852902 0.02985683 0.03386927 0.04113363 0.05100067 0.06050636 0.06552386 0.06402281
 0.05800991 0.05169916 0.04801082 0.04716066 0.04791193 0.04920307 0.05068934 0.05255175 0.05511723 0.05848768
 0.06251658 0.0672016 0.07287641 0.07978152 0.08755194 0.09536879 0.1026592 0.1095439 0.1165581 0.1240032
 0.1316256 0.1388658 0.1453033 0.1508615 0.1557168 0.1601108 0.1642205 0.1681302 0.1718677 0.1754104
 0.1786259 0.1812474 0.1829904 0.183762 0.1837766 0.1834484 0.1831473 0.1830429 0.1831437 0.1834145
 0.183831 0.1843749 0.1850299 0.1857777 0.1865881 0.1874236 0.1882567 0.1890712 0.1898536 0.1905914
 0.1912735 0.1918903 0.1924418 0.1929411 0.1934012 0.1938266 0.1942224 0.1945993 0.1949638 0.1953169
 0.1956585 0.1959834 0.1962797 0.1965412 0.196775 0.196994 0.1972096 0.1974303 0.1976563 0.1978771
 0.1980838 0.1982786 0.1984696 0.1986652 0.1988699 0.1990816 0.1992917 0.1994956 0.1996958 0.199894
 0.2000889 0.2002812 0.2004728 0.200662 0.2008481 0.2010373 0.2012338 0.2014323 0.2016235 0.2018043
 0.2019808 0.2021635 0.2023588 0.2025637 0.2027705 0.2029791 0.2031957 0.2034224 0.2036543 0.2038848
 0.2041082 0.2043205 0.204524 0.2047241 0.2049175 0.2050922 0.2052442 0.2053905 0.205561 0.2057751
 0.2060227 0.2062688 0.2064852 0.2066729 0.2068526 0.20704 0.2072341 0.2074242 0.2076044 0.2077878
 0.2079955 0.2082295 0.2084707 0.2087092 0.2089528 0.2092021 0.2094457 0.2096812 0.2099115 0.2101222
 0.2102922 0.2104322 0.210595 0.2108373 0.2111665 0.211524 0.2118333 0.2120689 0.2122684 0.212487
 0.2127562 0.2130534 0.2132841 0.2133509 0.2132938 0.2133108 0.2135739 0.2140583 0.2145957 0.2150507
 0.2154023 0.2156935 0.2159551 0.2161745 0.2163104 0.2163408 0.2163171 0.2163737 0.2166395 0.2171104
 0.2176399 0.2180834 0.2184092 0.2186548 0.2188546 0.2190308 0.219154 0.2190934 0.218755 0.2183258
 0.2182269 0.2187108 0.219583 0.2204137 0.2209628 0.2213026 0.2215842 0.221845 0.2220529 0.2221354
 0.2218782 0.221052 0.2198643 0.2190829 0.2193972 0.2207199 0.2223257 0.2235762 0.2243165 0.2247064
 0.2249464 0.2251489 0.2252535 0.2250284 0.2243338 0.2234711 0.2231055 0.2236527 0.2248127 0.2258923
 0.2265092 0.2267885 0.2269969 0.2272444 0.2274125 0.2270975 0.2258312 0.2237747 0.2220843 0.2221001
 0.2240309 0.226702 0.2287191 0.2296704 0.2300253 0.2301142 0.2296497 0.2282556 0.2260274 0.2234907
 0.2214586 0.2209415 0.2224723 0.225246 0.227576 0.2285663 0.2288664 0.2295726 0.2309107 0.2322419
 0.2329062 0.2327374 0.2319413 0.2307234 0.2291925 0.2277208 0.2271551 0.2282101 0.2306027 0.233156
 0.234888 0.2357579 0.2361568 0.2357603 0.2332899 0.2280537 0.2218804 0.2186114 0.2207 0.22664
 0.2325808 0.236112 0.2375783 0.2382696 0.238705 0.2384857 0.2365092 0.2315613 0.2242076 0.2180019
 0.2170837 0.2220763 0.2293815 0.2345519 0.2353414 0.2319427 0.2261628 0.2208692 0.2188215 0.2210037
 0.2262025 0.2322016 0.2371053 0.2398518 0.2402004 0.2386282 0.2362899 0.234737 0.234796 0.2353391
 0.2341391 0.2306889 0.2270564 0.2248423 0.2226848 0.2187584 0.2147918 0.2149235 0.2203366 0.2272917
 0.2313366 0.2318187 0.2310583 0.2300929 0.2268611 0.2191519 0.2088009 0.2017448 0.2028343 0.2108034
 0.2194082 0.2235528 0.2233344 0.2221686 0.222226 0.2222286 0.2192538 0.2125649 0.2055061 0.2026766
 0.2050115 0.2089332 0.210551 0.2087362 0.2036991 0.195751 0.187593 0.1850827 0.1922581 0.2063636
 0.2200365 0.2273688 0.226005 0.2157573 0.1994811 0.1848789 0.1807333 0.1889993 0.2024155 0.2112056
 0.2108107 0.2026084 0.1897448 0.1750678 0.1625294 0.1574742 0.1633935 0.1784394 0.1955212 0.2057714
 0.2033925 0.1902157 0.1762156 0.1722988 0.1802915 0.1916641 0.1971118 0.1950191 0.1900167 0.1870511
 0.1885706 0.1941668 0.2009869 0.2063928 0.2100458 0.2108362 0.2040195 0.1869096 0.1663847 0.1543673
 0.155441 0.164444 0.1760172 0.1894469 0.2025429 0.2082824 0.202738 0.1925506 0.1893192 0.1972796
 0.2096609 0.2169883 0.2164746 0.2125497 0.2099802 0.2087684 0.2065529 0.2041456 0.2057094 0.2130527
 0.2225061 0.2290158 0.2313821 0.2318366 0.2322298 0.2326207 0.2325398 0.2318157 0.2305026 0.2290092
 0.2279788 0.2275563 0.2272501 0.2266836 0.2255601 0.2224948 0.2153121 0.2041032 0.1931933 0.1877272
 0.1882106 0.190833 0.1931176 0.1953545 0.1953281 0.1868676 0.1680099 0.1476554 0.1390972 0.1471865
 0.1647191 0.1806211 0.1884343 0.1868651 0.176435 0.1596284 0.1435402 0.1377119 0.1463708 0.1643563
 0.1826111 0.1959892 0.2039272 0.2061473 0.2016171 0.1915775 0.1808416 0.1750752 0.177305 0.1865389
 0.1981462 0.205127 0.2015039 0.1882031 0.1757136 0.1764238 0.1916635 0.2095587 0.2183846 0.2184723
 0.2175966 0.2188861 0.2191925 0.217479 0.2182764 0.2254062 0.2363314 0.2446607 0.2457659 0.238601
 0.2251374 0.210888 0.2034913 0.2065433 0.2154497 0.2223854 0.2238583 0.2202477 0.2111863 0.1975471
 0.1863855 0.1866806 0.1989291 0.2139798 0.2234348 0.2272879 0.2301084 0.2331794 0.2329672 0.2265096
 0.2164005 0.2091972 0.2089328 0.2135765 0.2184409 0.2211266 0.2215214 0.2189685 0.2126887 0.2049901
 0.2012905 0.2053777 0.2154513 0.2257895 0.2318599 0.2331382 0.23172 0.2296188 0.2274392 0.2245761
 0.2205468 0.2166992 0.2159547 0.2196958 0.225571 0.2299098 0.2319264 0.2339906 0.2379055 0.24243
 0.2447937 0.2437174 0.2406226 0.238381 0.2390017 0.2420389 0.2449338 0.245205 0.2428098 0.2404046
 0.240902 0.2446947 0.2495976 0.2533303 0.2553774 0.2565254 0.2575185 0.2584037 0.2585029 0.2569371
 0.2538698 0.2512114 0.2512566 0.254409 0.258801 0.2622242 0.2639077 0.2643818 0.264263 0.2636169
 0.262321 0.2606419 0.2592391 0.2586406 0.2588648 0.2595695 0.2604101 0.2611822 0.2617817 0.2621891
 0.2624569 0.2626388 0.2627565 0.2628397 0.2629202 0.2629663 0.2629148 0.2628066 0.2628062 0.2630187
 0.2633468 0.2635868 0.263609 0.2633725 0.2628243 0.2619057 0.2606608 0.2592289 0.2576899 0.2560161
 0.254282 0.2528886 0.2524431 0.2533099 0.2552757 0.2576782 0.2598512 0.2614475 0.2624397 0.2629573
 0.263167 0.263218 0.2632045 0.2631477 0.2630237 0.2628129 0.262523 0.2621777 0.2617977 0.2614033
 0.261028 0.2607073 0.2604392 0.2601697 0.2598323 0.2593992 0.2588934 0.2583592 0.2578268 0.2572865
 0.2566881 0.2559761 0.2551369 0.2542151 0.253289 0.2524244 0.2516344 0.2508773 0.2500988 0.2492701
 0.2483713 0.2473644 0.2462337 0.245057 0.243985 0.2431194 0.2424289 0.241797 0.2411221 0.240358
 0.2394949 0.2385415 0.2375209 0.2364584 0.2353655 0.2342391 0.2330654 0.2318203 0.2304827 0.229051
 0.2275396 0.2259641 0.2243443 0.2227054 0.2210453 0.2192964 0.2173342 0.2150198 0.2122301 0.208875
 0.2049271 0.2004544 0.195623 0.1906538 0.1857569 0.1810913 0.1767726 0.1729 0.1695642 0.1668364
 0.1647637 0.163375 0.1626866 0.162706 0.1634289 0.1648252 0.1668244 0.1693147 0.1721496 0.1751542
 0.1781431 0.1809569 0.1835091 0.1858134 0.1879553 0.1900081 0.1919688 0.1937813 0.1954036 0.1968277
 0.1980483 0.1990541 0.1998589 0.2005146 0.2010797 0.2015812 0.2020155 0.2023788 0.2026825 0.2029394
 0.2031523 0.2033291 0.2034973 0.203689 0.2039191 0.2041829 0.2044693 0.2047756 0.2051193 0.2055295
 0.2060167 0.2065606 0.2071342 0.2077298 0.2083538 0.2090135 0.2097258 0.2105294 0.211474 0.2125878
 0.2138561 0.2152286 0.2166363 0.2179971 0.2192229 0.2202422 0.2210194 0.2215472 0.2218339 0.2219086
 0.2218206 0.2216144 0.2213104 0.2209179 0.2204535 0.2199383 0.2193843 0.2187917 0.2181565 0.21748
 0.2167751 0.2160632 0.2153648 0.21469 0.2140361 0.2133916 0.2127479 0.2121076 0.2114836 0.2108914
 0.2103384 0.2098111 0.2092797 0.2087242 0.2081515 0.2075697 0.2069519 0.2062453 0.20542 0.2044892
 0.203475 0.2023724 0.2011607 0.1998402 0.1984377 0.1969798 0.195473 0.1939114 0.1922915 0.1906073
 0.1888364 0.1869457 0.184934 0.1828686 0.1808637 0.1790087 0.1773205 0.1757631 0.174296 0.1728982
 0.1715616 0.1702775 0.16904 0.1678565 0.1667426 0.1657009 0.1647167 0.1637793 0.1628978 0.1620905
 0.1613726 0.1607516 0.1602233 0.1597693 0.159366 0.159002 0.1586963 0.1585018 0.1584627 0.1585522
 0.1586699 0.1587138 0.1586447 0.1584876 0.1583011 0.1581423 0.1580369 0.157976 0.1579393 0.1578982
 0.1577921 0.1575248 0.1569949 0.1561307 0.1549174 0.153403 0.1516738 0.1498317 0.1479995 0.146309
 0.1448543 0.1436707 0.1427572 0.1420827 0.1415787 0.1411776 0.1408676 0.1406957 0.1407161 0.1409211
 0.1411946 0.1413675 0.1413733 0.1413309 0.1414442 0.14184 0.1425012 0.1432988 0.1440759 0.1447375
 0.1452655 0.1456587 0.1459109 0.1460437 0.1460964 0.1460766 0.1459685 0.1457742 0.1455127 0.1452011
 0.144848 0.1444396 0.1439473 0.1433673 0.1427163 0.1419862 0.1411603 0.1402494 0.139248 0.138115
 0.1368925 0.1357926 0.135088 0.1349423 0.1353419 0.136124 0.1370849 0.1381098 0.1391317 0.1399572
 0.1403349 0.1403395 0.1405457 0.1416095 0.143644 0.1460898 0.148208 0.1496182 0.1503338 0.1504603
 0.1500532 0.1491627 0.1477938 0.1458702 0.1433842 0.1404916 0.1373812 0.1342033 0.1311454 0.1283953
 0.1260393 0.1241024 0.1225983 0.121573 0.1211604 0.1209961 0.1191757 0.1132405 0.1039629 0.09703673
 0.09826354 0.1070102 0.1166627 0.1216163 0.1217315 0.1200093 0.1185156 0.1175573 0.1170329 0.1170991
 0.1178806 0.1192026 0.1206524 0.1218335 0.1225956 0.1229817 0.1229466 0.1221231 0.1197664 0.1150243
 0.1076307 0.09848253 0.08932441 0.08174112 0.07645048 0.07332078 0.07172352 0.07090273 0.07034856 0.07003337
 0.07028288 0.07139067 0.07337563 0.07607083 0.0792889 0.0827777 0.08612478 0.08892749 0.09108141 0.09276001
 0.09410927 0.09509011 0.09560908 0.09566706 0.09535328 0.09478168 0.09406367 0.09327757 0.09240985 0.09136409
 0.09011972 0.08888283 0.08797039 0.08751346 0.08737053 0.08734076 0.08734027 0.08735818 0.08737243 0.08735356
 0.08729551 0.08724452 0.08731221 0.08759712 0.08806451 0.08855441 0.08891952 0.0891238 0.08921681 0.08921316
 0.08899327 0.08841697 0.08759633 0.08688389 0.08642511 0.08589193 0.08490151 0.08359498 0.08255672 0.08219603
 0.08239582 0.08273953 0.08289696 0.08278117 0.08252923 0.08243383 0.08274397 0.08336978 0.08386406 0.08384437
</values></Ydata></ScRf><Data_Parameters_AB><parameter name="DPF">1</parameter><parameter name="NPT">3497</parameter><parameter name="FXV">3996</parameter><parameter name="LXV">500</parameter><parameter name="CSF">1</parameter><parameter name="MXY">0.0481952875852585</parameter><parameter name="MNY">-0.0521994046866894</parameter><parameter name="DAT">27/05/2022</parameter><parameter name="TIM">11:54:26.467 (GMT+2)</parameter><parameter name="DXU">WN</parameter></Data_Parameters_AB><AB__Qtest><MainReport name="Quality Test Report"><Header><Line><Legend>Test result ok/not ok [1/0]: </Legend><Value>0</Value></Line><Line><Legend>Method file: </Legend><Value>C:\Users\Public\Documents\Bruker\OPUS_8.2.28\QT\IRBT_v3_default.QT</Value></Line></Header><Matrix><Line><Legend></Legend><Legend>min</Legend><Legend>max</Legend><Legend>measured</Legend></Line><Line><Value>Absorption (X-Range 1):</Value><Value>0.400000</Value><Value>2.000000</Value><Value>0.057491</Value></Line><Line><Value>Noise (X-Range 4):</Value><Value></Value><Value>0.000300</Value><Value>0.000051</Value></Line><Line><Value>Signal/Noise (X-Range 2):</Value><Value>200.000000</Value><Value></Value><Value>18.717345</Value></Line><Line><Value>Signal/Noise (X-Range 3):</Value><Value>40.000000</Value><Value></Value><Value>10.890221</Value></Line><Line><Value>Water vapour (X-Range 5):</Value><Value></Value><Value>0.000300</Value><Value>0.000026</Value></Line><Line><Value>Signal/Water (X-Range 2):</Value><Value>100.000000</Value><Value></Value><Value>36.921168</Value></Line><Line><Value>Signal/Water (X-Range 3):</Value><Value>20.000000</Value><Value></Value><Value>21.481663</Value></Line><Line><Value>Fringes (X-Range 6):</Value><Value></Value><Value>0.000100</Value><Value>0.000055</Value></Line></Matrix></MainReport></AB__Qtest><Data_Parameters_ScSm><parameter name="DPF">1</parameter><parameter name="NPT">1814</parameter><parameter name="FXV">3996.33169228125</parameter><parameter name="LXV">499.541461535156</parameter><parameter name="CSF">1</parameter><parameter name="MXY">0.262490451335907</parameter><parameter name="MNY">0.0311340913176537</parameter><parameter name="DAT">27/05/2022</parameter><parameter name="TIM">11:54:26.467 (GMT+2)</parameter><parameter name="DXU">WN</parameter></Data_Parameters_ScSm><Data_Parameters_ScRf><parameter name="DPF">1</parameter><parameter name="NPT">1820</parameter><parameter name="FXV">4004.04661832813</parameter><parameter name="LXV">495.683998511719</parameter><parameter name="CSF">1</parameter><parameter name="MXY">0.26438182592392</parameter><parameter name="MNY">0.028529018163681</parameter><parameter name="DAT">27/05/2022</parameter><parameter name="TIM">11:54:00.618 (GMT+2)</parameter><parameter name="DXU">WN</parameter></Data_Parameters_ScRf><Optic_Parameters_Rf><parameter name="APR">0</parameter><parameter name="APT">Open</parameter><parameter name="BMS">KBr</parameter><parameter name="DTC">RT-DLaTGS_IR-Biotyper [Microplate reader]</parameter><parameter name="HPF">0</parameter><parameter name="LPF">10.0</parameter><parameter name="LPV">4000</parameter><parameter name="PGR">0</parameter><parameter name="RCH">Module port</parameter><parameter name="RDX">0</parameter><parameter name="SRC">MIR</parameter><parameter name="VEL">10.0</parameter><parameter name="SON">Off</parameter></Optic_Parameters_Rf><Acquisition_Parameters_Rf><parameter name="ADT">1</parameter><parameter name="AQM">DD</parameter><parameter name="CFE">0</parameter><parameter name="COR">0</parameter><parameter name="DEL">0</parameter><parameter name="DLY">0</parameter><parameter name="HFW">8000</parameter><parameter name="LFW">0</parameter><parameter name="NSR">32</parameter><parameter name="PLF">AB</parameter><parameter name="RES">6</parameter><parameter name="RGN">-1</parameter><parameter name="STR">0</parameter><parameter name="TCL">MakeCompatibleScalar (0, {WSV=1.000000, ARV=0});</parameter><parameter name="TDL">37</parameter><parameter name="RPO">0</parameter></Acquisition_Parameters_Rf><FT_-_Parameters_Rf><parameter name="APF">B3</parameter><parameter name="HFQ">500</parameter><parameter name="LFQ">4000</parameter><parameter name="NLI">0</parameter><parameter name="PHR">24</parameter><parameter name="PHZ">ML</parameter><parameter name="SPZ">NO</parameter><parameter name="ZFF">1</parameter></FT_-_Parameters_Rf><Optic_Parameters_><parameter name="APR">0</parameter><parameter name="APT">Open</parameter><parameter name="BMS">KBr</parameter><parameter name="CHN">Module port</parameter><parameter name="DTC">RT-DLaTGS_IR-Biotyper [Microplate reader]</parameter><parameter name="HPF">0</parameter><parameter name="LPF">10.0</parameter><parameter name="LPV">4000</parameter><parameter name="PGN">0</parameter><parameter name="RDX">0</parameter><parameter name="SRC">MIR</parameter><parameter name="VEL">10.0</parameter><parameter name="SON">Off</parameter></Optic_Parameters_><FT_-_Parameters_><parameter name="APF">B3</parameter><parameter name="HFQ">500</parameter><parameter name="LFQ">4000</parameter><parameter name="NLI">0</parameter><parameter name="PHR">24</parameter><parameter name="PHZ">ML</parameter><parameter name="SPZ">NO</parameter><parameter name="ZFF">1</parameter></FT_-_Parameters_><Acquisition_Parameters_><parameter name="ADT">1</parameter><parameter name="AQM">DD</parameter><parameter name="CFE">0</parameter><parameter name="COR">0</parameter><parameter name="DEL">0</parameter><parameter name="DLY">0</parameter><parameter name="HFW">8000</parameter><parameter name="LFW">0</parameter><parameter name="NSS">32</parameter><parameter name="PLF">AB</parameter><parameter name="RES">6</parameter><parameter name="SOT">0</parameter><parameter name="TCL">MakeCompatibleScalar (0, {WSV=1.000000, ARV=0});</parameter><parameter name="TDL">37</parameter><parameter name="SPO">0</parameter><parameter name="SGN">-1</parameter></Acquisition_Parameters_><Instrument_Parameters_Rf><parameter name="HFL">15800.168544</parameter><parameter name="LFL">0</parameter><parameter name="LWN">15800.168544</parameter><parameter name="ABP">32197</parameter><parameter name="SSP">1</parameter><parameter name="ARG">2</parameter><parameter name="ASG">2</parameter><parameter name="ASS">32</parameter><parameter name="GFW">16</parameter><parameter name="GBW">16</parameter><parameter name="BFW">0</parameter><parameter name="BBW">0</parameter><parameter name="PKA">7267</parameter><parameter name="PKL">4996</parameter><parameter name="PRA">7448</parameter><parameter name="PRL">5001</parameter><parameter name="P2A">1</parameter><parameter name="P2L">1</parameter><parameter name="P2R">1</parameter><parameter name="P2K">1</parameter><parameter name="DAQ">0</parameter><parameter name="AG2">1</parameter><parameter name="SSM">1</parameter><parameter name="RSN">24906</parameter><parameter name="CRR">0</parameter><parameter name="SRT">1653652440.618</parameter><parameter name="DUR">19.635986328125</parameter><parameter name="TSC">27.9</parameter><parameter name="MVD">0.279743373394012</parameter><parameter name="AN1">0.225772238438298</parameter><parameter name="AN2">0</parameter><parameter name="VSN">2.485 Apr  4 2017</parameter><parameter name="SRN">0085</parameter><parameter name="CAM">0</parameter><parameter name="INS">IR-Biotyper</parameter><parameter name="FOC">69</parameter><parameter name="RDY">1</parameter><parameter name="ARS">32</parameter></Instrument_Parameters_Rf><Sample_Parameters_><parameter name="BLD"></parameter><parameter name="CNM">Admin</parameter><parameter name="CPY"></parameter><parameter name="DPM"></parameter><parameter name="EXP">IRBT_v3_32Scans.XPM</parameter><parameter name="LCT"></parameter><parameter name="SFM">Microplate, HTS-XT</parameter><parameter name="SNM">220527-1039(v.2)_CLA33F (D_4)_E7_2eabe89d-ac5a-491c-a6c4-7fbe5459479c.0</parameter><parameter name="XPP">C:\Users\Public\Documents\Bruker\OPUS_8.2.28\XPM</parameter><parameter name="IST">OK</parameter><parameter name="CPG">1252</parameter><parameter name="UID">3754aede-a767-4137-a154-2ecf03a01f25</parameter></Sample_Parameters_><Instrument_Parameters_><parameter name="HFL">15800.168544</parameter><parameter name="LFL">0</parameter><parameter name="LWN">15800.168544</parameter><parameter name="ABP">32197</parameter><parameter name="SSP">1</parameter><parameter name="ASG">2</parameter><parameter name="ARG">2</parameter><parameter name="ASS">32</parameter><parameter name="GFW">16</parameter><parameter name="GBW">16</parameter><parameter name="BFW">0</parameter><parameter name="BBW">0</parameter><parameter name="PKA">7432</parameter><parameter name="PKL">4988</parameter><parameter name="PRA">7719</parameter><parameter name="PRL">4993</parameter><parameter name="P2A">1</parameter><parameter name="P2L">1</parameter><parameter name="P2R">1</parameter><parameter name="P2K">1</parameter><parameter name="DAQ">0</parameter><parameter name="AG2">1</parameter><parameter name="SSM">1</parameter><parameter name="RSN">13079</parameter><parameter name="CRR">0</parameter><parameter name="SRT">1653652466.468</parameter><parameter name="DUR">19.635986328125</parameter><parameter name="TSC">27.9</parameter><parameter name="MVD">0.249613955616951</parameter><parameter name="AN1">0.225820206235911</parameter><parameter name="AN2">0</parameter><parameter name="VSN">2.485 Apr  4 2017</parameter><parameter name="SRN">0085</parameter><parameter name="CAM">0</parameter><parameter name="INS">IR-Biotyper</parameter><parameter name="FOC">69</parameter><parameter name="RDY">1</parameter></Instrument_Parameters_><History/></OPUSDataFile>
