<?xml version="1.0" encoding="UTF-8" ?>
<OPUSDataFile><AB><Ydata ylabel="Absorbance Units"><values byteorder="INTEL" format="FLOAT32" numvalues="3497"> -0.088204 -0.08822536 -0.08822237 -0.08819435 -0.08815111 -0.08809318 -0.08803196 -0.08796781 -0.08790793 -0.08785266
 -0.08780777 -0.08777373 -0.08775575 -0.08775311 -0.08776727 -0.08779608 -0.0878373 -0.08788774 -0.08794387 -0.08800084
 -0.08805433 -0.08809968 -0.08813234 -0.08815372 -0.08816199 -0.08816547 -0.08816569 -0.0881695 -0.08817872 -0.08819313
 -0.08821297 -0.08823615 -0.08826257 -0.08829299 -0.0883273 -0.08836513 -0.08840555 -0.08844268 -0.08847583 -0.08849846
 -0.08851255 -0.08851879 -0.08852085 -0.08852517 -0.08853366 -0.08855189 -0.08857764 -0.08861158 -0.08864962 -0.0886903
 -0.08872873 -0.08876409 -0.08878756 -0.08879736 -0.08878429 -0.08874501 -0.08868656 -0.08860782 -0.08853709 -0.08847587
 -0.08845171 -0.08846392 -0.08851078 -0.08858738 -0.08866241 -0.08873401 -0.08877625 -0.0887965 -0.08879823 -0.08879165
 -0.08879627 -0.08881494 -0.08886135 -0.08892599 -0.08900939 -0.08909106 -0.0891618 -0.0892014 -0.08919804 -0.08915076
 -0.0890528 -0.08893131 -0.08878728 -0.0886599 -0.08855291 -0.08849596 -0.08849099 -0.08854648 -0.08866084 -0.08881568
 -0.08900488 -0.08918294 -0.08934359 -0.08943571 -0.08946674 -0.08942404 -0.0893295 -0.08921407 -0.08909316 -0.08899897
 -0.08893121 -0.08890266 -0.08890038 -0.0889224 -0.08895168 -0.08897986 -0.08900321 -0.08901662 -0.08903518 -0.08906052
 -0.08910599 -0.08917454 -0.08925449 -0.08934544 -0.08941725 -0.08946938 -0.08948715 -0.08947436 -0.08944663 -0.08940891
 -0.08938853 -0.08938558 -0.08941616 -0.08947262 -0.08955126 -0.08964002 -0.0897231 -0.08979357 -0.08983997 -0.08986211
 -0.08985578 -0.08982655 -0.08977244 -0.08971207 -0.08964681 -0.0896064 -0.08959539 -0.08963903 -0.08974238 -0.08989745
 -0.09010468 -0.09027499 -0.09040327 -0.09038688 -0.09024142 -0.09001568 -0.08972989 -0.08949036 -0.08929387 -0.08918735
 -0.08915533 -0.08919679 -0.08928698 -0.08939905 -0.08950735 -0.08957897 -0.08961093 -0.08958668 -0.08953262 -0.08945403
 -0.08937637 -0.0893092 -0.08925614 -0.08921958 -0.08919593 -0.08918466 -0.0891883 -0.08920693 -0.08924532 -0.08930322
 -0.08937832 -0.08946867 -0.08956159 -0.08965329 -0.08972275 -0.08976734 -0.08976768 -0.08972917 -0.08964866 -0.08954204
 -0.08942553 -0.08931551 -0.08923193 -0.08918019 -0.08917088 -0.08919623 -0.08925787 -0.08933869 -0.08943594 -0.08953011
 -0.08961739 -0.08968656 -0.08973598 -0.08976067 -0.08976026 -0.0897276 -0.08966266 -0.08956267 -0.08942992 -0.08927721
 -0.08910857 -0.08894598 -0.08879256 -0.08866749 -0.08857105 -0.08851382 -0.08849069 -0.08850192 -0.08853593 -0.08858486
 -0.08863529 -0.0886768 -0.08870405 -0.08871128 -0.08870287 -0.08867797 -0.08864567 -0.08860668 -0.08857279 -0.08854508
 -0.08853513 -0.0885438 -0.08857398 -0.08862487 -0.08868352 -0.08874751 -0.08879342 -0.0888215 -0.08881823 -0.0887898
 -0.08874434 -0.08868913 -0.08864163 -0.08860333 -0.08858414 -0.08857968 -0.08858838 -0.08860996 -0.08864053 -0.08869269
 -0.08877046 -0.08888399 -0.08904204 -0.08922181 -0.08942523 -0.08959985 -0.08973999 -0.08981221 -0.08981376 -0.08974051
 -0.08959324 -0.08938254 -0.08911453 -0.08883452 -0.08855158 -0.08832719 -0.08816251 -0.08809579 -0.08811346 -0.0882171
 -0.08837156 -0.08853527 -0.08867946 -0.08875655 -0.08878264 -0.08875072 -0.08869106 -0.08861692 -0.0885372 -0.08845916
 -0.0883726 -0.08827664 -0.08816319 -0.08802983 -0.08788873 -0.08774023 -0.08760869 -0.08749514 -0.08741856 -0.08737821
 -0.08738076 -0.08742011 -0.08747979 -0.08754529 -0.08756757 -0.08754387 -0.08743773 -0.08727694 -0.08708111 -0.08687516
 -0.08669257 -0.08652964 -0.08639747 -0.08627343 -0.08615021 -0.08601379 -0.08585536 -0.0856867 -0.08550726 -0.08533759
 -0.0851808 -0.08504105 -0.08491919 -0.08479864 -0.08467857 -0.08454183 -0.08439063 -0.08423308 -0.08407184 -0.08392383
 -0.08378573 -0.08365706 -0.08353435 -0.08341072 -0.08328496 -0.08315456 -0.08301378 -0.08285867 -0.08267912 -0.08246612
 -0.08222045 -0.08193825 -0.08163106 -0.08130228 -0.08095501 -0.08059052 -0.08020852 -0.07980877 -0.07939522 -0.07896814
 -0.07852763 -0.07807394 -0.07761047 -0.07713973 -0.07668176 -0.07623918 -0.07583591 -0.07546749 -0.07513552 -0.07483181
 -0.07454017 -0.07426018 -0.07398594 -0.07371542 -0.07345191 -0.07317074 -0.07285962 -0.07249487 -0.07205539 -0.0715647
 -0.07102232 -0.07046497 -0.06990087 -0.06934318 -0.06879466 -0.06825756 -0.06773207 -0.06722392 -0.06673373 -0.06627493
 -0.06584758 -0.06546236 -0.06511226 -0.06477911 -0.06444459 -0.06404641 -0.06357992 -0.06299359 -0.0623282 -0.06161385
 -0.06088983 -0.06020905 -0.05956959 -0.0589882 -0.05844485 -0.0579359 -0.05744144 -0.05695454 -0.05646579 -0.05597132
 -0.05547438 -0.05497549 -0.05447178 -0.05396352 -0.05343058 -0.05287233 -0.05227642 -0.05164584 -0.05099848 -0.05033718
 -0.04968479 -0.049039 -0.04840374 -0.04777893 -0.04716485 -0.04656553 -0.04598865 -0.04543022 -0.04489261 -0.04436109
 -0.04382759 -0.04328069 -0.042714 -0.04212017 -0.04149675 -0.04083496 -0.04013017 -0.03939409 -0.03862438 -0.03786683
 -0.03712451 -0.03643102 -0.03578638 -0.03517887 -0.03460551 -0.03403708 -0.03347319 -0.0328956 -0.0323083 -0.03171176
 -0.03111281 -0.03052544 -0.029952 -0.02940535 -0.02887337 -0.02835443 -0.02782208 -0.02725945 -0.02664826 -0.02597011
 -0.02524388 -0.02446617 -0.02368127 -0.0228968 -0.02214578 -0.0214347 -0.0207665 -0.02014267 -0.01953717 -0.01894846
 -0.01834456 -0.01772595 -0.01708168 -0.01641499 -0.0157345 -0.01504228 -0.01434845 -0.01365355 -0.01296317 -0.01227745
 -0.01159923 -0.01092716 -0.01026082 -0.00959946 -0.008941664 -0.008290003 -0.00764486 -0.007009854 -0.006385952 -0.005776454
 -0.005182477 -0.004604314 -0.004043352 -0.003487021 -0.002935017 -0.002362227 -0.001767823 -0.001139509 -0.000479841 0.000195392
 0.0008833208 0.001561844 0.00223233 0.002887619 0.003529558 0.004158678 0.00477553 0.005380484 0.005975527 0.006563308
 0.007142994 0.007716245 0.008276775 0.008820359 0.009350151 0.009862483 0.01037995 0.01090581 0.01146099 0.01205041
 0.01266741 0.01331268 0.01395692 0.01459881 0.01521466 0.0158056 0.01637052 0.01691211 0.01744266 0.0179622
 0.01847757 0.01898651 0.01948666 0.01997897 0.02046313 0.020942 0.02141939 0.0218934 0.02236387 0.02282898
 0.0232859 0.02374189 0.02419869 0.02466151 0.02513367 0.02560443 0.02607316 0.02652761 0.02696635 0.02739385
 0.02781048 0.02822714 0.02864345 0.02906072 0.02947767 0.02988895 0.0302941 0.03068862 0.03107345 0.03144723
 0.03181391 0.03217819 0.03254373 0.03291831 0.03329539 0.03367474 0.03404431 0.03439653 0.03473226 0.03504786
 0.03535797 0.03566494 0.03597976 0.03630456 0.03664175 0.03699188 0.03735182 0.03772109 0.03808611 0.03844565
 0.0387812 0.0390952 0.03938776 0.03966547 0.03994918 0.04024062 0.04055599 0.04088693 0.0412299 0.04157326
 0.04190408 0.0422159 0.04249864 0.04275675 0.0429872 0.04320559 0.04341584 0.04363072 0.04385555 0.04408432
 0.0443183 0.04453739 0.04473995 0.04491489 0.04506216 0.04519178 0.04530574 0.04542666 0.04555508 0.04570703
 0.0458784 0.04606627 0.04626409 0.04645599 0.04664082 0.0468078 0.04696507 0.04711613 0.04726981 0.04743552
 0.0476101 0.04779758 0.04798092 0.04815608 0.04830809 0.04843085 0.04853029 0.04860499 0.04867585 0.04874497
 0.0488156 0.04888729 0.04893306 0.04895215 0.04892389 0.04885457 0.0487633 0.04865812 0.04857593 0.04851475
 0.04848981 0.04849198 0.0485141 0.0485502 0.04859171 0.0486357 0.04867801 0.04871631 0.04874685 0.04877564
 0.04880261 0.04883905 0.04888938 0.04894837 0.04901836 0.04907034 0.04910238 0.04908773 0.04902556 0.04891839
 0.04876883 0.04860305 0.04842279 0.0482506 0.04808532 0.04793401 0.04779749 0.04767972 0.04758469 0.04752225
 0.04748815 0.04748645 0.04749761 0.04751104 0.04750698 0.04747037 0.04740259 0.04729783 0.04717579 0.04703943
 0.04690554 0.04677791 0.04665657 0.04654247 0.04642128 0.04629225 0.04613897 0.04596216 0.04576057 0.04553928
 0.04532203 0.04511527 0.04495371 0.04483547 0.04477813 0.04476497 0.04478307 0.04480713 0.04480621 0.04476584
 0.04466108 0.04450578 0.04429452 0.04406448 0.04382522 0.04360949 0.0434273 0.04328962 0.04319984 0.04315703
 0.04316136 0.04321321 0.04331242 0.04345188 0.04362869 0.04381279 0.04399807 0.04413701 0.04422696 0.04423034
 0.04415788 0.04400829 0.04380784 0.0435926 0.04338801 0.04323876 0.04314157 0.04311706 0.04312398 0.04315234
 0.04315172 0.04310121 0.04297984 0.04277434 0.0425072 0.04217681 0.04182998 0.04147029 0.04113578 0.04082821
 0.04055845 0.04032554 0.04012285 0.03995027 0.03980359 0.03968449 0.03959746 0.03954118 0.03951842 0.03951827
 0.0395303 0.03953244 0.03950035 0.03941159 0.03923913 0.03898321 0.03862928 0.03821357 0.03773955 0.03726114
 0.03679049 0.03636551 0.03599485 0.03568622 0.03544216 0.03524588 0.0350963 0.03495606 0.03482275 0.03465515
 0.03445615 0.03421617 0.03394608 0.03367797 0.03341601 0.03319097 0.03298652 0.03279364 0.03259045 0.03234538
 0.03206097 0.03172173 0.0313604 0.03098558 0.0306363 0.03032874 0.03008159 0.02990613 0.02978554 0.02972297
 0.02966796 0.02961738 0.02951616 0.02936163 0.02913687 0.02884545 0.02852008 0.02816725 0.02783901 0.02753739
 0.02729813 0.02711568 0.02699766 0.02693183 0.02690486 0.02690152 0.02690055 0.02689294 0.02686345 0.02681586
 0.02674766 0.02666602 0.02657573 0.02646863 0.02634751 0.02618248 0.02597081 0.02567964 0.02530482 0.0248401
 0.02428529 0.02367187 0.0230029 0.02232404 0.02163564 0.02096396 0.02030534 0.0196604 0.01902812 0.01840481
 0.0177952 0.01720562 0.01663816 0.01610001 0.01558356 0.01508617 0.01459893 0.01411442 0.01363602 0.01316197
 0.01270274 0.01226215 0.01183758 0.01143114 0.01102238 0.01060978 0.01017573 0.009719358 0.009245099 0.008754651
 0.00826942 0.00779092 0.007339485 0.006913235 0.006518177 0.00614807 0.005792857 0.005444939 0.005087021 0.004717514
 0.004325185 0.003920232 0.003503548 0.0030947 0.00270226 0.002345938 0.00203638 0.001776651 0.001575008 0.001398066
 0.001246734 0.001054777 0.0008164257 0.0004796501 4.166841E-05 -0.0004829962 -0.001088097 -0.001693898 -0.002293078 -0.002799365
 -0.00321883 -0.003519582 -0.003727293 -0.003879954 -0.004010707 -0.004191964 -0.004434397 -0.004788178 -0.005218365 -0.005722011
 -0.006242237 -0.006744236 -0.007208385 -0.007611801 -0.007988514 -0.008343157 -0.008701716 -0.009074988 -0.009427257 -0.009758206
 -0.01000506 -0.01016448 -0.01022891 -0.01020437 -0.01016401 -0.01011744 -0.01016115 -0.01029169 -0.01055439 -0.01092666
 -0.01138181 -0.01189307 -0.01240233 -0.01290358 -0.01336315 -0.01379825 -0.01421332 -0.01461751 -0.01502329 -0.01541021
 -0.01577401 -0.0160962 -0.01636483 -0.01660788 -0.01682449 -0.01706793 -0.01734508 -0.01766532 -0.01802948 -0.018384
 -0.01872582 -0.0189984 -0.01920671 -0.01934898 -0.01943713 -0.01951319 -0.01958288 -0.01968292 -0.019807 -0.01996163
 -0.02013783 -0.02032437 -0.02052598 -0.02073743 -0.02098189 -0.02126968 -0.02161994 -0.02204864 -0.02253594 -0.02308806
 -0.02364036 -0.02418572 -0.02465945 -0.02505211 -0.02535701 -0.02557318 -0.02576354 -0.02593275 -0.02616072 -0.02644485
 -0.02681476 -0.0272546 -0.02772529 -0.02820986 -0.02864525 -0.02903168 -0.02933647 -0.02957969 -0.02976942 -0.02993004
 -0.03008375 -0.03024456 -0.0304279 -0.03063185 -0.03086199 -0.03110091 -0.03134683 -0.03157748 -0.03178701 -0.03197619
 -0.03214219 -0.03232165 -0.03251649 -0.03276335 -0.03306071 -0.03339611 -0.03376254 -0.03410809 -0.03443343 -0.03470914
 -0.03494992 -0.03517707 -0.0354017 -0.03565696 -0.03593318 -0.03623505 -0.03654262 -0.0368403 -0.03711835 -0.03736661
 -0.03758392 -0.03776919 -0.0379163 -0.03802384 -0.03808542 -0.03809759 -0.03807295 -0.03801031 -0.037948 -0.03788806
 -0.03787991 -0.03792514 -0.03805771 -0.03827341 -0.03856698 -0.0389264 -0.03930638 -0.03969432 -0.04003489 -0.04032754
 -0.04054277 -0.04069543 -0.04078999 -0.04084395 -0.04087465 -0.04088717 -0.04089072 -0.04087906 -0.04085032 -0.04080555
 -0.04074165 -0.04067728 -0.04061473 -0.0405713 -0.04055101 -0.0405382 -0.04053246 -0.04048391 -0.04039049 -0.04021067
 -0.03994945 -0.03961549 -0.03922018 -0.03881162 -0.03839512 -0.03801074 -0.03765089 -0.03732147 -0.03701181 -0.03670986
 -0.03641336 -0.03611629 -0.03581937 -0.03552367 -0.03522167 -0.03491055 -0.03458531 -0.03423954 -0.03389587 -0.03355298
 -0.03326065 -0.03302382 -0.03287955 -0.03283079 -0.03286361 -0.03297465 -0.03310802 -0.0332607 -0.03338296 -0.03348021
 -0.03354568 -0.03358793 -0.03362846 -0.03366356 -0.03370154 -0.03372297 -0.03370817 -0.03364179 -0.03350002 -0.03329065
 -0.03300758 -0.03267508 -0.03229965 -0.03190498 -0.03149709 -0.03109746 -0.03070966 -0.0303544 -0.0300348 -0.02975657
 -0.02952037 -0.02931616 -0.02914462 -0.02901231 -0.02892574 -0.02893138 -0.02903534 -0.02929153 -0.02968896 -0.03023442
 -0.03089728 -0.03162962 -0.03240304 -0.03315998 -0.03389868 -0.03459258 -0.03526755 -0.03592854 -0.03660668 -0.03731713
 -0.03807143 -0.03887926 -0.03972414 -0.0406075 -0.04149464 -0.04238282 -0.0432378 -0.04405723 -0.04482203 -0.0455322
 -0.04618709 -0.04678817 -0.0473446 -0.04785782 -0.04833753 -0.0487859 -0.04921222 -0.04962061 -0.05002266 -0.05042041
 -0.05082326 -0.05122448 -0.05162374 -0.05200789 -0.05236971 -0.05269875 -0.05298876 -0.05323647 -0.05343967 -0.05359855
 -0.05371253 -0.05378436 -0.05381415 -0.05380576 -0.05375945 -0.05367713 -0.05355944 -0.05341441 -0.05324665 -0.05308958
 -0.0529518 -0.05288707 -0.05289678 -0.05301739 -0.05323233 -0.0535336 -0.0538931 -0.05427455 -0.05465396 -0.05499861
 -0.05529662 -0.05553051 -0.05570289 -0.05580704 -0.05586414 -0.05587466 -0.05587555 -0.05587164 -0.05590021 -0.05596567
 -0.05609337 -0.05628511 -0.05656089 -0.05692198 -0.05739198 -0.05797022 -0.05866859 -0.05947629 -0.06036236 -0.06130366
 -0.06222475 -0.06310804 -0.06388035 -0.06455455 -0.0651092 -0.06558589 -0.06601226 -0.06642267 -0.06685086 -0.0672939
 -0.06776287 -0.06822958 -0.06868811 -0.06911889 -0.06951571 -0.06988015 -0.07021105 -0.07051907 -0.07080482 -0.07107732
 -0.07133698 -0.07159051 -0.07183799 -0.07208356 -0.07232612 -0.07256438 -0.07279515 -0.07300965 -0.07320482 -0.07336947
 -0.07350648 -0.07361149 -0.07369839 -0.07377493 -0.07386102 -0.07397181 -0.0741156 -0.07430441 -0.0745189 -0.07476033
 -0.07498968 -0.07519971 -0.07536536 -0.0754804 -0.07556017 -0.07560468 -0.07565394 -0.07570908 -0.07579053 -0.07589497
 -0.07600684 -0.07612362 -0.07622377 -0.07631377 -0.07639872 -0.07648871 -0.0766073 -0.07675376 -0.07694087 -0.07715279
 -0.07738247 -0.07760877 -0.07781725 -0.07799354 -0.07812662 -0.07821673 -0.07825834 -0.07827211 -0.07825802 -0.07825286
 -0.07826076 -0.07830911 -0.07840067 -0.07852941 -0.0786939 -0.07886247 -0.07903375 -0.07918201 -0.07930971 -0.07941316
 -0.07949622 -0.07956755 -0.07962939 -0.07968984 -0.07974988 -0.07981459 -0.07988246 -0.07995553 -0.0800267 -0.08009304
 -0.08014615 -0.08017974 -0.08019758 -0.08019661 -0.08019613 -0.08019857 -0.08022305 -0.08027331 -0.08034834 -0.08044881
 -0.08055472 -0.08066512 -0.08076154 -0.08084506 -0.08091509 -0.08097439 -0.0810349 -0.08109736 -0.08117115 -0.0812526
 -0.08134025 -0.08142763 -0.08150556 -0.08156996 -0.08161175 -0.08163659 -0.08164228 -0.08164577 -0.08165257 -0.08167959
 -0.0817344 -0.08181849 -0.08193537 -0.08207005 -0.08222187 -0.08237154 -0.08251762 -0.08264793 -0.08276223 -0.08285869
 -0.08293837 -0.08300827 -0.08306999 -0.08313435 -0.08320154 -0.08327851 -0.08336267 -0.0834529 -0.08354548 -0.0836347
 -0.0837191 -0.08379449 -0.08386348 -0.08392569 -0.08398658 -0.08404829 -0.08411517 -0.08418963 -0.08427047 -0.08435869
 -0.08444689 -0.08453438 -0.0846144 -0.0846862 -0.08475146 -0.08481047 -0.08487085 -0.08493234 -0.0849968 -0.08506194
 -0.08511817 -0.08516464 -0.0851918 -0.08520505 -0.08520867 -0.08521187 -0.08522972 -0.08526538 -0.08532968 -0.08541446
 -0.08551909 -0.0856313 -0.0857451 -0.08585451 -0.08595582 -0.08605038 -0.08613789 -0.08621988 -0.08629656 -0.08636814
 -0.08643454 -0.08649866 -0.08656075 -0.08662656 -0.08669595 -0.08677046 -0.08684879 -0.08692536 -0.08699999 -0.08706836
 -0.08713322 -0.08719779 -0.08726469 -0.08734012 -0.08742163 -0.08751036 -0.08759981 -0.08768614 -0.08776465 -0.08783141
 -0.08788801 -0.08793321 -0.08797379 -0.08801041 -0.08805118 -0.0880973 -0.08815319 -0.08821945 -0.08829393 -0.08837639
 -0.08846047 -0.08854587 -0.08862744 -0.08870528 -0.08877719 -0.08884341 -0.08890329 -0.08895743 -0.08900616 -0.08905124
 -0.08909468 -0.08913944 -0.08918927 -0.08924542 -0.0893109 -0.08938195 -0.0894587 -0.08953344 -0.08960374 -0.08966498
 -0.08971506 -0.08975673 -0.08978979 -0.08981983 -0.0898473 -0.08987489 -0.08990273 -0.08993233 -0.08996392 -0.0900003
 -0.09004141 -0.09008881 -0.09014145 -0.09019709 -0.09025463 -0.09031097 -0.09036528 -0.09041551 -0.09046025 -0.0904971
 -0.09052634 -0.0905458 -0.09056195 -0.09057575 -0.09059801 -0.09063295 -0.09068401 -0.0907544 -0.09083338 -0.09092075
 -0.09100007 -0.0910699 -0.09112324 -0.09116005 -0.09118625 -0.09120252 -0.09121767 -0.09123152 -0.09124777 -0.09126595
 -0.09128635 -0.09130926 -0.09133554 -0.09136524 -0.09139916 -0.0914363 -0.09147605 -0.09151743 -0.09155971 -0.09160206
 -0.09164421 -0.09168458 -0.0917227 -0.09175708 -0.09178699 -0.09181411 -0.09183845 -0.09186279 -0.09188747 -0.09191168
 -0.09193533 -0.09195483 -0.09197041 -0.09198236 -0.09199174 -0.09200421 -0.09201974 -0.09204198 -0.09206844 -0.09209581
 -0.09212165 -0.0921402 -0.0921529 -0.09215815 -0.09216077 -0.0921635 -0.09216982 -0.09218261 -0.09220118 -0.09222629
 -0.09225509 -0.09228709 -0.09232021 -0.09235404 -0.09238805 -0.09242214 -0.09245679 -0.09249197 -0.09252696 -0.09256141
 -0.09259146 -0.09261677 -0.09263296 -0.09264141 -0.09264333 -0.09264192 -0.09264442 -0.09265299 -0.09267486 -0.09270786
 -0.09275352 -0.092806 -0.09286214 -0.09291644 -0.09296515 -0.09300677 -0.09303923 -0.09306639 -0.09308816 -0.09311134
 -0.09313697 -0.09316842 -0.09320633 -0.09324679 -0.09328955 -0.09332749 -0.09336071 -0.09338731 -0.09340832 -0.09342814
 -0.09344722 -0.09346964 -0.09349415 -0.09352004 -0.09354594 -0.09356925 -0.09359007 -0.09360733 -0.09362211 -0.09363471
 -0.09364633 -0.09365765 -0.09366935 -0.0936822 -0.09369463 -0.09370685 -0.09371497 -0.09371822 -0.0937162 -0.09370845
 -0.09370293 -0.09370012 -0.09371138 -0.0937366 -0.09377942 -0.09383782 -0.09390406 -0.09397515 -0.09403748 -0.09408984
 -0.09412199 -0.09413706 -0.09413392 -0.09411948 -0.09410019 -0.09408147 -0.09407005 -0.0940652 -0.09406876 -0.09407704
 -0.09408879 -0.09410329 -0.09412 -0.09414025 -0.09416451 -0.09419073 -0.09421895 -0.09424406 -0.09426585 -0.09428228
 -0.09429383 -0.09430444 -0.09431472 -0.09433 -0.09434991 -0.09437633 -0.09440799 -0.09444325 -0.09448055 -0.09451733
 -0.09455112 -0.09457918 -0.09459759 -0.09460231 -0.09459268 -0.09456529 -0.0945287 -0.09448344 -0.09444377 -0.09441331
 -0.09439939 -0.09440455 -0.0944235 -0.09445636 -0.09449187 -0.09452946 -0.09456066 -0.09458543 -0.09460012 -0.09460539
 -0.09460231 -0.09459247 -0.09458137 -0.09457063 -0.09456713 -0.09456988 -0.09458144 -0.09459724 -0.09461367 -0.09462668
 -0.09463082 -0.09462894 -0.0946194 -0.0946116 -0.09460853 -0.09461593 -0.09463711 -0.09466577 -0.0947023 -0.09473374
 -0.09475891 -0.09477053 -0.09476829 -0.09475616 -0.094735 -0.09471527 -0.09469799 -0.09469392 -0.09470351 -0.09473409
 -0.09478514 -0.09485928 -0.09495536 -0.09507274 -0.09521057 -0.09536716 -0.09554375 -0.09573936 -0.09595983 -0.09620548
 -0.0964896 -0.09681545 -0.09719825 -0.09764301 -0.09815358 -0.098734 -0.09936181 -0.1000374 -0.1007103 -0.1013776
 -0.1019709 -0.1024867 -0.1028624 -0.1030995 -0.1031714 -0.1030856 -0.1028531 -0.1024798 -0.1019775 -0.1013644
 -0.1006607 -0.09991565 -0.09918587 -0.0985143 -0.09795317 -0.09751341 -0.09721545 -0.09705195 -0.09702888 -0.09711879
 -0.09732585 -0.0975741 -0.0978578 -0.09807838 -0.09822319 -0.09828292 -0.09825723 -0.09822243 -0.09817994 -0.09817185
 -0.0981902 -0.09821251 -0.09823138 -0.09820748 -0.0981449 -0.09803068 -0.09787864 -0.09770543 -0.09751923 -0.09733823
 -0.09715613 -0.0969741 -0.0967849 -0.0965817 -0.09637324 -0.09615877 -0.09595666 -0.09577172 -0.09561241 -0.09548221
 -0.0953725 -0.0952834 -0.09519799 -0.09511537 -0.09502365 -0.09492329 -0.09481599 -0.09470308 -0.09459338 -0.09448635
 -0.09438509 -0.09428759 -0.09418996 -0.09409291 -0.09399487 -0.09389976 -0.09381128 -0.09373217 -0.09366646 -0.09361259
 -0.0935715 -0.09353881 -0.09351362 -0.09349069 -0.09346882 -0.09344349 -0.09341363 -0.09337842 -0.09333746 -0.09329446
 -0.09324958 -0.09320723 -0.09316754 -0.09313324 -0.09310433 -0.0930823 -0.09306702 -0.09305919 -0.09305765 -0.09306064
 -0.09306589 -0.09306929 -0.09306872 -0.09306002 -0.093043 -0.09301544 -0.09298041 -0.09293827 -0.09289399 -0.0928494
 -0.09280784 -0.09277078 -0.09273783 -0.0927093 -0.09268326 -0.09265948 -0.0926378 -0.0926182 -0.09260198 -0.09258903
 -0.09257852 -0.09256949 -0.09255598 -0.09253719 -0.09250619 -0.09246515 -0.09241465 -0.0923598 -0.09230951 -0.09226608
 -0.09223731 -0.09221803 -0.09220782 -0.09219843 -0.09218492 -0.09216381 -0.09213183 -0.09209216 -0.09204428 -0.09199516
 -0.09194552 -0.09190264 -0.09186744 -0.09184255 -0.09182815 -0.09181911 -0.09181503 -0.09180867 -0.09180035 -0.09178814
 -0.09177304 -0.09175769 -0.09174268 -0.09173053 -0.09172177 -0.09171811 -0.09172049 -0.09173149 -0.09174898 -0.09177373
 -0.09179846 -0.09182032 -0.09183107 -0.09182616 -0.09180484 -0.0917645 -0.09171511 -0.09165704 -0.09160455 -0.09155919
 -0.09152874 -0.09151374 -0.09151069 -0.09151903 -0.09152994 -0.09154326 -0.09155343 -0.091561 -0.09156504 -0.09156579
 -0.09156343 -0.09155761 -0.09154768 -0.09153397 -0.09151613 -0.09149599 -0.09147465 -0.09145416 -0.09143614 -0.09142089
 -0.0914093 -0.0913994 -0.09139095 -0.09138187 -0.09137169 -0.09136014 -0.09134705 -0.0913343 -0.09132196 -0.09131332
 -0.09130853 -0.09131046 -0.09131868 -0.09133236 -0.09135011 -0.09136633 -0.09138006 -0.09138566 -0.09138424 -0.09137465
 -0.09135941 -0.09134123 -0.09132132 -0.09130181 -0.0912821 -0.09126238 -0.09124193 -0.09122009 -0.09119837 -0.09117652
 -0.09115869 -0.0911454 -0.09114079 -0.09114556 -0.09115955 -0.09118284 -0.091209 -0.09123757 -0.09126042 -0.09127762
 -0.09128518 -0.09128419 -0.09127638 -0.09126315 -0.09124881 -0.09123401 -0.09122221 -0.09121238 -0.091205 -0.09119792
 -0.09118936 -0.09117857 -0.09116375 -0.09114823 -0.09113229 -0.09112117 -0.09111669 -0.09112001 -0.09113232 -0.09114812
 -0.0911672 -0.09118211 -0.09119239 -0.09119554 -0.09119177 -0.0911843 -0.09117358 -0.09116406 -0.0911556 -0.09114999
 -0.09114671 -0.09114544 -0.09114555 -0.09114587 -0.09114575 -0.09114403 -0.09114006 -0.0911326 -0.09112246 -0.09110901
 -0.09109582 -0.09108373 -0.09107708 -0.09107766 -0.09108555 -0.09110178 -0.09112013 -0.0911403 -0.09115435 -0.09116177
 -0.09115953 -0.09114788 -0.0911307 -0.09110863 -0.09108795 -0.09106853 -0.09105359 -0.09104173 -0.09103106 -0.09102047
 -0.0910067 -0.09099063 -0.09097174 -0.09095202 -0.09093335 -0.09091581 -0.09090019 -0.09088542 -0.09087082 -0.09085739
 -0.09084506 -0.09083599 -0.09083077 -0.09082901 -0.09083078 -0.09083486 -0.09084111 -0.09085193 -0.09086746 -0.0908915
 -0.09092328 -0.09096033 -0.09100053 -0.09103424 -0.09106037 -0.09107024 -0.09106656 -0.09104903 -0.09102327 -0.09099596
 -0.09097112 -0.0909556 -0.09094709 -0.0909474 -0.09094907 -0.09094951 -0.09094384 -0.09092949 -0.09090835 -0.09087984
 -0.09084997 -0.09081929 -0.09079222 -0.0907691 -0.09075045 -0.09073612 -0.09072333 -0.09071187 -0.09069852 -0.09068394
 -0.09066858 -0.09065412 -0.09064532 -0.09064271 -0.09065069 -0.09066558 -0.09068582 -0.09070456 -0.09071494 -0.0907142
 -0.09069672 -0.09066989 -0.09063408 -0.09060105 -0.09057511 -0.09055806 -0.09055216 -0.09054747 -0.09054314 -0.0905317
 -0.09051247 -0.09049004 -0.09046481 -0.09044465 -0.09042892 -0.09041703 -0.09040756 -0.09039395 -0.09037644 -0.09035155
 -0.09032176 -0.09028965 -0.09025783 -0.09023093 -0.09020948 -0.09019592 -0.09018849 -0.09018718 -0.090189 -0.09019307
 -0.0901961 -0.09019727 -0.09019326 -0.09018324 -0.09016588 -0.09014069 -0.0901104 -0.09007511 -0.09003872 -0.09000125
 -0.08996301 -0.08992387 -0.08988259 -0.08983978 -0.08979715 -0.08975542 -0.08971775 -0.08968323 -0.08965201 -0.08962198
 -0.08959012 -0.08955635 -0.08951881 -0.0894806 -0.08944321 -0.08940843 -0.08937854 -0.08934925 -0.08932037 -0.08928522
 -0.08924183 -0.08919091 -0.08913152 -0.08907442 -0.08902021 -0.08897843 -0.08894905 -0.08893075 -0.08892237 -0.08891479
 -0.08890739 -0.08889261 -0.08887119 -0.08884075 -0.08880348 -0.08876202 -0.08871888 -0.08867887 -0.08864179 -0.08861037
 -0.08857951 -0.08854736 -0.08850833 -0.08845859 -0.08839953 -0.08832956 -0.08825701 -0.08818281 -0.08811557 -0.08805655
 -0.08800978 -0.08797577 -0.08795176 -0.08793741 -0.08792538 -0.08791529 -0.08790082 -0.08788221 -0.08785717 -0.08782599
 -0.08778803 -0.0877438 -0.08769322 -0.08763853 -0.08758225 -0.0875269 -0.08747598 -0.08742964 -0.08738944 -0.08735314
 -0.08732046 -0.08728838 -0.08725639 -0.08722041 -0.08717971 -0.0871309 -0.0870731 -0.08700823 -0.08693619 -0.08686474
 -0.08679428 -0.0867326 -0.08667948 -0.08663743 -0.08660524 -0.08657952 -0.0865587 -0.08653653 -0.08651292 -0.08648445
 -0.08645246 -0.08641786 -0.0863802 -0.08634021 -0.08629473 -0.08624141 -0.08618028 -0.08610937 -0.08603539 -0.08595964
 -0.08588831 -0.08582358 -0.08576338 -0.08570816 -0.08565052 -0.08558992 -0.0855229 -0.08544967 -0.08537642 -0.08530417
 -0.08524436 -0.08519634 -0.08516508 -0.08514591 -0.08512951 -0.08510949 -0.08506764 -0.08500516 -0.08491304 -0.08480345
 -0.0846841 -0.08456524 -0.08445732 -0.08435921 -0.08427373 -0.0841945 -0.08411982 -0.08404715 -0.08397539 -0.083906
 -0.08383917 -0.08377448 -0.08371191 -0.08365123 -0.08359266 -0.08354183 -0.08349874 -0.08346788 -0.08344581 -0.08342076
 -0.08338755 -0.08332272 -0.08323044 -0.08310455 -0.08295904 -0.08281041 -0.08266777 -0.08254679 -0.08244654 -0.08237205
 -0.08231629 -0.08227883 -0.08224814 -0.08222196 -0.08218629 -0.08213788 -0.08206914 -0.08197796 -0.08186864 -0.0817411
 -0.08160575 -0.08146311 -0.08132204 -0.08118274 -0.08105113 -0.08092683 -0.08081185 -0.08070494 -0.08060382 -0.08050702
 -0.08041083 -0.08031381 -0.08021248 -0.08010606 -0.07999154 -0.07987233 -0.07974834 -0.07962754 -0.07951386 -0.07941067
 -0.07932163 -0.07923857 -0.07916157 -0.07907655 -0.0789814 -0.07887029 -0.07874221 -0.07860639 -0.07846332 -0.07832426
 -0.07818811 -0.07805111 -0.07791061 -0.07775077 -0.07757404 -0.07737718 -0.07716871 -0.07696511 -0.07676905 -0.07659367
 -0.07643109 -0.07627935 -0.07612894 -0.07597185 -0.07580678 -0.07563006 -0.07544728 -0.07525958 -0.07507051 -0.07488186
 -0.07468955 -0.07449394 -0.07428434 -0.07405983 -0.07381656 -0.07355487 -0.07328887 -0.07301924 -0.07275897 -0.07250553
 -0.07225417 -0.07200217 -0.0717383 -0.0714635 -0.07117388 -0.07087223 -0.07056073 -0.07024168 -0.06991764 -0.06959134
 -0.06926657 -0.06894032 -0.06861543 -0.0682753 -0.06791566 -0.06752335 -0.06709143 -0.06663638 -0.06615838 -0.06568235
 -0.06521074 -0.06474558 -0.06428689 -0.06383069 -0.06337801 -0.06293806 -0.06250995 -0.06209794 -0.06169296 -0.06127139
 -0.06082334 -0.06031157 -0.05974774 -0.05912659 -0.05847796 -0.05783188 -0.05719921 -0.05659978 -0.05602282 -0.05546825
 -0.05492571 -0.05439151 -0.05386202 -0.05333804 -0.05280504 -0.05226441 -0.05167342 -0.05102868 -0.05030106 -0.04949127
 -0.04865486 -0.04779617 -0.04698212 -0.04620407 -0.04545537 -0.04472631 -0.04398231 -0.04322425 -0.04243771 -0.04162607
 -0.04079303 -0.03992698 -0.03902541 -0.03805492 -0.03699292 -0.03581513 -0.03449012 -0.03306703 -0.03154171 -0.03002011
 -0.02852595 -0.02711475 -0.02580105 -0.02457272 -0.0234312 -0.02233657 -0.02128595 -0.02021305 -0.01911123 -0.01788377
 -0.01653985 -0.0150557 -0.01347907 -0.01195377 -0.0104901 -0.009195096 -0.008014657 -0.006913914 -0.005853822 -0.004775747
 -0.003682204 -0.002556052 -0.001411951 -0.000254986 0.0009132256 0.002095099 0.003271014 0.004440022 0.005569123 0.006651008
 0.007691863 0.00869125 0.009667012 0.01061892 0.01151489 0.01235208 0.01308597 0.013724 0.01427686 0.01475906
 0.01522393 0.01567279 0.01614083 0.01660552 0.01704475 0.01745305 0.01780949 0.0181376 0.01845058 0.01875498
 0.01906244 0.01935272 0.01962171 0.01985361 0.02004213 0.02019235 0.02030291 0.02039092 0.02045736 0.02052137
 0.02058376 0.02065208 0.0207255 0.02079824 0.02087036 0.02093774 0.02100406 0.0210766 0.02116333 0.02128479
 0.02144529 0.02166267 0.02192956 0.02224207 0.02260264 0.02300342 0.02347679 0.02403637 0.02470481 0.02550256
 0.02639039 0.02736607 0.02837919 0.02941835 0.03049081 0.03159522 0.03276225 0.03399302 0.03529323 0.03666177
 0.03808894 0.03957512 0.0411182 0.04271792 0.04437264 0.0460811 0.04783852 0.0496476 0.0515108 0.05342922
 0.05540753 0.05743754 0.05951621 0.06163277 0.06378176 0.06595491 0.06814988 0.07035533 0.07257064 0.07477546
 0.07696917 0.079117 0.08121634 0.08323418 0.08516952 0.08703741 0.08884238 0.09064469 0.09243537 0.09420893
 0.09593321 0.09749406 0.09888771 0.1000429 0.1009894 0.1017466 0.1023235 0.1027377 0.1029879 0.1030765
 0.1030089 0.1028059 0.1024014 0.1018078 0.100826 0.09940301 0.0974579 0.09492464 0.09221282 0.08935226
 0.08664638 0.08410616 0.08157659 0.07904837 0.07636659 0.07354739 0.07059934 0.06753722 0.06443062 0.06124323
 0.05795183 0.0544637 0.05058928 0.04638119 0.04171606 0.03700273 0.03252477 0.02847746 0.02511887 0.02216163
 0.01956382 0.01708174 0.01463129 0.01220154 0.009773092 0.007426437 0.005169711 0.003011059 0.00095043 -0.001072146
 -0.003057608 -0.00503993 -0.007009535 -0.008933822 -0.01080164 -0.01255542 -0.01419966 -0.01571219 -0.01711179 -0.01841629
 -0.01964396 -0.02081807 -0.02195786 -0.02307771 -0.02421176 -0.02538254 -0.0266046 -0.02791256 -0.02919164 -0.03043111
 -0.03148252 -0.03230444 -0.03296532 -0.033463 -0.03394186 -0.03440869 -0.03491642 -0.03545973 -0.03599498 -0.03651594
 -0.03696254 -0.03734316 -0.03765571 -0.03790731 -0.0381178 -0.03827735 -0.0383793 -0.03841463 -0.03836566 -0.03824471
 -0.03805354 -0.03780912 -0.0375226 -0.03719623 -0.03683519 -0.03642951 -0.03598142 -0.0354628 -0.03487517 -0.03415153
 -0.03328633 -0.03221905 -0.03094736 -0.02955474 -0.02805361 -0.02662305 -0.02525852 -0.0240279 -0.02291313 -0.02188431
 -0.02093966 -0.02006228 -0.01925257 -0.01851688 -0.0178186 -0.01713276 -0.01639295 -0.01552824 -0.0145444 -0.01339923
 -0.01221684 -0.01103948 -0.00991974 -0.00889187 -0.007890569 -0.006910192 -0.005900129 -0.004851809 -0.003790486 -0.002717354
 -0.001691821 -0.0007130641 0.0002073175 0.001081102 0.001965101 0.002875736 0.003901747 0.005044992 0.006363728 0.007825814
 0.00940732 0.01107712 0.01278177 0.01453549 0.01633177 0.01818863 0.02012416 0.0221097 0.02414459 0.02617955
 0.02819899 0.030193 0.03215449 0.03411315 0.0360733 0.03802747 0.03997502 0.04179912 0.04349016 0.04489359
 0.04601037 0.04676872 0.04717395 0.04721113 0.04687301 0.04613441 0.04499095 0.04341386 0.04143295 0.03905583
 0.03635288 0.0333717 0.03018864 0.02685731 0.02341508 0.01988708 0.01628441 0.01260125 0.008912822 0.005216898
 0.001677475 -0.001689224 -0.004781606 -0.007593571 -0.01017968 -0.01254648 -0.01479633 -0.01692517 -0.01896337 -0.02089623
 -0.02268403 -0.02432608 -0.02579482 -0.02711149 -0.02829613 -0.02937218 -0.03037464 -0.03131428 -0.0322114 -0.03306599
 -0.03388304 -0.03466077 -0.03539905 -0.03609832 -0.03675813 -0.03738165 -0.03796858 -0.03852717 -0.03905812 -0.0395691
 -0.04006058 -0.0405229 -0.04095418 -0.04132585 -0.04163719 -0.04186786 -0.04202182 -0.04210226 -0.04211355 -0.04206763
 -0.04196661 -0.04181853 -0.04162575 -0.04139247 -0.0411246 -0.04082444 -0.04050816 -0.04017925 -0.03987048 -0.03959056
 -0.0393791 -0.03924704 -0.03922099 -0.03930861 -0.0395105 -0.03982952 -0.04023472 -0.04072457 -0.04124668 -0.0417987
 -0.04233703 -0.04286208 -0.04335456 -0.04381513 -0.04423648 -0.04461721 -0.04495017 -0.04523443 -0.0454648 -0.04564252
 -0.04576676 -0.0458397 -0.04586189 -0.04583801 -0.04576888 -0.04566471 -0.04552763 -0.0453725 -0.04520217 -0.04503277
 -0.04486688 -0.04471831 -0.04458898 -0.04448361 -0.04440264 -0.04433753 -0.04428748 -0.04423898 -0.04419258 -0.04414414
 -0.04409638 -0.04405681 -0.044028 -0.0440203 -0.0440337 -0.04407388 -0.04413677 -0.04422108 -0.04431948 -0.04442605
 -0.04453488 -0.04464065 -0.04474245 -0.04483867 -0.04493015 -0.04501722 -0.04509861 -0.04517457 -0.04524109 -0.04529794
 -0.04534012 -0.04536735 -0.04537736 -0.04537045 -0.04535036 -0.04531783 -0.04527993 -0.04523577 -0.04518674 -0.04512944
 -0.04505654 -0.04496458 -0.04484354 -0.0446941 -0.04451097 -0.04430236 -0.04407078 -0.04383059 -0.04359017 -0.04335958
 -0.04314646 -0.04294692 -0.04276269 -0.04258165 -0.04240154 -0.04221765 -0.04202874 -0.04184018 -0.04165232 -0.04146251
 -0.04126896 -0.04104427 -0.04078497 -0.04045083 -0.04004776 -0.03956703 -0.03903721 -0.03851734 -0.03804806 -0.03773078
 -0.03757421 -0.03764548 -0.03788709 -0.03828827 -0.0387532 -0.03922566 -0.0396421 -0.0399582 -0.0401759 -0.04028368
 -0.04031469 -0.0402735 -0.04017994 -0.04003735 -0.03984645 -0.0396075 -0.03931678 -0.03897333 -0.03856364 -0.03808335
 -0.03749549 -0.0367992 -0.03596046 -0.03500522 -0.03396497 -0.03290368 -0.03194035 -0.0311347 -0.03062264 -0.0303806
 -0.03046209 -0.03073907 -0.03116311 -0.03160327 -0.03198093 -0.03229381 -0.03250794 -0.03274561 -0.03302195 -0.03343735
 -0.03401258 -0.03470294 -0.03550871 -0.03625778 -0.03694024 -0.0373722 -0.03755858 -0.03742647 -0.03701658 -0.0364329
 -0.03574123 -0.03516551 -0.03473378 -0.03462011 -0.03475966 -0.03515827 -0.03570418 -0.03629757 -0.03688941 -0.03740984
 -0.03789702 -0.03835215 -0.03880517 -0.0392757 -0.03971925 -0.04013458 -0.04045827 -0.04068046 -0.04079564 -0.04080219
 -0.04074415 -0.04062355 -0.04047808 -0.04030666 -0.04011988 -0.03991611 -0.03969466 -0.03945491 -0.0391952 -0.03891484
 -0.03861094 -0.03828566 -0.03793846 -0.03757756 -0.03720884 -0.03684107 -0.03648138 -0.03613305 -0.03579898 -0.0354802
 -0.03517729 -0.03489183 -0.03462487 -0.03437225 -0.03413412 -0.03390075 -0.03367148 -0.03344273 -0.03321479 -0.0329936
 -0.03277925 -0.03257604 -0.0323818 -0.03219078 -0.03199937 -0.03179549 -0.03157629 -0.03133052 -0.03105875 -0.03075598
 -0.03042735 -0.0300753 -0.02970495 -0.02932088 -0.02892268 -0.02851153 -0.02808493 -0.02764187 -0.02718352 -0.02670971
 -0.0262231 -0.02572383 -0.02521509 -0.02469695 -0.0241778 -0.02365835 -0.02315188 -0.0226592 -0.02219246 -0.02175201
 -0.0213464 -0.02097404 -0.02063686 -0.02032883 -0.0200407 -0.01976596 -0.01949145 -0.01921732 -0.0189389 -0.01865904
 -0.01837958 -0.01809771 -0.01781326 -0.01752154 -0.01722091 -0.01690998 -0.01658859 -0.0162538 -0.01590554 -0.01553846
 -0.01515218 -0.01474492 -0.01431653 -0.01386462 -0.01338858 -0.01288172 -0.01234527 -0.01177887 -0.01118827 -0.01058709
 -0.009983544 -0.009397485 -0.008837745 -0.008322349 -0.007859536 -0.007463402 -0.007135227 -0.006881889 -0.006694112 -0.006570566
 -0.006500054 -0.006479791 -0.006499873 -0.006559521 -0.006642735 -0.006748639 -0.006854658 -0.006959344 -0.007042783 -0.007104082
 -0.007128244 -0.007114766 -0.00705251 -0.006941774 -0.006778619 -0.00656194 -0.006289993 -0.005953794 -0.005539439 -0.00503042
 -0.004399153 -0.00363725 -0.002717035 -0.001671671 -0.0004886336 0.000713732 0.001917894 0.002918069 0.003662623 0.003963415
 0.003762376 0.003049136 0.001797772 0.0002216648 -0.001670242 -0.003574196 -0.005477569 -0.007162644 -0.008635723 -0.009837924
 -0.01079145 -0.01155487 -0.01215016 -0.01266786 -0.01311583 -0.0135528 -0.0139718 -0.01438715 -0.01479052 -0.01517538
 -0.01554785 -0.01590454 -0.0162703 -0.01665234 -0.01707865 -0.01756065 -0.01810498 -0.01871755 -0.01937953 -0.02008997
 -0.02082773 -0.02159112 -0.02237272 -0.02317221 -0.02398573 -0.02481213 -0.02564062 -0.02646973 -0.02728771 -0.02809341
 -0.02887855 -0.02964069 -0.03037165 -0.0310692 -0.03172677 -0.03234421 -0.03291969 -0.03345183 -0.03393947 -0.03438115
 -0.0347743 -0.0351254 -0.03543385 -0.03571486 -0.03597046 -0.03621623 -0.03645396 -0.03669664 -0.03694532 -0.0372086
 -0.03748632 -0.0377725 -0.03806484 -0.03834212 -0.03860297 -0.03882888 -0.0390229 -0.0391834 -0.03931529 -0.03942772
 -0.03952231 -0.03960601 -0.03967572 -0.03973133 -0.03976881 -0.03978392 -0.03977995 -0.03975527 -0.0397216 -0.03968224
 -0.03964462 -0.0396119 -0.03957984 -0.03954833 -0.03951294 -0.03947314 -0.03943255 -0.03939108 -0.03934687 -0.03929807
 -0.0392282 -0.03913585 -0.0390043 -0.03883707 -0.03863419 -0.03840277 -0.03815635 -0.03790036 -0.03764812 -0.0374008
 -0.03716427 -0.03693749 -0.03672129 -0.03651489 -0.03631891 -0.03612957 -0.03594751 -0.03576148 -0.03556957 -0.03536213
 -0.03513632 -0.03490081 -0.0346555 -0.03442376 -0.0342066 -0.03402068 -0.03386528 -0.03374152 -0.0336482 -0.03358107
 -0.03353892 -0.03351728 -0.03351277 -0.03351742 -0.03352687 -0.03353146 -0.03353005 -0.03351761 -0.0334963 -0.03346638
 -0.03342889 -0.03338551 -0.03333196 -0.03326829 -0.0331861 -0.03308353 -0.03295616 -0.03280259 -0.0326271 -0.03242983
 -0.03221689 -0.03198841 -0.03174414 -0.03148374 -0.03120406 -0.03090506 -0.03058475 -0.03024339 -0.02987875 -0.0294959
 -0.02909893 -0.02870514 -0.02833731 -0.02801606 -0.02777415 -0.02760696 -0.02753096 -0.02750248 -0.02751116 -0.02750312
 -0.02745757 -0.02735255 -0.02717583 -0.02694739 -0.02666605 -0.02637152 -0.0260664 -0.02578712 -0.02553513 -0.02532996
 -0.02516938 -0.02504462 -0.02494882 -0.02484525 -0.02472964 -0.02456626 -0.02436464 -0.02412347 -0.02386194 -0.02360829
 -0.02336985 -0.02316902 -0.02299035 -0.02283286 -0.02267349 -0.02250043 -0.02230314 -0.02207424 -0.02181806 -0.02153308
 -0.02123165 -0.02091425 -0.02059854 -0.0202857 -0.01999355 -0.01972265 -0.01947699 -0.01925429 -0.01903637 -0.01881977
 -0.018577 -0.01830959 -0.01800565 -0.01767339 -0.01732298 -0.01696312 -0.01661043 -0.01626985 -0.01595182 -0.01565922
 -0.01539802 -0.01516548 -0.0149646 -0.01478098 -0.01461271 -0.01443968 -0.0142575 -0.01405279 -0.01382289 -0.0135633
 -0.01327308 -0.01295751 -0.01261732 -0.01227508 -0.01193302 -0.01162229 -0.01134148 -0.01110255 -0.01089801 -0.01071154
 -0.01053687 -0.01035175 -0.01015787 -0.009947152 -0.009726149 -0.009499342 -0.009269115 -0.009040534 -0.008806915 -0.008566751
 -0.008313054 -0.008040554 -0.007758532 -0.007465877 -0.007184613 -0.006918013 -0.006677128 -0.006463831 -0.006268324 -0.006089987
 -0.005912437 -0.005735097 -0.005546009 -0.005345575 -0.005128326 -0.00489706 -0.004657193 -0.004411744 -0.004171179 -0.003932802
 -0.003697459 -0.003461273 -0.003217738 -0.0029737 -0.002730312 -0.002498874 -0.002286455 -0.002094214 -0.001924665 -0.001773539
 -0.001639772 -0.00152401 -0.001426857 -0.001343496 -0.00127426 -0.001200982 -0.001122738 -0.001022356 -0.0009004198 -0.0007549581
 -0.0005892022 -0.0004175373 -0.0002436728 -8.896647E-05 5.032652E-05 0.0001678241 0.0002786168 0.0004029445 0.0005493172 0.000740106
 0.0009581519 0.001200789 0.001444408 0.001673035 0.001888299 0.002084704 0.002280281 0.002478653 0.002688886 0.002913282
 0.003151598 0.003404382 0.003664029 0.003929896 0.004180411 0.004414763 0.004614588 0.004783703 0.004931157 0.005062631
 0.005201864 0.005349331 0.005518343 0.005704931 0.005909686 0.006126595 0.006349821 0.006574849 0.006794814 0.007014333
 0.007234016 0.007457933 0.007691512 0.007917728 0.008134562 0.008323156 0.008477144 0.008616576 0.008741605 0.0088898
 0.009062564 0.009260404 0.009480651 0.009694 0.009900898 0.01008728 0.01025864 0.01042511 0.01059132 0.01077293
 0.01096967 0.01119102 0.01142607 0.01167089 0.01190434 0.01210916 0.01227506 0.01238773 0.01246323 0.01250077
 0.01252891 0.0125532 0.01259673 0.01266423 0.01276412 0.01289877 0.01304886 0.01321326 0.01335834 0.01348566
 0.01359794 0.01370292 0.01384544 0.01402581 0.01427229 0.0145722 0.01491264 0.01527985 0.01564877 0.01600761
 0.01633428 0.01662451 0.01685905 0.01707087 0.01725805 0.01750023 0.0178298 0.01827293 0.01885938 0.01948272
 0.02013065 0.02073077 0.02127284 0.02176843 0.02221758 0.022619 0.0229704 0.02324402 0.02344011 0.02354421
 0.02356168 0.02350127 0.02337044 0.02318882 0.02296371 0.02271631 0.02244576 0.02215875 0.0218534 0.02152442
 0.02119107 0.02085951 0.02055215 0.02028254 0.02004164 0.01982991 0.01963575 0.01945357 0.01931134 0.01921079
 0.0191797 0.01921914 0.01930523 0.01943511 0.01956735 0.01970321 0.01983044 0.01994877 0.02005516 0.02013842
 0.02017368 0.02014783 0.0200268 0.01981224 0.01948525 0.01907593 0.01858864 0.01808812 0.01760497 0.01719448
 0.01688971 0.01668495 0.01658737 0.01656798 0.01662123 0.01674789 0.01694921 0.01720271 0.0175067 0.01776783
 0.01798211 0.01806883 0.01803833 0.01790302 0.01768213 0.01744628 0.01720821 0.01703313 0.01691938 0.01689753
 0.01694772 0.01706274 0.01721662 0.01738607 0.0175605 0.01772949 0.01788611 0.01803008 0.01813766 0.01820164
 0.0182145 0.01816826 0.01810974 0.01804037 0.01803074 0.01808459 0.01824086 0.01849677 0.01883514 0.01924321
 0.01964357 0.02002059 0.02027309 0.02040939 0.02038826 0.02025008 0.02004019 0.01979123 0.01956291 0.01935148
 0.01917342 0.01901706 0.01887742 0.01875721 0.0186569 0.01857655 0.01851727 0.01847291 0.01844275 0.01842248
 0.01841232 0.01839855 0.01838045 0.01834225 0.01828494 0.0182166 0.01813952 0.01807241 0.01801323 0.01796351
 0.01792287 0.01788934 0.01786798 0.0178678 0.01788764 0.01793131 0.01799171 0.01806446 0.01814494 0.01823248
 0.01831328 0.01838426 0.01842642 0.01843078 0.01840843 0.01835833 0.01830559 0.01825522 0.01818191 0.01808448
 0.01790675 0.01765054 0.0173225 0.01693387 0.01655686 0.01619386 0.01589593 0.01564827 0.01544233 0.01526217
 0.015073 0.0148804 0.01466937 0.01447307 0.01431095 0.01421234 0.01420856 0.01427427 0.01441729 0.014567
 0.0147067 0.01479305 0.0148139 0.0147711 0.0146641 0.01449 0.01424859</values></Ydata></AB><ScSm><Ydata ylabel="Single channel"><values byteorder="INTEL" format="FLOAT32" numvalues="1814"> 0.0746558 0.07466735 0.07474197 0.07490943 0.0751393 0.07535932 0.07550986 0.075583 0.07560153 0.07557453
 0.07550865 0.0754593 0.07551701 0.07571676 0.07598397 0.07618532 0.07623371 0.07616436 0.0761157 0.0761957
 0.07633722 0.07631767 0.07597013 0.07537609 0.07481131 0.07448964 0.07443012 0.07462162 0.07515744 0.07597531
 0.0765712 0.07636528 0.07543592 0.07454211 0.07427897 0.07450789 0.07472242 0.07463133 0.07424039 0.07373207
 0.07352114 0.07414746 0.07574312 0.07759027 0.07837895 0.07703435 0.07348418 0.06890349 0.06528459 0.06437059
 0.06642459 0.06987333 0.07248846 0.07316704 0.07246031 0.07144456 0.07056396 0.06977073 0.06927119 0.06956351
 0.07074563 0.07205286 0.07225317 0.07070006 0.06810573 0.06603907 0.06549516 0.06626923 0.067798 0.06977265
 0.07128731 0.07035024 0.06584596 0.06002057 0.05747811 0.06080012 0.06778909 0.07362066 0.0751358 0.07260376
 0.06831251 0.06467366 0.06332044 0.06466956 0.06784257 0.07139656 0.0742012 0.07549028 0.07466733 0.07182427
 0.06824953 0.06580007 0.0657561 0.06832244 0.07259339 0.07663327 0.07835078 0.07704414 0.07387011 0.07061935
 0.06853649 0.06832705 0.07033213 0.07417175 0.07872123 0.08276612 0.08549884 0.08659816 0.08629678 0.08523495
 0.08397175 0.08289102 0.08254343 0.08330802 0.08449453 0.08460547 0.08296849 0.08063598 0.07930102 0.07954547
 0.0803754 0.08042908 0.07935439 0.07758441 0.074991 0.07086411 0.06555168 0.0608875 0.05835513 0.05795807
 0.05932138 0.06227697 0.06557733 0.06681593 0.06506865 0.06257643 0.06252031 0.06562626 0.0697941 0.0726565
 0.07376508 0.07442491 0.07601356 0.07857358 0.0806335 0.0803207 0.07722355 0.07343492 0.07206926 0.07420304
 0.07784002 0.080365 0.08129995 0.08200794 0.08331443 0.08422826 0.08297442 0.07910254 0.0746188 0.07274549
 0.07511324 0.08012803 0.08412933 0.08410054 0.07969753 0.07332166 0.06824789 0.0663613 0.06764979 0.0714467
 0.07716177 0.08363631 0.08884742 0.09103997 0.09000692 0.08698316 0.08324148 0.07892413 0.07371163 0.06875964
 0.06692676 0.07006419 0.07663938 0.08301589 0.08669563 0.08755602 0.0864291 0.08355954 0.07884096 0.07329857
 0.06957023 0.06985635 0.07326709 0.07633126 0.07663265 0.07501088 0.0737638 0.07378273 0.07423173 0.07431516
 0.07440746 0.07540881 0.0774554 0.07958586 0.08067405 0.08045406 0.07955788 0.07877915 0.07835618 0.07780546
 0.07660109 0.07521931 0.07508343 0.07700568 0.08007123 0.08257978 0.08375204 0.08401356 0.08386294 0.08300625
 0.0807941 0.07745063 0.07457534 0.07395406 0.07582834 0.07874764 0.0810813 0.08218959 0.08226123 0.08172169
 0.08094721 0.08014497 0.07941633 0.07901759 0.07929118 0.08017391 0.08109456 0.08154783 0.08150581 0.0811584
 0.08055157 0.07965928 0.07864136 0.07785418 0.07759453 0.07787324 0.07845677 0.07908072 0.07954276 0.07965934
 0.07933292 0.07869626 0.07803136 0.07750961 0.0771346 0.07692192 0.07695715 0.07723399 0.077574 0.07777722
 0.07778257 0.07764436 0.07741817 0.07712168 0.07677607 0.07644556 0.07622947 0.07619512 0.07629691 0.07640196
 0.07644125 0.07648143 0.0765827 0.07665349 0.0765463 0.07625855 0.07594389 0.07574235 0.07567035 0.07566076
 0.07563652 0.07552336 0.07524676 0.07479604 0.07431023 0.07402848 0.07409827 0.0744635 0.0749554 0.07542092
 0.0757485 0.0758782 0.0758463 0.0757513 0.07563823 0.07546849 0.07521799 0.07495993 0.07483362 0.07493811
 0.07524428 0.07561152 0.07590107 0.07605889 0.07610206 0.07608871 0.07610661 0.0762083 0.07633373 0.0763658
 0.07628168 0.07619056 0.07620441 0.076314 0.07640912 0.07640487 0.0763367 0.07632233 0.07643174 0.07662149
 0.07680467 0.07695052 0.07709312 0.07726142 0.07741841 0.07747892 0.07740284 0.07726115 0.07717176 0.07717577
 0.07722595 0.07729194 0.07740922 0.07760289 0.07781707 0.07796298 0.07801912 0.0780504 0.07812284 0.07822175
 0.07827286 0.07823339 0.07813869 0.07806134 0.07804757 0.07809646 0.07817771 0.07825541 0.07830269 0.0783087
 0.07827934 0.0782298 0.07817352 0.07812542 0.07811905 0.07819781 0.07836162 0.07852916 0.07858724 0.07849343
 0.07831972 0.07818472 0.07814471 0.07815486 0.07813132 0.07803882 0.07791065 0.07779855 0.07772463 0.0776794
 0.07764374 0.07760641 0.07757841 0.07759852 0.07770309 0.07787132 0.07801637 0.07805771 0.07799928 0.07791781
 0.07788239 0.07790567 0.07796136 0.07802378 0.07809348 0.07819632 0.07834448 0.07849586 0.07858364 0.07859721
 0.07860141 0.07866777 0.07881875 0.07903568 0.07927306 0.07946059 0.07954523 0.07955098 0.07956238 0.07963382
 0.07974374 0.0798458 0.07993126 0.08002202 0.0801283 0.0802443 0.08038139 0.08058044 0.08088025 0.08127725
 0.08171804 0.0821337 0.08249332 0.082832 0.08321852 0.08368704 0.08420275 0.08469521 0.08511987 0.08548708
 0.08583733 0.08619452 0.0865519 0.08690748 0.08729303 0.0877427 0.08824202 0.08873633 0.08918974 0.08961315
 0.09003565 0.09047069 0.09091529 0.09136959 0.09184725 0.09236057 0.09289181 0.09339055 0.09381443 0.09417008
 0.09450726 0.09488079 0.09531842 0.09580083 0.09626159 0.09663486 0.09692693 0.09722185 0.09759095 0.09801365
 0.09841557 0.0987715 0.09913336 0.09955393 0.1000176 0.1004645 0.1008632 0.1012379 0.1016282 0.1020366
 0.1024187 0.1027268 0.1029639 0.1031869 0.1034506 0.1037674 0.1041324 0.1045579 0.1050464 0.1055498
 0.1059964 0.1063537 0.1066379 0.1068772 0.1070986 0.1073325 0.1075966 0.1078799 0.1081608 0.1084247
 0.1086543 0.1088366 0.1089997 0.1092066 0.1094901 0.1098235 0.1101763 0.1105595 0.1109862 0.111424
 0.1118339 0.1122381 0.112695 0.1132008 0.1136652 0.1140072 0.1142354 0.1144103 0.1145678 0.1147245
 0.1149275 0.1152372 0.1156597 0.1161365 0.1166023 0.1170303 0.1174214 0.1177793 0.1181009 0.1183766
 0.1185966 0.118763 0.1188999 0.1190519 0.1192682 0.1195732 0.1199396 0.1202995 0.1205908 0.1207861
 0.1208767 0.1208611 0.1207713 0.1206839 0.1206603 0.1206739 0.1206209 0.1204075 0.1200083 0.1194467
 0.1187484 0.1179326 0.1170394 0.1161507 0.1153775 0.1148193 0.1145337 0.1145397 0.1148356 0.1153905
 0.1161206 0.1168985 0.1175985 0.1181193 0.1183637 0.1182389 0.1177169 0.1168852 0.1159125 0.1149562
 0.1141004 0.1133554 0.1126986 0.1121361 0.1117551 0.1117111 0.1121482 0.113125 0.1146011 0.1164549
 0.1185002 0.1205204 0.1223427 0.1239034 0.1252421 0.1264326 0.1275276 0.1285601 0.1295625 0.1305494
 0.1314935 0.1323484 0.1331003 0.133775 0.1343949 0.1349507 0.1354137 0.1357609 0.1359941 0.1361493
 0.1362759 0.1363975 0.136506 0.1365975 0.1366895 0.136787 0.1368482 0.136798 0.1365748 0.1361738
 0.1356766 0.1352617 0.1351712 0.1356294 0.1367386 0.1384162 0.1404278 0.1425033 0.1444408 0.1461245
 0.1474979 0.1485602 0.149376 0.1500445 0.1506453 0.1512164 0.151771 0.1523124 0.1528363 0.1533355
 0.15381 0.1542701 0.1547308 0.1551999 0.1556684 0.1561167 0.1565385 0.1569545 0.1573978 0.1578828
 0.1583897 0.1588806 0.1593376 0.1597809 0.1602359 0.160689 0.1610996 0.1614539 0.1617857 0.1621411
 0.1625434 0.1629895 0.1634533 0.1638917 0.1642708 0.1645945 0.1648982 0.165213 0.1655444 0.1658836
 0.1662262 0.1665737 0.166926 0.1672833 0.1676542 0.1680443 0.1684333 0.168778 0.1690542 0.1692886
 0.1695357 0.1698268 0.1701467 0.1704606 0.1707564 0.1710596 0.1714061 0.1718001 0.1722018 0.1725588
 0.1728486 0.1730919 0.1733304 0.1735932 0.1738848 0.1741967 0.1745181 0.1748388 0.1751508 0.1754561
 0.1757654 0.1760843 0.1764066 0.1767242 0.1770358 0.1773442 0.1776506 0.1779572 0.178273 0.1786118
 0.1789806 0.1793648 0.1797309 0.1800492 0.1803159 0.1805514 0.1807819 0.1810249 0.1812873 0.1815692
 0.181869 0.1821853 0.1825134 0.1828411 0.1831546 0.1834522 0.1837479 0.1840567 0.1843781 0.1846991
 0.1850108 0.1853191 0.1856346 0.1859555 0.1862686 0.1865641 0.186847 0.1871312 0.1874258 0.1877258
 0.1880176 0.1882942 0.1885645 0.1888437 0.1891346 0.1894256 0.1897049 0.1899723 0.1902361 0.1905049
 0.1907823 0.1910661 0.1913518 0.1916367 0.1919209 0.1922041 0.1924829 0.1927538 0.1930181 0.1932847
 0.1935624 0.1938504 0.1941409 0.1944292 0.1947156 0.1949985 0.1952737 0.1955402 0.1958026 0.1960666
 0.1963359 0.1966106 0.1968874 0.1971633 0.1974374 0.1977098 0.1979802 0.1982487 0.1985156 0.1987832
 0.199059 0.1993497 0.1996497 0.1999422 0.2002171 0.2004802 0.2007463 0.2010263 0.201319 0.2016135
 0.2019013 0.2021862 0.2024762 0.2027686 0.2030507 0.2033124 0.2035536 0.2037856 0.2040243 0.2042766
 0.2045349 0.2047895 0.2050393 0.2052893 0.205545 0.2058103 0.2060831 0.2063568 0.2066289 0.2069016
 0.2071719 0.2074338 0.2076886 0.2079439 0.2082042 0.2084707 0.2087422 0.2090124 0.2092785 0.2095482
 0.209829 0.2101172 0.2104068 0.2106949 0.2109754 0.2112439 0.2115086 0.2117803 0.2120574 0.2123345
 0.2126132 0.2128935 0.2131697 0.2134385 0.2137026 0.2139692 0.2142501 0.2145503 0.2148553 0.2151439
 0.2154094 0.2156571 0.2158954 0.2161388 0.2164009 0.2166775 0.2169556 0.2172312 0.217505 0.2177751
 0.2180451 0.2183208 0.2185975 0.2188697 0.2191409 0.2194105 0.2196707 0.2199267 0.2201865 0.2204281
 0.2205878 0.2205258 0.2199068 0.2180597 0.2139565 0.2064196 0.1945936 0.1784843 0.1591409 0.1382807
 0.1176578 0.09861235 0.08194503 0.06801453 0.05690145 0.04851884 0.04268867 0.03926205 0.0382388 0.03989016
 0.04489512 0.05393649 0.06618331 0.07795514 0.0841599 0.08231282 0.07491025 0.06715421 0.06263617 0.06161059
 0.06254528 0.06412742 0.06593406 0.06820053 0.07134201 0.07547772 0.08040193 0.08609521 0.09298421 0.1013988
 0.1109066 0.1204869 0.1294109 0.137813 0.1463539 0.1554205 0.1647207 0.1735725 0.1814501 0.1882522
 0.1941988 0.1995845 0.2046089 0.2093613 0.2138849 0.2181768 0.2220894 0.2252918 0.2274294 0.2283909
 0.2284392 0.2280679 0.2277139 0.2275831 0.2276946 0.2280091 0.228494 0.2291277 0.2298961 0.2307801
 0.2317405 0.2327296 0.2337148 0.2346761 0.2355928 0.2364485 0.2372392 0.2379663 0.2386321 0.2392431
 0.239804 0.2403121 0.2407678 0.2411853 0.2415854 0.2419826 0.2423794 0.2427647 0.2431195 0.243434
 0.2437181 0.2439904 0.2442632 0.2445366 0.2448019 0.2450483 0.2452734 0.2454877 0.2457077 0.2459462
 0.2462044 0.2464703 0.2467277 0.2469725 0.2472125 0.2474513 0.2476831 0.2479063 0.2481297 0.2483599
 0.248593 0.2488235 0.2490499 0.249272 0.2494917 0.2497155 0.2499507 0.2501978 0.2504475 0.2506877
 0.2509174 0.2511523 0.2514075 0.2516784 0.251949 0.2522134 0.2524768 0.2527409 0.2530048 0.2532688
 0.2535234 0.2537465 0.2539271 0.2540878 0.2542728 0.2545104 0.2547901 0.2550763 0.2553458 0.2556022
 0.2558546 0.2560993 0.2563282 0.2565398 0.2567427 0.2569615 0.2572277 0.2575433 0.257872 0.2581821
 0.2584759 0.258767 0.2590602 0.2593584 0.2596529 0.2599057 0.2600802 0.260202 0.2603646 0.2606574
 0.2610809 0.2615376 0.2619216 0.2622129 0.2624674 0.2627445 0.2630694 0.2634131 0.2636638 0.2637048
 0.2635963 0.2636034 0.2639493 0.2645895 0.2652913 0.2658724 0.2663063 0.2666544 0.2669657 0.2672311
 0.2673937 0.2674113 0.2673422 0.26737 0.2676798 0.2682692 0.2689337 0.2694761 0.2698648 0.2701602
 0.2704012 0.2706028 0.2707238 0.2706046 0.2701339 0.2695573 0.2694208 0.2700481 0.2711758 0.2722314
 0.2728963 0.2732739 0.2735775 0.2738662 0.2740977 0.2741683 0.2737847 0.2726374 0.271002 0.2699011
 0.2702555 0.2719541 0.2740324 0.2756366 0.2765605 0.2770249 0.2773012 0.2775307 0.2776185 0.2772483
 0.2762388 0.2750043 0.2744406 0.2750995 0.2765709 0.277926 0.2786617 0.2789577 0.2791766 0.279457
 0.2796231 0.2791348 0.277391 0.2746231 0.272351 0.2723188 0.274789 0.2782213 0.2807963 0.2819847
 0.282406 0.2824829 0.2818171 0.2799059 0.2768967 0.2735179 0.2708485 0.2701724 0.2721307 0.2756569
 0.2785788 0.2797584 0.2800513 0.2808872 0.282564 0.2842465 0.2850598 0.2847703 0.2836401 0.281949
 0.279858 0.2778598 0.2770466 0.2783349 0.2813521 0.284571 0.2867218 0.2877557 0.2881797 0.2875735
 0.2842895 0.2774369 0.2693633 0.2650072 0.2675371 0.2750372 0.2825674 0.2870222 0.2888331 0.2896462
 0.2901149 0.2897198 0.2870736 0.2806783 0.2712844 0.2633763 0.2621397 0.2683312 0.277421 0.2838247
 0.284711 0.2802972 0.2728418 0.2659696 0.2631944 0.2657868 0.2722219 0.2796875 0.2857713 0.2891164
 0.2894078 0.2872481 0.2841114 0.2819796 0.2819086 0.282468 0.280825 0.2763181 0.2715536 0.268577
 0.2657102 0.260664 0.2555726 0.2555791 0.2621511 0.2706273 0.275456 0.2758147 0.274601 0.2731455
 0.26893 0.2592171 0.2462447 0.2373076 0.2383796 0.2479189 0.258248 0.2630675 0.2624588 0.2606252
 0.2602793 0.2598892 0.2558631 0.2472448 0.2380658 0.2339572 0.236171 0.2404631 0.2421138 0.2397007
 0.2334531 0.2237152 0.2136182 0.2100541 0.2178572 0.2338791 0.2494664 0.2575954 0.2554436 0.242828
 0.2231476 0.2053865 0.1997412 0.2085019 0.223272 0.2326972 0.2314758 0.221285 0.205905 0.1886283
 0.173769 0.1671301 0.1725185 0.1878779 0.2053962 0.2154118 0.2117457 0.1964812 0.1803237 0.1748914
 0.1821781 0.1932161 0.1981365 0.1951186 0.1889657 0.1848798 0.1854459 0.1902572 0.1963708 0.2010413
 0.2039099 0.2039706 0.1966168 0.1791977 0.1584655 0.1461492 0.1467575 0.1552436 0.1663991 0.1795213
 0.1923495 0.1978732 0.1922434 0.1820886 0.1788781 0.1867421 0.1989307 0.2060627 0.2053936 0.2013057
 0.1985171 0.1970606 0.1946046 0.1918518 0.1927657 0.1990812 0.2072666 0.2124648 0.2135588 0.21274
 0.2117906 0.2107403 0.2091316 0.206819 0.2038761 0.2007124 0.1979591 0.1957688 0.1936941 0.1913964
 0.1886393 0.1842939 0.1766019 0.1657094 0.155242 0.1494704 0.1488318 0.1501928 0.1515059 0.153031
 0.1530025 0.1463864 0.1315596 0.1157925 0.1099648 0.1180723 0.1342611 0.1494462 0.1581575 0.1589689
 0.1518977 0.1389187 0.1265181 0.1236218 0.1342265 0.1535217 0.1730745 0.1881222 0.1980159 0.2021315
 0.1991787 0.1903833 0.1807182 0.1760683 0.1796654 0.1906246 0.2041634 0.2127645 0.2098545 0.1963958
 0.1839 0.1859377 0.2038291 0.2243808 0.2347146 0.2353398 0.2348885 0.2366998 0.2371746 0.2352512
 0.2361883 0.2443427 0.2567486 0.2660422 0.2669291 0.258266 0.2423518 0.2254179 0.2160087 0.2181534
 0.2268147 0.2333858 0.2340404 0.2292594 0.2187209 0.2033218 0.1905157 0.1898595 0.2019152 0.216955
 0.2260228 0.229096 0.2310614 0.2333613 0.2323207 0.2247719 0.2132825 0.2045544 0.202749 0.2058255
 0.2090096 0.2098676 0.2083675 0.2040194 0.1961789 0.187098 0.1819622 0.1844368 0.1929611 0.2022925
 0.2082635 0.2104238 0.2107421 0.2110418 0.2117254 0.2119871 0.2111885 0.210628 0.213259 0.220424
 0.229551 0.2367318 0.2411982 0.2455623 0.2517467 0.2583082 0.2621593 0.2619328 0.2593107 0.2576069
 0.2591453 0.2634213 0.2674683 0.268391 0.2661245 0.2637494 0.264647 0.2692646 0.2750432 0.2793157
 0.2814883 0.2824984 0.2832456 0.2838464 0.283603 0.2815733 0.2779924 0.2751152 0.2756336 0.2799805
 0.2858653 0.290575 0.2931172 0.2940847 0.2942114 0.2935867 0.2920636 0.2899601 0.288093 0.2871569
 0.2872441 0.2879854 0.2889544 0.2898538 0.290522 0.2909458 0.2912222 0.2914404 0.2916371 0.2918479
 0.2920912 0.2922954 0.292358 0.2923183 0.2923753 0.2926601 0.2930604 0.293338 0.2933469 0.2930417
 0.2923456 0.2911669 0.2895514 0.2876823 0.285686 0.2835566 0.281382 0.2796024 0.2788922 0.2796626
 0.2816653 0.2841141 0.2861852 0.2874253 0.2878435 0.2877929 0.2877491 0.2880228 0.2885733 0.2891027
 0.2893385 0.289212 0.2888073 0.2882189 0.2874886 0.2866259 0.2856198 0.284418 0.282971 0.2813767
 0.2799544 0.2790574 0.2787478 0.2787153 0.278583 0.2782652 0.2779666 0.2778618 0.2778468 0.2775925
 0.2767919 0.2754053 0.2737603 0.272383 0.2716035 0.2712935 0.2710394 0.2705506 0.2698398 0.2690637
 0.2683191 0.2676064 0.2668865 0.2661102 0.2652218 0.2641746 0.2629543 0.2615849 0.2601109 0.2585696
 0.2569804 0.2553515 0.2536895 0.2519941 0.2502505 0.2484323 0.2465226 0.2445385 0.242532 0.2405478
 0.2385614 0.2364554 0.2340633 0.2312378 0.2278744 0.2239 0.2192868 0.214103 0.2085276 0.2028014
 0.1971602 0.1917974 0.1868555 0.1824378 0.1786293 0.1754996 0.1730871 0.1713981 0.170431 0.1701895
 0.17067 0.1718395 0.1736203 0.1758867 0.1784816 0.1812333 0.1839577 0.1864749 0.1886748 0.1905788
 0.1923156 0.1940119 0.195702 0.1973394 0.1988768 0.2003077 0.2016262 0.2027887 0.2037449 0.2044891
 0.2050527 0.2054636 0.2057291 0.2058351 0.2057393 0.2053763 0.2047072 0.2038074 0.2029466 0.2025565
 0.2030184 0.204394 0.2063529 0.2083877 0.2101259 0.2114803 0.2125728 0.2135653 0.2145503 0.215549
 0.2165605 0.2176059 0.2187485 0.2200783 0.2216632 0.2235118 0.2255846 0.2278199 0.2301365 0.232427
 0.2345703 0.2364586 0.2380191 0.2392268 0.2400999 0.2406793 0.2410143 0.2411541 0.2411413 0.2410114
 0.2407995 0.2405309 0.240202 0.2397898 0.2392841 0.2386945 0.2380373 0.2373329 0.2366069 0.2358749
 0.2351365 0.2343941 0.2336612 0.2329476 0.2322472 0.2315453 0.2308263 0.2300755 0.2292839 0.228453
 0.2275935 0.2267114 0.2257899 0.2247911 0.2236864 0.2224754 0.2211653 0.2197497 0.218226 0.2166196
 0.2149715 0.2133089 0.2116355 0.2099382 0.2081925 0.206363 0.2044078 0.2023003 0.200063 0.1977749
 0.1955309 0.1933935 0.1913821 0.1894847 0.1876725 0.185918 0.1842094 0.1825452 0.1809378 0.1794332
 0.1780959 0.1769385 0.1758847 0.1748298 0.1737316 0.1726345 0.1716216 0.1707541 0.1700411 0.1694454
 0.1689142 0.1684159 0.1679669 0.1676224 0.1674183 0.1673181 0.1672314 0.1670806 0.1668402 0.1665297
 0.166194 0.1658787 0.1655986 0.1653345 0.1650597 0.1647495 0.1643561 0.1638009 0.1630027 0.1619092
 0.1605042 0.1588037 0.1568583 0.1547654 0.1526695 0.1507243 0.1490421 0.1476803 0.1466459 0.1458823
 0.1452776 0.1447334 0.1442335 0.1438346 0.1436042 0.1435564 0.1436135 0.1436441 0.1435845 0.1435142
 0.1435851 0.1438905 0.1444102 0.14504 0.1456516 0.1461526 0.1465103 0.1467292 0.1468317 0.1468543
 0.1468222 0.1467252 0.1465474 0.1462985 0.1459911 0.1456188 0.1451759 0.144662 0.1440651 0.1433748
 0.1425986 0.1417439 0.1408086 0.1397881 0.1386566 0.1373748 0.1359952 0.1347377 0.1338937 0.1336474
 0.1339791 0.1346922 0.1355513 0.1364361 0.1373048 0.137996 0.1382608 0.13815 0.1382247 0.1391432
 0.1410165 0.1432867 0.1452382 0.1465086 0.1470988 0.147091 0.1465306 0.1454763 0.1439717 0.1420016
 0.139585 0.1368375 0.1338817 0.1308246 0.1278495 0.1251729 0.1229064 0.12105 0.1195629 0.11847
 0.1179184 0.1175731 0.115621 0.1097286 0.10063 0.09373239 0.0945719 0.1025939 0.1115408 0.116084
 0.1160831 0.1143875 0.1129633 0.1121078 0.1117094 0.1118813 0.1127249 0.1140852 0.1155642 0.1167595
 0.1175265 0.1179193 0.1178801 0.1170389 0.1147024 0.1100871 0.1029499 0.09416135 0.08541574 0.0782363
 0.07328719 0.07041216 0.06898601 0.06827444 0.06779057 0.06749757 0.06768203 0.06863226 0.07042553 0.0729572
 0.07605247 0.07944116 0.08269236 0.0853916 0.08744127 0.08904111 0.09034951 0.09131047 0.09181167 0.09184887
 0.09150472 0.09087852 0.09007099 0.08917223 0.08821745 0.08717398 0.08603674 0.08495669 0.08418494 0.08383112
 0.08376092 0.08377743 0.08379681 0.08381262 0.08381315 0.08378407 0.08372775 0.08368652 0.08377348 0.08409632
 0.08460562 0.08510011 0.08541051 0.08552481 0.08554126 0.08551681 0.08533943 0.08482841 0.0840522 0.08337912
 0.08300544 0.08260906 0.08176327 0.08058077 0.07965241 0.07939007 0.07965577 0.08001022 0.0801263 0.07995118
 0.07966033 0.07956016 0.07990082 0.08060518</values></Ydata></ScSm><ScRf><Ydata ylabel="Single channel"><values byteorder="INTEL" format="FLOAT32" numvalues="1820"> 0.06065626 0.06081693 0.06091246 0.06094309 0.06093571 0.06094021 0.0610086 0.06116047 0.06136528 0.0615601
 0.06169298 0.06175467 0.06176339 0.06172859 0.06165925 0.06160523 0.06164446 0.06180554 0.06202326 0.06218486
 0.06221888 0.06215498 0.06210592 0.06216029 0.06226643 0.0622459 0.06196144 0.06147514 0.06100857 0.06073662
 0.06067736 0.06082492 0.06126045 0.06193839 0.06244482 0.06229263 0.06153203 0.06078422 0.06055062 0.06073005
 0.06090585 0.06082823 0.06049466 0.06005835 0.05987069 0.06038494 0.06171211 0.06325576 0.06392696 0.06283133
 0.05990715 0.056128 0.05314203 0.05238683 0.05407664 0.05691434 0.05906577 0.05962326 0.05904093 0.05820639
 0.05748503 0.05683143 0.05640755 0.05662392 0.05757293 0.05863857 0.05881042 0.05754814 0.05542478 0.05372272
 0.05326202 0.05388287 0.05512944 0.05674899 0.05799584 0.05723371 0.05354418 0.04876541 0.04667506 0.0493997
 0.05514338 0.05994206 0.06119152 0.05911105 0.05558987 0.05261593 0.05152294 0.05263882 0.05523716 0.05813979
 0.06042632 0.0614708 0.06078552 0.05844847 0.05551714 0.05351255 0.05348271 0.0555937 0.05909881 0.0624071
 0.06380488 0.06272227 0.06011282 0.0574462 0.05574031 0.05557041 0.05721716 0.06037482 0.06412464 0.06746601
 0.06972647 0.07063473 0.07038169 0.06950031 0.06845926 0.06757735 0.06730172 0.0679363 0.06891148 0.06899913
 0.06764975 0.06573011 0.06463307 0.06483841 0.06552992 0.06558598 0.06471297 0.06326552 0.06114028 0.05775292
 0.05338512 0.04954387 0.04745585 0.04713298 0.04827186 0.05073446 0.05348911 0.05454284 0.0531192 0.0510543
 0.05097347 0.05349279 0.05690068 0.05925415 0.06017974 0.0607448 0.06207795 0.0642098 0.06592591 0.06568315
 0.06314186 0.06002755 0.05891344 0.06069504 0.06372702 0.06584509 0.06664936 0.06726785 0.06838813 0.06919236
 0.06820923 0.06506226 0.0614077 0.05990559 0.06189924 0.06607309 0.06941101 0.06942575 0.06583065 0.06060874
 0.05647113 0.05498073 0.05613115 0.05937832 0.0642422 0.0697649 0.07426073 0.07625152 0.07553505 0.07311999
 0.07007214 0.0665219 0.06220365 0.05809464 0.05662929 0.05940374 0.06513564 0.07073122 0.07404607 0.07495518
 0.0741514 0.07182663 0.06787863 0.06320132 0.06010506 0.06052233 0.06368081 0.06653956 0.06697074 0.06570064
 0.0647485 0.0649076 0.06544773 0.06567037 0.06591523 0.06698786 0.06900695 0.07110911 0.0722828 0.07227975
 0.07165489 0.07112217 0.07090972 0.07059149 0.0696944 0.06865294 0.0687616 0.07075292 0.07378168 0.07628962
 0.07756739 0.07801194 0.07807914 0.07748054 0.0755963 0.07263694 0.07012107 0.0697511 0.07176609 0.07478626
 0.07724451 0.07851878 0.07879481 0.07849322 0.07797823 0.07744192 0.07697488 0.07682262 0.07732003 0.07841172
 0.07954334 0.08021627 0.08039609 0.08026393 0.0798629 0.07917361 0.07836876 0.07781014 0.07778654 0.07829928
 0.07911275 0.0799624 0.08064407 0.08097203 0.08084403 0.08038759 0.07989083 0.07954456 0.07936791 0.07937468
 0.07963654 0.08013393 0.08068237 0.08108174 0.08127156 0.08130584 0.08124244 0.08110251 0.0809072 0.0807225
 0.08065837 0.08079088 0.08106638 0.08133641 0.08152963 0.08172353 0.08198328 0.08220733 0.08223393 0.08205932
 0.08185325 0.08177239 0.08183103 0.08194685 0.08203525 0.08202511 0.08184327 0.08147956 0.08108233 0.08090349
 0.08109418 0.08159614 0.08224076 0.08287102 0.08335803 0.08362034 0.08368662 0.08366606 0.08361986 0.08351564
 0.08332358 0.08311149 0.08302662 0.08318619 0.08357371 0.08404371 0.08443838 0.08468448 0.08479337 0.08483577
 0.0849195 0.08510315 0.08530709 0.08538803 0.0853229 0.08524729 0.08528849 0.08541863 0.08550207 0.08545937
 0.08535758 0.08533838 0.08547205 0.08570053 0.08592097 0.08609564 0.08626661 0.08647466 0.0866753 0.08675318
 0.08664474 0.08643149 0.08626412 0.08620487 0.08620692 0.08624081 0.08635365 0.08657152 0.086813 0.08695771
 0.08697846 0.08696133 0.08699301 0.08705813 0.08706425 0.08695295 0.08676447 0.08659877 0.08653302 0.0865757
 0.08667424 0.08675306 0.08675729 0.08668046 0.08655889 0.0864378 0.08634333 0.08629268 0.08632266 0.0864747
 0.08672548 0.08694935 0.08699472 0.086821 0.08654803 0.08635099 0.08630234 0.08632039 0.08626755 0.08608294
 0.08581673 0.08555906 0.08536161 0.08522221 0.08511582 0.0850275 0.08497201 0.08499075 0.085108 0.08527011
 0.08535074 0.08525425 0.08501178 0.08475014 0.08457551 0.08450912 0.08451076 0.08452628 0.08452866 0.08454177
 0.08460306 0.08468673 0.08470692 0.08462235 0.08449602 0.08443017 0.08448309 0.08465315 0.08488211 0.08505988
 0.08509143 0.08499126 0.08487379 0.08483479 0.08487672 0.08495314 0.08503897 0.0851341 0.0852332 0.08532902
 0.08543862 0.08559999 0.08583263 0.08610828 0.08636469 0.08655052 0.08666569 0.08676629 0.08692525 0.08717632
 0.08748892 0.08779468 0.08804189 0.08823249 0.08840937 0.08860487 0.08881087 0.08901106 0.08922531 0.0894914
 0.08980995 0.0901401 0.09044877 0.09073673 0.09101716 0.09129518 0.09157547 0.09187798 0.09223698 0.09267043
 0.0931358 0.09353147 0.09377494 0.0938848 0.09397347 0.09416196 0.094497 0.09491658 0.09528205 0.09548528
 0.09555669 0.09563962 0.09583354 0.09609625 0.09633318 0.09654523 0.09683036 0.09724467 0.09771346 0.09810034
 0.09834138 0.09849191 0.09865009 0.09884997 0.09903952 0.09916155 0.09923528 0.09933311 0.09948741 0.09966756
 0.09986043 0.100119 0.1004896 0.1009252 0.1013194 0.1016089 0.1018048 0.1019455 0.1020545 0.1021368
 0.1021864 0.1022065 0.1022321 0.102306 0.1024195 0.1025089 0.1025354 0.1025376 0.1025856 0.1027137
 0.1029204 0.1031983 0.1035246 0.1038451 0.1041198 0.1043842 0.1047128 0.1051026 0.1054399 0.1056201
 0.1056637 0.1056716 0.105699 0.1057374 0.1057989 0.1059403 0.1061921 0.1065176 0.1068622 0.107208
 0.1075622 0.1079176 0.108237 0.1084676 0.1085712 0.1085584 0.1084985 0.108488 0.1085987 0.1088407
 0.1091632 0.1094917 0.1097731 0.1099815 0.1100926 0.1100891 0.1100141 0.1099812 0.1100813 0.1102793
 0.1104331 0.1104182 0.1102076 0.1098376 0.1093396 0.1087322 0.1080599 0.1074032 0.1068451 0.1064345
 0.1061937 0.1061528 0.1063585 0.1068242 0.1074766 0.1081787 0.1088126 0.1093141 0.1096234 0.1096542
 0.1093546 0.1087772 0.1080546 0.1073134 0.1066268 0.1060117 0.1054386 0.1048718 0.1043494 0.1040209
 0.1040775 0.1046358 0.1056789 0.1070705 0.1086014 0.1100538 0.1112818 0.1122614 0.1130639 0.1137777
 0.114453 0.115112 0.115774 0.1164413 0.1170754 0.1176263 0.1180884 0.1185028 0.1189054 0.1192947
 0.1196467 0.119939 0.1201697 0.1203678 0.1205658 0.1207473 0.1208483 0.1208315 0.1207327 0.1206145
 0.1204946 0.1203375 0.1200927 0.1197343 0.1192946 0.1188906 0.1187074 0.1189198 0.1195919 0.1206388
 0.1218913 0.1232022 0.1244815 0.1256456 0.1265909 0.1272574 0.1276908 0.1280056 0.1282948 0.1285924
 0.1288996 0.1292094 0.1295107 0.1297935 0.1300609 0.1303332 0.1306363 0.1309769 0.1313254 0.1316316
 0.1318724 0.1320842 0.1323392 0.13268 0.133076 0.1334542 0.1337785 0.1340826 0.134409 0.1347361
 0.1349994 0.135176 0.1353163 0.1354953 0.1357591 0.1361097 0.1365027 0.1368597 0.1371206 0.1372943
 0.1374449 0.137627 0.1378487 0.1380912 0.1383395 0.1385878 0.1388363 0.1390956 0.1393861 0.1397103
 0.1400289 0.1402828 0.1404515 0.140579 0.1407311 0.1409338 0.1411602 0.1413711 0.1415613 0.141768
 0.1420336 0.142357 0.1426813 0.1429379 0.1431025 0.143209 0.1433148 0.143459 0.1436474 0.143864
 0.1440868 0.1442992 0.1444978 0.1446939 0.1449023 0.1451254 0.1453501 0.1455627 0.1457627 0.1459608
 0.1461664 0.1463795 0.1465991 0.1468358 0.1471072 0.1474113 0.14771 0.1479539 0.1481245 0.1482471
 0.1483624 0.1484961 0.148654 0.1488348 0.1490363 0.1492538 0.1494767 0.1496937 0.1499004 0.1501
 0.1502979 0.1504979 0.1507011 0.1509075 0.1511195 0.1513415 0.1515735 0.1518034 0.1520143 0.1522006
 0.1523741 0.1525528 0.152747 0.1529535 0.1531596 0.1533549 0.1535392 0.1537203 0.1539051 0.1540955
 0.1542893 0.1544839 0.1546792 0.1548784 0.1550822 0.155285 0.1554818 0.155674 0.1558667 0.1560639
 0.1562672 0.1564744 0.1566773 0.1568665 0.1570423 0.1572169 0.1574048 0.1576118 0.1578311 0.1580503
 0.1582609 0.1584613 0.158654 0.1588427 0.1590322 0.1592248 0.1594196 0.1596167 0.1598176 0.1600206
 0.160222 0.1604228 0.1606273 0.1608365 0.1610489 0.1612662 0.1614899 0.1617155 0.161935 0.1621448
 0.1623495 0.1625572 0.1627707 0.1629844 0.1631922 0.1633971 0.1636068 0.1638242 0.1640445 0.1642561
 0.1644465 0.1646135 0.1647705 0.1649336 0.1651082 0.1652907 0.1654758 0.1656579 0.1658367 0.1660199
 0.1662153 0.1664196 0.1666246 0.1668269 0.1670256 0.1672204 0.1674138 0.1676106 0.1678118 0.1680172
 0.1682277 0.1684434 0.1686627 0.168881 0.1690891 0.1692799 0.1694612 0.1696516 0.1698612 0.1700845
 0.1703122 0.1705377 0.1707569 0.1709706 0.1711818 0.171389 0.1715905 0.1717904 0.1719935 0.1721998
 0.1724113 0.1726299 0.1728473 0.1730523 0.1732478 0.1734479 0.1736628 0.1738919 0.1741235 0.1743412
 0.1745406 0.1747342 0.1749352 0.175147 0.1753703 0.1756004 0.1758226 0.1760306 0.1762371 0.1764525
 0.1766687 0.1768747 0.1770662 0.1772333 0.1773432 0.1772944 0.1768117 0.1753396 0.1720349 0.1659417
 0.1563737 0.1433465 0.1277168 0.1108744 0.09423032 0.07885739 0.06539594 0.05413824 0.04515829 0.03839361
 0.03370298 0.03096233 0.03016193 0.03151064 0.03555438 0.04285293 0.05274757 0.0622709 0.06730266 0.06582387
 0.05984853 0.05358865 0.04995253 0.04913752 0.04989111 0.0511503 0.05258726 0.05440736 0.05694838 0.06029806
 0.06428374 0.06889224 0.07447244 0.08128776 0.08898056 0.09672198 0.1039279 0.1107171 0.1176307 0.1249797
 0.1325215 0.1397042 0.1461078 0.15165 0.1564988 0.1608824 0.1649605 0.1688105 0.1724755 0.1759605
 0.1791483 0.1817672 0.183524 0.1843241 0.1843768 0.1840799 0.1837906 0.1836841 0.1837845 0.1840634
 0.1844899 0.1850374 0.1856878 0.1864253 0.1872208 0.1880361 0.1888433 0.1896283 0.1903843 0.1911081
 0.1917925 0.19242 0.192979 0.1934815 0.1939491 0.1943894 0.1947992 0.1951786 0.1955321 0.1958668
 0.1961927 0.1965118 0.1968114 0.1970792 0.1973179 0.1975386 0.197747 0.1979465 0.1981456 0.1983534
 0.1985722 0.198795 0.1990115 0.1992184 0.1994219 0.1996263 0.1998277 0.2000244 0.2002228 0.2004271
 0.2006317 0.2008312 0.2010275 0.2012239 0.2014206 0.2016167 0.2018116 0.2020022 0.2021844 0.2023593
 0.2025351 0.2027225 0.2029238 0.20313 0.2033334 0.2035415 0.2037663 0.2040056 0.2042437 0.2044687
 0.2046773 0.2048712 0.2050603 0.2052582 0.2054637 0.205655 0.2058147 0.2059547 0.2061112 0.2063125
 0.206553 0.2067983 0.2070193 0.2072158 0.2074041 0.2075934 0.2077816 0.2079622 0.2081345 0.2083156
 0.2085317 0.2087875 0.2090566 0.209316 0.2095666 0.2098123 0.210048 0.2102749 0.2104962 0.2106947
 0.210846 0.2109643 0.2111143 0.2113637 0.2117171 0.2121017 0.2124314 0.2126849 0.2129058 0.2131439
 0.2134185 0.2137018 0.2139034 0.2139303 0.2138274 0.2138043 0.2140478 0.2145404 0.2151085 0.2156012
 0.2159782 0.2162724 0.2165242 0.2167409 0.216888 0.2169293 0.216902 0.2169468 0.2172125 0.2177023
 0.2182554 0.2187097 0.2190298 0.2192578 0.2194342 0.2195924 0.2197109 0.219648 0.2192891 0.2188274
 0.2187222 0.2192496 0.2201888 0.2210619 0.221612 0.221935 0.2222093 0.2224754 0.2226874 0.2227554
 0.2224439 0.2215082 0.2201797 0.2192962 0.2196089 0.2210232 0.2227492 0.2240921 0.2248855 0.2253051
 0.2255654 0.2257827 0.225887 0.2256237 0.2248386 0.2238635 0.2234351 0.2240157 0.2252718 0.2264284
 0.2270583 0.2273102 0.2274966 0.2277451 0.2279158 0.2275607 0.2261777 0.2239518 0.2221332 0.2221587
 0.2242437 0.2271176 0.2292781 0.2302835 0.2306438 0.2307179 0.2301925 0.2286615 0.2262455 0.2235374
 0.2214107 0.220906 0.2225455 0.2254618 0.2278853 0.2288932 0.229192 0.2299484 0.2313924 0.232826
 0.2335278 0.2333138 0.2324118 0.2310574 0.2293807 0.2277858 0.227176 0.228305 0.2308561 0.2335638
 0.235388 0.236301 0.2367249 0.2363016 0.233655 0.2280459 0.2214285 0.2178999 0.2200793 0.226369
 0.2326743 0.2364304 0.2380007 0.2387463 0.2392034 0.238944 0.2368224 0.2315915 0.223865 0.2173702
 0.2164297 0.2216771 0.229335 0.2347451 0.2355485 0.2319337 0.2257939 0.2201582 0.2179504 0.2202206
 0.2256937 0.2320262 0.2372054 0.2400984 0.2404454 0.2387535 0.2362554 0.2346042 0.2346731 0.235254
 0.2339771 0.2303034 0.2264302 0.2240746 0.221822 0.2177416 0.2136222 0.2137914 0.2194881 0.2267852
 0.2310045 0.2314603 0.2306058 0.2295654 0.2262111 0.2182249 0.2074864 0.2001564 0.201292 0.2095963
 0.2185762 0.222905 0.2226574 0.2213936 0.2214099 0.2213975 0.2182829 0.2112399 0.2037305 0.2006014
 0.2029273 0.2070477 0.2088947 0.2072284 0.2022131 0.1941297 0.1857307 0.1830733 0.1904116 0.2049972
 0.2192339 0.2269323 0.2255704 0.2149327 0.1979968 0.1827654 0.1783739 0.1869008 0.2008393 0.2100024
 0.2096008 0.2010879 0.1878197 0.1727748 0.159949 0.154767 0.1608383 0.1763086 0.1938686 0.2043596
 0.2018319 0.1882071 0.1737491 0.1696768 0.1779123 0.1897207 0.1954855 0.1934378 0.1882831 0.1851638
 0.1867061 0.1925388 0.1996792 0.2053386 0.2091471 0.2099899 0.2030092 0.1854368 0.1643143 0.1518576
 0.1527761 0.1618565 0.1737257 0.1876768 0.201319 0.2072676 0.2014688 0.1908852 0.1875727 0.1958819
 0.2087338 0.2162817 0.2156586 0.2115031 0.2087997 0.2075765 0.2053811 0.2030122 0.2047228 0.2123515
 0.2221093 0.2288062 0.2312442 0.2317541 0.2322371 0.2327189 0.2326839 0.2319466 0.2305768 0.2290271
 0.2279958 0.2276432 0.2274391 0.2269592 0.2258703 0.2227261 0.2152766 0.2036354 0.1922962 0.1865753
 0.1869727 0.1895438 0.1917605 0.19398 0.1939654 0.1853536 0.1660601 0.1451712 0.1363341 0.1445691
 0.1625304 0.1788787 0.1869684 0.1854136 0.1746946 0.1573638 0.1407568 0.1346952 0.1434798 0.1617698
 0.1802976 0.1938535 0.2018749 0.2040213 0.1992002 0.1887263 0.1775856 0.1715794 0.1737858 0.1832093
 0.1951252 0.2023034 0.1985417 0.1848311 0.1720783 0.1730655 0.1890389 0.2076232 0.2167268 0.2167878
 0.2158746 0.2171577 0.2173323 0.2153987 0.2161942 0.2237417 0.2353244 0.2441677 0.2453886 0.2379149
 0.2238623 0.209039 0.2014332 0.204766 0.2141931 0.2215193 0.2231002 0.2193546 0.2099361 0.1957719
 0.1841872 0.184498 0.1972264 0.212885 0.2227589 0.2268391 0.2298689 0.2331712 0.2330469 0.2263876
 0.2158773 0.2083429 0.208006 0.2127896 0.2178362 0.2206352 0.221045 0.2183764 0.211823 0.2037819
 0.1998928 0.2041308 0.2146616 0.2255253 0.2319472 0.2333199 0.2318077 0.2295349 0.2271633 0.224066
 0.219733 0.2155993 0.2147743 0.2187257 0.2249453 0.229526 0.2316338 0.2337869 0.2378889 0.2426063
 0.2449986 0.2437336 0.2403535 0.2379239 0.2385728 0.2418075 0.2448866 0.2451531 0.2425546 0.2399311
 0.2404075 0.2444166 0.2496266 0.2535954 0.255765 0.2569686 0.2579999 0.2589164 0.2589921 0.2572619
 0.2538735 0.2508885 0.2508252 0.2541662 0.2589044 0.2626248 0.2644615 0.2649791 0.2648574 0.2641792
 0.2628057 0.2610072 0.2594897 0.2588407 0.2591056 0.2599209 0.2608909 0.2617643 0.2624227 0.262861
 0.2631475 0.2633377 0.2634532 0.2635365 0.2636301 0.2636922 0.2636375 0.2635015 0.263466 0.263658
 0.2639872 0.2642434 0.2642867 0.2640619 0.2634992 0.2625362 0.2612389 0.2597786 0.2582459 0.2565908
 0.2548598 0.2534552 0.2530149 0.2539262 0.2559589 0.2584103 0.2605926 0.262174 0.263155 0.2636774
 0.2639011 0.2639668 0.2639666 0.2639207 0.263799 0.2635751 0.2632611 0.2628952 0.2625086 0.2621188
 0.2617494 0.261431 0.261167 0.2609124 0.2606028 0.2602017 0.2597192 0.2591941 0.2586587 0.2581041
 0.2574772 0.2567199 0.2558215 0.2548372 0.2538624 0.252978 0.2521972 0.2514634 0.250706 0.2498906
 0.2489987 0.247989 0.2468382 0.2456239 0.2445139 0.2436342 0.2429651 0.2423784 0.241748 0.2410077
 0.2401446 0.2391841 0.2381707 0.2371324 0.2360609 0.2349352 0.2337478 0.2324942 0.2311575 0.2297217
 0.2281886 0.2265807 0.224936 0.2232905 0.2216354 0.2198877 0.2179157 0.2155876 0.212792 0.2094424
 0.2055063 0.2010464 0.196225 0.1912605 0.1863676 0.1817155 0.1774215 0.1735695 0.1702342 0.1674881
 0.1653914 0.163977 0.163254 0.1632258 0.1638953 0.1652407 0.1671933 0.1696397 0.1724385 0.17543
 0.178442 0.1813104 0.1839253 0.1862791 0.1884538 0.190529 0.1925014 0.1943093 0.1959169 0.1973366
 0.1985811 0.1996347 0.2004861 0.2011647 0.2017281 0.2022237 0.2026673 0.2030554 0.2033849 0.2036571
 0.2038759 0.2040548 0.2042203 0.2043987 0.2046055 0.204847 0.2051235 0.2054319 0.205778 0.2061816
 0.206655 0.2071845 0.2077463 0.2083344 0.2089598 0.2096328 0.2103629 0.211175 0.2121117 0.2132069
 0.2144567 0.2158157 0.2172143 0.2185709 0.2197959 0.2208092 0.2215656 0.2220612 0.222322 0.2223937
 0.2223274 0.2221575 0.2218938 0.2215381 0.2210974 0.2205802 0.2199957 0.2193623 0.2187032 0.2180273
 0.2173287 0.2166121 0.215904 0.2152286 0.2145808 0.2139399 0.2133021 0.2126812 0.2120788 0.2114773
 0.2108674 0.210265 0.2096887 0.2091348 0.2085814 0.2080036 0.2073718 0.2066493 0.2058111 0.2048638
 0.2038341 0.2027326 0.2015429 0.2002506 0.1988671 0.197416 0.1959098 0.1943475 0.1927249 0.19103
 0.1892341 0.1873104 0.1852772 0.1832141 0.1812216 0.1793644 0.1776541 0.176071 0.1745877 0.1731828
 0.1718475 0.1705802 0.1693751 0.1682233 0.1671235 0.1660798 0.1650891 0.1641437 0.1632463 0.1624159
 0.1616772 0.1610387 0.1604849 0.1599965 0.1595759 0.1592391 0.1589936 0.1588409 0.1587816 0.1587981
 0.1588435 0.1588663 0.15884 0.1587664 0.1586643 0.158554 0.1584461 0.1583474 0.1582682 0.1581975
 0.1580697 0.1577782 0.1572231 0.1563418 0.1551198 0.1535927 0.1518375 0.1499671 0.148127 0.146458
 0.1450413 0.1438981 0.1430259 0.1423943 0.141924 0.1415283 0.1411827 0.1409365 0.1408637 0.1409886
 0.1412258 0.1414206 0.1414962 0.1415409 0.1417233 0.1421503 0.142808 0.143586 0.1443447 0.1449929
 0.1455052 0.1458772 0.1461126 0.1462422 0.146295 0.1462608 0.1461303 0.1459344 0.1457054 0.1454379
 0.1451065 0.1446853 0.1441608 0.1435568 0.1429089 0.1422059 0.1414083 0.1405063 0.1394936 0.1383429
 0.1371068 0.1359974 0.135286 0.1351422 0.1355598 0.1363693 0.1373487 0.1383752 0.139395 0.1402335
 0.1406406 0.1406721 0.1408797 0.1419131 0.1439074 0.1463362 0.1484708 0.1499071 0.1506282 0.1507318
 0.150285 0.1493555 0.1479684 0.1460663 0.1436446 0.14084 0.137816 0.1347122 0.1317264 0.1290599
 0.1267959 0.1249416 0.1235016 0.1225267 0.1221498 0.121989 0.1201286 0.1141206 0.1047539 0.09772995
 0.09886251 0.107551 0.117211 0.1222289 0.1224196 0.1207425 0.1192594 0.118299 0.1177694 0.1178144
 0.1185469 0.1198013 0.1211804 0.1222913 0.1229806 0.1232961 0.123204 0.1223437 0.1199658 0.1152071
 0.1077953 0.0986323 0.08947016 0.08188705 0.07658194 0.07341665 0.0717836 0.07095561 0.07042655 0.07014148
 0.07039571 0.07147559 0.07341112 0.07604635 0.07920328 0.08264597 0.08597632 0.0887901 0.09097572 0.09271089
 0.09414196 0.09519954 0.09574485 0.09576538 0.09538275 0.09475496 0.09401526 0.09323843 0.09239438 0.09137024
 0.09014018 0.0889167 0.08802277 0.08758708 0.0874621 0.08744249 0.08744071 0.08744577 0.08744153 0.08740328
 0.08732326 0.08725151 0.08731864 0.08763829 0.08815894 0.08867855 0.08902257 0.08917181 0.08922262 0.08922185
 0.08903661 0.08848437 0.0876532 0.08691055 0.08642542 0.08587029 0.08485424 0.08352964 0.08249778 0.08215631
 0.08235644 0.08267301 0.08280034 0.08267161 0.08241677 0.0823174 0.08262883 0.08326806 0.08377741 0.08376456
</values></Ydata></ScRf><Data_Parameters_AB><parameter name="DPF">1</parameter><parameter name="NPT">3497</parameter><parameter name="FXV">3996</parameter><parameter name="LXV">500</parameter><parameter name="CSF">1</parameter><parameter name="MXY">0.103076450526714</parameter><parameter name="MNY">-0.10317138582468</parameter><parameter name="DAT">31/05/2022</parameter><parameter name="TIM">11:21:04.119 (GMT+2)</parameter><parameter name="DXU">WN</parameter></Data_Parameters_AB><AB__Qtest><MainReport name="Quality Test Report"><Header><Line><Legend>Test result ok/not ok [1/0]: </Legend><Value>0</Value></Line><Line><Legend>Method file: </Legend><Value>C:\Users\Public\Documents\Bruker\OPUS_8.2.28\QT\IRBT_v3_default.QT</Value></Line></Header><Matrix><Line><Legend></Legend><Legend>min</Legend><Legend>max</Legend><Legend>measured</Legend></Line><Line><Value>Absorption (X-Range 1):</Value><Value>0.400000</Value><Value>2.000000</Value><Value>0.139000</Value></Line><Line><Value>Noise (X-Range 4):</Value><Value></Value><Value>0.000300</Value><Value>0.000057</Value></Line><Line><Value>Signal/Noise (X-Range 2):</Value><Value>200.000000</Value><Value></Value><Value>30.183121</Value></Line><Line><Value>Signal/Noise (X-Range 3):</Value><Value>40.000000</Value><Value></Value><Value>48.343788</Value></Line><Line><Value>Water vapour (X-Range 5):</Value><Value></Value><Value>0.000300</Value><Value>0.000078</Value></Line><Line><Value>Signal/Water (X-Range 2):</Value><Value>100.000000</Value><Value></Value><Value>22.112272</Value></Line><Line><Value>Signal/Water (X-Range 3):</Value><Value>20.000000</Value><Value></Value><Value>35.416847</Value></Line><Line><Value>Fringes (X-Range 6):</Value><Value></Value><Value>0.000100</Value><Value>0.000069</Value></Line></Matrix></MainReport></AB__Qtest><Data_Parameters_ScSm><parameter name="DPF">1</parameter><parameter name="NPT">1814</parameter><parameter name="FXV">3996.33169228125</parameter><parameter name="LXV">499.541461535156</parameter><parameter name="CSF">1</parameter><parameter name="MXY">0.294211387634277</parameter><parameter name="MNY">0.0382388010621071</parameter><parameter name="DAT">31/05/2022</parameter><parameter name="TIM">11:21:04.119 (GMT+2)</parameter><parameter name="DXU">WN</parameter></Data_Parameters_ScSm><Data_Parameters_ScRf><parameter name="DPF">1</parameter><parameter name="NPT">1820</parameter><parameter name="FXV">4004.04661832813</parameter><parameter name="LXV">495.683998511719</parameter><parameter name="CSF">1</parameter><parameter name="MXY">0.264979094266891</parameter><parameter name="MNY">0.0301619302481413</parameter><parameter name="DAT">31/05/2022</parameter><parameter name="TIM">11:20:38.267 (GMT+2)</parameter><parameter name="DXU">WN</parameter></Data_Parameters_ScRf><Optic_Parameters_Rf><parameter name="APR">0</parameter><parameter name="APT">Open</parameter><parameter name="BMS">KBr</parameter><parameter name="DTC">RT-DLaTGS_IR-Biotyper [Microplate reader]</parameter><parameter name="HPF">0</parameter><parameter name="LPF">10.0</parameter><parameter name="LPV">4000</parameter><parameter name="PGR">0</parameter><parameter name="RCH">Module port</parameter><parameter name="RDX">0</parameter><parameter name="SRC">MIR</parameter><parameter name="VEL">10.0</parameter><parameter name="SON">Off</parameter></Optic_Parameters_Rf><Acquisition_Parameters_Rf><parameter name="ADT">1</parameter><parameter name="AQM">DD</parameter><parameter name="CFE">0</parameter><parameter name="COR">0</parameter><parameter name="DEL">0</parameter><parameter name="DLY">0</parameter><parameter name="HFW">8000</parameter><parameter name="LFW">0</parameter><parameter name="NSR">32</parameter><parameter name="PLF">AB</parameter><parameter name="RES">6</parameter><parameter name="RGN">-1</parameter><parameter name="STR">0</parameter><parameter name="TCL">MakeCompatibleScalar (0, {WSV=1.000000, ARV=0});</parameter><parameter name="TDL">37</parameter><parameter name="RPO">0</parameter></Acquisition_Parameters_Rf><FT_-_Parameters_Rf><parameter name="APF">B3</parameter><parameter name="HFQ">500</parameter><parameter name="LFQ">4000</parameter><parameter name="NLI">0</parameter><parameter name="PHR">24</parameter><parameter name="PHZ">ML</parameter><parameter name="SPZ">NO</parameter><parameter name="ZFF">1</parameter></FT_-_Parameters_Rf><Optic_Parameters_><parameter name="APR">0</parameter><parameter name="APT">Open</parameter><parameter name="BMS">KBr</parameter><parameter name="CHN">Module port</parameter><parameter name="DTC">RT-DLaTGS_IR-Biotyper [Microplate reader]</parameter><parameter name="HPF">0</parameter><parameter name="LPF">10.0</parameter><parameter name="LPV">4000</parameter><parameter name="PGN">0</parameter><parameter name="RDX">0</parameter><parameter name="SRC">MIR</parameter><parameter name="VEL">10.0</parameter><parameter name="SON">Off</parameter></Optic_Parameters_><FT_-_Parameters_><parameter name="APF">B3</parameter><parameter name="HFQ">500</parameter><parameter name="LFQ">4000</parameter><parameter name="NLI">0</parameter><parameter name="PHR">24</parameter><parameter name="PHZ">ML</parameter><parameter name="SPZ">NO</parameter><parameter name="ZFF">1</parameter></FT_-_Parameters_><Acquisition_Parameters_><parameter name="ADT">1</parameter><parameter name="AQM">DD</parameter><parameter name="CFE">0</parameter><parameter name="COR">0</parameter><parameter name="DEL">0</parameter><parameter name="DLY">0</parameter><parameter name="HFW">8000</parameter><parameter name="LFW">0</parameter><parameter name="NSS">32</parameter><parameter name="PLF">AB</parameter><parameter name="RES">6</parameter><parameter name="SOT">0</parameter><parameter name="TCL">MakeCompatibleScalar (0, {WSV=1.000000, ARV=0});</parameter><parameter name="TDL">37</parameter><parameter name="SPO">0</parameter><parameter name="SGN">-1</parameter></Acquisition_Parameters_><Instrument_Parameters_Rf><parameter name="HFL">15800.168544</parameter><parameter name="LFL">0</parameter><parameter name="LWN">15800.168544</parameter><parameter name="ABP">32197</parameter><parameter name="SSP">1</parameter><parameter name="ARG">2</parameter><parameter name="ASG">2</parameter><parameter name="ASS">32</parameter><parameter name="GFW">16</parameter><parameter name="GBW">16</parameter><parameter name="BFW">0</parameter><parameter name="BBW">0</parameter><parameter name="PKA">7269</parameter><parameter name="PKL">4996</parameter><parameter name="PRA">7449</parameter><parameter name="PRL">5001</parameter><parameter name="P2A">1</parameter><parameter name="P2L">1</parameter><parameter name="P2R">1</parameter><parameter name="P2K">1</parameter><parameter name="DAQ">0</parameter><parameter name="AG2">1</parameter><parameter name="SSM">1</parameter><parameter name="RSN">25441</parameter><parameter name="CRR">0</parameter><parameter name="SRT">1653996038.268</parameter><parameter name="DUR">19.6369934082031</parameter><parameter name="TSC">28.9</parameter><parameter name="MVD">0.435296833515167</parameter><parameter name="AN1">0.225780116686288</parameter><parameter name="AN2">0</parameter><parameter name="VSN">2.485 Apr  4 2017</parameter><parameter name="SRN">0085</parameter><parameter name="CAM">0</parameter><parameter name="INS">IR-Biotyper</parameter><parameter name="FOC">69</parameter><parameter name="RDY">1</parameter><parameter name="ARS">32</parameter></Instrument_Parameters_Rf><Sample_Parameters_><parameter name="BLD"></parameter><parameter name="CNM">Admin</parameter><parameter name="CPY"></parameter><parameter name="DPM"></parameter><parameter name="EXP">IRBT_v3_32Scans.XPM</parameter><parameter name="LCT"></parameter><parameter name="SFM">Microplate, HTS-XT</parameter><parameter name="SNM">220531-1021(v.3)_CLA33F (D_17)_F6_503518b8-a22e-4ad8-8c86-10c98d798840.0</parameter><parameter name="XPP">C:\Users\Public\Documents\Bruker\OPUS_8.2.28\XPM</parameter><parameter name="IST">OK</parameter><parameter name="CPG">1252</parameter><parameter name="UID">6bbb8da3-90a7-49be-9a21-196c4b8378f9</parameter></Sample_Parameters_><Instrument_Parameters_><parameter name="HFL">15800.168544</parameter><parameter name="LFL">0</parameter><parameter name="LWN">15800.168544</parameter><parameter name="ABP">32197</parameter><parameter name="SSP">1</parameter><parameter name="ASG">2</parameter><parameter name="ARG">2</parameter><parameter name="ASS">32</parameter><parameter name="GFW">16</parameter><parameter name="GBW">16</parameter><parameter name="BFW">0</parameter><parameter name="BBW">0</parameter><parameter name="PKA">8135</parameter><parameter name="PKL">4988</parameter><parameter name="PRA">8412</parameter><parameter name="PRL">4993</parameter><parameter name="P2A">1</parameter><parameter name="P2L">1</parameter><parameter name="P2R">1</parameter><parameter name="P2K">1</parameter><parameter name="DAQ">0</parameter><parameter name="AG2">1</parameter><parameter name="SSM">1</parameter><parameter name="RSN">13346</parameter><parameter name="CRR">0</parameter><parameter name="SRT">1653996064.12</parameter><parameter name="DUR">19.6379852294922</parameter><parameter name="TSC">28.9</parameter><parameter name="MVD">0.293022513389587</parameter><parameter name="AN1">0.225791494289416</parameter><parameter name="AN2">0</parameter><parameter name="VSN">2.485 Apr  4 2017</parameter><parameter name="SRN">0085</parameter><parameter name="CAM">0</parameter><parameter name="INS">IR-Biotyper</parameter><parameter name="FOC">69</parameter><parameter name="RDY">1</parameter></Instrument_Parameters_><History/></OPUSDataFile>
