<?xml version="1.0" encoding="UTF-8" ?>
<OPUSDataFile><AB><Ydata ylabel="Absorbance Units"><values byteorder="INTEL" format="FLOAT32" numvalues="3497"> -0.01994839 -0.01994731 -0.0199563 -0.0199765 -0.01999138 -0.02000009 -0.01998427 -0.01994465 -0.01988425 -0.01980715
 -0.01973868 -0.01968122 -0.01965844 -0.01966564 -0.01970534 -0.01976801 -0.01984023 -0.01991329 -0.01997223 -0.02001293
 -0.02002584 -0.02001558 -0.01997898 -0.01993283 -0.01988047 -0.019843 -0.01982706 -0.01984048 -0.01988743 -0.01995482
 -0.02004265 -0.02012765 -0.02020855 -0.0202693 -0.02031025 -0.02033158 -0.02033535 -0.02033367 -0.02032792 -0.02032997
 -0.02033847 -0.02035668 -0.02038153 -0.02040935 -0.02043815 -0.02046389 -0.02048683 -0.02050604 -0.02052168 -0.02053484
 -0.02054092 -0.02053949 -0.02052241 -0.02048652 -0.0204325 -0.02035787 -0.02028145 -0.02020414 -0.02015003 -0.02012052
 -0.02012338 -0.02015767 -0.02021237 -0.02028611 -0.02036514 -0.02044918 -0.02053136 -0.02060916 -0.02067384 -0.02072178
 -0.02074081 -0.02073563 -0.02070353 -0.02065985 -0.02061578 -0.02058202 -0.02057081 -0.02057363 -0.02059195 -0.02060857
 -0.02061766 -0.02061771 -0.02060539 -0.02059971 -0.02060178 -0.02063276 -0.02069397 -0.02078986 -0.02091899 -0.02106342
 -0.02121883 -0.02135002 -0.02145396 -0.02149722 -0.02148781 -0.02142412 -0.02132486 -0.02122075 -0.02112372 -0.02106334
 -0.02103237 -0.0210393 -0.02105961 -0.02108305 -0.02108863 -0.02106109 -0.02101209 -0.02093741 -0.02087397 -0.0208279
 -0.0208199 -0.02085485 -0.02091374 -0.02099584 -0.02106546 -0.02112231 -0.02115472 -0.02116666 -0.0211773 -0.0211896
 -0.02122653 -0.02128402 -0.02136607 -0.02146189 -0.02155502 -0.02163797 -0.02169358 -0.0217247 -0.02172748 -0.02170781
 -0.02166667 -0.02161317 -0.02154649 -0.02149265 -0.02145555 -0.02146781 -0.02153765 -0.02167043 -0.02187207 -0.02208396
 -0.02230362 -0.02240125 -0.02237611 -0.02218589 -0.0218547 -0.02152333 -0.02119993 -0.02099441 -0.02088732 -0.02088678
 -0.02096968 -0.02110406 -0.02126501 -0.02141158 -0.02152677 -0.02157733 -0.0215771 -0.02151775 -0.02144106 -0.02136237
 -0.02130529 -0.02128343 -0.02128169 -0.02130023 -0.02131918 -0.02133537 -0.02135105 -0.0213661 -0.02139186 -0.02142802
 -0.02147178 -0.02152129 -0.02156235 -0.02159504 -0.02161214 -0.02161472 -0.02160301 -0.02157507 -0.0215253 -0.02145869
 -0.02137392 -0.021291 -0.02122502 -0.0211932 -0.02121346 -0.02127915 -0.02139726 -0.02153516 -0.02168847 -0.02181801
 -0.02191549 -0.02196329 -0.02195718 -0.02190746 -0.02181434 -0.0217005 -0.02156704 -0.02143409 -0.02130146 -0.02117792
 -0.0210625 -0.02095516 -0.02085732 -0.02077159 -0.02070202 -0.0206578 -0.02063891 -0.02065233 -0.02068639 -0.02073671
 -0.02078425 -0.02081619 -0.02082333 -0.02079523 -0.02074572 -0.02067327 -0.02060746 -0.02055304 -0.02053151 -0.02054703
 -0.02059543 -0.020677 -0.02076687 -0.0208635 -0.02093774 -0.02099018 -0.0210082 -0.020998 -0.02097628 -0.02094989
 -0.02094729 -0.02096548 -0.02101517 -0.02108303 -0.02115665 -0.02122678 -0.0212761 -0.02131814 -0.02135168 -0.02140487
 -0.02149181 -0.02161743 -0.02179299 -0.02197842 -0.02217141 -0.02231883 -0.0224132 -0.02243883 -0.02239406 -0.02228472
 -0.02211173 -0.02188769 -0.02161871 -0.02135213 -0.02109536 -0.02090571 -0.02078015 -0.02074416 -0.02078118 -0.02087907
 -0.02100885 -0.02112782 -0.0212233 -0.02126209 -0.02126804 -0.02124529 -0.02121716 -0.02119859 -0.02118365 -0.0211769
 -0.0211523 -0.02110497 -0.02102235 -0.02089989 -0.02076289 -0.02061226 -0.02049058 -0.02039923 -0.02036405 -0.02038208
 -0.02044864 -0.02055392 -0.02065793 -0.02074942 -0.0207715 -0.02073655 -0.020634 -0.0204965 -0.02036657 -0.02024966
 -0.02017241 -0.02010753 -0.02004673 -0.01996612 -0.01984802 -0.01970507 -0.01953311 -0.01936822 -0.0192178 -0.01909639
 -0.01900909 -0.01893164 -0.01886324 -0.01876082 -0.01862381 -0.01843972 -0.01821606 -0.01800281 -0.01780441 -0.01766995
 -0.01758875 -0.017557 -0.0175645 -0.0175903 -0.0176305 -0.01767427 -0.01771325 -0.01773946 -0.01773822 -0.01769756
 -0.01761237 -0.01747622 -0.01729482 -0.01706909 -0.01680073 -0.01648869 -0.01614405 -0.01576652 -0.01538132 -0.01499013
 -0.01460904 -0.0142386 -0.01388627 -0.0135538 -0.01325824 -0.01300086 -0.01279928 -0.01264676 -0.01253621 -0.0124563
 -0.01238253 -0.01230884 -0.01222052 -0.01210667 -0.01195709 -0.01175083 -0.01146573 -0.01111394 -0.01068631 -0.01023505
 -0.009775487 -0.009330995 -0.008910873 -0.008506992 -0.008118946 -0.007744358 -0.00738278 -0.007043332 -0.006726483 -0.006441728
 -0.006188233 -0.005967509 -0.005772558 -0.005580294 -0.005373076 -0.005087355 -0.004720414 -0.004222231 -0.003639306 -0.003009564
 -0.002376957 -0.001802362 -0.001282477 -0.0008360006 -0.0004388054 -8.575333E-05 0.000244922 0.000560581 0.0008733628 0.001186718
 0.00150603 0.001831526 0.002174414 0.002535185 0.002933856 0.0033706 0.003847189 0.004358999 0.004870894 0.00537881
 0.005844137 0.006271924 0.006655205 0.00700295 0.007328375 0.007638798 0.007948405 0.008263296 0.008595387 0.008942315
 0.009308985 0.009680843 0.01005008 0.01041772 0.01077594 0.01116259 0.0115836 0.01206884 0.01262834 0.0132164
 0.01383184 0.01439177 0.01489411 0.01531204 0.01565149 0.01594624 0.01620306 0.01646978 0.01674668 0.01706201
 0.01740569 0.01777397 0.0181517 0.01851526 0.0188607 0.0191697 0.01946381 0.01974682 0.02005257 0.02040103
 0.02079473 0.02124481 0.02171426 0.02219841 0.02266475 0.02310707 0.02352397 0.02391436 0.02429751 0.02467429
 0.02506078 0.02545633 0.02586215 0.02627771 0.02670116 0.02713296 0.02757591 0.02802465 0.02847327 0.02890891
 0.02931007 0.02967362 0.02998326 0.03025896 0.03050594 0.03075002 0.03100628 0.03127983 0.03157861 0.03188457
 0.03219588 0.03249506 0.03277823 0.03305001 0.03330989 0.03357971 0.03386031 0.03416589 0.0344944 0.03483551
 0.03518582 0.03552309 0.03584927 0.03615649 0.03645298 0.03675177 0.03705728 0.03738471 0.03772402 0.03807452
 0.03841629 0.03873462 0.03902245 0.03926696 0.0394921 0.03969815 0.03992637 0.04018608 0.04049778 0.04086808
 0.0412774 0.04172571 0.04217073 0.0426106 0.04301403 0.04338209 0.04370977 0.04400026 0.04426505 0.04450661
 0.04473723 0.04495946 0.04518389 0.04541213 0.04565215 0.04590014 0.04615553 0.04641392 0.04666841 0.04693022
 0.04719999 0.04749836 0.04783664 0.04820368 0.04860516 0.04898864 0.04934737 0.0496501 0.04989164 0.05011557
 0.05032496 0.05059504 0.05092359 0.05132801 0.05179292 0.05225656 0.05270665 0.05306916 0.05335536 0.05354593
 0.05367313 0.05377329 0.05387133 0.05401016 0.05418263 0.05440146 0.05463826 0.05488266 0.05511641 0.05532984
 0.05552341 0.05569511 0.05585073 0.05599026 0.05612261 0.05624799 0.05638418 0.05653216 0.05671065 0.05691983
 0.05716901 0.05745788 0.05779107 0.0581663 0.05858312 0.05903047 0.05948972 0.05994216 0.0603528 0.06071284
 0.06099607 0.06121712 0.06137399 0.06149441 0.06159034 0.06168107 0.06177612 0.06187972 0.06199456 0.06211938
 0.0622542 0.06239887 0.06255331 0.06271856 0.06289469 0.06308424 0.0632873 0.06350657 0.06374045 0.06398413
 0.06423312 0.06447126 0.0646957 0.06489021 0.06506118 0.06520726 0.06534511 0.06548982 0.06565567 0.06586159
 0.06609773 0.06637162 0.06664248 0.06690101 0.06710788 0.06724811 0.06733104 0.06735158 0.0673651 0.06737577
 0.06742083 0.06750092 0.06759334 0.06769479 0.06776231 0.06779985 0.06780215 0.06777979 0.06776329 0.0677579
 0.06779093 0.06785803 0.06796604 0.06810492 0.06826852 0.06844482 0.06862299 0.06879843 0.06896263 0.06912969
 0.06930066 0.06949581 0.06972326 0.06997363 0.0702509 0.07050548 0.0707342 0.07088828 0.07096613 0.07096855
 0.07090022 0.0708074 0.07069311 0.07059786 0.07051753 0.07045861 0.07042032 0.07040088 0.07040962 0.07046171
 0.07055724 0.07071006 0.07089149 0.07108984 0.07126958 0.07140541 0.07149868 0.07153762 0.07156336 0.07158186
 0.07162984 0.07171623 0.07183488 0.07198772 0.07213146 0.07226387 0.07234028 0.07236165 0.07231721 0.0722151
 0.0720879 0.07194676 0.07184519 0.07178507 0.07180175 0.07187766 0.07200766 0.07215986 0.07229993 0.07240617
 0.07244654 0.07243402 0.07236025 0.07226614 0.07216229 0.07208218 0.07203657 0.07203388 0.07207679 0.07216629
 0.07230232 0.07249372 0.07274076 0.07304306 0.07339705 0.07376889 0.07414992 0.07447799 0.07474793 0.07490581
 0.07496336 0.07491184 0.07478373 0.07461984 0.07445443 0.07434264 0.07428816 0.07432026 0.07439929 0.07451975
 0.07462463 0.07469343 0.07469187 0.07460402 0.07444227 0.07420226 0.07393365 0.07363967 0.07336811 0.07312107
 0.07290854 0.07272858 0.0725628 0.07241211 0.07226991 0.07214317 0.0720524 0.07199989 0.07200633 0.07205555
 0.07213902 0.07222285 0.07227111 0.07225291 0.0721304 0.07190415 0.07155592 0.07112841 0.07062592 0.07011007
 0.06959435 0.06912454 0.06871017 0.0683675 0.06809992 0.0678955 0.06775333 0.06763331 0.06753228 0.06739979
 0.06723843 0.06703164 0.06679214 0.06655382 0.06632365 0.06614034 0.06598668 0.06585763 0.06572448 0.06555034
 0.06533131 0.06504322 0.06472354 0.06437846 0.06406222 0.06379682 0.06360638 0.06350797 0.06346517 0.06348062
 0.06347448 0.06344012 0.06331763 0.06310434 0.06281391 0.06245221 0.06209009 0.06173114 0.06143458 0.06119203
 0.06100884 0.06087134 0.06075084 0.06064132 0.06051993 0.06038885 0.06024252 0.06008261 0.05990919 0.05972202
 0.05951931 0.05930755 0.05908611 0.05887156 0.05866759 0.05848559 0.05832968 0.05818952 0.05806546 0.05793282
 0.05779039 0.0576243 0.05743575 0.05723395 0.05702152 0.05681824 0.05662399 0.0564498 0.05629178 0.05614694
 0.056011 0.05587583 0.0557395 0.05559712 0.05544732 0.05528821 0.05511704 0.05493165 0.05473148 0.05451467
 0.05428692 0.05404835 0.05380863 0.05356935 0.05333579 0.05310887 0.05288694 0.05266992 0.05245399 0.05223927
 0.05202617 0.05181528 0.05161076 0.0514119 0.05121931 0.05103028 0.05083857 0.05064308 0.05043783 0.05022714
 0.05001229 0.0498008 0.04959778 0.04941139 0.04924564 0.04911121 0.04901335 0.04895589 0.0489456 0.04895508
 0.04898553 0.04897834 0.04892835 0.04879063 0.04856276 0.04825598 0.04787508 0.0474805 0.04707889 0.04674054
 0.04646486 0.04629296 0.04620729 0.04619545 0.04622303 0.04622997 0.04619322 0.04605369 0.04583617 0.04552978
 0.0451972 0.04486985 0.04458455 0.04437048 0.04420163 0.04407977 0.04396297 0.04384069 0.04372034 0.04359912
 0.04352711 0.04350688 0.04356297 0.04369133 0.04384892 0.0440261 0.04414316 0.04419857 0.04413938 0.04398214
 0.04373435 0.04342331 0.04309691 0.04277109 0.042487 0.04223433 0.04202037 0.04182557 0.04163701 0.04145863
 0.04128523 0.04114044 0.0410322 0.04095962 0.04092802 0.04089772 0.04086544 0.04080071 0.04070167 0.04058724
 0.04046002 0.04036089 0.04028832 0.04025535 0.04025523 0.04027011 0.0402971 0.04031914 0.04033994 0.04035867
 0.04037726 0.04040162 0.04042019 0.04043125 0.04040759 0.04033526 0.04019237 0.03996088 0.03966079 0.0392848
 0.03890239 0.03852102 0.03821141 0.03798387 0.03784496 0.03779567 0.03776989 0.03776317 0.03769742 0.03757637
 0.03737875 0.03711992 0.03684321 0.03656095 0.03632815 0.03613858 0.03601024 0.03592305 0.03586124 0.03580847
 0.03574559 0.03566786 0.03556607 0.03544611 0.03530488 0.03516298 0.03502265 0.03491231 0.03483901 0.03480504
 0.03481424 0.03482291 0.03482882 0.03478144 0.03468157 0.0345285 0.03432942 0.03412974 0.03393124 0.03376747
 0.03362883 0.03350768 0.0333982 0.03328192 0.03317154 0.0330716 0.03300251 0.03298393 0.03302237 0.03312897
 0.03329568 0.03352073 0.03380225 0.03413733 0.03453792 0.03500626 0.03554692 0.0361631 0.03682365 0.03752724
 0.03820471 0.0388518 0.03939314 0.0398294 0.04012326 0.04028533 0.04033257 0.04027899 0.04016816 0.04000519
 0.03981957 0.0396071 0.0393727 0.03911594 0.0388345 0.03854003 0.03823629 0.0379394 0.03765647 0.03739654
 0.03716337 0.03696007 0.0367865 0.03665225 0.03655658 0.03652881 0.03657042 0.03672676 0.03699934 0.03742088
 0.03798648 0.03868493 0.03950399 0.04039234 0.04134068 0.0422977 0.04326742 0.0442309 0.04520255 0.04619144
 0.04721088 0.04827477 0.04939079 0.05056633 0.05180689 0.05311701 0.05449581 0.05594797 0.05745008 0.05900376
 0.06055536 0.06210164 0.06357699 0.06497735 0.06625409 0.06740614 0.06841156 0.06927099 0.06997641 0.07053006
 0.0709307 0.07119147 0.07133484 0.07139537 0.07143416 0.07149869 0.07166929 0.07197526 0.07247408 0.07315308
 0.07402689 0.07505448 0.07622422 0.07750214 0.07887583 0.08033367 0.08187201 0.08348612 0.08517653 0.08692453
 0.08872941 0.09054929 0.09238063 0.0941629 0.09589203 0.09751009 0.09901766 0.1003851 0.1016174 0.1027154
 0.1036747 0.1044977 0.1051522 0.1056122 0.1058158 0.1057099 0.1052314 0.1043236 0.1029753 0.1011503
 0.09893362 0.0963201 0.09348782 0.0904551 0.0874294 0.08443367 0.08161781 0.07899322 0.07660446 0.07444951
 0.07249321 0.07073022 0.06910871 0.06762635 0.06624945 0.06497281 0.06376985 0.06262834 0.06151441 0.06042105
 0.05932155 0.05822856 0.05714021 0.05608054 0.05506375 0.05410305 0.05320803 0.05237949 0.05161768 0.05093031
 0.0503162 0.0497992 0.0493805 0.04909245 0.04893708 0.04894184 0.0491063 0.04942776 0.04989702 0.05045393
 0.05108155 0.05167865 0.05223957 0.05268882 0.0530529 0.05333325 0.05358582 0.0538734 0.05425693 0.05480934
 0.05556554 0.05657454 0.05781712 0.05931017 0.06097361 0.06279939 0.06467504 0.06658481 0.06841915 0.07016894
 0.07171448 0.07304953 0.07399472 0.0745379 0.07445328 0.07373891 0.07225202 0.07003674 0.06716899 0.06374478
 0.06003997 0.05615339 0.05239286 0.04879719 0.04555002 0.04261436 0.04002715 0.03771954 0.03566034 0.03380119
 0.03211385 0.03057903 0.02918812 0.02792405 0.02678506 0.02574302 0.02479528 0.02391505 0.02310032 0.02233773
 0.02162691 0.02096296 0.02034525 0.01976711 0.0192273 0.01871653 0.01823532 0.01777937 0.01735189 0.01695717
 0.01659665 0.01627662 0.01598897 0.01573221 0.01548834 0.01524661 0.0149934 0.01471699 0.01442611 0.01411713
 0.01381916 0.01353695 0.01329184 0.01308883 0.0129172 0.01277705 0.01263765 0.01249809 0.01234229 0.0121726
 0.01199948 0.0118244 0.01166091 0.01150418 0.01134863 0.01118807 0.0110061 0.01080578 0.01058149 0.01034599
 0.01010807 0.009879003 0.009669178 0.009480736 0.009317919 0.009176278 0.009056454 0.008949149 0.008854123 0.008755184
 0.00865069 0.008526151 0.008380137 0.008215631 0.008033557 0.007854487 0.007679528 0.007527393 0.007396255 0.007288862
 0.007201796 0.007127169 0.007062815 0.007000931 0.006941111 0.006879376 0.006817015 0.00675297 0.006691379 0.006633937
 0.006585627 0.006549771 0.006525923 0.00651666 0.006510237 0.006506422 0.006485423 0.006444687 0.006372362 0.006266921
 0.00613982 0.005992362 0.005853118 0.005722811 0.00562141 0.005545517 0.005491727 0.005455449 0.005421156 0.005389172
 0.00535152 0.005313695 0.005279844 0.005253924 0.005243092 0.005242426 0.005253452 0.005262397 0.005264462 0.005247179
 0.005204881 0.005136204 0.005038703 0.004921937 0.004786314 0.004643834 0.004495337 0.004349713 0.004207346 0.004074323
 0.003950646 0.003839277 0.003739811 0.003652291 0.003575947 0.003508746 0.003449978 0.003397623 0.003350586 0.003307025
 0.003264993 0.003222435 0.003176962 0.003126226 0.003069829 0.003006145 0.002939138 0.002868917 0.002802279 0.002740533
 0.002688354 0.002646726 0.002615656 0.002595329 0.00258194 0.002575212 0.002569332 0.002564055 0.002554519 0.002541228
 0.002523738 0.002502834 0.002481118 0.002457548 0.002431931 0.002401552 0.002362198 0.002313446 0.002252238 0.002182727
 0.002106023 0.002027751 0.001951121 0.001877595 0.001809195 0.001741269 0.00167378 0.001599208 0.001516371 0.001422483
 0.00131692 0.001207844 0.001095905 0.0009960519 0.0009083675 0.0008410265 0.000791651 0.0007546024 0.0007262679 0.0006931869
 0.000653846 0.0005979513 0.0005282828 0.0004432004 0.0003490543 0.0002509329 0.0001543466 6.493798E-05 -1.659467E-05 -8.790565E-05
 -0.0001524629 -0.0002109452 -0.0002655979 -0.0003172237 -0.00036536 -0.0004099766 -0.0004510465 -0.000488428 -0.0005259677 -0.0005638892
 -0.0006070265 -0.000655103 -0.0007082419 -0.0007652165 -0.0008201119 -0.0008727857 -0.0009186202 -0.0009608341 -0.001003199 -0.001049527
 -0.001108057 -0.001176741 -0.001258275 -0.001344586 -0.001431141 -0.001512371 -0.001583497 -0.001646744 -0.001701453 -0.001752116
 -0.001799921 -0.001845281 -0.001888402 -0.001928808 -0.001966281 -0.002005575 -0.002047012 -0.002098152 -0.002158807 -0.002231206
 -0.00231362 -0.002399663 -0.002486996 -0.002565157 -0.002633624 -0.00268551 -0.002723669 -0.002748145 -0.002764679 -0.002778516
 -0.00279457 -0.002818457 -0.002849713 -0.002890347 -0.002935449 -0.002983824 -0.003032183 -0.003078995 -0.003126861 -0.003175793
 -0.003229654 -0.003288939 -0.003351496 -0.003417076 -0.00347822 -0.003534774 -0.003581753 -0.003620357 -0.003653504 -0.0036826
 -0.003713856 -0.003746683 -0.003783283 -0.003821491 -0.003858811 -0.003894703 -0.003927229 -0.003958048 -0.00398804 -0.00401734
 -0.004046717 -0.004073968 -0.004097943 -0.004120063 -0.004139603 -0.004163407 -0.004192447 -0.004230238 -0.004277486 -0.004327663
 -0.004380386 -0.004426492 -0.004466385 -0.004499739 -0.004528096 -0.004559299 -0.004593101 -0.00463389 -0.004678158 -0.004721097
 -0.004759129 -0.004784042 -0.004797135 -0.004795244 -0.004785044 -0.004769259 -0.004755833 -0.004749611 -0.004753354 -0.004770238
 -0.004794528 -0.004826429 -0.004855466 -0.004879988 -0.004895393 -0.004900792 -0.004902616 -0.004901224 -0.004905269 -0.004914418
 -0.004928927 -0.004947872 -0.004966232 -0.00498487 -0.005003494 -0.005024096 -0.005051352 -0.005084768 -0.005126086 -0.005173025
 -0.005223525 -0.005277185 -0.005332862 -0.005391509 -0.00545401 -0.005518254 -0.005584502 -0.00564742 -0.005706014 -0.005755995
 -0.005796338 -0.005827364 -0.00584877 -0.005866162 -0.005879906 -0.005899168 -0.005924225 -0.005961954 -0.006011165 -0.006070523
 -0.006136904 -0.006199981 -0.006257519 -0.006298673 -0.006325969 -0.006336809 -0.00633888 -0.006338618 -0.006342814 -0.006359478
 -0.006387393 -0.006429375 -0.006477461 -0.00652975 -0.006579927 -0.006625651 -0.006667456 -0.006704789 -0.006741882 -0.006779111
 -0.00681815 -0.006859 -0.00689815 -0.00693535 -0.006966388 -0.006991909 -0.007012715 -0.007030117 -0.007049104 -0.007069452
 -0.007093825 -0.007119624 -0.007144047 -0.007165368 -0.007179981 -0.007189698 -0.007194172 -0.007196971 -0.007200061 -0.007204466
 -0.007211414 -0.007218732 -0.007226015 -0.007232226 -0.007236614 -0.00724371 -0.007253686 -0.007273142 -0.007302311 -0.007340866
 -0.007387981 -0.007434971 -0.0074812 -0.007518458 -0.007547717 -0.007567812 -0.00757984 -0.007585646 -0.007585729 -0.007580936
 -0.00757344 -0.007565084 -0.007559644 -0.007561076 -0.00756914 -0.007586155 -0.00760541 -0.007625458 -0.007639874 -0.007646185
 -0.007645456 -0.007636879 -0.007627737 -0.007618527 -0.007615621 -0.0076193 -0.007630652 -0.007649436 -0.007673547 -0.007702736
 -0.00773504 -0.007769684 -0.007803827 -0.007835318 -0.007857885 -0.007870684 -0.007868049 -0.007854939 -0.007832936 -0.007810993
 -0.007796726 -0.00779346 -0.007806749 -0.00782942 -0.007861064 -0.007891696 -0.007918192 -0.007939008 -0.00795266 -0.007966845
 -0.00798207 -0.008004892 -0.008035578 -0.008072304 -0.008114702 -0.00815743 -0.008201468 -0.008248641 -0.008301514 -0.008369494
 -0.008454158 -0.008563957 -0.008698126 -0.008858862 -0.009045804 -0.009258107 -0.009499482 -0.009770484 -0.01008033 -0.01043186
 -0.01083865 -0.01130526 -0.01184346 -0.01245821 -0.01314775 -0.01391527 -0.01473455 -0.01560521 -0.01648092 -0.01735895
 -0.01817882 -0.01893531 -0.01955257 -0.02002434 -0.02027539 -0.02030673 -0.02007755 -0.01960238 -0.01887853 -0.01795742
 -0.01689869 -0.01579297 -0.01476025 -0.01385545 -0.013164 -0.01267999 -0.01242539 -0.01237044 -0.01251465 -0.01281161
 -0.01326131 -0.01376943 -0.01432902 -0.01481361 -0.01520919 -0.01546655 -0.01558322 -0.01560187 -0.01552529 -0.01539719
 -0.015218 -0.01501128 -0.0147782 -0.01453559 -0.01428355 -0.01403088 -0.01377592 -0.01351997 -0.01326127 -0.01299819
 -0.01273014 -0.01245459 -0.01217691 -0.0118971 -0.01162753 -0.01137271 -0.01114014 -0.01093412 -0.01074796 -0.01058206
 -0.0104234 -0.0102708 -0.01011547 -0.00995693 -0.009793959 -0.009627103 -0.009462178 -0.009300356 -0.009151413 -0.009015517
 -0.008899385 -0.008800264 -0.008715855 -0.008642017 -0.008570333 -0.008500741 -0.008428324 -0.008359318 -0.008296674 -0.008245934
 -0.008212895 -0.008192116 -0.008184931 -0.00817703 -0.008164967 -0.008140476 -0.00810038 -0.008052388 -0.007996405 -0.007947279
 -0.007905792 -0.007879627 -0.007868403 -0.007869698 -0.007882508 -0.007900136 -0.007921748 -0.007941124 -0.007957695 -0.007966804
 -0.007969092 -0.007963029 -0.007950846 -0.007934439 -0.007915485 -0.007896371 -0.007876206 -0.00785548 -0.007831867 -0.007804296
 -0.007772733 -0.007736396 -0.007698941 -0.007660585 -0.007626019 -0.007595758 -0.007572057 -0.007555058 -0.007544864 -0.007541431
 -0.007544558 -0.00755377 -0.007566842 -0.007582122 -0.007592651 -0.007597186 -0.007588389 -0.007568484 -0.007536881 -0.007498483
 -0.007458643 -0.007420544 -0.007388822 -0.007363296 -0.007345184 -0.007333245 -0.007327334 -0.007326304 -0.007330259 -0.007336149
 -0.007343845 -0.007348517 -0.007349723 -0.00734365 -0.007330066 -0.007308231 -0.007278435 -0.007243955 -0.007205718 -0.0071708
 -0.007139998 -0.007120587 -0.007111211 -0.007113344 -0.007122772 -0.007133378 -0.007141832 -0.007140743 -0.007132464 -0.007115217
 -0.00709584 -0.007077791 -0.007064819 -0.00706001 -0.007060656 -0.007066804 -0.007074985 -0.007084374 -0.007095093 -0.007107127
 -0.007120203 -0.007134314 -0.007145832 -0.00715457 -0.007156964 -0.007153341 -0.007143699 -0.007128838 -0.007111466 -0.007092462
 -0.007075137 -0.007060246 -0.007050761 -0.007046259 -0.007048038 -0.007053515 -0.007061562 -0.007068582 -0.007072295 -0.007070622
 -0.00706173 -0.007047236 -0.007026558 -0.007004929 -0.006982869 -0.006966085 -0.006955356 -0.006952155 -0.006956625 -0.006964868
 -0.006976586 -0.00698669 -0.00699524 -0.006999984 -0.007001363 -0.006999707 -0.006995528 -0.006990135 -0.006984027 -0.006978641
 -0.006974143 -0.006971561 -0.006969994 -0.00696932 -0.006967882 -0.006964514 -0.006958987 -0.006950136 -0.006941777 -0.006934091
 -0.006933235 -0.006940501 -0.006958151 -0.006987075 -0.007020989 -0.00705961 -0.007092318 -0.007118829 -0.007132864 -0.007135255
 -0.007127843 -0.007111972 -0.007093643 -0.007073403 -0.007055726 -0.007040151 -0.007027844 -0.00701834 -0.0070114 -0.007007082
 -0.007005499 -0.007006242 -0.0070094 -0.007013585 -0.007018352 -0.007022487 -0.007025507 -0.007027257 -0.007027681 -0.007026449
 -0.007023473 -0.007019088 -0.00701329 -0.007008542 -0.007004992 -0.007005573 -0.007009904 -0.007017135 -0.00702647 -0.007034006
 -0.007040263 -0.00704407 -0.007047477 -0.007053635 -0.007063555 -0.007080784 -0.007102184 -0.007127492 -0.007150237 -0.007166424
 -0.007172926 -0.00716615 -0.007151557 -0.007128953 -0.007108259 -0.007091626 -0.007081916 -0.007080212 -0.007080008 -0.007080978
 -0.007077037 -0.007068336 -0.007056669 -0.007042678 -0.007031618 -0.007023362 -0.007020297 -0.007021687 -0.007026899 -0.007035297
 -0.007045623 -0.007057205 -0.007068987 -0.007079855 -0.007088662 -0.007094346 -0.007095858 -0.007093178 -0.007085578 -0.007075394
 -0.007062708 -0.007051436 -0.007042215 -0.007038 -0.007039301 -0.007046267 -0.00705897 -0.007075035 -0.007094264 -0.007113161
 -0.007131549 -0.007146425 -0.007157939 -0.007164902 -0.00716789 -0.007167689 -0.00716493 -0.007160844 -0.007156416 -0.007153109
 -0.007152189 -0.00715538 -0.007162783 -0.007175258 -0.007191351 -0.007210921 -0.007231816 -0.007253647 -0.007273897 -0.007292206
 -0.007305885 -0.007314431 -0.007318206 -0.007317133 -0.00731633 -0.007316035 -0.007320961 -0.007330665 -0.00734456 -0.007361775
 -0.007378559 -0.007394503 -0.007406633 -0.007415056 -0.00741826 -0.007417484 -0.007412888 -0.007407856 -0.007404973 -0.007407684
 -0.007419451 -0.00743934 -0.007468845 -0.007501936 -0.007537763 -0.00756924 -0.007594608 -0.007612089 -0.007620751 -0.007626825
 -0.007630597 -0.007640271 -0.007655834 -0.007677306 -0.007703625 -0.007727009 -0.007747364 -0.007759662 -0.007765699 -0.007767643
 -0.007766987 -0.007767554 -0.007769606 -0.007774686 -0.007783548 -0.007797495 -0.007816437 -0.00784184 -0.007869091 -0.007897555
 -0.007919936 -0.007933678 -0.007936415 -0.007926329 -0.007909926 -0.007887349 -0.007868419 -0.007853861 -0.007846562 -0.007846233
 -0.007846761 -0.007847761 -0.007843047 -0.007833843 -0.007821643 -0.007808164 -0.00779928 -0.007794455 -0.007795707 -0.007801257
 -0.007809492 -0.007819593 -0.007830534 -0.007841193 -0.007851398 -0.007857582 -0.007858 -0.007851342 -0.007835706 -0.00781713
 -0.007795833 -0.007780763 -0.007773261 -0.007775762 -0.007788662 -0.007806319 -0.007828304 -0.007846465 -0.007860512 -0.007864377
 -0.007858365 -0.007839794 -0.007810525 -0.007772979 -0.007731485 -0.007694644 -0.007666532 -0.007657503 -0.007664337 -0.007690566
 -0.007723249 -0.007756206 -0.007777938 -0.007780034 -0.007765828 -0.007732904 -0.007694795 -0.007653899 -0.00761779 -0.007588112
 -0.007563005 -0.007542467 -0.007523925 -0.007507384 -0.007493611 -0.007482513 -0.007473927 -0.007467238 -0.007459383 -0.007450677
 -0.0074398 -0.007428797 -0.007421179 -0.00741759 -0.007421716 -0.007429209 -0.007437965 -0.007442887 -0.007438774 -0.00742818
 -0.007409666 -0.007391574 -0.007376482 -0.007367658 -0.007367087 -0.007369263 -0.00737408 -0.007373535 -0.00736701 -0.007351208
 -0.00732625 -0.007295542 -0.007259804 -0.007226031 -0.007194632 -0.007171326 -0.007155442 -0.007148047 -0.00714842 -0.007155639
 -0.007169427 -0.007190054 -0.00721436 -0.007241272 -0.00726296 -0.007274092 -0.007270293 -0.007246232 -0.007209608 -0.00716003
 -0.00711208 -0.007068665 -0.007038143 -0.007022497 -0.007019009 -0.007027764 -0.007041108 -0.007058759 -0.007075916 -0.007092937
 -0.00711088 -0.007129489 -0.007149249 -0.007167425 -0.007176963 -0.007174966 -0.007150721 -0.00710815 -0.007045859 -0.006974371
 -0.006903341 -0.006838216 -0.006786943 -0.00674505 -0.006713087 -0.006684119 -0.006655545 -0.006626321 -0.006595137 -0.006566898
 -0.00654191 -0.006525307 -0.0065175 -0.00652128 -0.006536636 -0.006563003 -0.006599028 -0.006635057 -0.006667454 -0.006674245
 -0.00665485 -0.006592469 -0.006497688 -0.006381313 -0.006256633 -0.006147991 -0.006056733 -0.005994171 -0.005953089 -0.005932355
 -0.005924992 -0.005928361 -0.005935419 -0.0059445 -0.005946704 -0.005940052 -0.005918898 -0.005881911 -0.005830389 -0.005764253
 -0.005687093 -0.005599134 -0.005504277 -0.00540318 -0.005302798 -0.005203983 -0.005114273 -0.005033899 -0.004967651 -0.004914702
 -0.004876894 -0.004850142 -0.004831483 -0.004812466 -0.004783652 -0.004741273 -0.004677057 -0.004601407 -0.004515619 -0.004433602
 -0.004361406 -0.004299372 -0.004250017 -0.004201639 -0.00415301 -0.004096219 -0.004030334 -0.003958617 -0.003881167 -0.003800905
 -0.003716457 -0.003617716 -0.003502696 -0.003354603 -0.003177697 -0.002973248 -0.00275146 -0.00253444 -0.002325018 -0.002139517
 -0.001967594 -0.001806716 -0.001643117 -0.001465213 -0.001271362 -0.001055596 -0.0008295071 -0.0005965437 -0.0003604216 -0.0001267381
 0.0001311357 0.000412678 0.0007719623 0.00121339 0.001765086 0.002426664 0.003162282 0.00397125 0.004825867 0.005740141
 0.006760271 0.007907153 0.009269624 0.01084919 0.01270402 0.01479207 0.01709223 0.01953162 0.0220359 0.02454881
 0.02700789 0.02940064 0.03170853 0.03392638 0.03606297 0.03804782 0.0398778 0.04143714 0.04270742 0.04364462
 0.04424176 0.04453434 0.0445245 0.0442594 0.04374261 0.04302365 0.04210688 0.04103927 0.0398222 0.03847421
 0.03701771 0.03548807 0.03395148 0.03251906 0.03122314 0.03015347 0.02925719 0.02852907 0.0279094 0.02736558
 0.02687762 0.02643186 0.02602673 0.02565961 0.02533188 0.02504072 0.02481411 0.02465287 0.02460925 0.02468423
 0.02486898 0.02515648 0.02547564 0.02582748 0.02617859 0.02653768 0.02691493 0.02731368 0.02774539 0.02821064
 0.02870997 0.02925798 0.0298598 0.03055629 0.03137305 0.03234923 0.03352475 0.03485636 0.03635633 0.03789788
 0.03945664 0.040946 0.04234711 0.04365325 0.04486082 0.04600556 0.04709036 0.04818863 0.04930821 0.05055999
 0.05193491 0.05346631 0.05510259 0.05669333 0.05822468 0.05957774 0.0608087 0.06195 0.06304456 0.06415369
 0.06527861 0.06643787 0.06762603 0.06884122 0.07009371 0.07139235 0.07271474 0.07406266 0.07538474 0.0766712
 0.07791875 0.07912573 0.08031152 0.08147556 0.082573 0.08359884 0.08448223 0.08523053 0.08583976 0.08632699
 0.08674549 0.08709916 0.08742719 0.08771186 0.08793888 0.08810832 0.08820682 0.08826354 0.08829613 0.08832014
 0.0883532 0.08837785 0.0883942 0.08837646 0.08831749 0.08821063 0.08805226 0.08785718 0.08762565 0.08738425
 0.08713401 0.08688384 0.08663136 0.08635615 0.08605608 0.08570915 0.08531719 0.08487178 0.0843816 0.083857
 0.0833149 0.08278437 0.08227639 0.08181554 0.08139685 0.08102398 0.08069139 0.08039531 0.08013996 0.079927
 0.07975512 0.07962676 0.07952476 0.07944719 0.07938018 0.07932171 0.07927662 0.07924534 0.07924633 0.07928028
 0.07936191 0.07948939 0.0796614 0.07987529 0.08012122 0.08039967 0.08070616 0.08104399 0.08141582 0.08182511
 0.08227533 0.0827719 0.08331776 0.08392296 0.08459158 0.08533568 0.08615901 0.08707383 0.08808419 0.08919371
 0.09040686 0.09169476 0.09305765 0.0944301 0.09580843 0.09711942 0.09835819 0.0994512 0.1003912 0.1010973
 0.1015748 0.1017888 0.1017705 0.1015662 0.1012107 0.1007736 0.1002818 0.09978729 0.09930556 0.09886722
 0.09846345 0.09810136 0.09775493 0.09741577 0.09707043 0.09670762 0.0963639 0.09604139 0.09578586 0.09560475
 0.09546236 0.09535687 0.09523916 0.09511037 0.09496629 0.09481043 0.0946595 0.09451339 0.09438397 0.09426118
 0.09414077 0.09398353 0.09374559 0.09334895 0.09268536 0.09173801 0.09043664 0.08887282 0.08707805 0.08510625
 0.08297794 0.08073974 0.0783897 0.07605305 0.07374401 0.0715818 0.06958182 0.06774988 0.06608605 0.06452795
 0.06307424 0.0616888 0.06037673 0.05914825 0.05800539 0.0569643 0.05601438 0.05514396 0.05433367 0.05354977
 0.05277719 0.05198779 0.05117341 0.05032221 0.04942209 0.04846105 0.04744367 0.04635094 0.04527524 0.04422861
 0.04331631 0.04256849 0.04193367 0.0414129 0.04090666 0.04041034 0.03989708 0.03937092 0.03887023 0.03839757
 0.03798782 0.03763567 0.03733671 0.03709625 0.03691781 0.03682357 0.03685192 0.03701095 0.03733192 0.03778986
 0.03837741 0.03906929 0.03984922 0.04070843 0.04163979 0.04264269 0.0437088 0.04487842 0.04614532 0.0476376
 0.04936629 0.0514365 0.05385199 0.05642245 0.05912137 0.06156785 0.06376457 0.06552698 0.06688807 0.06785894
 0.06847196 0.06879519 0.068871 0.0687886 0.06859133 0.06835905 0.0681155 0.06790757 0.06772675 0.06758653
 0.06745041 0.06730642 0.06713789 0.06693427 0.06671495 0.06647982 0.06625883 0.06605496 0.06588516 0.06575036
 0.0656433 0.06556277 0.06549167 0.06543014 0.06536995 0.06531309 0.06526245 0.06521879 0.06518717 0.06516248
 0.06513916 0.06511209 0.06506909 0.06502149 0.06496832 0.06493854 0.06494558 0.06501383 0.06515794 0.06537652
 0.06567428 0.06603238 0.06644939 0.06690609 0.06740183 0.06790578 0.06841614 0.06887573 0.06928154 0.06957921
 0.06977069 0.06983827 0.06978789 0.06962948 0.06936961 0.06902743 0.06860843 0.06813014 0.06759393 0.06700835
 0.06637149 0.06568426 0.06494538 0.06415371 0.06331088 0.06241435 0.06147833 0.06050026 0.05952222 0.05854746
 0.05763019 0.0567768 0.05600824 0.05532588 0.05471681 0.05418085 0.05371127 0.05331085 0.05299345 0.05275981
 0.05262374 0.05257536 0.05260442 0.05268693 0.05278518 0.05286688 0.05288201 0.05280967 0.05261024 0.05230176
 0.05187304 0.05138301 0.05084686 0.05032287 0.049831 0.0493884 0.04900375 0.04865645 0.04834598 0.04804571
 0.04775413 0.04746582 0.04718209 0.04691976 0.04667964 0.04647598 0.04630587 0.04616648 0.04605494 0.04596274
 0.04588942 0.04583028 0.04578647 0.04575687 0.04574465 0.0457519 0.04578119 0.04583647 0.04591131 0.04600607
 0.04610706 0.04621043 0.04630999 0.04640285 0.04649701 0.04659263 0.04670115 0.04682325 0.0469624 0.0471185
 0.04729038 0.04747896 0.04768832 0.04792131 0.04819021 0.04849738 0.04885615 0.04926343 0.04972328 0.0502232
 0.05075441 0.05129509 0.05182909 0.05232916 0.05277837 0.05315299 0.05343927 0.05363015 0.05371869 0.05371861
 0.05362976 0.05347421 0.05325406 0.0529849 0.05266773 0.05231111 0.05191567 0.05149088 0.05103871 0.05057534
 0.05010392 0.04964475 0.04919915 0.04878167 0.04838908 0.048023 0.04767877 0.04735037 0.04703836 0.04673915
 0.04646109 0.04620675 0.04598625 0.04580452 0.04566521 0.04557167 0.04551671 0.04550071 0.04550951 0.04554195
 0.04558545 0.04563922 0.04569625 0.04575631 0.04581479 0.04587151 0.04592239 0.04596812 0.04600834 0.04604539
 0.04608417 0.04612792 0.04618395 0.04625514 0.0463484 0.04646298 0.0466024 0.04675875 0.04692977 0.04710498
 0.04727902 0.04744934 0.04761291 0.04777723 0.04794306 0.04811687 0.04829978 0.04849098 0.04869049 0.04889582
 0.04910704 0.04932513 0.04955041 0.04978562 0.05003034 0.05028522 0.05054789 0.05081442 0.05107889 0.05133098
 0.05156232 0.05175874 0.05191582 0.05202328 0.05208666 0.052105 0.05208861 0.05204193 0.05196881 0.05187143
 0.05174888 0.05160008 0.05143316 0.05124813 0.05106094 0.05087262 0.05068751 0.05050495 0.05031361 0.05011355
 0.04989842 0.04967183 0.04944448 0.04921916 0.04900896 0.04881288 0.04863454 0.04847388 0.04833091 0.04820956
 0.04811306 0.04804422 0.04800636 0.04799762 0.04801857 0.04806515 0.04813729 0.0482276 0.04833604 0.04844828
 0.04856302 0.04866673 0.04875829 0.04884153 0.04891792 0.0490126 0.04912757 0.04928994 0.04949718 0.04975541
 0.05005801 0.05039072 0.05075017 0.05112233 0.05151098 0.05191485 0.05233894 0.0527882 0.05326212 0.05376277
 0.05428521 0.0548279 0.05538739 0.0559616 0.05655336 0.05716206 0.05779636 0.05845733 0.05914912 0.0598723
 0.0606146 0.06137474 0.06212919 0.06287725 0.06360221 0.06430536 0.06498363 0.06563696 0.06626516 0.06686392
 0.0674267 0.06794697 0.06841364 0.06882417 0.06917062 0.0694596 0.06969122 0.06987713 0.07002264 0.07013257
 0.07020969 0.07025304 0.07026134 0.07024431 0.07020154 0.07015735 0.07011323 0.07008886 0.07008424 0.07009915
 0.0701313 0.07016531 0.0701986 0.07021232 0.07020658 0.0701699 0.07010905 0.07002823 0.06994067 0.06986298
 0.06980886 0.06979455 0.06983121 0.06992946 0.07009619 0.0703382 0.07065143 0.07103845 0.07148198 0.07198038
 0.07251389 0.07308074 0.07366219 0.07425725 0.07483748 0.07540103 0.07591301 0.07637364 0.07676587 0.07709485
 0.07737158 0.07760223 0.07780886 0.07799408 0.07817259 0.07834465 0.07851544 0.07868711 0.07886183 0.07904553
 0.07924328 0.07945525 0.07968663 0.07991939 0.08015212 0.08035736 0.08052898 0.08065537 0.08073307 0.0807737
 0.08077756 0.08076517 0.08073754 0.08071288 0.08069114 0.08068179 0.080682 0.0806859 0.08068927 0.08067732
 0.08064905 0.08059616 0.08051839 0.08041391 0.08027735 0.08010365 0.07988832 0.07962413 0.07932038 0.0789754
 0.07861322 0.07823814 0.07787772 0.07753772 0.07723544 0.07697464 0.07675199 0.07656781 0.07640533 0.07626396
 0.07613379 0.07601518 0.07590772 0.07580982 0.0757148 0.07562003 0.07551342 0.07539718 0.07526948 0.07513398
 0.07499614 0.07485396 0.0747068 0.07455511 0.07439592 0.07424103 0.07409441 0.07396573 0.0738612 0.07377198
 0.0736994 0.07362168 0.07353691 0.0734247 0.07328348 0.07310208 0.07288042 0.07261936 0.07231963 0.07198783
 0.07162315 0.07122536 0.07079355 0.07032322 0.06981869 0.06928452 0.06872834 0.06816197 0.06759038 0.06702152
 0.06645951 0.06590877 0.06537251 0.06485505 0.06434934 0.06385569 0.06336022 0.06285872 0.06235284 0.06184037
 0.06134541 0.06086938 0.06043445 0.06004081 0.05968692 0.05937028 0.05907051 0.05878605 0.05849837 0.05821
 0.05791811 0.05762648 0.05734228 0.05706439 0.05679558 0.05653019 0.056264 0.05599294 0.05571402 0.05542244
 0.05511697 0.05478828 0.05443246 0.05404816 0.05363213 0.05320126 0.05275676 0.05231647 0.05188216 0.05145253
 0.0510272 0.05059522 0.05015689 0.04970991 0.04925575 0.04879963 0.04834276 0.04789075 0.04744516 0.04701141
 0.04659067 0.04618732 0.0457998 0.04542905 0.04507071 0.04472364 0.0443799 0.04403676 0.04368482 0.04331933
 0.04294186 0.0425498 0.04216058 0.04177595 0.04140987 0.04106397 0.04073219 0.04041403 0.04009626 0.03977935
 0.03946104 0.03914307 0.038832 0.03852864 0.0382388 0.03796192 0.03770046 0.03745129 0.03721181 0.0369778
 0.03674276 0.03650962 0.03627573 0.03605373 0.03584851 0.03566919 0.03552172 0.03539946 0.03530366 0.03521734
 0.0351386 0.03505488 0.03496484 0.0348688 0.03476708 0.03466959 0.03457663 0.03449571 0.03442524 0.03436173
 0.03430406 0.03424523 0.03418968 0.0341411 0.03410795 0.03410478 0.03413269 0.03420276 0.03429792 0.03441484
 0.03452408 0.0346114 0.03465938 0.03465559 0.03461373 0.03453153 0.03444171 0.03434822 0.03427272 0.03421758
 0.03418353 0.03417057 0.03417545 0.03419886 0.03424609 0.03431731 0.03441813 0.03454405 0.03468695 0.03483772
 0.03497428 0.03509109 0.03516797 0.03521319 0.03522392 0.03521983 0.03521277 0.03521714 0.03524481 0.03529247
 0.03536344 0.03544314 0.03552951 0.03560977 0.03568143 0.03574244 0.03579202 0.03584084 0.03588952 0.03595197
 0.03602754 0.03611688 0.03621724 0.03631504 0.03641051 0.0364951 0.03657549 0.03666022 0.03675698 0.03688146
 0.03703394 0.03722288 0.03743824 0.03767833 0.03792629 0.03817541 0.03840905 0.03861985 0.03880231 0.03895143
 0.03908266 0.03919563 0.03932046 0.03945963 0.03963068 0.03983364 0.04005202 0.04028293 0.04049207 0.04068061
 0.04083414 0.04095982 0.04107222 0.04117542 0.04128696 0.04140156 0.0415201 0.04163427 0.04173495 0.04182069
 0.04188568 0.04193803 0.04197879 0.04201971 0.04206545 0.04211994 0.04218659 0.04225497 0.04232485 0.04238072
 0.04242103 0.04244218 0.04244445 0.0424432 0.04244082 0.04246544 0.04251866 0.04262515 0.04278027 0.04298601
 0.04322986 0.04348783 0.04374916 0.04398542 0.0442002 0.04438313 0.04455176 0.04471384 0.04488642 0.04508185
 0.0452997 0.04554524 0.04580105 0.0460641 0.04632276 0.04657324 0.04682705 0.04708454 0.04736151 0.04765822
 0.04796598 0.04828255 0.0485822 0.04886511 0.04911754 0.04934382 0.04954917 0.04973949 0.04992877 0.05012256
 0.05033666 0.05056837 0.05082498 0.05108903 0.05135183 0.05159647 0.05180917 0.05199531 0.05215134 0.05229611
 0.05243395 0.05257243 0.0527143 0.05285213 0.05298582 0.05310359 0.05320495 0.05328376 0.05334125 0.05338642
 0.05342181 0.05346637 0.05351796 0.05358119 0.05364943 0.05370854 0.05376018 0.05379712 0.05383306 0.05387903
 0.05394616 0.05404754 0.05418199 0.05435454 0.05455287 0.05477632 0.05500423 0.055232 0.05544542 0.05563946
 0.05582871 0.05601297 0.05622424 0.05646389 0.05674676 0.05707164 0.05743141 0.05782506 0.05824434 0.05868868
 0.0591524 0.05963452 0.06012924 0.06063858 0.06116344 0.0617044 0.06226625 0.06283654 0.06341305 0.06396873
 0.06449459 0.06495451 0.06533653 0.06560931 0.06575966 0.06579574 0.06571169 0.06556625 0.06536335 0.06515606
 0.06494664 0.06474084 0.06453834 0.06433536 0.06413663 0.06396594 0.06382651 0.06374422 0.06371222 0.06373002
 0.06378596 0.06386437 0.06395141 0.06402876 0.0640824 0.06409252 0.06406683 0.06399693 0.06392074 0.06384908
 0.06380937 0.06381527 0.06384672 0.06390577 0.06394645 0.06396482 0.06393146 0.06384519 0.06371334 0.06353998
 0.06337009 0.06320895 0.06311055 0.06307101 0.06310923 0.06321188 0.06335984 0.06354097 0.06372964 0.06391663
 0.06408193 0.06422428 0.06433006 0.0644242 0.06451023 0.06462921 0.06480528 0.06501915 0.06528024 0.06550799
 0.06568723 0.06580509 0.0658572 0.06587606 0.06586302 0.06582968 0.06577677 0.06571428 0.06564608 0.06560074
 0.06557675 0.06558795 0.0656225 0.06566025 0.06569406 0.06570154 0.06568786 0.06564891 0.06559473 0.06552947
 0.06546696 0.06541379 0.0653839 0.0653848 0.06541766 0.06548505 0.06557974 0.06570107 0.06584371 0.06600772
 0.06617962 0.06635858 0.06651963 0.0666621 0.06677053 0.06684579 0.06688527 0.06688833 0.06684955 0.06677213
 0.06665786 0.06651659 0.06636923 0.06620838 0.06603812 0.06583722 0.06557771 0.06529231 0.06497639 0.06471303
 0.06453546 0.06447349 0.06454955 0.06471562 0.06496941 0.06525701 0.06557292 0.06589023 0.0662074 0.06651436
 0.06681176 0.067106 0.06739562 0.06767862 0.06794676 0.06816756 0.06834224 0.06845147 0.06851541 0.06855887
 0.06859284 0.06864459 0.06869967 0.06875629 0.06879961 0.06881896 0.06881533 0.06878582 0.06873747 0.0686693
 0.06859892 0.06852771 0.06847885 0.0684561 0.06845025 0.06846083 0.06845206 0.06842507 0.06838112 0.06832752
 0.06830957 0.06832644 0.06840396 0.06852636 0.06867323 0.068824 0.06893711 0.06900056 0.06897709 0.06888922
 0.06872979 0.06856225 0.0684192 0.06833789 0.06835208 0.06841572 0.0685285 0.06862266 0.06868279 0.06870604
 0.06868856 0.06866978 0.06865167 0.06865221 0.06867056 0.06870037 0.06874032 0.06877979 0.06881851 0.06884871
 0.06887344 0.06889694 0.06891946 0.06894819 0.06896837 0.06896615 0.06893081 0.06884122 0.06872173 0.06857572
 0.06843833 0.06832746 0.06824379 0.06819291 0.06815731 0.06813385 0.06812003 0.06811567 0.06811523 0.06811836
 0.06810226 0.0680659 0.06799106 0.0678772 0.0677122 0.06749518 0.06721157 0.06687198 0.0664873 0.06608416
 0.06571189 0.06538446 0.06514411 0.0649712 0.06486894 0.0648018 0.06475267 0.06469402 0.0646094 0.06449642
 0.06434733 0.06418955 0.06402628 0.06387971 0.06375436 0.06362987 0.06350529</values></Ydata></AB><ScSm><Ydata ylabel="Single channel"><values byteorder="INTEL" format="FLOAT32" numvalues="1814"> 0.06367409 0.06368575 0.06375592 0.06389715 0.06407966 0.06425093 0.06437212 0.06444086 0.06447369 0.06447344
 0.0644388 0.06440656 0.06444606 0.06459123 0.06479397 0.06495644 0.06500977 0.06497604 0.06495803 0.06503757
 0.06516242 0.06515969 0.0648987 0.06444187 0.06400435 0.0637545 0.06370802 0.06385683 0.06427775 0.06492795
 0.0654117 0.06526402 0.06453802 0.06383497 0.06363595 0.06383712 0.06402957 0.06396725 0.06364684 0.06322148
 0.06303845 0.06353833 0.06482361 0.06631258 0.06695165 0.06587487 0.06301676 0.05931798 0.05638948 0.05565038
 0.05732276 0.06013488 0.06227509 0.06283565 0.06225079 0.0613957 0.06065223 0.06000544 0.05962641 0.05990085
 0.06088836 0.06196456 0.06213589 0.06087743 0.05876045 0.05706058 0.05660202 0.05723431 0.0585022 0.06014358
 0.06139833 0.06061219 0.05685758 0.05199403 0.04984511 0.05256723 0.05835503 0.06322053 0.0645463 0.06253539
 0.05904475 0.05604333 0.05489104 0.05596571 0.05856552 0.06149985 0.06382655 0.06490758 0.0642475 0.06191571
 0.05896606 0.0569246 0.05685052 0.05892471 0.06241456 0.06573358 0.06716011 0.06611184 0.06353362 0.0608913
 0.05920434 0.05905273 0.06071516 0.06387052 0.0675864 0.07087304 0.07309186 0.07399972 0.07378547 0.07295446
 0.07194643 0.07106963 0.07077976 0.07139645 0.07236321 0.07245869 0.07113054 0.06923279 0.06814671 0.06835467
 0.06905581 0.06914029 0.06830927 0.06689568 0.06477255 0.06134984 0.05692746 0.05303561 0.05090696 0.0505471
 0.05165564 0.05410775 0.05687467 0.05794781 0.05653092 0.05444983 0.05433144 0.05680672 0.06018944 0.06255446
 0.06351908 0.0641225 0.06547601 0.06761812 0.06935185 0.06913838 0.06662266 0.0635055 0.06234492 0.06404643
 0.06699596 0.06905489 0.06982078 0.07040127 0.07147834 0.07225487 0.07127898 0.06816077 0.06452012 0.06299917
 0.06496201 0.0691277 0.07249429 0.07256024 0.06900989 0.06380072 0.05963731 0.05809532 0.05917952 0.0623384
 0.06707773 0.07244112 0.07676637 0.07861221 0.07780991 0.07537595 0.07235464 0.06885383 0.06459925 0.06054255
 0.05905592 0.06168392 0.06716156 0.07246907 0.07553104 0.0762527 0.07533194 0.07296319 0.06903861 0.06440505
 0.06127712 0.06151582 0.06439584 0.0670218 0.06736872 0.06612671 0.06520169 0.0653206 0.06576569 0.06586131
 0.06592698 0.0667384 0.06843792 0.07024158 0.07121015 0.07110858 0.0704474 0.06987648 0.06959122 0.06919402
 0.06825517 0.06717571 0.06713957 0.06882139 0.07146132 0.07364564 0.07472181 0.07503466 0.07499005 0.07434094
 0.07255355 0.06982638 0.06750089 0.06706601 0.06871709 0.07123783 0.07326505 0.07426496 0.07439613 0.07401663
 0.07344526 0.0728565 0.07233047 0.07207768 0.07238944 0.07322133 0.07409507 0.07457782 0.07463691 0.07442902
 0.07399482 0.07331616 0.07253148 0.07194391 0.07180599 0.07212868 0.07271197 0.07332329 0.07378595 0.0739525
 0.07375442 0.07330719 0.07283674 0.07247208 0.07221079 0.07207403 0.0721477 0.07243526 0.07278705 0.07303132
 0.07311207 0.0730675 0.07293746 0.07273637 0.07248507 0.07223602 0.07207061 0.0720559 0.07217346 0.07231872
 0.07241458 0.07248864 0.07258275 0.07263844 0.07255703 0.07234587 0.07212654 0.07200649 0.07199515 0.07203429
 0.07205623 0.07199678 0.07179488 0.07144439 0.07106227 0.07084616 0.07091586 0.0712231 0.07163049 0.07201831
 0.07230075 0.07242873 0.07242742 0.07237416 0.07230567 0.0721882 0.07199502 0.07178172 0.07166973 0.07175414
 0.07201597 0.07233077 0.07257367 0.07269933 0.07272806 0.07271175 0.07272137 0.07279831 0.0728946 0.07291705
 0.07284757 0.07277283 0.07278076 0.07286119 0.07292359 0.07290088 0.0728261 0.07279734 0.07286878 0.07299946
 0.0731157 0.07319444 0.0732685 0.07336554 0.07345596 0.07346846 0.07336973 0.07321908 0.07311341 0.07308529
 0.07309508 0.07311735 0.07317957 0.07330075 0.07343575 0.07351355 0.07351623 0.07349436 0.07349999 0.07352263
 0.07350619 0.07342049 0.07329614 0.07319146 0.07314211 0.07314415 0.07316919 0.07318712 0.07317951 0.07314134
 0.07307805 0.07300034 0.07291695 0.0728378 0.07278946 0.07280932 0.07289985 0.07299541 0.07300331 0.07288911
 0.072712 0.07256877 0.07250418 0.07247841 0.07241995 0.07230237 0.07216085 0.07204346 0.07196707 0.07192004
 0.07188472 0.07184957 0.07181965 0.07182577 0.07190177 0.07203412 0.07215012 0.072181 0.07213144 0.07206804
 0.07204687 0.0720723 0.07211756 0.07216185 0.07220997 0.07228744 0.07240637 0.07253196 0.0726075 0.07262239
 0.0726289 0.07268465 0.07280628 0.07297938 0.07317205 0.07333231 0.07341552 0.07343355 0.07344978 0.07351278
 0.07361688 0.07373319 0.07385221 0.07398225 0.07412618 0.07428037 0.07445095 0.07465513 0.07490272 0.07517973
 0.07544947 0.07567254 0.07583752 0.07597973 0.07616173 0.07642311 0.07674608 0.07707167 0.07735142 0.07758537
 0.07781056 0.07805389 0.07830758 0.07856017 0.07883295 0.07915862 0.07952997 0.07990004 0.0802348 0.0805425
 0.08084865 0.08116448 0.08148689 0.08181564 0.08216161 0.08253627 0.08292954 0.08330242 0.08361617 0.08387269
 0.08411732 0.08439998 0.08473693 0.08509912 0.08542797 0.0856788 0.08586873 0.08606947 0.08633083 0.08662461
 0.0868908 0.08712666 0.08739313 0.0877309 0.08810319 0.08843707 0.08870282 0.08893584 0.08918671 0.08946168
 0.08971605 0.08990465 0.09003256 0.09014828 0.09029283 0.09047505 0.0906987 0.0909834 0.09133436 0.09170902
 0.09204243 0.09230071 0.09249258 0.09264199 0.09277217 0.09290428 0.09304693 0.09319166 0.09333132 0.09346769
 0.09359441 0.09369862 0.09379392 0.09392217 0.09410602 0.09432749 0.09456956 0.09484495 0.0951592 0.09547685
 0.09576212 0.09603616 0.0963511 0.09670492 0.09702195 0.09723617 0.09736195 0.09745772 0.09755101 0.09763936
 0.09774344 0.09790534 0.09813054 0.09837012 0.09857066 0.09871594 0.09881501 0.09887263 0.0988825 0.09883991
 0.09875639 0.09866607 0.09861954 0.09866913 0.09885225 0.0991718 0.09958358 0.1000123 0.10039 0.1006748
 0.1008385 0.1008642 0.1007726 0.1006263 0.1004752 0.1003 0.1000272 0.09959498 0.09899014 0.09822477
 0.09730639 0.09624501 0.09508072 0.09389135 0.09277 0.09179544 0.09102531 0.09051305 0.09031413 0.0904512
 0.09086644 0.09142028 0.09194285 0.09228058 0.09231013 0.09195429 0.09121609 0.09018432 0.08898355 0.08771912
 0.08646499 0.08527106 0.08416109 0.08314604 0.08227069 0.08164604 0.08142163 0.08172603 0.08262594 0.08410538
 0.08604668 0.0882353 0.09042295 0.09242367 0.09416866 0.09568117 0.09701561 0.0982247 0.09935716 0.1004471
 0.1014952 0.102478 0.103382 0.1042159 0.1049884 0.1056858 0.1062755 0.1067198 0.1069943 0.1071033
 0.1070797 0.1069648 0.1067943 0.1065985 0.106388 0.1061229 0.1057089 0.1050489 0.1041099 0.1029523
 0.1017178 0.10061 0.09988533 0.09982909 0.1006752 0.1024808 0.1050511 0.1080016 0.1109221 0.1135147
 0.1156389 0.117291 0.1185583 0.1195624 0.1204098 0.1211725 0.1218908 0.1225754 0.1232157 0.123801
 0.1243368 0.1248425 0.1253379 0.1258317 0.1263128 0.1267573 0.127156 0.1275339 0.1279346 0.1283809
 0.1288525 0.1293062 0.1297202 0.130114 0.1305149 0.1309151 0.1312801 0.131597 0.1318929 0.1322078
 0.1325672 0.1329734 0.1334004 0.1337997 0.1341339 0.1344085 0.1346606 0.134921 0.1351975 0.1354862
 0.1357833 0.1360827 0.1363764 0.1366632 0.1369535 0.1372536 0.1375476 0.1378094 0.1380332 0.1382431
 0.1384672 0.138711 0.1389588 0.1391937 0.1394159 0.1396458 0.1399078 0.1402057 0.1405147 0.1408012
 0.1410494 0.1412692 0.1414832 0.1417098 0.1419559 0.142219 0.1424896 0.1427535 0.1430011 0.1432362
 0.1434735 0.1437219 0.1439766 0.1442255 0.1444612 0.1446846 0.1449008 0.1451148 0.145335 0.1455761
 0.1458512 0.1461523 0.1464474 0.1467056 0.1469226 0.1471162 0.1473037 0.1474944 0.147697 0.1479232
 0.1481771 0.1484477 0.1487137 0.1489601 0.1491888 0.149416 0.1496563 0.1499122 0.1501758 0.1504379
 0.1506957 0.1509539 0.1512161 0.1514782 0.1517307 0.1519699 0.1521998 0.1524257 0.1526501 0.1528758
 0.153107 0.1533462 0.1535915 0.153837 0.154076 0.1543067 0.154533 0.1547598 0.1549883 0.155218
 0.1554505 0.1556871 0.1559254 0.156159 0.1563817 0.1565947 0.1568067 0.1570266 0.1572553 0.1574893
 0.1577261 0.1579649 0.1582041 0.1584418 0.1586761 0.158905 0.1591281 0.1593491 0.1595725 0.1598001
 0.1600302 0.1602586 0.1604807 0.1606964 0.1609107 0.161129 0.1613522 0.1615781 0.1618037 0.1620302
 0.1622637 0.1625083 0.1627572 0.1629963 0.1632181 0.163427 0.1636351 0.1638542 0.1640868 0.1643229
 0.1645528 0.1647805 0.1650139 0.1652502 0.16548 0.1657002 0.1659133 0.1661209 0.1663271 0.1665364
 0.1667495 0.1669642 0.1671799 0.1673948 0.1676069 0.1678195 0.1680408 0.1682741 0.1685148 0.1687533
 0.1689809 0.169198 0.1694162 0.1696458 0.1698865 0.1701322 0.1703768 0.1706136 0.170841 0.1710672
 0.1712984 0.1715296 0.1717565 0.1719829 0.1722103 0.1724351 0.1726577 0.1728824 0.1731094 0.1733357
 0.1735585 0.1737758 0.1739916 0.1742162 0.1744514 0.1746866 0.1749159 0.1751432 0.1753682 0.1755867
 0.1758027 0.1760241 0.1762501 0.1764765 0.1767002 0.176917 0.1771278 0.1773434 0.1775704 0.1778045
 0.1780425 0.1782837 0.1785185 0.1787383 0.1789511 0.179168 0.1793884 0.1796083 0.1798241 0.1800218
 0.180163 0.1801375 0.1796583 0.1781607 0.1747967 0.1685988 0.1588534 0.1455485 0.1295433 0.1122689
 0.09519808 0.07945783 0.06571513 0.05425843 0.04514042 0.038278 0.03351723 0.03072703 0.02989469 0.03123111
 0.03529075 0.0426461 0.05264118 0.06227998 0.06738468 0.06589073 0.05982009 0.05343895 0.04971022 0.04885472
 0.04961702 0.05092161 0.05242472 0.05431442 0.05692013 0.06033877 0.06441598 0.06914808 0.07487915 0.08186342
 0.08973797 0.0976706 0.1050715 0.1120525 0.1191492 0.1266699 0.1343687 0.1416891 0.1482064 0.1538393
 0.1587662 0.1632302 0.1674001 0.1713475 0.1751004 0.1786535 0.1818907 0.1845422 0.1863104 0.1871001
 0.1871323 0.1868182 0.1865142 0.1863858 0.1864553 0.1867049 0.1871148 0.1876587 0.1883102 0.1890493
 0.189852 0.1906879 0.1915307 0.1923598 0.193154 0.1938947 0.194571 0.1951794 0.1957237 0.1962157
 0.1966693 0.1970933 0.197492 0.1978683 0.1982247 0.1985661 0.1988969 0.1992137 0.1995062 0.1997702
 0.2000111 0.2002359 0.2004506 0.200662 0.2008738 0.2010834 0.2012895 0.201497 0.2017108 0.2019286
 0.2021442 0.2023514 0.2025467 0.2027333 0.2029195 0.2031106 0.2033049 0.2034989 0.2036919 0.2038834
 0.2040735 0.2042639 0.2044562 0.2046496 0.2048433 0.2050395 0.2052409 0.2054463 0.2056496 0.2058447
 0.2060352 0.2062343 0.20645 0.206674 0.2068939 0.2071115 0.2073362 0.207569 0.2078024 0.2080268
 0.2082306 0.2084034 0.2085489 0.208691 0.2088597 0.2090703 0.2093098 0.209548 0.2097648 0.2099643
 0.2101592 0.2103541 0.2105466 0.2107328 0.2109138 0.2111051 0.2113314 0.2115961 0.2118722 0.2121352
 0.2123823 0.2126163 0.2128386 0.2130602 0.2132865 0.2134932 0.2136508 0.2137761 0.2139361 0.214193
 0.214546 0.214926 0.2152547 0.2155099 0.2157264 0.2159507 0.2162116 0.2164956 0.2167231 0.2168035
 0.2167706 0.2168092 0.2170835 0.2175723 0.218116 0.2185809 0.2189412 0.2192383 0.2195088 0.2197479
 0.2199149 0.2199784 0.2199796 0.2200515 0.2203298 0.220812 0.221346 0.2217862 0.2221092 0.2223589
 0.2225675 0.2227545 0.222892 0.2228511 0.2225375 0.2221373 0.2220729 0.2225979 0.2235129 0.2243756
 0.2249368 0.2252759 0.2255608 0.2258361 0.2260652 0.2261696 0.2259292 0.2251045 0.2238957 0.2230796
 0.2233671 0.2246861 0.2263073 0.2275752 0.228325 0.2287231 0.2289801 0.2292057 0.2293277 0.2291065
 0.2284006 0.2275126 0.2271165 0.2276416 0.2287944 0.2298747 0.2304916 0.2307702 0.2309808 0.2312316
 0.2313966 0.2310689 0.2297853 0.2277147 0.2260163 0.2260293 0.2279617 0.2306371 0.2326585 0.2336139
 0.2339755 0.2340697 0.2335956 0.2321674 0.2298877 0.2273005 0.2252375 0.2247177 0.2262714 0.2290816
 0.2314433 0.232447 0.2327441 0.2334446 0.2347825 0.236115 0.2367752 0.2365968 0.2357869 0.2345499
 0.2329957 0.2315019 0.2309209 0.2319694 0.2343616 0.2369163 0.2386535 0.2395368 0.2399526 0.239556
 0.2370455 0.2317252 0.2254491 0.2221008 0.2241643 0.2301262 0.2361019 0.239653 0.2411192 0.2417966
 0.2422115 0.2419724 0.239979 0.2350042 0.2275961 0.2213123 0.2203264 0.2252965 0.2326255 0.2378308
 0.2386264 0.2351866 0.2293231 0.2239249 0.2217795 0.2238874 0.2290304 0.2349779 0.2398272 0.2425162
 0.2428094 0.2411917 0.2388168 0.2372198 0.237214 0.2376798 0.236405 0.2328836 0.2291738 0.2268694
 0.2246037 0.2205492 0.2164394 0.2164198 0.2216769 0.2284718 0.2323518 0.2326595 0.2317124 0.2305494
 0.2271116 0.2191797 0.2085534 0.2010971 0.2015913 0.2087571 0.2163789 0.2193423 0.2176443 0.2146025
 0.2124302 0.2101082 0.2050851 0.1968222 0.1885002 0.1844168 0.1855069 0.1885612 0.1900295 0.1888137
 0.1849864 0.1787018 0.1723318 0.1711764 0.1788778 0.1928388 0.2062415 0.2136171 0.2127554 0.2034445
 0.1883414 0.1746731 0.1706981 0.178286 0.1906531 0.1986298 0.1979335 0.1898681 0.1774039 0.163206
 0.1509177 0.1454253 0.1498801 0.1625524 0.1770029 0.18528 0.1822563 0.1696083 0.1561859 0.1516243
 0.1575647 0.1665575 0.1704541 0.1678198 0.1626714 0.1592591 0.159618 0.163371 0.1681417 0.1717324
 0.173869 0.1737284 0.1675374 0.1531315 0.1360852 0.1260922 0.1268826 0.1342221 0.1436828 0.1546359
 0.1653049 0.1700096 0.165572 0.1573924 0.1549164 0.1616147 0.1719851 0.178291 0.1782302 0.1753927
 0.1736493 0.1729755 0.1714222 0.1696674 0.1711575 0.1773898 0.1853252 0.1907776 0.1927558 0.193107
 0.1933494 0.1935168 0.1932215 0.1923333 0.1909042 0.1892657 0.187929 0.1869873 0.1860166 0.1846977
 0.1827946 0.1792442 0.1724241 0.1625618 0.1532188 0.1485289 0.1488702 0.1511397 0.1532632 0.1553744
 0.1556519 0.1491599 0.1343296 0.1182606 0.1115679 0.1181474 0.1322783 0.1451281 0.1515123 0.1503536
 0.1420421 0.1285916 0.1157949 0.1114862 0.1192378 0.13499 0.1514124 0.1641804 0.1725432 0.1759499
 0.1733581 0.1657987 0.1574299 0.1532079 0.1558587 0.1646149 0.1754832 0.1823147 0.1797822 0.1686468
 0.1582221 0.159582 0.1739305 0.1906156 0.1990906 0.1996381 0.1992496 0.2007307 0.2012151 0.1997434
 0.2004009 0.2066231 0.2160643 0.2228972 0.2229604 0.215406 0.2020701 0.1878134 0.1793274 0.1798898
 0.1857907 0.190512 0.1911312 0.1878956 0.1802982 0.1688623 0.1594757 0.1598134 0.1703914 0.1834452
 0.1917575 0.195247 0.1977895 0.2004988 0.2003689 0.1948637 0.1862025 0.180018 0.1797981 0.1838208
 0.1880382 0.1903226 0.1905203 0.1880669 0.1823386 0.175363 0.171818 0.1749871 0.1833944 0.1922151
 0.1975965 0.1990474 0.198297 0.1970381 0.1957919 0.194039 0.1913399 0.1888179 0.188961 0.192941
 0.1986919 0.2029884 0.2051203 0.2071567 0.2106884 0.2146516 0.2166814 0.2157715 0.213271 0.2117067
 0.2127534 0.2159067 0.2188476 0.219389 0.2175325 0.2156572 0.2163402 0.2199128 0.2244275 0.2278587
 0.22975 0.2307998 0.2316662 0.2323945 0.2324035 0.2309377 0.2281418 0.2256891 0.2256006 0.2282377
 0.2319463 0.2347498 0.2359311 0.2359355 0.2353166 0.2341799 0.2324911 0.2305661 0.2290529 0.2284475
 0.2287513 0.229619 0.2307019 0.23179 0.2327743 0.2336153 0.234323 0.234912 0.2353942 0.2358084
 0.2361866 0.2364843 0.2366225 0.2366261 0.236646 0.2367935 0.237008 0.2371364 0.2370871 0.2368338
 0.2363197 0.2354711 0.234305 0.2329265 0.2313965 0.2297012 0.2279378 0.2264922 0.225912 0.226511
 0.2280817 0.2300158 0.2317062 0.2328456 0.2334315 0.2336131 0.2335728 0.2334693 0.2333952 0.2333573
 0.2333141 0.2332372 0.2331295 0.2329993 0.2328515 0.2327095 0.232613 0.2325758 0.2325594 0.2325025
 0.2323604 0.232115 0.2317684 0.2313387 0.2308452 0.2302844 0.2296297 0.2288607 0.2279851 0.2270328
 0.2260392 0.2250357 0.2240385 0.2230353 0.2219904 0.2208694 0.2196434 0.2182773 0.2167589 0.2151599
 0.2136205 0.2122354 0.2109753 0.2097427 0.2084692 0.2071406 0.2057673 0.204375 0.2030082 0.2017131
 0.2005074 0.1993702 0.1982603 0.1971436 0.1960026 0.1948213 0.1935751 0.1922482 0.1908568 0.1894416
 0.1880254 0.1865654 0.1849433 0.1830061 0.180617 0.1776796 0.1741526 0.1700808 0.1656138 0.1609734
 0.1563896 0.1520561 0.148113 0.1446459 0.1417008 0.1393065 0.1374848 0.1362449 0.1355799 0.1354792
 0.1359426 0.1369714 0.1385335 0.140539 0.1428541 0.1453285 0.1478083 0.1501552 0.152293 0.1542413
 0.1560833 0.157888 0.159661 0.1613602 0.1629406 0.1643702 0.1656166 0.1666545 0.1674945 0.1681817
 0.1687579 0.1692467 0.1696731 0.1700649 0.1704318 0.1707674 0.1710718 0.1713528 0.1716136 0.1718568
 0.1720976 0.1723636 0.1726863 0.1730955 0.1736152 0.1742578 0.1750174 0.1758677 0.1767758 0.177724
 0.1787098 0.1797282 0.1807778 0.1818874 0.1831093 0.1844718 0.185949 0.1874777 0.1889891 0.1904215
 0.1917178 0.1928254 0.1937125 0.194384 0.1948735 0.1952193 0.1954564 0.1956165 0.1957153 0.1957486
 0.1957137 0.1956242 0.1954973 0.1953407 0.1951564 0.194941 0.1946863 0.1943936 0.1940808 0.1937666
 0.1934624 0.1931807 0.1929326 0.192711 0.1924928 0.192261 0.1920137 0.191752 0.191473 0.1911733
 0.1908548 0.1905161 0.1901335 0.1896613 0.1890658 0.1883505 0.187536 0.1866287 0.1856236 0.1845228
 0.1833336 0.1820605 0.1807092 0.1792865 0.1777905 0.1762029 0.1745006 0.1726805 0.1707855 0.1688994
 0.1671035 0.1654371 0.1638966 0.1624533 0.1610688 0.1597173 0.1584026 0.1571439 0.1559506 0.1548218
 0.1537577 0.1527549 0.1518008 0.1508876 0.150025 0.1492351 0.1485357 0.1479268 0.1473897 0.1469059
 0.1464735 0.1460976 0.1457795 0.1455244 0.1453422 0.1452217 0.1451247 0.1450134 0.1448708 0.1446903
 0.1444739 0.1442429 0.1440342 0.1438746 0.1437565 0.1436324 0.1434295 0.1430733 0.142498 0.1416507
 0.1405096 0.139104 0.1375028 0.1357964 0.134099 0.1325357 0.1311961 0.1301054 0.1292413 0.1285576
 0.127997 0.1275187 0.1271225 0.1268408 0.1267094 0.1267266 0.1268134 0.1268389 0.126736 0.1265854
 0.1265503 0.1267449 0.1271696 0.1277294 0.1282913 0.1287548 0.1290904 0.1293108 0.1294304 0.1294619
 0.1294177 0.1293015 0.1291198 0.1288936 0.128638 0.1283467 0.1280083 0.1276151 0.1271543 0.1266153
 0.1259924 0.1252727 0.1244482 0.1235341 0.1225323 0.1214139 0.1202083 0.1190876 0.1182958 0.1179931
 0.1181686 0.11866 0.1192653 0.1198718 0.1204348 0.1208239 0.1208604 0.1206449 0.1207148 0.1216551
 0.1235266 0.1257813 0.1277416 0.1290655 0.1297515 0.1298799 0.1294987 0.1286624 0.1274079 0.1257198
 0.1236107 0.1211755 0.1185258 0.1157851 0.1131494 0.110815 0.1088593 0.1072676 0.1060082 0.1051093
 0.104701 0.1044823 0.1028274 0.09763699 0.08957039 0.08350634 0.08444868 0.09189718 0.1001801 0.1044531
 0.104574 0.1031193 0.1018645 0.1010691 0.1006376 0.1006963 0.1013615 0.1025077 0.1037821 0.1048111
 0.1054373 0.1057 0.1055781 0.104778 0.1026843 0.09857774 0.09222772 0.08439937 0.07658033 0.07011309
 0.06560925 0.06296797 0.06164668 0.06097269 0.06049622 0.06019899 0.06036336 0.06124471 0.06287202 0.0651102
 0.06779885 0.07072942 0.07355571 0.07592665 0.07775097 0.07918911 0.08036502 0.08122194 0.08166185 0.08168668
 0.08138388 0.08086877 0.08025101 0.07958807 0.0788435 0.07792763 0.07683995 0.07577942 0.07503037 0.07469431
 0.07461374 0.0745894 0.07456121 0.07454783 0.074543 0.07452659 0.07449895 0.07449096 0.07457718 0.07483025
 0.07522163 0.07562094 0.07591292 0.076074 0.07614373 0.0761395 0.07597922 0.07554688 0.07490912 0.07433893
 0.07396358 0.07352777 0.07273064 0.07170292 0.07092272 0.07069886 0.07090862 0.07121051 0.07135818 0.07130674
 0.07116969 0.07115874 0.07145886 0.0720147</values></Ydata></ScSm><ScRf><Ydata ylabel="Single channel"><values byteorder="INTEL" format="FLOAT32" numvalues="1820"> 0.06054445 0.0606926 0.06078053 0.0608132 0.06081518 0.06082628 0.06088853 0.06102178 0.0612062 0.06138949
 0.06152126 0.06158736 0.0616039 0.06158371 0.06153691 0.06150524 0.06155381 0.06170546 0.06190172 0.06204359
 0.06207123 0.06201746 0.06198857 0.06206241 0.06218268 0.0621782 0.06192299 0.06147934 0.06105532 0.06081221
 0.06076501 0.06090859 0.06132084 0.0619612 0.06244298 0.06230983 0.06160833 0.06091837 0.06070623 0.06087686
 0.06104577 0.06098493 0.06068975 0.06029485 0.060122 0.06059409 0.06181785 0.06324047 0.06384801 0.06280391
 0.06004591 0.05648378 0.05366951 0.05296473 0.05457732 0.05728029 0.05933096 0.0598616 0.05929994 0.058494
 0.05780363 0.05719707 0.05682712 0.05706931 0.05799566 0.05901639 0.05917605 0.05796421 0.05592597 0.054287
 0.05384035 0.05444346 0.05566073 0.05723814 0.05843863 0.05767015 0.05405118 0.04938402 0.04734745 0.04999946
 0.05558289 0.06025315 0.0615022 0.05954639 0.05618976 0.05332666 0.05224538 0.05328522 0.05576502 0.05855463
 0.06076551 0.06179012 0.06115222 0.05892036 0.05610496 0.05416097 0.05409583 0.05608435 0.05942823 0.06260277
 0.06395098 0.0629185 0.06042573 0.05788996 0.05628822 0.0561664 0.05778076 0.06081917 0.06439097 0.06755232
 0.06969044 0.07056531 0.07035347 0.06954585 0.06857793 0.06775238 0.06749676 0.0680992 0.06901591 0.06908317
 0.06778911 0.06596464 0.06493077 0.06513588 0.06580075 0.06586355 0.06505106 0.06369187 0.06165924 0.05837554
 0.05412541 0.05038455 0.04834376 0.04801154 0.04910084 0.05149063 0.05418498 0.0552422 0.05388867 0.05187789
 0.05174037 0.0540918 0.05731914 0.05957606 0.06049802 0.06108733 0.06241016 0.06449306 0.06617298 0.06596622
 0.06353924 0.06054141 0.05943915 0.06109484 0.06394356 0.06592961 0.06668101 0.06727277 0.06835309 0.06914005
 0.06823333 0.06527022 0.06182141 0.0604214 0.06235873 0.06638561 0.06962056 0.06967328 0.06625195 0.06124707
 0.05726486 0.05582132 0.05692255 0.06004518 0.06471789 0.07001321 0.07431538 0.07621495 0.07552554 0.07321697
 0.0703105 0.06693047 0.06282295 0.05892344 0.05755574 0.06023282 0.06571414 0.07103895 0.07416785 0.07499622
 0.07419494 0.07194416 0.06813551 0.06362072 0.06062244 0.06100713 0.06404303 0.06681772 0.06729133 0.06615257
 0.06531874 0.06552948 0.06607237 0.06627563 0.06646995 0.06743878 0.06931167 0.07127662 0.07237501 0.07237342
 0.07179993 0.07132526 0.0711505 0.07086041 0.07001295 0.06903854 0.06917223 0.07109472 0.07398631 0.07636715
 0.07757527 0.07799548 0.07806492 0.07751787 0.07577324 0.07302291 0.07068245 0.07034022 0.072217 0.07502536
 0.07731112 0.07850313 0.07877441 0.07851011 0.07804729 0.07756951 0.07716237 0.07704343 0.0775079 0.078501
 0.07952452 0.08013575 0.08030604 0.08019193 0.07982422 0.07918464 0.07843536 0.07791227 0.07788283 0.07834709
 0.07908604 0.07985826 0.0804814 0.08078744 0.08068086 0.0802768 0.07983732 0.07953306 0.07937735 0.07938264
 0.07961758 0.08006683 0.08056228 0.08092178 0.08109232 0.08112453 0.08106805 0.08093683 0.08074945 0.08057183
 0.08051045 0.08063509 0.08089218 0.08114406 0.08133122 0.0815316 0.08180049 0.082027 0.08204806 0.08186448
 0.08165188 0.08157183 0.08164085 0.08177257 0.08187321 0.08186719 0.08168837 0.08133599 0.08095501 0.08078308
 0.08096395 0.08144647 0.0820715 0.08268284 0.08314876 0.08339003 0.0834413 0.08341501 0.08337219 0.08327986
 0.08310714 0.08291799 0.08285341 0.08302538 0.08341379 0.08387031 0.08423738 0.08445075 0.08453713 0.08457606
 0.08466908 0.08486113 0.08506539 0.08514094 0.0850695 0.08498874 0.08502667 0.08515691 0.08524583 0.08521366
 0.08512315 0.08510993 0.08524072 0.08545804 0.0856615 0.08581678 0.08597151 0.08617362 0.08638305 0.08648171
 0.08639625 0.08619741 0.08603208 0.08596718 0.08596165 0.08598699 0.08608906 0.08629553 0.0865279 0.08666651
 0.08668405 0.08666853 0.0867096 0.08679268 0.08682183 0.08673046 0.08654916 0.0863738 0.08628793 0.08631079
 0.08639514 0.08646423 0.08646262 0.0863869 0.08627534 0.08616962 0.08608982 0.08604974 0.0860863 0.08624168
 0.08649245 0.08671392 0.08675733 0.08658354 0.0863096 0.08610706 0.08604996 0.08606305 0.08601226 0.08583408
 0.08557552 0.08532783 0.08514437 0.08501892 0.08491921 0.08482893 0.08476956 0.08478926 0.08491084 0.08507374
 0.08514851 0.08504358 0.08479549 0.08453186 0.08435568 0.08428577 0.08428258 0.08429361 0.08429062 0.08429486
 0.0843467 0.08443125 0.08447017 0.08441423 0.08430897 0.08424842 0.08429784 0.08446436 0.08468899 0.08485666
 0.08487391 0.08476408 0.08464956 0.08462647 0.0846891 0.08478005 0.08486914 0.08496086 0.0850585 0.08515762
 0.08527024 0.08542861 0.08565295 0.08592091 0.08617391 0.0863575 0.08646548 0.08655238 0.08669695 0.08694069
 0.08725549 0.08756891 0.08782275 0.0880139 0.08818336 0.08836563 0.0885592 0.0887554 0.08897755 0.08925994
 0.08959472 0.08993165 0.09023216 0.09050015 0.09076013 0.09102836 0.09131036 0.09161573 0.09196766 0.09238356
 0.09283178 0.09322383 0.0934815 0.09361556 0.09372453 0.09391956 0.09424779 0.09465604 0.09501472 0.09521846
 0.09529489 0.0953852 0.09558887 0.09586164 0.09610445 0.09631746 0.09660466 0.09702843 0.09751239 0.09791055
 0.09814885 0.09828101 0.0984154 0.0986011 0.09879117 0.0989176 0.09898588 0.0990686 0.09921195 0.0993953
 0.09959857 0.0998574 0.1002091 0.1006165 0.1009925 0.1012854 0.1015044 0.1016782 0.1018195 0.1019205
 0.1019639 0.1019536 0.1019413 0.1019901 0.102101 0.1022065 0.1022583 0.1022877 0.1023611 0.1025087
 0.102724 0.1029971 0.1033067 0.1036018 0.1038465 0.1040826 0.1043924 0.1047774 0.1051199 0.1053071
 0.1053551 0.1053667 0.1053993 0.1054414 0.1055008 0.1056356 0.1058812 0.1062001 0.1065306 0.1068534
 0.1071883 0.107544 0.1078857 0.1081458 0.1082693 0.1082623 0.1082 0.1081852 0.1082893 0.1085209
 0.1088326 0.1091551 0.1094331 0.1096333 0.1097304 0.1097161 0.1096406 0.1096121 0.1097123 0.109906
 0.1100603 0.1100553 0.1098582 0.1094959 0.1089966 0.1083833 0.1077064 0.1070516 0.1065027 0.1061033
 0.1058653 0.1058119 0.1059922 0.1064295 0.1070612 0.107757 0.1083983 0.1089113 0.1092257 0.1092546
 0.1089566 0.1083918 0.1076868 0.1069573 0.1062732 0.1056572 0.1050863 0.1045259 0.1040103 0.1036836
 0.1037325 0.1042738 0.105297 0.1066751 0.1082028 0.1096567 0.1108827 0.1118554 0.1126517 0.1133614
 0.1140302 0.1146778 0.1153292 0.1159935 0.1166317 0.1171892 0.1176593 0.1180848 0.1184986 0.1188921
 0.1192389 0.1195229 0.1197509 0.1199549 0.1201648 0.1203593 0.1204708 0.1204601 0.1203628 0.1202415
 0.120114 0.1199458 0.11969 0.1193249 0.118886 0.1184905 0.1183177 0.1185323 0.1191941 0.1202254
 0.1214687 0.12278 0.1240642 0.1252351 0.126191 0.1268705 0.1273093 0.1276126 0.1278757 0.1281466
 0.1284397 0.1287518 0.129066 0.1293638 0.1296417 0.1299164 0.1302151 0.1305522 0.1309056 0.1312228
 0.1314717 0.1316841 0.1319369 0.1322787 0.1326793 0.1330626 0.1333897 0.1336913 0.1340088 0.1343248
 0.134584 0.1347709 0.1349335 0.1351345 0.1354077 0.1357517 0.1361289 0.1364709 0.1367231 0.1368946
 0.1370457 0.1372284 0.137453 0.137705 0.1379698 0.1382359 0.1384955 0.1387534 0.1390283 0.1393271
 0.1396205 0.1398582 0.1400206 0.1401448 0.1402914 0.140488 0.140713 0.1409303 0.1411316 0.1413455
 0.1416068 0.1419147 0.1422248 0.142484 0.1426718 0.1428087 0.1429318 0.1430707 0.1432399 0.1434406
 0.1436629 0.1438896 0.1441077 0.1443173 0.1445282 0.1447444 0.1449593 0.1451654 0.1453641 0.1455627
 0.1457668 0.145977 0.1461946 0.146429 0.1466927 0.1469805 0.1472587 0.1474894 0.1476648 0.1478086
 0.1479473 0.1480937 0.1482516 0.1484231 0.1486089 0.1488078 0.1490161 0.1492277 0.1494362 0.1496388
 0.1498367 0.1500329 0.1502316 0.1504361 0.1506476 0.150867 0.1510949 0.151327 0.1515537 0.1517666
 0.1519641 0.1521519 0.15234 0.1525358 0.1527361 0.1529313 0.153119 0.1533061 0.1534975 0.1536905
 0.1538835 0.15408 0.1542812 0.1544808 0.1546711 0.1548514 0.1550289 0.1552119 0.1554032 0.155601
 0.1558015 0.1560014 0.1561995 0.1563984 0.1566008 0.1568031 0.1569994 0.1571903 0.1573833 0.1575821
 0.1577821 0.1579785 0.1581736 0.1583734 0.1585791 0.1587845 0.1589844 0.1591814 0.1593789 0.1595736
 0.1597617 0.1599489 0.1601434 0.1603464 0.1605536 0.1607649 0.1609826 0.1612058 0.1614294 0.1616467
 0.1618546 0.162058 0.1622661 0.1624829 0.1627059 0.162931 0.1631555 0.1633762 0.1635898 0.163793
 0.163981 0.1641539 0.1643196 0.1644849 0.1646492 0.1648136 0.164985 0.1651682 0.1653612 0.1655598
 0.1657595 0.1659549 0.166145 0.1663365 0.1665367 0.1667463 0.1669601 0.1671708 0.1673753 0.1675791
 0.1677865 0.1679915 0.1681874 0.16838 0.1685799 0.1687876 0.168997 0.1692047 0.1694094 0.1696134
 0.1698231 0.1700413 0.1702619 0.1704791 0.1706929 0.1709027 0.1711064 0.1713053 0.171502 0.1716984
 0.1719001 0.1721123 0.1723318 0.1725513 0.172769 0.1729834 0.173192 0.1734003 0.1736162 0.1738353
 0.1740486 0.1742576 0.1744668 0.174675 0.1748825 0.1750945 0.1753122 0.1755346 0.175761 0.1759818
 0.1761855 0.1763771 0.1765693 0.176752 0.1768777 0.1768288 0.1763261 0.174822 0.1714815 0.1653425
 0.1556988 0.1425472 0.1267447 0.1097036 0.09286989 0.07734739 0.06379122 0.05248991 0.04350186 0.03674667
 0.03206905 0.02933576 0.028531 0.02985953 0.03386808 0.04112499 0.05098343 0.06048132 0.06549299 0.06398901
 0.05797665 0.05166881 0.04798241 0.04713053 0.04787927 0.04917497 0.05067734 0.05256211 0.05514595 0.0585249
 0.06255324 0.067231 0.07289252 0.07977948 0.08753224 0.09534028 0.1026348 0.1095311 0.1165539 0.1239995
 0.131617 0.1388518 0.1452887 0.150858 0.1557384 0.1601584 0.1642708 0.1681504 0.1718448 0.1753633
 0.1785834 0.1812191 0.1829658 0.1837328 0.1837478 0.1834254 0.1831231 0.1830047 0.1830874 0.1833484
 0.1837687 0.1843263 0.1849961 0.1857529 0.1865661 0.1874017 0.1882334 0.1890414 0.1898099 0.1905327
 0.1912107 0.1918388 0.1924072 0.1929158 0.1933755 0.1937964 0.1941849 0.194549 0.1948992 0.1952467
 0.195597 0.1959407 0.1962556 0.196526 0.1967571 0.19697 0.1971853 0.1974092 0.1976317 0.1978409
 0.1980381 0.1982339 0.1984336 0.198636 0.1988405 0.1990467 0.1992509 0.1994507 0.1996479 0.1998419
 0.2000298 0.2002138 0.2004021 0.2005998 0.2008051 0.201011 0.2012092 0.2013961 0.2015771 0.2017625
 0.2019588 0.2021639 0.2023692 0.2025656 0.2027549 0.2029517 0.2031677 0.2033958 0.2036176 0.2038237
 0.204019 0.2042147 0.2044205 0.2046374 0.2048504 0.2050381 0.2051962 0.2053457 0.2055169 0.2057246
 0.205957 0.2061873 0.2063981 0.2065942 0.2067888 0.2069856 0.2071779 0.2073578 0.2075279 0.2077101
 0.2079294 0.2081822 0.2084359 0.2086721 0.2089034 0.2091418 0.2093805 0.2096128 0.2098376 0.210041
 0.2102037 0.2103393 0.2105048 0.2107575 0.211098 0.2114615 0.2117742 0.2120183 0.2122312 0.2124597
 0.2127278 0.213015 0.2132372 0.2133046 0.2132547 0.2132755 0.2135338 0.2140107 0.2145472 0.2150086
 0.2153651 0.2156525 0.2159054 0.2161215 0.2162652 0.216311 0.2163043 0.2163753 0.2166486 0.2171141
 0.2176234 0.2180406 0.2183488 0.2185934 0.2188033 0.2189876 0.2191084 0.2190387 0.2186971 0.2182805
 0.2182083 0.2187192 0.2196034 0.2204266 0.2209576 0.2212831 0.2215626 0.2218316 0.2220498 0.2221364
 0.2218747 0.2210388 0.2198409 0.2190499 0.2193527 0.2206618 0.2222554 0.2235003 0.2242448 0.2246487
 0.2249073 0.225125 0.2252356 0.2250076 0.2243056 0.2234353 0.2230621 0.2235971 0.2247358 0.2257848
 0.22637 0.2266297 0.2268408 0.2271135 0.227316 0.2270261 0.2257658 0.2237024 0.2220055 0.222021
 0.2239523 0.2266203 0.2286364 0.2295965 0.2299689 0.2300732 0.2296145 0.2282194 0.2259893 0.2234513
 0.2214173 0.2208993 0.2224331 0.2252137 0.2275493 0.2285366 0.2288253 0.2295214 0.2308614 0.2322071
 0.2328888 0.2327317 0.2319373 0.2307092 0.2291574 0.2276632 0.2270863 0.2281455 0.2305477 0.2331029
 0.2348275 0.2356885 0.2360801 0.2356721 0.2331832 0.2279311 0.221756 0.2184968 0.2205928 0.2265286
 0.2324601 0.2359891 0.2374633 0.2381625 0.2385961 0.2383681 0.236389 0.231454 0.2241265 0.2179514
 0.2170613 0.2220776 0.2294034 0.2345915 0.2353927 0.231995 0.2262041 0.2208888 0.2188097 0.220954
 0.2261168 0.2320913 0.2369846 0.2397296 0.2400805 0.2385139 0.2361849 0.2346418 0.2347076 0.2352565
 0.2340672 0.2306319 0.2270088 0.2247917 0.2226228 0.2186867 0.2147195 0.2148618 0.2202919 0.2272587
 0.231301 0.2317738 0.231019 0.230083 0.2268876 0.2191973 0.2088443 0.2017794 0.2028625 0.2108197
 0.2193989 0.2235116 0.2232739 0.2221137 0.222198 0.2222327 0.2192765 0.2125822 0.2054968 0.2026345
 0.2049487 0.2088711 0.2105059 0.2087107 0.2036852 0.1957388 0.1875745 0.1850517 0.192212 0.2063058
 0.2199739 0.2273085 0.2259537 0.2157203 0.199457 0.1848589 0.1807078 0.1889662 0.2023822 0.2111845
 0.210811 0.2026273 0.1897676 0.175081 0.1625319 0.1574711 0.1633827 0.1784119 0.1954746 0.2057186
 0.203351 0.1901908 0.1761968 0.1722733 0.1802572 0.1916296 0.1970862 0.1950044 0.1900074 0.1870384
 0.1885481 0.1941328 0.200942 0.206337 0.2099813 0.2107692 0.2039555 0.1868488 0.1663261 0.154319
 0.1554216 0.164469 0.1760843 0.1895327 0.2026152 0.2083185 0.202736 0.1925252 0.1892873 0.1972487
 0.2096283 0.2169466 0.2164147 0.2124636 0.2098677 0.2086443 0.2064434 0.2040739 0.2056811 0.2130525
 0.2225063 0.2289944 0.2313393 0.2317942 0.2322085 0.2326195 0.2325413 0.2318076 0.2304862 0.2289876
 0.2279465 0.2275042 0.2271769 0.2265995 0.2254816 0.2224352 0.2152738 0.2040777 0.1931691 0.1876977
 0.1881746 0.1907907 0.1930696 0.1953043 0.1952847 0.186843 0.1680114 0.1476792 0.1391298 0.1472145
 0.1647389 0.1806387 0.1884572 0.1868941 0.1764646 0.1596529 0.1435589 0.1377279 0.1463853 0.1643656
 0.1826063 0.1959597 0.2038679 0.2060641 0.2015231 0.1914833 0.1807525 0.1749995 0.1772557 0.1865227
 0.1981524 0.2051353 0.2015048 0.1882034 0.1757218 0.1764362 0.1916706 0.2095608 0.2183915 0.2184861
 0.2176023 0.2188646 0.2191415 0.2174174 0.2182304 0.2253938 0.2363539 0.2447037 0.245809 0.2386333
 0.2251642 0.2109199 0.2035293 0.2065771 0.2154651 0.22237 0.2238099 0.2201855 0.2111439 0.1975418
 0.186398 0.1866772 0.1988996 0.2139421 0.2234077 0.2272717 0.230092 0.2331559 0.2329388 0.2264809
 0.2163706 0.2091587 0.2088798 0.21351 0.2183663 0.221047 0.2214383 0.2188867 0.2126158 0.2049287
 0.2012331 0.2053121 0.2153731 0.2257085 0.2317915 0.2330888 0.2316837 0.2295893 0.2274202 0.2245754
 0.2205617 0.2167141 0.2159542 0.2196769 0.2255379 0.2298604 0.2318523 0.2338925 0.2378013 0.2423421
 0.2447312 0.2436743 0.2405882 0.2383473 0.2389621 0.2419872 0.2448683 0.2451329 0.2427429 0.240349
 0.240851 0.2446353 0.2495247 0.2532493 0.2552942 0.2564366 0.2574182 0.2582986 0.2584189 0.2569055
 0.2539009 0.2512806 0.251319 0.2544316 0.2587802 0.2621741 0.2638407 0.2643028 0.2641755 0.2635266
 0.2622309 0.2605481 0.2591361 0.2585322 0.2587656 0.2594919 0.2603508 0.2611248 0.2617142 0.262114
 0.2623844 0.2625754 0.2627016 0.2627899 0.2628723 0.2629207 0.2628764 0.2627804 0.2627862 0.2629868
 0.2632864 0.2634982 0.2635097 0.2632828 0.2627559 0.2618613 0.2606393 0.2592254 0.2576905 0.2559987
 0.2542285 0.2528003 0.2523405 0.2532158 0.2551973 0.2576026 0.2597547 0.2613135 0.262274 0.2627872
 0.2630225 0.2631124 0.2631322 0.2630963 0.2629843 0.2627777 0.2624807 0.2621207 0.2617363 0.261363
 0.2610233 0.2607226 0.2604434 0.2601475 0.2597944 0.2593677 0.2588832 0.2583719 0.2578532 0.2573131
 0.2567042 0.2559721 0.2550972 0.2541222 0.2531392 0.2522376 0.2514433 0.2507067 0.2499555 0.249151
 0.2482747 0.2472884 0.246166 0.2449785 0.2438892 0.2430232 0.2423555 0.2417496 0.2410804 0.2402975
 0.2394052 0.2384292 0.2374014 0.2363463 0.2352689 0.2341579 0.232994 0.2317534 0.2304177 0.2289884
 0.2274825 0.2259174 0.2243105 0.222679 0.2210135 0.2192461 0.217258 0.2149192 0.2121209 0.2087857
 0.2048806 0.2004449 0.1956161 0.1906131 0.1856711 0.1809754 0.1766471 0.1727746 0.1694404 0.16672
 0.1646676 0.1633066 0.1626385 0.1626642 0.1633883 0.1647893 0.1667896 0.1692611 0.1720546 0.175016
 0.1779857 0.18081 0.1833866 0.1857139 0.1878753 0.1899457 0.1919148 0.1937171 0.1953112 0.1967013
 0.1979005 0.198913 0.1997503 0.2004417 0.2010209 0.2015134 0.2019356 0.2023002 0.2026175 0.2028903
 0.2031173 0.2033087 0.2034908 0.2036873 0.2039044 0.2041381 0.2043896 0.2046742 0.2050205 0.2054521
 0.2059605 0.2065086 0.207071 0.2076559 0.2082836 0.208964 0.209705 0.2105291 0.2114714 0.2125648
 0.2138185 0.2151977 0.2166214 0.2179835 0.2191865 0.2201675 0.220905 0.2214083 0.2217015 0.2218151
 0.2217762 0.2216007 0.2213023 0.2209058 0.2204409 0.2199228 0.2193531 0.2187375 0.2180886 0.2174153
 0.2167208 0.2160158 0.2153187 0.2146403 0.2139742 0.2133134 0.2126707 0.2120671 0.2115014 0.2109463
 0.2103782 0.2097954 0.2092065 0.2086185 0.2080361 0.2074489 0.2068171 0.2060935 0.2052669 0.2043616
 0.2033916 0.2023349 0.2011647 0.1998828 0.1985129 0.1970709 0.1955565 0.1939682 0.192316 0.19061
 0.1888371 0.186962 0.1849715 0.1829187 0.1809087 0.1790338 0.1773241 0.1757516 0.1742707 0.17286
 0.1715278 0.1702765 0.169077 0.1678979 0.1667465 0.165657 0.1646472 0.1637093 0.1628344 0.1620276
 0.1613049 0.1606798 0.1601491 0.1596924 0.1592901 0.1589392 0.1586578 0.1584783 0.1584214 0.1584612
 0.1585268 0.1585485 0.1584961 0.1583814 0.1582448 0.1581318 0.1580615 0.1580203 0.157984 0.1579223
 0.1577787 0.1574682 0.1569005 0.156009 0.1547805 0.1532649 0.1515452 0.1497089 0.1478632 0.1461429
 0.1446665 0.1434958 0.1426335 0.1420246 0.1415688 0.1411806 0.1408519 0.1406436 0.1406243 0.140798
 0.1410582 0.1412445 0.1412932 0.1413101 0.1414674 0.1418642 0.1424868 0.1432383 0.1439912 0.144655
 0.1451999 0.145613 0.1458799 0.1460152 0.1460551 0.1460152 0.1458951 0.1457048 0.1454551 0.1451505
 0.1448001 0.1443979 0.1439113 0.1433243 0.1426544 0.1419117 0.141091 0.1401937 0.1391953 0.1380444
 0.1367889 0.1356589 0.1349487 0.1348351 0.1352986 0.1361489 0.1371498 0.1381743 0.1391728 0.1399751
 0.1403306 0.1402997 0.1404617 0.1415023 0.1435544 0.1460399 0.1481824 0.1495869 0.1502849 0.1504018
 0.149988 0.1490747 0.1476648 0.1457055 0.1432158 0.1403555 0.1372921 0.1341485 0.1311015 0.128349
 0.125992 0.1240628 0.1225778 0.121583 0.1212014 0.1210492 0.1192137 0.1132469 0.1039356 0.09697872
 0.09818177 0.1069222 0.1165874 0.1215548 0.1216687 0.1199417 0.1184673 0.1175564 0.1170727 0.1171388
 0.1178883 0.1191874 0.1206451 0.1218464 0.1226137 0.1229865 0.1229333 0.1220965 0.1197322 0.1149848
 0.1075832 0.09842281 0.08925258 0.08165902 0.0763509 0.0731893 0.0715591 0.07073112 0.07020675 0.06994016
 0.07022832 0.07135357 0.0733467 0.07605562 0.07929121 0.08278761 0.0861266 0.08891767 0.09107578 0.0927815
 0.09416404 0.09515361 0.09564041 0.09564137 0.09527712 0.09467626 0.09394252 0.09314649 0.09227936 0.09125137
 0.09003735 0.08882849 0.08792889 0.08747154 0.08733006 0.0873117 0.08731928 0.0873248 0.0873142 0.08728912
 0.08726308 0.08726822 0.08738414 0.08769095 0.08815856 0.08863609 0.08897117 0.08911948 0.08914465 0.08909885
 0.08889206 0.08837734 0.08762927 0.08696204 0.08650864 0.08595717 0.08494748 0.08362719 0.08257183 0.0821843
 0.08235243 0.08267106 0.0828231 0.08272935 0.08251566 0.08244471 0.08274563 0.08334313 0.08381993 0.08379871
</values></Ydata></ScRf><Data_Parameters_AB><parameter name="DPF">1</parameter><parameter name="NPT">3497</parameter><parameter name="FXV">3996</parameter><parameter name="LXV">500</parameter><parameter name="CSF">1</parameter><parameter name="MXY">0.105815812945366</parameter><parameter name="MNY">-0.0224388316273689</parameter><parameter name="DAT">27/05/2022</parameter><parameter name="TIM">11:51:43.732 (GMT+2)</parameter><parameter name="DXU">WN</parameter></Data_Parameters_AB><AB__Qtest><MainReport name="Quality Test Report"><Header><Line><Legend>Test result ok/not ok [1/0]: </Legend><Value>0</Value></Line><Line><Legend>Method file: </Legend><Value>C:\Users\Public\Documents\Bruker\OPUS_8.2.28\QT\IRBT_v3_default.QT</Value></Line></Header><Matrix><Line><Legend></Legend><Legend>min</Legend><Legend>max</Legend><Legend>measured</Legend></Line><Line><Value>Absorption (X-Range 1):</Value><Value>0.400000</Value><Value>2.000000</Value><Value>0.096331</Value></Line><Line><Value>Noise (X-Range 4):</Value><Value></Value><Value>0.000300</Value><Value>0.000037</Value></Line><Line><Value>Signal/Noise (X-Range 2):</Value><Value>200.000000</Value><Value></Value><Value>54.088734</Value></Line><Line><Value>Signal/Noise (X-Range 3):</Value><Value>40.000000</Value><Value></Value><Value>35.393691</Value></Line><Line><Value>Water vapour (X-Range 5):</Value><Value></Value><Value>0.000300</Value><Value>0.000076</Value></Line><Line><Value>Signal/Water (X-Range 2):</Value><Value>100.000000</Value><Value></Value><Value>25.932660</Value></Line><Line><Value>Signal/Water (X-Range 3):</Value><Value>20.000000</Value><Value></Value><Value>16.969385</Value></Line><Line><Value>Fringes (X-Range 6):</Value><Value></Value><Value>0.000100</Value><Value>0.000067</Value></Line></Matrix></MainReport></AB__Qtest><Data_Parameters_ScSm><parameter name="DPF">1</parameter><parameter name="NPT">1814</parameter><parameter name="FXV">3996.33169228125</parameter><parameter name="LXV">499.541461535156</parameter><parameter name="CSF">1</parameter><parameter name="MXY">0.242809414863586</parameter><parameter name="MNY">0.0298946853727102</parameter><parameter name="DAT">27/05/2022</parameter><parameter name="TIM">11:51:43.732 (GMT+2)</parameter><parameter name="DXU">WN</parameter></Data_Parameters_ScSm><Data_Parameters_ScRf><parameter name="DPF">1</parameter><parameter name="NPT">1820</parameter><parameter name="FXV">4004.04661832813</parameter><parameter name="LXV">495.683998511719</parameter><parameter name="CSF">1</parameter><parameter name="MXY">0.26430281996727</parameter><parameter name="MNY">0.0285309962928295</parameter><parameter name="DAT">27/05/2022</parameter><parameter name="TIM">11:51:17.881 (GMT+2)</parameter><parameter name="DXU">WN</parameter></Data_Parameters_ScRf><Optic_Parameters_Rf><parameter name="APR">0</parameter><parameter name="APT">Open</parameter><parameter name="BMS">KBr</parameter><parameter name="DTC">RT-DLaTGS_IR-Biotyper [Microplate reader]</parameter><parameter name="HPF">0</parameter><parameter name="LPF">10.0</parameter><parameter name="LPV">4000</parameter><parameter name="PGR">0</parameter><parameter name="RCH">Module port</parameter><parameter name="RDX">0</parameter><parameter name="SRC">MIR</parameter><parameter name="VEL">10.0</parameter><parameter name="SON">Off</parameter></Optic_Parameters_Rf><Acquisition_Parameters_Rf><parameter name="ADT">1</parameter><parameter name="AQM">DD</parameter><parameter name="CFE">0</parameter><parameter name="COR">0</parameter><parameter name="DEL">0</parameter><parameter name="DLY">0</parameter><parameter name="HFW">8000</parameter><parameter name="LFW">0</parameter><parameter name="NSR">32</parameter><parameter name="PLF">AB</parameter><parameter name="RES">6</parameter><parameter name="RGN">-1</parameter><parameter name="STR">0</parameter><parameter name="TCL">MakeCompatibleScalar (0, {WSV=1.000000, ARV=0});</parameter><parameter name="TDL">37</parameter><parameter name="RPO">0</parameter></Acquisition_Parameters_Rf><FT_-_Parameters_Rf><parameter name="APF">B3</parameter><parameter name="HFQ">500</parameter><parameter name="LFQ">4000</parameter><parameter name="NLI">0</parameter><parameter name="PHR">24</parameter><parameter name="PHZ">ML</parameter><parameter name="SPZ">NO</parameter><parameter name="ZFF">1</parameter></FT_-_Parameters_Rf><Optic_Parameters_><parameter name="APR">0</parameter><parameter name="APT">Open</parameter><parameter name="BMS">KBr</parameter><parameter name="CHN">Module port</parameter><parameter name="DTC">RT-DLaTGS_IR-Biotyper [Microplate reader]</parameter><parameter name="HPF">0</parameter><parameter name="LPF">10.0</parameter><parameter name="LPV">4000</parameter><parameter name="PGN">0</parameter><parameter name="RDX">0</parameter><parameter name="SRC">MIR</parameter><parameter name="VEL">10.0</parameter><parameter name="SON">Off</parameter></Optic_Parameters_><FT_-_Parameters_><parameter name="APF">B3</parameter><parameter name="HFQ">500</parameter><parameter name="LFQ">4000</parameter><parameter name="NLI">0</parameter><parameter name="PHR">24</parameter><parameter name="PHZ">ML</parameter><parameter name="SPZ">NO</parameter><parameter name="ZFF">1</parameter></FT_-_Parameters_><Acquisition_Parameters_><parameter name="ADT">1</parameter><parameter name="AQM">DD</parameter><parameter name="CFE">0</parameter><parameter name="COR">0</parameter><parameter name="DEL">0</parameter><parameter name="DLY">0</parameter><parameter name="HFW">8000</parameter><parameter name="LFW">0</parameter><parameter name="NSS">32</parameter><parameter name="PLF">AB</parameter><parameter name="RES">6</parameter><parameter name="SOT">0</parameter><parameter name="TCL">MakeCompatibleScalar (0, {WSV=1.000000, ARV=0});</parameter><parameter name="TDL">37</parameter><parameter name="SPO">0</parameter><parameter name="SGN">-1</parameter></Acquisition_Parameters_><Instrument_Parameters_Rf><parameter name="HFL">15800.168544</parameter><parameter name="LFL">0</parameter><parameter name="LWN">15800.168544</parameter><parameter name="ABP">32197</parameter><parameter name="SSP">1</parameter><parameter name="ARG">2</parameter><parameter name="ASG">2</parameter><parameter name="ASS">32</parameter><parameter name="GFW">16</parameter><parameter name="GBW">16</parameter><parameter name="BFW">0</parameter><parameter name="BBW">0</parameter><parameter name="PKA">7264</parameter><parameter name="PKL">4996</parameter><parameter name="PRA">7446</parameter><parameter name="PRL">5001</parameter><parameter name="P2A">1</parameter><parameter name="P2L">1</parameter><parameter name="P2R">1</parameter><parameter name="P2K">1</parameter><parameter name="DAQ">0</parameter><parameter name="AG2">1</parameter><parameter name="SSM">1</parameter><parameter name="RSN">24900</parameter><parameter name="CRR">0</parameter><parameter name="SRT">1653652277.882</parameter><parameter name="DUR">19.635986328125</parameter><parameter name="TSC">27.8</parameter><parameter name="MVD">0.260772526264191</parameter><parameter name="AN1">0.225794500356179</parameter><parameter name="AN2">0</parameter><parameter name="VSN">2.485 Apr  4 2017</parameter><parameter name="SRN">0085</parameter><parameter name="CAM">0</parameter><parameter name="INS">IR-Biotyper</parameter><parameter name="FOC">69</parameter><parameter name="RDY">1</parameter><parameter name="ARS">32</parameter></Instrument_Parameters_Rf><Sample_Parameters_><parameter name="BLD"></parameter><parameter name="CNM">Admin</parameter><parameter name="CPY"></parameter><parameter name="DPM"></parameter><parameter name="EXP">IRBT_v3_32Scans.XPM</parameter><parameter name="LCT"></parameter><parameter name="SFM">Microplate, HTS-XT</parameter><parameter name="SNM">220527-1039(v.2)_CLA33F (D_6)_B7_1d068101-a430-4e03-8bd1-810766368261.0</parameter><parameter name="XPP">C:\Users\Public\Documents\Bruker\OPUS_8.2.28\XPM</parameter><parameter name="IST">OK</parameter><parameter name="CPG">1252</parameter><parameter name="UID">c90956ec-2d6c-4417-8470-5334f52697fb</parameter></Sample_Parameters_><Instrument_Parameters_><parameter name="HFL">15800.168544</parameter><parameter name="LFL">0</parameter><parameter name="LWN">15800.168544</parameter><parameter name="ABP">32197</parameter><parameter name="SSP">1</parameter><parameter name="ASG">2</parameter><parameter name="ARG">2</parameter><parameter name="ASS">32</parameter><parameter name="GFW">16</parameter><parameter name="GBW">16</parameter><parameter name="BFW">0</parameter><parameter name="BBW">0</parameter><parameter name="PKA">6826</parameter><parameter name="PKL">4988</parameter><parameter name="PRA">7085</parameter><parameter name="PRL">4993</parameter><parameter name="P2A">1</parameter><parameter name="P2L">1</parameter><parameter name="P2R">1</parameter><parameter name="P2K">1</parameter><parameter name="DAQ">0</parameter><parameter name="AG2">1</parameter><parameter name="SSM">1</parameter><parameter name="RSN">13076</parameter><parameter name="CRR">0</parameter><parameter name="SRT">1653652303.732</parameter><parameter name="DUR">19.6349945068359</parameter><parameter name="TSC">27.8</parameter><parameter name="MVD">0.201341331005096</parameter><parameter name="AN1">0.225780775197551</parameter><parameter name="AN2">0</parameter><parameter name="VSN">2.485 Apr  4 2017</parameter><parameter name="SRN">0085</parameter><parameter name="CAM">0</parameter><parameter name="INS">IR-Biotyper</parameter><parameter name="FOC">69</parameter><parameter name="RDY">1</parameter></Instrument_Parameters_><History/></OPUSDataFile>
