<?xml version="1.0" encoding="UTF-8" ?>
<OPUSDataFile><AB><Ydata ylabel="Absorbance Units"><values byteorder="INTEL" format="FLOAT32" numvalues="3497"> -0.09576822 -0.09590182 -0.09601282 -0.09610165 -0.09616069 -0.09618961 -0.09619851 -0.09618852 -0.09617622 -0.09616239
 -0.09616037 -0.09616908 -0.09619224 -0.09622757 -0.09627116 -0.09632266 -0.09637932 -0.09644274 -0.09651541 -0.09659317
 -0.09667673 -0.09675207 -0.09681224 -0.09684677 -0.09684675 -0.09682343 -0.09677488 -0.09672872 -0.09668906 -0.09667455
 -0.09668835 -0.09672631 -0.09678833 -0.09685712 -0.09693184 -0.09699719 -0.09705358 -0.09709496 -0.09712321 -0.09714118
 -0.09715155 -0.0971619 -0.09717391 -0.09719413 -0.09722147 -0.09725793 -0.09729988 -0.09734549 -0.09739104 -0.09743433
 -0.09747231 -0.0975039 -0.09752514 -0.09753469 -0.09753098 -0.0975123 -0.09748812 -0.09745838 -0.09744254 -0.09744168
 -0.0974687 -0.09752283 -0.09759714 -0.09768935 -0.09778143 -0.09787349 -0.09795617 -0.09803135 -0.09809931 -0.0981604
 -0.09821438 -0.09826381 -0.09831008 -0.09835956 -0.09841978 -0.09848776 -0.0985681 -0.0986411 -0.09870061 -0.09873209
 -0.09872709 -0.09869917 -0.09864747 -0.09859873 -0.09855577 -0.09853327 -0.09853227 -0.09855321 -0.09859578 -0.09865623
 -0.09873319 -0.09881799 -0.09890695 -0.09898181 -0.09904076 -0.0990677 -0.09906954 -0.09904857 -0.09901688 -0.09898923
 -0.09897393 -0.09898456 -0.09901729 -0.09907769 -0.09914535 -0.0992154 -0.09926625 -0.09928879 -0.0992858 -0.0992535
 -0.09921993 -0.09918717 -0.09918081 -0.09920252 -0.09925219 -0.09932853 -0.09941212 -0.09950177 -0.09958015 -0.09964814
 -0.09969924 -0.09973603 -0.09976035 -0.09977707 -0.09979527 -0.09981795 -0.09985531 -0.09989847 -0.09994597 -0.09998231
 -0.09999526 -0.09998736 -0.0999506 -0.0999176 -0.09989288 -0.09991327 -0.09998748 -0.1001246 -0.1003297 -0.1005649
 -0.100829 -0.1010206 -0.1011368 -0.1011084 -0.100952 -0.100742 -0.1004917 -0.1002932 -0.1001401 -0.100062
 -0.1000486 -0.1000982 -0.1001949 -0.1003239 -0.1004598 -0.1005785 -0.10066 -0.1006803 -0.1006538 -0.1005745
 -0.1004842 -0.1003931 -0.1003276 -0.1002958 -0.1002942 -0.100324 -0.1003703 -0.1004325 -0.1005001 -0.1005728
 -0.1006445 -0.1007151 -0.1007799 -0.1008395 -0.1008945 -0.1009448 -0.1009925 -0.1010337 -0.1010616 -0.1010753
 -0.101067 -0.1010494 -0.1010286 -0.1010206 -0.1010384 -0.1010838 -0.101164 -0.1012628 -0.1013787 -0.1014919
 -0.1015982 -0.1016891 -0.1017633 -0.1018169 -0.1018496 -0.101849 -0.1018148 -0.1017402 -0.1016279 -0.1014922
 -0.1013382 -0.1011923 -0.1010584 -0.1009604 -0.1008979 -0.1008834 -0.1009082 -0.1009702 -0.1010513 -0.101138
 -0.1012115 -0.1012553 -0.1012672 -0.1012382 -0.1011899 -0.1011232 -0.1010705 -0.1010379 -0.1010429 -0.1010897
 -0.1011684 -0.101279 -0.101396 -0.1015178 -0.1016198 -0.101702 -0.1017527 -0.1017754 -0.1017767 -0.1017616
 -0.1017467 -0.1017349 -0.1017395 -0.1017593 -0.1017987 -0.1018544 -0.1019233 -0.102008 -0.1021069 -0.1022303
 -0.1023845 -0.1025656 -0.1027808 -0.1029883 -0.1031845 -0.1033197 -0.1033854 -0.103386 -0.103321 -0.1032257
 -0.103101 -0.1029595 -0.102802 -0.1026381 -0.1024735 -0.1023356 -0.1022295 -0.102185 -0.1021983 -0.1022827
 -0.1024137 -0.1025706 -0.1027206 -0.1028233 -0.1028784 -0.1028691 -0.1028219 -0.1027434 -0.1026546 -0.1025642
 -0.1024748 -0.1023887 -0.1023001 -0.1022075 -0.1021201 -0.1020382 -0.1019859 -0.1019637 -0.1019857 -0.1020487
 -0.1021419 -0.1022573 -0.1023587 -0.1024392 -0.1024557 -0.1024203 -0.1023302 -0.102212 -0.1021025 -0.1020071
 -0.1019494 -0.1019072 -0.1018756 -0.1018293 -0.1017522 -0.1016486 -0.1015118 -0.1013743 -0.1012414 -0.1011328
 -0.1010538 -0.1009873 -0.100933 -0.1008541 -0.1007502 -0.1006099 -0.1004392 -0.1002765 -0.1001244 -0.1000165
 -0.09994457 -0.09990202 -0.09988412 -0.09987787 -0.09988531 -0.09990656 -0.09993581 -0.09997299 -0.09999722 -0.09999639
 -0.0999551 -0.09986124 -0.09972031 -0.09953196 -0.0992999 -0.09902485 -0.09870756 -0.09834661 -0.09796088 -0.09755119
 -0.097146 -0.09674669 -0.09637667 -0.09603699 -0.0957475 -0.09550671 -0.09532285 -0.09518618 -0.09507682 -0.09498186
 -0.09486607 -0.09472839 -0.09455133 -0.09434336 -0.0941073 -0.09384626 -0.09356359 -0.09325826 -0.09292885 -0.09258176
 -0.09221759 -0.09184572 -0.09146769 -0.09109138 -0.0907177 -0.0903537 -0.08999992 -0.08966091 -0.08933688 -0.08903121
 -0.08874391 -0.08847897 -0.08823232 -0.08799313 -0.08774861 -0.08745612 -0.08711216 -0.08667969 -0.08618979 -0.08566598
 -0.08513916 -0.08465096 -0.08419988 -0.08379968 -0.08343254 -0.08309538 -0.08276898 -0.08244733 -0.08211818 -0.08177772
 -0.08142383 -0.08105621 -0.08067062 -0.08026699 -0.07983219 -0.07936601 -0.07886482 -0.07833169 -0.0777889 -0.07723939
 -0.07670894 -0.076195 -0.07570376 -0.07523191 -0.07477566 -0.07433405 -0.07390551 -0.07348613 -0.07307304 -0.07265949
 -0.0722404 -0.07181213 -0.07137306 -0.07091694 -0.07044313 -0.06993929 -0.06940084 -0.06883343 -0.06823409 -0.06764324
 -0.06706333 -0.06653012 -0.06604397 -0.06560128 -0.06519896 -0.06481154 -0.0644366 -0.0640499 -0.063652 -0.06323034
 -0.06279062 -0.06233701 -0.06187653 -0.06142269 -0.06097231 -0.06053139 -0.06008219 -0.0596156 -0.05911768 -0.05857516
 -0.0580023 -0.05739709 -0.05679086 -0.05619009 -0.05561124 -0.0550585 -0.05452529 -0.05401172 -0.0535015 -0.05299411
 -0.05248285 -0.05196866 -0.05145749 -0.05094828 -0.0504408 -0.04993042 -0.0494023 -0.04885694 -0.04828451 -0.04769719
 -0.04710577 -0.0465242 -0.04597133 -0.04544822 -0.04496346 -0.04450587 -0.04407352 -0.04365364 -0.04324186 -0.04283138
 -0.04242013 -0.04200546 -0.04158743 -0.04115865 -0.04071885 -0.04025463 -0.03976567 -0.03924758 -0.03870249 -0.03814564
 -0.03758003 -0.03702788 -0.03648894 -0.03597484 -0.03548174 -0.03500838 -0.03454928 -0.03409626 -0.03364637 -0.03319254
 -0.03273842 -0.03228407 -0.03183389 -0.03139201 -0.03095203 -0.03051391 -0.0300666 -0.02960623 -0.02913649 -0.0286561
 -0.02818242 -0.0277167 -0.02727018 -0.02684302 -0.02643255 -0.026038 -0.02565201 -0.02527398 -0.02489742 -0.02452203
 -0.02414356 -0.02376221 -0.02337615 -0.0229862 -0.02259176 -0.02219637 -0.02180191 -0.02141508 -0.02104206 -0.02068248
 -0.02034059 -0.02000261 -0.01966472 -0.01931909 -0.01896073 -0.01860479 -0.01825248 -0.01791774 -0.01760264 -0.0172905
 -0.0169802 -0.01664352 -0.01628193 -0.01589487 -0.01548787 -0.01508689 -0.01469429 -0.01433183 -0.01399544 -0.01368827
 -0.01340313 -0.01313129 -0.0128678 -0.0126034 -0.01234032 -0.01207609 -0.01181805 -0.01156952 -0.0113333 -0.01111225
 -0.01090075 -0.01069861 -0.01049821 -0.01029855 -0.01009438 -0.009885086 -0.00967056 -0.009450948 -0.009232539 -0.009014991
 -0.008799285 -0.008582193 -0.008348582 -0.008096519 -0.007809083 -0.007494069 -0.00715697 -0.006810812 -0.006477403 -0.006161551
 -0.005877095 -0.005620368 -0.005392471 -0.005191107 -0.005015674 -0.004863909 -0.004736834 -0.00462384 -0.004523896 -0.004423053
 -0.004319001 -0.004206243 -0.004083931 -0.003955275 -0.003820387 -0.003681417 -0.003537976 -0.003387072 -0.003228593 -0.003059528
 -0.002881957 -0.002699429 -0.002516533 -0.00234482 -0.002185987 -0.002049916 -0.001928882 -0.001820928 -0.001712755 -0.001592643
 -0.001459687 -0.001305221 -0.001153052 -0.001006894 -0.0008949646 -0.0008273949 -0.0007990099 -0.0008137759 -0.0008311607 -0.0008481347
 -0.0008368081 -0.0007968348 -0.0007503625 -0.0007007818 -0.0006915332 -0.0007194224 -0.0007945969 -0.0009054295 -0.001021689 -0.001134948
 -0.001210839 -0.001253126 -0.001250031 -0.001215197 -0.001156841 -0.001089115 -0.00102592 -0.0009692283 -0.0009270475 -0.0008831206
 -0.0008348807 -0.0007644649 -0.0006638382 -0.0005455911 -0.0004065993 -0.0002946772 -0.0002131477 -0.0002038334 -0.000267904 -0.0003965197
 -0.0005847601 -0.0007806345 -0.0009820923 -0.00114942 -0.001289612 -0.001404788 -0.001499312 -0.001586857 -0.00165958 -0.001710302
 -0.001736608 -0.001726228 -0.001701991 -0.001672984 -0.001667087 -0.001705399 -0.00178161 -0.001904049 -0.002034156 -0.002165405
 -0.002267427 -0.002332854 -0.002365298 -0.002363231 -0.002356458 -0.002346693 -0.002372454 -0.002434446 -0.002557195 -0.002734876
 -0.00295486 -0.003204022 -0.003434737 -0.003638314 -0.003768642 -0.003836175 -0.003830434 -0.003781057 -0.003712089 -0.003652559
 -0.003633765 -0.003658728 -0.003743112 -0.003857414 -0.003998161 -0.004128345 -0.004238431 -0.004310654 -0.004340489 -0.004327018
 -0.004269919 -0.004166595 -0.004017002 -0.00382158 -0.003583435 -0.003331362 -0.003073808 -0.002869723 -0.002723584 -0.002686293
 -0.002743885 -0.002898677 -0.003117032 -0.003352463 -0.003574135 -0.003727151 -0.003814787 -0.003812669 -0.003765595 -0.003683501
 -0.003623087 -0.003606531 -0.00366281 -0.003807057 -0.004022538 -0.004312696 -0.00462717 -0.004962676 -0.005269689 -0.005545958
 -0.005775312 -0.00595992 -0.006117108 -0.006248851 -0.006375723 -0.00649449 -0.00660582 -0.006705097 -0.006779504 -0.006834527
 -0.006866987 -0.006899669 -0.006951347 -0.007050599 -0.007226888 -0.007485581 -0.00784531 -0.008270156 -0.008758041 -0.009252237
 -0.009739829 -0.01018301 -0.0105728 -0.01090426 -0.01117526 -0.01140205 -0.01158562 -0.01175577 -0.01191441 -0.01209441
 -0.01229346 -0.01251925 -0.01276288 -0.01299758 -0.01322071 -0.01340734 -0.0135744 -0.01373394 -0.01390881 -0.01413204
 -0.01440374 -0.0147422 -0.01511495 -0.01551596 -0.01589892 -0.01624667 -0.01653042 -0.01673537 -0.01687814 -0.01695375
 -0.01702545 -0.01709728 -0.01723521 -0.01744235 -0.01773169 -0.01809859 -0.01849614 -0.01891825 -0.01930623 -0.01966236
 -0.01996116 -0.02021282 -0.0204266 -0.02061287 -0.0207918 -0.02096876 -0.02115751 -0.02135814 -0.02157577 -0.02180609
 -0.02204922 -0.02229763 -0.02254926 -0.02279674 -0.02303724 -0.02327091 -0.02349625 -0.02372436 -0.02395583 -0.0242039
 -0.02446919 -0.02475307 -0.02505443 -0.02536122 -0.02567201 -0.02597248 -0.026263 -0.02653673 -0.02679615 -0.02704287
 -0.0272805 -0.02751471 -0.02774957 -0.02799121 -0.02824328 -0.02851095 -0.02879408 -0.0290956 -0.02940794 -0.02973064
 -0.03005067 -0.03036487 -0.03066484 -0.03094812 -0.03121678 -0.0314705 -0.03171643 -0.03195495 -0.03219252 -0.03242971
 -0.03267518 -0.03292966 -0.0332028 -0.03349265 -0.03379939 -0.03411705 -0.03443203 -0.03474038 -0.03502772 -0.03529901
 -0.03555289 -0.03579877 -0.03604561 -0.03629197 -0.03654395 -0.03678109 -0.03699818 -0.03717669 -0.03730628 -0.03740535
 -0.03747031 -0.0375591 -0.03767627 -0.03787214 -0.03814943 -0.03850292 -0.03892801 -0.03936756 -0.03981579 -0.04020835
 -0.04054812 -0.04080618 -0.04099928 -0.04114727 -0.04127475 -0.04143122 -0.04162698 -0.04190055 -0.04222712 -0.04260628
 -0.04299451 -0.04336543 -0.04370464 -0.04399464 -0.04426318 -0.04451451 -0.04476807 -0.0450327 -0.04527587 -0.04549697
 -0.0456434 -0.04571238 -0.04569907 -0.04560854 -0.04550217 -0.04538811 -0.04534702 -0.04537749 -0.04552226 -0.0457642
 -0.04608883 -0.04647096 -0.04686276 -0.04725108 -0.04759807 -0.04791515 -0.04819725 -0.04846312 -0.04872525 -0.04898112
 -0.04923499 -0.04947068 -0.04968196 -0.04987508 -0.05004763 -0.05022778 -0.05041909 -0.05062571 -0.05084802 -0.05104947
 -0.05122857 -0.05135365 -0.05142998 -0.05147164 -0.05148685 -0.05151433 -0.05155349 -0.05162425 -0.0517173 -0.05182541
 -0.0519433 -0.05205878 -0.05218013 -0.05230621 -0.05245687 -0.05264173 -0.05287702 -0.05317502 -0.05352548 -0.05393468
 -0.05435484 -0.0547821 -0.05515852 -0.05547646 -0.05572025 -0.0558885 -0.05603023 -0.05614962 -0.0563175 -0.05653155
 -0.05681771 -0.05716208 -0.05752942 -0.05790691 -0.05824332 -0.0585415 -0.05878037 -0.05897494 -0.05913378 -0.05927078
 -0.05939969 -0.05952864 -0.05966577 -0.05981391 -0.05997773 -0.06014922 -0.0603289 -0.06050032 -0.0606594 -0.06080621
 -0.06093836 -0.06108739 -0.06125498 -0.06147124 -0.06173449 -0.06202807 -0.06234586 -0.0626386 -0.06290904 -0.06313662
 -0.06333759 -0.06354221 -0.06375964 -0.06402531 -0.06432313 -0.06465214 -0.06498509 -0.06529782 -0.06557958 -0.06581495
 -0.06601289 -0.06617317 -0.06630547 -0.06641305 -0.06649692 -0.06655733 -0.06659638 -0.06661317 -0.06662416 -0.06663012
 -0.0666647 -0.06672967 -0.06685881 -0.06704946 -0.06730587 -0.06761722 -0.06794765 -0.06828491 -0.06857945 -0.06883007
 -0.06900977 -0.06912982 -0.06919212 -0.06920964 -0.06919415 -0.06915185 -0.06908912 -0.06900895 -0.06891187 -0.06880762
 -0.06869666 -0.06859758 -0.06851368 -0.06845716 -0.06843147 -0.06841992 -0.06842198 -0.06838983 -0.06832106 -0.06816971
 -0.06793922 -0.06762531 -0.06723934 -0.06682057 -0.0663789 -0.06596005 -0.06556352 -0.06521022 -0.06489278 -0.06460995
 -0.06435699 -0.06412944 -0.06392496 -0.06374323 -0.06357496 -0.06341823 -0.06325916 -0.06309238 -0.0629167 -0.06272842
 -0.06254903 -0.06237952 -0.06224762 -0.06215518 -0.06211044 -0.06211235 -0.06214458 -0.06220533 -0.06227398 -0.06235204
 -0.0624345 -0.0625237 -0.06262539 -0.06273499 -0.06284942 -0.06295843 -0.06304692 -0.06311296 -0.06314658 -0.06316002
 -0.06315735 -0.06314884 -0.06314239 -0.06313039 -0.06311373 -0.06307747 -0.06301828 -0.06293309 -0.06282041 -0.06268997
 -0.06254215 -0.0623946 -0.06224922 -0.062137 -0.06206126 -0.06206114 -0.06213541 -0.06230407 -0.0625557 -0.06287357
 -0.06324324 -0.06363037 -0.06403112 -0.06442376 -0.06481984 -0.0652186 -0.06564113 -0.06609834 -0.06660793 -0.06718161
 -0.06781896 -0.06852635 -0.06927757 -0.07007212 -0.07086782 -0.07166083 -0.07241365 -0.07312362 -0.07377313 -0.07436246
 -0.07489546 -0.07537416 -0.07581378 -0.07621577 -0.07659359 -0.07694793 -0.07728643 -0.07761138 -0.07792971 -0.07824433
 -0.07856301 -0.07888281 -0.07920617 -0.07952221 -0.07982597 -0.08010735 -0.08036011 -0.08058336 -0.0807746 -0.08094055
 -0.08108196 -0.08120462 -0.08130985 -0.08139391 -0.08145684 -0.08148505 -0.08147845 -0.08143227 -0.08135106 -0.08126175
 -0.081173 -0.08113481 -0.08114944 -0.08125209 -0.08143094 -0.08168428 -0.08199217 -0.08233061 -0.08268175 -0.08302262
 -0.08334282 -0.08362862 -0.08388131 -0.08409605 -0.08428615 -0.0844535 -0.08461234 -0.08476619 -0.08491836 -0.08506975
 -0.08521887 -0.08536535 -0.08552393 -0.08569674 -0.08592291 -0.08620515 -0.08658521 -0.08705692 -0.08762401 -0.08826553
 -0.08893124 -0.08959906 -0.09020098 -0.09074033 -0.09118611 -0.09157162 -0.09191345 -0.0922436 -0.09259056 -0.09295465
 -0.09334682 -0.09374321 -0.09413967 -0.09451624 -0.09486751 -0.09518997 -0.09548187 -0.09575152 -0.09599923 -0.0962377
 -0.09646737 -0.09669624 -0.09692349 -0.09714717 -0.09736567 -0.09757123 -0.09776334 -0.09793627 -0.09809132 -0.09822701
 -0.09834822 -0.09845826 -0.09856769 -0.09868602 -0.0988229 -0.09898959 -0.09918063 -0.09940083 -0.09962516 -0.09984939
 -0.100046 -0.1002077 -0.1003291 -0.1004067 -0.1004636 -0.1005008 -0.1005503 -0.100613 -0.1007015 -0.1008132
 -0.1009348 -0.1010644 -0.1011849 -0.1013004 -0.1014127 -0.1015281 -0.1016614 -0.1018106 -0.1019824 -0.1021644
 -0.1023487 -0.1025229 -0.102676 -0.1028054 -0.1029061 -0.1029847 -0.1030411 -0.1030872 -0.1031242 -0.1031669
 -0.1032171 -0.1032859 -0.1033746 -0.1034818 -0.1036072 -0.1037381 -0.1038738 -0.1040019 -0.1041232 -0.1042342
 -0.1043365 -0.1044333 -0.1045248 -0.1046135 -0.1046982 -0.1047784 -0.1048525 -0.1049189 -0.1049769 -0.1050255
 -0.1050656 -0.1050966 -0.1051219 -0.1051411 -0.1051618 -0.1051846 -0.1052189 -0.1052661 -0.1053289 -0.1054078
 -0.1054948 -0.1055892 -0.1056806 -0.1057694 -0.1058533 -0.1059339 -0.106017 -0.1061026 -0.1061951 -0.1062918
 -0.1063906 -0.1064872 -0.1065754 -0.1066513 -0.1067084 -0.1067485 -0.1067683 -0.10678 -0.1067859 -0.106804
 -0.1068404 -0.1069044 -0.1070007 -0.1071192 -0.1072605 -0.1074009 -0.1075387 -0.1076547 -0.1077488 -0.1078224
 -0.1078779 -0.1079346 -0.1079938 -0.1080737 -0.1081707 -0.1082861 -0.1084128 -0.1085378 -0.1086568 -0.108757
 -0.1088408 -0.1089044 -0.1089566 -0.1090006 -0.1090466 -0.1091 -0.1091659 -0.109248 -0.1093413 -0.1094468
 -0.109552 -0.1096556 -0.1097464 -0.1098234 -0.1098831 -0.1099255 -0.1099545 -0.1099706 -0.1099793 -0.1099813
 -0.1099818 -0.1099821 -0.1099881 -0.1100014 -0.1100285 -0.1100692 -0.1101268 -0.1101977 -0.11028 -0.1103695
 -0.1104627 -0.1105572 -0.1106514 -0.1107436 -0.1108334 -0.1109179 -0.1109963 -0.111069 -0.1111353 -0.1112017
 -0.1112687 -0.111342 -0.1114217 -0.1115046 -0.1115896 -0.1116666 -0.1117359 -0.1117918 -0.1118369 -0.1118753
 -0.1119095 -0.1119472 -0.1119881 -0.1120356 -0.1120873 -0.1121423 -0.1121988 -0.1122552 -0.1123113 -0.1123667
 -0.1124215 -0.112476 -0.1125297 -0.1125826 -0.112634 -0.1126837 -0.1127312 -0.1127763 -0.1128198 -0.1128619
 -0.1129055 -0.1129506 -0.1129997 -0.1130524 -0.1131081 -0.1131664 -0.1132255 -0.1132858 -0.1133471 -0.1134094
 -0.1134732 -0.1135364 -0.1135975 -0.1136539 -0.1137032 -0.1137452 -0.1137786 -0.1138064 -0.1138287 -0.1138505
 -0.1138726 -0.1139006 -0.1139353 -0.1139801 -0.1140356 -0.1140996 -0.1141719 -0.1142454 -0.1143199 -0.1143893
 -0.1144542 -0.1145132 -0.1145674 -0.1146189 -0.1146677 -0.1147154 -0.1147614 -0.1148052 -0.1148481 -0.1148902
 -0.1149358 -0.1149879 -0.1150489 -0.1151223 -0.1152025 -0.1152897 -0.1153719 -0.1154465 -0.1155057 -0.1155476
 -0.115575 -0.1155879 -0.1155955 -0.1155983 -0.1156037 -0.1156121 -0.1156273 -0.1156495 -0.1156805 -0.1157202
 -0.1157691 -0.1158261 -0.1158897 -0.1159578 -0.1160272 -0.1160954 -0.1161588 -0.1162162 -0.116265 -0.1163067
 -0.1163408 -0.1163704 -0.1163964 -0.1164212 -0.1164458 -0.1164706 -0.1164956 -0.1165204 -0.1165448 -0.1165696
 -0.1165948 -0.1166224 -0.1166524 -0.1166859 -0.1167225 -0.1167617 -0.1168032 -0.1168461 -0.1168905 -0.116936
 -0.1169826 -0.1170304 -0.1170785 -0.1171264 -0.1171727 -0.117216 -0.1172556 -0.1172903 -0.1173206 -0.1173464
 -0.117369 -0.1173887 -0.1174068 -0.1174238 -0.1174406 -0.1174575 -0.1174756 -0.1174951 -0.117516 -0.1175383
 -0.117561 -0.117584 -0.1176069 -0.11763 -0.1176549 -0.1176822 -0.1177141 -0.1177512 -0.1177955 -0.117846
 -0.1179033 -0.117963 -0.1180235 -0.1180784 -0.1181237 -0.1181577 -0.1181775 -0.1181904 -0.1181966 -0.1182073
 -0.1182242 -0.1182513 -0.1182892 -0.1183319 -0.1183789 -0.1184226 -0.1184631 -0.1184997 -0.1185337 -0.1185711
 -0.1186122 -0.1186621 -0.1187182 -0.1187786 -0.1188394 -0.1188941 -0.118941 -0.1189751 -0.118999 -0.1190118
 -0.1190199 -0.1190256 -0.119036 -0.1190543 -0.1190819 -0.1191209 -0.1191644 -0.1192117 -0.1192549 -0.1192929
 -0.1193262 -0.1193551 -0.1193869 -0.1194218 -0.119463 -0.1195093 -0.1195562 -0.1196027 -0.1196426 -0.1196762
 -0.1197009 -0.1197178 -0.1197272 -0.1197314 -0.1197324 -0.1197329 -0.1197356 -0.119742 -0.1197537 -0.1197697
 -0.1197902 -0.1198133 -0.1198384 -0.1198653 -0.1198937 -0.1199243 -0.1199574 -0.1199926 -0.1200297 -0.1200655
 -0.1200999 -0.1201292 -0.1201538 -0.1201732 -0.120188 -0.1202007 -0.120211 -0.1202201 -0.1202274 -0.1202323
 -0.1202352 -0.1202364 -0.1202365 -0.1202364 -0.1202351 -0.1202323 -0.1202267 -0.1202171 -0.1202062 -0.1201936
 -0.120187 -0.1201872 -0.1202015 -0.1202309 -0.120274 -0.1203307 -0.1203876 -0.120444 -0.1204839 -0.1205085
 -0.120514 -0.1205046 -0.1204916 -0.120478 -0.1204771 -0.1204863 -0.1205085 -0.1205375 -0.1205678 -0.1205957
 -0.1206159 -0.1206298 -0.1206366 -0.1206396 -0.1206402 -0.1206399 -0.1206394 -0.1206387 -0.1206376 -0.1206372
 -0.1206375 -0.1206393 -0.1206425 -0.1206453 -0.1206475 -0.120648 -0.1206479 -0.1206525 -0.1206639 -0.120692
 -0.1207377 -0.120808 -0.1209027 -0.1210243 -0.1211729 -0.1213499 -0.1215545 -0.1217869 -0.1220441 -0.1223232
 -0.1226273 -0.1229532 -0.1233208 -0.1237321 -0.1242139 -0.1247728 -0.1254054 -0.1261146 -0.1268462 -0.1275968
 -0.1282849 -0.1289062 -0.1293889 -0.1297309 -0.1298807 -0.129843 -0.1295998 -0.1291727 -0.1285921 -0.1278982
 -0.1271618 -0.1264228 -0.125752 -0.1251641 -0.1246932 -0.1243365 -0.1241009 -0.1239807 -0.1239786 -0.1240759
 -0.1242763 -0.124521 -0.1248062 -0.1250515 -0.1252475 -0.1253753 -0.1254339 -0.1254574 -0.1254458 -0.1254088
 -0.1253438 -0.1252395 -0.1250983 -0.1249212 -0.1247157 -0.1244985 -0.1242763 -0.1240685 -0.1238737 -0.1237007
 -0.1235372 -0.1233772 -0.1232101 -0.1230258 -0.1228305 -0.1226227 -0.1224166 -0.1222163 -0.1220248 -0.1218438
 -0.1216672 -0.1214942 -0.1213236 -0.1211552 -0.1209951 -0.1208434 -0.1207047 -0.1205784 -0.1204638 -0.1203603
 -0.1202657 -0.1201803 -0.1201041 -0.1200371 -0.1199803 -0.1199319 -0.1198909 -0.1198531 -0.1198155 -0.119775
 -0.1197288 -0.1196772 -0.1196196 -0.1195579 -0.1194925 -0.1194257 -0.1193576 -0.1192921 -0.1192294 -0.1191732
 -0.1191237 -0.1190803 -0.1190429 -0.1190084 -0.1189772 -0.1189498 -0.1189269 -0.1189117 -0.1189029 -0.1188998
 -0.1188992 -0.1188954 -0.1188876 -0.1188714 -0.1188505 -0.1188258 -0.1188015 -0.118781 -0.1187636 -0.1187509
 -0.1187367 -0.1187203 -0.1186951 -0.1186595 -0.1186124 -0.118553 -0.1184867 -0.1184139 -0.1183432 -0.1182751
 -0.1182166 -0.1181674 -0.1181292 -0.1181009 -0.1180792 -0.1180631 -0.1180483 -0.1180347 -0.1180204 -0.1180053
 -0.1179886 -0.1179687 -0.1179442 -0.1179145 -0.1178784 -0.1178385 -0.1177953 -0.1177524 -0.1177109 -0.1176719
 -0.1176359 -0.1176028 -0.1175725 -0.1175458 -0.1175227 -0.1175032 -0.1174873 -0.1174725 -0.1174588 -0.1174441
 -0.1174284 -0.1174117 -0.1173939 -0.1173752 -0.1173547 -0.117331 -0.1173032 -0.1172689 -0.1172296 -0.1171848
 -0.1171383 -0.1170923 -0.1170497 -0.1170128 -0.1169799 -0.1169515 -0.1169231 -0.1168936 -0.1168624 -0.1168288
 -0.1167976 -0.1167689 -0.1167476 -0.1167334 -0.1167253 -0.1167223 -0.1167179 -0.1167117 -0.1166979 -0.1166775
 -0.1166498 -0.116617 -0.1165822 -0.1165469 -0.1165143 -0.1164838 -0.1164561 -0.1164293 -0.1164027 -0.1163747
 -0.1163445 -0.1163129 -0.1162796 -0.1162469 -0.1162152 -0.1161863 -0.1161607 -0.1161378 -0.1161178 -0.1160971
 -0.1160757 -0.1160495 -0.1160188 -0.1159823 -0.1159411 -0.1158984 -0.1158552 -0.1158164 -0.1157814 -0.115752
 -0.1157262 -0.1157024 -0.11568 -0.1156578 -0.1156375 -0.1156202 -0.115606 -0.115596 -0.1155861 -0.1155759
 -0.115561 -0.1155402 -0.1155144 -0.1154832 -0.1154515 -0.1154194 -0.1153906 -0.115365 -0.1153426 -0.1153228
 -0.1153032 -0.1152836 -0.1152624 -0.1152403 -0.1152181 -0.115196 -0.1151753 -0.1151549 -0.115134 -0.1151107
 -0.1150831 -0.115051 -0.1150131 -0.1149726 -0.1149302 -0.1148901 -0.1148538 -0.1148226 -0.1147975 -0.1147758
 -0.1147574 -0.1147387 -0.1147194 -0.1146979 -0.1146742 -0.1146482 -0.1146197 -0.1145885 -0.1145548 -0.1145193
 -0.1144828 -0.114448 -0.1144148 -0.1143847 -0.1143568 -0.1143301 -0.1143043 -0.1142786 -0.1142548 -0.1142336
 -0.1142162 -0.1142037 -0.1141946 -0.114189 -0.1141833 -0.1141774 -0.1141667 -0.1141508 -0.1141259 -0.1140919
 -0.1140492 -0.1139982 -0.1139448 -0.1138895 -0.1138389 -0.1137927 -0.1137538 -0.1137215 -0.1136952 -0.1136742
 -0.1136569 -0.1136429 -0.1136311 -0.1136205 -0.1136104 -0.1135994 -0.1135866 -0.1135711 -0.1135518 -0.1135297
 -0.1135042 -0.1134787 -0.1134537 -0.1134315 -0.1134128 -0.1133952 -0.1133788 -0.113359 -0.113336 -0.1133096
 -0.1132804 -0.1132534 -0.1132283 -0.1132081 -0.1131906 -0.113172 -0.1131502 -0.1131189 -0.1130786 -0.1130269
 -0.1129676 -0.1129023 -0.1128365 -0.112773 -0.1127172 -0.112672 -0.1126402 -0.1126241 -0.112619 -0.1126254
 -0.1126319 -0.1126374 -0.1126341 -0.1126211 -0.1126002 -0.1125716 -0.1125416 -0.1125105 -0.1124824 -0.112457
 -0.112436 -0.1124186 -0.1124047 -0.1123933 -0.1123824 -0.1123713 -0.112358 -0.1123424 -0.1123241 -0.1123019
 -0.1122753 -0.1122419 -0.1122002 -0.1121519 -0.1120959 -0.1120402 -0.1119859 -0.1119404 -0.1119052 -0.1118799
 -0.1118649 -0.1118527 -0.111843 -0.111829 -0.1118108 -0.1117867 -0.1117573 -0.1117247 -0.111689 -0.1116518
 -0.1116122 -0.1115689 -0.1115215 -0.1114686 -0.1114115 -0.1113502 -0.1112878 -0.1112255 -0.1111661 -0.1111112
 -0.1110617 -0.1110189 -0.1109802 -0.1109459 -0.1109113 -0.1108759 -0.1108367 -0.1107935 -0.1107483 -0.1107012
 -0.1106561 -0.1106131 -0.1105744 -0.1105398 -0.1105094 -0.1104825 -0.1104577 -0.110434 -0.110409 -0.1103819
 -0.1103507 -0.1103151 -0.1102744 -0.1102287 -0.1101778 -0.1101223 -0.1100623 -0.1099987 -0.1099314 -0.1098615
 -0.1097888 -0.109717 -0.109646 -0.1095818 -0.1095246 -0.1094763 -0.1094363 -0.1093975 -0.1093588 -0.1093103
 -0.1092527 -0.1091832 -0.1091047 -0.1090237 -0.1089432 -0.1088719 -0.1088102 -0.1087633 -0.1087267 -0.1086998
 -0.1086745 -0.1086461 -0.1086082 -0.108556 -0.1084911 -0.1084119 -0.1083264 -0.1082355 -0.1081468 -0.1080614
 -0.1079825 -0.1079104 -0.107843 -0.10778 -0.1077167 -0.1076533 -0.1075877 -0.1075208 -0.1074555 -0.1073928
 -0.1073372 -0.107288 -0.1072471 -0.107211 -0.1071769 -0.107139 -0.1070912 -0.1070302 -0.1069505 -0.1068581
 -0.1067527 -0.1066468 -0.1065441 -0.1064526 -0.1063755 -0.1063101 -0.1062574 -0.1062071 -0.1061587 -0.1061019
 -0.1060365 -0.1059591 -0.1058705 -0.1057756 -0.1056759 -0.1055798 -0.1054878 -0.1054055 -0.1053319 -0.1052683
 -0.1052128 -0.1051642 -0.1051189 -0.1050739 -0.1050244 -0.1049666 -0.1048989 -0.1048189 -0.10473 -0.1046322
 -0.1045296 -0.1044229 -0.1043151 -0.1042065 -0.1041003 -0.1039967 -0.1038983 -0.1038054 -0.1037191 -0.1036395
 -0.1035679 -0.103504 -0.1034483 -0.1033984 -0.103349 -0.1032958 -0.103228 -0.1031453 -0.1030411 -0.1029223
 -0.1027927 -0.1026594 -0.1025285 -0.1024006 -0.1022777 -0.1021566 -0.1020363 -0.1019172 -0.1017986 -0.1016848
 -0.1015765 -0.1014763 -0.1013846 -0.1012992 -0.1012201 -0.1011446 -0.1010728 -0.1010031 -0.1009348 -0.1008633
 -0.1007865 -0.100696 -0.1005924 -0.1004722 -0.1003397 -0.1001991 -0.1000551 -0.09991325 -0.09977742 -0.09965183
 -0.09953783 -0.09943838 -0.09934788 -0.09926669 -0.09918314 -0.09909514 -0.09899405 -0.09887813 -0.09874716 -0.09860086
 -0.09844448 -0.0982784 -0.09811081 -0.09794228 -0.09778156 -0.09762828 -0.09748597 -0.09735276 -0.09722535 -0.09710193
 -0.09697773 -0.09685116 -0.09671844 -0.0965778 -0.09642518 -0.09626334 -0.09609111 -0.09591736 -0.09574581 -0.09558213
 -0.0954301 -0.09528562 -0.09514903 -0.09501272 -0.09487557 -0.09473491 -0.09459036 -0.09444465 -0.09429788 -0.09415241
 -0.09400767 -0.09386018 -0.0937085 -0.0935436 -0.09336603 -0.09317157 -0.09296425 -0.09275039 -0.09253207 -0.09231577
 -0.092099 -0.0918814 -0.09166137 -0.09143656 -0.09121034 -0.09098306 -0.09075981 -0.09054246 -0.09033323 -0.09013378
 -0.08993933 -0.08975077 -0.0895507 -0.08933798 -0.08909614 -0.08882521 -0.0885371 -0.08823402 -0.08794186 -0.08765874
 -0.0873905 -0.08713211 -0.08687092 -0.08660574 -0.08632676 -0.08603869 -0.08574361 -0.08544652 -0.08515368 -0.08486567
 -0.08458642 -0.08430932 -0.0840347 -0.08374768 -0.08344371 -0.08311278 -0.0827493 -0.08236681 -0.08196552 -0.08156536
 -0.08116832 -0.08077508 -0.08038549 -0.07999159 -0.07959381 -0.0791936 -0.07879104 -0.07838952 -0.07798426 -0.0775641
 -0.0771222 -0.07663647 -0.0761114 -0.07554015 -0.07493968 -0.07432505 -0.07370499 -0.07309133 -0.07248162 -0.0718768
 -0.07127658 -0.07068074 -0.07009106 -0.06951084 -0.06892294 -0.06832933 -0.06767837 -0.066966 -0.06615706 -0.06525218
 -0.06431151 -0.06334019 -0.0624145 -0.06152574 -0.06067185 -0.05984263 -0.05900467 -0.05815786 -0.05728745 -0.05639305
 -0.05547398 -0.05451269 -0.05349819 -0.05239714 -0.05118111 -0.04983917 -0.04834371 -0.04675745 -0.04508457 -0.04342259
 -0.04179608 -0.04024456 -0.03877974 -0.03738701 -0.03606707 -0.03478716 -0.03354482 -0.03228228 -0.03099382 -0.0295942
 -0.02809339 -0.02647966 -0.02479636 -0.0231812 -0.02163802 -0.02025648 -0.0189821 -0.01777129 -0.016589 -0.01537646
 -0.01414279 -0.01287565 -0.01159285 -0.01030352 -0.009004792 -0.007693648 -0.006385967 -0.005081163 -0.003814405 -0.002593441
 -0.001410836 -0.0002672098 0.0008626243 0.00197861 0.003047593 0.004065496 0.004975036 0.005783279 0.006491802 0.00711681
 0.007712478 0.0082808 0.00885944 0.009424167 0.009951219 0.01043437 0.01085153 0.01122528 0.01156837 0.01188494
 0.01218512 0.01244847 0.01267061 0.01283561 0.01293848 0.01297556 0.01294562 0.0128478 0.01268126 0.01245892
 0.01218185 0.01188349 0.01156432 0.0112433 0.01091668 0.01057476 0.01021586 0.00982673 0.009414793 0.008985864
 0.008555719 0.008150471 0.0077788 0.007460751 0.007193675 0.006979544 0.006821994 0.006721892 0.006687231 0.006724562
 0.006820382 0.006975235 0.007162939 0.007378789 0.007616254 0.007873886 0.008160163 0.00847538 0.008822661 0.009201327
 0.009606 0.01003542 0.01048109 0.01094114 0.01140518 0.01187236 0.01233459 0.01279528 0.01325494 0.01371976
 0.01419579 0.01468884 0.01520503 0.01574683 0.01631851 0.0169143 0.01753463 0.01816781 0.01881153 0.01945706
 0.02010327 0.02074151 0.0213712 0.02198117 0.02257106 0.02314452 0.02370351 0.02427283 0.02484971 0.02543749
 0.0260223 0.02655969 0.02704312 0.02743477 0.02774028 0.02795371 0.02807669 0.02810743 0.0280515 0.02791204
 0.02769439 0.02741381 0.02702575 0.02653483 0.02582692 0.02486819 0.02363206 0.02208318 0.02047015 0.0188124
 0.0172735 0.01585925 0.01447017 0.01310047 0.01165343 0.01013739 0.008548103 0.006893558 0.005205678 0.003467433
 0.001666476 -0.0002380617 -0.002335526 -0.00458807 -0.007040094 -0.009489995 -0.01178774 -0.01385755 -0.01557907 -0.01711187
 -0.01848576 -0.01982344 -0.02117074 -0.02251887 -0.02387695 -0.02518537 -0.02643812 -0.02762156 -0.02873527 -0.02981267
 -0.03085546 -0.03189425 -0.03292691 -0.03395864 -0.03498491 -0.03599345 -0.03698184 -0.03793748 -0.03886342 -0.0397578
 -0.04062691 -0.04147466 -0.04231222 -0.04314368 -0.04399472 -0.0448792 -0.04581475 -0.04682884 -0.0478415 -0.04884975
 -0.04972475 -0.05043468 -0.05100669 -0.05143606 -0.05183186 -0.05219919 -0.05258878 -0.05299695 -0.05339761 -0.05378628
 -0.05412136 -0.05441119 -0.05466244 -0.05488336 -0.05510162 -0.05530559 -0.055493 -0.05564187 -0.05572334 -0.05573668
 -0.05566712 -0.05553649 -0.05535129 -0.05513109 -0.05488499 -0.05462001 -0.05434181 -0.05403885 -0.05371371 -0.05332624
 -0.0528737 -0.05231231 -0.05164021 -0.05088975 -0.05006816 -0.04927363 -0.04850658 -0.04782072 -0.04720803 -0.04666823
 -0.04619795 -0.04579099 -0.04544326 -0.04515145 -0.0448964 -0.04466221 -0.04441592 -0.04412434 -0.04377965 -0.04335694
 -0.0429064 -0.04244047 -0.04199642 -0.04159183 -0.04120752 -0.04084478 -0.04047017 -0.04008015 -0.03966194 -0.03921483
 -0.03875102 -0.03827091 -0.0377848 -0.03728883 -0.03676787 -0.03621515 -0.03559768 -0.03491594 -0.03415069 -0.03331582
 -0.03242701 -0.03148932 -0.03052096 -0.02950194 -0.02842217 -0.02726831 -0.02602294 -0.0247105 -0.02333187 -0.02192604
 -0.02050621 -0.0190754 -0.01763922 -0.01616544 -0.01464998 -0.01309102 -0.01148859 -0.009926019 -0.008409648 -0.007043911
 -0.005826228 -0.004793201 -0.003940913 -0.003270002 -0.002790814 -0.002525841 -0.002489223 -0.002718554 -0.003207155 -0.003969673
 -0.004972652 -0.00619964 -0.00761082 -0.009181314 -0.01088686 -0.01271466 -0.01464894 -0.01669126 -0.01879092 -0.02094794
 -0.02306297 -0.02512649 -0.0270705 -0.02889097 -0.03060983 -0.03223074 -0.03380952 -0.03534292 -0.03684272 -0.038297
 -0.03966783 -0.04095193 -0.04211841 -0.04318067 -0.0441452 -0.0450285 -0.04585208 -0.04662505 -0.04736159 -0.04806414
 -0.04873828 -0.04938131 -0.04999458 -0.05057008 -0.05110633 -0.05159607 -0.05203711 -0.0524321 -0.05278087 -0.05309015
 -0.05336032 -0.05358728 -0.05377012 -0.05389494 -0.05396258 -0.05396996 -0.05392132 -0.05382992 -0.05369939 -0.0535445
 -0.05336765 -0.05317826 -0.05298002 -0.05277981 -0.05258227 -0.05239223 -0.05221539 -0.05205452 -0.05191861 -0.05181053
 -0.05174041 -0.05171133 -0.05172904 -0.05179548 -0.05190928 -0.05207109 -0.05227064 -0.05250742 -0.05276615 -0.05304623
 -0.0533365 -0.05363654 -0.05393958 -0.05424282 -0.05453379 -0.05480698 -0.0550425 -0.05523809 -0.05537922 -0.05547156
 -0.05551436 -0.05551805 -0.05548999 -0.05543946 -0.05537337 -0.05529712 -0.05521419 -0.05512694 -0.05503611 -0.05494506
 -0.05485363 -0.05477035 -0.05469581 -0.05463991 -0.05460325 -0.05458777 -0.05459287 -0.05461029 -0.05463918 -0.0546698
 -0.0547028 -0.05473517 -0.05476853 -0.05480586 -0.05484686 -0.05489341 -0.05494162 -0.05498799 -0.05502862 -0.05505803
 -0.05507827 -0.05508802 -0.05509345 -0.05509709 -0.05510094 -0.05510681 -0.0551106 -0.05511181 -0.05510768 -0.05509771
 -0.05508275 -0.0550628 -0.0550372 -0.05500569 -0.05496418 -0.05491253 -0.05484758 -0.05476981 -0.05467942 -0.05457669
 -0.05446266 -0.05433666 -0.05419797 -0.05404612 -0.05387941 -0.05370047 -0.05351009 -0.05331302 -0.05311271 -0.05290994
 -0.05270731 -0.0524978 -0.05228036 -0.05204801 -0.05179837 -0.05153516 -0.05125784 -0.05097927 -0.05070018 -0.05043238
 -0.05017605 -0.04993591 -0.04971122 -0.0495001 -0.04930099 -0.04910756 -0.04891773 -0.0487232 -0.04852282 -0.04831031
 -0.04808705 -0.04785161 -0.04760743 -0.04735706 -0.04710231 -0.0468457 -0.04658505 -0.04632025 -0.04604873 -0.04576917
 -0.04548342 -0.04519109 -0.04489755 -0.04460325 -0.04431256 -0.04402576 -0.04374712 -0.04347704 -0.04322223 -0.04298331
 -0.04276774 -0.04257573 -0.04241211 -0.04227656 -0.04217072 -0.04209405 -0.04204651 -0.04202727 -0.04203572 -0.04207013
 -0.04213022 -0.0422103 -0.04230918 -0.04241507 -0.04252422 -0.04262402 -0.04271021 -0.04277663 -0.04282099 -0.04284476
 -0.04284741 -0.04283606 -0.04281102 -0.04278497 -0.04275864 -0.04274519 -0.04274456 -0.04276287 -0.04279943 -0.04285431
 -0.04292826 -0.04302328 -0.04314007 -0.0432822 -0.04344598 -0.04363007 -0.04382597 -0.04402719 -0.04422437 -0.04441091
 -0.04457948 -0.04472575 -0.04484573 -0.04493708 -0.04500063 -0.04503543 -0.0450481 -0.04503882 -0.04501783 -0.04498576
 -0.04495049 -0.04491182 -0.04486734 -0.04481556 -0.04474499 -0.04465482 -0.04453542 -0.04438775 -0.04420929 -0.04400176
 -0.04376575 -0.0435061 -0.04322671 -0.0429382 -0.04265076 -0.04237167 -0.04211068 -0.04186065 -0.04162231 -0.04138299
 -0.041138 -0.04088668 -0.04062711 -0.04036852 -0.04011189 -0.0398618 -0.03961871 -0.03937917 -0.03914279 -0.03890241
 -0.03865734 -0.03839925 -0.03812825 -0.03783976 -0.03753572 -0.03721881 -0.03689083 -0.03655655 -0.0362159 -0.03587013
 -0.0355204 -0.03516722 -0.03481447 -0.03446449 -0.03412015 -0.03378331 -0.03345466 -0.03313469 -0.03282397 -0.03252282
 -0.03223067 -0.03194771 -0.03167095 -0.03140023 -0.03113122 -0.03086358 -0.03059074 -0.03031279 -0.03002582 -0.02973244
 -0.02944069 -0.02915415 -0.02888829 -0.02864038 -0.02841416 -0.02820199 -0.02799467 -0.02778988 -0.02758174 -0.02737243
 -0.02716367 -0.02695009 -0.02673128 -0.02649705 -0.02624338 -0.02596954 -0.02567306 -0.02536686 -0.02505147 -0.02474421
 -0.02444635 -0.02416665 -0.02390468 -0.0236506 -0.02340242 -0.02313981 -0.02286387 -0.02256619 -0.02225355 -0.02193856
 -0.02162967 -0.02134766 -0.02109876 -0.0208999 -0.02075169 -0.02066277 -0.02062382 -0.02063386 -0.02067721 -0.02074726
 -0.0208336 -0.02093257 -0.02103642 -0.02114511 -0.02124057 -0.02132147 -0.02136632 -0.02137331 -0.02133928 -0.02126485
 -0.02116521 -0.02104088 -0.02090381 -0.02075124 -0.02057929 -0.02038223 -0.02014292 -0.01985688 -0.01950491 -0.01909364
 -0.01861768 -0.01810245 -0.01756216 -0.01703681 -0.01655014 -0.0161441 -0.01583995 -0.01566903 -0.01564641 -0.0157775
 -0.01606941 -0.01649564 -0.01705597 -0.0177079 -0.01844889 -0.01923693 -0.02006952 -0.02090252 -0.02173299 -0.02251681
 -0.02325452 -0.02392295 -0.02452812 -0.02507444 -0.02556748 -0.02602005 -0.02643404 -0.02681591 -0.0271693 -0.02749736
 -0.02780979 -0.02811176 -0.02841553 -0.02872738 -0.02905501 -0.02940311 -0.02976882 -0.0301531 -0.03054713 -0.03094962
 -0.03135827 -0.03177271 -0.03219672 -0.03263017 -0.03306995 -0.03351507 -0.03395604 -0.03439273 -0.03482024 -0.03523774
 -0.0356418 -0.03602849 -0.03638817 -0.03671982 -0.03701622 -0.03728361 -0.03752517 -0.03774607 -0.03795153 -0.03814048
 -0.0383127 -0.03847079 -0.03861387 -0.03875227 -0.03888795 -0.03902731 -0.0391721 -0.03931757 -0.03946368 -0.03960118
 -0.03972964 -0.03984161 -0.03993719 -0.04001377 -0.04007182 -0.04011237 -0.04013491 -0.04013845 -0.04012271 -0.04008468
 -0.04002984 -0.03996244 -0.03989227 -0.03983109 -0.03978103 -0.03974961 -0.03972629 -0.03970905 -0.03968647 -0.03965405
 -0.03960868 -0.03954829 -0.03947695 -0.03939433 -0.03930982 -0.03922398 -0.03914639 -0.03907717 -0.03901536 -0.0389596
 -0.03889807 -0.03883037 -0.03874769 -0.03865231 -0.03854616 -0.03843132 -0.03831365 -0.03819184 -0.03806743 -0.03793634
 -0.03779512 -0.03764143 -0.03747094 -0.03728933 -0.03709631 -0.03690384 -0.03671551 -0.03653901 -0.03637752 -0.03622791
 -0.03609092 -0.03595578 -0.03582194 -0.03567642 -0.03551889 -0.03534466 -0.03515612 -0.03497021 -0.03479091 -0.03464758
 -0.03453728 -0.03446986 -0.03443312 -0.03440754 -0.03438437 -0.03434092 -0.03428103 -0.03419953 -0.03410432 -0.03399969
 -0.03388911 -0.0337749 -0.03365958 -0.0335442 -0.03343107 -0.0333219 -0.03321102 -0.03309902 -0.03297013 -0.03282331
 -0.03264418 -0.03243252 -0.03219058 -0.03192095 -0.03164676 -0.03137065 -0.03111864 -0.03088774 -0.0306842 -0.03050043
 -0.03032363 -0.03015018 -0.02996846 -0.02978127 -0.02958705 -0.02938948 -0.02919049 -0.0289928 -0.02879788 -0.02860817
 -0.02842517 -0.02824792 -0.02807693 -0.02790795 -0.02774017 -0.02757368 -0.02740829 -0.02724835 -0.02709391 -0.02694398
 -0.02679782 -0.02664796 -0.02649462 -0.02633428 -0.02616912 -0.02600413 -0.02584019 -0.0256829 -0.02552857 -0.025375
 -0.02521726 -0.02504823 -0.02486983 -0.0246797 -0.02448563 -0.02429202 -0.0240984 -0.02390779 -0.02370719 -0.02349404
 -0.02326112 -0.02300569 -0.02273854 -0.02246008 -0.02218366 -0.02190962 -0.02163727 -0.02136613 -0.02109074 -0.02081259
 -0.02053561 -0.0202623 -0.02000204 -0.01975644 -0.01953216 -0.01933268 -0.01916551 -0.01903338 -0.0189457 -0.01889031
 -0.01886841 -0.01884684 -0.01881241 -0.01873549 -0.01859942 -0.01841101 -0.01816473 -0.0178973 -0.01761276 -0.01733878
 -0.01707852 -0.01683312 -0.01660254 -0.01637993 -0.01616508 -0.0159544 -0.01574664 -0.01553376 -0.01531465 -0.01507996
 -0.01483353 -0.01457768 -0.01431902 -0.01406849 -0.01382882 -0.01360698 -0.01340242 -0.01321677 -0.01304907 -0.01289991
 -0.01276581 -0.01264732 -0.01253464 -0.01242745 -0.01230861 -0.01217642 -0.01201267 -0.01181519 -0.01158401 -0.01131966
 -0.01104914 -0.01077414 -0.01052297 -0.01029292 -0.01008581 -0.009897674 -0.009716157 -0.009541885 -0.009370569 -0.009203189
 -0.009039878 -0.008879929 -0.008720505 -0.008568143 -0.008424951 -0.008301336 -0.008205696 -0.008132417 -0.008085234 -0.008039692
 -0.007991718 -0.007920606 -0.007821857 -0.007693722 -0.007535072 -0.007359153 -0.007166735 -0.006975656 -0.006786447 -0.006611224
 -0.006449445 -0.00630476 -0.006176588 -0.006066431 -0.005970875 -0.00588654 -0.005802642 -0.005702523 -0.005577099 -0.005407126
 -0.005200985 -0.004954973 -0.004690618 -0.00441727 -0.004149615 -0.00389507 -0.003657746 -0.003439897 -0.003241828 -0.003064172
 -0.002903699 -0.002760262 -0.002629771 -0.002512097 -0.002408637 -0.002319443 -0.002246265 -0.002187806 -0.002138471 -0.002096683
 -0.002055025 -0.002011676 -0.001959706 -0.001896894 -0.001815666 -0.001718875 -0.001605232 -0.00148222 -0.001355934 -0.001227181
 -0.001098517 -0.0009666663 -0.0008292772 -0.0006928855 -0.0005594955 -0.0004288842 -0.0003042572 -0.0001567649 1.558942E-05 0.0002386729
 0.0005132501 0.0008230745 0.001165337 0.001504337 0.001839861 0.002153401 0.002444914 0.002705911 0.002933194 0.003113614
 0.003250449 0.003339017 0.003394471 0.003429952 0.003459297 0.003499311 0.003547154 0.003608383 0.003667138 0.003717884
 0.003755424 0.003773332 0.00379679 0.003827739 0.003894123 0.004000544 0.004126744 0.004271449 0.004385144 0.00446956
 0.004523767 0.004557119 0.004621746 0.004717791 0.004876292 0.005084665 0.005330369 0.005603014 0.005882847 0.006160374
 0.006419017 0.00665189 0.006841518 0.007011476 0.007160281 0.007342416 0.007584163 0.007883108 0.008256184 0.008612435
 0.008937253 0.009198264 0.00938864 0.009543424 0.009664126 0.009775409 0.009877062 0.009974833 0.01006754 0.01015309
 0.01022896 0.01028538 0.01032173 0.01033166 0.01031626 0.01027741 0.01020776 0.01009904 0.009949415 0.009744772
 0.009521005 0.009286991 0.009091242 0.008958674 0.008888418 0.008890279 0.008922044 0.008978111 0.009034278 0.009087192
 0.009136479 0.00918189 0.009213189 0.009229041 0.009210235 0.009156819 0.00905791 0.008917012 0.008735931 0.008527086
 0.008316065 0.008119696 0.007982525 0.007892711 0.007862625 0.007852063 0.007827395 0.007787436 0.007713998 0.007648405
 0.007605932 0.007594155 0.00762222 0.007661919 0.007709527 0.007751277 0.007785749 0.007802293 0.007800279 0.007766129
 0.007702602 0.007636859 0.007575036 0.007568889 0.007614508 0.007726367 0.007896428 0.008111947 0.008371715 0.008672258
 0.009002892 0.00935648 0.009707156 0.01003271 0.01031881 0.0105499 0.01073013 0.01085698 0.01093869 0.01097371
 0.01098598 0.01097659 0.01098321 0.01101058 0.01106491 0.01114653 0.01122384 0.01129602 0.01134404 0.01136994
 0.01137671 0.01136422 0.01133058 0.01128108 0.0112233 0.01117097 0.01115378 0.01116756 0.01122538 0.01130046
 0.01137442 0.01143541 0.01146943 0.01148419 0.01148159 0.01145889 0.01141525 0.01135063 0.01126159 0.01117645
 0.01109686 0.01105456 0.01105128 0.01109407 0.01118136 0.01129757 0.01143779 0.01156555 0.01167831 0.01174199
 0.01177067 0.01177861 0.01178255 0.01182454 0.01188852 0.01197689 0.01206001 0.01210709 0.01212881 0.01211812
 0.01210577 0.01210882 0.01211345 0.01212392 0.01209879 0.0120291 0.01191135 0.01174202 0.01155885 0.01136375
 0.01119294 0.01104579 0.0109257 0.01082588 0.01070831 0.01056724 0.01035556 0.01008708 0.009764962 0.009418301
 0.00910005 0.008817137 0.008602823 0.00843952 0.008320329 0.008242887 0.008200815 0.008207225 0.008271119 0.00837686
 0.008530174 0.008672477 0.008798218 0.008841535 0.008793429 0.008645352 0.00839641</values></Ydata></AB><ScSm><Ydata ylabel="Single channel"><values byteorder="INTEL" format="FLOAT32" numvalues="1814"> 0.07581101 0.07585306 0.07595735 0.07614499 0.07638447 0.07661077 0.07677035 0.07685535 0.07688916 0.07688576
 0.07685307 0.07683538 0.07690641 0.07709521 0.07733952 0.07752671 0.07758202 0.07753573 0.07751046 0.07760298
 0.07775083 0.07774752 0.07743638 0.07689127 0.07636935 0.07607348 0.07602607 0.07622139 0.07675061 0.07755394
 0.07814741 0.07797248 0.07710011 0.07625648 0.07601669 0.0762549 0.07648636 0.07642283 0.07605918 0.07557043
 0.07536558 0.07597275 0.07751924 0.07930949 0.08007737 0.07878203 0.07534871 0.07091303 0.06741127 0.06654301
 0.06856672 0.07194764 0.07450995 0.07517502 0.07447898 0.07347406 0.072603 0.07183234 0.0713686 0.07168869
 0.07287513 0.07417859 0.07439931 0.07290076 0.07036866 0.06834017 0.06780823 0.06858556 0.07011338 0.07207236
 0.07355826 0.07259919 0.06809317 0.06227814 0.05973998 0.06304961 0.07001729 0.07584645 0.07740702 0.07496497
 0.07076599 0.06717695 0.06582077 0.06713586 0.07027082 0.07379934 0.07659742 0.07790002 0.07710953 0.07431127
 0.07077686 0.06834152 0.06827421 0.07078805 0.07499924 0.07899723 0.08070925 0.0794367 0.07632296 0.07313974
 0.07111825 0.07095452 0.07297661 0.07679061 0.08127169 0.085231 0.08790334 0.08899748 0.08874179 0.08774725
 0.08654511 0.08550392 0.08516558 0.08590998 0.08706956 0.08718257 0.08559237 0.08332881 0.08204733 0.08231562
 0.0831594 0.08324592 0.08223182 0.08053247 0.07799411 0.07389533 0.06858941 0.06391655 0.06135973 0.06092839
 0.0622703 0.06523994 0.06858778 0.06988046 0.06816194 0.0656501 0.06552027 0.0685215 0.07260273 0.07543935
 0.07658529 0.07731164 0.07896225 0.08157276 0.08368491 0.08343366 0.08039243 0.07662413 0.07522555 0.07729018
 0.08086547 0.08336994 0.08431982 0.08504643 0.08636077 0.08729395 0.08609953 0.08232099 0.07792617 0.07610767
 0.07850281 0.08354853 0.08760857 0.08766574 0.08335621 0.07706089 0.07204798 0.07020907 0.07154006 0.07537362
 0.08111291 0.0875985 0.09281954 0.09503921 0.09406182 0.09111983 0.08747135 0.08323781 0.07808508 0.07317404
 0.07138553 0.07458551 0.08123009 0.08765725 0.09135827 0.09222355 0.09109947 0.0882224 0.08346537 0.07785927
 0.07408878 0.07440245 0.07790961 0.08109485 0.08150905 0.07999833 0.07887584 0.0790178 0.0795494 0.07965297
 0.07972094 0.0806945 0.08274035 0.08490148 0.08603992 0.08587774 0.08504014 0.08431548 0.08393758 0.08342388
 0.08225969 0.08093829 0.08089043 0.08291547 0.08607617 0.08866177 0.08989932 0.09022205 0.0901261 0.08931105
 0.08712887 0.0838149 0.08098044 0.08041271 0.08234309 0.08531067 0.0876843 0.08882979 0.08893881 0.08843772
 0.08770573 0.08695205 0.08627355 0.08591945 0.08623189 0.08715575 0.08812723 0.08863938 0.08865368 0.08834858
 0.0877663 0.086887 0.08588206 0.08511673 0.08488892 0.08520392 0.08582197 0.08647589 0.08696422 0.08710648
 0.08680826 0.08620274 0.08556984 0.08508247 0.08475019 0.08458985 0.08467776 0.0849964 0.08536626 0.08559422
 0.08562447 0.0855114 0.08530925 0.08503568 0.08471274 0.0844049 0.08421119 0.08420061 0.084332 0.08447458
 0.08455335 0.08462527 0.08474758 0.08483343 0.08473973 0.08446442 0.08416192 0.08397579 0.08392541 0.08394337
 0.08395013 0.08386819 0.08362001 0.08319436 0.08273254 0.08247563 0.08256938 0.08295543 0.08346623 0.08395124
 0.08429708 0.08443992 0.08441858 0.08434135 0.08425994 0.08413065 0.08391668 0.0836819 0.08356695 0.08368047
 0.08400112 0.08438618 0.08468822 0.08485098 0.08490022 0.08490369 0.08494906 0.08508107 0.08523338 0.08528803
 0.08522344 0.08514807 0.0851716 0.0852848 0.08538233 0.08538508 0.08532877 0.08532605 0.08544281 0.08563519
 0.085816 0.08595417 0.08608873 0.08625687 0.08642376 0.08649674 0.08642736 0.08628491 0.08619016 0.08618816
 0.08623651 0.08630822 0.08643652 0.08664081 0.08686268 0.08701347 0.08706947 0.08709151 0.08714452 0.08721663
 0.08723886 0.08717707 0.08707534 0.08700688 0.08700844 0.08706773 0.08714796 0.08721088 0.0872303 0.08720059
 0.08713487 0.08705217 0.08696566 0.08688988 0.08685967 0.08692023 0.08707288 0.0872362 0.08729243 0.08719045
 0.08699615 0.08683123 0.08676212 0.08675149 0.08671457 0.08660989 0.08646632 0.08633518 0.08624107 0.08617941
 0.08613662 0.08610265 0.08608462 0.08611795 0.08623944 0.08642743 0.08658846 0.08663494 0.08657132 0.08648176
 0.08644293 0.08647124 0.08653989 0.08661786 0.08669794 0.08680345 0.08695363 0.0871156 0.08722363 0.08725995
 0.08728349 0.08736615 0.08753337 0.08776882 0.08802953 0.08824836 0.08837304 0.0884241 0.08848035 0.0885938
 0.08874801 0.08890586 0.08906241 0.08923396 0.08942378 0.08962461 0.08984506 0.09011147 0.09044021 0.09081265
 0.09117685 0.09147896 0.0917078 0.09191564 0.09218319 0.09255272 0.09299403 0.09343457 0.09382013 0.09415041
 0.09446217 0.09478123 0.09510159 0.09541813 0.09576017 0.09616579 0.0966308 0.09711003 0.09756652 0.09799777
 0.09841832 0.09883834 0.0992623 0.09969728 0.100158 0.1006561 0.1011747 0.1016612 0.1020686 0.1024045
 0.1027284 0.1031037 0.1035566 0.1040571 0.104525 0.1048861 0.1051503 0.1054159 0.1057643 0.1061726
 0.1065611 0.1069095 0.1072797 0.1077217 0.1082012 0.1086404 0.109006 0.1093368 0.1096887 0.1100671
 0.1104178 0.110686 0.1108812 0.1110703 0.1113092 0.1116036 0.1119443 0.112346 0.112817 0.1133125
 0.1137574 0.1141119 0.114388 0.1146177 0.1148298 0.1150445 0.1152667 0.1154889 0.1157121 0.1159416
 0.1161602 0.1163404 0.1164961 0.1166845 0.1169415 0.1172514 0.1175939 0.1179786 0.1184052 0.118829
 0.1192125 0.1195912 0.1200367 0.120549 0.1210289 0.1213811 0.1216083 0.1217789 0.1219407 0.1221141
 0.1223396 0.1226684 0.123102 0.1235826 0.1240527 0.1244976 0.1249269 0.1253397 0.1257163 0.1260321
 0.1262724 0.126444 0.1265783 0.1267251 0.1269361 0.1272337 0.1275866 0.1279278 0.1282015 0.1283845
 0.1284657 0.1284386 0.128337 0.1282446 0.1282261 0.1282479 0.1281962 0.1279736 0.1275587 0.1269786
 0.1262619 0.1254351 0.124549 0.1236874 0.1229453 0.1223986 0.1220932 0.1220608 0.1223304 0.1228985
 0.1236852 0.1245465 0.1253399 0.1259615 0.1263223 0.1263368 0.1259736 0.1252999 0.1244493 0.123553
 0.1227001 0.1219299 0.1212373 0.1206142 0.1201215 0.1199134 0.1201715 0.1210087 0.1224212 0.1242913
 0.1264074 0.1285156 0.130413 0.132023 0.1333874 0.1345864 0.1356789 0.1367064 0.1377106 0.1387087
 0.1396653 0.1405251 0.1412749 0.1419504 0.1425846 0.1431736 0.1436893 0.1441044 0.1444131 0.1446428
 0.1448362 0.1450086 0.1451391 0.1452191 0.1452824 0.1453628 0.1454365 0.1454286 0.1452697 0.1449443
 0.1445151 0.1441321 0.1440178 0.1443988 0.1453991 0.1469637 0.1488842 0.1509107 0.1528484 0.1545698
 0.1559927 0.1570912 0.1579177 0.1585749 0.1591562 0.1597158 0.1602758 0.1608367 0.1613843 0.1619046
 0.1623962 0.1628724 0.1633544 0.1638574 0.1643741 0.1648748 0.1653369 0.1657722 0.1662201 0.1667103
 0.1672327 0.1677469 0.1682278 0.1686925 0.1691689 0.1696454 0.17008 0.1704558 0.1708043 0.171174
 0.171597 0.1720775 0.1725837 0.1730549 0.1734452 0.1737658 0.1740699 0.174399 0.1747567 0.1751281
 0.1755038 0.175881 0.1762567 0.1766341 0.1770293 0.1774504 0.1778692 0.1782324 0.1785152 0.1787537
 0.1790112 0.1793196 0.179661 0.1799997 0.1803236 0.1806561 0.1810283 0.1814401 0.1818509 0.1822142
 0.1825171 0.1827851 0.1830536 0.1833435 0.1836595 0.1839975 0.1843472 0.1846926 0.1850216 0.1853363
 0.1856507 0.1859766 0.186315 0.186658 0.1869969 0.1873281 0.1876524 0.1879713 0.1882874 0.1886122
 0.1889631 0.1893429 0.1897259 0.1900761 0.1903784 0.1906461 0.1909021 0.1911615 0.1914317 0.1917168
 0.1920194 0.192337 0.1926602 0.1929761 0.193278 0.1935709 0.1938672 0.1941754 0.1944945 0.1948176
 0.1951399 0.1954645 0.1957976 0.1961364 0.1964666 0.1967748 0.1970637 0.1973501 0.1976498 0.1979615
 0.1982686 0.198557 0.1988311 0.1991061 0.1993908 0.1996829 0.1999792 0.2002811 0.2005892 0.2009017
 0.201216 0.2015288 0.201836 0.2021366 0.2024342 0.2027315 0.2030291 0.2033272 0.2036273 0.2039295
 0.2042308 0.2045259 0.204814 0.2051012 0.2053948 0.2056966 0.2060016 0.2063038 0.2066002 0.2068927
 0.2071864 0.2074834 0.2077816 0.2080784 0.2083744 0.2086694 0.2089646 0.2092634 0.2095678 0.2098741
 0.2101801 0.2104882 0.2107974 0.2111009 0.2113952 0.2116847 0.2119761 0.2122737 0.2125798 0.2128922
 0.2132064 0.2135205 0.2138334 0.2141403 0.2144369 0.2147222 0.2149951 0.2152565 0.2155139 0.2157745
 0.2160371 0.2162999 0.2165686 0.2168493 0.2171397 0.2174332 0.2177243 0.2180129 0.2183066 0.2186126
 0.2189246 0.2192295 0.2195251 0.2198191 0.2201159 0.2204145 0.2207145 0.221015 0.2213161 0.221622
 0.2219339 0.2222446 0.2225482 0.2228446 0.2231328 0.2234123 0.2236904 0.2239766 0.2242736 0.2245817
 0.2248975 0.2252109 0.225515 0.2258155 0.2261151 0.2264053 0.2266833 0.2269589 0.2272379 0.227519
 0.2278034 0.2280899 0.2283717 0.2286514 0.2289419 0.2292491 0.2295707 0.2299033 0.2302333 0.2305385
 0.2308156 0.2310837 0.2313597 0.2316492 0.2319505 0.2322495 0.2325303 0.2327988 0.2330676 0.2333176
 0.2334844 0.2334206 0.2327672 0.2308081 0.226445 0.21841 0.2057664 0.1884982 0.1677266 0.1453133
 0.1231683 0.1027485 0.08491701 0.07005375 0.05823493 0.04935196 0.04319425 0.03958154 0.03849652 0.0402224
 0.04549274 0.05505583 0.06804474 0.08054496 0.08712777 0.08513774 0.07722607 0.06893176 0.06408583 0.06296889
 0.06395794 0.06566076 0.06762503 0.07008659 0.07347038 0.07790492 0.08319281 0.08932712 0.09674727 0.1057777
 0.11595 0.126195 0.1357578 0.1447872 0.1539758 0.1637172 0.1736852 0.1831515 0.1915662 0.1988329
 0.2051878 0.2109391 0.216297 0.221362 0.2261884 0.2307754 0.2349593 0.2383737 0.2406289 0.2416079
 0.2416061 0.2411654 0.2407539 0.2405847 0.2406758 0.2409938 0.241514 0.2422117 0.243056 0.2440078
 0.2450203 0.2460556 0.2470974 0.248132 0.249131 0.2500652 0.2509217 0.2516978 0.2523955 0.2530256
 0.2536027 0.2541359 0.2546304 0.2550933 0.255532 0.2559518 0.2563552 0.2567377 0.2570913 0.2574141
 0.2577098 0.2579798 0.258226 0.2584587 0.2586924 0.2589341 0.2591832 0.2594357 0.2596856 0.2599292
 0.2601696 0.2604101 0.2606466 0.260874 0.2610945 0.2613137 0.2615343 0.2617578 0.2619854 0.2622148
 0.2624424 0.2626687 0.2628956 0.2631192 0.2633333 0.2635368 0.2637374 0.263947 0.2641695 0.2643971
 0.2646238 0.2648583 0.2651122 0.2653795 0.265645 0.265903 0.266156 0.2664036 0.2666473 0.2668922
 0.2671314 0.2673439 0.2675203 0.2676829 0.2678705 0.2681056 0.2683735 0.2686376 0.2688761 0.2690972
 0.2693178 0.2695402 0.2697558 0.2699579 0.27015 0.2703553 0.2706049 0.2708993 0.2712029 0.2714894
 0.2717667 0.2720478 0.2723312 0.2726151 0.2728918 0.2731289 0.2732958 0.27342 0.2735893 0.2738845
 0.2743022 0.2747487 0.2751235 0.2754069 0.2756529 0.2759199 0.2762345 0.2765699 0.27682 0.2768697
 0.2767679 0.276761 0.2770683 0.277665 0.2783398 0.2789096 0.2793306 0.2796524 0.2799315 0.2801779
 0.2803501 0.2804055 0.2803843 0.2804466 0.2807619 0.2813282 0.2819535 0.2824552 0.2828082 0.283075
 0.2832993 0.2834998 0.2836304 0.2835244 0.2830709 0.2825175 0.2823994 0.2830226 0.2841197 0.2851317
 0.2857571 0.2861059 0.2863885 0.286658 0.2868708 0.2869318 0.2865636 0.2854637 0.2838888 0.2828215
 0.2831536 0.284783 0.2867829 0.2883288 0.2892182 0.2896622 0.2899252 0.2901467 0.2902363 0.2898905
 0.2889347 0.2877643 0.2872347 0.2878706 0.2892781 0.29057 0.2912686 0.2915436 0.2917369 0.2919842
 0.2921285 0.2916538 0.2899701 0.2872909 0.2850856 0.2850443 0.2874199 0.290723 0.2931989 0.2943371
 0.2947294 0.2947776 0.2941044 0.2922364 0.2893073 0.2859911 0.2833194 0.2825712 0.2844225 0.2878579
 0.2907436 0.2919394 0.2922584 0.2930822 0.2946955 0.2962893 0.2970251 0.2966902 0.2955488 0.2938747
 0.2918224 0.2898661 0.289063 0.2903022 0.293222 0.2963375 0.2984124 0.2993978 0.2997868 0.2991671
 0.2959286 0.2892077 0.281314 0.2770817 0.2795902 0.2869357 0.2942719 0.2985714 0.3002709 0.3009921
 0.3013917 0.3009797 0.2983823 0.2920765 0.2827609 0.2748752 0.2735971 0.2797105 0.2887194 0.2950602
 0.2959201 0.291537 0.2841672 0.2773929 0.2746629 0.2772042 0.2834944 0.2907665 0.2966689 0.2998945
 0.3001536 0.2980422 0.2949864 0.2928926 0.2927746 0.2932439 0.2915584 0.2870982 0.2824191 0.2794881
 0.2766087 0.27153 0.2664069 0.2663511 0.2728004 0.2811251 0.2858425 0.2861653 0.2849649 0.2835226
 0.2793004 0.2695819 0.2566289 0.2477176 0.2487653 0.2582008 0.2683918 0.2731223 0.272514 0.2707372
 0.27045 0.2701147 0.2661943 0.2577877 0.2489061 0.2450731 0.2474207 0.2516659 0.2531451 0.2505141
 0.2440461 0.2341247 0.2239528 0.2204643 0.2284127 0.2444931 0.259981 0.26793 0.2656318 0.2529409
 0.2332339 0.2154709 0.209815 0.2184988 0.2331023 0.2423323 0.2409661 0.2306625 0.2151014 0.1975386
 0.1823766 0.175513 0.18074 0.1959344 0.213277 0.2231456 0.2193697 0.2040121 0.1877674 0.1822334
 0.1893511 0.2001269 0.2047558 0.2015265 0.1952837 0.191148 0.1915726 0.1961012 0.2018647 0.2062115
 0.2088024 0.2086279 0.2011358 0.1837306 0.1631244 0.1509522 0.1516707 0.1601962 0.1712417 0.1840819
 0.1966164 0.2020819 0.1967047 0.1869319 0.1840034 0.1920149 0.2043792 0.2118744 0.2117665 0.2083279
 0.2061536 0.2052107 0.2031877 0.200889 0.2023989 0.2094956 0.2185843 0.2247116 0.226714 0.2268003
 0.2267923 0.2267455 0.2262081 0.225031 0.223277 0.2213337 0.2198028 0.2188095 0.2178941 0.2167281
 0.2150499 0.2115546 0.2042031 0.1931035 0.1823331 0.1767346 0.1768062 0.1789933 0.1809843 0.1830666
 0.1831673 0.1754835 0.1581819 0.139674 0.1324975 0.1412137 0.1590111 0.1754057 0.1842039 0.1839997
 0.1750678 0.1597154 0.145029 0.1406886 0.1510399 0.1708808 0.1910224 0.2062264 0.21583 0.2193556
 0.2155808 0.2057981 0.1951736 0.1898366 0.1931191 0.2040192 0.2175454 0.2260391 0.2228793 0.2090282
 0.1960671 0.197727 0.2154575 0.2360165 0.246353 0.2468748 0.2462734 0.248024 0.248604 0.2468942
 0.2480043 0.2561854 0.2685107 0.2777491 0.2787053 0.2702414 0.2546037 0.2379866 0.2289484 0.2315397
 0.2406903 0.2477356 0.2488291 0.2444234 0.2341146 0.2188068 0.2061993 0.2061499 0.2192254 0.2353833
 0.2453776 0.2491599 0.2517236 0.2545066 0.2536962 0.2460712 0.2344173 0.2258126 0.2246046 0.2285721
 0.2326201 0.2341595 0.2331445 0.2290107 0.2210244 0.2115971 0.2063151 0.2090855 0.2181234 0.2276886
 0.233283 0.2344779 0.2334553 0.2322372 0.231355 0.2300862 0.2278393 0.2259259 0.2273053 0.233344
 0.2415136 0.2479343 0.2518125 0.2556962 0.2614747 0.2677366 0.2714417 0.2712108 0.268642 0.2669424
 0.2683664 0.2724168 0.2762082 0.2769398 0.2745647 0.2720715 0.2727253 0.2769623 0.2823433 0.2863371
 0.288396 0.289427 0.2902918 0.2910834 0.2910877 0.2893468 0.2860388 0.2832855 0.28364 0.2875342
 0.2928453 0.297061 0.2992795 0.3000649 0.3000939 0.2994391 0.2979678 0.29599 0.2942714 0.2934458
 0.2935763 0.2943041 0.295237 0.2961199 0.2968188 0.2973101 0.2976508 0.2978934 0.2980624 0.2981982
 0.2983357 0.2984309 0.2984059 0.298302 0.2982961 0.2985042 0.2988259 0.2990442 0.2990154 0.298679
 0.2979515 0.2967519 0.2951359 0.2932786 0.2912807 0.2891093 0.2868454 0.2849472 0.2841142 0.2847745
 0.2866934 0.2891132 0.2912666 0.2927607 0.2935798 0.2938811 0.293845 0.2936232 0.2933125 0.2929331
 0.2924526 0.2918445 0.2911226 0.2903269 0.2895017 0.2886999 0.2879843 0.2873987 0.286935 0.2865389
 0.2861485 0.2857296 0.2852828 0.2848234 0.2843484 0.2838196 0.2831762 0.2823694 0.2814012 0.2803411
 0.2792996 0.2783714 0.2775861 0.276904 0.2762559 0.2755834 0.2748331 0.2739351 0.2728468 0.2716385
 0.2704852 0.2695244 0.2687388 0.2679954 0.2671615 0.2661676 0.2650048 0.2637038 0.2623094 0.2608563
 0.2593635 0.2578359 0.2562605 0.2546102 0.2528648 0.2510228 0.2490961 0.247102 0.2450603 0.242984
 0.2408565 0.2386073 0.2361125 0.2332281 0.2298306 0.225841 0.2212452 0.2161225 0.2106482 0.2050461
 0.1995288 0.1942677 0.1893927 0.1850085 0.1812094 0.1780787 0.1756755 0.1740322 0.1731609 0.1730505
 0.1736614 0.1749362 0.1768069 0.1791817 0.1819278 0.1848676 0.1877946 0.1905224 0.1929583 0.1951434
 0.1972029 0.199237 0.2012444 0.2031475 0.2048807 0.2064322 0.2077998 0.2089473 0.2098399 0.2104991
 0.2109884 0.2113527 0.211595 0.2116979 0.2116517 0.2114728 0.2112165 0.210984 0.2109094 0.2111123
 0.211633 0.2124184 0.2133801 0.2144531 0.2155949 0.2167605 0.2179056 0.2190038 0.2200494 0.2210529
 0.2220364 0.2230352 0.224103 0.2253076 0.2267022 0.2283031 0.2300919 0.2320195 0.233998 0.2359123
 0.2376535 0.2391387 0.2403165 0.2411776 0.2417559 0.2420981 0.2422386 0.2422064 0.2420371 0.2417671
 0.2414173 0.2409856 0.2404594 0.2398372 0.2391347 0.2383676 0.2375505 0.2367149 0.2359011 0.2351215
 0.2343554 0.2335843 0.2328105 0.2320475 0.23131 0.2306094 0.229939 0.2292719 0.228581 0.227858
 0.2271054 0.2263144 0.2254535 0.2244861 0.2234038 0.2222277 0.2209761 0.2196447 0.218222 0.2167026
 0.215089 0.2133984 0.2116615 0.2098938 0.2080785 0.2061838 0.2041805 0.2020466 0.1997941 0.1974976
 0.1952639 0.1931611 0.1911898 0.1893151 0.1875116 0.1857837 0.1841505 0.1826136 0.1811501 0.1797396
 0.1783832 0.1770888 0.1758604 0.1747036 0.1736253 0.1726311 0.1717325 0.1709439 0.1702605 0.169656
 0.1691089 0.1686194 0.1682049 0.167892 0.1676994 0.1676054 0.167542 0.1674297 0.1672187 0.1669106
 0.1665556 0.1662149 0.1659162 0.1656528 0.1654139 0.1651809 0.1648963 0.1644697 0.1638119 0.1628491
 0.161529 0.1598519 0.1578965 0.1558057 0.1537447 0.151854 0.1502201 0.1488793 0.1478295 0.1470232
 0.1463735 0.1458102 0.1453318 0.144994 0.144856 0.1449179 0.1450731 0.1451518 0.1450719 0.1449384
 0.1449556 0.1452518 0.145803 0.1464826 0.1471494 0.147711 0.148133 0.1484108 0.1485588 0.1486136
 0.1485986 0.1484953 0.1482824 0.1479807 0.1476275 0.1472341 0.1467923 0.1462875 0.1457004 0.1450211
 0.1442522 0.1433902 0.1424325 0.141391 0.1402539 0.1389819 0.1376269 0.136416 0.1356408 0.1354733
 0.1358869 0.1366932 0.1376617 0.1386583 0.139618 0.1403652 0.1406539 0.1405516 0.1406393 0.1415852
 0.14349 0.1457726 0.1477007 0.1489184 0.1494533 0.1494163 0.1488653 0.1478476 0.1463732 0.1443893
 0.1419048 0.1390603 0.1360094 0.1328684 0.12981 0.1270414 0.1246781 0.1227385 0.1212055 0.1201198
 0.1196275 0.119368 0.1174677 0.1115258 0.102297 0.09533978 0.09634529 0.1047389 0.1140756 0.1188613
 0.1189374 0.1172254 0.1157483 0.114819 0.1143311 0.1144124 0.1151923 0.1165425 0.1180623 0.1193076
 0.120088 0.1204532 0.1203783 0.1195174 0.1171664 0.112519 0.1053224 0.09643719 0.0875352 0.08013432
 0.07494153 0.07186677 0.07031865 0.06954683 0.06903442 0.06874304 0.06898581 0.07006016 0.07199714 0.07461834
 0.07771541 0.08104777 0.08423336 0.08687958 0.08888188 0.09042926 0.09168695 0.09262135 0.09313019 0.09318994
 0.09286426 0.09226875 0.09153292 0.09073581 0.08986118 0.08883485 0.08765179 0.08649097 0.08563402 0.08520907
 0.08508626 0.08506456 0.08505353 0.08503904 0.0850035 0.08493303 0.08483502 0.08475639 0.08481285 0.08511169
 0.08559969 0.08607762 0.08639021 0.08653346 0.086587 0.08658164 0.08641098 0.08592705 0.08520646 0.08457886
 0.08420341 0.08377504 0.08291472 0.08174448 0.08081558 0.08051842 0.08075523 0.08113959 0.08133888 0.08124202
 0.08097956 0.08086014 0.08115483 0.08179101</values></Ydata></ScSm><ScRf><Ydata ylabel="Single channel"><values byteorder="INTEL" format="FLOAT32" numvalues="1820"> 0.06051199 0.06067845 0.06078574 0.06082366 0.06081539 0.06081384 0.06087414 0.06101616 0.06120978 0.06139448
 0.06152056 0.06158001 0.06159382 0.06157456 0.06152782 0.06149174 0.0615346 0.0616873 0.06189547 0.06205476
 0.06209493 0.0620416 0.06200149 0.06205975 0.06216934 0.06216315 0.06191123 0.06146879 0.06104091 0.06079211
 0.06074306 0.06089139 0.06131234 0.06195914 0.06244055 0.06230047 0.06158943 0.06089174 0.06067564 0.06084488
 0.06101234 0.06094776 0.0606449 0.06023823 0.06005425 0.06052431 0.06175878 0.06319874 0.06382182 0.06278966
 0.06004251 0.05648943 0.05367922 0.052973 0.0545814 0.05727967 0.05932535 0.05984957 0.0592789 0.05846249
 0.05776495 0.05715936 0.05679731 0.05704653 0.05797211 0.05898621 0.0591434 0.0579416 0.05592424 0.05430715
 0.05387477 0.05448198 0.05569422 0.05725911 0.05844289 0.0576594 0.05403221 0.04936367 0.04732803 0.04997931
 0.0555607 0.06023027 0.06147943 0.05951952 0.05615245 0.05328017 0.05220368 0.05326588 0.05577393 0.05858166
 0.06079488 0.06181218 0.06116552 0.05892748 0.05610962 0.05416654 0.05410276 0.05608988 0.05943018 0.06260254
 0.06395137 0.06291929 0.06042237 0.05787584 0.05625826 0.05612113 0.05772888 0.06077449 0.06436335 0.06753978
 0.06968054 0.07054526 0.07032003 0.06950684 0.06854479 0.06773035 0.06748079 0.06807825 0.06898239 0.06903927
 0.06774446 0.06592841 0.06490619 0.06512129 0.06579253 0.06585706 0.06504099 0.06367545 0.06163888 0.05835766
 0.0541167 0.05038897 0.04836026 0.04803312 0.04911735 0.05149492 0.0541765 0.05522544 0.05386887 0.05185796
 0.05171993 0.05406933 0.05729565 0.05955562 0.06048441 0.06108158 0.06241088 0.06449647 0.06617296 0.06595775
 0.06352299 0.06052271 0.05942269 0.06108261 0.06393731 0.06593232 0.0666945 0.06729458 0.06837562 0.06915358
 0.0682316 0.06525465 0.06179944 0.06040102 0.06234391 0.06637509 0.06960878 0.06965365 0.06622206 0.06121214
 0.05723425 0.05580021 0.05690812 0.0600326 0.06470732 0.07000697 0.07431011 0.07620257 0.07550265 0.07318993
 0.0702907 0.06692692 0.06283778 0.0589504 0.05758395 0.06025473 0.06572919 0.07104872 0.0741709 0.07499076
 0.07418349 0.07193304 0.06813034 0.0636234 0.06063034 0.06101341 0.06403896 0.06679691 0.06725381 0.06610541
 0.06527176 0.06548894 0.06603793 0.06624331 0.06643687 0.06740576 0.06928258 0.0712559 0.07236493 0.07237223
 0.07180131 0.07132021 0.07113393 0.07083832 0.06999929 0.06904097 0.06918235 0.07109509 0.07396556 0.07632618
 0.07752199 0.0779371 0.07800432 0.07745621 0.07571553 0.07297955 0.07066151 0.0703382 0.07222015 0.07502108
 0.07729751 0.0784869 0.0787609 0.07849593 0.07802264 0.07752764 0.07710733 0.0769894 0.07747096 0.07848877
 0.079531 0.08014566 0.08030537 0.08017564 0.07979596 0.07915188 0.07840629 0.07789427 0.07788002 0.07835729
 0.07910112 0.0798685 0.08048064 0.08077499 0.08066048 0.08025502 0.07982191 0.07953016 0.07938784 0.0794009
 0.07963471 0.08007549 0.08055981 0.08090989 0.08107536 0.08110809 0.08105843 0.08093895 0.0807634 0.08059184
 0.08052841 0.08064599 0.08089719 0.08114827 0.08133736 0.08153641 0.08179997 0.08202609 0.08206101 0.08190118
 0.08170477 0.08161962 0.08166556 0.08177179 0.08185793 0.0818516 0.08168219 0.08134204 0.08096908 0.08079572
 0.08096591 0.08143417 0.08204706 0.08264951 0.08310959 0.08335088 0.08341033 0.08339619 0.08336163 0.08327115
 0.08309835 0.08291085 0.08284639 0.08301173 0.08338806 0.08383553 0.08420383 0.08442707 0.08452404 0.08456795
 0.08466016 0.08484943 0.08505277 0.08513034 0.0850618 0.08498204 0.08501909 0.08514893 0.08523789 0.08520254
 0.0851035 0.08507991 0.08520411 0.08541989 0.08562333 0.0857776 0.08593271 0.08613981 0.08635659 0.0864574
 0.08636481 0.08615495 0.08598504 0.08592708 0.08593664 0.08597812 0.08609156 0.08630167 0.08653036 0.08666112
 0.08666965 0.08664405 0.08667295 0.08674386 0.08676742 0.08668239 0.08651699 0.08635705 0.08627777 0.08630151
 0.08639261 0.08648008 0.08649987 0.08643442 0.08631702 0.08619627 0.08610131 0.08604904 0.08607566 0.08622378
 0.08647172 0.08669443 0.08673941 0.08656338 0.08628273 0.08607241 0.08601171 0.0860294 0.0859913 0.08582778
 0.08557613 0.08532234 0.08512559 0.08499274 0.08489862 0.08481961 0.08476317 0.08477253 0.08488003 0.08503725
 0.08511643 0.08501819 0.08477221 0.08450569 0.08432462 0.08425073 0.08424678 0.08426143 0.08426572 0.08427911
 0.0843402 0.08443192 0.0844738 0.0844166 0.08430725 0.0842395 0.08427732 0.08443119 0.08465119 0.08482979
 0.08487123 0.08478673 0.08468522 0.08465764 0.08470485 0.08478144 0.08486375 0.08495386 0.08505035 0.08514874
 0.08526338 0.08542541 0.08565073 0.08591405 0.08615707 0.08632807 0.0864254 0.08650887 0.08665912 0.08691343
 0.08723697 0.08755431 0.08780868 0.08799848 0.08816393 0.08833972 0.08852755 0.08872197 0.08894524 0.08922748
 0.0895579 0.08988781 0.09018449 0.0904582 0.09073417 0.09102039 0.09131077 0.09161054 0.09194969 0.09235574
 0.09280106 0.09319404 0.09345311 0.09358934 0.09370166 0.09389795 0.09422134 0.09461986 0.0949702 0.09517142
 0.09524888 0.09533691 0.09553111 0.09579232 0.09603244 0.09625674 0.09656038 0.09699109 0.09746842 0.09785656
 0.09809306 0.09823315 0.09837864 0.09857249 0.09876579 0.09889154 0.09895672 0.09903391 0.09916937 0.09934659
 0.09955408 0.09983283 0.1002136 0.1006433 0.1010221 0.1012986 0.1014924 0.1016429 0.1017693 0.1018679
 0.1019233 0.1019348 0.1019439 0.1020051 0.1021173 0.1022167 0.1022582 0.1022738 0.1023295 0.1024587
 0.1026607 0.1029291 0.1032421 0.1035468 0.1038046 0.1040526 0.1043671 0.1047486 0.1050853 0.1052706
 0.1053226 0.105342 0.1053839 0.105434 0.1054953 0.1056232 0.1058556 0.1061641 0.1064957 0.1068289
 0.1071697 0.1075148 0.1078323 0.1080709 0.1081895 0.1081937 0.1081482 0.1081458 0.108256 0.1084907
 0.1088048 0.1091291 0.1094105 0.1096189 0.1097267 0.1097167 0.1096328 0.109589 0.1096802 0.1098784
 0.1100457 0.1100519 0.1098573 0.1094878 0.108975 0.1083465 0.1076566 0.106992 0.1064374 0.1060409
 0.105819 0.1057925 0.1060004 0.1064569 0.1070968 0.1077914 0.1084244 0.1089247 0.1092247 0.1092395
 0.1089296 0.1083575 0.1076522 0.1069304 0.1062605 0.1056596 0.1050953 0.1045272 0.1039949 0.1036529
 0.103694 0.1042337 0.1052591 0.1066412 0.1081718 0.1096271 0.1108557 0.1118338 0.1126356 0.1133489
 0.1140219 0.114676 0.1153332 0.1159991 0.1166352 0.117187 0.1176448 0.1180523 0.1184513 0.1188425
 0.1191969 0.1194866 0.1197104 0.1199033 0.1201029 0.1202915 0.1203988 0.1203836 0.1202835 0.1201654
 0.1200492 0.1198969 0.1196554 0.1192993 0.1188646 0.11847 0.1182976 0.1185171 0.1191902 0.1202305
 0.1214672 0.1227568 0.1240213 0.1251876 0.1261516 0.1268408 0.1272859 0.127594 0.1278649 0.1281489
 0.1284557 0.1287729 0.129081 0.1293712 0.1296515 0.1299386 0.1302496 0.1305872 0.1309255 0.1312219
 0.1314608 0.1316804 0.1319454 0.1322884 0.1326779 0.1330482 0.1333659 0.133659 0.1339668 0.1342759
 0.1345346 0.1347257 0.1348932 0.1350986 0.1353759 0.135722 0.1360975 0.1364368 0.1366906 0.1368686
 0.1370267 0.1372113 0.1374288 0.1376637 0.1379062 0.1381553 0.1384118 0.1386803 0.1389724 0.1392906
 0.1396035 0.1398581 0.1400317 0.1401611 0.1403076 0.1404984 0.1407127 0.1409183 0.1411107 0.1413195
 0.1415796 0.1418911 0.142206 0.1424626 0.1426366 0.1427582 0.1428826 0.1430484 0.1432569 0.1434823
 0.1436958 0.1438866 0.1440652 0.1442516 0.1444588 0.1446837 0.14491 0.1451223 0.1453184 0.1455105
 0.1457133 0.1459326 0.1461661 0.1464158 0.1466878 0.1469754 0.1472497 0.1474791 0.1476574 0.1478036
 0.1479405 0.1480835 0.1482417 0.1484183 0.1486077 0.1488013 0.148996 0.1491938 0.1493952 0.1495979
 0.1498005 0.1500055 0.1502149 0.1504268 0.1506387 0.1508529 0.1510747 0.1513029 0.1515272 0.1517362
 0.1519285 0.1521142 0.1523062 0.1525059 0.1527005 0.1528795 0.1530503 0.1532304 0.153428 0.1536373
 0.1538492 0.1540567 0.1542557 0.1544474 0.1546384 0.1548337 0.1550315 0.1552282 0.1554244 0.1556228
 0.1558211 0.1560114 0.1561892 0.1563618 0.1565432 0.1567412 0.1569522 0.1571694 0.1573884 0.1576049
 0.1578123 0.1580056 0.158186 0.1583615 0.1585436 0.1587385 0.1589434 0.1591523 0.1593612 0.1595691
 0.1597774 0.1599878 0.1601993 0.1604077 0.1606125 0.1608166 0.1610198 0.1612172 0.1614082 0.1615992
 0.1617976 0.1620068 0.1622264 0.1624525 0.1626798 0.1629055 0.1631282 0.1633457 0.1635551 0.1637534
 0.1639359 0.1641005 0.1642541 0.1644101 0.1645798 0.1647666 0.1649655 0.1651657 0.1653595 0.1655493
 0.1657409 0.1659349 0.1661286 0.1663214 0.166514 0.1667085 0.1669115 0.167127 0.1673472 0.1675588
 0.1677575 0.1679515 0.1681521 0.1683621 0.1685729 0.1687751 0.1689709 0.1691693 0.1693732 0.1695804
 0.169791 0.170005 0.1702206 0.1704384 0.1706589 0.1708749 0.1710804 0.1712806 0.1714819 0.1716826
 0.1718812 0.1720817 0.1722871 0.1724973 0.1727125 0.1729301 0.1731466 0.1733662 0.1735949 0.1738258
 0.1740466 0.1742568 0.1744646 0.1746751 0.1748891 0.1751024 0.1753074 0.1755064 0.1757118 0.1759245
 0.1761329 0.1763359 0.1765399 0.1767299 0.176856 0.1768053 0.1763087 0.1748244 0.1715116 0.165396
 0.1557622 0.1426039 0.1267825 0.1097223 0.09288238 0.07736741 0.0638196 0.05251657 0.04352047 0.03676147
 0.03208654 0.02935593 0.02855061 0.0298797 0.03389274 0.04115224 0.05100384 0.06048733 0.06548798 0.06398552
 0.05798677 0.05169635 0.04802172 0.04717129 0.04791375 0.04920278 0.05070455 0.05259608 0.05518939 0.05857268
 0.06259509 0.06725922 0.07290709 0.07978548 0.08753531 0.09534623 0.1026502 0.1095591 0.1165905 0.1240373
 0.1316515 0.1388812 0.1453073 0.1508542 0.1557029 0.1600947 0.1641962 0.1680849 0.1717996 0.1753361
 0.1785639 0.1811987 0.1829441 0.1837142 0.1837323 0.1834058 0.1830942 0.1829703 0.1830547 0.1833166
 0.1837282 0.1842699 0.1849275 0.1856824 0.1865018 0.1873492 0.1881987 0.1890291 0.189816 0.1905429
 0.1912075 0.1918115 0.1923588 0.1928618 0.1933338 0.1937773 0.1941896 0.1945734 0.1949339 0.1952743
 0.1955964 0.1959004 0.1961837 0.1964453 0.1966883 0.1969171 0.1971372 0.1973548 0.1975726 0.1977886
 0.1980041 0.1982232 0.1984431 0.1986539 0.1988507 0.1990384 0.1992247 0.1994148 0.1996109 0.1998096
 0.2000063 0.2002015 0.2003997 0.2006024 0.2008059 0.201007 0.2012033 0.201393 0.2015764 0.2017592
 0.2019487 0.2021476 0.2023507 0.2025496 0.202744 0.202943 0.2031522 0.2033662 0.20358 0.2037971
 0.2040187 0.2042371 0.2044474 0.2046536 0.204855 0.2050378 0.2051933 0.2053366 0.2055007 0.205708
 0.205949 0.2061898 0.206405 0.2065976 0.2067843 0.2069731 0.2071604 0.2073414 0.2075195 0.2077106
 0.2079335 0.2081863 0.2084439 0.2086872 0.2089187 0.2091455 0.2093689 0.2095937 0.2098224 0.2100364
 0.2102111 0.2103574 0.2105315 0.2107906 0.2111336 0.2114917 0.2117907 0.2120187 0.212221 0.2124456
 0.2127117 0.212993 0.2132035 0.213258 0.2132012 0.2132228 0.2134835 0.2139608 0.2145005 0.2149745
 0.2153521 0.2156631 0.2159365 0.216166 0.2163124 0.2163499 0.2163299 0.2163903 0.2166599 0.2171263
 0.2176338 0.2180389 0.2183233 0.21854 0.2187271 0.2189013 0.2190305 0.2189911 0.2186946 0.2183177
 0.2182598 0.2187573 0.2196157 0.2204154 0.2209265 0.2212304 0.2214871 0.2217405 0.2219594 0.2220675
 0.2218428 0.2210436 0.2198652 0.2190725 0.2193649 0.2206693 0.2222647 0.2235056 0.2242303 0.2246023
 0.2248304 0.2250284 0.2251312 0.2249058 0.2242167 0.223369 0.2230251 0.2235905 0.2247532 0.225814
 0.2263985 0.2266522 0.2268589 0.2271276 0.2273212 0.227018 0.225749 0.2236891 0.2220035 0.2220265
 0.2239567 0.2266209 0.2286365 0.2295978 0.2299691 0.2300717 0.229614 0.2282196 0.2259836 0.2234311
 0.221379 0.220847 0.2223773 0.2251685 0.2275264 0.2285388 0.2288431 0.2295393 0.2308699 0.2322079
 0.232886 0.2327194 0.2319028 0.2306494 0.2290863 0.2275979 0.2270294 0.2280864 0.2304814 0.2330405
 0.2347848 0.2356679 0.2360716 0.2356676 0.2331842 0.2279406 0.2217705 0.2185083 0.2205963 0.2265241
 0.2324496 0.235974 0.2374437 0.2381382 0.2385679 0.2383391 0.236366 0.2314453 0.2241322 0.2179548
 0.2170371 0.2220124 0.2293081 0.2344891 0.2352991 0.2319136 0.2261337 0.2208321 0.2187729 0.22094
 0.2261185 0.2320914 0.2369651 0.239686 0.2400261 0.2384706 0.2361691 0.2346562 0.2347417 0.2352945
 0.2340984 0.2306577 0.2270373 0.2248251 0.2226536 0.2187066 0.2147246 0.2148461 0.2202468 0.2271861
 0.2312206 0.2317066 0.2309657 0.2300274 0.2268186 0.2191199 0.2087693 0.2017132 0.2028076 0.2107794
 0.2193755 0.2235014 0.2232653 0.22209 0.2221465 0.2221577 0.2192043 0.2125447 0.2055056 0.2026699
 0.2049742 0.2088587 0.2104512 0.2086318 0.2036083 0.1956824 0.1875429 0.1850399 0.1922118 0.2063085
 0.2199748 0.2273088 0.2259547 0.2157176 0.1994463 0.1848469 0.1807101 0.1889932 0.2024277 0.2112267
 0.210825 0.202605 0.1897282 0.1750546 0.1625291 0.1574742 0.1633678 0.1783722 0.1954217 0.2056696
 0.2033176 0.1901742 0.1761883 0.1722607 0.1802363 0.1916097 0.1970841 0.1950316 0.1900618 0.1871074
 0.1886167 0.1941894 0.2009802 0.2063554 0.2099821 0.2107564 0.2039345 0.186824 0.166297 0.1542784
 0.1553598 0.1643818 0.1759755 0.1894125 0.2024958 0.2082082 0.2026341 0.1924241 0.1891821 0.1971433
 0.2095339 0.2168757 0.2163761 0.2124568 0.209878 0.2086455 0.2064131 0.2040067 0.2055874 0.2129463
 0.2223994 0.2288976 0.2312605 0.2317341 0.2321632 0.2325858 0.2325153 0.2317797 0.2304457 0.2289315
 0.2278803 0.2274351 0.2271113 0.2265421 0.225432 0.2223866 0.2152229 0.2040338 0.1931468 0.1877018
 0.1881945 0.1908088 0.1930717 0.1952837 0.1952425 0.1867884 0.1679596 0.1476426 0.1391069 0.1471888
 0.1646904 0.1805583 0.1883511 0.1867786 0.176357 0.1595642 0.1434936 0.1376895 0.1463787 0.1643907
 0.1826532 0.1960144 0.2039194 0.2061056 0.2015539 0.1915129 0.1807935 0.1750495 0.1772918 0.1865208
 0.1981108 0.205077 0.2014579 0.1881831 0.1757245 0.1764474 0.1916773 0.2095556 0.2183683 0.2184385
 0.2175319 0.2187862 0.2190732 0.2173643 0.2181801 0.2253287 0.2362689 0.2446117 0.2457275 0.238566
 0.2250982 0.2108408 0.2034335 0.2064717 0.2153631 0.2222871 0.223756 0.2201554 0.211124 0.1975291
 0.1864067 0.1867197 0.1989677 0.2140138 0.2234652 0.2273066 0.2300999 0.233138 0.2329079 0.2264577
 0.2163689 0.2091771 0.2089066 0.2135361 0.2183922 0.2210789 0.2214785 0.2189295 0.212654 0.2049604
 0.2012589 0.2053311 0.2153859 0.2257236 0.23182 0.2331319 0.231729 0.2296196 0.2274258 0.2245601
 0.2205416 0.2167077 0.2159673 0.2196985 0.2255554 0.2298764 0.2318793 0.2339315 0.2378319 0.2423406
 0.2446943 0.2436209 0.2405408 0.238316 0.2389472 0.2419875 0.2448819 0.2451525 0.242759 0.2403575
 0.2408538 0.2446342 0.2495185 0.2532378 0.2552791 0.2564183 0.2573953 0.2582714 0.2583865 0.2568626
 0.253844 0.2512186 0.2512717 0.2544085 0.2587653 0.2621383 0.2637706 0.2642165 0.2641091 0.2635058
 0.262255 0.2605948 0.2591785 0.2585552 0.258773 0.2594974 0.260362 0.2611377 0.2617234 0.2621191
 0.2623808 0.2625484 0.2626419 0.2627106 0.262802 0.2628762 0.2628499 0.2627522 0.2627468 0.2629421
 0.263249 0.2634783 0.263512 0.2633033 0.2627777 0.2618613 0.2606045 0.2591634 0.257619 0.2559271
 0.2541542 0.2527203 0.2522628 0.2531589 0.2551785 0.2576256 0.2598063 0.2613735 0.2623274 0.2628281
 0.2630512 0.2631329 0.2631491 0.2631101 0.26299 0.2627706 0.2624608 0.2620847 0.2616719 0.2612599
 0.2608906 0.2605875 0.2603327 0.2600737 0.2597553 0.2593501 0.2588654 0.2583323 0.2577801 0.2572078
 0.2565775 0.2558436 0.2549923 0.2540593 0.2531173 0.2522393 0.251451 0.2507114 0.2499528 0.2491336
 0.2482352 0.2472265 0.246093 0.2449105 0.2438359 0.2429794 0.2423044 0.2416758 0.2409794 0.2401755
 0.2392749 0.2383091 0.2373122 0.2362958 0.23524 0.2341216 0.2329381 0.2316915 0.2303677 0.2289493
 0.2274379 0.2258553 0.2242334 0.2225991 0.2209439 0.219196 0.21723 0.2149079 0.2121096 0.2087499
 0.2048058 0.2003464 0.1955318 0.190571 0.1856669 0.180987 0.1766629 0.172797 0.1694647 0.1667249
 0.1646341 0.1632433 0.1625767 0.162625 0.1633613 0.1647494 0.1667308 0.169205 0.1720244 0.1750095
 0.1779786 0.1807836 0.1833457 0.1856779 0.1878565 0.1899399 0.1919103 0.1937058 0.1952937 0.1966857
 0.1978966 0.1989231 0.1997678 0.200458 0.2010311 0.2015123 0.2019146 0.2022557 0.2025594 0.2028354
 0.2030709 0.2032587 0.2034238 0.2036071 0.2038271 0.2040724 0.2043284 0.2046061 0.2049425 0.2053701
 0.2058856 0.206454 0.2070443 0.2076499 0.2082768 0.2089326 0.2096377 0.2104351 0.2113757 0.212488
 0.2137585 0.2151356 0.2165433 0.2178915 0.2190907 0.2200762 0.2208233 0.2213382 0.2216404 0.2217578
 0.2217211 0.2215514 0.221262 0.2208736 0.2204125 0.2198936 0.2193187 0.2186915 0.2180246 0.2173343
 0.2166355 0.2159398 0.2152512 0.2145668 0.213886 0.213216 0.2125682 0.2119483 0.2113538 0.2107789
 0.21022 0.2096727 0.2091264 0.2085685 0.2079905 0.2073838 0.2067297 0.2060025 0.2051847 0.2042723
 0.2032659 0.2021652 0.2009771 0.1997175 0.1983933 0.1969899 0.1954892 0.1938971 0.1922407 0.1905343
 0.1887567 0.1868728 0.1848834 0.1828515 0.1808718 0.1790158 0.1773069 0.1757321 0.1742622 0.1728664
 0.1715263 0.1702387 0.1690054 0.1678271 0.1667055 0.1656417 0.164634 0.163683 0.1627963 0.1619846
 0.1612593 0.1606292 0.1600918 0.1596318 0.1592328 0.1588877 0.1586065 0.158421 0.1583611 0.1584071
 0.1584835 0.1585136 0.1584665 0.1583542 0.1582116 0.1580803 0.1579867 0.1579303 0.1578943 0.1578472
 0.1577217 0.1574174 0.1568383 0.1559314 0.1547009 0.153196 0.1514883 0.1496686 0.1478589 0.146191
 0.144757 0.1435981 0.1427238 0.1420983 0.1416323 0.1412407 0.140911 0.140695 0.1406513 0.1407849
 0.141005 0.1411678 0.1412146 0.1412473 0.1414344 0.1418703 0.1425311 0.1433079 0.1440682 0.1447218
 0.145236 0.1455959 0.1457984 0.1458832 0.1459034 0.1458683 0.145761 0.1455868 0.1453605 0.1450786
 0.1447281 0.1442946 0.1437692 0.1431711 0.1425304 0.1418383 0.1410607 0.1401847 0.1391895 0.138035
 0.1367764 0.1356439 0.1349273 0.1347975 0.1352355 0.1360639 0.1370636 0.138111 0.13914 0.1399636
 0.1403324 0.1403156 0.1404862 0.141513 0.1435303 0.1459892 0.1481404 0.1495835 0.1503184 0.1504396
 0.149987 0.149008 0.147543 0.1455711 0.1431046 0.1402654 0.1372007 0.1340548 0.1310299 0.1283134
 0.1259752 0.1240379 0.1225379 0.1215444 0.1211874 0.1210744 0.1192775 0.1133354 0.1040311 0.0970664
 0.09824879 0.106957 0.1165911 0.1215499 0.1216836 0.1199818 0.1185108 0.1175815 0.1170787 0.117133
 0.1178643 0.1191332 0.1205687 0.1217777 0.1225771 0.1229789 0.1229309 0.1220755 0.1196821 0.11491
 0.1074979 0.09834192 0.08918418 0.08160372 0.07630903 0.07316817 0.07156966 0.07077344 0.07026094 0.06997842
 0.07023548 0.07132821 0.07328151 0.07592991 0.07909367 0.08254097 0.08587798 0.08870089 0.09088748 0.09259693
 0.09397389 0.0949801 0.09551561 0.09557536 0.09525395 0.09467533 0.09394958 0.09314355 0.0922424 0.09117088
 0.08993503 0.08874403 0.08789083 0.0874814 0.08736593 0.08734047 0.08731068 0.08726262 0.08719784 0.0871246
 0.08705559 0.08702634 0.08712851 0.08745077 0.08795436 0.08846687 0.08882226 0.08898397 0.08903463 0.08903027
 0.08885506 0.08832744 0.08752242 0.08680478 0.08636239 0.08588247 0.08494824 0.0836557 0.08258121 0.0821685
 0.08234104 0.08269566 0.08288954 0.0828183 0.08260461 0.08252236 0.0828023 0.08335941 0.08377981 0.08371463
</values></Ydata></ScRf><Data_Parameters_AB><parameter name="DPF">1</parameter><parameter name="NPT">3497</parameter><parameter name="FXV">3996</parameter><parameter name="LXV">500</parameter><parameter name="CSF">1</parameter><parameter name="MXY">0.0281074251979589</parameter><parameter name="MNY">-0.129880681633949</parameter><parameter name="DAT">27/05/2022</parameter><parameter name="TIM">11:49:55.864 (GMT+2)</parameter><parameter name="DXU">WN</parameter></Data_Parameters_AB><AB__Qtest><MainReport name="Quality Test Report"><Header><Line><Legend>Test result ok/not ok [1/0]: </Legend><Value>0</Value></Line><Line><Legend>Method file: </Legend><Value>C:\Users\Public\Documents\Bruker\OPUS_8.2.28\QT\IRBT_v3_default.QT</Value></Line></Header><Matrix><Line><Legend></Legend><Legend>min</Legend><Legend>max</Legend><Legend>measured</Legend></Line><Line><Value>Absorption (X-Range 1):</Value><Value>0.400000</Value><Value>2.000000</Value><Value>0.127142</Value></Line><Line><Value>Noise (X-Range 4):</Value><Value></Value><Value>0.000300</Value><Value>0.000057</Value></Line><Line><Value>Signal/Noise (X-Range 2):</Value><Value>200.000000</Value><Value></Value><Value>34.945262</Value></Line><Line><Value>Signal/Noise (X-Range 3):</Value><Value>40.000000</Value><Value></Value><Value>22.467843</Value></Line><Line><Value>Water vapour (X-Range 5):</Value><Value></Value><Value>0.000300</Value><Value>0.000053</Value></Line><Line><Value>Signal/Water (X-Range 2):</Value><Value>100.000000</Value><Value></Value><Value>37.170582</Value></Line><Line><Value>Signal/Water (X-Range 3):</Value><Value>20.000000</Value><Value></Value><Value>23.898599</Value></Line><Line><Value>Fringes (X-Range 6):</Value><Value></Value><Value>0.000100</Value><Value>0.000062</Value></Line></Matrix></MainReport></AB__Qtest><Data_Parameters_ScSm><parameter name="DPF">1</parameter><parameter name="NPT">1814</parameter><parameter name="FXV">3996.33169228125</parameter><parameter name="LXV">499.541461535156</parameter><parameter name="CSF">1</parameter><parameter name="MXY">0.301391661167145</parameter><parameter name="MNY">0.0384965166449547</parameter><parameter name="DAT">27/05/2022</parameter><parameter name="TIM">11:49:55.864 (GMT+2)</parameter><parameter name="DXU">WN</parameter></Data_Parameters_ScSm><Data_Parameters_ScRf><parameter name="DPF">1</parameter><parameter name="NPT">1820</parameter><parameter name="FXV">4004.04661832813</parameter><parameter name="LXV">495.683998511719</parameter><parameter name="CSF">1</parameter><parameter name="MXY">0.264216542243958</parameter><parameter name="MNY">0.0285506118088961</parameter><parameter name="DAT">27/05/2022</parameter><parameter name="TIM">11:49:30.015 (GMT+2)</parameter><parameter name="DXU">WN</parameter></Data_Parameters_ScRf><Optic_Parameters_Rf><parameter name="APR">0</parameter><parameter name="APT">Open</parameter><parameter name="BMS">KBr</parameter><parameter name="DTC">RT-DLaTGS_IR-Biotyper [Microplate reader]</parameter><parameter name="HPF">0</parameter><parameter name="LPF">10.0</parameter><parameter name="LPV">4000</parameter><parameter name="PGR">0</parameter><parameter name="RCH">Module port</parameter><parameter name="RDX">0</parameter><parameter name="SRC">MIR</parameter><parameter name="VEL">10.0</parameter><parameter name="SON">Off</parameter></Optic_Parameters_Rf><Acquisition_Parameters_Rf><parameter name="ADT">1</parameter><parameter name="AQM">DD</parameter><parameter name="CFE">0</parameter><parameter name="COR">0</parameter><parameter name="DEL">0</parameter><parameter name="DLY">0</parameter><parameter name="HFW">8000</parameter><parameter name="LFW">0</parameter><parameter name="NSR">32</parameter><parameter name="PLF">AB</parameter><parameter name="RES">6</parameter><parameter name="RGN">-1</parameter><parameter name="STR">0</parameter><parameter name="TCL">MakeCompatibleScalar (0, {WSV=1.000000, ARV=0});</parameter><parameter name="TDL">37</parameter><parameter name="RPO">0</parameter></Acquisition_Parameters_Rf><FT_-_Parameters_Rf><parameter name="APF">B3</parameter><parameter name="HFQ">500</parameter><parameter name="LFQ">4000</parameter><parameter name="NLI">0</parameter><parameter name="PHR">24</parameter><parameter name="PHZ">ML</parameter><parameter name="SPZ">NO</parameter><parameter name="ZFF">1</parameter></FT_-_Parameters_Rf><Optic_Parameters_><parameter name="APR">0</parameter><parameter name="APT">Open</parameter><parameter name="BMS">KBr</parameter><parameter name="CHN">Module port</parameter><parameter name="DTC">RT-DLaTGS_IR-Biotyper [Microplate reader]</parameter><parameter name="HPF">0</parameter><parameter name="LPF">10.0</parameter><parameter name="LPV">4000</parameter><parameter name="PGN">0</parameter><parameter name="RDX">0</parameter><parameter name="SRC">MIR</parameter><parameter name="VEL">10.0</parameter><parameter name="SON">Off</parameter></Optic_Parameters_><FT_-_Parameters_><parameter name="APF">B3</parameter><parameter name="HFQ">500</parameter><parameter name="LFQ">4000</parameter><parameter name="NLI">0</parameter><parameter name="PHR">24</parameter><parameter name="PHZ">ML</parameter><parameter name="SPZ">NO</parameter><parameter name="ZFF">1</parameter></FT_-_Parameters_><Acquisition_Parameters_><parameter name="ADT">1</parameter><parameter name="AQM">DD</parameter><parameter name="CFE">0</parameter><parameter name="COR">0</parameter><parameter name="DEL">0</parameter><parameter name="DLY">0</parameter><parameter name="HFW">8000</parameter><parameter name="LFW">0</parameter><parameter name="NSS">32</parameter><parameter name="PLF">AB</parameter><parameter name="RES">6</parameter><parameter name="SOT">0</parameter><parameter name="TCL">MakeCompatibleScalar (0, {WSV=1.000000, ARV=0});</parameter><parameter name="TDL">37</parameter><parameter name="SPO">0</parameter><parameter name="SGN">-1</parameter></Acquisition_Parameters_><Instrument_Parameters_Rf><parameter name="HFL">15800.168544</parameter><parameter name="LFL">0</parameter><parameter name="LWN">15800.168544</parameter><parameter name="ABP">32197</parameter><parameter name="SSP">1</parameter><parameter name="ARG">2</parameter><parameter name="ASG">2</parameter><parameter name="ASS">32</parameter><parameter name="GFW">16</parameter><parameter name="GBW">16</parameter><parameter name="BFW">0</parameter><parameter name="BBW">0</parameter><parameter name="PKA">7263</parameter><parameter name="PKL">4996</parameter><parameter name="PRA">7444</parameter><parameter name="PRL">5001</parameter><parameter name="P2A">1</parameter><parameter name="P2L">1</parameter><parameter name="P2R">1</parameter><parameter name="P2K">1</parameter><parameter name="DAQ">0</parameter><parameter name="AG2">1</parameter><parameter name="SSM">1</parameter><parameter name="RSN">24896</parameter><parameter name="CRR">0</parameter><parameter name="SRT">1653652170.015</parameter><parameter name="DUR">19.6349945068359</parameter><parameter name="TSC">27.8</parameter><parameter name="MVD">0.293315559625626</parameter><parameter name="AN1">0.22578650321738</parameter><parameter name="AN2">0</parameter><parameter name="VSN">2.485 Apr  4 2017</parameter><parameter name="SRN">0085</parameter><parameter name="CAM">0</parameter><parameter name="INS">IR-Biotyper</parameter><parameter name="FOC">69</parameter><parameter name="RDY">1</parameter><parameter name="ARS">32</parameter></Instrument_Parameters_Rf><Sample_Parameters_><parameter name="BLD"></parameter><parameter name="CNM">Admin</parameter><parameter name="CPY"></parameter><parameter name="DPM"></parameter><parameter name="EXP">IRBT_v3_32Scans.XPM</parameter><parameter name="LCT"></parameter><parameter name="SFM">Microplate, HTS-XT</parameter><parameter name="SNM">220527-1039(v.2)_CLA33F (D_3)_H6_c4447696-d89a-42af-b480-96f0e63b3c6d.0</parameter><parameter name="XPP">C:\Users\Public\Documents\Bruker\OPUS_8.2.28\XPM</parameter><parameter name="IST">OK</parameter><parameter name="CPG">1252</parameter><parameter name="UID">b2714c26-57bb-4abf-babd-c3f0d4cac00a</parameter></Sample_Parameters_><Instrument_Parameters_><parameter name="HFL">15800.168544</parameter><parameter name="LFL">0</parameter><parameter name="LWN">15800.168544</parameter><parameter name="ABP">32197</parameter><parameter name="SSP">1</parameter><parameter name="ASG">2</parameter><parameter name="ARG">2</parameter><parameter name="ASS">32</parameter><parameter name="GFW">16</parameter><parameter name="GBW">16</parameter><parameter name="BFW">0</parameter><parameter name="BBW">0</parameter><parameter name="PKA">8549</parameter><parameter name="PKL">4988</parameter><parameter name="PRA">8792</parameter><parameter name="PRL">4993</parameter><parameter name="P2A">1</parameter><parameter name="P2L">1</parameter><parameter name="P2R">1</parameter><parameter name="P2K">1</parameter><parameter name="DAQ">0</parameter><parameter name="AG2">1</parameter><parameter name="SSM">1</parameter><parameter name="RSN">13074</parameter><parameter name="CRR">0</parameter><parameter name="SRT">1653652195.864</parameter><parameter name="DUR">19.635986328125</parameter><parameter name="TSC">27.8</parameter><parameter name="MVD">0.234002605080605</parameter><parameter name="AN1">0.22577947697324</parameter><parameter name="AN2">0</parameter><parameter name="VSN">2.485 Apr  4 2017</parameter><parameter name="SRN">0085</parameter><parameter name="CAM">0</parameter><parameter name="INS">IR-Biotyper</parameter><parameter name="FOC">69</parameter><parameter name="RDY">1</parameter></Instrument_Parameters_><History/></OPUSDataFile>
