<?xml version="1.0" encoding="UTF-8" ?>
<OPUSDataFile><AB><Ydata ylabel="Absorbance Units"><values byteorder="INTEL" format="FLOAT32" numvalues="3497"> -0.06579585 -0.06582393 -0.0658607 -0.06590765 -0.0659422 -0.06596322 -0.06596139 -0.06593791 -0.06590505 -0.06586498
 -0.06583745 -0.06582119 -0.06582323 -0.0658388 -0.0658595 -0.06588376 -0.06590375 -0.06592409 -0.06594746 -0.06597643
 -0.06601648 -0.06605973 -0.06610506 -0.06614001 -0.06615882 -0.06615829 -0.06613468 -0.06609835 -0.06604919 -0.06600522
 -0.06596809 -0.065952 -0.06595783 -0.0659828 -0.06602538 -0.0660646 -0.06609943 -0.06611103 -0.06610389 -0.06608265
 -0.06605464 -0.06604113 -0.06604206 -0.0660701 -0.06611335 -0.06616443 -0.06620984 -0.06623376 -0.06623814 -0.06621636
 -0.066186 -0.06615221 -0.06612711 -0.06611684 -0.06611479 -0.06612109 -0.06612638 -0.0661288 -0.06613657 -0.06615005
 -0.06618569 -0.066243 -0.06631999 -0.06641302 -0.066498 -0.06657413 -0.06662378 -0.0666526 -0.0666653 -0.06666712
 -0.0666703 -0.06667341 -0.06668063 -0.06668619 -0.0666866 -0.06667862 -0.06665821 -0.06662916 -0.06659053 -0.06655211
 -0.06651586 -0.06649034 -0.06647752 -0.06647991 -0.06649803 -0.06653202 -0.06658191 -0.06664778 -0.06672926 -0.0668226
 -0.06692552 -0.06702329 -0.06711157 -0.06716549 -0.06718515 -0.06715504 -0.0670855 -0.06698488 -0.06686712 -0.0667515
 -0.06664684 -0.06656753 -0.06651329 -0.0664892 -0.06648712 -0.06650493 -0.06653707 -0.06658096 -0.06663852 -0.06671077
 -0.06679191 -0.0668827 -0.06696053 -0.0670241 -0.06705691 -0.06706021 -0.06704916 -0.06702738 -0.06702661 -0.06704561
 -0.0670994 -0.06717852 -0.06726883 -0.06735902 -0.06742083 -0.06745613 -0.06745222 -0.06742559 -0.06738644 -0.06734373
 -0.06730742 -0.06727278 -0.06723838 -0.06720745 -0.06717723 -0.0671693 -0.06718598 -0.06725051 -0.06736759 -0.067527
 -0.06772905 -0.06788494 -0.06798995 -0.06794679 -0.06777118 -0.06751524 -0.06719907 -0.06692927 -0.06670463 -0.0665764
 -0.0665326 -0.0665803 -0.06669613 -0.06685983 -0.06704033 -0.06720506 -0.06733774 -0.06741612 -0.06745158 -0.06744179
 -0.06740624 -0.06735039 -0.06728223 -0.06720356 -0.06712013 -0.0670318 -0.06695429 -0.06688847 -0.06685187 -0.06684441
 -0.06686807 -0.06691979 -0.06698131 -0.06704929 -0.06710025 -0.06713569 -0.06714731 -0.06713867 -0.06711319 -0.06707074
 -0.06701119 -0.06693808 -0.06685056 -0.06676369 -0.06668356 -0.06662873 -0.06660888 -0.06663027 -0.0667 -0.06679992
 -0.06693073 -0.06705732 -0.06717652 -0.06725854 -0.06730126 -0.06729379 -0.06723688 -0.06714125 -0.06700979 -0.06686638
 -0.06671369 -0.06657456 -0.06645021 -0.06635544 -0.06628955 -0.06625917 -0.06625961 -0.06629013 -0.06633963 -0.06640064
 -0.06645883 -0.0665034 -0.06652814 -0.06652571 -0.06650515 -0.06646553 -0.06642544 -0.06638766 -0.06636682 -0.06636518
 -0.06638642 -0.066431 -0.06649483 -0.06657716 -0.0666662 -0.06675971 -0.06683634 -0.06689531 -0.06691943 -0.0669153
 -0.06688912 -0.06685197 -0.06682703 -0.06681886 -0.06684493 -0.06689751 -0.06697717 -0.06707236 -0.06717532 -0.0672833
 -0.0673939 -0.06750497 -0.06761815 -0.06771772 -0.06780155 -0.06785576 -0.06787772 -0.06787165 -0.06783785 -0.06776763
 -0.0676602 -0.0674964 -0.06728134 -0.06703901 -0.06678028 -0.06656263 -0.06638911 -0.06630012 -0.06628491 -0.0663497
 -0.06646487 -0.0665978 -0.06672246 -0.06679819 -0.06683651 -0.0668298 -0.06680375 -0.06676922 -0.06673416 -0.06670538
 -0.06667127 -0.06663118 -0.06657226 -0.06649189 -0.06639554 -0.06628308 -0.06617656 -0.06607718 -0.06600669 -0.06596472
 -0.06596158 -0.06599179 -0.06604218 -0.06610096 -0.0661277 -0.06612163 -0.06605599 -0.06595328 -0.06583169 -0.06570732
 -0.06560562 -0.06551681 -0.06544583 -0.06536848 -0.06527437 -0.06515391 -0.06499754 -0.06482819 -0.06464653 -0.06448574
 -0.06435079 -0.06425054 -0.06418655 -0.06413119 -0.06408242 -0.06399924 -0.06388391 -0.0637316 -0.06355009 -0.06337017
 -0.06319377 -0.06304159 -0.06291201 -0.06281174 -0.06273794 -0.06269388 -0.06266432 -0.06264228 -0.06259944 -0.06251453
 -0.06237845 -0.06217734 -0.06193231 -0.06164802 -0.06133342 -0.06099208 -0.06061862 -0.06021149 -0.05978138 -0.0593286
 -0.05887485 -0.05842128 -0.05798739 -0.05757478 -0.05720474 -0.05687784 -0.05661065 -0.05639678 -0.0562301 -0.05609843
 -0.0559774 -0.05585677 -0.05571652 -0.05554285 -0.05531891 -0.05502993 -0.05465304 -0.05421511 -0.05371425 -0.05320673
 -0.05271293 -0.05224383 -0.05180817 -0.05138166 -0.05096206 -0.05053443 -0.0500971 -0.04965978 -0.04922368 -0.0488143
 -0.04843187 -0.04809389 -0.04779228 -0.04750797 -0.04722162 -0.04686668 -0.04644049 -0.04589253 -0.04526758 -0.04460238
 -0.04393576 -0.04332371 -0.04275927 -0.04225727 -0.04179278 -0.04135972 -0.04093505 -0.04051078 -0.04007436 -0.0396212
 -0.03915218 -0.03866699 -0.03816687 -0.03765218 -0.03711268 -0.036548 -0.03595008 -0.03532131 -0.034676 -0.03401799
 -0.03337183 -0.03273819 -0.0321315 -0.03155046 -0.03100086 -0.03047684 -0.02997634 -0.02948491 -0.02898836 -0.0284784
 -0.02794203 -0.02739016 -0.02682598 -0.02625254 -0.02567661 -0.0250708 -0.02442995 -0.02373893 -0.02299001 -0.02223425
 -0.02147391 -0.02077655 -0.0201432 -0.01957821 -0.01907538 -0.01858784 -0.01811125 -0.01759934 -0.01705834 -0.01647853
 -0.0158753 -0.01527476 -0.01468432 -0.01413072 -0.0135973 -0.01308371 -0.01255681 -0.01199333 -0.01137984 -0.01069699
 -0.009974809 -0.009215525 -0.008457833 -0.007711229 -0.006988854 -0.00629443 -0.005622837 -0.004974166 -0.00433751 -0.003712401
 -0.003091143 -0.002473636 -0.001856841 -0.001238899 -0.0006105762 3.128123E-05 0.0007031751 0.001400131 0.002124286 0.002859636
 0.003584592 0.004290765 0.004957765 0.005599215 0.006215968 0.006827172 0.007443938 0.008067749 0.008703777 0.009337167
 0.009965583 0.01057913 0.01117477 0.01176299 0.0123439 0.01293959 0.01355076 0.01418722 0.01484674 0.01551537
 0.01619032 0.01685037 0.01749744 0.01812482 0.01873861 0.019348 0.01995631 0.02057461 0.02119582 0.02181966
 0.02243183 0.02302101 0.02358506 0.02411496 0.02463415 0.02514602 0.02567778 0.02623788 0.02682653 0.02744661
 0.02807633 0.02871439 0.02934285 0.02996104 0.03056125 0.03114365 0.03170563 0.03224845 0.0327759 0.03329011
 0.03379937 0.03430462 0.03481153 0.03532049 0.03583454 0.03635306 0.03687767 0.03740387 0.03792911 0.03845052
 0.03896451 0.03947687 0.03998922 0.04050353 0.04102268 0.04153206 0.0420299 0.04250687 0.0429612 0.04341255
 0.0438621 0.04433727 0.04483651 0.04535932 0.04589995 0.04643108 0.04694959 0.04743056 0.04787798 0.04828614
 0.04866475 0.04902469 0.04937368 0.0497247 0.05007623 0.0504316 0.05078597 0.05113596 0.05148619 0.05183648
 0.0521954 0.05256572 0.05294604 0.05333702 0.05373171 0.05412953 0.05452845 0.05492833 0.05532669 0.05572315
 0.05611195 0.05649457 0.05687424 0.05725418 0.05764708 0.05805174 0.05847346 0.0589055 0.05934145 0.05977367
 0.06019335 0.06059313 0.06096623 0.06130622 0.06160704 0.06187158 0.06209701 0.06229904 0.06247925 0.06265663
 0.06283385 0.06302334 0.06322642 0.06344672 0.0636843 0.06393665 0.0642036 0.06448296 0.06477452 0.06507739
 0.06538878 0.06570122 0.06600904 0.06629576 0.0665613 0.06679516 0.06700937 0.06721064 0.06741293 0.06763082
 0.06786121 0.06811057 0.06835631 0.06859332 0.06880163 0.06897358 0.06911419 0.06922127 0.06931958 0.06941115
 0.06950895 0.06961302 0.06970688 0.06978904 0.06983668 0.06985323 0.06984144 0.06980947 0.06978364 0.06976932
 0.06979217 0.06984872 0.06994835 0.07007609 0.07022308 0.07036932 0.07049573 0.07059999 0.07066918 0.07073443
 0.07080088 0.07090332 0.07105579 0.07124383 0.07147265 0.07167587 0.07184873 0.07193834 0.0719433 0.07188022
 0.07175463 0.07162843 0.07150133 0.07140717 0.07133491 0.0712654 0.07119536 0.07110247 0.07100427 0.07091703
 0.07085466 0.07084597 0.07086968 0.07092558 0.07097437 0.07099266 0.07097401 0.07090399 0.0708209 0.07072903
 0.07066789 0.07064638 0.07066268 0.07071923 0.07077347 0.07082305 0.07081737 0.07075648 0.07061851 0.07041141
 0.07016016 0.06987859 0.06962314 0.0694018 0.06926335 0.06919672 0.06921328 0.06928077 0.06937362 0.06945824
 0.0694992 0.06949228 0.06941951 0.06931318 0.06917754 0.06905038 0.06894201 0.06886725 0.06882988 0.06883245
 0.06887499 0.06896888 0.06911459 0.06932012 0.06958218 0.06987357 0.07018444 0.07045017 0.07066373 0.07076334
 0.07076085 0.07064312 0.07044569 0.0702117 0.06997883 0.06980789 0.06970038 0.06968754 0.06972107 0.0697917
 0.06983662 0.06983051 0.06974631 0.0695679 0.06931996 0.06900071 0.0686603 0.06830276 0.06796448 0.06764709
 0.06735713 0.06709376 0.06684978 0.06662635 0.06642526 0.06624977 0.0661127 0.06601313 0.06595937 0.06593853
 0.0659406 0.06593861 0.06590424 0.06580834 0.06561825 0.06532889 0.06492127 0.06443068 0.0638586 0.06326256
 0.06265432 0.06207979 0.06154797 0.0610783 0.06067424 0.0603285 0.06004042 0.05977493 0.05952954 0.05926224
 0.05897707 0.05867044 0.05835441 0.05807044 0.05781793 0.05762478 0.05746238 0.0573018 0.05711294 0.05684431
 0.05650743 0.05608296 0.05562709 0.05515907 0.05473435 0.05438061 0.05410763 0.05392966 0.05380256 0.05372603
 0.05362905 0.05350526 0.05330624 0.05302982 0.05268817 0.05228649 0.05188624 0.05149211 0.05116327 0.0508953
 0.05070702 0.05058668 0.0505185 0.05049109 0.05048029 0.05047951 0.05047258 0.05045772 0.0504286 0.05038607
 0.05032948 0.05025842 0.05017446 0.05006887 0.04994262 0.04977344 0.04955964 0.04927272 0.04890958 0.0484573
 0.04791534 0.0473007 0.04661625 0.0458994 0.04515352 0.04441614 0.04368865 0.04299658 0.04233707 0.04171845
 0.04113175 0.04056792 0.04001674 0.03946207 0.03890338 0.03833205 0.03776103 0.03719312 0.03664465 0.03612291
 0.03563344 0.0351808 0.0347551 0.03435689 0.0339662 0.03358154 0.0331846 0.0327744 0.03234509 0.03189747
 0.03143894 0.03097099 0.03050595 0.03004386 0.02959196 0.0291482 0.02871178 0.02828022 0.02784898 0.02741722
 0.02698167 0.02654416 0.02610267 0.02566692 0.02523704 0.02483718 0.02447472 0.02417179 0.0239409 0.02376054
 0.02363637 0.02348913 0.0233133 0.02302969 0.02263409 0.02212483 0.02150896 0.02087075 0.02022002 0.01965946
 0.01918421 0.01883968 0.01859808 0.01842377 0.01827978 0.01808758 0.01783676 0.01747383 0.0170388 0.01653819
 0.01603016 0.01555351 0.01511858 0.01474644 0.0143929 0.01404912 0.01369135 0.01330774 0.01294346 0.01259969
 0.0123442 0.01218065 0.01211814 0.01215074 0.01220778 0.01227862 0.01226318 0.01216184 0.01191555 0.01154729
 0.01107523 0.01053455 0.009992895 0.009463789 0.008996641 0.00856657 0.008171368 0.007783824 0.007380636 0.006977431
 0.006570116 0.006196124 0.005868592 0.005585312 0.005352275 0.005125553 0.004900822 0.004656029 0.004389763 0.004129504
 0.003876948 0.003663604 0.003485449 0.003335323 0.003206348 0.003068409 0.002922305 0.002752607 0.002568875 0.002380308
 0.002193338 0.002024356 0.001858944 0.001699268 0.001505269 0.00125752 0.0009234125 0.0004770528 -5.483312E-05 -0.0006819071
 -0.001312969 -0.001937498 -0.002468901 -0.002894235 -0.003208792 -0.003411535 -0.003581209 -0.00372296 -0.003926955 -0.004189865
 -0.004541948 -0.004967086 -0.005425387 -0.005900522 -0.006330528 -0.006716447 -0.00702705 -0.007283958 -0.007497459 -0.007693229
 -0.007896317 -0.008117464 -0.008372961 -0.008650937 -0.00895398 -0.009255487 -0.009549467 -0.009816158 -0.01004817 -0.01026022
 -0.01045071 -0.01066712 -0.0109121 -0.01121631 -0.01157729 -0.01196704 -0.01237924 -0.01275701 -0.01310512 -0.01340683
 -0.01367946 -0.01395913 -0.01425168 -0.01459026 -0.01495402 -0.01533414 -0.01570468 -0.01603755 -0.01633219 -0.0165769
 -0.01679124 -0.01698153 -0.0171558 -0.01732055 -0.01746039 -0.01757407 -0.01764554 -0.01767119 -0.01766544 -0.01762867
 -0.01761302 -0.01762178 -0.01771474 -0.01788949 -0.01816599 -0.01852981 -0.01894177 -0.01938298 -0.01978652 -0.02014573
 -0.02041527 -0.02060773 -0.02071756 -0.02076597 -0.02076821 -0.02073911 -0.02069147 -0.02063047 -0.02055983 -0.02048531
 -0.02040714 -0.02033955 -0.0202849 -0.02025395 -0.02024992 -0.02025502 -0.02026871 -0.02023948 -0.02016481 -0.01999576
 -0.01973655 -0.01938633 -0.01895759 -0.01849649 -0.01801206 -0.01755182 -0.01711269 -0.01671127 -0.01634035 -0.01599668
 -0.0156779 -0.01538301 -0.01510429 -0.01484246 -0.01457206 -0.01428467 -0.01395733 -0.01357627 -0.01316268 -0.0127114
 -0.01229248 -0.01191172 -0.01163252 -0.01145952 -0.01138904 -0.01141702 -0.0114777 -0.01156668 -0.01162036 -0.01164453
 -0.01162654 -0.01157605 -0.0115143 -0.01143871 -0.01135828 -0.01125768 -0.01112112 -0.01093991 -0.01069795 -0.01040393
 -0.01005636 -0.009671238 -0.009253565 -0.008817676 -0.008366415 -0.007918132 -0.007475433 -0.007057398 -0.006666977 -0.006307122
 -0.00597824 -0.005673913 -0.00539555 -0.005162778 -0.004982303 -0.004909275 -0.004947428 -0.005145537 -0.00549187 -0.005986713
 -0.006604811 -0.007304254 -0.008062299 -0.008833406 -0.009610393 -0.01036897 -0.01112037 -0.01186095 -0.01261482 -0.01338943
 -0.01420662 -0.0150761 -0.01599702 -0.01697458 -0.01797665 -0.01900237 -0.02000227 -0.02097327 -0.02187698 -0.02271296
 -0.02347159 -0.02415535 -0.02477572 -0.02533522 -0.02584833 -0.02631853 -0.02675971 -0.0271793 -0.02759655 -0.02801654
 -0.02845708 -0.0289077 -0.02936992 -0.02981952 -0.03024294 -0.0306236 -0.03094885 -0.03122363 -0.03144521 -0.03162915
 -0.03177819 -0.03190066 -0.03199879 -0.03206468 -0.03209816 -0.03207998 -0.03201013 -0.03188408 -0.03170869 -0.03152569
 -0.03134846 -0.03125485 -0.03124753 -0.03138071 -0.03163114 -0.03198851 -0.03241451 -0.03285836 -0.03329206 -0.03367253
 -0.0339937 -0.03423743 -0.03441599 -0.03452645 -0.03459614 -0.03462848 -0.03466066 -0.03469846 -0.03477554 -0.0348962
 -0.03508138 -0.03533262 -0.03566524 -0.0360802 -0.03659558 -0.03721083 -0.03793509 -0.03875979 -0.03966066 -0.0406185
 -0.04157244 -0.04250548 -0.04335439 -0.04412494 -0.04479262 -0.04538728 -0.04592511 -0.04643379 -0.04693772 -0.04743972
 -0.04794926 -0.04845169 -0.04894457 -0.04941728 -0.04986685 -0.05029186 -0.05069166 -0.05106788 -0.05142051 -0.05175411
 -0.05206915 -0.05237415 -0.05266949 -0.05296248 -0.05325184 -0.05353713 -0.05381513 -0.05407736 -0.05432092 -0.05453505
 -0.05472288 -0.05488079 -0.05502209 -0.05515489 -0.05529642 -0.05546075 -0.05565273 -0.05588168 -0.05613064 -0.05639987
 -0.05665879 -0.05690198 -0.0571074 -0.05727034 -0.05739564 -0.05748277 -0.0575598 -0.05762801 -0.05771193 -0.05781003
 -0.05792249 -0.05804691 -0.05817148 -0.05829953 -0.05843288 -0.05857831 -0.05875155 -0.05895058 -0.05918309 -0.0594339
 -0.05969413 -0.05994597 -0.06017546 -0.06037435 -0.06053418 -0.06065973 -0.06074817 -0.06081765 -0.06086913 -0.0609294
 -0.06100176 -0.06110397 -0.06123796 -0.0613962 -0.06157764 -0.061759 -0.06193983 -0.06210542 -0.06225805 -0.06239973
 -0.06253225 -0.06266205 -0.06278835 -0.06291269 -0.06303386 -0.06315078 -0.063263 -0.06337029 -0.06347059 -0.06356326
 -0.06364437 -0.06371135 -0.06376481 -0.06380225 -0.06383619 -0.06386702 -0.06391507 -0.06398305 -0.0640822 -0.06421395
 -0.06436776 -0.06454251 -0.0647135 -0.06487992 -0.06502331 -0.0651461 -0.06524809 -0.06533367 -0.0654152 -0.06549449
 -0.06558253 -0.06567436 -0.06576947 -0.06585874 -0.06593216 -0.06598873 -0.06602054 -0.06604496 -0.06606482 -0.06610492
 -0.06617429 -0.06628213 -0.06643438 -0.06661562 -0.06682608 -0.06703867 -0.06725158 -0.06744395 -0.06761526 -0.06775975
 -0.06787888 -0.06798086 -0.06806783 -0.06815343 -0.06823836 -0.06833196 -0.06843273 -0.06854253 -0.06865864 -0.06877859
 -0.06889916 -0.06901646 -0.06912886 -0.06923306 -0.06933278 -0.06942767 -0.06952585 -0.0696299 -0.06974395 -0.06987027
 -0.07000361 -0.07014406 -0.07028233 -0.07041773 -0.07054521 -0.07066464 -0.07077558 -0.07087798 -0.07097098 -0.07105444
 -0.07112651 -0.07118866 -0.07124301 -0.07129353 -0.0713488 -0.07141181 -0.07149144 -0.07158505 -0.07169449 -0.07181305
 -0.07193656 -0.07206176 -0.07218509 -0.0723101 -0.0724372 -0.07256918 -0.07270737 -0.07284857 -0.07299279 -0.07313436
 -0.07327277 -0.07340654 -0.07353568 -0.073662 -0.07378553 -0.07390717 -0.07402681 -0.0741444 -0.07425988 -0.07437328
 -0.07448408 -0.07459138 -0.07469459 -0.07479164 -0.07488495 -0.07497502 -0.07506731 -0.07516596 -0.07527286 -0.07539178
 -0.0755149 -0.07564148 -0.07576095 -0.07587016 -0.07596847 -0.07605447 -0.07613894 -0.0762225 -0.07631578 -0.07641903
 -0.07653332 -0.07665768 -0.07678451 -0.0769126 -0.07703239 -0.07714386 -0.07724118 -0.07732704 -0.07740299 -0.07747386
 -0.07754688 -0.07762533 -0.07771587 -0.07781671 -0.07792968 -0.07804883 -0.07817218 -0.07829446 -0.07841328 -0.07852774
 -0.07863694 -0.07874323 -0.07884692 -0.07894871 -0.07904883 -0.07914398 -0.07923397 -0.07931457 -0.07938611 -0.07944932
 -0.07950541 -0.07956035 -0.079615 -0.07967529 -0.07974053 -0.07981228 -0.07988934 -0.07997048 -0.08005553 -0.08014408
 -0.08023567 -0.08033069 -0.08042595 -0.08052048 -0.08061046 -0.0806936 -0.08077222 -0.08084557 -0.08092169 -0.08100168
 -0.08108965 -0.08118632 -0.08128545 -0.0813866 -0.08147955 -0.08156454 -0.08163898 -0.08170484 -0.08177026 -0.08183667
 -0.08191355 -0.0819988 -0.08209366 -0.08219337 -0.08229139 -0.08238558 -0.08247014 -0.08254882 -0.08262172 -0.08269458
 -0.08277077 -0.08285105 -0.08293715 -0.08302478 -0.08311348 -0.08319894 -0.08328046 -0.08335616 -0.08342578 -0.08348954
 -0.08354752 -0.08360284 -0.08365594 -0.08371237 -0.08377206 -0.08383827 -0.08390903 -0.08398045 -0.08404987 -0.08410928
 -0.08415903 -0.08419467 -0.08422176 -0.08424343 -0.08426645 -0.08429706 -0.08433659 -0.0843882 -0.08444732 -0.08451322
 -0.08458208 -0.0846526 -0.08472481 -0.08479872 -0.08487313 -0.08494814 -0.08501892 -0.08508531 -0.08514561 -0.08520059
 -0.08525695 -0.08531556 -0.08538503 -0.08546386 -0.08555259 -0.08564799 -0.08574318 -0.08583718 -0.08592487 -0.0860086
 -0.08608916 -0.08616778 -0.08624652 -0.08632272 -0.08639555 -0.08646325 -0.08652394 -0.08658233 -0.08663855 -0.0866999
 -0.08676779 -0.08684318 -0.08692653 -0.0870116 -0.08709809 -0.08717994 -0.08725735 -0.0873296 -0.08739735 -0.08746331
 -0.08752786 -0.08759369 -0.08766061 -0.08772984 -0.08780025 -0.08787107 -0.08794021 -0.08800498 -0.08806485 -0.0881174
 -0.08816706 -0.08821443 -0.08826661 -0.08832663 -0.08839602 -0.08847681 -0.08856186 -0.08865076 -0.0887353 -0.08881459
 -0.08888695 -0.08895234 -0.08901402 -0.08907222 -0.08913034 -0.08918858 -0.08924981 -0.08931396 -0.08938291 -0.08945511
 -0.08952861 -0.08960097 -0.08966697 -0.08972728 -0.08977951 -0.0898284 -0.08987653 -0.08992735 -0.08998439 -0.09004451
 -0.09010805 -0.09016912 -0.09022585 -0.0902782 -0.09032523 -0.09037419 -0.09042563 -0.09048478 -0.09055179 -0.09062251
 -0.09069627 -0.09076415 -0.09082681 -0.09088238 -0.0909332 -0.09098618 -0.09104189 -0.09110595 -0.09117504 -0.09124713
 -0.09131808 -0.09138222 -0.09143912 -0.09148563 -0.09152622 -0.09156172 -0.09159791 -0.09163722 -0.09168171 -0.09173292
 -0.09178738 -0.09184501 -0.09190114 -0.09195526 -0.09200636 -0.0920544 -0.09210124 -0.0921469 -0.09219234 -0.09223752
 -0.09228277 -0.09232818 -0.0923745 -0.09242105 -0.09246702 -0.09251115 -0.09255102 -0.09258644 -0.09261604 -0.09264087
 -0.09266125 -0.09267814 -0.09269167 -0.09270409 -0.09271519 -0.09273113 -0.09275302 -0.09278668 -0.09283383 -0.09289153
 -0.09296013 -0.09302815 -0.09309505 -0.09315304 -0.0932028 -0.09324851 -0.09329199 -0.09334505 -0.09340879 -0.09349298
 -0.0935978 -0.09372815 -0.09388416 -0.09406824 -0.09427977 -0.09451938 -0.09478501 -0.0950747 -0.09538928 -0.09572649
 -0.09609611 -0.09650017 -0.09694985 -0.09744989 -0.09799604 -0.09859028 -0.09921094 -0.09985675 -0.100505 -0.1011543
 -0.1017789 -0.1023758 -0.1029019 -0.1033525 -0.103681 -0.1038835 -0.1039258 -0.1038013 -0.1034689 -0.1029504
 -0.10224 -0.1014195 -0.1005691 -0.0997633 -0.09908801 -0.09856124 -0.09821629 -0.09804216 -0.09804498 -0.09819901
 -0.0985084 -0.09890214 -0.09937869 -0.09981459 -0.1001981 -0.1004525 -0.1005739 -0.1005922 -0.100512 -0.1003993
 -0.1002563 -0.1001294 -0.1000147 -0.0999255 -0.09985229 -0.09978042 -0.09970324 -0.09960233 -0.09947971 -0.09932933
 -0.09915892 -0.09897121 -0.09877619 -0.09857889 -0.09838848 -0.09821005 -0.09804473 -0.09789438 -0.09775402 -0.09762294
 -0.09749936 -0.09738296 -0.09727499 -0.09717548 -0.09708007 -0.0969883 -0.09689219 -0.09679274 -0.09669054 -0.09658876
 -0.09649888 -0.09642238 -0.09636991 -0.09633735 -0.09632429 -0.09632265 -0.09632337 -0.09632095 -0.09630676 -0.09628399
 -0.09625061 -0.0962161 -0.09618368 -0.09615875 -0.09614438 -0.09613612 -0.09613407 -0.09613125 -0.09612671 -0.09612054
 -0.09611271 -0.09610914 -0.09610988 -0.09611785 -0.09613219 -0.09614934 -0.09616861 -0.09618516 -0.0962 -0.09621265
 -0.09622514 -0.09624083 -0.09626026 -0.09628592 -0.096316 -0.09635011 -0.0963861 -0.09642266 -0.09645875 -0.09649402
 -0.09652661 -0.09655642 -0.0965798 -0.09659606 -0.09660351 -0.09660158 -0.09659474 -0.09658324 -0.09657625 -0.09657402
 -0.09658237 -0.09660023 -0.09662476 -0.09665405 -0.0966795 -0.0967008 -0.09671225 -0.09671616 -0.09671314 -0.09670685
 -0.09670153 -0.09669994 -0.09670599 -0.09671953 -0.09674245 -0.09677022 -0.09680232 -0.09683192 -0.09685697 -0.0968748
 -0.09688398 -0.0968892 -0.09689058 -0.0968947 -0.09690194 -0.09691515 -0.09693427 -0.09695899 -0.0969893 -0.09702518
 -0.09706628 -0.09711189 -0.0971605 -0.09720847 -0.09725388 -0.0972916 -0.0973217 -0.09734145 -0.09735411 -0.09736082
 -0.09736605 -0.09737282 -0.09738258 -0.09739703 -0.09741438 -0.09743454 -0.09745575 -0.09747765 -0.09749977 -0.09752207
 -0.09754378 -0.09756486 -0.09758478 -0.09760362 -0.09762224 -0.09764075 -0.09766033 -0.09768073 -0.09770147 -0.09772281
 -0.09774496 -0.09776869 -0.09779574 -0.09782549 -0.09785841 -0.09789224 -0.09792524 -0.09795629 -0.09798384 -0.09800941
 -0.09803312 -0.09805657 -0.09808031 -0.09810466 -0.09812985 -0.09815539 -0.09818134 -0.09820652 -0.09823087 -0.09825264
 -0.09827193 -0.0982895 -0.09830587 -0.09832485 -0.09834635 -0.0983725 -0.09840201 -0.0984327 -0.09846375 -0.09849199
 -0.09851954 -0.09854737 -0.09857824 -0.09861562 -0.09865805 -0.09870672 -0.09875594 -0.09880355 -0.09884681 -0.09888376
 -0.09891818 -0.09895031 -0.09898417 -0.09902051 -0.0990575 -0.09909511 -0.09912941 -0.09916046 -0.09918837 -0.09921356
 -0.09923881 -0.09926406 -0.09929043 -0.09931774 -0.09934599 -0.09937523 -0.09940567 -0.09943721 -0.09946992 -0.09950345
 -0.09953752 -0.09957197 -0.09960675 -0.09964139 -0.09967572 -0.09970928 -0.09974173 -0.09977382 -0.09980547 -0.09983829
 -0.09987251 -0.09990806 -0.09994496 -0.09998032 -0.100014 -0.1000427 -0.1000667 -0.1000859 -0.100102 -0.1001202
 -0.1001423 -0.1001755 -0.1002183 -0.1002722 -0.100331 -0.1003881 -0.1004382 -0.100473 -0.1004953 -0.1005028
 -0.100505 -0.1005047 -0.1005096 -0.1005227 -0.1005458 -0.1005801 -0.1006232 -0.1006752 -0.1007314 -0.1007916
 -0.1008489 -0.1009029 -0.1009469 -0.1009812 -0.1010038 -0.1010161 -0.1010223 -0.1010238 -0.1010262 -0.1010297
 -0.1010371 -0.1010473 -0.1010601 -0.1010751 -0.1010921 -0.101111 -0.1011323 -0.1011548 -0.1011781 -0.1012005
 -0.1012211 -0.1012401 -0.1012571 -0.1012749 -0.1012937 -0.1013167 -0.1013441 -0.101377 -0.1014153 -0.1014572
 -0.1015023 -0.1015465 -0.1015893 -0.1016256 -0.1016551 -0.101674 -0.1016838 -0.1016845 -0.1016803 -0.1016758
 -0.1016752 -0.1016845 -0.1017024 -0.1017314 -0.1017634 -0.1017963 -0.1018237 -0.1018421 -0.1018543 -0.1018591
 -0.1018658 -0.1018751 -0.1018937 -0.1019221 -0.1019587 -0.102003 -0.1020475 -0.1020918 -0.10213 -0.1021629
 -0.1021911 -0.1022158 -0.102241 -0.1022668 -0.1022951 -0.102325 -0.1023561 -0.1023867 -0.1024154 -0.1024408
 -0.102461 -0.1024775 -0.1024893 -0.1025021 -0.1025173 -0.102539 -0.1025688 -0.1026026 -0.1026403 -0.1026733
 -0.102701 -0.1027216 -0.1027352 -0.1027468 -0.1027566 -0.1027676 -0.1027791 -0.1027896 -0.1027989 -0.1028056
 -0.1028103 -0.1028136 -0.1028156 -0.1028168 -0.1028174 -0.1028172 -0.1028185 -0.1028221 -0.1028315 -0.102849
 -0.1028738 -0.1029075 -0.1029414 -0.1029746 -0.1029962 -0.1030045 -0.1029977 -0.1029756 -0.1029473 -0.1029135
 -0.1028842 -0.1028592 -0.1028413 -0.1028294 -0.1028212 -0.1028162 -0.1028121 -0.102809 -0.1028066 -0.1028049
 -0.1028039 -0.1028036 -0.1028039 -0.1028054 -0.1028084 -0.1028135 -0.1028216 -0.1028299 -0.1028385 -0.1028412
 -0.1028368 -0.1028217 -0.102795 -0.1027617 -0.1027219 -0.1026848 -0.1026507 -0.1026244 -0.1026053 -0.1025923
 -0.1025851 -0.1025819 -0.102583 -0.1025889 -0.1026003 -0.1026186 -0.1026434 -0.1026757 -0.1027121 -0.1027514
 -0.1027858 -0.1028108 -0.1028191 -0.102805 -0.1027722 -0.1027184 -0.1026596 -0.1025978 -0.102549 -0.1025159
 -0.1025008 -0.1025045 -0.1025149 -0.1025316 -0.1025406 -0.1025426 -0.1025345 -0.102518 -0.1024991 -0.1024786
 -0.1024619 -0.1024481 -0.1024385 -0.1024313 -0.1024255 -0.1024173 -0.1024033 -0.1023793 -0.1023405 -0.1022891
 -0.1022231 -0.1021535 -0.1020825 -0.1020212 -0.1019726 -0.1019381 -0.1019188 -0.1019072 -0.1019029 -0.1018988
 -0.1018948 -0.1018899 -0.1018843 -0.1018794 -0.1018745 -0.1018677 -0.1018582 -0.1018422 -0.1018211 -0.1017953
 -0.1017674 -0.1017417 -0.1017174 -0.1016968 -0.1016745 -0.101648 -0.1016134 -0.1015674 -0.101513 -0.1014497
 -0.1013848 -0.1013198 -0.1012592 -0.1012039 -0.1011523 -0.1011043 -0.1010557 -0.1010066 -0.1009584 -0.1009122
 -0.1008766 -0.100852 -0.1008454 -0.1008534 -0.1008719 -0.1008944 -0.1009065 -0.1009048 -0.1008769 -0.1008285
 -0.1007592 -0.1006792 -0.1005952 -0.100512 -0.1004341 -0.1003589 -0.1002864 -0.1002137 -0.1001397 -0.100067
 -0.09999577 -0.09992898 -0.09986699 -0.09980772 -0.09975103 -0.09969457 -0.09963866 -0.09958553 -0.09953454 -0.09948482
 -0.09943383 -0.09937292 -0.09930286 -0.09921909 -0.09912837 -0.09903788 -0.09895246 -0.09888019 -0.09881968 -0.09877312
 -0.09873571 -0.09870623 -0.09867972 -0.09865485 -0.09862687 -0.0985949 -0.09855442 -0.09850486 -0.09844276 -0.09836774
 -0.09828051 -0.09818139 -0.09807769 -0.09797002 -0.0978668 -0.09776745 -0.09767405 -0.09758524 -0.09749785 -0.09741189
 -0.09732614 -0.09724035 -0.09715465 -0.09706604 -0.09697159 -0.09686993 -0.09675772 -0.09664061 -0.0965196 -0.09640175
 -0.09629015 -0.0961853 -0.09608848 -0.09599467 -0.09590352 -0.09580994 -0.09571344 -0.09561292 -0.09550842 -0.09540177
 -0.09529249 -0.09517793 -0.09505627 -0.09491693 -0.09476037 -0.09458078 -0.0943834 -0.09417596 -0.09396211 -0.09375097
 -0.09354126 -0.09333464 -0.09313028 -0.09292721 -0.09272803 -0.09253363 -0.09234592 -0.09216634 -0.09199237 -0.09182469
 -0.09165511 -0.09148347 -0.09129532 -0.09108941 -0.09085905 -0.09060462 -0.09034272 -0.09007443 -0.08981758 -0.08956939
 -0.08932666 -0.08908566 -0.08883319 -0.08856907 -0.08828618 -0.08798711 -0.08767196 -0.08734445 -0.08700736 -0.08666594
 -0.08632561 -0.08598534 -0.08564924 -0.08530186 -0.08493926 -0.08455017 -0.08412833 -0.08369019 -0.08323681 -0.08278498
 -0.08233698 -0.08187932 -0.08141129 -0.08091582 -0.08039472 -0.079857 -0.07930489 -0.07875634 -0.07820605 -0.07764894
 -0.07707638 -0.07646491 -0.07581925 -0.07513202 -0.0744214 -0.07370345 -0.07298757 -0.07228608 -0.07159801 -0.07092503
 -0.07026807 -0.06962781 -0.06900517 -0.068404 -0.06780298 -0.06720436 -0.06654598 -0.06582323 -0.06498703 -0.06403773
 -0.063037 -0.06199154 -0.06099303 -0.06003241 -0.05911424 -0.05822628 -0.05733255 -0.05643132 -0.05550376 -0.0545478
 -0.05356027 -0.05251811 -0.05140726 -0.05018042 -0.04880035 -0.04724174 -0.04546244 -0.04354094 -0.04147661 -0.03941467
 -0.03738907 -0.03547016 -0.03367672 -0.03199368 -0.03042288 -0.02891553 -0.02746791 -0.02599136 -0.02447665 -0.02279017
 -0.02094496 -0.01891001 -0.01675147 -0.01467 -0.01267876 -0.01092437 -0.009331353 -0.007850086 -0.0064259 -0.004977573
 -0.003504899 -0.001982595 -0.0004249864 0.001164999 0.002784873 0.004440412 0.006094997 0.007746014 0.009338913 0.01086162
 0.01232326 0.013723 0.01508953 0.01642256 0.0176746 0.01884076 0.01984907 0.02070896 0.02142519 0.02201828
 0.02255611 0.023046 0.02354309 0.0240262 0.02448403 0.02490904 0.02528029 0.02562499 0.02595946 0.02629079
 0.02663561 0.02695728 0.02724919 0.02747482 0.02762202 0.02768888 0.02767066 0.02759679 0.02746802 0.02733362
 0.02719573 0.02708058 0.02698508 0.0268883 0.02678767 0.02665764 0.02650307 0.02632226 0.02612886 0.02594843
 0.02579668 0.02571022 0.02568947 0.02574855 0.02588256 0.02608634 0.02637654 0.02675917 0.0272494 0.02786231
 0.0285626 0.02934868 0.03017003 0.03101622 0.03188525 0.03277496 0.03371171 0.03469664 0.03574448 0.03685487
 0.03802982 0.03926847 0.04056942 0.04192918 0.04333672 0.04478774 0.04626606 0.04777408 0.0493072 0.05087223
 0.05247549 0.05411877 0.05580723 0.05753421 0.05929987 0.06109061 0.06290325 0.0647229 0.06654686 0.06836005
 0.07016215 0.07192423 0.0736444 0.07528888 0.07685664 0.07836099 0.07980728 0.08126299 0.08272179 0.08419656
 0.08565554 0.08699756 0.08821291 0.08922444 0.09005491 0.09071139 0.0911979 0.09152296 0.09168203 0.09167166
 0.09149833 0.09117922 0.09066011 0.08995206 0.08888801 0.08742034 0.08550087 0.08307446 0.08052067 0.07786909
 0.07537016 0.07303263 0.07069351 0.06834351 0.06582583 0.06315444 0.0603237 0.05734911 0.05429175 0.05112495
 0.04783816 0.0443572 0.04052709 0.03640911 0.03191526 0.02741301 0.02317072 0.01933795 0.01613645 0.01329185
 0.01075554 0.008316333 0.005897332 0.003504207 0.001122458 -0.001172532 -0.003372227 -0.005481516 -0.007501053 -0.009497153
 -0.01147033 -0.0134523 -0.01543237 -0.01737107 -0.0192562 -0.02102248 -0.02267548 -0.02419045 -0.02559049 -0.0268987
 -0.02813715 -0.02933487 -0.0305139 -0.03169076 -0.03290684 -0.03418761 -0.03555741 -0.03706035 -0.03856137 -0.04005274
 -0.04133218 -0.04234838 -0.04315422 -0.0437437 -0.04428298 -0.04477985 -0.04530632 -0.04585756 -0.046401 -0.04693043
 -0.04739193 -0.04779351 -0.04813542 -0.04842395 -0.04867969 -0.04888841 -0.04903884 -0.04911314 -0.04908158 -0.04895345
 -0.04872189 -0.04841264 -0.04803794 -0.04761189 -0.04714428 -0.04663138 -0.04607853 -0.04545538 -0.04476428 -0.04392938
 -0.04294459 -0.04173996 -0.04031271 -0.03874863 -0.03706111 -0.03544237 -0.03388744 -0.03246906 -0.03116677 -0.02994443
 -0.02880022 -0.02771302 -0.02668664 -0.02573126 -0.02481195 -0.02390741 -0.02295049 -0.02186867 -0.02067426 -0.01932559
 -0.01796098 -0.01662839 -0.01538675 -0.01427309 -0.01322315 -0.01223185 -0.01124883 -0.01026613 -0.009300688 -0.008353258
 -0.007469048 -0.006647282 -0.005895703 -0.005204077 -0.00452341 -0.003836357 -0.003057764 -0.002178083 -0.001123907 8.027872E-05
 0.00143334 0.002896294 0.004418274 0.005997235 0.007612984 0.009280112 0.01100914 0.01278037 0.01459556 0.0164086
 0.01820688 0.01997119 0.02169344 0.02339536 0.02507943 0.02674866 0.02840297 0.02995371 0.03139247 0.03258802
 0.0335402 0.03418253 0.03451913 0.03453335 0.03421855 0.03355018 0.03252441 0.0311148 0.02934818 0.02723211
 0.02482718 0.02217576 0.01933973 0.01636443 0.01327581 0.01009281 0.006822216 0.003456733 6.647231E-05 -0.00335101
 -0.006641513 -0.009789804 -0.01270057 -0.01536807 -0.01784231 -0.02012898 -0.022319 -0.0244073 -0.02641195 -0.02831901
 -0.03008388 -0.03170926 -0.03317305 -0.03449927 -0.03571602 -0.03684491 -0.03792338 -0.03895564 -0.03995896 -0.04092444
 -0.04185224 -0.04273253 -0.04356072 -0.04433534 -0.04505352 -0.04572497 -0.04634937 -0.0469462 -0.04751735 -0.04807664
 -0.04862494 -0.04914862 -0.04964522 -0.05007741 -0.05044492 -0.0507252 -0.05092446 -0.05105305 -0.05111618 -0.0511322
 -0.05110081 -0.05102902 -0.05091683 -0.0507644 -0.05057937 -0.05036341 -0.05013667 -0.04990577 -0.04970186 -0.04953605
 -0.04943579 -0.04941139 -0.0494697 -0.04961568 -0.04983194 -0.05011861 -0.05044281 -0.05080269 -0.05116716 -0.05153552
 -0.05189225 -0.05223788 -0.05256827 -0.05288273 -0.05317671 -0.05344869 -0.05369231 -0.05390775 -0.0540925 -0.05424699
 -0.05437182 -0.05446414 -0.05452209 -0.05454295 -0.05452301 -0.05446746 -0.05437501 -0.05426077 -0.05412659 -0.05399235
 -0.05386116 -0.05374917 -0.05365884 -0.05359293 -0.05355182 -0.05352224 -0.05350335 -0.05347951 -0.05345197 -0.05341965
 -0.05338645 -0.05336611 -0.05336126 -0.0533867 -0.05343903 -0.05352159 -0.0536237 -0.05373603 -0.05384516 -0.05393675
 -0.05400478 -0.05403978 -0.05404903 -0.0540316 -0.05400133 -0.05396167 -0.05392144 -0.05388334 -0.05384618 -0.05381053
 -0.05376856 -0.05371985 -0.05365784 -0.05358266 -0.05349516 -0.05339611 -0.0532915 -0.05318056 -0.05306475 -0.05294051
 -0.05279988 -0.05264013 -0.0524514 -0.05223716 -0.05199546 -0.05173662 -0.05146789 -0.05119813 -0.05093555 -0.05067964
 -0.05043297 -0.05018941 -0.04994741 -0.04970519 -0.04946213 -0.04921866 -0.04897536 -0.04872488 -0.04846691 -0.04818577
 -0.04788039 -0.0475323 -0.04714098 -0.04669029 -0.04618699 -0.0456393 -0.04507276 -0.04454814 -0.04410109 -0.04382583
 -0.04372595 -0.04386016 -0.04416658 -0.04462807 -0.04514701 -0.04566443 -0.04611663 -0.04645889 -0.04669238 -0.04680489
 -0.04683151 -0.04677621 -0.04666665 -0.04650666 -0.04630636 -0.04606667 -0.04578699 -0.04546619 -0.04508796 -0.04464785
 -0.04410672 -0.04346422 -0.04268742 -0.04180205 -0.0408406 -0.03986404 -0.03898784 -0.03826609 -0.03782668 -0.03764197
 -0.03775768 -0.03805006 -0.03846842 -0.03889566 -0.03925666 -0.03956471 -0.03979091 -0.04006539 -0.04040668 -0.04090957
 -0.04159577 -0.04240119 -0.04332513 -0.04417142 -0.04492936 -0.04539998 -0.04558963 -0.04542678 -0.04495538 -0.04429195
 -0.04350569 -0.0428352 -0.04231076 -0.04211747 -0.04218986 -0.04253853 -0.04304678 -0.04361277 -0.0441819 -0.0446801
 -0.04514391 -0.04557284 -0.04599703 -0.04643667 -0.04684325 -0.04721548 -0.04748263 -0.04763386 -0.04766076 -0.0475614
 -0.04738493 -0.04713389 -0.04685512 -0.04654768 -0.04622772 -0.04589241 -0.04553926 -0.04516701 -0.0447706 -0.04435159
 -0.04390928 -0.04344857 -0.04297461 -0.04249277 -0.04200948 -0.04152722 -0.04104834 -0.0405767 -0.04011231 -0.03966652
 -0.0392419 -0.03884892 -0.03849144 -0.0381638 -0.03786692 -0.03758169 -0.03730695 -0.03702892 -0.03674759 -0.03646342
 -0.03617726 -0.03589575 -0.03561791 -0.03534458 -0.03507149 -0.03478908 -0.03449123 -0.03416233 -0.03379977 -0.03339265
 -0.03294508 -0.03245614 -0.0319327 -0.03137834 -0.03079843 -0.03019518 -0.0295748 -0.02893856 -0.02829469 -0.02764471
 -0.02699472 -0.02634532 -0.025703 -0.02506811 -0.02445109 -0.02385227 -0.02327785 -0.02272723 -0.02219832 -0.02169214
 -0.02121109 -0.02075813 -0.0203447 -0.01996683 -0.0196262 -0.01930874 -0.01899792 -0.01868198 -0.0183428 -0.01798204
 -0.01759384 -0.01718882 -0.01676992 -0.01634553 -0.01591997 -0.01549052 -0.01505889 -0.01461098 -0.01414583 -0.01364795
 -0.0131162 -0.01254214 -0.01192556 -0.01126332 -0.01055649 -0.009809436 -0.009026421 -0.008226509 -0.00741464 -0.006614352
 -0.005826377 -0.005061336 -0.004322345 -0.003613002 -0.00294916 -0.002343546 -0.001814951 -0.001380995 -0.001042126 -0.0008063876
 -0.0006544298 -0.000583973 -0.0005721524 -0.0006148249 -0.0006948573 -0.0008101371 -0.0009472397 -0.001105299 -0.001269803 -0.001439531
 -0.001592197 -0.001725445 -0.001811246 -0.001848155 -0.001815546 -0.001712791 -0.00153041 -0.001261895 -0.0008948053 -0.0004134842
 0.0002081048 0.0009776062 0.001924501 0.003005292 0.004230236 0.00546055 0.006668355 0.007640044 0.008315283 0.008527006
 0.008218194 0.007406324 0.006070219 0.004426153 0.002484091 0.0005288566 -0.001427995 -0.00318873 -0.004760493 -0.006100083
 -0.007229705 -0.008218216 -0.00908319 -0.009910081 -0.01069862 -0.01148898 -0.01227166 -0.01304848 -0.01381636 -0.0145705
 -0.01531773 -0.01605847 -0.01680702 -0.01756805 -0.01835743 -0.01918216 -0.02004408 -0.02094749 -0.0218717 -0.02281535
 -0.02375596 -0.02469154 -0.02561902 -0.02653852 -0.02745554 -0.02836945 -0.02927764 -0.0301793 -0.03106904 -0.0319476
 -0.03281511 -0.03367049 -0.03451328 -0.03533825 -0.03613942 -0.03690959 -0.03764097 -0.03832648 -0.03895928 -0.03953642
 -0.04005321 -0.04051653 -0.04092534 -0.04129616 -0.04163067 -0.04194923 -0.04225399 -0.04256389 -0.04288057 -0.0432125
 -0.04355938 -0.04391067 -0.04426436 -0.0445995 -0.04491568 -0.04519965 -0.04545322 -0.04567452 -0.04586567 -0.04602899
 -0.0461681 -0.04628839 -0.04639336 -0.04648982 -0.04657409 -0.0466474 -0.04670044 -0.04672804 -0.04672977 -0.04670189
 -0.04665885 -0.04660188 -0.04654858 -0.04650184 -0.04646711 -0.04644548 -0.04642456 -0.04640341 -0.0463609 -0.0462971
 -0.04620226 -0.0460793 -0.0459365 -0.0457752 -0.04560441 -0.0454217 -0.04522509 -0.04501613 -0.04479365 -0.04456654
 -0.0443433 -0.04412813 -0.04392902 -0.04373714 -0.0435515 -0.04336067 -0.04315969 -0.04294814 -0.04272372 -0.0424969
 -0.04226828 -0.04205048 -0.0418446 -0.04165648 -0.04148624 -0.04133268 -0.04119589 -0.04107597 -0.04097365 -0.04089336
 -0.04083346 -0.04079298 -0.04076654 -0.04074342 -0.04071898 -0.04068237 -0.04063162 -0.04056163 -0.04047022 -0.04035426
 -0.04021375 -0.04004646 -0.03985908 -0.03965268 -0.03943481 -0.03920775 -0.03897214 -0.03872873 -0.03847332 -0.03820563
 -0.03792314 -0.03762593 -0.03731773 -0.03699969 -0.03668366 -0.03637 -0.03606841 -0.03577456 -0.03548063 -0.03518326
 -0.03486734 -0.03454422 -0.03421956 -0.03391429 -0.03365426 -0.03344061 -0.03329 -0.03316924 -0.03307126 -0.03295527
 -0.0328052 -0.03260668 -0.03235036 -0.03205592 -0.0317225 -0.03138832 -0.03105586 -0.03076042 -0.03050326 -0.03029836
 -0.03014349 -0.03002643 -0.02994242 -0.02986359 -0.02978568 -0.02968103 -0.02954959 -0.0293767 -0.02916815 -0.02892484
 -0.02865531 -0.02836786 -0.02806904 -0.02776503 -0.02746115 -0.02716079 -0.02686874 -0.02658809 -0.02631688 -0.02605649
 -0.02579625 -0.02553496 -0.0252647 -0.02498447 -0.02469712 -0.02440272 -0.02410323 -0.02379756 -0.02347598 -0.02313838
 -0.02277678 -0.02239664 -0.0220095 -0.02162166 -0.02125379 -0.02090266 -0.02057428 -0.02025863 -0.01994621 -0.0196355
 -0.01931935 -0.01901003 -0.01871074 -0.01843378 -0.01818544 -0.01796426 -0.01777322 -0.0175952 -0.01742947 -0.01725185
 -0.01706024 -0.01684039 -0.01659206 -0.01632257 -0.0160334 -0.01574159 -0.01544702 -0.01515759 -0.01487275 -0.01459412
 -0.01432333 -0.0140659 -0.01381951 -0.01358614 -0.01335474 -0.01311562 -0.01285894 -0.01257272 -0.01226033 -0.01191771
 -0.01156021 -0.01118998 -0.01082724 -0.01047575 -0.01015408 -0.009865831 -0.009616639 -0.009408001 -0.009226148 -0.009070167
 -0.008916737 -0.008764868 -0.008595634 -0.008409832 -0.00820034 -0.007970417 -0.007725485 -0.007470018 -0.007215888 -0.006965757
 -0.006728303 -0.006504912 -0.006300033 -0.006114051 -0.005950216 -0.0058023 -0.005669595 -0.005541441 -0.005412898 -0.005283821
 -0.005151814 -0.005028319 -0.004915169 -0.004815505 -0.004730318 -0.004648218 -0.004568652 -0.004481249 -0.004386198 -0.004281539
 -0.004167777 -0.004046444 -0.003917487 -0.003782879 -0.003639215 -0.003481931 -0.0033039 -0.003090467 -0.002843763 -0.002555125
 -0.002245533 -0.001925907 -0.001615354 -0.001329533 -0.001063309 -0.0008196622 -0.0005847357 -0.000354441 -0.000129194 9.199742E-05
 0.0003024122 0.0005013506 0.0006885635 0.0008641115 0.001032544 0.001194623 0.001359701 0.001528385 0.001710104 0.001902048
 0.002099928 0.002301726 0.002497796 0.002696076 0.002903463 0.003128804 0.003387725 0.0036725 0.003985376 0.004308597
 0.004634242 0.004950084 0.0052511 0.005527673 0.005776588 0.005993667 0.006176073 0.006338811 0.006482406 0.006628438
 0.006777836 0.006936199 0.007103554 0.007281092 0.007470776 0.007684868 0.007922824 0.008191913 0.008484618 0.008789768
 0.009097331 0.009388399 0.009654392 0.009878789 0.01005966 0.01018635 0.01027469 0.0103264 0.01036739 0.01040822
 0.01045791 0.01052208 0.01059233 0.01066767 0.01074608 0.01082711 0.01091318 0.01100439 0.01110046 0.01120312
 0.01132997 0.01148457 0.01169865 0.01196692 0.01229219 0.01266025 0.01304112 0.01342597 0.0137885 0.01412554
 0.01442288 0.01468473 0.01490041 0.01510748 0.01531197 0.01558114 0.01595096 0.01640788 0.01697215 0.01751637
 0.01801935 0.01843899 0.01876596 0.01905151 0.01929781 0.01953631 0.01976537 0.01997735 0.02016849 0.02031593
 0.02041638 0.02044575 0.02040616 0.02028642 0.02010043 0.0198629 0.01958958 0.01930362 0.01901127 0.01872303
 0.01844452 0.01818033 0.01793613 0.01771615 0.01751638 0.01733508 0.01717746 0.01704136 0.01695545 0.01692227
 0.01695972 0.01706852 0.01723205 0.01744862 0.01769512 0.01796906 0.01825074 0.01852772 0.01875159 0.01890461
 0.01891678 0.01879604 0.01851443 0.01811237 0.01762082 0.01707707 0.01651609 0.01596645 0.01544573 0.01499041
 0.01461476 0.01434928 0.01420397 0.01419356 0.01432444 0.01458243 0.01497122 0.0154061 0.01588238 0.01627777
 0.01659168 0.01677637 0.01684415 0.01683946 0.01677075 0.01668932 0.01659648 0.01651705 0.01645697 0.01643678
 0.0164584 0.01653563 0.01665513 0.01681387 0.01699196 0.01718107 0.0173582 0.01751507 0.01763016 0.0176926
 0.01771537 0.01769407 0.01768291 0.01768646 0.01774359 0.01785638 0.01801925 0.01823074 0.01847459 0.01874632
 0.01901893 0.01927689 0.01945157 0.01953389 0.01945692 0.01925151 0.01892655 0.01854055 0.01816341 0.01782788
 0.01759009 0.01743071 0.01736137 0.01733221 0.01732883 0.01731217 0.01726524 0.01719609 0.01709976 0.0170201
 0.01696155 0.01694326 0.01696629 0.01699908 0.01703864 0.01703865 0.01699897 0.01689265 0.01672688 0.01650721
 0.01625141 0.01600251 0.01577478 0.01561625 0.01551518 0.01547948 0.01548737 0.01551932 0.0155787 0.0156616
 0.01577623 0.01593267 0.0160995 0.01627474 0.01641209 0.01650156 0.01653384 0.01650581 0.01643531 0.01632319
 0.01617597 0.01599278 0.01576362 0.01548757 0.01515219 0.01476157 0.01431772 0.01383776 0.01335851 0.01290359
 0.01253126 0.01224425 0.01207521 0.01199685 0.01200418 0.01205499 0.01212888 0.01218562 0.01220238 0.01217333
 0.01208362 0.01198955 0.01189533 0.01186708 0.01191586 0.01201495 0.01216334</values></Ydata></AB><ScSm><Ydata ylabel="Single channel"><values byteorder="INTEL" format="FLOAT32" numvalues="1814"> 0.07086454 0.07087519 0.07094728 0.0711024 0.07131344 0.07152018 0.07166963 0.07174908 0.07177397 0.07175233
 0.07169242 0.07164557 0.07169417 0.0718703 0.07210608 0.07228043 0.07231732 0.07225469 0.0722214 0.07231028
 0.07244894 0.07242627 0.07209057 0.07152335 0.07098326 0.07066809 0.07059671 0.07076684 0.07127583 0.07206705
 0.07265659 0.07248373 0.07161274 0.0707605 0.07049869 0.07070774 0.07091302 0.07083366 0.07046704 0.06998326
 0.06977919 0.07037181 0.07188878 0.07364802 0.07440343 0.07313306 0.06976958 0.0654314 0.06200914 0.06115019
 0.06309538 0.06635006 0.06880862 0.06943591 0.0687595 0.06779754 0.06696659 0.06621736 0.06574215 0.06601349
 0.06713087 0.06837869 0.06859142 0.06714648 0.06470293 0.06273884 0.06220439 0.06292221 0.0643689 0.06624795
 0.06769072 0.06680408 0.06253158 0.05700374 0.05458467 0.05772131 0.06433275 0.06985171 0.07129057 0.06890547
 0.06485809 0.06142639 0.06015668 0.06144537 0.06445814 0.0678234 0.07046945 0.07167633 0.07088724 0.06819202
 0.06480545 0.06248035 0.06243234 0.06486364 0.06891623 0.07274595 0.0743649 0.07311459 0.07010244 0.06702973
 0.06507197 0.06489126 0.06680509 0.07044907 0.07475627 0.07857981 0.08116128 0.08220048 0.08191625 0.08091089
 0.07971255 0.07868786 0.07836261 0.07909688 0.08023325 0.08034864 0.07880536 0.07660219 0.07534217 0.07557303
 0.07635446 0.07640532 0.07540116 0.07375185 0.0713245 0.06743065 0.06239071 0.05794723 0.05552244 0.05513578
 0.05643693 0.05926012 0.06241155 0.06360053 0.0619477 0.05958146 0.05952538 0.06247358 0.06643488 0.06916022
 0.07021968 0.07084895 0.07235654 0.07478708 0.07674821 0.07646181 0.07353017 0.0699328 0.06862846 0.07065068
 0.07411392 0.07653308 0.07744233 0.07812512 0.07936478 0.08022992 0.07904533 0.0753833 0.07113966 0.06936787
 0.07162016 0.07639115 0.08020862 0.0802058 0.07605162 0.07002299 0.06522749 0.0634543 0.0646933 0.06831419
 0.07375808 0.0799244 0.08489314 0.08700129 0.08605465 0.08322296 0.0797071 0.07563178 0.07068464 0.0659658
 0.06421084 0.06720349 0.07349388 0.07960881 0.08315315 0.08400423 0.08295697 0.08024244 0.0757511 0.07045862
 0.06689374 0.06717418 0.07045691 0.07341719 0.07373312 0.07220237 0.07102527 0.07105687 0.07149491 0.07157506
 0.07165807 0.07261289 0.07457595 0.07662753 0.07768628 0.07749471 0.07665579 0.07592608 0.07553129 0.0750097
 0.07385986 0.0725368 0.07240246 0.07424012 0.07718338 0.07960756 0.08075871 0.08103133 0.0808951 0.08007034
 0.07794211 0.07473044 0.07196967 0.07137188 0.07316914 0.07596959 0.07820739 0.07926865 0.07933705 0.07882485
 0.07809454 0.07733981 0.07664853 0.07626347 0.07652145 0.07737061 0.07826029 0.07869703 0.07865204 0.07831203
 0.07772332 0.07685985 0.07587613 0.07511663 0.07486595 0.07513214 0.07568922 0.07628149 0.07671393 0.07681403
 0.07649423 0.07588293 0.0752451 0.07474162 0.07437892 0.07417552 0.07421196 0.0744789 0.07480488 0.07499843
 0.07499889 0.07485634 0.07462578 0.07432747 0.07398224 0.07365006 0.07342684 0.0733819 0.07347531 0.07357578
 0.07360654 0.07362485 0.07369334 0.07373483 0.07361332 0.07332462 0.07301305 0.07281172 0.07273523 0.07271744
 0.07268357 0.07256335 0.07228749 0.07184719 0.07137297 0.07108758 0.07112856 0.07144605 0.07188535 0.07230255
 0.07258807 0.07268241 0.07262291 0.07251012 0.07239217 0.07222979 0.07198937 0.07172944 0.07158124 0.07164799
 0.07191005 0.07223275 0.07247898 0.07259855 0.07261459 0.07258522 0.07258853 0.0726684 0.07276815 0.07278072
 0.07268569 0.07258339 0.07257652 0.07265657 0.07272278 0.07269754 0.07261235 0.07257333 0.07264476 0.07279035
 0.07293434 0.07304804 0.07315753 0.07328472 0.07339731 0.07342473 0.07333623 0.07319416 0.07309852 0.07308467
 0.07311617 0.07317072 0.07327652 0.07344903 0.0736372 0.07376432 0.07380923 0.07382251 0.0738574 0.07390244
 0.07390091 0.07382896 0.07372902 0.07366486 0.07366494 0.07371308 0.07377361 0.07381645 0.07382757 0.07380714
 0.07376228 0.07370086 0.07362923 0.0735597 0.07352374 0.07356255 0.07368048 0.0738107 0.07385438 0.07376867
 0.07360882 0.07347447 0.07341713 0.07340375 0.07336739 0.07328044 0.07317118 0.07308131 0.07302625 0.07299522
 0.07297058 0.07294332 0.07292582 0.07295506 0.07306345 0.07323075 0.07337894 0.07343769 0.07341295 0.07337514
 0.07338566 0.07345141 0.07354215 0.07363058 0.07371692 0.07382517 0.07396759 0.07411207 0.07420859 0.07425357
 0.07430013 0.07439911 0.07455978 0.07476573 0.07498699 0.07517283 0.07527794 0.07531355 0.07534155 0.07540651
 0.07549839 0.07558773 0.0756688 0.0757539 0.075848 0.0759517 0.0760829 0.07627739 0.07656195 0.07692833
 0.07733177 0.07771743 0.0780607 0.07838907 0.07875836 0.0792002 0.07969178 0.0801756 0.08060588 0.08097959
 0.08132614 0.08166932 0.0820081 0.08234309 0.08270404 0.08312452 0.08359523 0.08406949 0.08451571 0.08494228
 0.08537138 0.08580998 0.08625206 0.08669523 0.08714696 0.08761404 0.08808489 0.08852857 0.08892117 0.08927196
 0.08961819 0.08999888 0.09043253 0.09089996 0.09134045 0.09169227 0.09196146 0.09223182 0.09257844 0.09298468
 0.09337494 0.09371942 0.09406663 0.09446806 0.09490819 0.09533028 0.09570798 0.09606639 0.09643939 0.09682564
 0.09718858 0.09749308 0.09774032 0.09796506 0.09820087 0.09846202 0.09876505 0.09914106 0.09959748 0.1000825
 0.1005193 0.1008703 0.1011476 0.1013798 0.1015974 0.1018339 0.1021045 0.1023908 0.1026642 0.1029107
 0.1031222 0.1032958 0.10346 0.1036698 0.1039517 0.1042815 0.104634 0.1050213 0.1054525 0.1058915
 0.1062965 0.1066865 0.1071202 0.1076031 0.1080574 0.1084035 0.1086385 0.1088136 0.108972 0.1091437
 0.1093749 0.1097086 0.1101344 0.110594 0.1110375 0.1114549 0.1118525 0.1122233 0.1125486 0.1128178
 0.1130384 0.1132293 0.1134101 0.1136028 0.1138349 0.1141237 0.1144497 0.1147608 0.1150099 0.1151788
 0.1152612 0.1152521 0.1151749 0.1150944 0.1150658 0.1150664 0.115002 0.1147835 0.1143859 0.1138354
 0.1131622 0.1123817 0.1115174 0.1106339 0.1098398 0.1092489 0.1089322 0.1089075 0.109161 0.1096538
 0.1103047 0.1109943 0.1116041 0.1120406 0.1122173 0.1120525 0.1115213 0.1107039 0.1097541 0.1088154
 0.1079654 0.1072185 0.1065626 0.1060094 0.1056376 0.105587 0.105994 0.1069229 0.1083406 0.1101274
 0.1121001 0.1140555 0.1158341 0.1173712 0.1186913 0.1198563 0.1209194 0.1219199 0.122892 0.1238499
 0.1247691 0.1256088 0.1263559 0.1270297 0.1276463 0.1281972 0.1286606 0.129019 0.1292703 0.1294363
 0.1295555 0.1296583 0.1297571 0.1298613 0.1299809 0.1301034 0.1301786 0.1301385 0.1299345 0.1295695
 0.1291234 0.1287634 0.1287155 0.1291869 0.1302693 0.131882 0.1338105 0.1358138 0.1377088 0.1393791
 0.1407554 0.1418233 0.1426382 0.1432956 0.1438782 0.1444322 0.1449782 0.1455226 0.1460606 0.146582
 0.1470809 0.1475616 0.1480368 0.1485192 0.149007 0.1494826 0.1499324 0.1503673 0.1508156 0.1512932
 0.151785 0.1522617 0.1527143 0.1531626 0.153621 0.154069 0.1544731 0.1548326 0.1551857 0.155571
 0.1560007 0.1564643 0.1569365 0.1573821 0.1577746 0.1581177 0.1584394 0.1587655 0.1591047 0.1594574
 0.1598232 0.160197 0.1605689 0.1609363 0.1613108 0.1616989 0.1620809 0.1624222 0.1627109 0.1629744
 0.1632532 0.1635644 0.1638937 0.1642165 0.1645271 0.1648479 0.1652064 0.1656015 0.165997 0.1663524
 0.1666578 0.1669375 0.1672234 0.1675302 0.1678554 0.168191 0.1685307 0.1688661 0.1691894 0.1695018
 0.1698136 0.1701343 0.1704655 0.1708044 0.171147 0.1714896 0.1718285 0.1721625 0.1724963 0.1728424
 0.1732134 0.173604 0.173985 0.1743245 0.1746154 0.1748769 0.1751345 0.1754065 0.1757016 0.1760197
 0.1763538 0.1766959 0.1770405 0.1773823 0.1777157 0.1780394 0.1783581 0.1786793 0.1790092 0.17935
 0.1796992 0.1800511 0.1804016 0.1807473 0.1810832 0.1814053 0.1817173 0.1820295 0.1823486 0.1826683
 0.1829758 0.1832673 0.1835549 0.1838542 0.1841675 0.1844853 0.1848012 0.1851172 0.1854354 0.1857521
 0.186061 0.18636 0.1866523 0.1869434 0.1872366 0.1875326 0.1878321 0.1881352 0.1884398 0.1887446
 0.189054 0.1893727 0.1896982 0.1900207 0.1903314 0.1906302 0.1909256 0.1912271 0.1915361 0.1918474
 0.1921584 0.1924709 0.1927853 0.1930975 0.1934032 0.1937025 0.1939994 0.1942998 0.1946064 0.1949175
 0.1952307 0.1955439 0.1958531 0.1961533 0.196447 0.1967425 0.1970462 0.1973603 0.1976832 0.1980086
 0.1983287 0.1986426 0.1989562 0.1992757 0.1996013 0.1999242 0.2002303 0.2005129 0.2007805 0.201047
 0.2013185 0.2015963 0.2018828 0.2021774 0.2024762 0.2027796 0.2030887 0.2033986 0.2037039 0.2040067
 0.2043128 0.2046238 0.204936 0.2052437 0.2055449 0.2058471 0.2061589 0.2064766 0.2067907 0.2070998
 0.2074084 0.2077177 0.2080289 0.2083448 0.2086636 0.2089817 0.2093017 0.2096267 0.2099531 0.2102758
 0.2105914 0.2108966 0.2111937 0.2114938 0.2118016 0.2121118 0.2124254 0.2127505 0.2130824 0.2134054
 0.2137118 0.2140051 0.214293 0.2145883 0.2148989 0.2152155 0.2155261 0.2158339 0.2161453 0.2164588
 0.2167739 0.2170895 0.2173944 0.2176828 0.2179685 0.2182624 0.2185582 0.2188525 0.2191489 0.2194294
 0.2196343 0.2196187 0.2190421 0.2172435 0.2132184 0.2058072 0.1941501 0.1782269 0.159057 0.138341
 0.1178348 0.09888657 0.08229408 0.06840523 0.05730018 0.04890942 0.04307501 0.03965522 0.03864655 0.04031774
 0.04534952 0.05442625 0.0667138 0.07852274 0.08475076 0.08291064 0.07550777 0.06775668 0.06325255 0.06224304
 0.06318861 0.06477879 0.06660195 0.0689016 0.07208758 0.07626456 0.08121853 0.08693571 0.09385177 0.1022955
 0.1118258 0.1214216 0.130368 0.1388123 0.1474093 0.1565243 0.165851 0.174718 0.1826203 0.1894618
 0.1954481 0.2008604 0.2059028 0.2106784 0.2152384 0.2195767 0.2235381 0.226785 0.2289588 0.2299486
 0.2300229 0.2296819 0.229363 0.2292663 0.2294086 0.2297595 0.230298 0.2310012 0.2318376 0.2327721
 0.2337654 0.2347811 0.2357966 0.2367957 0.2377569 0.2386598 0.2394949 0.2402604 0.2409594 0.2416026
 0.2422019 0.2427619 0.2432824 0.2437648 0.2442151 0.2446456 0.24507 0.2454895 0.2458911 0.246263
 0.2466055 0.2469236 0.2472227 0.2475119 0.2477991 0.2480844 0.2483662 0.2486492 0.2489383 0.2492331
 0.2495308 0.2498275 0.2501172 0.2503967 0.2506718 0.2509493 0.2512273 0.2514997 0.2517655 0.2520283
 0.2522935 0.2525673 0.2528509 0.2531374 0.2534172 0.2536881 0.2539572 0.2542328 0.2545155 0.2547968
 0.2550723 0.2553522 0.255649 0.2559578 0.2562651 0.256569 0.2568749 0.2571804 0.2574812 0.2577804
 0.2580746 0.2583458 0.2585824 0.2588032 0.2590489 0.2593472 0.2596868 0.2600269 0.2603384 0.260626
 0.2609077 0.2611866 0.2614518 0.2616941 0.2619194 0.2621617 0.2624654 0.2628341 0.2632187 0.2635742
 0.2639018 0.2642205 0.264541 0.2648739 0.265219 0.2655381 0.2657834 0.2659691 0.2661871 0.2665304
 0.267002 0.2675033 0.2679252 0.2682459 0.2685259 0.2688318 0.2691908 0.2695693 0.2698543 0.269933
 0.2698678 0.26992 0.2703089 0.270991 0.2717347 0.2723554 0.2728255 0.2732128 0.2735751 0.2739034
 0.274131 0.2742067 0.2741897 0.2742699 0.2746332 0.2752722 0.2759773 0.276552 0.2769663 0.2772847
 0.2775562 0.2778068 0.2779905 0.2779258 0.2774871 0.2769347 0.2768426 0.2775421 0.2787477 0.2798607
 0.2805599 0.2809681 0.2813163 0.2816615 0.2819467 0.2820573 0.2816993 0.2805671 0.2789429 0.2778611
 0.2782544 0.2800121 0.2821576 0.2838239 0.2848006 0.2853105 0.2856282 0.2858988 0.2860306 0.2857043
 0.2847302 0.2835234 0.2829968 0.2837155 0.2852583 0.2866709 0.2874414 0.2877641 0.2880205 0.2883562
 0.2885874 0.2881503 0.2864176 0.2836239 0.2813317 0.28133 0.2838826 0.2874112 0.2900627 0.2913049
 0.2917706 0.2918838 0.2912337 0.289307 0.2862534 0.282817 0.2801061 0.2794409 0.2814764 0.2851115
 0.288121 0.2893551 0.2897055 0.2906311 0.2924144 0.2941836 0.2950422 0.2947575 0.2936049 0.2918801
 0.2897593 0.2877501 0.2869629 0.2883257 0.2914528 0.2947822 0.2970175 0.2981097 0.2985737 0.2979695
 0.2946025 0.287568 0.2792957 0.2748708 0.2775408 0.2853163 0.293106 0.2977191 0.299605 0.3004592
 0.3009557 0.3005612 0.2978395 0.2912351 0.2815249 0.2733555 0.2720979 0.2785341 0.2879744 0.2946375
 0.2955904 0.2910571 0.2833757 0.276298 0.2734573 0.2761658 0.2828454 0.2905882 0.2968996 0.300379
 0.3007063 0.2985069 0.2952971 0.2931128 0.2930389 0.2936014 0.2918868 0.2872303 0.2823346 0.2792989
 0.2763604 0.2711429 0.2658714 0.2658831 0.2726895 0.2814493 0.2864147 0.2867534 0.2854853 0.2839875
 0.2796345 0.2695773 0.2561369 0.24688 0.2479986 0.2578935 0.2686087 0.2736153 0.2729932 0.2710933
 0.2707259 0.2703088 0.2661275 0.2571978 0.2476998 0.2434647 0.2457752 0.2502097 0.2518594 0.2492512
 0.242643 0.2324235 0.2218674 0.2181179 0.2261427 0.2426281 0.2586024 0.2668391 0.2644774 0.2513594
 0.2309885 0.2126037 0.206683 0.215562 0.2305904 0.2400996 0.2386624 0.2280183 0.212044 0.1941021
 0.1786034 0.1714753 0.1765805 0.1917905 0.2091511 0.218889 0.2147941 0.1989957 0.1822843 0.1763474
 0.1831976 0.193848 0.1984079 0.1950519 0.1885803 0.1841687 0.1843586 0.1887326 0.1943919 0.1986364
 0.2011213 0.2008935 0.1934775 0.1762883 0.155923 0.143843 0.1444387 0.1527427 0.1636353 0.176438
 0.1889807 0.1944401 0.1890452 0.1792493 0.1762585 0.1841269 0.1962637 0.2034817 0.2030807 0.1993401
 0.1968578 0.1956284 0.1933519 0.1907605 0.191814 0.1982432 0.2065432 0.2118934 0.213183 0.2125813
 0.2118534 0.2110329 0.2096772 0.2076544 0.2050396 0.2022235 0.1998075 0.1979271 0.1961406 0.1941233
 0.1916407 0.1875388 0.180015 0.1691956 0.1587554 0.1530474 0.1525322 0.1540275 0.1554536 0.1570869
 0.1571309 0.1504313 0.1353025 0.1191592 0.1131371 0.1213483 0.13782 0.153263 0.1620958 0.1628841
 0.1556561 0.1424067 0.1297183 0.1266783 0.1373832 0.1569648 0.1768356 0.192117 0.2021327 0.2062693
 0.2032434 0.1943035 0.1844867 0.1797624 0.18342 0.1945746 0.2083805 0.2172015 0.2143461 0.2007808
 0.1882096 0.1904365 0.2087941 0.2298362 0.2404406 0.2411291 0.2407061 0.2425849 0.2431049 0.2411844
 0.2421744 0.2504956 0.2631048 0.2724905 0.2732681 0.2642939 0.2479304 0.2305335 0.2207934 0.2227924
 0.2313947 0.2378472 0.2382689 0.2331713 0.2222625 0.2064698 0.1933339 0.1925119 0.2045698 0.2196837
 0.2288177 0.231959 0.234041 0.2365089 0.2356369 0.2282123 0.2168137 0.2081988 0.2065706 0.2098766
 0.2133003 0.2143731 0.2130425 0.2088019 0.2010111 0.1919785 0.1869802 0.1897269 0.1985963 0.2082135
 0.2143103 0.2164262 0.216581 0.2166535 0.2170761 0.2170486 0.2159378 0.2150774 0.2174824 0.2245303
 0.2336229 0.2407993 0.2452707 0.2496668 0.2559293 0.2626091 0.2665929 0.2664872 0.2639662 0.2623581
 0.2640058 0.2684034 0.2725578 0.2735496 0.2713233 0.2690019 0.2700023 0.2747674 0.2807093 0.2851418
 0.2874689 0.2886273 0.289515 0.2902467 0.2901112 0.2881393 0.28455 0.281615 0.2820554 0.2863131
 0.2920867 0.2966626 0.2990748 0.29995 0.3000343 0.2994009 0.2978819 0.2957919 0.2939577 0.293074
 0.293216 0.2939979 0.2949933 0.2959166 0.2966126 0.2970666 0.2973769 0.2976408 0.2978928 0.2981416
 0.2983684 0.2984833 0.2984 0.2981983 0.298112 0.2982836 0.298591 0.2987833 0.29871 0.2983241
 0.297542 0.2962639 0.294538 0.2925603 0.2904672 0.2882471 0.2859769 0.2841011 0.2833117 0.2840207
 0.2859524 0.2882961 0.2902403 0.2913698 0.2917225 0.2916611 0.2916591 0.2920131 0.2926507 0.293241
 0.2935014 0.2933789 0.2929783 0.2924016 0.2916863 0.2908397 0.289854 0.2886825 0.2872827 0.2857597
 0.2844245 0.2835986 0.2833117 0.2832539 0.2830854 0.2827681 0.2825378 0.2825656 0.2827021 0.2825508
 0.2817565 0.2802795 0.2784884 0.2769613 0.2760643 0.2756777 0.2753788 0.2748698 0.2741611 0.2733953
 0.2726351 0.2718465 0.2709832 0.2700228 0.268949 0.2677332 0.2663452 0.2647858 0.2631043 0.261366
 0.2596042 0.2578158 0.2559943 0.2541456 0.2522727 0.2503617 0.2483929 0.2463643 0.2443016 0.2422358
 0.2401501 0.2379406 0.2354371 0.2324724 0.228932 0.2247572 0.2199458 0.2145813 0.2088497 0.2029996
 0.1972695 0.1918358 0.1868138 0.1822964 0.1783841 0.1751698 0.1727029 0.1709839 0.169993 0.1697133
 0.1701306 0.1712188 0.1729123 0.175085 0.1775599 0.1801437 0.1826507 0.1849282 0.1869039 0.1886204
 0.1901968 0.1917388 0.1932795 0.1947922 0.1962417 0.1976101 0.198881 0.2000234 0.2010076 0.2018289
 0.2024979 0.2030143 0.2033609 0.2035123 0.2034306 0.2030596 0.2023677 0.2014496 0.2006089 0.2002915
 0.2008468 0.2022898 0.204282 0.2063546 0.2081848 0.2097136 0.2110609 0.2123606 0.2136718 0.2150002
 0.216349 0.2177416 0.2192291 0.2208825 0.222755 0.2248469 0.2271178 0.2295159 0.2319722 0.2343851
 0.2366378 0.2386363 0.2403274 0.2416908 0.242726 0.2434486 0.2438951 0.2441191 0.244175 0.2441105
 0.2439677 0.2437731 0.2435212 0.2431865 0.24275 0.2422067 0.2415666 0.240866 0.2401558 0.2394591
 0.2387554 0.238019 0.237259 0.2365107 0.2357959 0.2351011 0.2343925 0.2336511 0.2328818 0.2320891
 0.2312623 0.2303873 0.2294508 0.2284308 0.2273052 0.2260723 0.2247436 0.2233235 0.2218121 0.2202215
 0.2185719 0.2168788 0.2151464 0.2133678 0.2115298 0.2096137 0.2075847 0.2053984 0.2030522 0.2006264
 0.1982455 0.1959996 0.1939116 0.1919577 0.1901 0.1883136 0.1865955 0.1849463 0.1833601 0.1818496
 0.180454 0.1791935 0.1780321 0.1769063 0.1757813 0.1746747 0.173642 0.1727402 0.1719882 0.1713579
 0.1708033 0.1702949 0.169837 0.1694644 0.1692087 0.1690536 0.1689326 0.1687768 0.1685515 0.1682568
 0.1679188 0.1675758 0.1672479 0.1669256 0.1665944 0.1662451 0.1658411 0.1652944 0.1644937 0.1633598
 0.1618838 0.1601225 0.1581655 0.15611 0.1540638 0.1521417 0.1504405 0.1490203 0.1479014 0.1470508
 0.1463847 0.1458192 0.1453293 0.144953 0.1447461 0.1447181 0.1447863 0.1448135 0.1447334 0.1446272
 0.1446522 0.1449146 0.1454098 0.1460383 0.1466652 0.1471976 0.1476111 0.1479038 0.148064 0.1480969
 0.1480337 0.1478985 0.147696 0.1474278 0.147094 0.1466942 0.1462381 0.1457275 0.1451306 0.1444095
 0.1435626 0.1426223 0.141631 0.1406124 0.1395275 0.1383 0.1369576 0.1357178 0.1348707 0.1345902
 0.1348594 0.1355128 0.1363478 0.1372402 0.1381134 0.138784 0.1390161 0.1388827 0.1389477 0.1398572
 0.1417171 0.1439748 0.1459167 0.1471754 0.1477494 0.1477285 0.1471694 0.1461344 0.144658 0.142708
 0.1402911 0.1375229 0.1345411 0.1314738 0.1285103 0.125849 0.12358 0.1217061 0.1202095 0.1191259
 0.1185891 0.1182469 0.1162817 0.110359 0.1012145 0.0942747 0.09511285 0.1031969 0.1122515 0.1169052
 0.1169824 0.1153195 0.1138871 0.1129973 0.1125577 0.1126922 0.1134991 0.1148187 0.1162578 0.1174193
 0.1181526 0.1185049 0.1184264 0.1175619 0.1152155 0.1105826 0.103405 0.09456126 0.08576384 0.07854449
 0.07356609 0.07067398 0.06924601 0.06853588 0.068031 0.06768571 0.06781495 0.06874509 0.07055723 0.07311659
 0.07622406 0.0796111 0.08285628 0.08554715 0.08758929 0.08919156 0.09051415 0.09148679 0.09197617 0.09196635
 0.09155074 0.0908661 0.0900552 0.08921246 0.08832856 0.0873232 0.08618931 0.08510982 0.08435185 0.08400895
 0.08393262 0.08394189 0.08398079 0.0840436 0.0840864 0.08406676 0.08399472 0.08394223 0.08403495 0.08436554
 0.08487093 0.08536302 0.08569687 0.08585817 0.08590577 0.08585884 0.08561406 0.08503941 0.08423957 0.08357476
 0.08321466 0.08283386 0.0820266 0.08091445 0.08006212 0.07984132 0.08010155 0.0804309 0.08053865 0.08038291
 0.08012246 0.08003642 0.08034849 0.08096965</values></Ydata></ScSm><ScRf><Ydata ylabel="Single channel"><values byteorder="INTEL" format="FLOAT32" numvalues="1820"> 0.06058532 0.06074657 0.06085254 0.06089941 0.0609033 0.06090458 0.06095479 0.06108272 0.06126953 0.0614573
 0.06159074 0.06165589 0.06167101 0.06164691 0.06158831 0.06153674 0.06156711 0.0617147 0.06192418 0.06208676
 0.06212781 0.06207258 0.06203335 0.06210037 0.0622202 0.06220775 0.06192057 0.06142332 0.06094632 0.06067146
 0.06061681 0.06077123 0.06121075 0.06188875 0.06239397 0.06224113 0.06147811 0.06072261 0.06047726 0.06064719
 0.06082168 0.06075278 0.06043658 0.06002249 0.05985368 0.06037225 0.06168281 0.0631952 0.06383794 0.06273409
 0.0598277 0.05608279 0.05312855 0.05238586 0.05406556 0.0568824 0.05901911 0.05957533 0.05899925 0.05816824
 0.05744337 0.05678234 0.05635307 0.05657031 0.05752597 0.05859976 0.05877796 0.0575215 0.05540606 0.05371304
 0.05325918 0.05388355 0.05513117 0.0567489 0.05799098 0.0572249 0.05353696 0.04876365 0.04667416 0.04938966
 0.05511934 0.05991043 0.06116447 0.05909526 0.05558136 0.05260514 0.05150335 0.05261055 0.05520431 0.05810671
 0.06039658 0.06144811 0.06077411 0.05845146 0.05553258 0.05353081 0.05349004 0.0555818 0.05907192 0.06237879
 0.0637871 0.06271677 0.06011293 0.05744572 0.05574006 0.05557525 0.0572276 0.06038243 0.0641166 0.06743422
 0.06967302 0.07056904 0.0703124 0.06943093 0.06839128 0.06751435 0.06724679 0.06788709 0.06886218 0.06894775
 0.0675996 0.06568325 0.06458519 0.06478196 0.06546143 0.0655095 0.06463715 0.06319897 0.0610905 0.05772702
 0.05338646 0.04956708 0.04748878 0.04716552 0.04830156 0.05076414 0.05352349 0.05458771 0.05317868 0.0511259
 0.05104838 0.05356261 0.05696237 0.0593082 0.06022491 0.0607765 0.06209209 0.06420887 0.06592093 0.06568798
 0.06316313 0.0600583 0.05893688 0.06069715 0.06370743 0.06581496 0.06661859 0.06723645 0.06835129 0.06915025
 0.06816888 0.06503043 0.06138445 0.05988535 0.06187747 0.06605116 0.06939416 0.06941782 0.06583298 0.06062266
 0.05649701 0.0550134 0.05616006 0.05939469 0.06424403 0.069754 0.07423887 0.07622209 0.07550474 0.07309431
 0.0700511 0.0665051 0.06219832 0.05811116 0.05666564 0.05943886 0.06514329 0.07070017 0.07398642 0.07488848
 0.07409712 0.0717949 0.06786987 0.06320897 0.06011839 0.06052993 0.06367636 0.06652611 0.06695731 0.0656929
 0.06474485 0.06490493 0.06544632 0.06567022 0.06591137 0.0669748 0.06898543 0.07108377 0.07225484 0.0722479
 0.07162318 0.07109982 0.07090066 0.07058862 0.06968716 0.06863669 0.06873618 0.07071558 0.07372692 0.07621668
 0.07748454 0.07793069 0.07800555 0.07741442 0.07553864 0.07259313 0.07009238 0.06972487 0.07172132 0.07471187
 0.07714957 0.07842254 0.07870901 0.07841595 0.07790313 0.07736951 0.07691285 0.07677533 0.07728018 0.07836547
 0.07948323 0.0801468 0.08032709 0.08020221 0.07981029 0.07912879 0.07832859 0.07777059 0.07774279 0.07824476
 0.07904168 0.07987583 0.08055012 0.08087717 0.08074803 0.08029046 0.07979897 0.07946421 0.07929616 0.07930262
 0.0795594 0.08005296 0.08059877 0.08099341 0.08117637 0.08120514 0.08114091 0.08100535 0.08081688 0.08063772
 0.08057663 0.08071218 0.08099271 0.08126827 0.08146611 0.08166627 0.08193679 0.08217264 0.08220428 0.0820239
 0.08180381 0.08170557 0.08174853 0.08185574 0.08194591 0.08194564 0.08177586 0.08142136 0.08102755 0.08084566
 0.08103034 0.08152965 0.08217718 0.08281139 0.08329887 0.08355938 0.08362461 0.08360206 0.08354779 0.08342753
 0.08321637 0.08299118 0.08290683 0.0830819 0.08349296 0.08398274 0.08438472 0.08462676 0.08472934 0.08477085
 0.08485863 0.08504551 0.08524884 0.08532669 0.08525641 0.08517182 0.08520219 0.08532683 0.08541301 0.08537363
 0.08526702 0.0852377 0.08536524 0.08559223 0.08580641 0.08596634 0.08612466 0.08633484 0.08655152 0.08664616
 0.08654548 0.08633471 0.0861744 0.08612815 0.08613837 0.08616578 0.08626194 0.08646765 0.08670971 0.08686176
 0.08688697 0.08687048 0.08690484 0.08697727 0.0869917 0.08688463 0.08669263 0.08651294 0.08642445 0.08644484
 0.08653313 0.08661796 0.08663945 0.08658344 0.08648022 0.0863696 0.08627339 0.08620971 0.08622316 0.08636564
 0.08662016 0.08685909 0.08692159 0.08675627 0.08647817 0.0862662 0.08620118 0.08620884 0.08615548 0.0859808
 0.08573206 0.0854933 0.08530889 0.08517179 0.08505739 0.08495733 0.0848951 0.08491659 0.08504295 0.08521388
 0.08529905 0.08520268 0.08495647 0.08468749 0.08450355 0.08442833 0.08442202 0.08442895 0.08442196 0.08442893
 0.08449365 0.08459336 0.08463759 0.08457565 0.08446436 0.08440706 0.08446478 0.08463367 0.08485149 0.08501096
 0.08502664 0.08492009 0.08480474 0.08477207 0.08482213 0.08490638 0.08499555 0.08508714 0.08517973 0.08527286
 0.08538593 0.08555233 0.08578533 0.08605441 0.08629936 0.08647069 0.08656856 0.08665207 0.08680201 0.08705725
 0.08738136 0.08769487 0.08794211 0.08812997 0.0883058 0.08850218 0.08871183 0.08892086 0.08914778 0.08942404
 0.08974476 0.0900688 0.09036762 0.09064909 0.09093259 0.09122275 0.09151407 0.0918132 0.09215009 0.09255247
 0.09299392 0.09338234 0.09363231 0.093753 0.09384975 0.09404285 0.09438145 0.0948038 0.09516826 0.09536577
 0.09543173 0.09551603 0.09571825 0.09598985 0.09623165 0.09644538 0.09673254 0.0971522 0.09763058 0.09802738
 0.09827079 0.09841332 0.09856092 0.0987587 0.09895663 0.09908921 0.09916554 0.09925302 0.09938762 0.09955072
 0.09974096 0.1000098 0.1003882 0.1008164 0.1011916 0.1014644 0.1016585 0.1018163 0.1019562 0.1020673
 0.1021256 0.1021295 0.1021283 0.102184 0.1022958 0.1023974 0.102443 0.1024654 0.1025307 0.1026727
 0.1028919 0.1031792 0.1035061 0.1038156 0.104073 0.1043218 0.1046387 0.1050178 0.1053443 0.1055161
 0.1055553 0.1055596 0.105581 0.1056121 0.1056699 0.1058154 0.1060768 0.1064088 0.1067473 0.1070732
 0.1074044 0.1077482 0.1080739 0.1083253 0.1084577 0.1084757 0.1084415 0.1084452 0.1085581 0.1087955
 0.1091119 0.1094339 0.1097063 0.1099039 0.1100071 0.1100014 0.1099253 0.1098864 0.1099794 0.1101801
 0.1103514 0.1103602 0.1101656 0.1097967 0.109287 0.1086611 0.107969 0.1072976 0.1067357 0.1063338
 0.1061072 0.1060771 0.1062868 0.1067528 0.107406 0.1081112 0.1087496 0.1092519 0.1095529 0.1095675
 0.1092528 0.1086686 0.1079458 0.1072069 0.1065251 0.1059184 0.1053556 0.1048001 0.1042911 0.1039755
 0.1040366 0.104588 0.1056198 0.1070068 0.1085432 0.1100054 0.1112367 0.1122047 0.1129819 0.1136667
 0.1143216 0.1149745 0.115643 0.1163234 0.1169691 0.1175234 0.1179826 0.1183972 0.118808 0.1192074
 0.1195609 0.1198437 0.120061 0.1202509 0.1204495 0.1206377 0.1207451 0.1207294 0.1206272 0.1205052
 0.1203851 0.1202307 0.1199893 0.1196337 0.1191968 0.1187964 0.1186177 0.1188342 0.1195094 0.1205585
 0.121812 0.1231209 0.1243944 0.1255518 0.1264966 0.1271718 0.1276148 0.1279256 0.1281919 0.1284583
 0.1287418 0.1290433 0.1293494 0.1296441 0.129924 0.130204 0.1305082 0.1308468 0.1311971 0.1315139
 0.1317724 0.1319991 0.1322544 0.1325789 0.132956 0.1333308 0.1336698 0.1339899 0.1343151 0.1346221
 0.1348623 0.1350308 0.1351845 0.1353889 0.1356727 0.1360245 0.1364015 0.1367419 0.1370018 0.1371918
 0.1373615 0.1375493 0.1377605 0.1379877 0.138229 0.1384819 0.1387391 0.1390021 0.1392866 0.1395986
 0.1399063 0.140156 0.1403237 0.1404448 0.140582 0.1407708 0.1409975 0.1412249 0.1414353 0.141653
 0.1419195 0.1422405 0.1425633 0.1428184 0.1429816 0.1430898 0.1432017 0.1433554 0.1435551 0.1437842
 0.1440198 0.1442433 0.1444466 0.144636 0.144828 0.1450354 0.1452558 0.1454756 0.1456852 0.1458867
 0.1460877 0.146294 0.1465104 0.1467488 0.1470214 0.147319 0.1476031 0.1478339 0.1480059 0.1481458
 0.1482824 0.148428 0.1485863 0.1487607 0.1489517 0.1491548 0.1493634 0.149572 0.149776 0.1499744
 0.1501729 0.1503799 0.1505967 0.1508152 0.1510283 0.1512405 0.1514628 0.1516944 0.1519186 0.1521192
 0.1522981 0.1524737 0.1526641 0.1528709 0.1530787 0.153271 0.1534466 0.1536181 0.1537958 0.1539807
 0.1541699 0.1543625 0.1545596 0.1547619 0.1549693 0.1551785 0.1553839 0.1555822 0.1557743 0.1559629
 0.1561496 0.1563356 0.156524 0.15672 0.1569249 0.1571328 0.1573358 0.1575336 0.1577313 0.1579311
 0.1581291 0.1583207 0.1585077 0.1586976 0.1588971 0.159104 0.1593091 0.1595059 0.1596962 0.159886
 0.1600817 0.1602878 0.1605023 0.1607165 0.1609251 0.1611333 0.1613497 0.1615749 0.1618009 0.1620197
 0.1622309 0.1624416 0.1626562 0.1628706 0.1630802 0.1632901 0.163507 0.1637268 0.1639385 0.1641358
 0.1643182 0.1644876 0.164649 0.1648106 0.164981 0.1651644 0.1653568 0.1655474 0.1657313 0.1659166
 0.1661121 0.1663149 0.1665164 0.1667146 0.1669129 0.167115 0.1673235 0.1675365 0.1677458 0.1679459
 0.1681397 0.1683334 0.1685305 0.1687329 0.1689401 0.1691481 0.1693537 0.1695573 0.1697619 0.1699732
 0.1701952 0.1704223 0.1706437 0.1708584 0.1710724 0.1712838 0.1714851 0.1716783 0.1718729 0.1720761
 0.1722905 0.172512 0.1727296 0.1729364 0.173138 0.1733416 0.1735472 0.1737549 0.1739666 0.1741788
 0.1743885 0.1746 0.1748164 0.1750347 0.1752542 0.1754732 0.1756846 0.1758884 0.1760979 0.1763205
 0.1765491 0.1767769 0.176997 0.1771857 0.1772984 0.177234 0.1767286 0.1752425 0.1719484 0.165899
 0.1564006 0.1434464 0.1278742 0.1110715 0.09446119 0.07912496 0.06569974 0.05446736 0.04549503 0.03872193
 0.034013 0.03124899 0.03042314 0.0317493 0.03578301 0.04309273 0.05301692 0.06257196 0.06762095 0.0661404
 0.0601493 0.05386503 0.05020276 0.04937355 0.05013777 0.05143007 0.0529049 0.05475066 0.05730146 0.06065211
 0.06463791 0.06924661 0.07482015 0.08161497 0.08927748 0.09699453 0.1041947 0.1109931 0.1179159 0.1252622
 0.1327858 0.1399348 0.1462897 0.1517746 0.1565705 0.1609189 0.1649833 0.1688325 0.172497 0.175976
 0.1791545 0.1817624 0.183504 0.1842866 0.1843309 0.1840452 0.1837793 0.1836874 0.1837787 0.1840312
 0.1844328 0.1849677 0.185614 0.1863498 0.1871464 0.1879679 0.1887825 0.1895688 0.1903149 0.1910186
 0.1916814 0.1922983 0.1928608 0.1933678 0.1938263 0.1942476 0.1946438 0.1950219 0.1953801 0.1957178
 0.196041 0.1963509 0.1966373 0.1968931 0.1971264 0.1973513 0.1975762 0.1978021 0.1980247 0.1982393
 0.1984466 0.1986534 0.1988648 0.1990818 0.1993028 0.1995232 0.1997366 0.199941 0.2001401 0.2003362
 0.2005284 0.2007171 0.2009053 0.2010938 0.2012841 0.20148 0.2016832 0.2018901 0.2020956 0.2022965
 0.2024921 0.2026862 0.2028838 0.203083 0.2032761 0.2034634 0.2036557 0.2038598 0.2040714 0.2042838
 0.2044944 0.204704 0.204915 0.2051295 0.2053406 0.2055317 0.2056935 0.2058407 0.2060058 0.2062117
 0.2064498 0.2066889 0.2069067 0.2071059 0.2072982 0.2074862 0.2076661 0.2078358 0.2079989 0.2081717
 0.2083764 0.2086165 0.2088718 0.2091267 0.2093812 0.2096328 0.2098727 0.2101037 0.2103292 0.2105271
 0.2106717 0.2107857 0.2109446 0.2112139 0.2115846 0.2119734 0.2122946 0.2125319 0.2127332 0.2129538
 0.213219 0.2135023 0.2137095 0.2137455 0.2136582 0.2136576 0.2139248 0.2144348 0.215011 0.2155043
 0.2158788 0.2161727 0.2164305 0.2166603 0.2168238 0.2168779 0.216854 0.2168902 0.2171362 0.2175991
 0.2181236 0.2185527 0.2188553 0.2190783 0.2192628 0.2194342 0.2195609 0.2194978 0.2191349 0.2186695
 0.2185616 0.2190872 0.2200246 0.2208929 0.2214337 0.2217464 0.2220159 0.2222858 0.22251 0.2225969
 0.2223087 0.2213959 0.2200817 0.2191986 0.2195023 0.2209093 0.2226336 0.2239735 0.2247574 0.2251658
 0.22542 0.2256355 0.2257402 0.2254819 0.2247093 0.2237489 0.2233265 0.2239 0.2251442 0.2262976
 0.2269397 0.2272147 0.2274257 0.2276908 0.2278637 0.2274962 0.2260936 0.2238512 0.2220236 0.2220416
 0.2241101 0.2269544 0.2290799 0.230059 0.230412 0.2304989 0.2300003 0.2284988 0.2261018 0.2233956
 0.2212611 0.2207537 0.2224047 0.2253437 0.2277912 0.2288137 0.2291106 0.2298481 0.2312628 0.2326676
 0.2333519 0.233136 0.2322443 0.2309078 0.2292554 0.2276873 0.2270942 0.2282219 0.230762 0.2334643
 0.2352921 0.2362083 0.2366273 0.2361962 0.2335545 0.2279736 0.2213952 0.2178837 0.220038 0.2262772
 0.2325414 0.2362822 0.2378557 0.2386118 0.239081 0.2388335 0.2367308 0.2315389 0.2238702 0.2174231
 0.2164873 0.2216948 0.2292982 0.2346734 0.2354774 0.2318956 0.2258015 0.220195 0.2179807 0.2202132
 0.2256372 0.2319234 0.2370657 0.23994 0.2402936 0.238627 0.2361524 0.2345074 0.234567 0.2351424
 0.2338834 0.2302511 0.226419 0.2240809 0.2218259 0.2177437 0.2136253 0.2137793 0.2194384 0.2267002
 0.2309154 0.2313997 0.2305826 0.2295688 0.2262291 0.2182561 0.2075357 0.2002197 0.2013514 0.2096323
 0.2185848 0.2228985 0.2226492 0.2213872 0.2214034 0.2213956 0.2183006 0.2112946 0.203826 0.2007182
 0.2030298 0.2071066 0.2089076 0.2072199 0.2022178 0.1941747 0.1858239 0.1831972 0.1905288 0.2050702
 0.2192486 0.2269038 0.2255317 0.2149205 0.1980403 0.1828724 0.1785207 0.1870442 0.200945 0.2100669
 0.2096452 0.2011375 0.1878924 0.1728854 0.1601084 0.1549683 0.1610464 0.176479 0.1939831 0.2044409
 0.2019247 0.1883444 0.1739266 0.1698528 0.178038 0.1897781 0.1954962 0.1934389 0.1883012 0.185207
 0.1867643 0.19259 0.1997053 0.2053399 0.2091377 0.2099865 0.203032 0.1855095 0.1644484 0.1520375
 0.152966 0.1620178 0.1738288 0.1877094 0.2012975 0.2072342 0.2014654 0.1909225 0.1876253 0.1959146
 0.2087338 0.2162676 0.2156605 0.2115351 0.2088538 0.2076366 0.2054377 0.203061 0.2047581 0.2123641
 0.2220904 0.2287511 0.2311533 0.2316344 0.2321033 0.2325896 0.232575 0.2318673 0.2305294 0.2290071
 0.22799 0.2276304 0.2274 0.2268881 0.2257782 0.2226321 0.2151973 0.2035782 0.1922579 0.1865492
 0.1869581 0.1895462 0.1917802 0.1940069 0.1939952 0.1854044 0.1661607 0.1453286 0.1365184 0.1447392
 0.1626706 0.1790062 0.1871094 0.1855818 0.1748956 0.1576054 0.1410417 0.1350074 0.1437882 0.1620473
 0.1805303 0.1940385 0.2020216 0.2041554 0.1993544 0.188918 0.1778052 0.1718007 0.1739882 0.18339
 0.1952985 0.2024945 0.1987769 0.1851165 0.1723767 0.1733069 0.1891762 0.207679 0.2167701 0.2168644
 0.2159776 0.2172625 0.2174335 0.215499 0.2162792 0.2237884 0.2353288 0.2441483 0.2453677 0.2379107
 0.2238928 0.2091143 0.2015372 0.2048612 0.214248 0.2215271 0.2230743 0.2193212 0.2099299 0.195819
 0.1842815 0.1846036 0.1973068 0.2129259 0.2227613 0.2268041 0.2297982 0.2330752 0.2329448 0.2262983
 0.2158102 0.2082955 0.2079697 0.2127578 0.2178062 0.220603 0.2210058 0.2183355 0.2118018 0.2038015
 0.1999461 0.2041772 0.2146565 0.225455 0.2318319 0.2331923 0.231696 0.2294596 0.2271369 0.2240881
 0.2197895 0.2156668 0.2148246 0.2187338 0.2249023 0.2294424 0.2315275 0.2336694 0.2377654 0.2424843
 0.2448907 0.243649 0.2402881 0.2378598 0.2384907 0.2417009 0.2447643 0.2450316 0.2424488 0.2398475
 0.240339 0.2443444 0.2495365 0.2534927 0.2556689 0.2568917 0.2579345 0.2588403 0.2588877 0.2571354
 0.2537588 0.2508241 0.2508212 0.254194 0.258921 0.2626068 0.2644152 0.2649235 0.2648008 0.2641143
 0.262725 0.2609193 0.2594142 0.2587869 0.2590583 0.2598509 0.2607808 0.2616221 0.262269 0.2627079
 0.2629927 0.263176 0.263289 0.2633789 0.2634836 0.2635548 0.2635054 0.263373 0.2633413 0.2635363
 0.2638662 0.2641231 0.264172 0.2639591 0.2634099 0.2624568 0.2611636 0.2596988 0.2581494 0.2564725
 0.2547306 0.2533321 0.2529012 0.25381 0.2558323 0.2582802 0.2604689 0.2620535 0.2630225 0.2635208
 0.2637236 0.2637833 0.2637872 0.2637406 0.263611 0.2633891 0.2631002 0.2627707 0.2624075 0.2620186
 0.261636 0.2613005 0.2610209 0.2607581 0.2604499 0.2600522 0.2595654 0.2590275 0.2584758 0.2579061
 0.2572688 0.2565103 0.2556205 0.2546492 0.2536845 0.2528024 0.252017 0.2512735 0.2505024 0.2496713
 0.2487713 0.2477764 0.2466682 0.2455106 0.2444476 0.2435891 0.2429153 0.2423125 0.2416724 0.2409351
 0.2400771 0.2391078 0.2380679 0.2369978 0.2359056 0.2347764 0.2335928 0.2323357 0.2309858 0.2295399
 0.2280152 0.2264356 0.2248244 0.2231993 0.2215466 0.2197937 0.217818 0.2154843 0.2126784 0.2093234
 0.2053964 0.2009549 0.196152 0.191207 0.1863328 0.181683 0.1773624 0.1734664 0.1700909 0.1673155
 0.1651988 0.1637821 0.1630853 0.1631024 0.1638089 0.1651693 0.1671259 0.1695795 0.1723848 0.1753713
 0.1783661 0.1812123 0.1838064 0.186148 0.1883297 0.1904361 0.1924543 0.1943041 0.1959333 0.1973506
 0.1985785 0.1996169 0.2004606 0.2011312 0.2016792 0.2021532 0.2025745 0.2029413 0.2032515 0.2035108
 0.2037266 0.2039097 0.2040796 0.2042615 0.2044741 0.2047232 0.205005 0.2053198 0.2056841 0.2061163
 0.2066117 0.2071445 0.2076973 0.208273 0.2088819 0.2095332 0.2102443 0.2110472 0.2119825 0.2130811
 0.2143416 0.2157211 0.2171465 0.2185275 0.2197659 0.2207777 0.221522 0.2220032 0.2222514 0.2223084
 0.2222217 0.2220303 0.2217523 0.221391 0.2209489 0.220435 0.219864 0.2192514 0.218604 0.2179199
 0.2172005 0.2164627 0.2157373 0.2150489 0.2143982 0.2137661 0.2131355 0.2125057 0.2118856 0.2112838
 0.2107055 0.2101484 0.2096017 0.2090541 0.2084983 0.2079172 0.2072742 0.2065327 0.2056863 0.2047557
 0.2037549 0.2026707 0.2014819 0.200189 0.1988119 0.1973642 0.1958444 0.1942523 0.1925993 0.190892
 0.1891112 0.1872238 0.1852278 0.1831848 0.1811946 0.179337 0.1776382 0.1760795 0.1746201 0.1732201
 0.1718656 0.170571 0.1693489 0.1681889 0.1670752 0.1660107 0.1650114 0.1640866 0.1632325 0.1624421
 0.1617155 0.1610589 0.160473 0.1599504 0.1594891 0.1591014 0.1588109 0.1586438 0.1586106 0.1586793
 0.1587755 0.1588253 0.1587974 0.158705 0.1585835 0.1584663 0.1583713 0.1583016 0.1582508 0.1581908
 0.1580572 0.1577611 0.1572143 0.1563481 0.1551363 0.1536132 0.1518639 0.1500034 0.1481653 0.1464771
 0.1450227 0.1438409 0.1429422 0.1422927 0.1418059 0.1414037 0.1410834 0.1409036 0.1409195 0.1411222
 0.1414049 0.1416095 0.141663 0.1416598 0.1417814 0.1421545 0.1427827 0.1435603 0.1443378 0.1450097
 0.1455437 0.1459343 0.1461777 0.1462938 0.1463156 0.1462542 0.1461102 0.1458975 0.1456283 0.1453048
 0.1449348 0.1445192 0.144036 0.1434678 0.1428159 0.1420798 0.1412675 0.1404022 0.1394609 0.1383688
 0.1371465 0.1360116 0.135261 0.1350809 0.1354649 0.1362425 0.1372022 0.1382333 0.1392805 0.1401541
 0.1405894 0.1406381 0.1408556 0.141892 0.1438728 0.1462625 0.1483452 0.1497502 0.1504896 0.1506589
 0.1502933 0.1494205 0.1480447 0.1461212 0.1436774 0.1408697 0.1378551 0.1347574 0.1317676 0.1290913
 0.1268225 0.1249841 0.1235874 0.1226662 0.1223214 0.1221575 0.1202769 0.1142583 0.1048964 0.09787438
 0.09898692 0.1076332 0.1172493 0.1222469 0.1224521 0.1208147 0.1193724 0.1184297 0.1178847 0.1178905
 0.1185821 0.1198094 0.1211725 0.1222665 0.122934 0.123231 0.1231346 0.1222928 0.1199633 0.1152761
 0.1079255 0.09877081 0.08955334 0.08188786 0.07652134 0.07333155 0.07169123 0.07084757 0.070289 0.06997728
 0.07022907 0.07133681 0.07331967 0.07600947 0.07922197 0.08270977 0.08605561 0.08885156 0.09101218 0.0927458
 0.0941983 0.09527174 0.095805 0.09578857 0.09536079 0.09469458 0.09393504 0.09316526 0.09234758 0.09134021
 0.09009081 0.08882015 0.08788922 0.08745222 0.08735101 0.08735736 0.08737805 0.08740844 0.08743211 0.08741856
 0.08735651 0.08728791 0.08732535 0.08757402 0.08800668 0.08846736 0.0888079 0.08899225 0.08907871 0.08909254
 0.08890343 0.08833832 0.0874963 0.08676308 0.08631964 0.08582167 0.08484277 0.08351864 0.08246898 0.08212312
 0.08234547 0.08269364 0.08282924 0.08267052 0.08237087 0.08225347 0.08259248 0.08328574 0.0838379 0.08382748
</values></Ydata></ScRf><Data_Parameters_AB><parameter name="DPF">1</parameter><parameter name="NPT">3497</parameter><parameter name="FXV">3996</parameter><parameter name="LXV">500</parameter><parameter name="CSF">1</parameter><parameter name="MXY">0.091682031750679</parameter><parameter name="MNY">-0.103925801813602</parameter><parameter name="DAT">31/05/2022</parameter><parameter name="TIM">10:52:26.038 (GMT+2)</parameter><parameter name="DXU">WN</parameter></Data_Parameters_AB><AB__Qtest><MainReport name="Quality Test Report"><Header><Line><Legend>Test result ok/not ok [1/0]: </Legend><Value>0</Value></Line><Line><Legend>Method file: </Legend><Value>C:\Users\Public\Documents\Bruker\OPUS_8.2.28\QT\IRBT_v3_default.QT</Value></Line></Header><Matrix><Line><Legend></Legend><Legend>min</Legend><Legend>max</Legend><Legend>measured</Legend></Line><Line><Value>Absorption (X-Range 1):</Value><Value>0.400000</Value><Value>2.000000</Value><Value>0.149271</Value></Line><Line><Value>Noise (X-Range 4):</Value><Value></Value><Value>0.000300</Value><Value>0.000051</Value></Line><Line><Value>Signal/Noise (X-Range 2):</Value><Value>200.000000</Value><Value></Value><Value>41.476536</Value></Line><Line><Value>Signal/Noise (X-Range 3):</Value><Value>40.000000</Value><Value></Value><Value>55.776650</Value></Line><Line><Value>Water vapour (X-Range 5):</Value><Value></Value><Value>0.000300</Value><Value>0.000034</Value></Line><Line><Value>Signal/Water (X-Range 2):</Value><Value>100.000000</Value><Value></Value><Value>62.138633</Value></Line><Line><Value>Signal/Water (X-Range 3):</Value><Value>20.000000</Value><Value></Value><Value>83.562543</Value></Line><Line><Value>Fringes (X-Range 6):</Value><Value></Value><Value>0.000100</Value><Value>0.000044</Value></Line></Matrix></MainReport></AB__Qtest><Data_Parameters_ScSm><parameter name="DPF">1</parameter><parameter name="NPT">1814</parameter><parameter name="FXV">3996.33169228125</parameter><parameter name="LXV">499.541461535156</parameter><parameter name="CSF">1</parameter><parameter name="MXY">0.300955712795258</parameter><parameter name="MNY">0.0386465489864349</parameter><parameter name="DAT">31/05/2022</parameter><parameter name="TIM">10:52:26.038 (GMT+2)</parameter><parameter name="DXU">WN</parameter></Data_Parameters_ScSm><Data_Parameters_ScRf><parameter name="DPF">1</parameter><parameter name="NPT">1820</parameter><parameter name="FXV">4004.04661832813</parameter><parameter name="LXV">495.683998511719</parameter><parameter name="CSF">1</parameter><parameter name="MXY">0.264923512935638</parameter><parameter name="MNY">0.030423142015934</parameter><parameter name="DAT">31/05/2022</parameter><parameter name="TIM">10:52:00.999 (GMT+2)</parameter><parameter name="DXU">WN</parameter></Data_Parameters_ScRf><Optic_Parameters_Rf><parameter name="APR">0</parameter><parameter name="APT">Open</parameter><parameter name="BMS">KBr</parameter><parameter name="DTC">RT-DLaTGS_IR-Biotyper [Microplate reader]</parameter><parameter name="HPF">0</parameter><parameter name="LPF">10.0</parameter><parameter name="LPV">4000</parameter><parameter name="PGR">0</parameter><parameter name="RCH">Module port</parameter><parameter name="RDX">0</parameter><parameter name="SRC">MIR</parameter><parameter name="VEL">10.0</parameter><parameter name="SON">Off</parameter></Optic_Parameters_Rf><Acquisition_Parameters_Rf><parameter name="ADT">1</parameter><parameter name="AQM">DD</parameter><parameter name="CFE">0</parameter><parameter name="COR">0</parameter><parameter name="DEL">0</parameter><parameter name="DLY">0</parameter><parameter name="HFW">8000</parameter><parameter name="LFW">0</parameter><parameter name="NSR">32</parameter><parameter name="PLF">AB</parameter><parameter name="RES">6</parameter><parameter name="RGN">-1</parameter><parameter name="STR">0</parameter><parameter name="TCL">MakeCompatibleScalar (0, {WSV=1.000000, ARV=0});</parameter><parameter name="TDL">37</parameter><parameter name="RPO">0</parameter></Acquisition_Parameters_Rf><FT_-_Parameters_Rf><parameter name="APF">B3</parameter><parameter name="HFQ">500</parameter><parameter name="LFQ">4000</parameter><parameter name="NLI">0</parameter><parameter name="PHR">24</parameter><parameter name="PHZ">ML</parameter><parameter name="SPZ">NO</parameter><parameter name="ZFF">1</parameter></FT_-_Parameters_Rf><Optic_Parameters_><parameter name="APR">0</parameter><parameter name="APT">Open</parameter><parameter name="BMS">KBr</parameter><parameter name="CHN">Module port</parameter><parameter name="DTC">RT-DLaTGS_IR-Biotyper [Microplate reader]</parameter><parameter name="HPF">0</parameter><parameter name="LPF">10.0</parameter><parameter name="LPV">4000</parameter><parameter name="PGN">0</parameter><parameter name="RDX">0</parameter><parameter name="SRC">MIR</parameter><parameter name="VEL">10.0</parameter><parameter name="SON">Off</parameter></Optic_Parameters_><FT_-_Parameters_><parameter name="APF">B3</parameter><parameter name="HFQ">500</parameter><parameter name="LFQ">4000</parameter><parameter name="NLI">0</parameter><parameter name="PHR">24</parameter><parameter name="PHZ">ML</parameter><parameter name="SPZ">NO</parameter><parameter name="ZFF">1</parameter></FT_-_Parameters_><Acquisition_Parameters_><parameter name="ADT">1</parameter><parameter name="AQM">DD</parameter><parameter name="CFE">0</parameter><parameter name="COR">0</parameter><parameter name="DEL">0</parameter><parameter name="DLY">0</parameter><parameter name="HFW">8000</parameter><parameter name="LFW">0</parameter><parameter name="NSS">32</parameter><parameter name="PLF">AB</parameter><parameter name="RES">6</parameter><parameter name="SOT">0</parameter><parameter name="TCL">MakeCompatibleScalar (0, {WSV=1.000000, ARV=0});</parameter><parameter name="TDL">37</parameter><parameter name="SPO">0</parameter><parameter name="SGN">-1</parameter></Acquisition_Parameters_><Instrument_Parameters_Rf><parameter name="HFL">15800.168544</parameter><parameter name="LFL">0</parameter><parameter name="LWN">15800.168544</parameter><parameter name="ABP">32197</parameter><parameter name="SSP">1</parameter><parameter name="ARG">2</parameter><parameter name="ASG">2</parameter><parameter name="ASS">32</parameter><parameter name="GFW">16</parameter><parameter name="GBW">16</parameter><parameter name="BFW">0</parameter><parameter name="BBW">0</parameter><parameter name="PKA">7274</parameter><parameter name="PKL">4996</parameter><parameter name="PRA">7446</parameter><parameter name="PRL">5001</parameter><parameter name="P2A">1</parameter><parameter name="P2L">1</parameter><parameter name="P2R">1</parameter><parameter name="P2K">1</parameter><parameter name="DAQ">0</parameter><parameter name="AG2">1</parameter><parameter name="SSM">1</parameter><parameter name="RSN">25377</parameter><parameter name="CRR">0</parameter><parameter name="SRT">1653994320.999</parameter><parameter name="DUR">19.6379852294922</parameter><parameter name="TSC">28.8</parameter><parameter name="MVD">0.237082362174988</parameter><parameter name="AN1">0.225815285006238</parameter><parameter name="AN2">0</parameter><parameter name="VSN">2.485 Apr  4 2017</parameter><parameter name="SRN">0085</parameter><parameter name="CAM">0</parameter><parameter name="INS">IR-Biotyper</parameter><parameter name="FOC">69</parameter><parameter name="RDY">1</parameter><parameter name="ARS">32</parameter></Instrument_Parameters_Rf><Sample_Parameters_><parameter name="BLD"></parameter><parameter name="CNM">Admin</parameter><parameter name="CPY"></parameter><parameter name="DPM"></parameter><parameter name="EXP">IRBT_v3_32Scans.XPM</parameter><parameter name="LCT"></parameter><parameter name="SFM">Microplate, HTS-XT</parameter><parameter name="SNM">220531-1021(v.3)_CLA33F (D_17)_F2_00f7808d-f328-47fe-80f3-bfbb10e87f7b.0</parameter><parameter name="XPP">C:\Users\Public\Documents\Bruker\OPUS_8.2.28\XPM</parameter><parameter name="IST">OK</parameter><parameter name="CPG">1252</parameter><parameter name="UID">651898e7-15f6-43d9-a008-b53491b746a6</parameter></Sample_Parameters_><Instrument_Parameters_><parameter name="HFL">15800.168544</parameter><parameter name="LFL">0</parameter><parameter name="LWN">15800.168544</parameter><parameter name="ABP">32197</parameter><parameter name="SSP">1</parameter><parameter name="ASG">2</parameter><parameter name="ARG">2</parameter><parameter name="ASS">32</parameter><parameter name="GFW">16</parameter><parameter name="GBW">16</parameter><parameter name="BFW">0</parameter><parameter name="BBW">0</parameter><parameter name="PKA">8129</parameter><parameter name="PKL">4988</parameter><parameter name="PRA">8348</parameter><parameter name="PRL">4993</parameter><parameter name="P2A">1</parameter><parameter name="P2L">1</parameter><parameter name="P2R">1</parameter><parameter name="P2K">1</parameter><parameter name="DAQ">0</parameter><parameter name="AG2">1</parameter><parameter name="SSM">1</parameter><parameter name="RSN">13314</parameter><parameter name="CRR">0</parameter><parameter name="SRT">1653994346.038</parameter><parameter name="DUR">19.6369934082031</parameter><parameter name="TSC">28.8</parameter><parameter name="MVD">0.245085760951042</parameter><parameter name="AN1">0.225833207070983</parameter><parameter name="AN2">0</parameter><parameter name="VSN">2.485 Apr  4 2017</parameter><parameter name="SRN">0085</parameter><parameter name="CAM">0</parameter><parameter name="INS">IR-Biotyper</parameter><parameter name="FOC">69</parameter><parameter name="RDY">1</parameter></Instrument_Parameters_><History/></OPUSDataFile>
