<?xml version="1.0" encoding="UTF-8" ?>
<OPUSDataFile><AB><Ydata ylabel="Absorbance Units"><values byteorder="INTEL" format="FLOAT32" numvalues="3497"> -0.03959466 -0.03961918 -0.03963235 -0.03963443 -0.03962052 -0.03959042 -0.03955447 -0.03951357 -0.03948247 -0.03946075
 -0.03945394 -0.03945979 -0.03947303 -0.03949282 -0.03951399 -0.0395381 -0.03956594 -0.03959749 -0.03963437 -0.03967224
 -0.03970839 -0.03973927 -0.03976114 -0.03977667 -0.03978558 -0.03979233 -0.03979858 -0.03980332 -0.03980675 -0.03980615
 -0.03980091 -0.03979461 -0.03978743 -0.03978455 -0.03978569 -0.03978851 -0.03979209 -0.03978896 -0.03978045 -0.03976644
 -0.03975092 -0.03974356 -0.03974619 -0.03976763 -0.03980374 -0.03985425 -0.03991211 -0.03997153 -0.04002852 -0.04007934
 -0.04012273 -0.04015828 -0.04018173 -0.04019228 -0.04018513 -0.04015839 -0.04011725 -0.04006119 -0.04000696 -0.03995546
 -0.0399224 -0.03990758 -0.03991301 -0.03993629 -0.03996416 -0.03999459 -0.04001206 -0.04001877 -0.04001034 -0.03999436
 -0.03998053 -0.03997662 -0.03999767 -0.04004032 -0.04011191 -0.04019053 -0.04026893 -0.04032111 -0.04033243 -0.04030296
 -0.04022512 -0.04013115 -0.04002366 -0.0399383 -0.0398793 -0.03986301 -0.0398906 -0.03996131 -0.04007399 -0.04021464
 -0.04037919 -0.04053698 -0.04068263 -0.04077707 -0.04082496 -0.04081347 -0.04076056 -0.04069036 -0.04061617 -0.04056522
 -0.04053616 -0.04053891 -0.04056177 -0.04060196 -0.04064633 -0.04068892 -0.04072371 -0.04074775 -0.0407606 -0.04076206
 -0.04075025 -0.04072481 -0.04068621 -0.04063439 -0.04058043 -0.04052531 -0.0404856 -0.04046126 -0.04046101 -0.04048248
 -0.04052239 -0.04057681 -0.04063503 -0.04069337 -0.0407397 -0.04077565 -0.04079711 -0.04081053 -0.04082116 -0.04082897
 -0.0408367 -0.040838 -0.04082825 -0.04081536 -0.04079662 -0.04080074 -0.0408319 -0.04091325 -0.04105048 -0.04122075
 -0.04142366 -0.04156012 -0.04162694 -0.04155021 -0.04134745 -0.04109666 -0.04081234 -0.0405938 -0.04043391 -0.0403658
 -0.04037444 -0.04045388 -0.04057927 -0.04072252 -0.04085589 -0.04094359 -0.04098392 -0.0409585 -0.04090194 -0.04082277
 -0.04075003 -0.04069664 -0.04065714 -0.0406331 -0.04061165 -0.04059031 -0.04057753 -0.04057354 -0.04060051 -0.0406587
 -0.04075734 -0.04089216 -0.04104194 -0.04119881 -0.04132018 -0.04140474 -0.04142379 -0.04138987 -0.04130951 -0.04119957
 -0.04108283 -0.04096995 -0.04087679 -0.04080922 -0.04077517 -0.0407749 -0.04081301 -0.04087623 -0.04096529 -0.04105165
 -0.04113119 -0.04117963 -0.04119283 -0.04117052 -0.04111226 -0.04103451 -0.04093802 -0.04083601 -0.04072845 -0.04062067
 -0.04051415 -0.04041629 -0.04033116 -0.04027332 -0.04024408 -0.04025524 -0.04029837 -0.04037131 -0.04045617 -0.04053799
 -0.0406026 -0.04063568 -0.04063827 -0.04060531 -0.04055001 -0.04047361 -0.040393 -0.04031029 -0.04024372 -0.04019535
 -0.04017881 -0.04019522 -0.04024553 -0.04032869 -0.04042771 -0.04053954 -0.04063454 -0.04071233 -0.04075313 -0.04076393
 -0.04075155 -0.04072473 -0.04070304 -0.04068844 -0.04069187 -0.04071035 -0.04074369 -0.04079293 -0.04085743 -0.04094267
 -0.04105329 -0.04118172 -0.04133128 -0.04147103 -0.04159647 -0.04168233 -0.04172353 -0.04172894 -0.04169884 -0.04163974
 -0.04155129 -0.04142307 -0.0412589 -0.04107834 -0.04089005 -0.04074133 -0.04063227 -0.04059158 -0.04060425 -0.04066059
 -0.0407372 -0.04079655 -0.04083812 -0.04084167 -0.04083578 -0.04083385 -0.04084925 -0.04089658 -0.04095483 -0.04102437
 -0.04106954 -0.04108233 -0.04105107 -0.04097087 -0.04087053 -0.0407513 -0.04065192 -0.04057339 -0.04053384 -0.04053127
 -0.04056223 -0.04062169 -0.04068985 -0.04075897 -0.04079656 -0.0408038 -0.04076369 -0.04069169 -0.04060122 -0.04050204
 -0.04040979 -0.0403203 -0.040236 -0.04014963 -0.04005735 -0.03996029 -0.0398565 -0.03975597 -0.03966003 -0.03957731
 -0.03950956 -0.03945508 -0.0394141 -0.03937294 -0.03933097 -0.03927564 -0.03920884 -0.03913802 -0.03906613 -0.03901039
 -0.0389694 -0.03894834 -0.0389444 -0.03895501 -0.03897769 -0.03901023 -0.03904536 -0.03907847 -0.03909661 -0.03909072
 -0.03905289 -0.03897656 -0.0388635 -0.03871304 -0.038527 -0.038305 -0.03805238 -0.03776883 -0.03746796 -0.03715049
 -0.03683148 -0.03651207 -0.03621231 -0.03593475 -0.03570893 -0.03553429 -0.03542863 -0.03538056 -0.03537072 -0.03538422
 -0.03538198 -0.03536307 -0.03530918 -0.03522777 -0.03512213 -0.03498933 -0.03482898 -0.03463666 -0.03440672 -0.03415273
 -0.03387645 -0.03359321 -0.03330648 -0.03302293 -0.03274344 -0.03247465 -0.032217 -0.03197763 -0.0317567 -0.03155675
 -0.03137704 -0.031215 -0.03106691 -0.0309182 -0.03076064 -0.03056158 -0.03032257 -0.0300232 -0.02969007 -0.02934978
 -0.02902174 -0.02873887 -0.02848965 -0.02827993 -0.02808376 -0.02789145 -0.02768538 -0.02745551 -0.02720901 -0.02694409
 -0.02668003 -0.02642013 -0.02616458 -0.02591423 -0.02564449 -0.0253543 -0.02502235 -0.0246515 -0.024253 -0.02383263
 -0.02342149 -0.02302167 -0.02265548 -0.02232049 -0.02202427 -0.0217589 -0.02151999 -0.02129267 -0.02106166 -0.02081832
 -0.02054936 -0.02026474 -0.01996518 -0.01966152 -0.01936011 -0.01905127 -0.01873459 -0.01839775 -0.01803694 -0.01766944
 -0.01729567 -0.01694769 -0.01662629 -0.01634184 -0.01609201 -0.01586409 -0.01565447 -0.01544116 -0.01522177 -0.01497637
 -0.01470937 -0.01441765 -0.01411186 -0.01380597 -0.01350416 -0.01321922 -0.01293878 -0.01266039 -0.01236763 -0.01204904
 -0.0117107 -0.01134893 -0.01098732 -0.01063019 -0.01029192 -0.009975829 -0.009678444 -0.009400002 -0.009128848 -0.008864436
 -0.008597127 -0.008326834 -0.008049147 -0.007763353 -0.007464152 -0.007150298 -0.006813897 -0.006458139 -0.006082782 -0.005698189
 -0.005317772 -0.004950046 -0.004609986 -0.004293927 -0.004005474 -0.003734056 -0.003475041 -0.003224631 -0.002979684 -0.002744682
 -0.002520644 -0.002307475 -0.00210672 -0.001902903 -0.001695407 -0.001460489 -0.001197454 -0.0008971425 -0.0005622944 -0.0002108224
 0.0001531524 0.0005005419 0.0008320396 0.001132892 0.001409889 0.001668736 0.00191666 0.002166712 0.002420487 0.002685398
 0.00295664 0.003233392 0.003510954 0.003785866 0.004060278 0.004333619 0.004610933 0.004893902 0.005180846 0.005472331
 0.005760417 0.006044489 0.006320689 0.006589044 0.006853113 0.00711325 0.007374009 0.007635282 0.007898751 0.008164574
 0.008434095 0.008707474 0.008986763 0.009269024 0.009552775 0.009830579 0.01009457 0.0103407 0.01056061 0.01076534
 0.01095532 0.01115001 0.01135752 0.01158003 0.01182239 0.01206249 0.01229782 0.01251378 0.01270798 0.01290031
 0.01309217 0.01331804 0.01357696 0.01387773 0.01421313 0.01455517 0.01489655 0.01519956 0.01546572 0.01567674
 0.01584597 0.0159821 0.01610256 0.01622839 0.01636651 0.01653101 0.01671132 0.01690823 0.01710331 0.01729073
 0.0174596 0.01760479 0.01773325 0.01784369 0.01795823 0.01807832 0.01822392 0.01839552 0.01859231 0.01881253
 0.01903942 0.01927295 0.01950347 0.01973378 0.01996822 0.02020672 0.02045275 0.02070129 0.0209469 0.0211852
 0.02140938 0.02161915 0.0218122 0.02198967 0.0221515 0.02229886 0.02243114 0.0225538 0.02266684 0.02278079
 0.022897 0.02302323 0.02316056 0.02330473 0.02345535 0.02360086 0.02374144 0.02387352 0.02399911 0.02412666
 0.02425621 0.02439379 0.02453489 0.02467287 0.02480483 0.02492091 0.0250287 0.0251295 0.02523842 0.02536787
 0.02552123 0.02570871 0.02590726 0.0261147 0.02629833 0.02644836 0.02655976 0.02662739 0.02668331 0.02672956
 0.02679375 0.02687633 0.02696128 0.02704567 0.02709254 0.02710529 0.02707813 0.02702251 0.02697122 0.02693053
 0.02693267 0.02696914 0.02704389 0.02714062 0.02724411 0.02734436 0.02742735 0.02749781 0.02755135 0.02760645
 0.02766735 0.02775131 0.02786546 0.02800306 0.02816693 0.02832293 0.02846892 0.02857118 0.02862858 0.02863928
 0.02860613 0.0285564 0.02849187 0.02843628 0.02838739 0.02834915 0.02832206 0.02830719 0.02831033 0.02834292
 0.02840152 0.02849266 0.02859348 0.02869131 0.02876569 0.02879811 0.0288005 0.02876802 0.02873681 0.02871494
 0.02872095 0.02876152 0.02881733 0.02888813 0.02894151 0.02897616 0.02898006 0.02895511 0.02891519 0.0288629
 0.02881885 0.02878312 0.02876693 0.02876874 0.02879089 0.02883141 0.02889009 0.02896059 0.02903884 0.0291124
 0.02917159 0.02920784 0.02921213 0.02919066 0.02914122 0.02908123 0.02901318 0.02895462 0.02890738 0.02889038
 0.02890489 0.02897335 0.02909671 0.02928284 0.02952816 0.02980195 0.03009511 0.03034461 0.0305457 0.03064494
 0.03065522 0.03057113 0.03042436 0.03025694 0.0300993 0.03000355 0.02996909 0.03002116 0.03011775 0.03025088
 0.03036398 0.03043515 0.03043586 0.03035061 0.03019953 0.02997961 0.0297437 0.02949568 0.02928039 0.02909978
 0.02896173 0.02886415 0.02878702 0.02872969 0.02867726 0.02863364 0.02860412 0.02859144 0.02860757 0.02864438
 0.02869991 0.028752 0.02877973 0.02875844 0.02866083 0.02848443 0.0282126 0.02788259 0.02749687 0.02711496
 0.02675076 0.02644256 0.02620111 0.02601761 0.02589396 0.02578809 0.02569781 0.02558126 0.02543871 0.02525657
 0.02504101 0.02481628 0.02458978 0.02440189 0.02424761 0.02414138 0.02406103 0.02398001 0.02387904 0.02372156
 0.02351777 0.0232557 0.02297563 0.02269185 0.02244386 0.0222521 0.02212066 0.02206 0.02203137 0.02203341
 0.02201103 0.02195884 0.02184642 0.02167241 0.02145104 0.02118549 0.02091571 0.02064389 0.02040313 0.02019134
 0.02002002 0.01988393 0.01977825 0.01969614 0.01962635 0.01956088 0.01948792 0.0194001 0.01928832 0.01914922
 0.01897695 0.01877811 0.01855108 0.01831389 0.0180693 0.01783645 0.01761935 0.01742306 0.01724907 0.01708784
 0.01693891 0.01679108 0.01664432 0.0164948 0.01634311 0.01619051 0.01603725 0.01588512 0.01573347 0.01558215
 0.0154295 0.01527292 0.01511111 0.01494094 0.01476427 0.0145805 0.01439492 0.01420988 0.01402978 0.01385802
 0.01369071 0.01352904 0.01336042 0.01318321 0.01298738 0.01277108 0.01254108 0.01229774 0.01205933 0.01182614
 0.01160788 0.01140273 0.01120508 0.01101414 0.01082351 0.01063517 0.01045095 0.01027146 0.01009953 0.009932121
 0.009766718 0.009601721 0.00943334 0.0092671 0.009102967 0.008952759 0.008820553 0.008714821 0.008641087 0.008587842
 0.008557273 0.008513101 0.008452781 0.008339833 0.008172314 0.007948501 0.007671569 0.007379381 0.007076332 0.006808255
 0.006573362 0.00639269 0.006255483 0.006149807 0.006060875 0.00595888 0.005837841 0.005675083 0.005484763 0.005266638
 0.00504651 0.004839794 0.004655507 0.004504269 0.004369464 0.004248845 0.004129126 0.004004888 0.003893662 0.003795587
 0.003741709 0.00373367 0.003773733 0.003858534 0.003946877 0.004033326 0.004063203 0.004038791 0.003934815 0.003766112
 0.003552439 0.003311391 0.003082957 0.002868696 0.002690331 0.002529634 0.002378987 0.002225153 0.002053708 0.001878777
 0.001700169 0.001540523 0.001408685 0.001299725 0.00121653 0.001132136 0.001043376 0.0009436365 0.0008324098 0.0007353689
 0.000653549 0.0006088013 0.0005974309 0.000609234 0.0006387082 0.0006593831 0.0006722003 0.0006646772 0.0006439171 0.0006167545
 0.0005866713 0.0005637676 0.0005383329 0.0005097796 0.0004572988 0.0003694763 0.000233093 3.572135E-05 -0.0002058111 -0.0004951424
 -0.0007860469 -0.001073028 -0.001312449 -0.001497805 -0.001625967 -0.001696363 -0.001751548 -0.001794468 -0.001876528 -0.001995551
 -0.002167394 -0.002381929 -0.002612002 -0.002848243 -0.003052535 -0.003226966 -0.003354976 -0.003450069 -0.003519963 -0.003579859
 -0.003645064 -0.003721917 -0.003820772 -0.003932236 -0.004058091 -0.004176337 -0.004281641 -0.004359427 -0.00440337 -0.004430508
 -0.004439917 -0.004474907 -0.004537929 -0.004656385 -0.004828322 -0.005032458 -0.005263056 -0.00547176 -0.005660445 -0.005806625
 -0.0059237 -0.006033043 -0.006144662 -0.006289344 -0.006458442 -0.006657322 -0.006865756 -0.007068749 -0.007254168 -0.007409471
 -0.007536581 -0.007633165 -0.007704186 -0.007750885 -0.007774347 -0.007774278 -0.007755444 -0.007717113 -0.007678652 -0.007641035
 -0.007635885 -0.00766424 -0.007748677 -0.007885791 -0.008067667 -0.008286607 -0.008509832 -0.008732913 -0.008927201 -0.009095952
 -0.009232168 -0.009339265 -0.009420295 -0.009472427 -0.009494472 -0.009483689 -0.009436043 -0.009358397 -0.009250305 -0.009126778
 -0.008990828 -0.008856681 -0.008727647 -0.008608827 -0.008502156 -0.008395886 -0.008289588 -0.008155813 -0.00799341 -0.00777917
 -0.00751577 -0.007207023 -0.006859527 -0.006500405 -0.006133014 -0.005780975 -0.005439945 -0.005113646 -0.004795816 -0.004479732
 -0.004163262 -0.003843106 -0.003516514 -0.003183618 -0.002833223 -0.002461953 -0.002058168 -0.001616087 -0.001140677 -0.0006297494
 -0.0001050535 0.0004318971 0.0009591705 0.001475379 0.001965707 0.002429249 0.00285065 0.003228698 0.003546534 0.003805712
 0.004000582 0.004138886 0.004234593 0.004299996 0.004361318 0.004429582 0.004528658 0.00466262 0.00484351 0.005068549
 0.005339198 0.005652681 0.006007642 0.006404893 0.00684515 0.007325327 0.00784641 0.008395387 0.00897135 0.009560241
 0.01016108 0.01076961 0.01138594 0.01201201 0.01264776 0.01329293 0.01394853 0.0146166 0.01530201 0.01601849
 0.01676869 0.01757153 0.01840497 0.01926861 0.02008609 0.02081615 0.02132978 0.02154963 0.02136615 0.02070142
 0.0195739 0.01794538 0.01600138 0.01375058 0.01145981 0.009156401 0.00704616 0.005144535 0.003514848 0.002154019
 0.001010082 7.42677E-05 -0.0007365005 -0.001425753 -0.002050221 -0.002610263 -0.003133696 -0.003623298 -0.004096608 -0.004554703
 -0.005008285 -0.005449158 -0.005875723 -0.006275182 -0.006638004 -0.006962318 -0.00724252 -0.007491248 -0.007710375 -0.007912281
 -0.00810076 -0.008273813 -0.008432768 -0.008560888 -0.0086573 -0.008702511 -0.008696557 -0.008637725 -0.008530453 -0.008403404
 -0.008262808 -0.008150678 -0.008065493 -0.008027934 -0.008025551 -0.008047001 -0.008078321 -0.008097571 -0.008096669 -0.008062312
 -0.007988289 -0.00786868 -0.007696069 -0.007467 -0.007174054 -0.006816646 -0.006379686 -0.00586256 -0.005237742 -0.004499795
 -0.003652047 -0.002692018 -0.001736342 -0.0007982673 -0.0001227395 0.0002754044 0.0001583697 -0.0004478739 -0.001588669 -0.003181538
 -0.005045939 -0.007090499 -0.009062581 -0.01092869 -0.01253302 -0.01391501 -0.01504948 -0.01600309 -0.01680962 -0.017512
 -0.01813796 -0.01869824 -0.01920106 -0.01964725 -0.02003706 -0.02037702 -0.02066715 -0.02092056 -0.02113798 -0.02133439
 -0.02151043 -0.02167741 -0.02183558 -0.02199205 -0.02214693 -0.02230494 -0.0224652 -0.02262869 -0.02279224 -0.02295064
 -0.02310131 -0.02323748 -0.02336226 -0.02347452 -0.02358237 -0.02369072 -0.02380365 -0.02392597 -0.02405082 -0.02417881
 -0.02429551 -0.02439815 -0.02447828 -0.02453347 -0.02457263 -0.02459592 -0.02462299 -0.02465439 -0.0246999 -0.02475777
 -0.02481903 -0.02488268 -0.02493798 -0.0249892 -0.02504168 -0.0251014 -0.02518411 -0.02528715 -0.02541688 -0.02555923
 -0.02570559 -0.02584002 -0.0259492 -0.02602833 -0.02606942 -0.02608403 -0.02607118 -0.02605454 -0.02603753 -0.02604238
 -0.02607292 -0.02613374 -0.02622588 -0.02633286 -0.02645361 -0.02656627 -0.02667093 -0.02675774 -0.02682864 -0.02688657
 -0.02693325 -0.02697467 -0.02701202 -0.02705017 -0.02708981 -0.02713455 -0.02718211 -0.02723303 -0.02728086 -0.02732183
 -0.02735125 -0.0273647 -0.02736636 -0.02735491 -0.02734273 -0.02733142 -0.02733342 -0.02735076 -0.02738748 -0.02744427
 -0.02751325 -0.02759377 -0.02767216 -0.02774812 -0.02781268 -0.02786735 -0.02791346 -0.02795327 -0.02799391 -0.02803588
 -0.02808434 -0.02813642 -0.02819144 -0.02824391 -0.02828838 -0.02832199 -0.02833951 -0.02834675 -0.02834326 -0.02834119
 -0.02834414 -0.02835939 -0.02839013 -0.02843152 -0.02848376 -0.02853756 -0.02859212 -0.02864589 -0.02869905 -0.02875786
 -0.02882225 -0.02889502 -0.02897443 -0.02905407 -0.02913292 -0.02920396 -0.02926915 -0.02932908 -0.0293854 -0.02944184
 -0.0294954 -0.0295448 -0.02958691 -0.02961781 -0.02964141 -0.02965727 -0.02967391 -0.02969434 -0.02972104 -0.02975596
 -0.02979285 -0.02983134 -0.0298645 -0.02989171 -0.02991119 -0.02992303 -0.02993069 -0.0299347 -0.02994097 -0.02994967
 -0.02996498 -0.0299859 -0.03001202 -0.03004178 -0.03007183 -0.03010151 -0.03012825 -0.03015292 -0.03017527 -0.03019671
 -0.03021761 -0.03024065 -0.03026654 -0.03029941 -0.03034051 -0.03039321 -0.03045889 -0.03053622 -0.03062586 -0.0307195
 -0.0308168 -0.03090462 -0.03098244 -0.03104164 -0.03108322 -0.0311109 -0.0311269 -0.03114355 -0.03116119 -0.03118796
 -0.03122122 -0.03125977 -0.03130079 -0.03133921 -0.03137555 -0.03140794 -0.03143927 -0.03147081 -0.03150508 -0.03154398
 -0.03158697 -0.03163499 -0.03168362 -0.0317327 -0.03177525 -0.03181013 -0.03183506 -0.0318495 -0.03185967 -0.031866
 -0.03187846 -0.03189683 -0.0319239 -0.03195808 -0.03199343 -0.03202937 -0.03206037 -0.03208841 -0.03211467 -0.03214123
 -0.03217211 -0.03220657 -0.03224574 -0.03228721 -0.03232952 -0.03237155 -0.03241229 -0.03245191 -0.03249022 -0.03252778
 -0.03256452 -0.0326019 -0.03263998 -0.03268081 -0.03272459 -0.03277136 -0.03282103 -0.0328704 -0.03291917 -0.03296305
 -0.03300219 -0.0330345 -0.03306113 -0.0330843 -0.03310521 -0.03312778 -0.0331513 -0.03317687 -0.03320209 -0.03322457
 -0.03324392 -0.03325819 -0.03327107 -0.03328368 -0.03329915 -0.03331936 -0.03334263 -0.03336907 -0.03339591 -0.03342252
 -0.03345 -0.0334784 -0.03350927 -0.0335425 -0.03357357 -0.03360192 -0.03362001 -0.03362878 -0.0336278 -0.0336203
 -0.03361582 -0.03361647 -0.03363224 -0.03366055 -0.03370309 -0.0337537 -0.0338073 -0.03385846 -0.03390156 -0.03393545
 -0.03395729 -0.0339712 -0.03397693 -0.03398264 -0.0339899 -0.03400485 -0.0340292 -0.03405967 -0.03409645 -0.03412883
 -0.03415637 -0.03417221 -0.0341772 -0.03417606 -0.03417052 -0.0341719 -0.03418001 -0.03420122 -0.03423208 -0.03426909
 -0.0343081 -0.03434096 -0.03436747 -0.03438327 -0.03439322 -0.0343991 -0.03440564 -0.03441625 -0.03443055 -0.03444964
 -0.03446981 -0.03449021 -0.03450985 -0.03452821 -0.03454756 -0.03456805 -0.03459102 -0.03461646 -0.03464175 -0.03466653
 -0.0346859 -0.03470005 -0.03470676 -0.03470771 -0.03470646 -0.03470536 -0.0347114 -0.03472471 -0.03474938 -0.03478191
 -0.03482076 -0.03486153 -0.03490023 -0.03493605 -0.03496687 -0.0349961 -0.03502418 -0.03505501 -0.03508993 -0.03512872
 -0.03517202 -0.03521451 -0.03525589 -0.03529024 -0.03531735 -0.03533625 -0.0353475 -0.03535608 -0.03536239 -0.03537121
 -0.03538204 -0.03539556 -0.03541155 -0.03542954 -0.03545047 -0.03547603 -0.03550538 -0.03553974 -0.03557353 -0.03560392
 -0.03562455 -0.03563053 -0.03562301 -0.03559973 -0.03557039 -0.03553611 -0.03550773 -0.03548711 -0.03547918 -0.03548477
 -0.03550132 -0.0355286 -0.0355585 -0.03559053 -0.03561637 -0.03563662 -0.03564934 -0.03565642 -0.03566285 -0.03566976
 -0.03568257 -0.03569987 -0.03572229 -0.03574728 -0.0357723 -0.03579617 -0.03581681 -0.03583561 -0.0358525 -0.03586973
 -0.03588844 -0.03590807 -0.03592934 -0.03594751 -0.03596204 -0.03596931 -0.03596867 -0.03596327 -0.03595331 -0.035947
 -0.03594461 -0.03595237 -0.03596943 -0.03599533 -0.03602813 -0.03606156 -0.03609403 -0.03611841 -0.03613593 -0.03614451
 -0.03614819 -0.03615049 -0.036154 -0.03616263 -0.03617405 -0.03618846 -0.03620223 -0.03621358 -0.036223 -0.03622993
 -0.0362376 -0.03624653 -0.03625796 -0.03627216 -0.03628718 -0.03630292 -0.03631653 -0.03632794 -0.03633569 -0.03633995
 -0.03634091 -0.03633873 -0.03633402 -0.03632679 -0.03631703 -0.03630562 -0.03629355 -0.0362824 -0.03627452 -0.03626983
 -0.0362697 -0.0362713 -0.03627334 -0.03627466 -0.0362736 -0.03627453 -0.03627792 -0.03628869 -0.03630819 -0.03633464
 -0.03636844 -0.03639968 -0.03642785 -0.03644306 -0.03644571 -0.0364357 -0.03641539 -0.03639666 -0.03638212 -0.03638688
 -0.03641106 -0.03646291 -0.03653988 -0.03664161 -0.03676596 -0.03690968 -0.03707416 -0.03725839 -0.03746735 -0.03770296
 -0.03796986 -0.03827039 -0.03860548 -0.03897547 -0.03938212 -0.03982568 -0.04030931 -0.0408347 -0.04138255 -0.04195128
 -0.04246674 -0.04292314 -0.04322633 -0.04338128 -0.04336098 -0.04318466 -0.04290327 -0.04252755 -0.04210403 -0.04164014
 -0.04116007 -0.04068729 -0.04025503 -0.0398807 -0.0395899 -0.03938137 -0.03926196 -0.03922318 -0.03926602 -0.03937257
 -0.03954407 -0.03973748 -0.03994934 -0.04012537 -0.04025914 -0.04033691 -0.04035795 -0.04034078 -0.04028602 -0.04020455
 -0.04009752 -0.03997612 -0.03984297 -0.03971409 -0.03958821 -0.03947091 -0.03935863 -0.03924786 -0.039137 -0.03902376
 -0.0389052 -0.03877878 -0.03864127 -0.03848824 -0.03832644 -0.03815569 -0.03798896 -0.03782985 -0.03768328 -0.03755117
 -0.03742965 -0.03731858 -0.03721414 -0.03711613 -0.03702332 -0.03693582 -0.0368542 -0.03677899 -0.03671356 -0.03665835
 -0.03661741 -0.03658902 -0.0365722 -0.03656279 -0.03655399 -0.03654253 -0.03652122 -0.03649176 -0.03645189 -0.03640795
 -0.03636248 -0.03632045 -0.03628518 -0.03625465 -0.03622968 -0.03620375 -0.03617577 -0.03614284 -0.03610429 -0.03606351
 -0.03602067 -0.0359803 -0.03594251 -0.03590949 -0.03588125 -0.03585906 -0.03584284 -0.03583342 -0.03582993 -0.03583118
 -0.03583544 -0.03583965 -0.03584209 -0.0358393 -0.03583151 -0.03581677 -0.0357991 -0.03577941 -0.03576338 -0.03575405
 -0.03575143 -0.0357575 -0.03576293 -0.03576684 -0.0357598 -0.03574038 -0.0357096 -0.03566747 -0.03562373 -0.03557884
 -0.03554152 -0.03551112 -0.03548862 -0.03547265 -0.03545889 -0.03544679 -0.03543257 -0.03541724 -0.03540062 -0.03538408
 -0.03536945 -0.03535646 -0.03534567 -0.03533597 -0.0353268 -0.03531789 -0.03530889 -0.03530051 -0.03529292 -0.03528624
 -0.03528068 -0.03527509 -0.03526948 -0.03526176 -0.03525183 -0.03523739 -0.03521855 -0.03519576 -0.03516971 -0.03514494
 -0.03512173 -0.03510407 -0.03509054 -0.03507983 -0.03507034 -0.03505813 -0.0350446 -0.03502917 -0.03501531 -0.03500612
 -0.03500193 -0.03500501 -0.03501021 -0.03501656 -0.03501839 -0.03501363 -0.03500178 -0.03498203 -0.03495838 -0.03493106
 -0.03490458 -0.03487922 -0.0348576 -0.03483982 -0.0348274 -0.03482021 -0.03481837 -0.03482137 -0.03482743 -0.03483618
 -0.03484564 -0.03485628 -0.03486811 -0.03488123 -0.03489629 -0.03491167 -0.03492661 -0.03493884 -0.03494658 -0.03494986
 -0.03494782 -0.03494295 -0.03493566 -0.03492812 -0.03492095 -0.03491394 -0.03490721 -0.03489918 -0.03488975 -0.03487829
 -0.03486482 -0.03484951 -0.03483249 -0.03481442 -0.0347956 -0.03477722 -0.03476012 -0.0347469 -0.03473841 -0.03473774
 -0.03474383 -0.03475753 -0.03477497 -0.03479406 -0.03480958 -0.0348179 -0.03481671 -0.03480329 -0.03478157 -0.03475116
 -0.03472025 -0.03469009 -0.03466659 -0.03465072 -0.03464242 -0.03464176 -0.03464549 -0.03465343 -0.03466216 -0.03467153
 -0.03467859 -0.03468347 -0.03468472 -0.0346832 -0.0346804 -0.03467673 -0.03467419 -0.03467096 -0.03466564 -0.03465696
 -0.03464221 -0.0346248 -0.03460493 -0.034589 -0.03458 -0.03457975 -0.03459041 -0.03460605 -0.03462655 -0.03464296
 -0.03465435 -0.0346547 -0.03464355 -0.0346201 -0.03458475 -0.03454311 -0.03449642 -0.03445541 -0.03442092 -0.0344027
 -0.03439863 -0.0344095 -0.03443005 -0.03445153 -0.03447052 -0.03447805 -0.03447714 -0.03446638 -0.03445203 -0.03443779
 -0.03442584 -0.03441873 -0.0344132 -0.03440896 -0.03440283 -0.03439392 -0.03438269 -0.03436897 -0.034355 -0.0343409
 -0.03432809 -0.03431652 -0.03430577 -0.03429559 -0.03428401 -0.03427102 -0.03425524 -0.03423763 -0.03421969 -0.03420278
 -0.03418999 -0.03418185 -0.03418049 -0.03418499 -0.03419573 -0.0342103 -0.03422798 -0.03424508 -0.03426024 -0.03427009
 -0.03427318 -0.03426933 -0.03425773 -0.03424284 -0.03422481 -0.03421018 -0.03419937 -0.0341952 -0.03419742 -0.03420223
 -0.03420894 -0.03421086 -0.03420829 -0.03419847 -0.034183 -0.03416445 -0.03414432 -0.03412646 -0.0341115 -0.03410189
 -0.03409718 -0.03409823 -0.03410297 -0.0341107 -0.03411883 -0.03412594 -0.03413155 -0.03413507 -0.03413764 -0.03413956
 -0.03414037 -0.03414025 -0.03413609 -0.03412769 -0.03411294 -0.03409192 -0.03406578 -0.03403512 -0.03400464 -0.03397511
 -0.0339524 -0.03393616 -0.03392888 -0.03392874 -0.03393361 -0.03394205 -0.03395103 -0.03396093 -0.03397132 -0.033982
 -0.03399321 -0.03400299 -0.03401046 -0.03401495 -0.03401561 -0.03401494 -0.03401326 -0.03401228 -0.03401247 -0.03401172
 -0.03400995 -0.03400281 -0.03399019 -0.03396991 -0.03394261 -0.03391135 -0.03387756 -0.0338489 -0.03382565 -0.03381324
 -0.03380938 -0.03381275 -0.03382064 -0.03382876 -0.03383666 -0.03384258 -0.0338466 -0.03384872 -0.0338476 -0.0338425
 -0.03383348 -0.03382 -0.03380463 -0.03378792 -0.0337705 -0.0337528 -0.0337314 -0.03370612 -0.03367458 -0.03363689
 -0.03359556 -0.03355135 -0.03351073 -0.03347466 -0.0334507 -0.03343871 -0.03344319 -0.033461 -0.03348965 -0.03352349
 -0.03355446 -0.03357884 -0.0335897 -0.03358868 -0.03357416 -0.03355075 -0.0335202 -0.03348482 -0.03344583 -0.03340284
 -0.0333554 -0.03330684 -0.03325696 -0.03321468 -0.03318058 -0.03316099 -0.03315572 -0.03316035 -0.03317371 -0.03318502
 -0.03319396 -0.03319322 -0.03318408 -0.03316592 -0.03314069 -0.03311143 -0.03308013 -0.03305079 -0.03302381 -0.03300169
 -0.03298157 -0.03296263 -0.03294189 -0.03291712 -0.03289018 -0.03286077 -0.03283288 -0.03280774 -0.0327841 -0.0327623
 -0.03273687 -0.03270737 -0.03267264 -0.03263301 -0.03259556 -0.03256101 -0.03253862 -0.03252751 -0.03252979 -0.0325424
 -0.03255829 -0.03257484 -0.03258314 -0.03258427 -0.03257541 -0.03256001 -0.0325404 -0.03251854 -0.03249659 -0.03247439
 -0.03245236 -0.03243007 -0.03240748 -0.03238422 -0.03236025 -0.03233503 -0.03230843 -0.03228081 -0.03225217 -0.03222258
 -0.03219198 -0.03215905 -0.03212393 -0.03208686 -0.03204857 -0.03201237 -0.03197854 -0.03194987 -0.03192542 -0.03190489
 -0.03188703 -0.03187036 -0.03185322 -0.0318341 -0.03181045 -0.03177994 -0.03174231 -0.03169568 -0.03164542 -0.03159201
 -0.03154315 -0.03150063 -0.03146767 -0.03144539 -0.0314295 -0.03141991 -0.03140794 -0.03139327 -0.03137057 -0.03134068
 -0.03130787 -0.03127337 -0.03124574 -0.03122364 -0.0312089 -0.03119698 -0.03117956 -0.03115493 -0.03111543 -0.03106702
 -0.03101208 -0.03095696 -0.03090752 -0.03086297 -0.03082501 -0.03078904 -0.03075347 -0.03071797 -0.03068166 -0.03064902
 -0.03062062 -0.03059842 -0.03058271 -0.03057012 -0.03056048 -0.0305504 -0.0305398 -0.03052717 -0.03051166 -0.03048865
 -0.03045784 -0.03041441 -0.03036229 -0.03030642 -0.03025087 -0.03020498 -0.03016531 -0.030133 -0.03010112 -0.03006433
 -0.03002261 -0.02997315 -0.02992357 -0.02987576 -0.0298344 -0.02980194 -0.02977249 -0.0297461 -0.02971251 -0.02967086
 -0.02961814 -0.02955458 -0.0294876 -0.02941788 -0.0293547 -0.02929716 -0.02924659 -0.02920107 -0.02915517 -0.02910923
 -0.02906084 -0.02901218 -0.028966 -0.02892158 -0.02887988 -0.02883774 -0.02879249 -0.0287454 -0.0286959 -0.02864755
 -0.02860241 -0.02855723 -0.02851243 -0.02845996 -0.02839826 -0.02832813 -0.02824914 -0.02817359 -0.028102 -0.02804368
 -0.02799758 -0.02795952 -0.0279271 -0.02788673 -0.02783813 -0.02777252 -0.0276932 -0.02760268 -0.02750351 -0.02740058
 -0.02729422 -0.02718589 -0.02707717 -0.02696863 -0.02686438 -0.02676615 -0.02667757 -0.0266005 -0.02653509 -0.02648279
 -0.02643613 -0.02639573 -0.02634138 -0.02627171 -0.02616875 -0.02603251 -0.02587482 -0.02569812 -0.02552973 -0.02536852
 -0.02522435 -0.02509296 -0.02496671 -0.02484312 -0.02471328 -0.02457763 -0.02443312 -0.02428072 -0.02412043 -0.02395283
 -0.02377904 -0.02359677 -0.02340661 -0.02320112 -0.02297764 -0.02273344 -0.02246527 -0.02218734 -0.02190074 -0.02161976
 -0.02134601 -0.02107664 -0.02081147 -0.0205447 -0.02027709 -0.020014 -0.01975522 -0.01950464 -0.0192571 -0.01899954
 -0.01872723 -0.01842068 -0.01808818 -0.01773028 -0.01736352 -0.01700608 -0.01666258 -0.01634345 -0.01604184 -0.01575777
 -0.01548267 -0.01521431 -0.01494522 -0.01467492 -0.01439022 -0.0140908 -0.01375269 -0.01337361 -0.01294488 -0.01246736
 -0.01198224 -0.01149188 -0.01103754 -0.01061322 -0.01021229 -0.009827615 -0.009434044 -0.009029591 -0.008598963 -0.008141165
 -0.007651709 -0.007120969 -0.006542652 -0.005894966 -0.005161455 -0.004328059 -0.003374284 -0.002335141 -0.001208242 -6.756841E-05
 0.001071446 0.002162398 0.003194979 0.00416493 0.005070092 0.005932263 0.006753447 0.007587121 0.008439219 0.00939353
 0.01044246 0.01160744 0.01284902 0.01404923 0.01519975 0.0162128 0.01713354 0.01799124 0.01881974 0.01966897
 0.02053862 0.0214447 0.02237538 0.02332789 0.02429739 0.02528629 0.02626976 0.02724616 0.02817671 0.02905363
 0.02987493 0.03063914 0.0313653 0.03205364 0.03269162 0.03327733 0.03378394 0.03421645 0.03458326 0.0348948
 0.0351902 0.03546957 0.03575789 0.03603559 0.0362818 0.03649008 0.03664023 0.03675064 0.03682886 0.03688636
 0.03693324 0.03696394 0.03697953 0.03697037 0.03693419 0.03686694 0.03676762 0.03663568 0.03647085 0.0362757
 0.03605039 0.03579959 0.03552301 0.03522011 0.0348896 0.03452423 0.03412427 0.03368417 0.0332109 0.03271319
 0.03220534 0.03171271 0.03124229 0.03081391 0.03041801 0.03005428 0.02971246 0.02938479 0.02907616 0.02878515
 0.02852372 0.02829528 0.02810128 0.02794292 0.02781449 0.02771551 0.02764408 0.02760017 0.02758638 0.02760285
 0.0276523 0.02773431 0.02784846 0.02799364 0.0281662 0.02836504 0.02858585 0.02882877 0.0290913 0.02937652
 0.02968471 0.0300246 0.03040003 0.03082529 0.03130697 0.03185885 0.03248682 0.03319895 0.03399939 0.03488433
 0.03585654 0.03688792 0.03797786 0.03907733 0.04018365 0.04124843 0.0422681 0.04319196 0.04401236 0.04465966
 0.04513515 0.04539677 0.04547196 0.04539436 0.04519989 0.04495561 0.04468586 0.04444234 0.04422881 0.04406689
 0.04394126 0.04385075 0.04377826 0.04371707 0.04365999 0.04360304 0.0435514 0.04350573 0.04346743 0.04343758
 0.04339875 0.04335011 0.0432794 0.04318749 0.04307912 0.04295624 0.04283184 0.04270613 0.04259056 0.04247516
 0.04235697 0.04219323 0.0419324 0.04150193 0.04078572 0.03980628 0.03851576 0.03704569 0.03545923 0.03380754
 0.03212239 0.03041626 0.02868648 0.02700216 0.02537097 0.02385983 0.02247829 0.02121248 0.02006155 0.018969
 0.01793441 0.01693339 0.01597112 0.01506437 0.01421408 0.01343479 0.01271812 0.01205364 0.01143151 0.01083256
 0.01024997 0.009670998 0.00908756 0.008493146 0.007872081 0.007213796 0.00651249 0.00575066 0.004990459 0.004236949
 0.003576001 0.003030032 0.002572455 0.002205446 0.001856154 0.001521223 0.001176856 0.0008259455 0.0004950371 0.0001856487
 -7.814026E-05 -0.0003029022 -0.0005003547 -0.0006714955 -0.0008291468 -0.0009591905 -0.001045931 -0.001076409 -0.00102586 -0.0009031291
 -0.0007042271 -0.0004481718 -0.0001442521 0.0001972442 0.0005694309 0.0009736473 0.00140658 0.001885065 0.002409328 0.00300922
 0.003689031 0.00444605 0.005279649 0.006104069 0.006914067 0.00761787 0.008221962 0.008715704 0.009107864 0.009423078
 0.00966322 0.009841082 0.009964055 0.01004258 0.0101008 0.01016376 0.01026381 0.01043994 0.01068626 0.01102464
 0.01138493 0.01174564 0.01206385 0.01231872 0.01253016 0.01269718 0.01284895 0.01298858 0.01312701 0.0132649
 0.01339797 0.01352595 0.01364368 0.01375258 0.01385667 0.01395985 0.01407712 0.01421209 0.01438273 0.01458459
 0.01481982 0.01507996 0.01535335 0.01564417 0.01594931 0.01628218 0.01665088 0.01705688 0.01750536 0.01798176
 0.01848358 0.0189997 0.01952735 0.02006712 0.02061954 0.02117573 0.02173511 0.0222613 0.02275201 0.02316781
 0.02350969 0.0237636 0.02393131 0.02401234 0.02400577 0.02390865 0.02372122 0.02344061 0.02307302 0.02262237
 0.02209932 0.0215128 0.02087101 0.02018086 0.01944507 0.01866438 0.01784681 0.01699012 0.01612432 0.01525115
 0.01441368 0.01361685 0.01287885 0.01220086 0.01156846 0.01098063 0.01042011 0.009888057 0.009382643 0.008905532
 0.008462825 0.00805244 0.007673883 0.007321326 0.006985246 0.006661257 0.006339415 0.006022052 0.005705956 0.005400351
 0.005108919 0.004839711 0.004597704 0.004381665 0.004193604 0.00402334 0.003870312 0.003720882 0.003573633 0.003419782
 0.003258767 0.00309597 0.002932513 0.002785279 0.002654334 0.002549542 0.002468009 0.002404454 0.002356688 0.002316548
 0.002284235 0.002256863 0.002234131 0.002215174 0.002198133 0.002181076 0.002163504 0.002143825 0.002125191 0.002107646
 0.002097082 0.002094684 0.002105988 0.002132399 0.002174646 0.002233436 0.002301588 0.002378745 0.002454181 0.002527708
 0.002594064 0.002654319 0.002711903 0.002768541 0.002832206 0.002903908 0.002990447 0.003090862 0.00320751 0.003336568
 0.003476529 0.003618259 0.003756812 0.00387664 0.00396867 0.004020701 0.004023559 0.003982978 0.003895854 0.003784691
 0.003652163 0.003518337 0.00338581 0.00326211 0.003147811 0.003044177 0.002951317 0.002871142 0.002803672 0.002750216
 0.00271035 0.00268327 0.002668471 0.002664392 0.002670626 0.00268596 0.002709776 0.002741176 0.002778915 0.002822229
 0.002868571 0.002916317 0.002963953 0.003009819 0.003056568 0.003104083 0.003157377 0.003217557 0.003285763 0.003362582
 0.003443501 0.003528319 0.003609496 0.003686582 0.003751501 0.003804345 0.003840692 0.003862684 0.003874984 0.003881538
 0.003894581 0.003915977 0.003955681 0.004010197 0.004080429 0.004159392 0.004241745 0.004322585 0.004396541 0.004465867
 0.004528754 0.004594338 0.004663921 0.004747964 0.004848611 0.004971062 0.005116673 0.005280382 0.005462051 0.005648234
 0.005838235 0.006019256 0.006191644 0.006351461 0.006499255 0.006636216 0.006759829 0.006865274 0.006948164 0.006997587
 0.007014317 0.006992841 0.006941609 0.006864673 0.006772036 0.006670073 0.006566002 0.00646358 0.006368366 0.006282432
 0.006209084 0.006149793 0.006101546 0.006064489 0.006031787 0.006003002 0.005975818 0.005950674 0.005934179 0.005927495
 0.005941795 0.005977118 0.006041055 0.006129688 0.006239563 0.006360885 0.00647725 0.006576072 0.006634671 0.006649138
 0.006603806 0.006515458 0.00638464 0.006243041 0.006103464 0.005985323 0.005899923 0.005835944 0.005795406 0.005749853
 0.005696144 0.005618277 0.005514811 0.00539544 0.005261604 0.005138742 0.005027647 0.004947737 0.004895105 0.004866206
 0.004854275 0.004838745 0.004819439 0.004783535 0.004741882 0.004701941 0.004674681 0.004673932 0.004698912 0.004754474
 0.004832136 0.00492888 0.005041667 0.005167872 0.00531318 0.005477904 0.005668912 0.005887399 0.006132834 0.006405402
 0.00669502 0.007001021 0.007311122 0.007625319 0.007937656 0.008248704 0.008557462 0.008864472 0.009170104 0.009475897
 0.00978471 0.01009771 0.01041908 0.01074438 0.01107262 0.01139558 0.01170769 0.01200562 0.0122862 0.01255103
 0.01280035 0.01303345 0.01325005 0.01345041 0.01363374 0.01381016 0.01398014 0.01415827 0.01434492 0.01454665
 0.01476275 0.01499085 0.01523094 0.01548128 0.01574335 0.01602056 0.01631305 0.01662423 0.01694949 0.01728511
 0.01762544 0.01796209 0.01829941 0.01863508 0.01898293 0.01934911 0.01973829 0.02015553 0.02058799 0.02103428
 0.02148321 0.02193245 0.02238651 0.02284551 0.02331467 0.02379343 0.02427184 0.02474791 0.02520312 0.02563579
 0.02602952 0.02638361 0.02668669 0.02694192 0.02714726 0.02731279 0.02744859 0.02756754 0.02768446 0.02780635
 0.02794337 0.02809095 0.02825117 0.02841192 0.02856967 0.02871903 0.02885708 0.0289918 0.02912358 0.02926112
 0.02940512 0.02955633 0.02971501 0.02988505 0.03006748 0.03027266 0.03049982 0.0307517 0.03102586 0.03131633
 0.0316234 0.03194603 0.03228208 0.0326328 0.03298314 0.03332315 0.03363268 0.0338951 0.03410479 0.03425286
 0.03435059 0.03439825 0.03441139 0.03439238 0.03435515 0.03430148 0.03424098 0.03417455 0.03410298 0.034026
 0.03393711 0.03383563 0.03371363 0.03357078 0.03340051 0.03320516 0.03298536 0.03274909 0.03250991 0.03227778
 0.0320715 0.03189551 0.03176142 0.03166601 0.03161253 0.03159015 0.03159813 0.03161576 0.03163928 0.03164326
 0.03162264 0.03155967 0.03145132 0.03129117 0.03107834 0.0308174 0.03050928 0.03017334 0.02981156 0.02944937
 0.02908539 0.02872914 0.02837442 0.02800913 0.02762878 0.02721802 0.02677892 0.02630581 0.02580811 0.02528911
 0.02476663 0.02425031 0.02376008 0.02330773 0.02289996 0.02254342 0.02222705 0.02195086 0.02169835 0.0214678
 0.02124589 0.02103164 0.02081459 0.0205943 0.02036341 0.02012152 0.0198628 0.01958589 0.01928179 0.01894953
 0.01858039 0.01817777 0.01774223 0.01728189 0.01680653 0.01632525 0.01584926 0.01538525 0.01494127 0.0145177
 0.01411763 0.01373549 0.01337029 0.01301763 0.01267653 0.01234457 0.01202214 0.0116992 0.01137522 0.01103699
 0.01068443 0.01032027 0.009946758 0.009583704 0.009231827 0.008905662 0.008602319 0.008321336 0.00805941 0.007810256
 0.007571255 0.007336469 0.007104273 0.006869241 0.006637064 0.006407727 0.006193451 0.00600056 0.005832856 0.005695581
 0.00557487 0.005469983 0.005362364 0.005248995 0.005124446 0.004987658 0.004849779 0.00471153 0.004588645 0.004480784
 0.004392802 0.004322217 0.004260377 0.004205753 0.004148653 0.004091078 0.004032014 0.003974618 0.003922957 0.003878532
 0.003844596 0.003820285 0.003807239 0.003799843 0.003797179 0.003790287 0.003775721 0.003750769 0.003713381 0.00366939
 0.00361928 0.003567452 0.003514308 0.003460601 0.003406653 0.003360509 0.003323401 0.003310237 0.003320154 0.003358573
 0.003420838 0.0034965 0.003581496 0.003661505 0.003738601 0.003808056 0.003877611 0.003953125 0.004039722 0.00414512
 0.004262069 0.004391673 0.00451729 0.004633876 0.004731391 0.004805722 0.004860219 0.004894148 0.004917459 0.004930592
 0.004946807 0.004966898 0.005006844 0.005066542 0.005153425 0.005264259 0.005388673 0.005522695 0.005648763 0.005766448
 0.005865954 0.005950114 0.006018218 0.006074611 0.006122197 0.006167269 0.006214424 0.006268883 0.006335392 0.00641124
 0.006498151 0.006585154 0.006670578 0.006744624 0.006804984 0.006853794 0.006890504 0.006931302 0.006977037 0.007044841
 0.007133874 0.007245183 0.007374926 0.007506071 0.00763515 0.007742206 0.007828245 0.007884031 0.007916577 0.007930063
 0.007935392 0.007944224 0.007964801 0.00800724 0.00807101 0.008159482 0.00826576 0.008388814 0.00852139 0.008662238
 0.008804278 0.008946721 0.009082152 0.0092098 0.009327662 0.009435917 0.009543072 0.009650334 0.009772503 0.009909618
 0.01007124 0.01025337 0.01045023 0.01065533 0.01085156 0.01103797 0.01120385 0.01135681 0.01150096 0.01164104
 0.01178472 0.01192274 0.01205445 0.01216504 0.01224829 0.01230172 0.01232168 0.01232191 0.01230283 0.012284
 0.01226697 0.01226524 0.01227931 0.01231206 0.01236317 0.01243082 0.01251504 0.01261609 0.01273231 0.01286039
 0.01299518 0.01312429 0.01324462 0.01334441 0.01342891 0.01349745 0.01356028 0.01362411 0.01369604 0.01378192
 0.01388173 0.01399767 0.01412344 0.0142579 0.01439726 0.01453992 0.01469338 0.01485818 0.0150399 0.01523829
 0.01543469 0.01562711 0.01578704 0.01591747 0.01601618 0.0160915 0.01616908 0.01625191 0.01636115 0.01648941
 0.01663669 0.01679074 0.01693981 0.01707386 0.01718097 0.01726136 0.01730967 0.01733854 0.01735059 0.01735705
 0.01736193 0.01736424 0.01736418 0.01736105 0.01735426 0.01735547 0.0173653 0.01739616 0.01744736 0.01751724
 0.01760356 0.01769437 0.01778846 0.01787549 0.01795656 0.01802913 0.01809438 0.01815377 0.0182058 0.01824864
 0.01828366 0.01830745 0.01833476 0.01837049 0.01843047 0.01852506 0.01864301 0.01878687 0.01892542 0.01905366
 0.01915946 0.01924057 0.01930824 0.01936291 0.01941144 0.01945403 0.01949357 0.01953259 0.01958614 0.01965573
 0.01975577 0.01988214 0.02003257 0.02020405 0.02039025 0.02059221 0.02081007 0.02104074 0.0212844 0.02153073
 0.0217767 0.02200782 0.02221997 0.02239776 0.02253562 0.0226331 0.022687 0.02272129 0.02273754 0.02275697
 0.02278044 0.02280735 0.02283807 0.022875 0.0229211 0.02299553 0.02309592 0.0232279 0.02338046 0.02353165
 0.0236758 0.02379229 0.02388762 0.02396042 0.02401914 0.02406982 0.02411681 0.02416421 0.02421208 0.02426266
 0.0243084 0.02434758 0.02437673 0.02439328 0.02441258 0.0244356 0.02447669 0.02453628 0.02460241 0.02467411
 0.02473558 0.02478942 0.02484228 0.02489541 0.02495807 0.02502588 0.02509288 0.02515736 0.02521305 0.02526281
 0.02530721 0.02534925 0.02538822 0.02543673 0.02549752 0.02559293 0.02573683 0.02591594 0.02613614 0.02634362
 0.0265288 0.02667774 0.02678728 0.02687269 0.02693458 0.02697873 0.02700579 0.02702441 0.02703635 0.02705787
 0.02708591 0.02711939 0.02715361 0.02717412 0.02718728 0.02719506 0.02720794 0.02724087 0.02729096 0.02736342
 0.02744489 0.02753099 0.02760819 0.02767033 0.02771179 0.02772639 0.02773481 0.02773665 0.02777219 0.02784628
 0.02796525 0.02812911 0.02828837 0.02843994 0.02853104 0.02856487 0.02853039 0.02843526 0.02829805 0.02812616
 0.02794498 0.02775848 0.02758527 0.02742202 0.02726806 0.02713227 0.02701162 0.02694554 0.02695666 0.02705808
 0.02727179 0.02754079 0.02785678 0.02816926 0.02846485 0.02875629 0.02904466 0.02932568 0.02959879 0.02980505
 0.02994527 0.03000658 0.03000134 0.02999475 0.02999121 0.030043 0.03013978 0.03028359 0.03046434 0.03066937
 0.03088602 0.03109902 0.03129049 0.03144089 0.03154505 0.03159382 0.03159286 0.03154174 0.03144718 0.03130527
 0.03115178 0.03098672 0.0308785 0.03083473 0.03088246 0.03102307 0.03120116 0.03141249 0.03158708 0.03172849
 0.03181964 0.03187009 0.03190343 0.03192613 0.03196692 0.03202144 0.03210081 0.03218368 0.0322504 0.03228601
 0.03226411 0.03220824 0.03212024 0.03203402 0.03196634 0.03191816 0.03189309 0.03188484 0.03189106 0.03192451
 0.03198756 0.03206858 0.03216692 0.03223149 0.03226139 0.03222894 0.03214058 0.03201977 0.0318717 0.03172763
 0.03158627 0.03145998 0.03134575 0.03124486 0.03115277 0.03106364 0.03097834 0.03089222 0.03081872 0.03076499
 0.0307357 0.03073921 0.03075289 0.03077409 0.03077814 0.03076001 0.03071163 0.03063193 0.03051398 0.03035734
 0.03016053 0.02992513 0.02967168 0.0294017 0.02913566 0.02887122 0.02860945 0.02835066 0.02809636 0.02784684
 0.0276064 0.02736597 0.02711261 0.02685327 0.02657829 0.02633208 0.02613656 0.02601956 0.02600892 0.02605834
 0.02616773 0.0262624 0.02632661 0.02634224 0.02630265 0.02625612 0.02620511</values></Ydata></AB><ScSm><Ydata ylabel="Single channel"><values byteorder="INTEL" format="FLOAT32" numvalues="1814"> 0.06662573 0.06664756 0.06672062 0.0668633 0.06705432 0.06724256 0.06737967 0.06745236 0.06747701 0.06746585
 0.06742644 0.067399 0.06745298 0.06761913 0.06784105 0.06801102 0.0680569 0.06800801 0.06797849 0.06805475
 0.06817774 0.06816414 0.06788047 0.06739679 0.06693895 0.06668061 0.06663678 0.06679933 0.06724808 0.06793576
 0.06844558 0.06828902 0.06752092 0.06677154 0.06654704 0.06674205 0.06693211 0.06686406 0.06653756 0.06610963
 0.06593296 0.06645957 0.06779885 0.06935116 0.07001691 0.06888413 0.06588179 0.06200109 0.05893586 0.05817111
 0.05993206 0.06287996 0.06511541 0.06569368 0.06508092 0.06419929 0.06343973 0.06277101 0.06236623 0.06263749
 0.06365912 0.06478197 0.0649619 0.06364317 0.06142192 0.05963747 0.05915796 0.05982654 0.06116081 0.0628785
 0.06418093 0.06334274 0.05940659 0.05433042 0.05211428 0.05499689 0.06106722 0.06614501 0.06750354 0.06537347
 0.06170838 0.05856991 0.05737665 0.05851508 0.06124181 0.06430877 0.06673529 0.06786034 0.06717013 0.0647397
 0.06166878 0.05954657 0.05947861 0.0616598 0.06532568 0.06880602 0.07028834 0.0691666 0.06644267 0.06365919
 0.06188482 0.06172821 0.06348164 0.06680318 0.07070786 0.07415642 0.07648404 0.07743918 0.07721883 0.07635148
 0.07529904 0.07438338 0.07407553 0.07470492 0.07569334 0.07577643 0.0743893 0.07242648 0.07131936 0.07155408
 0.07228278 0.07234985 0.07145809 0.06996832 0.06774791 0.0641707 0.05954341 0.05546726 0.05323681 0.05286363
 0.05403757 0.05662587 0.05954078 0.06066803 0.0591729 0.05697686 0.05684125 0.05943013 0.0629746 0.06545506
 0.06647107 0.06711391 0.06854752 0.07080697 0.0726307 0.07240298 0.06975706 0.06648757 0.06528336 0.06708772
 0.07019538 0.07236026 0.07316983 0.07379432 0.07494511 0.07577465 0.07475505 0.07148553 0.06767914 0.06611289
 0.0682082 0.07260526 0.07614516 0.07620557 0.07246631 0.06699416 0.06263284 0.06103208 0.06219321 0.06554215
 0.07056524 0.07625237 0.08084422 0.08281796 0.08199699 0.07945503 0.07629314 0.07262228 0.06815256 0.0638954
 0.06236456 0.06519127 0.07103039 0.07668516 0.07996288 0.08076291 0.07981721 0.07732608 0.07317854 0.06828432
 0.06500564 0.06532183 0.06845409 0.07131227 0.07173533 0.07045732 0.06950963 0.06966705 0.07016517 0.07028984
 0.07039412 0.07131198 0.07318579 0.07516058 0.07622401 0.07612931 0.07543167 0.07483298 0.07454495 0.07414187
 0.07316552 0.07205196 0.07207362 0.07394461 0.07683261 0.07921183 0.08038832 0.08074433 0.08072065 0.08004741
 0.07814408 0.07522327 0.07273547 0.07229291 0.07410939 0.07686911 0.07909445 0.0802063 0.08037852 0.08000165
 0.07942092 0.07882269 0.07828911 0.07804202 0.0783933 0.07929873 0.08024891 0.08077984 0.08085538 0.08064432
 0.08019162 0.07947651 0.07864467 0.0780209 0.07787846 0.07823176 0.07886945 0.07954568 0.08006868 0.08026762
 0.08005455 0.07955205 0.07901855 0.07861511 0.07835332 0.07825247 0.07838555 0.07873489 0.07912993 0.07938936
 0.07946166 0.07939844 0.07925282 0.07904485 0.078794 0.07855459 0.0784166 0.07844776 0.07861127 0.07878207
 0.07888879 0.07898817 0.07913639 0.07925089 0.07919565 0.07897032 0.07872334 0.07858884 0.07857763 0.07861978
 0.07864401 0.07858813 0.07838387 0.07801388 0.07760078 0.07736809 0.07745963 0.07783091 0.07832986 0.07881273
 0.07916759 0.07932945 0.07932857 0.07926086 0.0791765 0.0790443 0.07883823 0.0786183 0.07851239 0.07862154
 0.07892829 0.0792997 0.07959417 0.07975329 0.07979825 0.07979511 0.0798306 0.07994729 0.08007836 0.08011004
 0.08002678 0.07993923 0.07995294 0.08005186 0.08012748 0.08010273 0.08001585 0.07998039 0.08006513 0.08023082
 0.08039118 0.08051203 0.08063035 0.08078316 0.08093299 0.08098151 0.08087659 0.08068995 0.08055013 0.08050919
 0.08052437 0.08056222 0.08065195 0.08081555 0.08099885 0.08111453 0.08113794 0.08112875 0.08115263 0.08120114
 0.08120497 0.08111808 0.08097006 0.08083747 0.08077982 0.08080205 0.08086078 0.08089924 0.08088453 0.08082205
 0.08074071 0.08066477 0.08059865 0.08054203 0.08051946 0.08057462 0.08071195 0.08085343 0.08088493 0.08076067
 0.08055155 0.08037958 0.08030595 0.08028713 0.0802356 0.08011023 0.07994202 0.07978611 0.07966989 0.0795856
 0.07951283 0.07944162 0.07938846 0.07939491 0.07949052 0.07964265 0.07975876 0.07976305 0.07966676 0.07954894
 0.07947837 0.07947108 0.07950658 0.07955784 0.07961358 0.07968816 0.07979626 0.07991108 0.07997783 0.07998264
 0.07997635 0.08001909 0.08013351 0.08031291 0.08052614 0.08070685 0.08079139 0.08078957 0.0807815 0.08082934
 0.08092424 0.08102971 0.08113842 0.08126539 0.08141306 0.08157255 0.08174966 0.08196755 0.08223999 0.08254854
 0.08284593 0.08308525 0.08325864 0.08341324 0.08362003 0.0839169 0.08427888 0.08464145 0.08495337 0.08521319
 0.08545798 0.08571723 0.08598715 0.08625834 0.0865496 0.08688932 0.08727212 0.08766034 0.08802608 0.08837172
 0.08871163 0.08905289 0.08939745 0.08975461 0.09014529 0.0905831 0.09104198 0.091456 0.0917732 0.09200889
 0.09223458 0.09252125 0.09289399 0.09331535 0.09369912 0.09397193 0.09415065 0.09433725 0.09460919 0.09493576
 0.09523579 0.09549706 0.09579235 0.09617683 0.09661058 0.09700078 0.09729862 0.09753706 0.09778105 0.09805331
 0.0983129 0.09850782 0.09864146 0.09877127 0.09894303 0.09915558 0.09940185 0.09970652 0.1000876 0.100504
 0.1008802 0.1011747 0.1013954 0.1015673 0.1017128 0.1018512 0.1019899 0.1021242 0.1022585 0.1024047
 0.1025499 0.102663 0.1027467 0.1028526 0.1030231 0.1032512 0.1035153 0.1038182 0.104161 0.1045099
 0.1048306 0.1051437 0.1055016 0.1059008 0.1062593 0.1065031 0.1066441 0.1067454 0.106843 0.1069465
 0.1070917 0.1073326 0.1076764 0.1080696 0.1084551 0.1088162 0.1091622 0.1094952 0.1098001 0.1100508
 0.1102254 0.1103266 0.1103918 0.1104804 0.1106438 0.1108959 0.1112018 0.1114996 0.1117383 0.1118929
 0.1119484 0.1118977 0.1117764 0.1116691 0.1116422 0.1116669 0.1116346 0.1114489 0.1110841 0.1105603
 0.109896 0.109105 0.1082269 0.10734 0.1065376 0.1058896 0.1054326 0.1051964 0.1052239 0.1055364
 0.1060792 0.1067241 0.1073312 0.1077885 0.1079979 0.1078723 0.1073859 0.1066116 0.1056823 0.1047168
 0.1037838 0.1029013 0.1020477 0.1011975 0.1003847 0.0997314 0.0994031 0.09954278 0.1002447 0.1015445
 0.1033806 0.1055584 0.1077931 0.1098303 0.1115472 0.1129538 0.1141243 0.1151444 0.1160916 0.1170109
 0.1178897 0.1186819 0.1193686 0.1199779 0.120545 0.1210738 0.1215404 0.1219165 0.1221927 0.1223905
 0.1225446 0.1226624 0.1227175 0.1226939 0.1226144 0.1225084 0.1223656 0.122134 0.121754 0.1211915
 0.1204624 0.1196581 0.1189735 0.1187031 0.1191523 0.1204684 0.1225154 0.1249262 0.1272929 0.1293307
 0.1309196 0.1320731 0.1328916 0.1335044 0.1340149 0.1344825 0.1349351 0.1353805 0.135812 0.1362222
 0.1366151 0.1370049 0.1374055 0.1378194 0.1382292 0.1386061 0.1389399 0.139258 0.1396061 0.1400059
 0.140435 0.1408488 0.1412269 0.1415905 0.1419649 0.1423366 0.1426677 0.1429495 0.1432149 0.1435015
 0.1438264 0.1441907 0.1445782 0.1449491 0.1452638 0.1455199 0.145752 0.145995 0.1462605 0.1465442
 0.1468394 0.1471389 0.1474348 0.147729 0.148037 0.1483676 0.1486977 0.148983 0.1492029 0.1493859
 0.1495824 0.1498185 0.1500822 0.1503462 0.1505986 0.1508556 0.1511436 0.1514663 0.1517913 0.1520754
 0.1523009 0.1524861 0.1526655 0.1528675 0.1531035 0.1533679 0.1536439 0.1539147 0.1541738 0.1544255
 0.1546765 0.1549293 0.1551829 0.1554361 0.1556887 0.1559401 0.1561886 0.1564314 0.1566713 0.156925
 0.1572128 0.1575328 0.1578512 0.1581277 0.1583483 0.1585296 0.1586987 0.1588793 0.1590874 0.1593274
 0.1595882 0.159849 0.1600954 0.1603287 0.1605614 0.160802 0.1610483 0.1612931 0.161536 0.1617848
 0.1620479 0.1623263 0.1626108 0.1628846 0.1631344 0.1633618 0.1635819 0.1638082 0.1640435 0.1642814
 0.1645122 0.1647307 0.1649436 0.1651651 0.1654035 0.1656538 0.165904 0.1661464 0.1663821 0.1666168
 0.1668539 0.1670903 0.1673204 0.1675433 0.1677652 0.1679923 0.1682245 0.1684563 0.1686837 0.1689092
 0.1691375 0.1693695 0.1696032 0.1698373 0.1700709 0.1703019 0.1705292 0.1707549 0.1709819 0.1712117
 0.1714454 0.1716819 0.1719165 0.1721469 0.1723767 0.1726102 0.1728465 0.1730814 0.1733113 0.1735359
 0.1737616 0.1739983 0.1742481 0.1745019 0.1747511 0.1749954 0.1752383 0.1754818 0.1757272 0.1759756
 0.1762265 0.1764781 0.1767258 0.1769622 0.1771836 0.1773941 0.177601 0.1778096 0.178023 0.1782413
 0.1784615 0.1786811 0.1789004 0.1791204 0.1793429 0.1795695 0.1797976 0.1800223 0.1802454 0.1804741
 0.1807088 0.1809443 0.1811793 0.1814155 0.1816501 0.1818798 0.1821045 0.1823249 0.1825442 0.1827695
 0.1830037 0.1832415 0.1834804 0.1837246 0.1839732 0.1842183 0.1844564 0.1846906 0.1849269 0.1851715
 0.1854246 0.1856735 0.1859064 0.186127 0.1863473 0.1865741 0.1868086 0.1870467 0.1872781 0.1875016
 0.1877313 0.1879751 0.1882236 0.1884695 0.1887168 0.1889651 0.1892084 0.1894468 0.1896831 0.1899173
 0.1901522 0.1903901 0.1906241 0.1908507 0.1910793 0.1913142 0.1915453 0.1917693 0.1919922 0.192203
 0.1923548 0.1923207 0.1917904 0.1901627 0.1865363 0.1798814 0.1694372 0.1551885 0.1380521 0.1195621
 0.101299 0.08446641 0.06976906 0.05751336 0.04776399 0.04043795 0.03536363 0.03238955 0.03149945 0.03292564
 0.03726913 0.04514522 0.05584705 0.06615923 0.07160753 0.06999073 0.06348291 0.0566498 0.05265564 0.05173472
 0.05254766 0.05394655 0.05556197 0.05759204 0.0603871 0.06405008 0.06841543 0.0734778 0.0796033 0.08706452
 0.09547696 0.1039546 0.111869 0.1193401 0.1269396 0.1349926 0.1432321 0.1510635 0.1580383 0.1640728
 0.16935 0.1741168 0.1785511 0.1827452 0.1867492 0.1905607 0.1940393 0.1968781 0.1987533 0.1995704
 0.19958 0.1992354 0.1989222 0.1988073 0.1988974 0.1991642 0.1995925 0.2001683 0.2008722 0.2016767
 0.2025417 0.2034245 0.2042981 0.2051497 0.205967 0.2067376 0.2074537 0.2081108 0.2087093 0.2092554
 0.2097561 0.2102163 0.2106438 0.2110472 0.2114289 0.2117875 0.2121244 0.2124411 0.2127362 0.2130103
 0.2132663 0.2135057 0.2137322 0.2139565 0.2141879 0.2144251 0.2146607 0.2148888 0.2151057 0.2153124
 0.2155166 0.2157268 0.2159431 0.2161599 0.2163739 0.2165851 0.2167962 0.2170112 0.2172295 0.2174423
 0.2176427 0.2178351 0.2180289 0.2182272 0.2184272 0.2186272 0.2188292 0.2190351 0.2192446 0.2194543
 0.219664 0.2198807 0.2201081 0.2203373 0.2205583 0.2207737 0.2209923 0.2212166 0.2214453 0.2216759
 0.2218965 0.2220889 0.22225 0.2224021 0.2225779 0.2227966 0.2230508 0.223312 0.2235551 0.2237758
 0.2239823 0.2241787 0.224364 0.2245378 0.2247081 0.2248983 0.2251332 0.2254053 0.2256764 0.2259237
 0.2261605 0.2264028 0.2266492 0.2268979 0.2271464 0.2273699 0.2275383 0.2276661 0.2278243 0.2280858
 0.2284533 0.2288473 0.2291786 0.2294303 0.2296534 0.2299022 0.2301955 0.2305016 0.2307263 0.230779
 0.2307115 0.2307341 0.2310228 0.2315467 0.2321264 0.2326178 0.2329964 0.2333069 0.2335853 0.233824
 0.2339835 0.2340368 0.2340277 0.234091 0.2343662 0.234854 0.2353996 0.2358503 0.2361778 0.2364262
 0.2366316 0.2368188 0.2369593 0.2369131 0.2365751 0.2361398 0.2360533 0.2365802 0.2375061 0.2383688
 0.2389197 0.2392545 0.2395479 0.2398346 0.240065 0.2401527 0.2398669 0.2389602 0.2376548 0.2367817
 0.2370925 0.2384986 0.2402132 0.2415366 0.2423001 0.2426928 0.2429477 0.243182 0.2433095 0.2430646
 0.2422945 0.2413311 0.2409002 0.2414547 0.2426697 0.2437941 0.2444197 0.2446926 0.2449079 0.2451772
 0.2453547 0.2449944 0.2436017 0.2413681 0.2395415 0.2395499 0.2416042 0.2444424 0.2465778 0.2475773
 0.2479449 0.2480274 0.2475109 0.2459944 0.2435868 0.2408535 0.238664 0.2380984 0.2397257 0.2426842
 0.2451692 0.2462197 0.246527 0.2472641 0.248675 0.2500761 0.250757 0.2505364 0.2496341 0.2482746
 0.2465841 0.2449688 0.2443338 0.2454377 0.2479734 0.2506827 0.2525207 0.2534457 0.2538643 0.2534083
 0.2507034 0.2450276 0.2383584 0.2348084 0.236995 0.2433052 0.2496256 0.2533804 0.254933 0.2556549
 0.2560979 0.2558393 0.2537054 0.2483973 0.2405127 0.2338448 0.2328213 0.2381203 0.2459052 0.2514196
 0.2522511 0.2485965 0.2423839 0.236677 0.2344237 0.2366739 0.2421316 0.2484375 0.2535809 0.2564363
 0.2567475 0.255025 0.2525003 0.2508168 0.2508429 0.2513805 0.2500674 0.2463579 0.242434 0.2399908
 0.2375921 0.2333179 0.2290179 0.2290846 0.2347602 0.2420633 0.2462686 0.2466908 0.2457993 0.2446949
 0.2411858 0.2329257 0.221864 0.2142855 0.2153144 0.2236082 0.2325744 0.2368293 0.2364653 0.2350824
 0.2349754 0.2347998 0.2314731 0.2242146 0.2165396 0.2132904 0.2154678 0.2193253 0.2207736 0.2186291
 0.2131312 0.2046132 0.1958682 0.1929689 0.2001081 0.2144259 0.2282852 0.2355728 0.2338693 0.2229969
 0.2059039 0.190516 0.1858629 0.1939572 0.2073471 0.2159965 0.2152246 0.2064501 0.1929081 0.1775053
 0.1642259 0.1584198 0.1635416 0.1776973 0.1938206 0.203173 0.2001039 0.1864405 0.1719212 0.16717
 0.1739994 0.1841817 0.1887138 0.1860111 0.1805207 0.1769686 0.177645 0.1821451 0.1878106 0.1921845
 0.1949563 0.1951523 0.1884544 0.1723903 0.1532576 0.1420134 0.1428829 0.1511097 0.1617264 0.1740448
 0.1860618 0.191358 0.1863393 0.177096 0.1742847 0.181823 0.1935091 0.2006189 0.2005511 0.1973456
 0.1953629 0.1945809 0.1928188 0.1908589 0.1925913 0.1996891 0.2087003 0.2148879 0.2171371 0.2175497
 0.2178561 0.2180983 0.2178346 0.2169203 0.2154214 0.2137147 0.212372 0.2114912 0.2105903 0.2093098
 0.2073837 0.2035924 0.1960602 0.1850089 0.1744703 0.1691492 0.1694835 0.1719479 0.1741897 0.1763803
 0.1764859 0.1689379 0.1519721 0.1336316 0.125928 0.1332569 0.1491339 0.1635707 0.170721 0.1693839
 0.1600059 0.1448537 0.1304536 0.1256218 0.1343337 0.1519302 0.1700902 0.1839612 0.1927937 0.1960866
 0.1927555 0.1839851 0.1743988 0.1694683 0.1721783 0.1816548 0.1934653 0.2008024 0.1977887 0.1852854
 0.1735779 0.1748629 0.1904478 0.2085965 0.2177124 0.218124 0.2175333 0.2190412 0.2195213 0.217941
 0.2187981 0.2258767 0.2366192 0.244635 0.245323 0.2376847 0.22372 0.2089129 0.2008439 0.203124
 0.2112937 0.217684 0.2188606 0.215189 0.2062818 0.1929077 0.1818588 0.1818762 0.1935162 0.2079397
 0.2169774 0.2205817 0.2231709 0.2260067 0.2256813 0.2193154 0.2093916 0.202238 0.2017635 0.2060113
 0.2104275 0.2126583 0.2125997 0.2096747 0.2031899 0.195369 0.1913767 0.1948265 0.2040399 0.2136357
 0.2193593 0.220731 0.2197224 0.2182086 0.2167266 0.2146722 0.2115639 0.2086692 0.2087599 0.2131343
 0.2195031 0.224312 0.2268078 0.2293075 0.2335737 0.2383932 0.2410596 0.2403329 0.2376122 0.2357037
 0.2365686 0.2397721 0.2428108 0.2432541 0.2410634 0.2388508 0.2394767 0.2433238 0.2482443 0.2519976
 0.2540766 0.255251 0.2562517 0.2571315 0.2572289 0.2556697 0.252599 0.2499039 0.249875 0.2529311
 0.257219 0.2605314 0.2620906 0.2624245 0.2621563 0.2613657 0.2599499 0.2582022 0.2568079 0.2563036
 0.2566867 0.257571 0.2585659 0.2594431 0.260106 0.2605545 0.2608469 0.2610309 0.2611287 0.2611806
 0.2612247 0.2612264 0.2611145 0.2609234 0.2608174 0.2609137 0.2611358 0.2612997 0.2612852 0.261044
 0.2604981 0.2595607 0.258265 0.2567602 0.2551405 0.2533838 0.2515594 0.250061 0.2494905 0.2502104
 0.2520071 0.2542201 0.2561871 0.2575722 0.2583752 0.2587662 0.2589409 0.2590449 0.259142 0.2592178
 0.2592179 0.2591003 0.2588671 0.2585549 0.2582015 0.2578316 0.2574653 0.2571156 0.2567725 0.2564047
 0.2559913 0.2555495 0.2551192 0.2547197 0.2543229 0.2538739 0.2533306 0.2526824 0.2519438 0.2511423
 0.2503145 0.2495037 0.2487455 0.2480407 0.2473434 0.2465844 0.2457011 0.2446477 0.2434189 0.2420942
 0.2408219 0.2397112 0.2387454 0.2378217 0.2368468 0.2357747 0.2345959 0.2333274 0.2320019 0.2306462
 0.2292713 0.2278788 0.2264619 0.2250045 0.2234899 0.2219073 0.2202491 0.218518 0.2167403 0.214949
 0.2131327 0.2112055 0.2090334 0.2064913 0.2034854 0.1999449 0.1958379 0.1912229 0.1862654 0.18118
 0.1761582 0.1713506 0.1668886 0.1628984 0.159489 0.1567306 0.1546469 0.153234 0.1524905 0.1524234
 0.1530264 0.1542564 0.1560306 0.1582385 0.1607517 0.1634201 0.16607 0.1685388 0.170738 0.1726822
 0.1744503 0.176114 0.177696 0.1791816 0.1805536 0.1818084 0.1829382 0.183921 0.1847442 0.1854308
 0.1860288 0.1865825 0.1871162 0.1876286 0.1880964 0.1884907 0.1887954 0.1890171 0.1891873 0.1893593
 0.1895893 0.1899154 0.1903544 0.1909053 0.1915518 0.1922718 0.1930527 0.193893 0.1947931 0.1957525
 0.1967658 0.1978169 0.1988925 0.2000065 0.2011939 0.2024823 0.2038763 0.2053587 0.2068898 0.208411
 0.2098623 0.2111927 0.2123573 0.2133169 0.2140473 0.2145487 0.2148491 0.2149922 0.2150151 0.2149441
 0.214808 0.2146333 0.2144239 0.2141648 0.2138467 0.2134695 0.2130354 0.2125614 0.2120813 0.2116126
 0.2111357 0.2106268 0.2100979 0.2095877 0.2091186 0.2086757 0.2082254 0.2077495 0.2072541 0.2067505
 0.206236 0.205691 0.2050838 0.2043824 0.2035764 0.2026827 0.2017176 0.200675 0.1995408 0.1983098
 0.1969785 0.1955406 0.1939998 0.1923756 0.1906874 0.1889349 0.1870915 0.1851263 0.183049 0.180935
 0.1788925 0.1770009 0.1752773 0.1736848 0.1721694 0.1707047 0.1693058 0.1679928 0.1667565 0.1655732
 0.1644375 0.1633578 0.1623345 0.1613632 0.1604514 0.1596181 0.1588755 0.1582157 0.1576166 0.1570637
 0.1565632 0.1561318 0.1557903 0.1555648 0.1554713 0.1554805 0.1555163 0.1554988 0.1553879 0.1551955
 0.15497 0.1547609 0.1545857 0.1544306 0.1542733 0.1540859 0.1538208 0.1534097 0.1527798 0.1518708
 0.1506567 0.1491598 0.1474449 0.14561 0.1437867 0.1421121 0.1406753 0.1395009 0.1385779 0.1378735
 0.1373274 0.1368792 0.1365151 0.1362738 0.1362033 0.136299 0.1364629 0.1365502 0.1365001 0.1364116
 0.1364643 0.136774 0.1373251 0.138001 0.1386617 0.1392199 0.1396558 0.1399722 0.1401703 0.1402673
 0.1402916 0.1402516 0.1401389 0.1399527 0.139698 0.1393785 0.1389999 0.1385583 0.1380362 0.1374306
 0.1367589 0.1360225 0.1352053 0.134302 0.1332981 0.1321615 0.130936 0.1298209 0.1290828 0.1288885
 0.129224 0.1299238 0.130784 0.131685 0.132557 0.1332229 0.1334579 0.1333491 0.1334623 0.1344297
 0.1363416 0.1386427 0.1406255 0.1419267 0.1425458 0.1425767 0.1420829 0.1411267 0.1397295 0.1378425
 0.1354654 0.132725 0.1297803 0.1267722 0.1238802 0.1212801 0.1190555 0.1172289 0.1158036 0.1148142
 0.1143799 0.1141527 0.1123556 0.1067059 0.097931 0.09135133 0.09240602 0.1005279 0.1095325 0.1141579
 0.114259 0.1126397 0.111239 0.1103564 0.1098911 0.1099587 0.1106603 0.111859 0.1132016 0.114321
 0.1150587 0.1154254 0.1153485 0.1144884 0.1121942 0.1077066 0.1007754 0.09222713 0.08369011 0.0766383
 0.07172349 0.06880237 0.06727722 0.06645423 0.06588571 0.06555183 0.06573152 0.06668878 0.06846337 0.07091357
 0.07385652 0.07705471 0.080127 0.08269332 0.08466375 0.08622895 0.08753681 0.08852383 0.08906296 0.08912608
 0.0887877 0.08817681 0.0874349 0.08664761 0.08578929 0.08476663 0.0835728 0.08241086 0.08158384 0.08121213
 0.08113882 0.08114617 0.08114952 0.08114846 0.08113171 0.08109101 0.08104526 0.08103709 0.08114614 0.08144911
 0.08191502 0.08239627 0.08275187 0.0829435 0.08301817 0.0830076 0.08282465 0.08233546 0.08161786 0.08099429
 0.08062202 0.08020717 0.07937904 0.07824755 0.07734296 0.07705067 0.0772863 0.07767949 0.07790765 0.0778625
 0.07766238 0.07758388 0.07786542 0.07843665</values></Ydata></ScSm><ScRf><Ydata ylabel="Single channel"><values byteorder="INTEL" format="FLOAT32" numvalues="1820"> 0.0605329 0.06068099 0.06077529 0.06081538 0.06082162 0.06083534 0.06090185 0.06103976 0.06122465 0.06140269
 0.06152714 0.06158867 0.06160489 0.06158651 0.0615403 0.06150596 0.06154984 0.06169914 0.0619 0.06205434
 0.06209754 0.0620547 0.06202763 0.06209642 0.06221065 0.06220233 0.06194372 0.06149421 0.06106174 0.06081029
 0.06075732 0.06089687 0.06130417 0.06193881 0.06241851 0.06228928 0.06159303 0.06090418 0.06069161 0.06086686
 0.06104377 0.06098398 0.06067764 0.06026738 0.06008793 0.06056788 0.06181015 0.06325366 0.0638761 0.06283504
 0.06006765 0.0564898 0.05366227 0.05295165 0.05456379 0.05726616 0.05931262 0.05983633 0.05926725 0.05845397
 0.05775686 0.0571482 0.05678628 0.05704591 0.05798995 0.05901954 0.05917909 0.05796492 0.0559274 0.05429284
 0.05385216 0.05445851 0.05567171 0.05723784 0.05842654 0.0576532 0.05403794 0.04937951 0.04735208 0.05001082
 0.05559762 0.0602674 0.06151026 0.0595412 0.05616835 0.05329566 0.05221827 0.05327243 0.05576735 0.05856656
 0.0607817 0.06180649 0.06116235 0.05891591 0.05608323 0.05413068 0.05407257 0.05607985 0.0594444 0.06263427
 0.06398985 0.06295608 0.06045347 0.05790222 0.05628574 0.05615722 0.05777636 0.06082803 0.06441382 0.06758185
 0.06971522 0.0705765 0.07035084 0.06953758 0.06857236 0.06775025 0.06749268 0.06808986 0.06900425 0.06907485
 0.06778672 0.06596673 0.06493528 0.06514341 0.06581313 0.06587936 0.06506415 0.06369628 0.06165516 0.05836973
 0.05412575 0.05039425 0.04835943 0.04802673 0.04911233 0.05150066 0.0541959 0.05525109 0.05389085 0.05187504
 0.05173996 0.05409673 0.05732199 0.05956659 0.06047455 0.06105804 0.06238402 0.06447261 0.06615584 0.06595068
 0.06352583 0.06053022 0.05942933 0.06108789 0.06394468 0.06594345 0.06670642 0.06730373 0.06838442 0.06916994
 0.06825948 0.06528655 0.06182218 0.06040881 0.06234286 0.06637498 0.06961414 0.06966388 0.06623558 0.06122668
 0.05724535 0.05580394 0.05690566 0.06003018 0.06471221 0.07002547 0.07434671 0.07625563 0.0755613 0.07323976
 0.07032363 0.06694358 0.06284241 0.05894776 0.0575795 0.06025267 0.06573027 0.0710531 0.0741815 0.07500896
 0.07420362 0.07194602 0.06813305 0.06362049 0.06062653 0.06100798 0.06402846 0.06678123 0.06723849 0.06609839
 0.06527697 0.06550136 0.06604579 0.06623794 0.06642228 0.06739751 0.0692957 0.07129259 0.07241224 0.07241155
 0.07182209 0.07132685 0.07113911 0.07084899 0.07001033 0.06904308 0.06917417 0.07108609 0.07396786 0.07634488
 0.07755274 0.07797189 0.07803906 0.07749144 0.07575107 0.07301132 0.07068573 0.07035697 0.07224038 0.07504795
 0.07732853 0.07851313 0.07877477 0.0784997 0.07802849 0.07754756 0.0771422 0.07702896 0.07750431 0.07851417
 0.07955448 0.08017205 0.08033346 0.08020292 0.07982461 0.07918722 0.07845001 0.07794156 0.07792355 0.07839353
 0.07913259 0.07990052 0.08051588 0.08081201 0.08069673 0.08028813 0.07984697 0.07953939 0.07937677 0.0793744
 0.07960448 0.08005202 0.08054711 0.08090645 0.08107807 0.08111476 0.08106703 0.08094624 0.0807661 0.08058932
 0.08052327 0.0806413 0.08089264 0.08113937 0.08132029 0.08151542 0.08178705 0.08202904 0.08207299 0.08190695
 0.08169695 0.08160491 0.08165513 0.08177005 0.0818615 0.08185522 0.08168359 0.08134277 0.08097337 0.08080803
 0.08098687 0.08145839 0.08206702 0.08266378 0.0831252 0.08337566 0.08344398 0.08343099 0.0833904 0.08329335
 0.08311979 0.08293836 0.08288138 0.08304848 0.08341966 0.08386035 0.08422406 0.08444279 0.08453224 0.08456805
 0.08465783 0.08485335 0.08506796 0.08515555 0.08509336 0.08501942 0.08506413 0.08519984 0.08528724 0.08524308
 0.08513426 0.08510533 0.08522844 0.08544362 0.08564408 0.08579357 0.08594541 0.08615337 0.08637422 0.0864795
 0.08638985 0.08618066 0.08600843 0.08594559 0.08595015 0.08598908 0.08610273 0.08631423 0.08654408 0.08667647
 0.08668971 0.086674 0.08671504 0.08679213 0.08680905 0.08670825 0.08653142 0.0863755 0.08631249 0.08634908
 0.0864369 0.08650734 0.08651084 0.08644244 0.08633575 0.08622976 0.08614325 0.08609045 0.08611331 0.08626253
 0.08651876 0.08675119 0.08679949 0.08661883 0.08633201 0.08612208 0.08607002 0.08609781 0.0860622 0.08589096
 0.08562838 0.08537034 0.08517791 0.08504867 0.08494757 0.08485433 0.08479092 0.08480873 0.0849313 0.08509573
 0.08517082 0.08506554 0.08481882 0.08456166 0.08439845 0.08434252 0.08434379 0.08434504 0.08432619 0.08432129
 0.08437415 0.08446178 0.084498 0.08443569 0.084328 0.08427152 0.08432625 0.08449355 0.08471531 0.08488292
 0.08490741 0.08480874 0.08469926 0.08466751 0.08471166 0.0847878 0.08487622 0.0849789 0.08508685 0.08518498
 0.08528318 0.08541905 0.0856216 0.08587626 0.08612791 0.08632018 0.08644222 0.0865439 0.08669998 0.08694901
 0.08726226 0.08757022 0.08782092 0.08801783 0.08820376 0.08840695 0.08861426 0.08880843 0.08901324 0.08927044
 0.08958112 0.08990259 0.09020193 0.09048326 0.090763 0.09104535 0.09132966 0.09162974 0.09197763 0.09239537
 0.09284854 0.09324247 0.09349646 0.09362516 0.09373105 0.09392178 0.09423719 0.09462462 0.09496635 0.09516826
 0.09525646 0.09536098 0.09557335 0.09585167 0.09610304 0.09632756 0.09662184 0.09704237 0.09751539 0.09790321
 0.09813881 0.09827851 0.09842786 0.0986277 0.09882219 0.09894231 0.0990006 0.0990748 0.09920929 0.09938258
 0.09958197 0.09985152 0.1002255 0.1006532 0.1010366 0.1013243 0.1015323 0.1016936 0.1018219 0.101913
 0.101957 0.1019614 0.1019705 0.1020341 0.1021436 0.1022333 0.1022644 0.1022773 0.1023409 0.1024832
 0.1026955 0.1029665 0.1032745 0.103573 0.103834 0.1040986 0.1044328 0.1048202 0.1051436 0.1053074
 0.1053428 0.1053532 0.1053906 0.1054406 0.1055095 0.1056509 0.1058972 0.1062154 0.1065519 0.1068869
 0.1072276 0.1075718 0.1078868 0.1081193 0.108229 0.1082278 0.1081851 0.1081865 0.108289 0.1085036
 0.1087991 0.1091187 0.1094066 0.1096236 0.1097398 0.109743 0.109678 0.1096523 0.1097506 0.1099395
 0.1100856 0.1100709 0.1098672 0.1095028 0.1090011 0.1083798 0.1076896 0.1070202 0.1064615 0.1060649
 0.1058481 0.1058284 0.106036 0.1064791 0.1071003 0.107788 0.1084325 0.1089508 0.1092594 0.1092711
 0.108956 0.1083862 0.1076917 0.1069808 0.1063105 0.1056953 0.1051143 0.1045416 0.1040161 0.1036787
 0.1037148 0.1042497 0.1052826 0.106682 0.108226 0.1096813 0.110899 0.1118663 0.1126665 0.1133881
 0.1140695 0.1147224 0.1153689 0.1160237 0.1166543 0.1172051 0.1176662 0.1180839 0.1184992 0.1189049
 0.1192646 0.1195517 0.1197731 0.1199686 0.1201719 0.1203594 0.1204626 0.1204472 0.1203545 0.1202455
 0.1201329 0.1199797 0.1197384 0.1193847 0.1189493 0.1185469 0.1183615 0.1185679 0.1192334 0.120277
 0.1215289 0.1228359 0.1241053 0.1252604 0.1262075 0.126886 0.1273288 0.1276378 0.1279083 0.1281901
 0.1284962 0.128818 0.1291367 0.1294373 0.1297186 0.1299943 0.1302853 0.1306022 0.1309264 0.1312193
 0.1314635 0.1316917 0.1319632 0.1323089 0.1326988 0.1330706 0.133395 0.1337012 0.1340236 0.1343402
 0.134596 0.1347801 0.1349456 0.1351569 0.1354428 0.1357932 0.1361651 0.1364939 0.1367356 0.1369056
 0.1370603 0.1372437 0.1374627 0.1377056 0.1379592 0.1382121 0.1384595 0.1387132 0.1389963 0.1393134
 0.1396284 0.1398841 0.1400558 0.140179 0.1403165 0.1405027 0.1407239 0.1409453 0.1411502 0.1413573
 0.1416022 0.1418959 0.1422021 0.1424643 0.1426552 0.142796 0.1429296 0.1430844 0.1432646 0.1434625
 0.1436704 0.1438807 0.144086 0.144286 0.1444908 0.1447089 0.1449353 0.1451576 0.145371 0.1455818
 0.1457965 0.1460149 0.1462355 0.1464667 0.1467226 0.1470027 0.1472803 0.1475215 0.1477129 0.1478677
 0.148007 0.1481463 0.1482959 0.148461 0.1486412 0.1488332 0.1490335 0.1492381 0.1494428 0.1496461
 0.1498487 0.1500515 0.1502562 0.1504659 0.1506837 0.1509104 0.1511432 0.1513751 0.1515969 0.151803
 0.1519953 0.1521836 0.1523781 0.1525795 0.1527759 0.1529566 0.1531268 0.1533037 0.1534975 0.1537037
 0.1539106 0.154109 0.1542976 0.1544816 0.1546682 0.15486 0.1550538 0.1552454 0.155435 0.1556279
 0.1558284 0.1560335 0.1562348 0.1564292 0.1566222 0.1568184 0.1570148 0.1572089 0.1574057 0.1576122
 0.1578263 0.1580357 0.1582294 0.158409 0.1585881 0.158779 0.1589823 0.159191 0.159397 0.1595955
 0.1597891 0.1599873 0.1601951 0.1604054 0.1606092 0.1608081 0.1610116 0.1612251 0.161446 0.1616673
 0.1618832 0.1620944 0.1623065 0.1625224 0.1627391 0.1629535 0.1631646 0.163372 0.1635745 0.1637696
 0.1639529 0.1641244 0.1642923 0.1644662 0.1646472 0.1648287 0.1650048 0.1651765 0.1653521 0.1655411
 0.1657421 0.165944 0.166142 0.1663415 0.1665432 0.1667398 0.166931 0.1671289 0.1673439 0.1675736
 0.1678047 0.1680217 0.1682195 0.1684079 0.1686006 0.1688039 0.1690175 0.1692372 0.1694545 0.1696623
 0.169863 0.1700637 0.1702684 0.1704793 0.1706969 0.1709159 0.1711306 0.1713402 0.1715446 0.1717415
 0.1719339 0.1721281 0.1723256 0.1725269 0.172736 0.1729529 0.1731707 0.1733886 0.1736104 0.1738316
 0.1740447 0.1742521 0.1744606 0.1746722 0.1748894 0.1751132 0.1753369 0.1755543 0.1757696 0.1759852
 0.1761963 0.1764027 0.1766036 0.1767818 0.176896 0.1768437 0.1763531 0.17487 0.1715464 0.1654127
 0.1557618 0.1425908 0.1267589 0.1096867 0.09283054 0.07729867 0.06374162 0.05244014 0.04344969 0.0366946
 0.03202589 0.02930957 0.02852153 0.02985869 0.03386499 0.04110861 0.05094508 0.06042104 0.06542355 0.06392963
 0.05794098 0.05165809 0.0479885 0.04714408 0.04789551 0.04919278 0.05069501 0.05257679 0.05515641 0.05853088
 0.06255221 0.06721981 0.07287405 0.07976444 0.08753223 0.09535995 0.1026707 0.1095753 0.1165985 0.1240372
 0.1316416 0.1388591 0.1452783 0.1508324 0.1557011 0.1601134 0.1642233 0.1681062 0.171809 0.1753381
 0.1785692 0.1812155 0.1829721 0.1837479 0.183771 0.1834581 0.1831671 0.1830586 0.1831458 0.1834045
 0.1838139 0.1843504 0.1849943 0.1857339 0.1865471 0.1873939 0.1882352 0.1890462 0.1898142 0.1905351
 0.1912077 0.1918276 0.1923911 0.1929033 0.1933726 0.1938045 0.194205 0.1945818 0.1949389 0.1952785
 0.1956052 0.1959191 0.1962116 0.1964773 0.1967221 0.1969543 0.1971761 0.1973892 0.1975994 0.197814
 0.1980368 0.1982648 0.1984884 0.1987011 0.1989053 0.1991064 0.1993044 0.1994975 0.1996859 0.1998697
 0.2000509 0.200237 0.2004329 0.2006318 0.2008231 0.201007 0.2011921 0.2013836 0.20158 0.2017797
 0.2019827 0.2021884 0.2023908 0.2025815 0.2027611 0.2029452 0.2031506 0.2033763 0.2036074 0.2038321
 0.2040478 0.204256 0.2044606 0.2046654 0.2048643 0.2050425 0.2051943 0.2053374 0.2055061 0.2057225
 0.2059741 0.2062213 0.2064353 0.2066217 0.2068033 0.2069951 0.2071972 0.207399 0.2075888 0.2077719
 0.2079732 0.208206 0.2084533 0.2086932 0.2089244 0.2091545 0.2093867 0.209625 0.2098671 0.2100866
 0.2102531 0.2103809 0.2105391 0.2107967 0.2111525 0.2115262 0.2118309 0.2120518 0.2122416 0.2124588
 0.2127284 0.2130223 0.2132459 0.2133044 0.2132408 0.2132562 0.2135248 0.2140222 0.2145766 0.2150463
 0.2154031 0.2156876 0.2159374 0.2161517 0.216296 0.2163436 0.216336 0.2164029 0.216677 0.2171565
 0.2176893 0.2181234 0.2184289 0.2186519 0.2188326 0.2189955 0.219115 0.2190659 0.2187529 0.2183518
 0.2182719 0.2187616 0.21963 0.2204533 0.2209949 0.2213287 0.2216068 0.221866 0.2220713 0.2221474
 0.2218821 0.2210495 0.2198554 0.2190641 0.2193695 0.2206957 0.2223188 0.2235864 0.2243295 0.2247081
 0.2249309 0.225116 0.2252064 0.224974 0.224279 0.2234189 0.2230595 0.2236198 0.2247932 0.2258678
 0.226454 0.2266957 0.2268862 0.2271427 0.2273301 0.2270271 0.2257647 0.2237157 0.2220421 0.2220749
 0.224008 0.2266647 0.2286679 0.229625 0.2300052 0.2301165 0.2296507 0.228234 0.2259839 0.2234441
 0.221425 0.2209206 0.2224522 0.2252197 0.2275488 0.2285484 0.2288608 0.2295742 0.2309157 0.2322526
 0.2329241 0.2327547 0.2319431 0.2306993 0.2291456 0.2276659 0.2271093 0.2281835 0.2305942 0.2331556
 0.2348882 0.2357602 0.2361656 0.2357712 0.2332895 0.2280316 0.2218378 0.218555 0.2206336 0.2265636
 0.2324982 0.2360346 0.2375185 0.2382285 0.2386706 0.2384466 0.2364686 0.2315322 0.2241982 0.2180105
 0.2171038 0.2221 0.2294045 0.2345822 0.2353984 0.2320389 0.2262863 0.2209902 0.2189138 0.2210567
 0.2262166 0.2321786 0.2370469 0.2397662 0.2401062 0.2385468 0.2362327 0.2347012 0.2347736 0.235328
 0.2341459 0.2307204 0.2271085 0.2248968 0.2227187 0.2187586 0.2147599 0.2148671 0.2202637 0.2272124
 0.2312673 0.2317755 0.2310475 0.2301065 0.2268814 0.2191619 0.2087948 0.2017284 0.2028169 0.21079
 0.2193997 0.2235475 0.2233275 0.2221529 0.2221986 0.222194 0.2192182 0.2125281 0.2054617 0.2026205
 0.2049477 0.2088707 0.2104985 0.2087012 0.2036875 0.1957632 0.1876196 0.1851071 0.1922652 0.2063435
 0.2199853 0.2272918 0.2259179 0.2156776 0.1994166 0.1848267 0.1806892 0.188965 0.2023964 0.2112047
 0.2108254 0.2026323 0.1897712 0.1750927 0.1625505 0.157488 0.1633952 0.1784285 0.195506 0.2057669
 0.2034081 0.1902437 0.1762351 0.1722937 0.180262 0.1916229 0.1970727 0.1949922 0.190008 0.1870633
 0.1886024 0.1942108 0.2010269 0.2064086 0.2100261 0.2107872 0.2039564 0.186842 0.1663158 0.1543066
 0.1554073 0.1644509 0.1760597 0.1895047 0.2025971 0.2083248 0.2027682 0.1925682 0.189323 0.1972714
 0.2096464 0.2169714 0.2164528 0.212517 0.209933 0.2087096 0.2064939 0.2041035 0.2056976 0.2130684
 0.2225297 0.2290276 0.2313793 0.2318332 0.2322385 0.2326387 0.2325542 0.2318193 0.2304987 0.2290009
 0.2279621 0.2275266 0.2272127 0.226651 0.2255406 0.222485 0.2153011 0.2040851 0.1931719 0.1877086
 0.1881912 0.1908005 0.1930658 0.1952944 0.1952837 0.1868614 0.1680504 0.147733 0.1391888 0.1472681
 0.1647777 0.1806571 0.1884543 0.1868747 0.1764375 0.1596254 0.1435322 0.1377001 0.14636 0.1643543
 0.1826242 0.1960181 0.2039662 0.2061851 0.2016397 0.1915756 0.1808152 0.1750314 0.17725 0.1864766
 0.1980811 0.2050636 0.2014439 0.1881467 0.1756655 0.1763933 0.1916569 0.209571 0.2184003 0.2184757
 0.2175834 0.2188639 0.219169 0.2174556 0.2182567 0.2254033 0.2363568 0.2447075 0.2458112 0.238627
 0.2251429 0.2108803 0.2034741 0.2065165 0.2154133 0.2223392 0.2238024 0.2201881 0.2111365 0.1975178
 0.1863744 0.1866781 0.1989322 0.2139941 0.2234614 0.227316 0.2301247 0.2331812 0.23296 0.2264936
 0.2163702 0.209155 0.2088954 0.2135605 0.2184454 0.2211357 0.2215225 0.2189642 0.2126912 0.2050057
 0.2013107 0.2053847 0.2154335 0.2257524 0.2318205 0.2331103 0.2317057 0.2296127 0.2274366 0.2245755
 0.2205483 0.216705 0.2159689 0.2197215 0.2256044 0.22994 0.231945 0.2339986 0.2379081 0.2424269
 0.2447803 0.2436963 0.2406041 0.2383712 0.2389965 0.2420338 0.2449337 0.2452188 0.2428377 0.2404365
 0.2409247 0.2447006 0.2495906 0.2533247 0.2553866 0.2565467 0.2575327 0.2583947 0.258475 0.2569093
 0.2538559 0.2512127 0.2512677 0.2544233 0.2588071 0.2622067 0.2638575 0.2643057 0.2641808 0.2635491
 0.2622738 0.2606005 0.2591827 0.2585695 0.2588057 0.2595466 0.2604173 0.2611924 0.2617794 0.2621809
 0.2624537 0.2626417 0.2627637 0.2628563 0.2629528 0.2630102 0.2629515 0.2628164 0.2627813 0.2629676
 0.2632891 0.2635436 0.2635924 0.2633788 0.2628381 0.2619138 0.2606622 0.2592295 0.2576879 0.2559958
 0.2542249 0.252793 0.2523331 0.2532256 0.2552473 0.2577039 0.2598976 0.2614772 0.2624406 0.2629437
 0.263157 0.2632199 0.2632204 0.2631774 0.2630606 0.2628443 0.2625402 0.2621799 0.2617876 0.2613843
 0.2610049 0.2606868 0.2604332 0.2601954 0.2598989 0.2594923 0.2589816 0.2584216 0.257867 0.2573189
 0.2567182 0.2559958 0.2551318 0.254174 0.2532116 0.2523258 0.2515397 0.2508067 0.2500579 0.2492532
 0.2483717 0.2473767 0.2462451 0.2450473 0.2439429 0.2430557 0.242368 0.2417558 0.2410996 0.2403402
 0.2394654 0.2384942 0.2374673 0.2364191 0.2353504 0.23424 0.2330689 0.2318217 0.2304804 0.2290355
 0.2274981 0.2258977 0.2242731 0.2226543 0.221027 0.2193079 0.2173608 0.2150401 0.2122271 0.2088498
 0.2048991 0.2004442 0.1956345 0.190674 0.1857681 0.1810812 0.1767378 0.1728464 0.1695028 0.1667722
 0.164688 0.1632752 0.1625687 0.162599 0.1633583 0.1647851 0.1667827 0.1692429 0.1720413 0.1750205
 0.1780022 0.1808275 0.1834051 0.185742 0.1879195 0.1900075 0.1919928 0.1938067 0.1954062 0.1967997
 0.1980045 0.1990213 0.1998533 0.2005269 0.2010835 0.2015574 0.2019647 0.2023105 0.2026033 0.202856
 0.2030786 0.2032793 0.2034717 0.2036723 0.2038932 0.2041406 0.204419 0.204735 0.2051039 0.2055432
 0.2060524 0.2066044 0.2071697 0.2077411 0.208334 0.2089763 0.2097039 0.2105531 0.2115458 0.2126818
 0.2139406 0.2152845 0.2166572 0.2179846 0.2191858 0.2201922 0.2209639 0.2214909 0.2217852 0.2218744
 0.2217961 0.2215868 0.2212761 0.2208852 0.2204258 0.2199031 0.2193274 0.2187194 0.2180949 0.2174509
 0.2167746 0.2160682 0.2153564 0.2146672 0.2140076 0.2133647 0.212728 0.2121029 0.2115012 0.2109257
 0.2103688 0.2098186 0.2092653 0.2087035 0.2081305 0.2075363 0.2068966 0.2061789 0.2053621 0.2044449
 0.2034369 0.2023407 0.2011499 0.1998622 0.1984883 0.1970446 0.1955404 0.1939736 0.1923382 0.1906292
 0.1888368 0.1869444 0.1849518 0.1829062 0.1808986 0.1790128 0.1772817 0.1756884 0.1742007 0.1727997
 0.1714831 0.1702441 0.1690589 0.1679054 0.1667879 0.1657295 0.1647421 0.1638193 0.1629535 0.1621499
 0.1614237 0.1607876 0.1602405 0.1597672 0.1593489 0.1589753 0.1586568 0.1584334 0.158348 0.1583931
 0.1584958 0.158566 0.1585517 0.1584545 0.1583135 0.1581771 0.1580745 0.1580108 0.1579737 0.1579235
 0.157785 0.1574743 0.1569268 0.1560912 0.154929 0.1534412 0.1516888 0.14979 0.1479048 0.1461915
 0.144745 0.1435884 0.1427095 0.1420676 0.1415826 0.1411779 0.1408435 0.1406363 0.14062 0.1407926
 0.1410466 0.1412275 0.1412798 0.1413106 0.1414843 0.1418906 0.1425144 0.1432678 0.1440311 0.1447082
 0.145253 0.1456445 0.145878 0.1459861 0.1460143 0.1459725 0.1458521 0.1456656 0.1454322 0.1451528
 0.1448181 0.1444111 0.1439104 0.1433143 0.1426387 0.1418865 0.1410616 0.1401814 0.1392205 0.1381095
 0.1368786 0.1357468 0.1350012 0.1348222 0.1352131 0.1360167 0.1370167 0.13808 0.1391327 0.1399837
 0.1403807 0.1403924 0.1405929 0.141646 0.1436729 0.146113 0.148223 0.1496251 0.1503409 0.1504707
 0.1500474 0.1491069 0.147674 0.1457114 0.1432289 0.140362 0.1372705 0.1340998 0.1310555 0.1283376
 0.1260225 0.1241196 0.1226396 0.1216276 0.1212027 0.12099 0.1191082 0.1131404 0.1038699 0.09695688
 0.09816961 0.106883 0.1165138 0.1214682 0.1215918 0.1198763 0.1183995 0.1174776 0.1169906 0.117068
 0.1178364 0.1191532 0.1206277 0.1218511 0.1226456 0.1230419 0.1230021 0.1221692 0.1197988 0.1150283
 0.1075877 0.09839129 0.0892106 0.08163282 0.07634841 0.0732069 0.07159743 0.07079276 0.0702844 0.07002003
 0.07030143 0.07140914 0.07335645 0.07598536 0.07913841 0.082596 0.08595297 0.08878938 0.09098709 0.09272327
 0.0941429 0.09517802 0.0956976 0.09570128 0.09532313 0.09472236 0.09400885 0.09322225 0.09232375 0.09123403
 0.08996893 0.08875029 0.08787996 0.08746552 0.08735278 0.0873366 0.08733175 0.08733476 0.08734086 0.08733205
 0.08729415 0.08725515 0.08731824 0.08758914 0.08804379 0.08852336 0.08887097 0.08904475 0.08910699 0.08909782
 0.08890774 0.08837347 0.08757094 0.08684155 0.08635424 0.08580862 0.08482296 0.08351752 0.08245994 0.08206071
 0.08221799 0.08253971 0.08272041 0.08267407 0.08249879 0.08243577 0.08272216 0.08331016 0.08380309 0.08382621
</values></Ydata></ScRf><Data_Parameters_AB><parameter name="DPF">1</parameter><parameter name="NPT">3497</parameter><parameter name="FXV">3996</parameter><parameter name="LXV">500</parameter><parameter name="CSF">1</parameter><parameter name="MXY">0.0454719625413418</parameter><parameter name="MNY">-0.0433812774717808</parameter><parameter name="DAT">27/05/2022</parameter><parameter name="TIM">11:53:32.306 (GMT+2)</parameter><parameter name="DXU">WN</parameter></Data_Parameters_AB><AB__Qtest><MainReport name="Quality Test Report"><Header><Line><Legend>Test result ok/not ok [1/0]: </Legend><Value>0</Value></Line><Line><Legend>Method file: </Legend><Value>C:\Users\Public\Documents\Bruker\OPUS_8.2.28\QT\IRBT_v3_default.QT</Value></Line></Header><Matrix><Line><Legend></Legend><Legend>min</Legend><Legend>max</Legend><Legend>measured</Legend></Line><Line><Value>Absorption (X-Range 1):</Value><Value>0.400000</Value><Value>2.000000</Value><Value>0.071362</Value></Line><Line><Value>Noise (X-Range 4):</Value><Value></Value><Value>0.000300</Value><Value>0.000039</Value></Line><Line><Value>Signal/Noise (X-Range 2):</Value><Value>200.000000</Value><Value></Value><Value>40.713418</Value></Line><Line><Value>Signal/Noise (X-Range 3):</Value><Value>40.000000</Value><Value></Value><Value>24.648778</Value></Line><Line><Value>Water vapour (X-Range 5):</Value><Value></Value><Value>0.000300</Value><Value>0.000017</Value></Line><Line><Value>Signal/Water (X-Range 2):</Value><Value>100.000000</Value><Value></Value><Value>91.712307</Value></Line><Line><Value>Signal/Water (X-Range 3):</Value><Value>20.000000</Value><Value></Value><Value>55.524602</Value></Line><Line><Value>Fringes (X-Range 6):</Value><Value></Value><Value>0.000100</Value><Value>0.000048</Value></Line></Matrix></MainReport></AB__Qtest><Data_Parameters_ScSm><parameter name="DPF">1</parameter><parameter name="NPT">1814</parameter><parameter name="FXV">3996.33169228125</parameter><parameter name="LXV">499.541461535156</parameter><parameter name="CSF">1</parameter><parameter name="MXY">0.262424498796463</parameter><parameter name="MNY">0.031499445438385</parameter><parameter name="DAT">27/05/2022</parameter><parameter name="TIM">11:53:32.306 (GMT+2)</parameter><parameter name="DXU">WN</parameter></Data_Parameters_ScSm><Data_Parameters_ScRf><parameter name="DPF">1</parameter><parameter name="NPT">1820</parameter><parameter name="FXV">4004.04661832813</parameter><parameter name="LXV">495.683998511719</parameter><parameter name="CSF">1</parameter><parameter name="MXY">0.264305710792542</parameter><parameter name="MNY">0.0285215321928263</parameter><parameter name="DAT">27/05/2022</parameter><parameter name="TIM">11:53:06.457 (GMT+2)</parameter><parameter name="DXU">WN</parameter></Data_Parameters_ScRf><Optic_Parameters_Rf><parameter name="APR">0</parameter><parameter name="APT">Open</parameter><parameter name="BMS">KBr</parameter><parameter name="DTC">RT-DLaTGS_IR-Biotyper [Microplate reader]</parameter><parameter name="HPF">0</parameter><parameter name="LPF">10.0</parameter><parameter name="LPV">4000</parameter><parameter name="PGR">0</parameter><parameter name="RCH">Module port</parameter><parameter name="RDX">0</parameter><parameter name="SRC">MIR</parameter><parameter name="VEL">10.0</parameter><parameter name="SON">Off</parameter></Optic_Parameters_Rf><Acquisition_Parameters_Rf><parameter name="ADT">1</parameter><parameter name="AQM">DD</parameter><parameter name="CFE">0</parameter><parameter name="COR">0</parameter><parameter name="DEL">0</parameter><parameter name="DLY">0</parameter><parameter name="HFW">8000</parameter><parameter name="LFW">0</parameter><parameter name="NSR">32</parameter><parameter name="PLF">AB</parameter><parameter name="RES">6</parameter><parameter name="RGN">-1</parameter><parameter name="STR">0</parameter><parameter name="TCL">MakeCompatibleScalar (0, {WSV=1.000000, ARV=0});</parameter><parameter name="TDL">37</parameter><parameter name="RPO">0</parameter></Acquisition_Parameters_Rf><FT_-_Parameters_Rf><parameter name="APF">B3</parameter><parameter name="HFQ">500</parameter><parameter name="LFQ">4000</parameter><parameter name="NLI">0</parameter><parameter name="PHR">24</parameter><parameter name="PHZ">ML</parameter><parameter name="SPZ">NO</parameter><parameter name="ZFF">1</parameter></FT_-_Parameters_Rf><Optic_Parameters_><parameter name="APR">0</parameter><parameter name="APT">Open</parameter><parameter name="BMS">KBr</parameter><parameter name="CHN">Module port</parameter><parameter name="DTC">RT-DLaTGS_IR-Biotyper [Microplate reader]</parameter><parameter name="HPF">0</parameter><parameter name="LPF">10.0</parameter><parameter name="LPV">4000</parameter><parameter name="PGN">0</parameter><parameter name="RDX">0</parameter><parameter name="SRC">MIR</parameter><parameter name="VEL">10.0</parameter><parameter name="SON">Off</parameter></Optic_Parameters_><FT_-_Parameters_><parameter name="APF">B3</parameter><parameter name="HFQ">500</parameter><parameter name="LFQ">4000</parameter><parameter name="NLI">0</parameter><parameter name="PHR">24</parameter><parameter name="PHZ">ML</parameter><parameter name="SPZ">NO</parameter><parameter name="ZFF">1</parameter></FT_-_Parameters_><Acquisition_Parameters_><parameter name="ADT">1</parameter><parameter name="AQM">DD</parameter><parameter name="CFE">0</parameter><parameter name="COR">0</parameter><parameter name="DEL">0</parameter><parameter name="DLY">0</parameter><parameter name="HFW">8000</parameter><parameter name="LFW">0</parameter><parameter name="NSS">32</parameter><parameter name="PLF">AB</parameter><parameter name="RES">6</parameter><parameter name="SOT">0</parameter><parameter name="TCL">MakeCompatibleScalar (0, {WSV=1.000000, ARV=0});</parameter><parameter name="TDL">37</parameter><parameter name="SPO">0</parameter><parameter name="SGN">-1</parameter></Acquisition_Parameters_><Instrument_Parameters_Rf><parameter name="HFL">15800.168544</parameter><parameter name="LFL">0</parameter><parameter name="LWN">15800.168544</parameter><parameter name="ABP">32197</parameter><parameter name="SSP">1</parameter><parameter name="ARG">2</parameter><parameter name="ASG">2</parameter><parameter name="ASS">32</parameter><parameter name="GFW">16</parameter><parameter name="GBW">16</parameter><parameter name="BFW">0</parameter><parameter name="BBW">0</parameter><parameter name="PKA">7265</parameter><parameter name="PKL">4996</parameter><parameter name="PRA">7447</parameter><parameter name="PRL">5001</parameter><parameter name="P2A">1</parameter><parameter name="P2L">1</parameter><parameter name="P2R">1</parameter><parameter name="P2K">1</parameter><parameter name="DAQ">0</parameter><parameter name="AG2">1</parameter><parameter name="SSM">1</parameter><parameter name="RSN">24904</parameter><parameter name="CRR">0</parameter><parameter name="SRT">1653652386.457</parameter><parameter name="DUR">19.635986328125</parameter><parameter name="TSC">27.8</parameter><parameter name="MVD">0.297818750143051</parameter><parameter name="AN1">0.225795475716479</parameter><parameter name="AN2">0</parameter><parameter name="VSN">2.485 Apr  4 2017</parameter><parameter name="SRN">0085</parameter><parameter name="CAM">0</parameter><parameter name="INS">IR-Biotyper</parameter><parameter name="FOC">69</parameter><parameter name="RDY">1</parameter><parameter name="ARS">32</parameter></Instrument_Parameters_Rf><Sample_Parameters_><parameter name="BLD"></parameter><parameter name="CNM">Admin</parameter><parameter name="CPY"></parameter><parameter name="DPM"></parameter><parameter name="EXP">IRBT_v3_32Scans.XPM</parameter><parameter name="LCT"></parameter><parameter name="SFM">Microplate, HTS-XT</parameter><parameter name="SNM">220527-1039(v.2)_CLA33F (D_5)_D7_9cfed6ff-299b-4ded-85a1-1d11c6247d23.0</parameter><parameter name="XPP">C:\Users\Public\Documents\Bruker\OPUS_8.2.28\XPM</parameter><parameter name="IST">OK</parameter><parameter name="CPG">1252</parameter><parameter name="UID">64b1f5bc-73af-4f67-be76-95a6a9ff7a74</parameter></Sample_Parameters_><Instrument_Parameters_><parameter name="HFL">15800.168544</parameter><parameter name="LFL">0</parameter><parameter name="LWN">15800.168544</parameter><parameter name="ABP">32197</parameter><parameter name="SSP">1</parameter><parameter name="ASG">2</parameter><parameter name="ARG">2</parameter><parameter name="ASS">32</parameter><parameter name="GFW">16</parameter><parameter name="GBW">16</parameter><parameter name="BFW">0</parameter><parameter name="BBW">0</parameter><parameter name="PKA">7427</parameter><parameter name="PKL">4988</parameter><parameter name="PRA">7670</parameter><parameter name="PRL">4993</parameter><parameter name="P2A">1</parameter><parameter name="P2L">1</parameter><parameter name="P2R">1</parameter><parameter name="P2K">1</parameter><parameter name="DAQ">0</parameter><parameter name="AG2">1</parameter><parameter name="SSM">1</parameter><parameter name="RSN">13078</parameter><parameter name="CRR">0</parameter><parameter name="SRT">1653652412.307</parameter><parameter name="DUR">19.635986328125</parameter><parameter name="TSC">27.8</parameter><parameter name="MVD">0.368460327386856</parameter><parameter name="AN1">0.225804343241788</parameter><parameter name="AN2">0</parameter><parameter name="VSN">2.485 Apr  4 2017</parameter><parameter name="SRN">0085</parameter><parameter name="CAM">0</parameter><parameter name="INS">IR-Biotyper</parameter><parameter name="FOC">69</parameter><parameter name="RDY">1</parameter></Instrument_Parameters_><History/></OPUSDataFile>
