<?xml version="1.0" encoding="UTF-8" ?>
<OPUSDataFile><AB><Ydata ylabel="Absorbance Units"><values byteorder="INTEL" format="FLOAT32" numvalues="3497"> 0.01883466 0.01875186 0.01867376 0.01859843 0.01855583 0.01854746 0.01857865 0.01864761 0.01873375 0.01883375
 0.01891743 0.01898444 0.01901587 0.01901715 0.01899006 0.01894329 0.01889133 0.01884061 0.01880474 0.01878378
 0.01878399 0.01879713 0.01882267 0.01884562 0.01886098 0.01885629 0.0188258 0.01877315 0.01869628 0.01861465
 0.01852966 0.01845963 0.01840563 0.01836947 0.01835046 0.01833924 0.01833571 0.0183344 0.01833653 0.01834452
 0.01835715 0.01837443 0.01839075 0.0183972 0.01838925 0.01835558 0.01830292 0.01822876 0.0181533 0.0180853
 0.01804389 0.01804093 0.01807376 0.01814821 0.0182345 0.01833006 0.01840184 0.0184453 0.01845494 0.01843018
 0.01839378 0.01834678 0.01831055 0.0182819 0.01825294 0.018219 0.0181563 0.01806931 0.01795388 0.0178233
 0.01769773 0.01758622 0.01750898 0.01746347 0.017455 0.0174767 0.01752658 0.01759832 0.01769156 0.01779172
 0.01789844 0.01798314 0.01804251 0.0180466 0.01799172 0.01786344 0.01766067 0.01739641 0.01707454 0.01674753
 0.01642555 0.01619925 0.01607175 0.0161152 0.01629844 0.01659051 0.01694333 0.01725758 0.01751952 0.01766733
 0.01772578 0.01768905 0.01760013 0.01747855 0.01736261 0.01727395 0.01722008 0.01721059 0.01722343 0.0172567
 0.01729022 0.01732092 0.01734887 0.01737392 0.01739851 0.01742114 0.0174205 0.01739386 0.01730998 0.01717453
 0.01698635 0.01676417 0.01655204 0.01636588 0.01626033 0.01621916 0.0162499 0.01631897 0.01639566 0.01647771
 0.01655481 0.0166342 0.01672718 0.01679086 0.01682185 0.01675609 0.01657578 0.01628741 0.01588007 0.01549511
 0.01513929 0.01505168 0.01522901 0.01567338 0.01634072 0.01693062 0.01744556 0.01773162 0.01782988 0.01776666
 0.01757173 0.0173017 0.01698735 0.01668045 0.01641817 0.01625204 0.01618685 0.01625472 0.01639061 0.01658178
 0.01675644 0.016886 0.01697049 0.01700243 0.01701683 0.01701807 0.01701061 0.01699514 0.01695311 0.01688503
 0.01679487 0.0166873 0.01659529 0.0165212 0.01649301 0.01650649 0.01656583 0.01666451 0.01679733 0.01694842
 0.01710215 0.01723108 0.01730612 0.01731489 0.01723552 0.01709101 0.01687895 0.01664723 0.01640585 0.01619834
 0.01603438 0.0159339 0.01590057 0.0159381 0.01604712 0.01621474 0.0164387 0.01668101 0.01693867 0.01717239
 0.01738305 0.01755298 0.01768491 0.01777652 0.01783083 0.01785097 0.01784201 0.01780997 0.01776218 0.01770513
 0.0176485 0.01759717 0.01756589 0.01756214 0.01759252 0.0176659 0.01775331 0.01785497 0.01791841 0.01793647
 0.0178925 0.01778432 0.01765286 0.0175015 0.01739294 0.01732606 0.01732854 0.01738722 0.01746617 0.01755263
 0.01759119 0.0175882 0.01752586 0.01742419 0.01730309 0.01717021 0.01704543 0.01690832 0.01675278 0.0165609
 0.0163145 0.01604587 0.01575235 0.01550378 0.01531403 0.01521485 0.01521354 0.01529441 0.01545651 0.01571495
 0.01606849 0.01650572 0.01701066 0.0174633 0.01785451 0.01807404 0.01814638 0.01807127 0.01789331 0.01769182
 0.01749612 0.01738886 0.01733646 0.01734377 0.01735851 0.01734064 0.01729595 0.01720886 0.01712939 0.01706662
 0.01706597 0.01714148 0.01728779 0.01751022 0.01774728 0.01799582 0.01818652 0.01831767 0.01835618 0.0183083
 0.01819516 0.01803485 0.01791099 0.01783668 0.01790561 0.01807912 0.01833837 0.01862599 0.01884619 0.01901234
 0.01909119 0.01914569 0.01920717 0.01930989 0.01948811 0.01970045 0.01994878 0.02016073 0.02031958 0.02040444
 0.02040555 0.02037957 0.0203283 0.02035868 0.02047369 0.02073477 0.02112488 0.02155056 0.02199208 0.02230867
 0.02251715 0.02258817 0.02255102 0.02244415 0.02229158 0.02213258 0.02199998 0.02193327 0.02195925 0.02211493
 0.02237497 0.02274238 0.02317187 0.02364572 0.02416576 0.02473154 0.02533701 0.02598577 0.02662106 0.02723937
 0.02779656 0.0282923 0.02872725 0.02910348 0.02943528 0.02972461 0.02998563 0.03022185 0.0304506 0.03067243
 0.0308942 0.03112091 0.03135087 0.03162078 0.031958 0.03240357 0.03301466 0.03372223 0.03452724 0.03530079
 0.0359923 0.03659501 0.03709169 0.0375514 0.03798133 0.03841997 0.03887135 0.0393214 0.03976842 0.0401735
 0.04053821 0.04084807 0.04112193 0.04142377 0.04178648 0.04235085 0.04309111 0.04405637 0.04512702 0.04615565
 0.04709126 0.04781058 0.04838704 0.04882289 0.04921432 0.04960709 0.05004326 0.05055265 0.05110473 0.05169987
 0.05229835 0.052892 0.0534942 0.05410442 0.0547711 0.05549514 0.05629034 0.05714849 0.05801233 0.05887394
 0.05966541 0.06039347 0.06104023 0.06161925 0.06214637 0.06263512 0.06310701 0.06357777 0.06407092 0.06458881
 0.06514454 0.06571766 0.0662984 0.06688827 0.06747631 0.0681171 0.06882142 0.06961755 0.07051993 0.07143457
 0.07235732 0.0731637 0.07385176 0.07441237 0.07485615 0.07526294 0.07563929 0.07605908 0.07651331 0.0770189
 0.07755483 0.07808688 0.07860577 0.07907464 0.07952295 0.07995407 0.0804285 0.08099105 0.08166032 0.08247538
 0.08335234 0.08428132 0.0851612 0.08596461 0.08667086 0.08726975 0.08780417 0.08827567 0.08874168 0.08920437
 0.08969846 0.09022177 0.0907719 0.09134642 0.09193116 0.09253082 0.09315275 0.09379907 0.09448435 0.09518945
 0.09589866 0.09658464 0.09721012 0.09777958 0.09827716 0.09874055 0.09918346 0.09962922 0.1000935 0.1005569
 0.1010197 0.1014523 0.1018478 0.1022198 0.1025675 0.1029452 0.1033552 0.1038339 0.1043764 0.1049587
 0.1055719 0.1061604 0.1067255 0.1072383 0.1077132 0.1081642 0.1086027 0.1090546 0.1095116 0.1099794
 0.1104344 0.1108609 0.11125 0.111586 0.1118986 0.1121892 0.1125048 0.1128568 0.1132649 0.1137358
 0.1142503 0.1148082 0.1153746 0.1159476 0.1164965 0.1170206 0.1175008 0.1179396 0.1183355 0.1186951
 0.1190346 0.119362 0.1197009 0.1200543 0.1204385 0.1208453 0.1212744 0.121713 0.1221497 0.1225857
 0.123016 0.1234561 0.1239129 0.1243815 0.1248665 0.1253309 0.1257691 0.1261647 0.1265139 0.1268631
 0.1272151 0.1276339 0.1281163 0.1286658 0.1292683 0.1298598 0.1304307 0.1309145 0.1313216 0.1316357
 0.1318831 0.1320932 0.1322859 0.132495 0.1327169 0.1329609 0.1332131 0.1334668 0.1337232 0.1339791
 0.1342476 0.1345318 0.1348349 0.1351588 0.1354949 0.1358432 0.1361914 0.1365389 0.1368716 0.1371904
 0.1374936 0.1377877 0.1381025 0.1384435 0.1388482 0.139304 0.1398093 0.1403363 0.1408439 0.1413161
 0.1417178 0.1420592 0.1423346 0.1425638 0.1427559 0.14292 0.143061 0.143182 0.1432827 0.143377
 0.1434653 0.1435733 0.1437028 0.1438725 0.1440827 0.1443311 0.1446165 0.1449271 0.1452631 0.1456196
 0.1459941 0.1463799 0.1467666 0.1471294 0.1474614 0.1477353 0.1479691 0.1481643 0.1483575 0.1485782
 0.1488349 0.1491502 0.1494764 0.1498065 0.150086 0.1502951 0.1504474 0.1505366 0.1506361 0.1507519
 0.1509222 0.1511468 0.1513748 0.1516008 0.1517508 0.1518322 0.1518381 0.1517881 0.1517402 0.1517055
 0.1517392 0.1518311 0.151994 0.152204 0.1524429 0.1526891 0.1529188 0.153132 0.1533157 0.1535023
 0.1536964 0.153938 0.1542416 0.1546 0.155021 0.1554306 0.1558247 0.1561216 0.1563182 0.1564025
 0.1563813 0.156316 0.1562125 0.1561344 0.1560775 0.1560599 0.1560793 0.1561368 0.1562406 0.1564072
 0.1566301 0.1569193 0.1572339 0.1575511 0.1578336 0.1580482 0.1582154 0.1583261 0.1584448 0.1585852
 0.1587836 0.1590523 0.15936 0.1597072 0.160027 0.1603161 0.1605237 0.1606514 0.1606917 0.1606535
 0.1605731 0.160465 0.1603922 0.1603645 0.1604389 0.1606026 0.1608712 0.1612003 0.161556 0.1618881
 0.1621449 0.1623204 0.1623868 0.1623983 0.1623618 0.1623445 0.1623643 0.1624506 0.1626113 0.1628455
 0.1631536 0.1635372 0.1639962 0.1645289 0.1651304 0.1657566 0.1663938 0.1669488 0.1674124 0.1676975
 0.1678245 0.1677808 0.167623 0.167424 0.1672411 0.1671699 0.1672094 0.1674068 0.1676829 0.1680221
 0.1683202 0.1685362 0.1686188 0.1685402 0.1683337 0.1679942 0.1676074 0.1671795 0.1667856 0.1664292
 0.1661384 0.1659116 0.1657433 0.1656314 0.1655644 0.1655396 0.1655454 0.1655738 0.1656058 0.1656265
 0.1656085 0.165532 0.165367 0.1650992 0.1647032 0.1641932 0.1635596 0.1628568 0.1620947 0.1613409
 0.1606127 0.1599493 0.1593611 0.1588489 0.158415 0.1580341 0.1577045 0.1573805 0.1570599 0.1566976
 0.1562986 0.1558627 0.155404 0.1549715 0.1545675 0.1542297 0.1539314 0.1536516 0.1533573 0.152998
 0.1525783 0.152073 0.1515367 0.1509834 0.1504818 0.1500618 0.149749 0.1495641 0.1494574 0.1494312
 0.149386 0.1493137 0.14914 0.1488614 0.1484827 0.1480093 0.1475042 0.1469723 0.1464729 0.146004
 0.1455912 0.1452298 0.1449235 0.1446647 0.144447 0.144255 0.144072 0.1438811 0.1436622 0.1434145
 0.143128 0.1428223 0.1425004 0.1421845 0.1418816 0.1415978 0.1413363 0.1410869 0.1408494 0.1406094
 0.140366 0.1401092 0.1398388 0.1395514 0.1392482 0.1389338 0.1386102 0.1382871 0.1379657 0.1376545
 0.1373525 0.1370621 0.1367816 0.1365101 0.1362461 0.1359882 0.1357343 0.1354839 0.135233 0.1349813
 0.1347224 0.1344555 0.1341721 0.1338705 0.1335482 0.133204 0.1328488 0.1324831 0.132123 0.1317683
 0.1314224 0.1310834 0.1307409 0.1303945 0.1300363 0.1296703 0.1293015 0.1289349 0.1285817 0.1282429
 0.1279244 0.1276232 0.1273374 0.1270682 0.1268128 0.1265848 0.1263887 0.1262333 0.1261279 0.1260402
 0.125972 0.125852 0.1256731 0.1253904 0.1250012 0.124541 0.1240159 0.1235127 0.1230345 0.1226461
 0.1223386 0.1221201 0.1219715 0.121857 0.1217541 0.1216096 0.1214149 0.1211312 0.1207873 0.1203843
 0.1199772 0.119598 0.119271 0.1190211 0.1188127 0.1186435 0.118472 0.1182862 0.1181031 0.1179208
 0.1177945 0.1177273 0.1177355 0.1178145 0.1179089 0.1180103 0.1180378 0.1179947 0.1178432 0.1176044
 0.1173056 0.1169714 0.1166577 0.1163654 0.1161239 0.1159047 0.115695 0.1154723 0.1152131 0.1149376
 0.1146431 0.1143721 0.1141379 0.1139492 0.1138129 0.1136994 0.113606 0.1135183 0.1134355 0.1133815
 0.1133572 0.1133811 0.1134481 0.1135363 0.1136393 0.1137198 0.1137803 0.1138066 0.1138072 0.1137908
 0.1137608 0.1137269 0.113681 0.1136231 0.1135341 0.1134048 0.1132172 0.1129586 0.1126384 0.1122492
 0.1118438 0.1114259 0.1110619 0.1107602 0.1105405 0.1104046 0.1103015 0.1102267 0.1101025 0.10993
 0.1096729 0.1093452 0.1089761 0.1085823 0.1082204 0.1078933 0.1076351 0.1074303 0.1072771 0.1071519
 0.1070366 0.1069131 0.1067645 0.1065915 0.1063857 0.1061739 0.1059589 0.1057746 0.1056302 0.1055209
 0.1054507 0.1053624 0.1052529 0.1050724 0.1048231 0.104528 0.104196 0.1038978 0.1036303 0.1034249
 0.1032617 0.1031053 0.1029473 0.1027485 0.1025338 0.1023127 0.1021203 0.1019916 0.1019346 0.1019669
 0.1020718 0.1022449 0.102481 0.1027751 0.1031427 0.103587 0.1041102 0.104716 0.1053591 0.1060374
 0.1066652 0.1072378 0.1076721 0.1079696 0.1080936 0.108056 0.1078778 0.1075765 0.1072042 0.1067752
 0.106337 0.1058964 0.10548 0.105089 0.1047328 0.10441 0.1041217 0.103867 0.103645 0.1034583
 0.1033069 0.1031946 0.1031215 0.1030919 0.1031048 0.1031787 0.1033143 0.1035572 0.1039098 0.1044208
 0.1050861 0.1059083 0.1068717 0.1079204 0.1090398 0.1101626 0.1112912 0.1123957 0.1134943 0.1145953
 0.1157185 0.116882 0.1181011 0.1193889 0.1207545 0.1222075 0.1237394 0.1253556 0.127017 0.128722
 0.130409 0.1320724 0.1336562 0.1351567 0.1365408 0.1378073 0.1389366 0.1399265 0.1407509 0.1414086
 0.1418737 0.142162 0.142286 0.142293 0.1422597 0.1422487 0.1423661 0.1426459 0.1431589 0.1438896
 0.1448517 0.1460114 0.1473561 0.1488728 0.150555 0.1524024 0.1544171 0.1565763 0.158881 0.1612745
 0.163754 0.1662386 0.168723 0.1711139 0.1734049 0.1755083 0.1774206 0.1790817 0.1804919 0.1816235
 0.1824735 0.1830278 0.183276 0.1832023 0.1827923 0.1820274 0.1809034 0.179406 0.1775602 0.1753608
 0.1728775 0.1701155 0.1671873 0.1641046 0.1610025 0.1578939 0.154901 0.1520324 0.1493588 0.1468803
 0.144602 0.1425183 0.140596 0.1388309 0.1371912 0.1356716 0.1342472 0.1329038 0.131607 0.1303419
 0.1290724 0.1278055 0.1265288 0.1252731 0.1240515 0.122892 0.1218102 0.1208147 0.1199105 0.1191014
 0.1183868 0.1177848 0.1172958 0.1169524 0.1167564 0.1167358 0.1168895 0.1172048 0.1176701 0.1182035
 0.1187869 0.1192998 0.1197416 0.1200374 0.1202258 0.1203285 0.1204134 0.1205677 0.1208546 0.1213589
 0.1221089 0.1231529 0.1244666 0.1260641 0.1278656 0.1298652 0.1319374 0.1340697 0.1361061 0.1380351
 0.1396757 0.1410169 0.141859 0.1421922 0.1418404 0.1408087 0.1390316 0.1365509 0.1334782 0.129895
 0.1260574 0.1220521 0.118153 0.1144017 0.110969 0.1078316 0.1050344 0.1025183 0.1002622 0.09821432
 0.0963484 0.09463514 0.09306225 0.09161236 0.09028148 0.08905429 0.0879293 0.08689009 0.0859357 0.08504622
 0.08422051 0.08343728 0.08269604 0.08198231 0.08129792 0.08064147 0.08001701 0.07943468 0.07889694 0.07841556
 0.07798404 0.077603 0.07725409 0.07692356 0.07659159 0.07623997 0.07586662 0.07546142 0.07504823 0.07462868
 0.07423746 0.07388211 0.07357921 0.07333402 0.07312641 0.072956 0.07278061 0.07259887 0.07238553 0.07214394
 0.07188687 0.07161848 0.07136554 0.07112351 0.07089593 0.07067172 0.07043018 0.07016889 0.06987191 0.06955356
 0.06921808 0.06888719 0.06857536 0.0682961 0.06806078 0.06786554 0.06771509 0.06758548 0.0674753 0.06735086
 0.06720752 0.0670285 0.06681167 0.06657343 0.0663152 0.06606748 0.06583022 0.06561756 0.06542698 0.06525457
 0.06509982 0.06495961 0.06483422 0.06472492 0.06462613 0.06453244 0.0644354 0.0643231 0.06419846 0.06405608
 0.06391398 0.06377836 0.06366278 0.06357606 0.06350619 0.06345513 0.06339216 0.06331354 0.06320147 0.06305378
 0.06288465 0.06269546 0.06251633 0.06234737 0.06220398 0.06208258 0.0619758 0.06188066 0.06178412 0.06168793
 0.0615885 0.06149055 0.06139933 0.06131681 0.06124847 0.06118888 0.06113848 0.06108455 0.06102261 0.06094044
 0.06083247 0.06069763 0.06053311 0.06035147 0.06015295 0.05995688 0.05976458 0.05959167 0.05943848 0.05930796
 0.05919833 0.05909761 0.05900305 0.0588959 0.05877584 0.05863076 0.05846539 0.05828137 0.05808768 0.05789601
 0.05771519 0.05755831 0.05742702 0.05732878 0.05725306 0.05719933 0.05714979 0.05709911 0.05703554 0.05695456
 0.05685937 0.0567488 0.0566374 0.05652602 0.05642817 0.05634421 0.05627801 0.05622875 0.05619181 0.05616639
 0.05614692 0.05613248 0.05611879 0.05610272 0.05607716 0.05603749 0.05597332 0.05588564 0.055769 0.0556341
 0.05548489 0.05533397 0.05518903 0.05505233 0.05492759 0.05480654 0.05468825 0.05456541 0.05443629 0.0543037
 0.05416748 0.05403765 0.05391467 0.05380663 0.05371292 0.05363249 0.0535634 0.05349661 0.05343046 0.05335518
 0.05327113 0.0531738 0.05306604 0.05294925 0.0528276 0.05270514 0.05258569 0.05247305 0.05236854 0.05227383
 0.05218835 0.05211236 0.05204483 0.0519861 0.05193226 0.05188357 0.05183011 0.05177129 0.05169641 0.05160528
 0.05149794 0.05137597 0.05125279 0.0511298 0.0510214 0.05092572 0.05084583 0.05077655 0.0507093 0.05063976
 0.05055727 0.05046328 0.05035347 0.05023634 0.05011552 0.04999963 0.04989465 0.04980045 0.04971953 0.04964354
 0.04957125 0.04949605 0.04941657 0.04933266 0.04924413 0.04915297 0.04905928 0.0489653 0.04887147 0.04878266
 0.04869902 0.04862469 0.04855767 0.04849456 0.0484327 0.04836417 0.04829026 0.04820837 0.0481235 0.04803978
 0.04796 0.04788826 0.0478221 0.04776193 0.04770316 0.04764449 0.04758268 0.04751667 0.0474457 0.04736921
 0.04729019 0.04720867 0.04713087 0.04705704 0.04699117 0.04693269 0.04687844 0.04682712 0.04677062 0.04670889
 0.0466368 0.04655669 0.04647042 0.04638108 0.04629399 0.04621044 0.04613375 0.04606371 0.04600101 0.04594561
 0.04589819 0.04585652 0.04582125 0.04578482 0.04574621 0.04569719 0.04563586 0.04556373 0.04548037 0.04539723
 0.04531489 0.04524376 0.04518345 0.04513473 0.04509632 0.04506246 0.04503248 0.04500133 0.04496918 0.04493394
 0.04489604 0.04485504 0.04481185 0.0447668 0.0447218 0.04467836 0.0446373 0.04459995 0.04456408 0.04452951
 0.04449315 0.04445364 0.04441328 0.04437167 0.04433611 0.04430722 0.04428875 0.04428068 0.04427717 0.04427737
 0.04427079 0.04425724 0.04422997 0.04419004 0.04413675 0.0440723 0.04400026 0.04392378 0.04384853 0.04377753
 0.04371634 0.04366479 0.04362562 0.04359361 0.04356797 0.04354066 0.04350904 0.04346762 0.04341431 0.04334929
 0.04327186 0.04318694 0.04309474 0.04300166 0.04290801 0.04281879 0.042734 0.04265557 0.04258306 0.04251533
 0.04245207 0.04239162 0.0423342 0.04227947 0.04222784 0.0421799 0.04213545 0.04209463 0.04205674 0.04202153
 0.04198797 0.04195591 0.04192302 0.04188892 0.04185014 0.04180606 0.04175339 0.04169159 0.04161867 0.04153427
 0.04143992 0.04133584 0.04123038 0.04112447 0.04103068 0.04094886 0.04088588 0.04083905 0.04080385 0.04077718
 0.04074976 0.04072119 0.04068609 0.04064749 0.04060602 0.04056608 0.04053103 0.04050349 0.04048645 0.0404775
 0.04047756 0.04047895 0.04048059 0.0404743 0.04045856 0.04043023 0.04038857 0.04033832 0.04027983 0.04022472
 0.0401735 0.04013677 0.04011305 0.04010132 0.04009816 0.04009152 0.04008076 0.04005708 0.04002539 0.039989
 0.03995289 0.03992524 0.03990318 0.03988883 0.03987318 0.03985183 0.03982077 0.03977599 0.03972443 0.03966611
 0.03961205 0.03956429 0.03952588 0.03949767 0.03947331 0.03945251 0.03942839 0.03940108 0.03936949 0.03933393
 0.03929567 0.03925458 0.03921053 0.03916414 0.0391163 0.03906861 0.03902408 0.03898305 0.03894763 0.03891563
 0.03888622 0.03885732 0.03882732 0.03879652 0.03876455 0.03873257 0.03870088 0.03866975 0.0386393 0.0386092
 0.03857939 0.03855014 0.03852144 0.03849189 0.03846102 0.03842339 0.03837771 0.03831451 0.03823237 0.03812167
 0.03798181 0.03780692 0.03759667 0.03734822 0.03706118 0.03673406 0.0363669 0.03595969 0.03551127 0.03502336
 0.03448604 0.03389854 0.0332427 0.03251208 0.03170633 0.03081837 0.02990298 0.02896142 0.02808724 0.02728511
 0.02660838 0.02605512 0.02561409 0.02529138 0.0251074 0.02508587 0.02532743 0.02582438 0.02663728 0.02767623
 0.02884308 0.03002724 0.03106305 0.03191875 0.0325118 0.03286927 0.03298211 0.03288709 0.03258735 0.03214282
 0.03155332 0.03094502 0.03033044 0.02985186 0.02952817 0.02936575 0.02936487 0.0294259 0.02954645 0.02966881
 0.02979783 0.02993122 0.03007229 0.03023126 0.03040719 0.0306031 0.03081677 0.03104417 0.03128914 0.03155285
 0.03184333 0.03217132 0.03252661 0.03291405 0.03329591 0.03366088 0.03397896 0.0342366 0.03444406 0.03459831
 0.03473377 0.03485328 0.03498177 0.03512056 0.0352713 0.03543271 0.03559008 0.035742 0.03587252 0.03598252
 0.03606568 0.03612552 0.03616606 0.0361924 0.03621401 0.0362349 0.0362637 0.03630016 0.03634815 0.03640168
 0.03645931 0.03651392 0.03656211 0.03660223 0.03663269 0.03665671 0.03667467 0.03668835 0.0366981 0.03670239
 0.03670116 0.03669377 0.03668036 0.03666253 0.0366406 0.03661712 0.0365926 0.03656981 0.03654954 0.03653511
 0.03652648 0.03652565 0.03653039 0.03653993 0.03654949 0.03655552 0.0365536 0.03653928 0.03651503 0.03647875
 0.03644254 0.03640833 0.03638849 0.03638634 0.03640046 0.03643188 0.03646537 0.03650015 0.03652204 0.03653119
 0.03652572 0.03650722 0.03648376 0.03645669 0.03643501 0.03641872 0.03641264 0.03641509 0.03642594 0.0364424
 0.03646172 0.03648076 0.03649617 0.03650637 0.03650903 0.03650608 0.03649712 0.0364868 0.03647628 0.03646822
 0.0364635 0.03646118 0.03646129 0.0364625 0.03646474 0.03646825 0.03647292 0.03647766 0.03648223 0.03648439
 0.03648469 0.03648385 0.03648249 0.03648302 0.0364841 0.03648488 0.03648346 0.03647643 0.03646556 0.03645015
 0.03643521 0.03642362 0.03641718 0.03641828 0.03642242 0.03642954 0.03643247 0.03642994 0.03641819 0.03639639
 0.03636727 0.03633095 0.03629488 0.03625951 0.03623253 0.03621389 0.03620777 0.03621291 0.03622782 0.03624958
 0.03627103 0.03628881 0.03629357 0.03628532 0.03625882 0.03622029 0.03617158 0.03612231 0.03607827 0.03604518
 0.03602771 0.03602269 0.0360314 0.03604355 0.0360579 0.03606527 0.03606427 0.03605421 0.03603495 0.03601226
 0.03598633 0.03596125 0.03593671 0.03591269 0.03588918 0.03586607 0.03584364 0.03582291 0.03580303 0.03578315
 0.03576221 0.03573784 0.03571187 0.03568393 0.03565911 0.03563989 0.03563046 0.03563359 0.0356487 0.035677
 0.03571254 0.03575514 0.03579535 0.03583234 0.03585756 0.03587045 0.03586775 0.03584972 0.03581899 0.03577638
 0.03572781 0.0356744 0.03562326 0.03557545 0.03553757 0.03550889 0.03549236 0.03548348 0.03547884 0.03547276
 0.03545841 0.03543624 0.03540267 0.03536689 0.03533111 0.03530446 0.03529094 0.03528904 0.03530018 0.0353135
 0.03532803 0.03533557 0.03533552 0.03532952 0.03531804 0.03530869 0.03530159 0.0353016 0.03530745 0.03531742
 0.03532946 0.03533755 0.03534074 0.03533407 0.03531915 0.03529521 0.03526619 0.03523504 0.03520453 0.03517775
 0.03515308 0.0351308 0.03510815 0.03508361 0.03506001 0.03503706 0.03502167 0.03501493 0.03501689 0.03502774
 0.03503624 0.03504184 0.03503393 0.03501348 0.03498123 0.03493925 0.03489604 0.03485229 0.03481411 0.03478083
 0.03475413 0.03473296 0.03471721 0.03470457 0.03469386 0.03468099 0.03466355 0.03463809 0.03460221 0.03455646
 0.03449945 0.03443798 0.03437221 0.03431324 0.03426233 0.03422653 0.03420647 0.03419748 0.03419894 0.03419929
 0.03419866 0.03419192 0.03418089 0.03417029 0.03416091 0.03415784 0.03415911 0.03416385 0.03416958 0.03417262
 0.03417239 0.03416709 0.03415717 0.03414256 0.03412322 0.03409887 0.03407056 0.03403813 0.03400459 0.03397052
 0.03393758 0.03390625 0.03387429 0.0338416 0.03380538 0.03376576 0.03372469 0.03368267 0.03364442 0.03360932
 0.03357777 0.03354798 0.03351512 0.03347915 0.03343657 0.03339129 0.03334609 0.03330604 0.03327733 0.0332597
 0.03325678 0.03325952 0.03326615 0.03326557 0.03325345 0.03322824 0.03318777 0.03314153 0.03309022 0.03304236
 0.03299864 0.03295823 0.03292093 0.03288244 0.03284311 0.03280346 0.03276414 0.03272825 0.03269556 0.03266691
 0.03264201 0.03262036 0.03260273 0.03259012 0.03258248 0.03258118 0.0325826 0.03258579 0.0325851 0.03257766
 0.03256155 0.03253472 0.03250193 0.03246339 0.03242539 0.03238888 0.03235481 0.03232331 0.03229211 0.03226132
 0.03223287 0.03220724 0.03218919 0.03217798 0.03217362 0.03217408 0.03217387 0.03217209 0.03216411 0.03215133
 0.03213368 0.03211254 0.03208918 0.03206418 0.03203774 0.0320119 0.031987 0.03196662 0.03195227 0.03194377
 0.03194208 0.03194111 0.03194032 0.03193464 0.03192357 0.0319095 0.03189269 0.03187852 0.03186691 0.03185974
 0.0318568 0.0318582 0.03186372 0.0318739 0.03188607 0.03189637 0.03190071 0.03189071 0.03186883 0.03183155
 0.03179114 0.03175391 0.03172892 0.03172417 0.03173218 0.03175392 0.03177425 0.03178982 0.03179552 0.03178964
 0.03177868 0.03176292 0.03174875 0.03173611 0.03172314 0.03170912 0.03168727 0.03165814 0.03161955 0.03157429
 0.03152859 0.03148519 0.03145256 0.0314306 0.03142326 0.03142763 0.03144347 0.0314652 0.03149029 0.0315117
 0.03152541 0.03152926 0.03152048 0.03150593 0.03148594 0.03146954 0.0314582 0.03145333 0.03145524 0.03146033
 0.03146857 0.03147988 0.03149449 0.03151458 0.03153939 0.03156721 0.03159654 0.03162226 0.03164377 0.03165719
 0.03166343 0.03166182 0.03165413 0.03164143 0.03162596 0.03160896 0.03159349 0.03158068 0.03157443 0.03157651
 0.03158703 0.03160731 0.03162983 0.0316542 0.03167078 0.03167878 0.03167594 0.03166231 0.03164046 0.03161013
 0.03156996 0.03152036 0.03146032 0.03139483 0.03133606 0.03129084 0.03128077 0.03130152 0.0313608 0.03143944
 0.03152274 0.03159653 0.0316443 0.03167167 0.03167451 0.03167094 0.03166548 0.03167073 0.03169169 0.03172255
 0.0317643 0.03179914 0.03182588 0.03183188 0.03181707 0.03178385 0.03173441 0.03168651 0.03164348 0.0316309
 0.03164696 0.03170346 0.03178841 0.03188442 0.03198211 0.0320592 0.03211914 0.03215728 0.03217867 0.03218628
 0.03217981 0.03215805 0.03212765 0.03208699 0.03205813 0.03204455 0.0320655 0.03212539 0.03221823 0.03234446
 0.03248119 0.03262732 0.03276374 0.03289032 0.03299728 0.03308539 0.03315238 0.03319972 0.03322984 0.03324513
 0.03324979 0.03324949 0.03325235 0.03326581 0.03330199 0.03335735 0.03343694 0.03352268 0.03360709 0.03368037
 0.03373468 0.03378322 0.03382636 0.03388193 0.03395345 0.03403895 0.03413888 0.03423925 0.03433985 0.03444013
 0.03454202 0.03466204 0.0348004 0.03496945 0.03516247 0.03536725 0.03557605 0.0357652 0.03593787 0.0360859
 0.03622209 0.03635521 0.03649626 0.03665728 0.03683544 0.03703456 0.03724125 0.03745107 0.03765983 0.03786139
 0.03808395 0.03832612 0.03865362 0.03907145 0.03962285 0.04030759 0.04108436 0.04195068 0.04286003 0.04382709
 0.04488988 0.04607411 0.04747565 0.04910654 0.05104569 0.05326738 0.05578052 0.05852532 0.06145113 0.06450555
 0.06763496 0.07082859 0.0740746 0.07735319 0.08068588 0.08391181 0.08702541 0.08975413 0.09205728 0.09380513
 0.09497958 0.09564227 0.09579752 0.09555254 0.09491537 0.09399612 0.09280621 0.09145565 0.08995423 0.08837798
 0.08675308 0.08515479 0.08363489 0.08230714 0.08117236 0.08028917 0.07958852 0.07904154 0.07859592 0.07821614
 0.0778934 0.07761724 0.07739202 0.07721568 0.07710014 0.07704261 0.07709312 0.077255 0.07757929 0.07806542
 0.07864454 0.07930771 0.07993827 0.08054567 0.08111316 0.08165717 0.08221937 0.08280607 0.0834467 0.08414941
 0.08492683 0.08581624 0.086843 0.0880831 0.08959636 0.09142628 0.09364434 0.09611599 0.0988434 0.1015711
 0.1042391 0.1067262 0.1089991 0.1110919 0.1130019 0.11482 0.1165526 0.1183476 0.1202193 0.1223797
 0.124807 0.1275458 0.1304898 0.1333135 0.1359974 0.1383078 0.1403688 0.1422649 0.1440879 0.1459745
 0.1479255 0.1499859 0.1521223 0.1543255 0.1565871 0.1589106 0.1612534 0.1636139 0.1659164 0.1681449
 0.1703042 0.1723926 0.1744404 0.1764464 0.1783221 0.1800586 0.181527 0.1827394 0.1836846 0.184388
 0.1849261 0.1853049 0.1855768 0.1857274 0.1857492 0.1856543 0.1854428 0.1851561 0.1848218 0.1844719
 0.1841345 0.1838011 0.1834823 0.1831297 0.1827383 0.1822513 0.1816602 0.1809264 0.1800435 0.1790387
 0.1779143 0.1767586 0.1755709 0.174381 0.1731772 0.171916 0.1705916 0.1691608 0.1676324 0.1659974
 0.1642821 0.1625192 0.1607325 0.1589645 0.1572063 0.1554665 0.1537243 0.1519615 0.1502059 0.1484531
 0.1467738 0.1451878 0.1437111 0.1423539 0.1410671 0.1398468 0.1386651 0.1375213 0.1364435 0.1354339
 0.1345292 0.1337263 0.1330293 0.1324337 0.1319277 0.1315104 0.1311753 0.1309215 0.1307444 0.1306452
 0.130621 0.1306814 0.1308308 0.1310829 0.1314441 0.1319285 0.1325396 0.1332988 0.1342122 0.1352903
 0.1365408 0.1379206 0.1394294 0.140983 0.1425775 0.1441548 0.1457131 0.1472217 0.1486671 0.1499659
 0.1510994 0.1519503 0.1525422 0.1528556 0.1529513 0.1529085 0.152779 0.1526503 0.1525336 0.1524683
 0.1524347 0.1524267 0.1524504 0.1524912 0.1526297 0.1528753 0.1533284 0.1540224 0.1548577 0.1558343
 0.1567548 0.1576111 0.1583747 0.1590508 0.1596836 0.1602728 0.1608378 0.161377 0.1618932 0.1623913
 0.1628895 0.1633759 0.1638696 0.1642752 0.1645189 0.1644703 0.1639838 0.1630848 0.1617352 0.1600313
 0.1579921 0.1557106 0.1531944 0.1506033 0.1479566 0.1454049 0.1429669 0.1406661 0.1385036 0.1364274
 0.134438 0.1325196 0.1306792 0.1289507 0.1273311 0.1258356 0.1244419 0.123111 0.1218176 0.120505
 0.1191637 0.1177633 0.1163014 0.1147743 0.1131589 0.1114416 0.1096099 0.1076248 0.1056343 0.1036494
 0.1018833 0.1003907 0.09911206 0.09805318 0.09703875 0.0960606 0.0950494 0.09401108 0.09299188 0.09199834
 0.09109325 0.09026793 0.0895213 0.08885372 0.08825491 0.0877552 0.08739582 0.08720335 0.08723206 0.08746284
 0.08790402 0.0885164 0.08928381 0.09017344 0.09117206 0.09225275 0.09339898 0.09464048 0.09596454 0.0975278
 0.09934218 0.1015578 0.1041803 0.1069932 0.1099641 0.1126301 0.1149977 0.1168603 0.1182633 0.1192502
 0.1198566 0.1201756 0.1202424 0.1201431 0.119921 0.1196487 0.1193697 0.1191458 0.1189741 0.1188874
 0.1187999 0.118687 0.1184931 0.1181897 0.1178144 0.1173649 0.1169115 0.1164609 0.1160584 0.1157064
 0.1153973 0.1151287 0.1148682 0.1146161 0.1143566 0.1140932 0.1138304 0.1135693 0.1133171 0.113068
 0.1128156 0.1125556 0.1122752 0.1119902 0.1117016 0.1114463 0.1112414 0.1111203 0.1111016 0.1111895
 0.1113907 0.1116877 0.1120791 0.1125473 0.1130919 0.1136837 0.1143211 0.1149411 0.1155403 0.1160547
 0.1164867 0.1168175 0.1170543 0.1172127 0.1172987 0.1173339 0.1173211 0.1172744 0.1171923 0.1170797
 0.1169309 0.1167451 0.1165113 0.1162251 0.1158729 0.1154468 0.1149473 0.1143675 0.1137415 0.11307
 0.1124088 0.1117636 0.1111667 0.1106201 0.1101228 0.1096747 0.1092723 0.1089173 0.1086193 0.1083789
 0.1082067 0.1080959 0.1080408 0.1080231 0.1080155 0.10799 0.1079064 0.107742 0.1074611 0.1070716
 0.1065594 0.1059711 0.1053161 0.1046479 0.103983 0.1033432 0.1027368 0.1021524 0.1015903 0.101032
 0.1004768 0.09992415 0.09937596 0.09885509 0.09836373 0.09792738 0.09754433 0.09722279 0.09695835 0.09674544
 0.09657906 0.0964494 0.09635115 0.09627477 0.09621651 0.09617067 0.09613502 0.09610768 0.09608488 0.09606442
 0.09604565 0.09602582 0.09601765 0.09602149 0.09605776 0.09612927 0.09623916 0.09638784 0.09654977 0.09672365
 0.09688349 0.0970327 0.09717679 0.09732424 0.09750865 0.09773541 0.09803715 0.09840738 0.09885409 0.09935819
 0.09990437 0.1004673 0.1010261 0.1015517 0.1020268 0.1024203 0.1027177 0.1028986 0.1029519 0.1028849
 0.1026934 0.1024138 0.1020476 0.1016438 0.1012051 0.1007698 0.1003384 0.09992488 0.09952735 0.09914061
 0.09876377 0.09839 0.09802195 0.09766193 0.0973144 0.0969875 0.09668502 0.09641454 0.09617784 0.09597942
 0.09581741 0.09569255 0.09560063 0.09553982 0.0955091 0.09550726 0.09553768 0.09560096 0.09569839 0.09583075
 0.09599093 0.09617862 0.09637938 0.09659223 0.09680046 0.09700346 0.09718814 0.0973561 0.09750487 0.09763927
 0.09776883 0.0978996 0.09804636 0.09821173 0.09840592 0.09862482 0.09886951 0.0991323 0.0994086 0.09969543
 0.09998905 0.1002954 0.1006151 0.100955 0.1013174 0.1017001 0.1021039 0.1025178 0.1029412 0.1033631
 0.1037832 0.1041963 0.1046029 0.1050033 0.1053979 0.1057881 0.106172 0.1065469 0.1069076 0.1072453
 0.1075531 0.1078196 0.1080401 0.1082066 0.1083184 0.1083727 0.1083716 0.108315 0.1082059 0.1080446
 0.1078356 0.1075791 0.1072821 0.1069453 0.1065735 0.1061672 0.1057267 0.1052522 0.1047468 0.1042126
 0.103664 0.1031039 0.1025509 0.1020054 0.1014768 0.1009641 0.1004683 0.09999239 0.09953936 0.09911531
 0.09872723 0.09837574 0.09806516 0.09778694 0.09753997 0.09731219 0.09710004 0.0968967 0.09669954 0.0965117
 0.09633245 0.09617481 0.09603942 0.0959431 0.09588639 0.09588031 0.09592362 0.09601427 0.09614936 0.09631616
 0.09651374 0.09673157 0.09697454 0.09724523 0.0975514 0.09790424 0.09830653 0.09876523 0.09927775 0.09984381
 0.1004631 0.1011346 0.1018623 0.1026475 0.1034922 0.1043979 0.1053582 0.1063737 0.1074298 0.1085258
 0.1096408 0.1107734 0.1119016 0.113024 0.1141228 0.1151971 0.1162344 0.117234 0.1181876 0.1190946
 0.1199507 0.1207547 0.121504 0.1221969 0.1228303 0.1234052 0.1239206 0.1243805 0.1247867 0.1251403
 0.1254417 0.1256911 0.1258868 0.1260408 0.1261529 0.1262471 0.1263246 0.1264039 0.1264854 0.1265785
 0.1266839 0.1268127 0.1269669 0.1271603 0.1273926 0.12767 0.127991 0.1283552 0.128763 0.1292153
 0.1297106 0.1302502 0.1308253 0.1314324 0.1320614 0.1327059 0.1333663 0.1340396 0.1347382 0.1354641
 0.1362247 0.1370228 0.1378415 0.1386803 0.1395034 0.1403095 0.1410737 0.1417973 0.1424779 0.1431155
 0.1437103 0.144261 0.1447607 0.1452163 0.1456328 0.1460267 0.146421 0.1468263 0.1472633 0.1477241
 0.1482133 0.1487102 0.1492087 0.1496893 0.1501441 0.1505692 0.1509612 0.1513318 0.1516821 0.1520189
 0.1523428 0.1526466 0.1529304 0.1531957 0.1534454 0.1537026 0.1539679 0.1542583 0.1545656 0.1548769
 0.155182 0.1554545 0.1556916 0.1558781 0.1560162 0.1561029 0.1561399 0.1561269 0.1560662 0.1559572
 0.1558071 0.1556164 0.1553974 0.1551519 0.1548929 0.1546221 0.1543451 0.1540625 0.1537755 0.1534844
 0.1531951 0.1529072 0.1526235 0.1523399 0.152041 0.1517224 0.1513614 0.1509624 0.1505204 0.1500472
 0.1495553 0.1490539 0.1485551 0.1480637 0.1475858 0.1471241 0.1466826 0.1462562 0.1458455 0.145439
 0.145034 0.1446265 0.1442149 0.1438056 0.143399 0.1429995 0.1426068 0.1422143 0.1418204 0.1414102
 0.1409817 0.1405189 0.1400222 0.1394846 0.1389087 0.1382972 0.1376487 0.1369636 0.1362376 0.1354642
 0.1346496 0.1337921 0.1329107 0.1320126 0.1311134 0.1302195 0.1293373 0.1284681 0.1276195 0.1267921
 0.1259953 0.1252299 0.1244956 0.1237918 0.1231088 0.1224456 0.1217913 0.1211451 0.1204971 0.1198478
 0.1191925 0.1185336 0.1178747 0.1172154 0.1165593 0.1158984 0.1152277 0.1145378 0.1138204 0.1130738
 0.1122941 0.1114879 0.1106551 0.109807 0.1089453 0.1080818 0.1072187 0.1063596 0.105505 0.1046474
 0.1037863 0.1029142 0.1020319 0.1011422 0.1002478 0.09935962 0.09848201 0.0976314 0.09681378 0.09604868
 0.09533821 0.09469553 0.0941133 0.09359171 0.09311634 0.09268062 0.09226578 0.09186578 0.09145413 0.09102478
 0.09054626 0.09001134 0.089401 0.08870991 0.08794917 0.08711813 0.08625847 0.08537275 0.08451123 0.08367469
 0.08289295 0.08216299 0.08148703 0.08086295 0.08028549 0.07975511 0.07927255 0.07883254 0.07843152 0.07805559
 0.07769019 0.07732736 0.0769539 0.07658093 0.07620765 0.07585471 0.07552901 0.07523984 0.07499232 0.07477602
 0.07459109 0.07442003 0.07426128 0.07411032 0.07396749 0.07384574 0.07374579 0.07367992 0.0736463 0.07364333
 0.07366858 0.07371434 0.07377892 0.073857 0.07394361 0.07403081 0.07411214 0.07417694 0.07422745 0.0742601
 0.07428505 0.0743072 0.07432854 0.07435269 0.07436933 0.07437685 0.07436803 0.07434052 0.07430261 0.07425424
 0.07421506 0.07418608 0.07418656 0.07421647 0.07428473 0.07438914 0.07452533 0.07468943 0.07486896 0.07505926
 0.07524619 0.07542462 0.0755818 0.07571472 0.07581467 0.07588527 0.07592445 0.07594256 0.07594262 0.0759365
 0.07592858 0.07592549 0.07593011 0.07594028 0.07595636 0.07597281 0.07598893 0.07600862 0.07603237 0.07607464
 0.07613534 0.07622094 0.07632817 0.07644495 0.07656883 0.07668457 0.07679565 0.07690182 0.07700686 0.07711869
 0.07723138 0.0773441 0.07744503 0.07752348 0.07758107 0.07761151 0.07763635 0.07766049 0.07770237 0.07776953
 0.07785323 0.07795478 0.07805037 0.07813794 0.07820919 0.07826414 0.07831345 0.07835734 0.07840257 0.07844737
 0.07848585 0.07851827 0.07854106 0.07855846 0.07857747 0.07860142 0.07863924 0.07868868 0.07875191 0.07882249
 0.07889724 0.07896983 0.07903685 0.07909358 0.07913823 0.07916646 0.07917691 0.07916783 0.07913784 0.0790955
 0.07904084 0.07899241 0.07895108 0.07893115 0.07893205 0.07895436 0.07899713 0.07905563 0.07913075 0.07922325
 0.07933331 0.07946344 0.07960893 0.07976569 0.0799253 0.08007758 0.08021837 0.08033958 0.08044785 0.08054274
 0.08063653 0.08073378 0.08083888 0.08095469 0.08107523 0.08119993 0.0813252 0.08145035 0.08158106 0.08171768
 0.08186886 0.08203483 0.08222109 0.0824273 0.08265494 0.08290292 0.0831687 0.08345153 0.08374928 0.08406
 0.08438309 0.08470802 0.08502746 0.08532295 0.08557738 0.08578711 0.0859396 0.08606261 0.08615933 0.08626661
 0.08639501 0.08655471 0.08675101 0.08696321 0.08719055 0.08740577 0.08760779 0.08778733 0.0879464 0.08810087
 0.08825348 0.08842798 0.08862164 0.08884031 0.0890755 0.08931261 0.08954429 0.08975305 0.08993673 0.09008444
 0.09020408 0.09029263 0.09037554 0.09046108 0.09057937 0.09074482 0.09096138 0.09123585 0.09154491 0.09188667
 0.09223986 0.09260253 0.09296252 0.09331908 0.0936576 0.09397858 0.09427879 0.09456404 0.09486031 0.0951764
 0.09555314 0.09599647 0.09654018 0.09718175 0.09793787 0.09878632 0.09971847 0.100691 0.1016753 0.1026279
 0.1035235 0.1043266 0.1050236 0.1055775 0.1059751 0.1062091 0.1062695 0.1062232 0.1060727 0.1059169
 0.1057603 0.1056481 0.1055775 0.1055344 0.1055165 0.1055045 0.1055023 0.105512 0.1055387 0.1055956
 0.1056817 0.1058055 0.1059527 0.1061157 0.1062699 0.1063954 0.1064774 0.1065008 0.1064711 0.1063859
 0.1062569 0.1060858 0.1058842 0.1056528 0.1054092 0.1051546 0.1049034 0.1046564 0.1044223 0.1042036
 0.1040284 0.1039019 0.1038702 0.10393 0.1041005 0.104362 0.1046863 0.1050439 0.1053799 0.1056718
 0.1058689 0.1059841 0.1059967 0.1059736 0.1059361 0.105959 0.1060929 0.1062827 0.1065405 0.1067135
 0.1067696 0.1067084 0.1065222 0.1063128 0.1060851 0.1059047 0.1057702 0.1056877 0.1056499 0.1056216
 0.1055977 0.1055385 0.1054528 0.1053357 0.1052078 0.1051008 0.1050221 0.1049968 0.1050078 0.1050495
 0.1051104 0.1051796 0.1052651 0.105369 0.1054906 0.1056325 0.1057784 0.1059261 0.1060657 0.1061963
 0.1063097 0.1064053 0.1064632 0.1064828 0.1064505 0.1063691 0.1062452 0.1060838 0.1059022 0.1057098
 0.1055351 0.1053874 0.1053017 0.105258 0.1052553 0.1052524 0.1052074 0.1051318 0.1050088 0.1049014
 0.1048317 0.1048247 0.1048938 0.1050261 0.1052194 0.1054816 0.1058145 0.1062065 0.1066565 0.1070896
 0.1075031 0.1078383 0.1081035 0.1083142 0.1084798 0.1086392 0.1087971 0.1089812 0.1091972 0.1094703
 0.1097909 0.1101656 0.1105602 0.1109514 0.1113141 0.111624 0.1118902 0.1121094 0.1122997 0.1124657
 0.1126147 0.1127484 0.1128698 0.1129795 0.1130781 0.1131659 0.1132516 0.113337 0.113447 0.113579
 0.113737 0.1139081 0.1140475 0.1141517 0.1141818 0.1141621 0.1141121 0.1140582 0.1140418 0.1140619
 0.114134 0.1142406 0.1143793 0.1145271 0.1146782 0.1148053 0.114898 0.1149567 0.1149764 0.114992
 0.1150077 0.1150293 0.1150574 0.115048 0.1150008 0.1148947 0.1147376 0.1145661 0.1143849 0.1142337
 0.1141035 0.1139952 0.1138941 0.1137762 0.1136335 0.1134432 0.1132179 0.1129567 0.1126829 0.1124165
 0.1121418 0.1118669 0.1115327 0.1111209 0.1106205 0.1100169 0.109395 0.1087599 0.1082024 0.1077275
 0.1073371 0.1070263 0.1067339 0.1064551 0.1061313 0.1057622 0.1053116 0.1047923 0.1042086 0.1035918
 0.102996 0.1024378 0.1019689 0.1015562 0.1011991 0.1008393 0.1004416 0.099984 0.09943748 0.09885684
 0.0982393 0.09769258 0.09723423 0.09693182 0.09679943 0.09678049 0.09687243</values></Ydata></AB><ScSm><Ydata ylabel="Single channel"><values byteorder="INTEL" format="FLOAT32" numvalues="1814"> 0.05848678 0.05849983 0.05857111 0.05871554 0.05890319 0.05907612 0.05919 0.05924211 0.05925144 0.05922215
 0.05915593 0.05909768 0.05912568 0.05927521 0.05949044 0.05966193 0.05971168 0.05965957 0.0596154 0.05967286
 0.05978556 0.05977422 0.05949699 0.05901343 0.05854653 0.05827361 0.05821305 0.05835627 0.05878107 0.05944347
 0.0599382 0.0597856 0.05903314 0.05829357 0.05806644 0.0582561 0.05844849 0.05839102 0.05807883 0.05766161
 0.05747837 0.05796712 0.05924052 0.06073073 0.06138958 0.06034886 0.05753854 0.05388658 0.05097707 0.05020422
 0.05179574 0.0545205 0.05661183 0.0571796 0.05664447 0.05585102 0.05514623 0.05449055 0.0540577 0.05426324
 0.05519964 0.05625816 0.05644673 0.05523513 0.05317695 0.05151858 0.05106381 0.05166326 0.05287115 0.05444204
 0.05566971 0.05498388 0.05147351 0.04686455 0.0447832 0.04732208 0.05281172 0.05745102 0.05869725 0.0567183
 0.05331615 0.05041367 0.04931874 0.05037498 0.05289626 0.05573487 0.05797973 0.05901381 0.05836248 0.05609547
 0.05323347 0.05126123 0.0512126 0.05325785 0.05667425 0.05991872 0.06132082 0.06030646 0.05778263 0.05517689
 0.05349159 0.05329611 0.05486801 0.0579145 0.06154512 0.06478518 0.06697875 0.06786291 0.06762255 0.06677023
 0.06575392 0.06487875 0.06458349 0.06517985 0.06613114 0.06624065 0.06494971 0.06307919 0.06198619 0.06215989
 0.06282586 0.06289193 0.06205736 0.06066453 0.05863157 0.05539797 0.05120773 0.04748914 0.04543477 0.04507767
 0.04612406 0.04843196 0.05102183 0.05199778 0.05061397 0.04862754 0.04856892 0.05103963 0.0543789 0.0566847
 0.05757701 0.05809106 0.05933867 0.06137224 0.06303068 0.06281703 0.06037791 0.05735276 0.05622725 0.05789951
 0.06080962 0.06285749 0.06362318 0.0641797 0.06520596 0.06593717 0.06496128 0.06189642 0.05831381 0.05677991
 0.05862661 0.06262007 0.06585084 0.06589186 0.06243574 0.05737348 0.05331511 0.05177978 0.05277073 0.0557583
 0.06027748 0.0654197 0.06958085 0.07135361 0.07055817 0.06816981 0.06520146 0.06176498 0.05759281 0.05358725
 0.05203367 0.05445449 0.05967425 0.06479019 0.06776755 0.06847672 0.06758458 0.06530556 0.06155834 0.05713496
 0.05410979 0.05424995 0.05690137 0.05933343 0.0595947 0.05830421 0.05728071 0.05726321 0.05760926 0.05767503
 0.05773249 0.05848983 0.06007442 0.06174471 0.06260864 0.06244249 0.06173836 0.06112479 0.06079417 0.06036602
 0.05941716 0.05831002 0.05817073 0.05966895 0.06210962 0.06414527 0.06513146 0.06538244 0.06528966 0.0646261
 0.06287788 0.06021516 0.05790272 0.05737194 0.05884254 0.06118067 0.06308509 0.06402665 0.06413602 0.06374371
 0.06315334 0.06253542 0.06196747 0.06165294 0.0618826 0.06262828 0.06343018 0.0638577 0.06387229 0.06363355
 0.06318961 0.06251772 0.06173772 0.06113356 0.06095235 0.06121634 0.06174288 0.06230797 0.06273295 0.06286797
 0.0626463 0.06218391 0.06170304 0.06132857 0.06105509 0.06089978 0.06094503 0.06119666 0.06151301 0.06172867
 0.06178655 0.06171993 0.0615663 0.0613415 0.06106865 0.06080146 0.06062076 0.06059019 0.06068696 0.06080408
 0.06086361 0.06089303 0.06093896 0.06095508 0.06085423 0.06064322 0.06043111 0.06031211 0.06029119 0.060314
 0.06031853 0.0602429 0.06002527 0.0596585 0.05925996 0.05902861 0.05908348 0.0593696 0.05973924 0.06007047
 0.06029136 0.06037242 0.06034633 0.06028397 0.06021451 0.06010215 0.0599176 0.05970835 0.05958651 0.05964355
 0.05986394 0.06012982 0.06032364 0.0604089 0.0604131 0.06038377 0.06037471 0.06041545 0.06046831 0.06046022
 0.0603753 0.06028101 0.06025259 0.06029389 0.06033871 0.06032416 0.06026228 0.06022917 0.06027708 0.06037872
 0.06047136 0.06053013 0.06057677 0.0606294 0.06066178 0.06062105 0.06049334 0.06034022 0.06024363 0.06022098
 0.0602273 0.06023424 0.06026371 0.06033623 0.0604223 0.06046636 0.06044707 0.06039631 0.06035508 0.06032153
 0.06025793 0.0601465 0.06001877 0.05992342 0.05987897 0.05986506 0.05984962 0.05981569 0.05976395 0.05969869
 0.05961974 0.05952693 0.05942353 0.05931657 0.0592236 0.05917316 0.0591785 0.05920733 0.05919573 0.05910429
 0.05895623 0.05881372 0.05871677 0.05865125 0.05857784 0.05848204 0.05838509 0.05831233 0.05826769 0.05823765
 0.05820543 0.05816172 0.05811935 0.05811991 0.05820528 0.0583674 0.05853772 0.0586437 0.05867359 0.05867506
 0.05869833 0.05875657 0.05883566 0.05892259 0.0590218 0.05914977 0.05930806 0.05946233 0.05956843 0.05962525
 0.05967975 0.05977529 0.05991773 0.06009104 0.06027191 0.06042491 0.06051992 0.06056988 0.06062598 0.06072271
 0.06084625 0.06096534 0.06107377 0.06118866 0.06132174 0.06147151 0.06164066 0.06184356 0.06208815 0.06235638
 0.06260872 0.06281143 0.06296541 0.06311322 0.06331217 0.06358913 0.06391684 0.06423508 0.06449892 0.06471081
 0.06490815 0.06512076 0.0653486 0.06558512 0.06584626 0.0661548 0.06650274 0.06685283 0.06717835 0.06748334
 0.06778432 0.06808929 0.06839795 0.0687117 0.06903845 0.0693872 0.06975308 0.07010883 0.07042137 0.07068197
 0.07091723 0.07117052 0.0714705 0.07180515 0.07212177 0.07236902 0.07255275 0.0727366 0.07297203 0.07324137
 0.0734912 0.07370999 0.07394283 0.0742279 0.07454623 0.0748465 0.07510185 0.07532869 0.0755576 0.07579699
 0.07602395 0.07620874 0.07634889 0.07647347 0.07661159 0.07677076 0.07695621 0.07718936 0.07748079 0.07779549
 0.07807365 0.07828328 0.07843451 0.07855281 0.07866149 0.07878184 0.07892533 0.07908584 0.07924968 0.07940392
 0.0795321 0.0796254 0.07970993 0.07983741 0.08003191 0.08026791 0.08051482 0.08077647 0.08106525 0.08136342
 0.08164398 0.0819177 0.08222148 0.08255571 0.08286567 0.08309848 0.08325338 0.08336148 0.08344533 0.08352506
 0.08363977 0.0838238 0.08406547 0.08431417 0.0845263 0.08468605 0.08479027 0.08483689 0.08483205 0.0847961
 0.08475913 0.08475424 0.0848135 0.08496456 0.08522295 0.08557676 0.08597656 0.08635339 0.08665584 0.08686323
 0.08696509 0.08695146 0.08683655 0.08666922 0.08649158 0.08628961 0.08600229 0.08557711 0.08500333 0.0842942
 0.08345748 0.08249721 0.08144201 0.08036181 0.07934858 0.0784785 0.07779635 0.07733516 0.07713526 0.07722335
 0.07756636 0.07805362 0.07852863 0.07883655 0.07885406 0.07850806 0.07779529 0.07678442 0.0755841 0.07430182
 0.0730242 0.07181234 0.07069969 0.06970993 0.06890005 0.0683837 0.06829685 0.06873377 0.06970836 0.07114983
 0.07291587 0.07482322 0.07670077 0.07843915 0.08000191 0.08139801 0.08265179 0.0837939 0.08485998 0.08587679
 0.08684719 0.08775833 0.08860418 0.08939005 0.09011619 0.09076574 0.09130932 0.09171585 0.09196638 0.09206861
 0.09205762 0.09197792 0.09186704 0.09174848 0.09161878 0.09142838 0.09108789 0.09051204 0.08966947 0.08860805
 0.08745997 0.08643719 0.08580735 0.08583322 0.08668277 0.08834933 0.0906371 0.09323119 0.09580851 0.09812371
 0.100046 0.101561 0.102743 0.1037017 0.1045294 0.1052802 0.1059785 0.106631 0.1072365 0.1077956
 0.1083152 0.1088061 0.1092811 0.1097511 0.1102156 0.1106602 0.1110723 0.1114602 0.1118503 0.1122634
 0.1126955 0.1131231 0.1135303 0.113923 0.1143122 0.1146892 0.1150329 0.115341 0.1156382 0.115954
 0.1163028 0.1166825 0.1170737 0.1174429 0.1177634 0.118039 0.1182986 0.1185674 0.1188477 0.1191285
 0.1194033 0.1196761 0.1199553 0.1202472 0.1205537 0.1208683 0.1211709 0.1214378 0.1216623 0.1218644
 0.1220734 0.1223041 0.1225478 0.1227856 0.1230109 0.1232404 0.1235007 0.123799 0.1241105 0.124398
 0.1246432 0.1248578 0.1250671 0.1252889 0.1255277 0.125782 0.1260493 0.1263228 0.1265923 0.1268517
 0.1271017 0.1273454 0.1275832 0.1278159 0.1280469 0.1282799 0.1285139 0.1287439 0.1289686 0.1291984
 0.1294484 0.129721 0.1299981 0.1302558 0.1304831 0.1306835 0.1308687 0.1310556 0.131262 0.1314963
 0.13175 0.1320042 0.1322442 0.1324701 0.1326951 0.1329316 0.133181 0.1334349 0.1336841 0.1339255
 0.134163 0.1344036 0.1346502 0.134898 0.1351401 0.1353753 0.1356065 0.1358353 0.1360625 0.13629
 0.1365178 0.1367441 0.136968 0.1371901 0.1374109 0.1376312 0.1378534 0.1380772 0.1383004 0.1385233
 0.1387485 0.1389752 0.1391992 0.1394207 0.1396452 0.1398761 0.1401112 0.1403443 0.1405691 0.1407848
 0.1409986 0.1412201 0.141452 0.1416889 0.141923 0.1421487 0.1423648 0.1425738 0.1427793 0.1429848
 0.1431934 0.1434049 0.1436157 0.1438253 0.1440395 0.1442629 0.144491 0.144714 0.1449257 0.1451291
 0.1453352 0.145554 0.1457845 0.1460154 0.1462364 0.1464468 0.1466535 0.1468657 0.1470875 0.1473136
 0.1475342 0.1477461 0.1479539 0.1481647 0.1483832 0.1486092 0.1488345 0.149048 0.1492464 0.1494347
 0.1496196 0.1498068 0.1500014 0.1502052 0.1504166 0.1506345 0.1508562 0.1510762 0.1512923 0.1515069
 0.1517206 0.1519302 0.1521344 0.1523362 0.1525415 0.1527585 0.1529913 0.1532332 0.1534754 0.1537172
 0.1539586 0.1541914 0.1544097 0.1546192 0.154829 0.1550439 0.1552643 0.1554845 0.1556947 0.1558942
 0.1560948 0.1563061 0.1565282 0.1567552 0.1569776 0.1571871 0.157389 0.1575977 0.1578172 0.1580386
 0.158254 0.158463 0.1586698 0.1588814 0.1591018 0.159325 0.1595452 0.1597658 0.159989 0.1602103
 0.1604318 0.16066 0.1608908 0.1611146 0.1613317 0.1615453 0.1617541 0.1619592 0.1621619 0.1623481
 0.1624793 0.1624556 0.1620186 0.1606558 0.1575969 0.1519715 0.1431549 0.1311643 0.1167916 0.10132
 0.08605193 0.07197849 0.05968602 0.04942632 0.04124292 0.03506588 0.03077016 0.02824866 0.02748938 0.02867499
 0.03230071 0.038885 0.04784827 0.05651286 0.06113713 0.05986425 0.05449184 0.04882944 0.04552665 0.04478251
 0.04547336 0.04663369 0.04795516 0.04961353 0.05191525 0.05494939 0.0585665 0.06275445 0.0678317 0.07404724
 0.0810841 0.08818458 0.09480607 0.1010512 0.1074162 0.1141902 0.1211535 0.1277978 0.1337321 0.1388745
 0.1433777 0.1474573 0.1512697 0.1548883 0.1583422 0.1616207 0.1646089 0.1670567 0.1686965 0.1694461
 0.1695088 0.1692604 0.1690277 0.1689588 0.1690632 0.1693155 0.1697026 0.1702148 0.1708331 0.1715277
 0.1722648 0.1730187 0.173775 0.1745205 0.1752363 0.1759076 0.1765287 0.1770972 0.177613 0.1780837
 0.1785185 0.1789206 0.1792916 0.1796384 0.1799694 0.1802874 0.1805901 0.1808739 0.1811375 0.1813845
 0.1816217 0.1818527 0.1820776 0.1822953 0.1825045 0.182704 0.1828978 0.1830933 0.1832943 0.1834975
 0.1836999 0.1838996 0.1840931 0.1842766 0.1844524 0.1846291 0.1848149 0.1850118 0.1852121 0.1854029
 0.1855794 0.1857518 0.1859333 0.1861243 0.1863154 0.1865022 0.1866887 0.1868794 0.1870734 0.1872665
 0.1874584 0.1876541 0.1878559 0.1880564 0.1882487 0.1884376 0.1886322 0.1888343 0.1890431 0.1892602
 0.1894787 0.1896773 0.1898408 0.1899838 0.1901443 0.1903512 0.1905964 0.1908416 0.1910562 0.1912422
 0.1914197 0.1915998 0.1917789 0.1919486 0.1921083 0.1922776 0.1924853 0.1927345 0.1929944 0.1932378
 0.1934676 0.1936971 0.1939288 0.1941603 0.1943835 0.1945773 0.1947256 0.1948507 0.195014 0.1952724
 0.1956256 0.1960047 0.1963295 0.1965801 0.196799 0.1970368 0.1973162 0.1976087 0.1978186 0.197852
 0.1977615 0.1977601 0.198022 0.1985109 0.1990499 0.1995049 0.1998586 0.2001549 0.2004276 0.2006681
 0.2008302 0.2008773 0.2008533 0.2009032 0.2011731 0.2016596 0.2022016 0.2026478 0.2029781 0.2032414
 0.2034634 0.2036472 0.2037549 0.2036662 0.2033078 0.2028851 0.2028272 0.2033765 0.2043119 0.2051766
 0.2057241 0.2060468 0.206321 0.2065914 0.2068148 0.2069034 0.2066308 0.2057612 0.2045118 0.2036797
 0.2039853 0.205346 0.2070103 0.2083062 0.2090652 0.2094586 0.2097044 0.2099186 0.2100274 0.2097804
 0.2090312 0.2080998 0.2076887 0.208238 0.2094335 0.2105414 0.2111558 0.2114153 0.2116134 0.2118656
 0.2120344 0.2116942 0.2103718 0.2082438 0.2064976 0.2065041 0.2084766 0.2112109 0.2132762 0.2142482
 0.2146085 0.2146944 0.2142041 0.2127471 0.2104361 0.2078407 0.2058031 0.2053187 0.2068818 0.2096639
 0.2119775 0.2129382 0.213215 0.2139241 0.2152914 0.216653 0.2173192 0.2171128 0.2162501 0.2149571
 0.2133608 0.2118438 0.2112586 0.2123221 0.2147395 0.2173118 0.2190493 0.2199225 0.2203295 0.2199333
 0.2174344 0.2121248 0.2058326 0.2024307 0.2044294 0.2103567 0.2163408 0.2199209 0.2214101 0.2220939
 0.2224956 0.2222229 0.2201978 0.2152432 0.2079303 0.2017575 0.2007962 0.20567 0.2128532 0.2179608
 0.2187442 0.2153512 0.2095431 0.2041633 0.2019817 0.204022 0.2091077 0.2150288 0.2198749 0.2225668
 0.2228535 0.2212092 0.2187907 0.2171528 0.2171291 0.2176012 0.2163364 0.2128022 0.2090553 0.2067325
 0.204524 0.2006014 0.1966143 0.1966199 0.2018068 0.2085149 0.2123438 0.2126151 0.211619 0.2104413
 0.2071218 0.1994814 0.1892174 0.1820019 0.1825043 0.1895284 0.197047 0.2000422 0.1984417 0.1954309
 0.1931521 0.1905977 0.1852511 0.1765544 0.1676099 0.1627064 0.1629696 0.1654914 0.1668841 0.1659908
 0.1627516 0.1571733 0.1513389 0.1501656 0.1571701 0.1700855 0.1825862 0.189467 0.1885544 0.1796279
 0.1652033 0.1520627 0.1479689 0.1547539 0.1661265 0.1734544 0.1726454 0.1649493 0.1532597 0.1400641
 0.1285594 0.1230752 0.1264938 0.1373186 0.1497414 0.1566059 0.153382 0.1416185 0.1291413 0.1244452
 0.1290572 0.1365211 0.139639 0.1369997 0.1320333 0.1285009 0.1282573 0.1310049 0.1346699 0.1373175
 0.1387015 0.1382144 0.1328105 0.1207156 0.1065069 0.09815171 0.09871714 0.1047666 0.1127576 0.1222043
 0.131492 0.1357124 0.1321936 0.1256027 0.1240063 0.1303248 0.1398006 0.1457763 0.1462859 0.1444717
 0.1437256 0.1440186 0.1436073 0.1430636 0.1454265 0.1520078 0.1600711 0.1658626 0.1685029 0.1696558
 0.1706719 0.1715503 0.1719081 0.1716086 0.1707111 0.1695618 0.1686716 0.1681294 0.1675075 0.166466
 0.1647587 0.1613813 0.154812 0.1452707 0.1361185 0.1312684 0.1311214 0.132807 0.1343916 0.1360096
 0.1360216 0.1298948 0.1161184 0.1010905 0.09446298 0.09982189 0.1120317 0.1231304 0.1284557 0.1270585
 0.1193129 0.107026 0.09532548 0.09110075 0.09746102 0.1108419 0.1248889 0.1359042 0.1432315 0.1462936
 0.144098 0.1375447 0.1302944 0.1266841 0.1291344 0.1370782 0.147078 0.1536141 0.1517783 0.1422046
 0.1333834 0.1353895 0.1492093 0.1650026 0.1731436 0.1740066 0.174048 0.1757438 0.1763513 0.1750678
 0.1758932 0.1821226 0.1914382 0.1981764 0.1983392 0.1911825 0.1785386 0.1650658 0.157109 0.1577623
 0.1635028 0.1681327 0.1688387 0.1658385 0.1587014 0.1479662 0.139162 0.139482 0.1494385 0.1617887
 0.1697662 0.1732735 0.1759358 0.1787789 0.1789228 0.1739227 0.1658603 0.1600948 0.1599852 0.1639495
 0.1681554 0.170535 0.1708764 0.16861 0.1631468 0.1564313 0.1529369 0.1558255 0.1637195 0.1720043
 0.1769467 0.1780276 0.1768986 0.1752161 0.1735129 0.1713094 0.1682119 0.1653469 0.1651407 0.1687149
 0.1740572 0.1780547 0.1800274 0.1819549 0.1853399 0.1891363 0.1910603 0.1901405 0.1876781 0.1861331
 0.1871664 0.1903223 0.1933424 0.1940533 0.1924119 0.1907324 0.1915524 0.1952016 0.1997522 0.2031991
 0.2050975 0.2061506 0.2070246 0.2077733 0.2078024 0.2063151 0.2034282 0.2008464 0.2006698 0.2033194
 0.2071341 0.2100786 0.2113797 0.2114644 0.2109005 0.2098081 0.2081507 0.2062383 0.204732 0.2041617
 0.2045571 0.2055657 0.2067868 0.2079425 0.2088902 0.2096166 0.21019 0.2106628 0.2110423 0.2113411
 0.2115765 0.2117129 0.2116931 0.2115574 0.2114571 0.211494 0.2115983 0.2116177 0.2114734 0.2111551
 0.2106085 0.2097444 0.2085681 0.2072 0.2057315 0.2041524 0.2025103 0.2011095 0.2004353 0.200794
 0.2020227 0.2035831 0.2049331 0.2058066 0.2062099 0.2062747 0.2061556 0.2059922 0.2058751 0.2058228
 0.2058066 0.2058014 0.2058048 0.2058246 0.2058725 0.2059734 0.2061551 0.2064162 0.2067124 0.206979
 0.2071609 0.2072259 0.207172 0.2070274 0.2068262 0.2065717 0.2062303 0.205763 0.205159 0.2044418
 0.2036572 0.2028542 0.2020582 0.2012485 0.2003717 0.1993796 0.1982426 0.1969315 0.1954335 0.1938059
 0.1921728 0.1906323 0.1891856 0.1877726 0.1863447 0.1848865 0.1834028 0.181918 0.1804708 0.1790923
 0.1777906 0.1765572 0.1753777 0.174233 0.1730973 0.1719399 0.1707357 0.1694764 0.1681691 0.1668161
 0.1653941 0.1638478 0.1620951 0.1600423 0.1576037 0.1547224 0.15139 0.1476614 0.1436549 0.1395332
 0.1354692 0.1316122 0.1280672 0.1249034 0.1221779 0.1199395 0.1182112 0.1169856 0.1162462 0.1159889
 0.1162209 0.1169394 0.1181042 0.119631 0.1214133 0.1233424 0.1252982 0.1271524 0.1288209 0.1303176
 0.1317288 0.1331218 0.1344894 0.1357838 0.1369804 0.1380883 0.1391104 0.1400254 0.1408169 0.1414957
 0.1420864 0.1426125 0.143103 0.1435899 0.1440868 0.1445806 0.14505 0.145486 0.1458999 0.1463148
 0.1467474 0.147196 0.1476518 0.1481207 0.1486303 0.1492166 0.1498986 0.1506653 0.1514946 0.1523871
 0.1533642 0.1544331 0.1555805 0.1568019 0.1581116 0.1595162 0.1609972 0.1625221 0.1640538 0.1655464
 0.166943 0.1681872 0.1692468 0.170132 0.170883 0.1715349 0.1721019 0.172589 0.1730025 0.1733497
 0.1736413 0.1738931 0.1741151 0.1743051 0.17445 0.1745277 0.1745152 0.1744091 0.1742334 0.174021
 0.1738012 0.173613 0.1735121 0.1735444 0.1737057 0.1739302 0.1741263 0.1742326 0.1742424 0.174178
 0.1740561 0.173881 0.1736471 0.1733331 0.1729096 0.1723617 0.1716954 0.1709194 0.1700345 0.1690395
 0.1679392 0.1667411 0.165449 0.1640641 0.1626002 0.1610862 0.1595361 0.1579251 0.1562313 0.1544981
 0.1528239 0.1512844 0.1498806 0.1485602 0.1472715 0.1459964 0.1447482 0.143546 0.1423989 0.1413161
 0.1403147 0.1394035 0.1385664 0.1377742 0.1370141 0.1363059 0.1356859 0.1351658 0.1347147 0.134292
 0.1338888 0.1335219 0.1332106 0.1329797 0.1328599 0.1328504 0.1328916 0.1328983 0.1328194 0.1326649
 0.1324856 0.1323318 0.132225 0.1321603 0.1321179 0.1320575 0.1319156 0.1316257 0.1311342 0.1303948
 0.1293784 0.1281024 0.1266363 0.1250789 0.1235413 0.1221306 0.1209226 0.1199466 0.1191927 0.1186165
 0.1181505 0.1177439 0.1173992 0.1171626 0.1170805 0.1171499 0.1172852 0.1173586 0.1173141 0.117232
 0.1172571 0.1174802 0.1178898 0.1183936 0.1188729 0.1192501 0.1195188 0.1197073 0.1198333 0.1198997
 0.1198969 0.1198047 0.1196159 0.1193516 0.1190346 0.1186704 0.118259 0.1177974 0.1172739 0.1166911
 0.1160733 0.1154289 0.1147305 0.1139388 0.1130117 0.1119201 0.1107255 0.1096272 0.1088687 0.1085871
 0.108746 0.1091728 0.1096723 0.1101428 0.110548 0.1107729 0.1106628 0.1103247 0.110265 0.1110263
 0.1126618 0.1146603 0.1163899 0.1175292 0.118077 0.1181158 0.1177015 0.1168892 0.1157081 0.114142
 0.1122163 0.1100399 0.1077202 0.1053464 0.1030668 0.1010466 0.0993555 0.09797259 0.09685001 0.09600015
 0.0955541 0.09527722 0.0937278 0.08899829 0.08166026 0.07613701 0.07700534 0.08384335 0.09148559 0.09548134
 0.09566315 0.09437337 0.09324877 0.09253893 0.09214756 0.09217117 0.09271058 0.09366809 0.09474839 0.0956323
 0.09618545 0.09643763 0.09635571 0.09566756 0.09381884 0.09014843 0.08441427 0.07727952 0.07009514 0.06410687
 0.05989771 0.05739554 0.05612504 0.05548715 0.05506515 0.05481258 0.05495623 0.05572358 0.05715961 0.05915919
 0.06157885 0.06422018 0.06675275 0.06884099 0.07040549 0.07162467 0.0726408 0.07339385 0.07376345 0.07373826
 0.0734092 0.07289141 0.07228306 0.07163712 0.07093382 0.07010806 0.06915788 0.0682355 0.06756431 0.06722943
 0.06711494 0.0670689 0.067037 0.06701514 0.06698651 0.06694557 0.06691276 0.06692288 0.06703899 0.067325
 0.06775437 0.06819755 0.06853072 0.06872529 0.0688338 0.06889807 0.06884927 0.06855851 0.06806429 0.06762454
 0.06737432 0.06706633 0.0663932 0.06548128 0.06481713 0.06471168 0.06502876 0.06541882 0.06564397 0.06566666
 0.06559353 0.06562243 0.06592831 0.06645796</values></Ydata></ScSm><ScRf><Ydata ylabel="Single channel"><values byteorder="INTEL" format="FLOAT32" numvalues="1820"> 0.06082368 0.06097759 0.061069 0.0610972 0.06108312 0.06107452 0.06113001 0.06127861 0.06149174 0.0616983
 0.06183633 0.06189356 0.06189245 0.06184772 0.0617707 0.06171144 0.06174737 0.06190611 0.06212129 0.06227946
 0.06230881 0.06223958 0.06218758 0.06224608 0.06236403 0.06235531 0.0620707 0.0615658 0.061067 0.06076211
 0.0606832 0.06083436 0.06129757 0.06201286 0.0625402 0.06237514 0.06157816 0.06079849 0.06055242 0.06072859
 0.06089533 0.06080363 0.06046199 0.06002882 0.05985333 0.06038762 0.06174161 0.06330839 0.06397766 0.06283722
 0.05982855 0.05595319 0.0528981 0.05212901 0.05386051 0.0567657 0.05897015 0.05954585 0.05895733 0.05811124
 0.0573764 0.0567021 0.05625924 0.05647944 0.05745917 0.05855435 0.0587182 0.05740403 0.05521721 0.05347893
 0.0530188 0.05366007 0.0549336 0.0565866 0.05786429 0.05710214 0.05336488 0.04851793 0.04639575 0.04915883
 0.05498832 0.05985907 0.06111745 0.05897927 0.05537117 0.05232821 0.05121256 0.05235215 0.05500155 0.0579614
 0.06029628 0.06136674 0.06067177 0.05828866 0.05529611 0.05324793 0.05321744 0.05537808 0.05896766 0.06235637
 0.06378642 0.0626711 0.05998673 0.05724286 0.05548773 0.05531123 0.05699697 0.0602289 0.06406548 0.06748088
 0.06978661 0.07070884 0.07044581 0.06954029 0.06846845 0.06755903 0.06727386 0.06792258 0.0689173 0.06900022
 0.0676129 0.06564532 0.0645207 0.06472516 0.06542183 0.06546578 0.0645605 0.06307507 0.06091566 0.05749177
 0.05307727 0.04918516 0.04705834 0.04672265 0.0478805 0.05038447 0.05317223 0.05421638 0.05274037 0.05062578
 0.05054703 0.05312108 0.0565896 0.05896731 0.05988328 0.06044098 0.0617983 0.06398338 0.06575035 0.06551756
 0.06293309 0.05975753 0.05862067 0.06043836 0.06353043 0.06568954 0.06651236 0.06714997 0.06829528 0.06910576
 0.06808478 0.06486292 0.06114059 0.05962873 0.06168543 0.0659563 0.06935923 0.06936111 0.06568027 0.06034791
 0.05612759 0.05460458 0.05576935 0.05907628 0.0640464 0.06969878 0.07429649 0.0763198 0.07556923 0.0730903
 0.0699774 0.06635535 0.06194176 0.05773225 0.05621975 0.05904273 0.06489511 0.07061402 0.07400196 0.07492579
 0.07409498 0.07171381 0.06768481 0.0629195 0.05976877 0.06019814 0.06341639 0.06631945 0.0667356 0.06540865
 0.0644085 0.06455854 0.06512079 0.06537443 0.06564993 0.06676108 0.06883123 0.07097904 0.0721648 0.07213461
 0.07147045 0.07091875 0.07071154 0.07039586 0.06947522 0.06839935 0.06850699 0.07055335 0.07366526 0.07623721
 0.07754272 0.07799594 0.07806723 0.07745394 0.075512 0.07245878 0.06986298 0.06947885 0.07154897 0.07465174
 0.07717997 0.07849913 0.07879683 0.07849591 0.07796572 0.07740749 0.07692225 0.0767692 0.07729433 0.07843449
 0.07960987 0.08030473 0.08048847 0.08035001 0.07992952 0.07920493 0.07836054 0.07777749 0.077755 0.07828957
 0.07913408 0.08001573 0.08072433 0.08106435 0.08092654 0.08044683 0.07993083 0.07957404 0.07938588 0.07937858
 0.07963821 0.08015355 0.08072774 0.08114385 0.08133971 0.08137756 0.08131798 0.08117729 0.08097303 0.08077416
 0.08069853 0.08082948 0.08111417 0.08139929 0.08160964 0.08182177 0.08209756 0.08232847 0.08234985 0.08216403
 0.08194946 0.08186618 0.08192769 0.08205141 0.08215224 0.08215417 0.08197533 0.08159985 0.08117921 0.08097742
 0.08116007 0.08167493 0.08234398 0.0829915 0.08347788 0.08372894 0.08378841 0.08376998 0.08372414 0.08360533
 0.08338319 0.08314139 0.08304863 0.08323166 0.08366205 0.08417165 0.08458778 0.08483686 0.08493777 0.08496949
 0.08504533 0.08522294 0.08541689 0.0854813 0.08539839 0.08531167 0.08535317 0.08549447 0.08559328 0.0855599
 0.08545791 0.08543734 0.08557704 0.08581387 0.08603083 0.08618535 0.08633142 0.08652656 0.08673114 0.08681869
 0.08671188 0.08649096 0.08631743 0.08626175 0.08627386 0.08631672 0.08643463 0.08665478 0.08689553 0.08703598
 0.08705288 0.08703925 0.08708412 0.08716585 0.08718308 0.08707392 0.08688066 0.08670494 0.08662514 0.08665491
 0.08674906 0.08683318 0.08684458 0.08676872 0.08664304 0.08652161 0.08643645 0.0864004 0.08643993 0.08659251
 0.08684184 0.08706982 0.08712069 0.08694188 0.08665019 0.08643337 0.08637886 0.0864066 0.08636695 0.08618717
 0.08591602 0.08565086 0.08545146 0.08531904 0.08522554 0.08514807 0.0850939 0.08510412 0.08521038 0.08536671
 0.08544782 0.08535358 0.08511055 0.0848438 0.08465961 0.0845801 0.08456691 0.08456925 0.08456394 0.08457776
 0.08464918 0.08475146 0.08479457 0.08472931 0.08461182 0.08454622 0.08460085 0.08478026 0.08502067 0.08520314
 0.0852325 0.08512977 0.08501127 0.08496781 0.08499832 0.08506015 0.08513461 0.08522422 0.08532216 0.08541942
 0.08553307 0.0857009 0.08594018 0.08621963 0.0864744 0.08665056 0.08674723 0.08682704 0.08697642 0.08723849
 0.08757722 0.08790864 0.08816934 0.08836058 0.08853012 0.08871333 0.08890343 0.08908927 0.08929991 0.08957711
 0.08991201 0.09024659 0.09053972 0.09080252 0.09106775 0.09135161 0.09165215 0.09197212 0.09233364 0.09275705
 0.09321214 0.09360814 0.09386595 0.0940006 0.09411433 0.09431423 0.0946401 0.09503786 0.09538393 0.09557775
 0.09564805 0.09573685 0.09594453 0.09622507 0.09647453 0.09668789 0.09696509 0.09736759 0.0978255 0.09820656
 0.09844871 0.09860542 0.09877253 0.09898432 0.09918606 0.09931039 0.0993665 0.09942959 0.09954914 0.09971398
 0.09991962 0.1002114 0.1006159 0.1010683 0.1014593 0.1017362 0.1019218 0.1020575 0.1021666 0.1022548
 0.1023159 0.102347 0.1023753 0.1024408 0.1025403 0.102621 0.102653 0.1026754 0.1027498 0.1028977
 0.1031099 0.1033813 0.1036963 0.1040051 0.1042681 0.1045218 0.104844 0.1052334 0.1055736 0.1057568
 0.1058033 0.1058127 0.1058363 0.1058632 0.1059106 0.1060458 0.106305 0.106647 0.107006 0.1073562
 0.1077059 0.1080536 0.1083664 0.1085928 0.1086966 0.1086895 0.108638 0.1086344 0.1087521 0.1090079
 0.109351 0.1096956 0.1099763 0.1101697 0.1102665 0.1102591 0.1101836 0.1101429 0.1102318 0.1104294
 0.1105992 0.1106041 0.110401 0.1100218 0.1095055 0.1088799 0.1081938 0.1075313 0.1069783 0.1065833
 0.1063602 0.1063283 0.1065285 0.1069781 0.107615 0.1083146 0.1089633 0.1094866 0.1098067 0.1098279
 0.1095067 0.1089117 0.1081817 0.1074401 0.1067552 0.1061419 0.105568 0.1049941 0.104458 0.1041127
 0.1041549 0.1047078 0.1057589 0.10717 0.1087237 0.1101933 0.1114278 0.1124037 0.1131988 0.1139079
 0.1145821 0.1152406 0.115904 0.1165803 0.1172304 0.117795 0.1182626 0.118678 0.1190824 0.1194717
 0.1198165 0.1200975 0.120324 0.1205331 0.1207526 0.120951 0.1210513 0.1210162 0.1208941 0.1207607
 0.1206382 0.1204857 0.1202449 0.1198857 0.1194418 0.1190347 0.118852 0.1190664 0.1197387 0.1207842
 0.122037 0.1233506 0.1246318 0.1257968 0.1267482 0.1274284 0.127873 0.1281831 0.1284531 0.128734
 0.1290383 0.1293537 0.1296567 0.1299338 0.1301937 0.1304631 0.1307699 0.1311203 0.1314819 0.1318016
 0.1320536 0.1322731 0.1325325 0.1328778 0.1332843 0.1336803 0.1340204 0.1343261 0.1346386 0.1349473
 0.1351997 0.1353763 0.1355241 0.1357135 0.1359869 0.1363418 0.1367287 0.1370694 0.1373125 0.1374792
 0.1376367 0.13783 0.138058 0.1383041 0.1385597 0.1388176 0.1390687 0.139319 0.139594 0.1399065
 0.1402221 0.1404786 0.1406471 0.1407656 0.1409016 0.1410889 0.141308 0.1415216 0.1417192 0.1419289
 0.1421881 0.1424987 0.1428138 0.1430719 0.1432482 0.14337 0.1434896 0.1436459 0.1438472 0.1440765
 0.1443075 0.1445187 0.144705 0.1448815 0.1450735 0.1452937 0.1455308 0.145761 0.1459706 0.1461654
 0.1463612 0.1465685 0.1467907 0.1470339 0.1473079 0.147608 0.1479009 0.1481438 0.1483198 0.1484488
 0.1485653 0.1486954 0.1488505 0.1490306 0.149229 0.1494359 0.149644 0.1498519 0.1500618 0.1502751
 0.1504878 0.1506946 0.1508948 0.1510938 0.1513 0.1515215 0.1517603 0.1520056 0.1522372 0.152441
 0.1526207 0.1527954 0.1529839 0.1531901 0.1533995 0.1535933 0.1537674 0.1539354 0.1541136 0.1543058
 0.1545045 0.1547004 0.1548897 0.1550751 0.1552629 0.1554584 0.1556612 0.1558658 0.1560669 0.156267
 0.1564726 0.1566845 0.1568938 0.1570929 0.1572848 0.1574784 0.1576806 0.1578932 0.1581122 0.1583267
 0.1585247 0.1587028 0.1588693 0.1590378 0.1592177 0.1594105 0.1596125 0.1598199 0.1600287 0.1602325
 0.1604277 0.1606176 0.1608087 0.1610054 0.1612117 0.1614315 0.1616607 0.1618864 0.162099 0.1623015
 0.162504 0.1627137 0.1629309 0.1631522 0.1633763 0.1636042 0.1638333 0.1640573 0.1642723 0.1644781
 0.1646727 0.1648554 0.1650333 0.165215 0.1654 0.1655816 0.1657558 0.1659237 0.16609 0.166262
 0.1664438 0.1666322 0.1668228 0.1670161 0.1672124 0.1674092 0.1676049 0.1678014 0.1680033 0.1682159
 0.1684379 0.1686568 0.1688599 0.169049 0.169236 0.1694292 0.1696307 0.1698386 0.1700477 0.1702557
 0.1704669 0.1706843 0.1709041 0.1711231 0.1713429 0.1715615 0.1717737 0.1719797 0.1721852 0.1723951
 0.1726121 0.1728335 0.1730522 0.1732669 0.1734838 0.1737016 0.1739092 0.1741053 0.174303 0.1745116
 0.1747303 0.174955 0.1751782 0.1753934 0.1756043 0.1758185 0.1760337 0.1762452 0.1764562 0.176667
 0.1768716 0.1770708 0.1772675 0.177447 0.177567 0.1775182 0.1770159 0.1754918 0.1720905 0.1658511
 0.1560927 0.1428472 0.1269988 0.1099677 0.09318735 0.07773729 0.06424844 0.05299573 0.04404007 0.03731218
 0.03265934 0.02993791 0.02912624 0.0304393 0.03443377 0.04167057 0.0514929 0.06095163 0.06595163 0.0644824
 0.05854366 0.05232461 0.04871759 0.04791745 0.04867997 0.04995032 0.05139767 0.05321547 0.05573554 0.0590551
 0.0630198 0.06762803 0.07322467 0.0800591 0.08776398 0.09551525 0.1027435 0.1095791 0.1165635 0.1239976
 0.1316257 0.1388856 0.1453552 0.1509587 0.1558762 0.1603473 0.1645342 0.1685045 0.1722844 0.1758654
 0.1791242 0.1817869 0.1835609 0.1843593 0.1844078 0.1841205 0.1838585 0.1837855 0.183907 0.1841837
 0.1845903 0.1851181 0.1857653 0.1865205 0.1873467 0.1881937 0.1890246 0.1898222 0.190579 0.191294
 0.191969 0.1925992 0.1931768 0.1937001 0.1941736 0.1946031 0.1949981 0.1953714 0.1957314 0.1960792
 0.1964123 0.1967248 0.1970121 0.1972798 0.1975386 0.1977895 0.1980261 0.1982495 0.1984683 0.1986869
 0.1989027 0.1991117 0.1993108 0.1995008 0.1996903 0.1998901 0.2001027 0.2003195 0.2005276 0.2007174
 0.2008903 0.2010604 0.2012422 0.201437 0.2016367 0.2018351 0.2020307 0.2022218 0.2024068 0.2025877
 0.202769 0.2029557 0.2031482 0.2033394 0.2035249 0.2037134 0.2039182 0.2041417 0.2043772 0.2046198
 0.204863 0.2050937 0.2053053 0.2055043 0.2056941 0.2058654 0.2060137 0.2061578 0.2063271 0.2065355
 0.2067701 0.2070058 0.2072284 0.2074398 0.2076443 0.2078398 0.2080247 0.2082023 0.2083797 0.2085738
 0.2088036 0.2090634 0.2093205 0.2095557 0.2097807 0.2100086 0.2102373 0.2104683 0.2107046 0.2109231
 0.211088 0.2112061 0.2113462 0.2115855 0.2119353 0.2123238 0.2126623 0.2129228 0.2131406 0.2133615
 0.2136094 0.2138656 0.2140463 0.2140627 0.2139641 0.2139617 0.2142356 0.2147555 0.2153383 0.2158357
 0.2162197 0.2165332 0.2168126 0.2170481 0.2171922 0.2172105 0.217154 0.2171761 0.21743 0.2179157
 0.2184667 0.2189192 0.2192419 0.2194833 0.2196814 0.2198565 0.2199718 0.2198801 0.2194784 0.2189827
 0.2188716 0.2194217 0.2203938 0.221288 0.2218398 0.2221547 0.2224246 0.222697 0.2229278 0.2230233
 0.2227311 0.2217838 0.2204098 0.2194761 0.2197701 0.2212049 0.2229675 0.2243378 0.2251426 0.2255652
 0.2258286 0.2260485 0.226146 0.2258559 0.2250231 0.2239971 0.2235416 0.2241308 0.2254157 0.2265974
 0.2272425 0.22751 0.2277193 0.2279952 0.2281884 0.2278293 0.2263898 0.2240611 0.2221501 0.222156
 0.2242984 0.2272539 0.2294703 0.230501 0.2308753 0.2309528 0.230397 0.2287859 0.2262564 0.2234398
 0.221248 0.2207454 0.2224495 0.2254515 0.2279294 0.2289435 0.2292305 0.2299943 0.2314726 0.2329514
 0.2336924 0.2335002 0.232596 0.2312146 0.2294927 0.2278468 0.2272009 0.2283338 0.2309376 0.2337248
 0.235617 0.2365639 0.2369882 0.2365312 0.2337942 0.2280208 0.2212086 0.2175605 0.2197768 0.2262288
 0.2327058 0.2365582 0.2381577 0.2389167 0.2393902 0.2391226 0.2369294 0.2315515 0.2236428 0.2170123
 0.2160506 0.2213901 0.2291917 0.2347231 0.2355691 0.2318902 0.2255993 0.2198013 0.2175129 0.2198303
 0.2254529 0.2319672 0.2372913 0.2402525 0.2405837 0.2388103 0.236208 0.2344865 0.2345462 0.2351404
 0.2338293 0.230057 0.2260794 0.2236648 0.2213742 0.2172282 0.2130391 0.2132215 0.2190477 0.2265091
 0.2308133 0.2312484 0.2303364 0.2292593 0.2258531 0.2177227 0.2067572 0.1992514 0.2004004 0.2089024
 0.2181171 0.2225744 0.2223267 0.221015 0.221012 0.2210011 0.217832 0.2106285 0.202907 0.1996337
 0.201946 0.2061346 0.2080455 0.2063988 0.2013568 0.1931997 0.1847051 0.1820149 0.1894712 0.204316
 0.2188392 0.2267217 0.2253659 0.2145403 0.1972768 0.1817255 0.177203 0.1858574 0.2000564 0.2093934
 0.208954 0.2002418 0.1867435 0.1715192 0.1585798 0.1533712 0.1595437 0.1752274 0.1930037 0.2035808
 0.2009537 0.187103 0.1724331 0.1683007 0.1766613 0.1886769 0.1945813 0.1925348 0.187286 0.1840828
 0.1856417 0.1916031 0.1989153 0.2047168 0.2086194 0.2094963 0.2024309 0.1846228 0.1632037 0.150533
 0.1513722 0.1604717 0.1724503 0.1866189 0.2005084 0.2065641 0.2006626 0.1899109 0.1865766 0.1950575
 0.2081236 0.2157596 0.2150781 0.2108277 0.2080905 0.206888 0.2047087 0.2023462 0.2041132 0.2118733
 0.221775 0.2285549 0.2310197 0.2315572 0.2320977 0.2326504 0.2326752 0.2319761 0.230625 0.2290884
 0.2280787 0.2277523 0.2275665 0.2271028 0.2260357 0.2228808 0.2153172 0.2034469 0.1918594 0.1859844
 0.1863308 0.1888757 0.1910513 0.1932451 0.1932171 0.1845166 0.1649987 0.1438307 0.13482 0.1430691
 0.1611772 0.1776872 0.1858653 0.1842898 0.173443 0.1559214 0.1391516 0.133048 0.1419239 0.1603609
 0.1790075 0.1926299 0.2006682 0.2027614 0.197801 0.1871365 0.175821 0.1697054 0.1718959 0.1814136
 0.1935031 0.2008232 0.1970505 0.1831875 0.1703199 0.1714074 0.1876739 0.2065461 0.2157857 0.2158704
 0.2149722 0.2162553 0.2163376 0.2142516 0.2150063 0.2227459 0.2346725 0.2438063 0.2451143 0.2374989
 0.2231459 0.2080126 0.2002682 0.2037095 0.2133784 0.2208962 0.2225377 0.2187397 0.2091688 0.1947799
 0.1830253 0.1833745 0.1963447 0.2122738 0.2223029 0.2264512 0.2295699 0.2329941 0.2329178 0.2261451
 0.2154116 0.2076927 0.2073142 0.2121844 0.2173621 0.2202663 0.2207178 0.2180028 0.2113137 0.2031046
 0.1991207 0.2034164 0.2141418 0.2252368 0.23182 0.2332413 0.2316937 0.2293573 0.2269203 0.223731
 0.2192508 0.2149557 0.214055 0.2180695 0.2244291 0.2291228 0.2312899 0.2335041 0.2377117 0.2425468
 0.2449958 0.2436836 0.2401794 0.2376334 0.2382568 0.2415674 0.2447429 0.2450282 0.2423572 0.2396604
 0.2401639 0.2443112 0.2496945 0.2537965 0.2560406 0.2572784 0.2583215 0.2592261 0.2592394 0.2573652
 0.2537755 0.2506375 0.2505778 0.254078 0.259019 0.2628748 0.2647564 0.2652695 0.2651262 0.2644042
 0.2629513 0.2610517 0.2594487 0.2587585 0.2590293 0.2598882 0.2609308 0.261889 0.2626155 0.2630851
 0.2633721 0.2635522 0.2636602 0.2637362 0.2638156 0.2638531 0.2637672 0.2636043 0.2635591 0.2637612
 0.2641085 0.2643788 0.2644361 0.2642391 0.2637176 0.2627879 0.2614968 0.2600199 0.2584668 0.2568023
 0.2550734 0.2536742 0.2532341 0.2541419 0.2561762 0.2586362 0.2608228 0.2623954 0.2633602 0.2638711
 0.2640945 0.2641707 0.2641882 0.2641613 0.2640565 0.2638488 0.2635466 0.2631756 0.2627625 0.2623411
 0.2619566 0.2616411 0.2613806 0.2611161 0.260784 0.2603582 0.2598606 0.2593348 0.2588047 0.2582445
 0.257594 0.2568098 0.2559054 0.2549454 0.2540081 0.2531472 0.2523651 0.2516154 0.2508432 0.2500204
 0.2491276 0.2481244 0.2469907 0.2458039 0.2447232 0.2438601 0.2431867 0.2425829 0.2419399 0.2411989
 0.2403385 0.239372 0.2383402 0.2372779 0.2361898 0.2350674 0.2339025 0.2326752 0.2313541 0.2299233
 0.2283947 0.2267938 0.2251494 0.2234868 0.2218003 0.2200254 0.2180489 0.2157415 0.2129788 0.2096572
 0.205734 0.2012736 0.1964499 0.1914905 0.1866022 0.1819375 0.1776104 0.1737205 0.1703548 0.1675838
 0.1654648 0.1640401 0.1633275 0.1633224 0.1640075 0.1653499 0.167286 0.1697121 0.1724876 0.1754504
 0.1784336 0.1812872 0.1839127 0.1863032 0.1885313 0.1906616 0.1926756 0.1945034 0.1961118 0.1975255
 0.1987699 0.1998371 0.2007147 0.2014226 0.202005 0.2024967 0.2029098 0.2032512 0.2035377 0.2037849
 0.2039969 0.2041819 0.2043657 0.2045737 0.2048092 0.2050608 0.2053255 0.2056173 0.2059628 0.2063842
 0.2068787 0.2074174 0.2079732 0.2085433 0.2091435 0.2097924 0.2105098 0.2113249 0.212273 0.213377
 0.2146279 0.215982 0.2173728 0.2187196 0.2199299 0.2209228 0.2216647 0.2221735 0.2224821 0.2226095
 0.2225654 0.2223684 0.2220505 0.2216456 0.2211764 0.2206508 0.22007 0.2194386 0.2187649 0.2180588
 0.2173351 0.2166146 0.2159161 0.2152435 0.2145859 0.2139322 0.213287 0.2126678 0.2120866 0.2115351
 0.2109889 0.2104258 0.2098426 0.2092571 0.2086866 0.2081183 0.2075027 0.2067845 0.2059438 0.2050031
 0.2039904 0.2029013 0.201708 0.2004019 0.199008 0.1975535 0.196038 0.1944474 0.1927836 0.1910602
 0.1892706 0.187384 0.1853923 0.1833533 0.1813698 0.1795208 0.1778193 0.1762321 0.1747248 0.173287
 0.1719249 0.1706382 0.1694114 0.168231 0.167103 0.1660406 0.1650424 0.1640942 0.1631929 0.1623607
 0.1616342 0.161033 0.1605378 0.1601069 0.1597123 0.1593543 0.1590572 0.1588608 0.1587934 0.1588317
 0.1589015 0.1589303 0.1588849 0.1587695 0.1586153 0.1584712 0.1583751 0.1583288 0.1583018 0.158243
 0.1580884 0.1577719 0.1572293 0.1563941 0.1552189 0.1537156 0.1519609 0.1500719 0.148193 0.1464752
 0.1450257 0.14388 0.1430207 0.1423955 0.141924 0.1415351 0.141213 0.141001 0.1409616 0.1411075
 0.1413434 0.14151 0.1415357 0.1415232 0.1416574 0.1420549 0.1427039 0.1434904 0.1442671 0.1449334
 0.1454593 0.1458419 0.1460885 0.1462351 0.1463195 0.1463342 0.1462484 0.1460555 0.145773 0.1454269
 0.1450447 0.144626 0.1441329 0.1435409 0.1428663 0.1421275 0.1413283 0.1404646 0.1394947 0.1383564
 0.1370989 0.1359529 0.1352058 0.1350299 0.135416 0.1362035 0.1371944 0.1382776 0.1393745 0.1402621
 0.1406615 0.140642 0.1407949 0.1418017 0.1438031 0.146257 0.1484134 0.1498505 0.1505459 0.1506099
 0.1501318 0.1491863 0.1477835 0.1458532 0.1433961 0.140555 0.1374845 0.134317 0.1312634 0.1285505
 0.1262776 0.1244478 0.1230433 0.1220898 0.1217088 0.1215247 0.1196323 0.1135945 0.1042208 0.09723473
 0.09844485 0.1072062 0.1168875 0.1218753 0.1220328 0.1203619 0.1189132 0.1179672 0.1174037 0.117386
 0.118069 0.1193148 0.120731 0.121916 0.1226983 0.1230995 0.123065 0.1222364 0.1198857 0.1151581
 0.1077606 0.09857018 0.0893439 0.08168869 0.07632454 0.07311749 0.07146187 0.07063348 0.0701216 0.06986278
 0.07014981 0.07126766 0.07323688 0.07589224 0.07905883 0.08250833 0.08583997 0.08864321 0.09081297 0.09254146
 0.09397738 0.09504105 0.09558891 0.09561253 0.09523206 0.09459795 0.0938452 0.09305972 0.09221394 0.09118643
 0.08995 0.08872947 0.08785716 0.08745532 0.08736125 0.08735697 0.08734871 0.08732885 0.08729797 0.08725296
 0.08719219 0.08714876 0.08723149 0.08755064 0.08806841 0.08859267 0.08894344 0.08909032 0.08912419 0.08909128
 0.0888582 0.08824834 0.08737192 0.08662457 0.0861797 0.08567663 0.0846807 0.08333272 0.08226635 0.08192299
 0.08216342 0.08252513 0.08265531 0.0824808 0.08217131 0.08205048 0.08238515 0.08308069 0.08365917 0.08369974
</values></Ydata></ScRf><Data_Parameters_AB><parameter name="DPF">1</parameter><parameter name="NPT">3497</parameter><parameter name="FXV">3996</parameter><parameter name="LXV">500</parameter><parameter name="CSF">1</parameter><parameter name="MXY">0.185749173164368</parameter><parameter name="MNY">0.0150516806170344</parameter><parameter name="DAT">02/06/2022</parameter><parameter name="TIM">13:58:04.667 (GMT+2)</parameter><parameter name="DXU">WN</parameter></Data_Parameters_AB><AB__Qtest><MainReport name="Quality Test Report"><Header><Line><Legend>Test result ok/not ok [1/0]: </Legend><Value>0</Value></Line><Line><Legend>Method file: </Legend><Value>C:\Users\Public\Documents\Bruker\OPUS_8.2.28\QT\IRBT_v3_default.QT</Value></Line></Header><Matrix><Line><Legend></Legend><Legend>min</Legend><Legend>max</Legend><Legend>measured</Legend></Line><Line><Value>Absorption (X-Range 1):</Value><Value>0.400000</Value><Value>2.000000</Value><Value>0.154468</Value></Line><Line><Value>Noise (X-Range 4):</Value><Value></Value><Value>0.000300</Value><Value>0.000056</Value></Line><Line><Value>Signal/Noise (X-Range 2):</Value><Value>200.000000</Value><Value></Value><Value>78.422260</Value></Line><Line><Value>Signal/Noise (X-Range 3):</Value><Value>40.000000</Value><Value></Value><Value>35.814471</Value></Line><Line><Value>Water vapour (X-Range 5):</Value><Value></Value><Value>0.000300</Value><Value>0.000071</Value></Line><Line><Value>Signal/Water (X-Range 2):</Value><Value>100.000000</Value><Value></Value><Value>61.107603</Value></Line><Line><Value>Signal/Water (X-Range 3):</Value><Value>20.000000</Value><Value></Value><Value>27.907082</Value></Line><Line><Value>Fringes (X-Range 6):</Value><Value></Value><Value>0.000100</Value><Value>0.000060</Value></Line></Matrix></MainReport></AB__Qtest><Data_Parameters_ScSm><parameter name="DPF">1</parameter><parameter name="NPT">1814</parameter><parameter name="FXV">3996.33169228125</parameter><parameter name="LXV">499.541461535156</parameter><parameter name="CSF">1</parameter><parameter name="MXY">0.222853541374207</parameter><parameter name="MNY">0.0274893753230572</parameter><parameter name="DAT">02/06/2022</parameter><parameter name="TIM">13:58:04.667 (GMT+2)</parameter><parameter name="DXU">WN</parameter></Data_Parameters_ScSm><Data_Parameters_ScRf><parameter name="DPF">1</parameter><parameter name="NPT">1820</parameter><parameter name="FXV">4004.04661832813</parameter><parameter name="LXV">495.683998511719</parameter><parameter name="CSF">1</parameter><parameter name="MXY">0.265269458293915</parameter><parameter name="MNY">0.0291262399405241</parameter><parameter name="DAT">02/06/2022</parameter><parameter name="TIM">13:57:38.016 (GMT+2)</parameter><parameter name="DXU">WN</parameter></Data_Parameters_ScRf><Optic_Parameters_Rf><parameter name="APR">0</parameter><parameter name="APT">Open</parameter><parameter name="BMS">KBr</parameter><parameter name="DTC">RT-DLaTGS_IR-Biotyper [Microplate reader]</parameter><parameter name="HPF">0</parameter><parameter name="LPF">10.0</parameter><parameter name="LPV">4000</parameter><parameter name="PGR">0</parameter><parameter name="RCH">Module port</parameter><parameter name="RDX">0</parameter><parameter name="SRC">MIR</parameter><parameter name="VEL">10.0</parameter><parameter name="SON">Off</parameter></Optic_Parameters_Rf><Acquisition_Parameters_Rf><parameter name="ADT">1</parameter><parameter name="AQM">DD</parameter><parameter name="CFE">0</parameter><parameter name="COR">0</parameter><parameter name="DEL">0</parameter><parameter name="DLY">0</parameter><parameter name="HFW">8000</parameter><parameter name="LFW">0</parameter><parameter name="NSR">32</parameter><parameter name="PLF">AB</parameter><parameter name="RES">6</parameter><parameter name="RGN">-1</parameter><parameter name="STR">0</parameter><parameter name="TCL">MakeCompatibleScalar (0, {WSV=1.000000, ARV=0});</parameter><parameter name="TDL">37</parameter><parameter name="RPO">0</parameter></Acquisition_Parameters_Rf><FT_-_Parameters_Rf><parameter name="APF">B3</parameter><parameter name="HFQ">500</parameter><parameter name="LFQ">4000</parameter><parameter name="NLI">0</parameter><parameter name="PHR">24</parameter><parameter name="PHZ">ML</parameter><parameter name="SPZ">NO</parameter><parameter name="ZFF">1</parameter></FT_-_Parameters_Rf><Optic_Parameters_><parameter name="APR">0</parameter><parameter name="APT">Open</parameter><parameter name="BMS">KBr</parameter><parameter name="CHN">Module port</parameter><parameter name="DTC">RT-DLaTGS_IR-Biotyper [Microplate reader]</parameter><parameter name="HPF">0</parameter><parameter name="LPF">10.0</parameter><parameter name="LPV">4000</parameter><parameter name="PGN">0</parameter><parameter name="RDX">0</parameter><parameter name="SRC">MIR</parameter><parameter name="VEL">10.0</parameter><parameter name="SON">Off</parameter></Optic_Parameters_><FT_-_Parameters_><parameter name="APF">B3</parameter><parameter name="HFQ">500</parameter><parameter name="LFQ">4000</parameter><parameter name="NLI">0</parameter><parameter name="PHR">24</parameter><parameter name="PHZ">ML</parameter><parameter name="SPZ">NO</parameter><parameter name="ZFF">1</parameter></FT_-_Parameters_><Acquisition_Parameters_><parameter name="ADT">1</parameter><parameter name="AQM">DD</parameter><parameter name="CFE">0</parameter><parameter name="COR">0</parameter><parameter name="DEL">0</parameter><parameter name="DLY">0</parameter><parameter name="HFW">8000</parameter><parameter name="LFW">0</parameter><parameter name="NSS">32</parameter><parameter name="PLF">AB</parameter><parameter name="RES">6</parameter><parameter name="SOT">0</parameter><parameter name="TCL">MakeCompatibleScalar (0, {WSV=1.000000, ARV=0});</parameter><parameter name="TDL">37</parameter><parameter name="SPO">0</parameter><parameter name="SGN">-1</parameter></Acquisition_Parameters_><Instrument_Parameters_Rf><parameter name="HFL">15800.168544</parameter><parameter name="LFL">0</parameter><parameter name="LWN">15800.168544</parameter><parameter name="ABP">32197</parameter><parameter name="SSP">1</parameter><parameter name="ARG">2</parameter><parameter name="ASG">2</parameter><parameter name="ASS">32</parameter><parameter name="GFW">16</parameter><parameter name="GBW">16</parameter><parameter name="BFW">0</parameter><parameter name="BBW">0</parameter><parameter name="PKA">7269</parameter><parameter name="PKL">4996</parameter><parameter name="PRA">7456</parameter><parameter name="PRL">5001</parameter><parameter name="P2A">1</parameter><parameter name="P2L">1</parameter><parameter name="P2R">1</parameter><parameter name="P2K">1</parameter><parameter name="DAQ">0</parameter><parameter name="AG2">1</parameter><parameter name="SSM">1</parameter><parameter name="RSN">26277</parameter><parameter name="CRR">0</parameter><parameter name="SRT">1654178258.017</parameter><parameter name="DUR">19.6389923095703</parameter><parameter name="TSC">29.2</parameter><parameter name="MVD">4.74100399017334</parameter><parameter name="AN1">0.225832363613671</parameter><parameter name="AN2">0</parameter><parameter name="VSN">2.485 Apr  4 2017</parameter><parameter name="SRN">0085</parameter><parameter name="CAM">0</parameter><parameter name="INS">IR-Biotyper</parameter><parameter name="FOC">69</parameter><parameter name="RDY">1</parameter><parameter name="ARS">32</parameter></Instrument_Parameters_Rf><Sample_Parameters_><parameter name="BLD"></parameter><parameter name="CNM">Admin</parameter><parameter name="CPY"></parameter><parameter name="DPM"></parameter><parameter name="EXP">IRBT_v3_32Scans.XPM</parameter><parameter name="LCT"></parameter><parameter name="SFM">Microplate, HTS-XT</parameter><parameter name="SNM">220602-1248_CLA33F (D_22)_D11_9b652ddd-d99a-4626-b0f8-ad60dcb5ea3c.0</parameter><parameter name="XPP">C:\Users\Public\Documents\Bruker\OPUS_8.2.28\XPM</parameter><parameter name="IST">OK</parameter><parameter name="CPG">1252</parameter><parameter name="UID">1619190d-d11a-47e5-b896-b5e0d1bce91d</parameter></Sample_Parameters_><Instrument_Parameters_><parameter name="HFL">15800.168544</parameter><parameter name="LFL">0</parameter><parameter name="LWN">15800.168544</parameter><parameter name="ABP">32197</parameter><parameter name="SSP">1</parameter><parameter name="ASG">4</parameter><parameter name="ARG">2</parameter><parameter name="ASS">32</parameter><parameter name="GFW">16</parameter><parameter name="GBW">16</parameter><parameter name="BFW">0</parameter><parameter name="BBW">0</parameter><parameter name="PKA">6057</parameter><parameter name="PKL">4988</parameter><parameter name="PRA">6309</parameter><parameter name="PRL">4993</parameter><parameter name="P2A">1</parameter><parameter name="P2L">1</parameter><parameter name="P2R">1</parameter><parameter name="P2K">1</parameter><parameter name="DAQ">0</parameter><parameter name="AG2">1</parameter><parameter name="SSM">1</parameter><parameter name="RSN">13764</parameter><parameter name="CRR">0</parameter><parameter name="SRT">1654178284.668</parameter><parameter name="DUR">19.6389923095703</parameter><parameter name="TSC">29.2</parameter><parameter name="MVD">0.429205417633057</parameter><parameter name="AN1">0.225823221812596</parameter><parameter name="AN2">0</parameter><parameter name="VSN">2.485 Apr  4 2017</parameter><parameter name="SRN">0085</parameter><parameter name="CAM">0</parameter><parameter name="INS">IR-Biotyper</parameter><parameter name="FOC">69</parameter><parameter name="RDY">1</parameter></Instrument_Parameters_><History/></OPUSDataFile>
