<?xml version="1.0" encoding="UTF-8" ?>
<OPUSDataFile><AB><Ydata ylabel="Absorbance Units"><values byteorder="INTEL" format="FLOAT32" numvalues="3497"> -0.05117437 -0.05119639 -0.0512101 -0.0512156 -0.05121144 -0.05119754 -0.05117462 -0.05114279 -0.05110287 -0.05105589
 -0.05100741 -0.05095963 -0.05092387 -0.05089999 -0.05089504 -0.05090338 -0.05091966 -0.05093757 -0.05094659 -0.05094763
 -0.05093619 -0.0509206 -0.05090406 -0.05089282 -0.0508907 -0.05089703 -0.05091243 -0.05093492 -0.05096408 -0.0510005
 -0.05104455 -0.05109165 -0.05114156 -0.05118013 -0.05120692 -0.05121112 -0.05119517 -0.05116737 -0.05113151 -0.05110719
 -0.05109243 -0.05109433 -0.05110444 -0.05111131 -0.05111108 -0.05109152 -0.05106235 -0.05102558 -0.05099506 -0.0509813
 -0.05098277 -0.05100465 -0.05102775 -0.05104868 -0.05105101 -0.05102976 -0.05099015 -0.05093114 -0.05087386 -0.05081946
 -0.05078668 -0.05077536 -0.05078838 -0.0508231 -0.05086556 -0.05091295 -0.05094665 -0.0509682 -0.05097026 -0.05095984
 -0.05094486 -0.05093166 -0.050933 -0.05094462 -0.05097048 -0.05099491 -0.05101045 -0.05100629 -0.05097346 -0.05092185
 -0.05084975 -0.05078048 -0.05071704 -0.05067923 -0.05066941 -0.05069853 -0.05076736 -0.05087622 -0.05102357 -0.05119075
 -0.05137241 -0.05152668 -0.05164943 -0.05169876 -0.05168441 -0.05160477 -0.05148039 -0.05134546 -0.05121177 -0.05110869
 -0.0510328 -0.05099395 -0.05097592 -0.05097421 -0.05096987 -0.0509523 -0.0509212 -0.05087101 -0.05082472 -0.05078521
 -0.05077071 -0.05078503 -0.05081521 -0.05086079 -0.05089139 -0.0509068 -0.05089727 -0.05086682 -0.05083564 -0.05080715
 -0.05080667 -0.05083039 -0.05088448 -0.0509572 -0.05103199 -0.05109916 -0.05113818 -0.05115269 -0.05113764 -0.05110239
 -0.05105084 -0.05098929 -0.05091865 -0.05085256 -0.05079168 -0.05076189 -0.05076697 -0.05083008 -0.05095607 -0.05113418
 -0.0513647 -0.05155699 -0.051706 -0.05170959 -0.05158289 -0.05137197 -0.05109646 -0.05085852 -0.05065577 -0.05053467
 -0.05048186 -0.05049926 -0.05056477 -0.05065536 -0.05074841 -0.05081436 -0.05085301 -0.05085117 -0.05083327 -0.05080632
 -0.05078606 -0.05078099 -0.05078162 -0.05078831 -0.05078644 -0.05077377 -0.05075051 -0.05071643 -0.05068517 -0.05065736
 -0.05064543 -0.05064816 -0.05066523 -0.05069261 -0.05071558 -0.05072968 -0.05071507 -0.050673 -0.05059338 -0.05048812
 -0.05036435 -0.05024125 -0.05013643 -0.05006393 -0.05003867 -0.05005885 -0.05013097 -0.0502339 -0.05036614 -0.05049649
 -0.05061946 -0.05071434 -0.05077776 -0.05080551 -0.05079706 -0.05075676 -0.05068528 -0.05059348 -0.05048246 -0.0503649
 -0.05024114 -0.05011833 -0.04999819 -0.04988721 -0.04979002 -0.04971829 -0.04967319 -0.04966422 -0.04968015 -0.04971747
 -0.04975831 -0.04979027 -0.04980681 -0.04979998 -0.0497795 -0.04974569 -0.04971094 -0.04967761 -0.04965246 -0.0496365
 -0.04963355 -0.04964396 -0.04966732 -0.04970292 -0.04973947 -0.04977518 -0.04979128 -0.04978895 -0.04976094 -0.04971322
 -0.04965745 -0.04959819 -0.04954973 -0.04951121 -0.04948693 -0.04947581 -0.04947624 -0.04949422 -0.04953139 -0.04959748
 -0.04969903 -0.04983214 -0.05000162 -0.05017792 -0.05035846 -0.05050771 -0.05062068 -0.05068617 -0.05070323 -0.05066274
 -0.05056429 -0.05039543 -0.05016217 -0.04989732 -0.04961259 -0.04937374 -0.04918335 -0.04908551 -0.04906699 -0.04913156
 -0.04924704 -0.04937591 -0.04949303 -0.04955699 -0.04958026 -0.04955623 -0.04950878 -0.04944715 -0.0493827 -0.04932082
 -0.04926369 -0.04921264 -0.04916659 -0.04912548 -0.04908882 -0.04905653 -0.04903172 -0.04901462 -0.04901016 -0.04901788
 -0.04903816 -0.04906806 -0.04909688 -0.04912006 -0.04911817 -0.04909366 -0.04903931 -0.04896614 -0.04888575 -0.04880432
 -0.04873269 -0.0486682 -0.04861332 -0.04856071 -0.04850797 -0.04844959 -0.04838242 -0.04830981 -0.04823108 -0.04815571
 -0.04808513 -0.04802131 -0.0479648 -0.04790036 -0.04782714 -0.04772703 -0.04760292 -0.04746614 -0.0473226 -0.04720455
 -0.04711094 -0.04705629 -0.04703489 -0.04704342 -0.0470761 -0.04712592 -0.04718438 -0.04724343 -0.04729211 -0.04732116
 -0.04732619 -0.0473028 -0.04725204 -0.04717437 -0.0470656 -0.04692453 -0.0467513 -0.04654468 -0.04631832 -0.04607291
 -0.04582459 -0.04557426 -0.04533675 -0.04511387 -0.04492645 -0.04477503 -0.04467608 -0.04462224 -0.04460447 -0.04461037
 -0.04461136 -0.04460411 -0.04457169 -0.04451818 -0.04444365 -0.0443452 -0.04422121 -0.04406912 -0.04388395 -0.04367972
 -0.04345844 -0.0432356 -0.04301472 -0.04280272 -0.04260068 -0.04241385 -0.04224271 -0.04208942 -0.04195377 -0.04183038
 -0.0417186 -0.04161153 -0.04150806 -0.04140192 -0.041288 -0.04114908 -0.04098161 -0.04076497 -0.04051454 -0.0402383
 -0.03996018 -0.03970625 -0.03948544 -0.03931417 -0.0391813 -0.0390906 -0.03901185 -0.03893853 -0.03884228 -0.03871422
 -0.03855531 -0.03836336 -0.03815707 -0.03793772 -0.03771413 -0.03748626 -0.03724957 -0.03700426 -0.03674893 -0.03648618
 -0.03622603 -0.03597151 -0.03573657 -0.03552146 -0.03533514 -0.03517129 -0.03502804 -0.0348917 -0.03474939 -0.03459133
 -0.03440506 -0.0341961 -0.03396299 -0.03371549 -0.03345769 -0.03318777 -0.03290578 -0.0326103 -0.03229929 -0.03199266
 -0.03169139 -0.03142098 -0.03118185 -0.03097633 -0.03080199 -0.03064125 -0.03049152 -0.03033179 -0.03016242 -0.02997189
 -0.02976595 -0.02954917 -0.02932902 -0.02911922 -0.02891852 -0.02873481 -0.02855144 -0.02836156 -0.02814779 -0.02789575
 -0.02761765 -0.02730974 -0.02700713 -0.02671684 -0.02645766 -0.02623468 -0.02603692 -0.02586441 -0.02569318 -0.02552235
 -0.02533763 -0.02513988 -0.02493015 -0.0247089 -0.02447912 -0.02423953 -0.02398701 -0.02372282 -0.02344581 -0.0231631
 -0.02288308 -0.02261316 -0.02236448 -0.02213668 -0.02193435 -0.02174962 -0.02158076 -0.02141927 -0.02126212 -0.02110506
 -0.02094678 -0.02078561 -0.02062169 -0.02044938 -0.02026847 -0.02006923 -0.0198515 -0.0196136 -0.01935746 -0.0190978
 -0.01883705 -0.01859488 -0.01837009 -0.01817055 -0.01799129 -0.01782671 -0.01767183 -0.01751747 -0.01736114 -0.01719674
 -0.01702524 -0.01684475 -0.01665947 -0.01647052 -0.01628217 -0.0160965 -0.0159133 -0.01573374 -0.01555116 -0.01536498
 -0.01516878 -0.01496172 -0.0147478 -0.01452757 -0.01431554 -0.01411207 -0.01392707 -0.01375857 -0.01360278 -0.01345786
 -0.01331603 -0.01317784 -0.0130415 -0.01290601 -0.01277038 -0.01263054 -0.01248185 -0.012323 -0.01215072 -0.01196873
 -0.01177777 -0.01158143 -0.0113806 -0.01117896 -0.01097625 -0.01078248 -0.01059886 -0.01043348 -0.01028762 -0.01015119
 -0.01002333 -0.009881492 -0.009725844 -0.009546944 -0.009348848 -0.00914526 -0.008939792 -0.008751675 -0.008578374 -0.008425094
 -0.008285279 -0.008150823 -0.008020407 -0.007887737 -0.007759984 -0.007640547 -0.007533255 -0.007443748 -0.00736095 -0.007283986
 -0.007197042 -0.007095536 -0.006977198 -0.006840052 -0.00669535 -0.006543637 -0.00639741 -0.006257182 -0.006129955 -0.006015107
 -0.005911146 -0.005815479 -0.005715024 -0.005608045 -0.005480474 -0.005337084 -0.005179405 -0.005015829 -0.0048603 -0.004713849
 -0.00458481 -0.004464549 -0.004349381 -0.004233781 -0.004112109 -0.003990678 -0.003869375 -0.003758408 -0.003660609 -0.003578026
 -0.003512157 -0.003454903 -0.003405986 -0.003353853 -0.003297942 -0.003229111 -0.003147334 -0.003048206 -0.002932634 -0.00280169
 -0.002657936 -0.002508742 -0.002358006 -0.002217539 -0.002088687 -0.001980166 -0.001886383 -0.001806565 -0.001730675 -0.001650933
 -0.001563503 -0.001461839 -0.001356655 -0.001248442 -0.001153703 -0.001077589 -0.001020804 -0.0009861274 -0.0009520992 -0.0009173092
 -0.0008631467 -0.0007893455 -0.0007078974 -0.000621526 -0.0005621761 -0.0005289724 -0.0005368688 -0.0005778873 -0.0006363287 -0.0007036554
 -0.0007535153 -0.0007848247 -0.0007831985 -0.000755352 -0.0007020856 -0.0006317262 -0.0005508575 -0.00046254 -0.0003710673 -0.0002721166
 -0.0001648857 -4.676762E-05 8.528991E-05 0.0002179189 0.0003514291 0.000458956 0.0005382319 0.0005724877 0.0005614188 0.0005172055
 0.000442479 0.0003680007 0.0002943211 0.0002415644 0.0002055615 0.0001833484 0.0001723442 0.0001637578 0.000161972 0.0001697006
 0.0001907751 0.0002334525 0.000288895 0.0003559594 0.0004186376 0.0004674177 0.0004986431 0.0005060847 0.0005046813 0.0004958288
 0.0004962175 0.0005094641 0.000535809 0.0005763542 0.0006137041 0.0006468937 0.000654349 0.0006362501 0.0005845051 0.0005031779
 0.0004069479 0.0003022289 0.0002177293 0.0001547546 0.0001329255 0.0001428214 0.0001813845 0.000233215 0.0002810031 0.0003161578
 0.0003247537 0.0003129093 0.0002782637 0.0002346592 0.0001862933 0.00014186 0.0001043321 7.573338E-05 5.619673E-05 5.091259E-05
 5.995918E-05 9.469633E-05 0.0001556148 0.0002485197 0.0003719283 0.0005143173 0.0006714896 0.000816505 0.0009455659 0.001031006
 0.001075158 0.001066241 0.001016778 0.0009376808 0.0008464569 0.0007662697 0.0007044366 0.0006774024 0.0006720697 0.000689589
 0.0007048185 0.0007097932 0.000687057 0.0006293584 0.0005395809 0.0004152485 0.0002779761 0.0001289342 -7.299877E-06 -0.0001295901
 -0.0002276591 -0.0003024256 -0.0003601315 -0.000401613 -0.0004350404 -0.0004588813 -0.0004724087 -0.0004739708 -0.000457881 -0.0004278873
 -0.0003840568 -0.0003388862 -0.0003033266 -0.0002929121 -0.0003236318 -0.0003992276 -0.0005302695 -0.0006976214 -0.0009006779 -0.001107291
 -0.001310291 -0.00148769 -0.001634091 -0.001748508 -0.001829733 -0.001890644 -0.001931967 -0.001972297 -0.002012323 -0.002067077
 -0.002134508 -0.002212947 -0.002297424 -0.00236919 -0.002428798 -0.002464342 -0.002488601 -0.002514741 -0.002556148 -0.002636411
 -0.002748566 -0.002900944 -0.003064197 -0.003227378 -0.003363511 -0.003457231 -0.003511488 -0.003519453 -0.003516438 -0.003504944
 -0.003526528 -0.003585933 -0.003696024 -0.003857228 -0.004041952 -0.004247413 -0.004432308 -0.00459758 -0.004725302 -0.004821809
 -0.004898843 -0.004960827 -0.005024652 -0.005088208 -0.005155702 -0.005223734 -0.005288885 -0.00535286 -0.005414547 -0.005480151
 -0.005552429 -0.005636008 -0.005734233 -0.005844123 -0.005967084 -0.006091127 -0.006215019 -0.00632692 -0.006425166 -0.006510476
 -0.006582929 -0.006655519 -0.006728817 -0.006814087 -0.006910039 -0.007015651 -0.007128818 -0.007241525 -0.007353638 -0.007460533
 -0.007563953 -0.007664726 -0.007764031 -0.007863805 -0.00796359 -0.008063952 -0.008163286 -0.008261386 -0.008355268 -0.008444092
 -0.008524668 -0.008595339 -0.008658489 -0.008712905 -0.008772092 -0.008836683 -0.008925041 -0.009038097 -0.009180924 -0.009351723
 -0.009531364 -0.009716446 -0.009876728 -0.01001343 -0.01011238 -0.01018196 -0.01023307 -0.01027537 -0.01032971 -0.01039885
 -0.01049558 -0.01061344 -0.01075422 -0.01090294 -0.01105518 -0.0111895 -0.01129746 -0.01136505 -0.01138344 -0.01136863
 -0.0113178 -0.01127874 -0.0112551 -0.01129022 -0.01138642 -0.01154246 -0.01175441 -0.01197445 -0.01219751 -0.01236783
 -0.0124892 -0.01254034 -0.01253849 -0.01250957 -0.01247491 -0.01248271 -0.01253699 -0.01266843 -0.01284945 -0.01307425
 -0.01330133 -0.01350466 -0.01366918 -0.01377771 -0.01385482 -0.01390225 -0.01394746 -0.01399785 -0.01404662 -0.01409518
 -0.01411392 -0.01410133 -0.01404723 -0.01395417 -0.01385075 -0.01374229 -0.01367518 -0.01365002 -0.01369679 -0.01380549
 -0.01397115 -0.01417602 -0.01438946 -0.01459934 -0.01477727 -0.01492801 -0.01504421 -0.01513947 -0.0152203 -0.01529166
 -0.01535743 -0.015416 -0.01546588 -0.01551556 -0.01556532 -0.01562901 -0.01570897 -0.01579952 -0.01590047 -0.01598547
 -0.01605403 -0.01609148 -0.01610163 -0.01609976 -0.01608963 -0.01609482 -0.01611157 -0.01614424 -0.01618426 -0.01621821
 -0.01624395 -0.01625003 -0.01624881 -0.01624295 -0.01625364 -0.01629357 -0.01637372 -0.0165055 -0.01667243 -0.01687685
 -0.0170799 -0.01727635 -0.0174341 -0.01754796 -0.0176205 -0.01765154 -0.01767567 -0.01769483 -0.01774454 -0.01782275
 -0.01793724 -0.01808085 -0.01823238 -0.01838591 -0.01851523 -0.01862235 -0.01869693 -0.01874834 -0.01878246 -0.01880946
 -0.01883973 -0.01887779 -0.01893046 -0.01899284 -0.01906625 -0.01913869 -0.01920745 -0.01926388 -0.01930467 -0.01933689
 -0.01935984 -0.01939508 -0.01944382 -0.01952144 -0.01962696 -0.01975043 -0.01988817 -0.02001148 -0.02012003 -0.02019479
 -0.0202435 -0.02027417 -0.02029641 -0.02033174 -0.02038011 -0.0204526 -0.02053799 -0.02063205 -0.02072207 -0.02080007
 -0.02085811 -0.02089174 -0.020896 -0.02086834 -0.02080879 -0.02071538 -0.02060094 -0.02046547 -0.02033388 -0.02020758
 -0.02011034 -0.02004248 -0.02001339 -0.02002115 -0.02005917 -0.02012461 -0.02020348 -0.02029441 -0.02038702 -0.02048146
 -0.02057402 -0.02066354 -0.0207481 -0.02082448 -0.02088954 -0.02094095 -0.02097641 -0.02099559 -0.0209979 -0.02098326
 -0.02095102 -0.02090406 -0.02084191 -0.02077357 -0.02069996 -0.02062784 -0.02055779 -0.02048043 -0.02039451 -0.02027876
 -0.02013326 -0.01994645 -0.01972267 -0.01947123 -0.01919762 -0.01892069 -0.01864152 -0.01837151 -0.01810672 -0.01784691
 -0.0175884 -0.01732688 -0.01706419 -0.0167992 -0.01653759 -0.0162819 -0.01603327 -0.01579346 -0.01555695 -0.01532289
 -0.01508829 -0.01485211 -0.01462136 -0.01439633 -0.01418715 -0.01399395 -0.01381981 -0.01366433 -0.01352591 -0.01340511
 -0.01330379 -0.01322171 -0.01316137 -0.01311673 -0.01308067 -0.0130424 -0.01298569 -0.01290531 -0.01278882 -0.01264413
 -0.01247049 -0.01228207 -0.01208514 -0.01188494 -0.01168596 -0.01147936 -0.01126501 -0.01102995 -0.01077237 -0.01048863
 -0.01017819 -0.009853399 -0.009515628 -0.009188406 -0.008873279 -0.00859285 -0.008345925 -0.008141405 -0.007974169 -0.007836564
 -0.007722633 -0.007616712 -0.007520587 -0.007424533 -0.007349225 -0.007301066 -0.007321225 -0.007431912 -0.007671473 -0.008065511
 -0.008611001 -0.009321877 -0.01013603 -0.01105119 -0.01197409 -0.01289517 -0.0137432 -0.01451277 -0.01518581 -0.01576349
 -0.01626633 -0.01669641 -0.01707743 -0.01740937 -0.0177031 -0.01796077 -0.01819145 -0.0184017 -0.01860733 -0.01881218
 -0.01902975 -0.01925328 -0.0194837 -0.01970746 -0.01991643 -0.02010343 -0.020262 -0.02039685 -0.02050726 -0.02060213
 -0.02068329 -0.02075417 -0.02081593 -0.02086287 -0.02089482 -0.02090061 -0.02088001 -0.02082724 -0.02074465 -0.02064423
 -0.02053114 -0.02043267 -0.02035109 -0.02030865 -0.02029875 -0.02032238 -0.02036575 -0.02041322 -0.02045193 -0.02046512
 -0.0204476 -0.02039018 -0.02029773 -0.02016858 -0.02001444 -0.01983786 -0.01964859 -0.01944922 -0.01924124 -0.0190244
 -0.01880532 -0.01858371 -0.01839761 -0.01825084 -0.01821492 -0.01829289 -0.01854587 -0.01896366 -0.01954477 -0.02026296
 -0.02105195 -0.02188543 -0.02268329 -0.02343928 -0.02410972 -0.02470928 -0.02523517 -0.0257047 -0.02612883 -0.02651381
 -0.02686477 -0.02718345 -0.02747003 -0.0277315 -0.02796875 -0.02818948 -0.02839488 -0.02858691 -0.02876574 -0.02893254
 -0.02908758 -0.02923623 -0.02937871 -0.02951948 -0.02965746 -0.02979078 -0.029918 -0.03003409 -0.03013891 -0.03022959
 -0.0303074 -0.03037225 -0.03042702 -0.0304733 -0.0305161 -0.0305584 -0.0306052 -0.03065991 -0.03072247 -0.03079477
 -0.03086922 -0.03094545 -0.03101246 -0.03106864 -0.0311099 -0.03113563 -0.03115365 -0.03116455 -0.03118009 -0.03119994
 -0.03122718 -0.03126046 -0.03129499 -0.03133168 -0.03136973 -0.03141251 -0.03146687 -0.03153247 -0.0316138 -0.03170319
 -0.03179647 -0.03188412 -0.03195848 -0.03201636 -0.03205334 -0.0320744 -0.03207869 -0.03207757 -0.03207203 -0.03207688
 -0.03209408 -0.03213244 -0.03219304 -0.03226743 -0.0323546 -0.0324331 -0.03250264 -0.03254983 -0.03257807 -0.03259442
 -0.03260246 -0.03261695 -0.03263596 -0.03266402 -0.0326947 -0.03272108 -0.03273967 -0.03274358 -0.03273598 -0.03271615
 -0.0326899 -0.03265971 -0.03262866 -0.03259812 -0.0325694 -0.03254253 -0.03252098 -0.0325049 -0.03249966 -0.03250572
 -0.03252443 -0.03255557 -0.03259384 -0.03263864 -0.03268291 -0.03272676 -0.03276699 -0.03280389 -0.0328369 -0.03286555
 -0.03288857 -0.03290584 -0.03291635 -0.03292133 -0.03292139 -0.03291809 -0.03291236 -0.03290594 -0.03289888 -0.03289599
 -0.03289816 -0.03291141 -0.03293783 -0.03297582 -0.03302632 -0.03307755 -0.03312883 -0.03316863 -0.03319676 -0.03321215
 -0.03321571 -0.03321406 -0.03320793 -0.03320377 -0.03320193 -0.03320663 -0.03321809 -0.03323955 -0.03326867 -0.03330486
 -0.03334253 -0.03337625 -0.03340252 -0.03341575 -0.03342101 -0.03341793 -0.03341613 -0.03341899 -0.03342969 -0.03345056
 -0.03347445 -0.03350093 -0.03352238 -0.03353801 -0.03354913 -0.033556 -0.03356564 -0.03357803 -0.03359658 -0.03361997
 -0.03364424 -0.0336682 -0.03368591 -0.03369821 -0.03370331 -0.03370384 -0.03370246 -0.03370159 -0.03370475 -0.03371227
 -0.03372559 -0.03374367 -0.0337664 -0.0337929 -0.03382295 -0.0338558 -0.03389148 -0.03392806 -0.03396544 -0.03400075
 -0.03403375 -0.03406312 -0.03408883 -0.03411151 -0.03413137 -0.03415027 -0.03416856 -0.03418886 -0.0342112 -0.03423752
 -0.0342666 -0.0342972 -0.03432766 -0.03435481 -0.03437886 -0.03439855 -0.03441549 -0.0344312 -0.03444383 -0.03445372
 -0.03445581 -0.03444766 -0.03443066 -0.03440297 -0.03437784 -0.03435638 -0.03435192 -0.03436594 -0.03439607 -0.03444173
 -0.03448648 -0.03452959 -0.03455695 -0.03457059 -0.03457145 -0.03456346 -0.03455893 -0.03455936 -0.03457516 -0.03460186
 -0.03463897 -0.03467831 -0.03471142 -0.03473443 -0.03474034 -0.03473502 -0.03471814 -0.03470001 -0.03468393 -0.03467543
 -0.03467673 -0.03468682 -0.03470596 -0.03473159 -0.03476356 -0.03479997 -0.03484061 -0.03488095 -0.0349205 -0.03495263
 -0.03497744 -0.0349914 -0.03499606 -0.0349939 -0.03498683 -0.03498006 -0.03497412 -0.03497224 -0.0349733 -0.03497783
 -0.03498334 -0.03498874 -0.03499081 -0.03498771 -0.03497796 -0.03495993 -0.03493698 -0.03490886 -0.03488267 -0.03485924
 -0.0348441 -0.03483785 -0.03484111 -0.03485379 -0.03487257 -0.034897 -0.03492193 -0.0349469 -0.03496695 -0.03498227
 -0.03499041 -0.03499274 -0.03499058 -0.03498568 -0.03498096 -0.03497765 -0.03497801 -0.03498238 -0.03499195 -0.03500567
 -0.03502395 -0.0350434 -0.03506351 -0.03507961 -0.03509056 -0.03509408 -0.03508934 -0.03507889 -0.03506273 -0.03504613
 -0.03502935 -0.0350165 -0.03500748 -0.03500309 -0.03500322 -0.03500751 -0.03501637 -0.03503105 -0.03505132 -0.03507815
 -0.03510881 -0.03514062 -0.03516927 -0.03518916 -0.03519891 -0.03519458 -0.03518086 -0.03515815 -0.03513344 -0.03510927
 -0.03508883 -0.03507358 -0.03506244 -0.0350554 -0.03505169 -0.03505119 -0.03505518 -0.03506365 -0.03507478 -0.03508795
 -0.03509618 -0.03509942 -0.03509266 -0.0350783 -0.03506074 -0.035043 -0.03503437 -0.03503396 -0.03504573 -0.03506433
 -0.03508609 -0.03510626 -0.03511976 -0.03512646 -0.03512425 -0.03511726 -0.03510589 -0.03509573 -0.03508822 -0.03508587
 -0.03508964 -0.03509677 -0.03510725 -0.03511611 -0.03512316 -0.03512729 -0.03512888 -0.03513145 -0.03513522 -0.03514335
 -0.03515516 -0.03517032 -0.03518785 -0.03520555 -0.03522281 -0.03523782 -0.03525041 -0.03525981 -0.03526585 -0.03526825
 -0.0352668 -0.03526089 -0.03525219 -0.03524059 -0.03522998 -0.0352211 -0.03521711 -0.03521898 -0.03522458 -0.03523405
 -0.03524043 -0.03524337 -0.03523679 -0.03522091 -0.03519515 -0.03516072 -0.03512296 -0.03508378 -0.03505197 -0.0350285
 -0.03502052 -0.03502587 -0.03504561 -0.03507423 -0.03510689 -0.03513832 -0.03516279 -0.03517934 -0.03518524 -0.03518412
 -0.03517621 -0.03516636 -0.03515576 -0.0351469 -0.03514037 -0.03513676 -0.03513618 -0.03513881 -0.03514462 -0.03515216
 -0.03516102 -0.03516651 -0.0351683 -0.03516158 -0.03514775 -0.03512808 -0.03510552 -0.03508719 -0.03507468 -0.0350746
 -0.03508381 -0.03510297 -0.03512442 -0.03514342 -0.03515305 -0.03514767 -0.03512796 -0.03509141 -0.03504708 -0.03499581
 -0.03494896 -0.03490838 -0.03488048 -0.03486619 -0.0348652 -0.03487744 -0.03489644 -0.03492145 -0.03494204 -0.03495801
 -0.03496203 -0.03495607 -0.03494212 -0.03492308 -0.03490649 -0.03489323 -0.03488858 -0.0348904 -0.03489907 -0.0349105
 -0.03492247 -0.03492999 -0.03492978 -0.03492003 -0.03489812 -0.03486992 -0.03483547 -0.03480456 -0.03477898 -0.03476213
 -0.03475479 -0.03475238 -0.03475468 -0.0347571 -0.03475982 -0.03476299 -0.03476705 -0.03477431 -0.03478508 -0.03480138
 -0.03482372 -0.03485399 -0.03489288 -0.03494214 -0.03500233 -0.03507435 -0.03515954 -0.03525878 -0.03537427 -0.03550733
 -0.03565925 -0.03583094 -0.036022 -0.03623243 -0.03646227 -0.03671189 -0.03697875 -0.03726332 -0.03755294 -0.03784684
 -0.03812186 -0.03837622 -0.03858348 -0.03874167 -0.03882609 -0.03883662 -0.03875743 -0.0385951 -0.03835152 -0.03804541
 -0.03770262 -0.03734728 -0.03701608 -0.03671933 -0.03647786 -0.03628741 -0.036151 -0.03606306 -0.03602248 -0.03602472
 -0.03607123 -0.03614372 -0.03624281 -0.03632756 -0.03639399 -0.03641836 -0.03639964 -0.03636466 -0.03631553 -0.03628747
 -0.03627689 -0.03628308 -0.03629895 -0.03629815 -0.0362816 -0.03623621 -0.03617119 -0.03609719 -0.03601588 -0.03593634
 -0.03584788 -0.03574446 -0.03562076 -0.03546793 -0.03530171 -0.03512305 -0.03495687 -0.03481003 -0.03469367 -0.03461212
 -0.03455624 -0.03452634 -0.03450242 -0.03448344 -0.03445277 -0.03441068 -0.03435501 -0.03428764 -0.03421811 -0.03414747
 -0.03408488 -0.03402893 -0.03398136 -0.03393948 -0.03389978 -0.03386024 -0.03381683 -0.03377008 -0.03371802 -0.03366537
 -0.03361328 -0.03356829 -0.0335333 -0.03351075 -0.03350287 -0.03350369 -0.03351315 -0.03352183 -0.03352881 -0.03352856
 -0.03352076 -0.03350658 -0.03348632 -0.03346393 -0.03343944 -0.03341537 -0.03339112 -0.03336592 -0.03333936 -0.03330967
 -0.03327776 -0.03324402 -0.03321017 -0.03317846 -0.03314946 -0.03312475 -0.03310297 -0.03308404 -0.03306585 -0.03304785
 -0.03302767 -0.0330047 -0.032977 -0.03294386 -0.03290677 -0.03286552 -0.03282584 -0.03278803 -0.03275726 -0.03273332
 -0.03271544 -0.03270282 -0.03269043 -0.03267802 -0.03266183 -0.03264258 -0.03261998 -0.03259508 -0.03256947 -0.03254373
 -0.03251917 -0.03249596 -0.0324746 -0.03245542 -0.03243869 -0.03242486 -0.03241437 -0.03240644 -0.03240124 -0.03239651
 -0.03239197 -0.03238591 -0.03237811 -0.03236813 -0.03235594 -0.03234117 -0.03232373 -0.03230226 -0.03227684 -0.032247
 -0.03221354 -0.03217889 -0.03214432 -0.03211401 -0.03208866 -0.03207155 -0.03206207 -0.03206124 -0.03206683 -0.03207805
 -0.03209111 -0.03210416 -0.03211335 -0.03211698 -0.03211232 -0.03209811 -0.0320744 -0.0320405 -0.03200069 -0.031955
 -0.03191115 -0.03186957 -0.03183703 -0.03181349 -0.03179979 -0.03179511 -0.03179471 -0.03179807 -0.03180065 -0.03180282
 -0.03180332 -0.03180246 -0.03180053 -0.03179679 -0.03179036 -0.03178114 -0.03176817 -0.03175359 -0.031738 -0.03172412
 -0.03171364 -0.0317057 -0.03170104 -0.03169486 -0.03168654 -0.03167213 -0.03165088 -0.03162481 -0.031594 -0.03156546
 -0.03153943 -0.03152098 -0.03150925 -0.03150167 -0.03149682 -0.03148766 -0.03147461 -0.03145415 -0.03142957 -0.03140439
 -0.03138213 -0.03136893 -0.0313646 -0.03137242 -0.03138667 -0.03140623 -0.03142255 -0.03143199 -0.03143002 -0.03141363
 -0.03138756 -0.03135135 -0.03131548 -0.03128101 -0.03125446 -0.03123632 -0.03122628 -0.03122426 -0.03122874 -0.03123968
 -0.03125681 -0.03127896 -0.03130229 -0.03132441 -0.03133702 -0.03134003 -0.03132834 -0.03130613 -0.03127591 -0.03124243
 -0.03121097 -0.03118218 -0.03115833 -0.031137 -0.03111761 -0.03109882 -0.03108008 -0.03106127 -0.03104252 -0.03102207
 -0.03099978 -0.03097391 -0.03094432 -0.03091314 -0.03088071 -0.03085273 -0.03082939 -0.03081517 -0.0308092 -0.03081101
 -0.03081876 -0.03082772 -0.03083648 -0.03084013 -0.03083908 -0.03083145 -0.03081934 -0.03080401 -0.03078654 -0.03076824
 -0.03074812 -0.03072572 -0.03070179 -0.03067561 -0.03065236 -0.03063267 -0.03062159 -0.0306201 -0.03062633 -0.0306403
 -0.03065422 -0.0306677 -0.03067366 -0.0306724 -0.03066213 -0.0306438 -0.03061981 -0.03059133 -0.03056241 -0.03053376
 -0.03050858 -0.03048663 -0.03046919 -0.03045491 -0.03044326 -0.03043256 -0.03042161 -0.03040973 -0.03039609 -0.03038173
 -0.03036669 -0.03035227 -0.03033894 -0.03032582 -0.03031291 -0.03029869 -0.03028304 -0.03026762 -0.03025266 -0.03024264
 -0.0302372 -0.03023671 -0.03023948 -0.03023919 -0.03023461 -0.03021871 -0.03019294 -0.03015573 -0.0301112 -0.03006321
 -0.0300163 -0.02997562 -0.02994351 -0.02992347 -0.02991339 -0.02991407 -0.02991964 -0.02992886 -0.02993662 -0.02994163
 -0.02994259 -0.02993914 -0.02993215 -0.02992166 -0.02990796 -0.02989114 -0.02987257 -0.02985256 -0.02983419 -0.02981736
 -0.0298036 -0.02979196 -0.02978049 -0.02976907 -0.0297561 -0.02974324 -0.02973224 -0.02972354 -0.02971901 -0.0297157
 -0.02971237 -0.02970696 -0.02969745 -0.02968692 -0.02967561 -0.02966726 -0.02966314 -0.02966115 -0.02966139 -0.02965944
 -0.02965498 -0.02964789 -0.02963827 -0.02962825 -0.02961762 -0.02960586 -0.0295928 -0.02957701 -0.02955958 -0.02954261
 -0.0295271 -0.02951648 -0.02950946 -0.02950626 -0.02950418 -0.02950061 -0.029495 -0.02948574 -0.02947499 -0.02946335
 -0.02945222 -0.02944269 -0.02943226 -0.02942088 -0.0294046 -0.02938271 -0.02935569 -0.02932346 -0.02929138 -0.02925965
 -0.02923237 -0.02920892 -0.02918728 -0.02916631 -0.02914008 -0.02910857 -0.02906795 -0.02902078 -0.02896928 -0.02891733
 -0.02887104 -0.02883174 -0.0288038 -0.02878344 -0.02877023 -0.02875875 -0.0287464 -0.02873091 -0.02871077 -0.0286872
 -0.02866009 -0.02863131 -0.02860094 -0.02857176 -0.02854392 -0.02852204 -0.02850619 -0.02849754 -0.02849525 -0.02849368
 -0.02849206 -0.02848336 -0.02846912 -0.02844911 -0.02842662 -0.02840808 -0.02839424 -0.0283902 -0.02839113 -0.02839572
 -0.02839617 -0.02838641 -0.02836511 -0.028328 -0.0282855 -0.02823902 -0.02820035 -0.02817302 -0.02815624 -0.02815112
 -0.02814634 -0.02814121 -0.02812802 -0.02810684 -0.02808051 -0.0280497 -0.02802084 -0.02799357 -0.02796991 -0.02794886
 -0.02792868 -0.02790906 -0.0278887 -0.02786743 -0.02784453 -0.02781995 -0.02779285 -0.02776521 -0.02773756 -0.02771315
 -0.02769417 -0.02767961 -0.02767059 -0.02766059 -0.0276485 -0.02762991 -0.02760364 -0.02757372 -0.0275403 -0.02750907
 -0.02748001 -0.02745091 -0.02742117 -0.02738423 -0.0273412 -0.02729269 -0.02724165 -0.02719676 -0.02715928 -0.02713683
 -0.02712602 -0.02712647 -0.02713229 -0.02713797 -0.02713981 -0.0271334 -0.02711919 -0.02709607 -0.02706636 -0.02703056
 -0.02699008 -0.02694503 -0.02689789 -0.02684868 -0.02680254 -0.02675983 -0.02672496 -0.02669796 -0.02667791 -0.0266644
 -0.02665385 -0.02664616 -0.02663918 -0.02663266 -0.02662527 -0.02661564 -0.02660042 -0.02657893 -0.02654807 -0.02651032
 -0.02646647 -0.02641993 -0.02637325 -0.02632783 -0.02628493 -0.02624477 -0.02620774 -0.02617346 -0.02614226 -0.02611151
 -0.02608112 -0.02604702 -0.02600882 -0.02596684 -0.02592137 -0.02587982 -0.0258426 -0.02581723 -0.02580212 -0.02579544
 -0.02579316 -0.02578267 -0.02576229 -0.02572119 -0.02566425 -0.0255923 -0.0255135 -0.02543531 -0.02536434 -0.02530747
 -0.02526596 -0.02524363 -0.02523314 -0.02523433 -0.025235 -0.02523268 -0.02521987 -0.02519482 -0.02515923 -0.02511298
 -0.02506071 -0.02500259 -0.02494128 -0.024877 -0.02481253 -0.02474824 -0.02468749 -0.02462996 -0.02457665 -0.02452661
 -0.0244784 -0.02443146 -0.02438425 -0.0243371 -0.02428965 -0.02424264 -0.02419654 -0.02415157 -0.02410834 -0.02406529
 -0.02402237 -0.02397674 -0.02392753 -0.02387488 -0.02381804 -0.02376415 -0.02371354 -0.02367579 -0.02365108 -0.02364042
 -0.02364215 -0.02364352 -0.0236421 -0.02361891 -0.0235757 -0.02350615 -0.0234166 -0.02331704 -0.02321078 -0.02310739
 -0.02300519 -0.02290584 -0.0228074 -0.02270845 -0.0226099 -0.0225115 -0.02241547 -0.02232273 -0.02223343 -0.02214879
 -0.02206212 -0.02197382 -0.02186742 -0.02174168 -0.02158508 -0.0213978 -0.02119317 -0.02097285 -0.02075802 -0.0205468
 -0.02034242 -0.02014054 -0.01992992 -0.01970851 -0.01946574 -0.01920472 -0.01892386 -0.01863075 -0.01833126 -0.01803355
 -0.01774518 -0.01746894 -0.01720925 -0.01696082 -0.0167233 -0.01649004 -0.0162585 -0.01603219 -0.01581078 -0.0156024
 -0.01540771 -0.01522961 -0.01506821 -0.01492502 -0.01480017 -0.01469632 -0.01461254 -0.01454682 -0.01449652 -0.0144531
 -0.01441397 -0.01436942 -0.01431947 -0.01425954 -0.01419211 -0.01411815 -0.01403926 -0.01395695 -0.01387156 -0.01378337
 -0.01369338 -0.01360207 -0.01350976 -0.01341785 -0.01331849 -0.01321221 -0.01307864 -0.01291607 -0.01271295 -0.01246972
 -0.01221399 -0.01194781 -0.01170333 -0.01147655 -0.01126562 -0.01106502 -0.01085722 -0.01063972 -0.01039914 -0.01013529
 -0.009842787 -0.00952098 -0.009168811 -0.008781403 -0.008356028 -0.007886325 -0.007365271 -0.006803222 -0.006197187 -0.005579826
 -0.004957027 -0.004353859 -0.00377548 -0.003225893 -0.002706351 -0.002206635 -0.001725758 -0.001236787 -0.000736637 -0.0001817487
 0.0004234312 0.001088139 0.001790373 0.002462387 0.003101011 0.003658842 0.004163677 0.004636158 0.005097066 0.005578115
 0.006078631 0.006609452 0.007159182 0.007725388 0.008298213 0.008876441 0.009442129 0.009992129 0.01050876 0.01098736
 0.0114358 0.01185404 0.01225751 0.01264643 0.01300935 0.01334478 0.01363119 0.01387254 0.01407482 0.01424742
 0.01442355 0.01460638 0.01482424 0.01506072 0.01530286 0.01554032 0.01575242 0.01595208 0.0161444 0.01633213
 0.01652244 0.01669703 0.01685099 0.01697315 0.01705777 0.01711484 0.01714356 0.01716604 0.01718398 0.01721461
 0.01725838 0.01730713 0.01735917 0.01739399 0.01741229 0.01740647 0.01737933 0.01733425 0.01727613 0.01721563
 0.01715898 0.01712045 0.01710145 0.01710943 0.01714114 0.01719588 0.01727298 0.01737236 0.01749206 0.01763339
 0.01778531 0.01794578 0.01810606 0.0182637 0.01842278 0.01858325 0.01875276 0.01893163 0.01912221 0.01932428
 0.01953669 0.019759 0.01998884 0.02022527 0.02046375 0.0207046 0.02094544 0.02118924 0.02143969 0.02169824
 0.02196915 0.02224833 0.02253458 0.02282327 0.02311056 0.02339878 0.02368629 0.02398339 0.02429184 0.02462066
 0.02497278 0.02534109 0.02572625 0.02610243 0.02646829 0.02679859 0.02709331 0.02734328 0.02754967 0.02771391
 0.02783625 0.02791751 0.0279589 0.02796263 0.02793175 0.02787169 0.02778477 0.0276757 0.02754455 0.02739461
 0.02721889 0.02701923 0.02677253 0.02647443 0.02609366 0.02561531 0.02506317 0.02443058 0.02381641 0.02323129
 0.02269165 0.02219773 0.02169004 0.0211686 0.02061289 0.0200289 0.01943889 0.0188449 0.01826935 0.01770131
 0.01713203 0.01654083 0.01588736 0.01517362 0.01437077 0.01353659 0.01270742 0.0119132 0.01119079 0.01050082
 0.00983566 0.009172027 0.008497882 0.007834351 0.007182082 0.00656678 0.005991938 0.005452225 0.004947302 0.004455855
 0.003978055 0.003507528 0.003047892 0.002615497 0.002212704 0.001858437 0.001546786 0.001276491 0.001035084 0.0008032472
 0.0005717457 0.000322801 5.469415E-05 -0.0002398264 -0.0005579691 -0.0009028893 -0.001261098 -0.001634924 -0.00198436 -0.002300181
 -0.002557224 -0.002745538 -0.002896715 -0.003012205 -0.003125478 -0.00323809 -0.003352832 -0.003468416 -0.003570067 -0.003658553
 -0.003729562 -0.00378714 -0.003844211 -0.003899986 -0.003961544 -0.004020199 -0.004065349 -0.004091006 -0.004083689 -0.004050406
 -0.003991451 -0.003915692 -0.003829937 -0.003730979 -0.003621585 -0.003486993 -0.00332668 -0.00311608 -0.002853013 -0.002506466
 -0.002072105 -0.001548518 -0.0009360718 -0.000311748 0.0003192504 0.0008680405 0.001340915 0.001726785 0.002036118 0.002299629
 0.002519571 0.002715717 0.002886966 0.003037429 0.003173141 0.00329944 0.00342923 0.003576334 0.003740007 0.003929096
 0.004117948 0.004298146 0.004457299 0.004587587 0.004703905 0.004806804 0.004914031 0.005027728 0.00515203 0.005287184
 0.005424501 0.005563779 0.005699368 0.005832906 0.005970488 0.006114298 0.006275794 0.006454197 0.006654668 0.006872289
 0.007100359 0.007338491 0.007580535 0.007837266 0.008114414 0.008421714 0.008769115 0.009148523 0.009562301 0.00998839
 0.01042124 0.01084993 0.01127031 0.01169195 0.01211552 0.01254756 0.01298837 0.01341492 0.01382501 0.01418367
 0.01449147 0.01473416 0.01491362 0.01502967 0.01508161 0.01506726 0.01498663 0.0148374 0.01462378 0.01434893
 0.01401811 0.01363667 0.01320656 0.01273008 0.01220793 0.01163899 0.01103164 0.0103839 0.009723552 0.009052267
 0.008409413 0.007799608 0.007238272 0.006726409 0.006243635 0.005788449 0.005335136 0.004885484 0.00443604 0.003991473
 0.003567609 0.003164629 0.002792581 0.002445173 0.002116631 0.001801827 0.001491392 0.001186927 0.0008859225 0.0005932858
 0.0003117792 4.180081E-05 -0.0002149947 -0.0004631873 -0.0007036734 -0.0009394172 -0.001171284 -0.001398757 -0.001621995 -0.001838865
 -0.002049261 -0.00224636 -0.002429423 -0.002586624 -0.002717982 -0.002816585 -0.002885014 -0.002928315 -0.002949856 -0.002960099
 -0.002960877 -0.002960174 -0.002957394 -0.002955419 -0.002951519 -0.002944316 -0.002932185 -0.002912531 -0.002889806 -0.002863925
 -0.002843683 -0.002831353 -0.002832121 -0.002847726 -0.002876093 -0.002917308 -0.002967605 -0.003026771 -0.003094126 -0.003169501
 -0.00325111 -0.003337742 -0.003421184 -0.003500179 -0.003564889 -0.003616994 -0.003654595 -0.003682266 -0.003707327 -0.00373133
 -0.00376073 -0.003789951 -0.003817634 -0.003835843 -0.003838921 -0.003825677 -0.003792764 -0.003748064 -0.003691898 -0.003636153
 -0.003582529 -0.003541054 -0.003513056 -0.003502659 -0.003510199 -0.003532255 -0.003568298 -0.003610065 -0.003657165 -0.003702789
 -0.003747554 -0.003789853 -0.003830989 -0.003873394 -0.003917753 -0.003966684 -0.004019295 -0.004076301 -0.004134499 -0.004192505
 -0.004244824 -0.004288623 -0.004318322 -0.004330709 -0.004324771 -0.004298314 -0.004259072 -0.004207264 -0.004154698 -0.004102852
 -0.004056164 -0.004015035 -0.003973086 -0.003929953 -0.00387847 -0.003819557 -0.003755202 -0.003687179 -0.003623752 -0.003564564
 -0.003513674 -0.003468009 -0.003423934 -0.003379737 -0.003330777 -0.003280102 -0.003228372 -0.003179244 -0.003136462 -0.003096405
 -0.003060014 -0.003017349 -0.002965619 -0.002900258 -0.002818941 -0.002728437 -0.002628793 -0.002530959 -0.002435595 -0.002349337
 -0.0022722 -0.002205525 -0.002148617 -0.002098051 -0.00205266 -0.002005865 -0.001957823 -0.001904647 -0.001849419 -0.001795408
 -0.001745815 -0.001706865 -0.001676876 -0.001657745 -0.001643347 -0.001630455 -0.001615824 -0.001595635 -0.001576713 -0.001559013
 -0.001554405 -0.001565713 -0.001594921 -0.001643649 -0.00169735 -0.001755301 -0.001800254 -0.001832154 -0.001847951 -0.001849453
 -0.001847132 -0.001842098 -0.001844666 -0.001853485 -0.001870761 -0.001893779 -0.001919011 -0.001944053 -0.001964432 -0.00197945
 -0.001986803 -0.001987383 -0.001980972 -0.001968861 -0.001951334 -0.001930018 -0.001905252 -0.001878863 -0.001851363 -0.001822727
 -0.001793086 -0.001760933 -0.001726132 -0.001691123 -0.001656234 -0.001627703 -0.001605196 -0.001590029 -0.001580509 -0.001570311
 -0.00155908 -0.001542326 -0.001521463 -0.00149792 -0.001470233 -0.00143852 -0.001397334 -0.001341762 -0.001269336 -0.001175423
 -0.001066291 -0.0009424331 -0.0008130593 -0.0006813792 -0.0005497775 -0.0004201643 -0.0002854968 -0.00014538 7.855121E-06 0.000174809
 0.0003546531 0.0005470261 0.0007449095 0.0009485274 0.001155463 0.001367554 0.001591167 0.001826945 0.002081309 0.002350177
 0.002630773 0.002915322 0.003193393 0.00345904 0.003702784 0.003924998 0.00412263 0.004299888 0.004458144 0.004598929
 0.004722959 0.004830373 0.004920239 0.005000086 0.005069853 0.005144829 0.005225977 0.005324701 0.005440983 0.005574371
 0.005723725 0.005881132 0.006045558 0.006208494 0.006370148 0.006526123 0.006678615 0.006829477 0.006980707 0.007136613
 0.007294993 0.007455987 0.007615595 0.007770276 0.007921983 0.008069663 0.008219942 0.008375261 0.008535854 0.008703417
 0.00886783 0.009028257 0.009175628 0.009309107 0.00943213 0.009545404 0.009663083 0.009785419 0.009922004 0.01007017
 0.0102243 0.01038162 0.01053062 0.01067354 0.01080864 0.01094009 0.01107393 0.01120854 0.01134534 0.01147979
 0.01160834 0.01173239 0.0118509 0.01196899 0.01208827 0.01221011 0.01233519 0.01246273 0.01259275 0.01272419
 0.01285705 0.01298808 0.01311715 0.01324186 0.0133626 0.01348144 0.0135983 0.01371456 0.0138286 0.01393661
 0.01403761 0.01412783 0.01420752 0.01427626 0.01433216 0.0143743 0.01439845 0.0144017 0.0143818 0.0143363
 0.01426782 0.01417529 0.01406803 0.01394629 0.0138257 0.01370782 0.01360654 0.01352305 0.01346105 0.01342044
 0.01339764 0.01339239 0.01340142 0.01342439 0.01345816 0.01350251 0.01355454 0.01361596 0.01368851 0.01377393
 0.01387715 0.01399321 0.01412219 0.01425077 0.01437241 0.01447234 0.01454272 0.01457552 0.01456567 0.01451631
 0.01442617 0.01430621 0.01415739 0.01398921 0.01380246 0.01359905 0.01337907 0.0131427 0.01289065 0.01262813
 0.01235663 0.01208489 0.01181443 0.01155428 0.0113043 0.01106998 0.01084625 0.01063035 0.01041318 0.01018471
 0.00994195 0.009677381 0.009400911 0.009113403 0.008829533 0.008554292 0.008294022 0.008051946 0.007822286 0.007605334
 0.007389294 0.007173304 0.006950916 0.00672226 0.006492605 0.006262721 0.00604155 0.005828312 0.005624484 0.005428576
 0.005236951 0.005049306 0.004864079 0.004679565 0.004493848 0.004302837 0.004101167 0.003889448 0.003664407 0.003435107
 0.003204077 0.002980417 0.002768141 0.002568136 0.002382063 0.002203536 0.002032296 0.001859968 0.001685863 0.001506384
 0.001321724 0.001138408 0.0009571137 0.0007872651 0.0006271003 0.0004746663 0.0003261764 0.0001691421 3.155627E-06 -0.0001801726
 -0.0003750989 -0.0005787272 -0.0007822239 -0.0009768936 -0.001155505 -0.001309963 -0.001440427 -0.00154315 -0.00162777 -0.001695691
 -0.001757779 -0.001816942 -0.001875992 -0.001935921 -0.001994299 -0.002050994 -0.002105015 -0.002156322 -0.002204429 -0.002249288
 -0.002289861 -0.002326766 -0.00236224 -0.002396853 -0.002434311 -0.00247258 -0.002510079 -0.002543282 -0.002566142 -0.002578273
 -0.002576131 -0.002563667 -0.002541628 -0.002515914 -0.00248901 -0.002465846 -0.002448456 -0.002439227 -0.002439359 -0.002447298
 -0.002463398 -0.002482132 -0.002503232 -0.002519568 -0.002530845 -0.002532171 -0.00252401 -0.002507903 -0.002484812 -0.002460275
 -0.002434006 -0.002408117 -0.002381708 -0.002353142 -0.002324075 -0.002295668 -0.002270621 -0.002253229 -0.002240816 -0.002234478
 -0.002225987 -0.00221141 -0.002187321 -0.002149979 -0.002107871 -0.002061378 -0.002022376 -0.001993482 -0.001972014 -0.001958655
 -0.001931342 -0.001889062 -0.00181248 -0.00170376 -0.001571851 -0.001422374 -0.001286661 -0.001166575 -0.001085754 -0.001038283
 -0.00102528 -0.001036423 -0.001059428 -0.001082679 -0.00109135 -0.001076734 -0.001026664 -0.0009450316 -0.0008271183 -0.0006923822
 -0.0005441578 -0.0004047629 -0.000279685 -0.0001801064 -0.0001090273 -6.349746E-05 -4.395888E-05 -3.615931E-05 -3.934048E-05 -3.847271E-05
 -3.388681E-05 -2.218519E-05 -4.508889E-06 1.406031E-05 3.609731E-05 6.563992E-05 0.0001077823 0.0001766436 0.0002702035 0.0003945734
 0.0005377641 0.0006915792 0.0008430799 0.0009807086 0.00109899 0.001191097 0.001261689 0.00130866 0.001347365 0.001379464
 0.001423571 0.001483143 0.001562333 0.001662429 0.00176764 0.001877152 0.001973752 0.002058422 0.002132524 0.002198857
 0.002272603 0.002352986 0.002447361 0.002549349 0.002648964 0.002742554 0.002817253 0.002882148 0.002939458 0.00300372
 0.003088878 0.003191668 0.00331961 0.003444617 0.003560027 0.003642187 0.003681212 0.003688136 0.003660698 0.003634281
 0.003611649 0.003614689 0.003643887 0.00369086 0.003754007 0.003814342 0.00387275 0.003923 0.003968399 0.004016046
 0.004067654 0.004131057 0.004204116 0.004287886 0.004377725 0.004469427 0.004559669 0.00464409 0.004724093 0.004798777
 0.004871874 0.004945123 0.005017505 0.005089815 0.00515616 0.005215749 0.005265224 0.005304012 0.005335337 0.005359467
 0.005384099 0.005409882 0.005446201 0.005493065 0.005556466 0.005634016 0.005722102 0.00581722 0.005909679 0.005999187
 0.00608059 0.006156462 0.00622799 0.006295913 0.006361877 0.006423399 0.006480434 0.006528108 0.006565016 0.00658685
 0.006590872 0.006584252 0.006565837 0.00655861 0.006564389 0.006599505 0.006664308 0.006747346 0.006846881 0.006940439
 0.007029056 0.007106206 0.007174285 0.007238363 0.007297556 0.007352119 0.007401416 0.007443691 0.007481333 0.007516788
 0.00754977 0.007580803 0.007609322 0.007632645 0.007660722 0.007694575 0.00774984 0.007831835 0.007939846 0.008076434
 0.00822082 0.008371667 0.00850969 0.008634214 0.008747365 0.008850716 0.008961955 0.009080631 0.009214979 0.009360454
 0.009506153 0.009650282 0.009781911 0.009906008 0.01002594 0.01014418 0.01026654 0.0103876 0.01050487 0.01061551
 0.01071687 0.01081039 0.01089775 0.01097177 0.01103159 0.01106848 0.01107918 0.01107592 0.0110588 0.01105125
 0.01105423 0.01107369 0.01110876 0.01115179 0.01120295 0.01125958 0.01132192 0.01139037 0.01146249 0.01153352
 0.01160069 0.01165792 0.01170345 0.01173314 0.01174664 0.01174078 0.01172167 0.0116899 0.01165671 0.01162647
 0.0116039 0.01159104 0.01158827 0.01159529 0.01161805 0.01165723 0.01171418 0.01178876 0.01186686 0.01194787
 0.01201999 0.01208443 0.01214279 0.01219389 0.01223476 0.01226339 0.01227078 0.01226419 0.01224926 0.01223642
 0.01224074 0.01226234 0.0123056 0.01236978 0.01245395 0.01256406 0.01270601 0.01286448 0.01304061 0.01319957
 0.01333382 0.01344401 0.01352865 0.01360813 0.01368327 0.01375643 0.01382629 0.01387876 0.0139133 0.01391845
 0.01389769 0.01385451 0.01379684 0.01374384 0.0137008 0.01368869 0.01369603 0.01372121 0.01374511 0.01374826
 0.01373584 0.01370101 0.01366868 0.01364874 0.0136453 0.01366398 0.01368616 0.01370886 0.01372688 0.01373884
 0.01375485 0.01377525 0.01379719 0.01381907 0.01382211 0.01380456 0.01374669 0.01364961 0.01350204 0.01331626
 0.01310839 0.01290323 0.0127514 0.01265381 0.01264384 0.01267345 0.01271592 0.01274017 0.01270931 0.01266509
 0.01261108 0.0125974 0.01264395 0.01273639 0.01288001 0.01301771 0.01314474 0.01322085 0.01324405 0.01322141
 0.01315641 0.01309221 0.01303107 0.0130092 0.01302237 0.0130745 0.01316249 0.01328048 0.01342906 0.0136107
 0.0138145 0.01403377 0.01424687 0.01443364 0.01458697 0.01469545 0.01476809 0.01480648 0.01481419 0.01479113
 0.01474569 0.01467642 0.01461259 0.01455682 0.01452939 0.01453134 0.01454797 0.0145779 0.01459945 0.01461383
 0.01461749 0.01461179 0.01459903 0.01458061 0.01455959 0.0145399 0.01453042 0.01452998 0.01454121 0.01456051
 0.01458184 0.01461706 0.01467065 0.01475228 0.01487401 0.01500508 0.01514392 0.01524451 0.01529597 0.01529839
 0.01524868 0.01518511 0.01510958 0.01504146 0.01497939 0.01491026 0.01483294 0.0147326 0.01461364 0.01448146
 0.01434551 0.01423081 0.01414224 0.01410308 0.01410154 0.01413631 0.01418715 0.01423626 0.01427677 0.01429877
 0.01430735 0.01430341 0.01428623 0.01425557 0.0142116 0.01415322 0.01409029 0.0140241 0.01395508 0.01388328
 0.01379271 0.01368343 0.01355151 0.0134 0.01324568 0.01308957 0.01294548 0.01280943 0.01268007 0.0125508
 0.01241099 0.01225458 0.01206738 0.01185668 0.01161582 0.01137839 0.01115634 0.01098943 0.01089903 0.01088915
 0.01097116 0.01110419 0.01128563 0.01146605 0.0116394 0.01178976 0.01191596</values></Ydata></AB><ScSm><Ydata ylabel="Single channel"><values byteorder="INTEL" format="FLOAT32" numvalues="1814"> 0.06822814 0.06824802 0.06832904 0.06848902 0.06869803 0.06889454 0.06902803 0.06909277 0.06911041 0.06908798
 0.06902665 0.06897233 0.06900913 0.06917547 0.06940929 0.06959139 0.06964142 0.06958659 0.06954565 0.06961346
 0.06973475 0.06971669 0.06940822 0.06887294 0.06835224 0.06804418 0.06797726 0.06814606 0.06863111 0.06937343
 0.06991902 0.06974214 0.06890609 0.06809269 0.06784628 0.06805046 0.06824662 0.0681635 0.06780379 0.06733876
 0.06714803 0.06771547 0.06915434 0.07081733 0.07152905 0.07032534 0.06714111 0.06303096 0.05978287 0.05896021
 0.06079896 0.06388967 0.06623531 0.06684407 0.06620426 0.0652788 0.06447193 0.06374989 0.06330134 0.06356965
 0.06463759 0.06581591 0.06599757 0.06460245 0.0622718 0.06041607 0.05992856 0.06062409 0.06199726 0.06377184
 0.06513086 0.0642764 0.06020194 0.05493672 0.05263941 0.05564107 0.06195622 0.06722941 0.06861056 0.06634025
 0.06247532 0.05918729 0.05795554 0.05916608 0.06203021 0.06524205 0.06777506 0.06893416 0.06818181 0.06560272
 0.06235909 0.06012706 0.06006789 0.06237391 0.06622791 0.06987722 0.07143164 0.07025982 0.067407 0.06448793
 0.0626239 0.0624484 0.0642636 0.06772127 0.07180591 0.07542814 0.07787108 0.07885438 0.07858756 0.07764032
 0.07651186 0.07554843 0.07524513 0.07593884 0.07700583 0.0771016 0.07562618 0.07352772 0.07232665 0.07254487
 0.07329128 0.0733445 0.07238772 0.07080762 0.06848548 0.06477744 0.05999094 0.05577616 0.05347714 0.05311074
 0.05435109 0.0570511 0.06008034 0.06125412 0.05972183 0.05749514 0.05744727 0.06024605 0.06400728 0.06659608
 0.06760293 0.06820199 0.0696357 0.07194199 0.073794 0.07350644 0.07071289 0.06730433 0.06609191 0.06804528
 0.07135642 0.07365796 0.07451729 0.0751693 0.07636474 0.07721289 0.07611053 0.07264256 0.06861055 0.06692548
 0.06907383 0.07362962 0.07728788 0.0773119 0.07337691 0.06764995 0.06310055 0.06144343 0.06267089 0.06617978
 0.07143677 0.07739165 0.08220805 0.08429143 0.08345094 0.08080232 0.0774923 0.073636 0.06893303 0.06444904
 0.06282848 0.06579639 0.07195593 0.07795545 0.08148122 0.08241048 0.08150199 0.07896359 0.07467718 0.06959734
 0.06620827 0.0665914 0.06991921 0.07292557 0.07332838 0.07191125 0.07083985 0.07095876 0.07148012 0.07165441
 0.07184531 0.07291578 0.07499564 0.07716484 0.07834552 0.07827817 0.07755891 0.07694334 0.07666212 0.07625446
 0.07521711 0.07401161 0.0740121 0.07600188 0.07909653 0.08165373 0.08292204 0.08331436 0.08331017 0.08261581
 0.08059283 0.07745951 0.07478318 0.07431915 0.07631372 0.07934806 0.08181334 0.08306777 0.08329062 0.08290415
 0.08228554 0.0816424 0.08107276 0.08082679 0.08124685 0.08228017 0.08336566 0.08399592 0.08413143 0.08394989
 0.08348963 0.08272539 0.08182691 0.08116205 0.08103423 0.08145721 0.08219782 0.08298641 0.08361115 0.08387981
 0.08369011 0.0831757 0.08262576 0.08222033 0.08196692 0.08188223 0.08205332 0.08247235 0.08295386 0.08329175
 0.08342557 0.08341262 0.08330706 0.08312006 0.08286701 0.08261497 0.08247644 0.08253116 0.08273441 0.08294734
 0.08309872 0.08325489 0.08346842 0.08363421 0.08359795 0.08336566 0.08310988 0.08298454 0.08300332 0.08308522
 0.0831427 0.08309866 0.08287681 0.08246621 0.0820145 0.08177596 0.08190764 0.08235262 0.08293615 0.08349721
 0.08391315 0.08411345 0.08413275 0.08407921 0.08400981 0.0838877 0.08367912 0.08344914 0.08334287 0.08347484
 0.08382492 0.08424577 0.0845833 0.08477446 0.08484161 0.08485734 0.08491899 0.08507308 0.08524188 0.08529523
 0.08521385 0.08512041 0.08513306 0.08523545 0.08530952 0.08527464 0.08517986 0.08515365 0.08526708 0.08546858
 0.08565806 0.08579623 0.08592296 0.08608221 0.08624229 0.08630405 0.08620852 0.08602333 0.0858794 0.08583245
 0.08584344 0.08588734 0.08600199 0.08620353 0.08641651 0.08653745 0.08654772 0.08652675 0.08655207 0.08660977
 0.08661866 0.08652912 0.08637729 0.08624683 0.08619757 0.08623154 0.08630496 0.08636089 0.08636083 0.0863013
 0.08620805 0.08611206 0.08602943 0.08597051 0.08596767 0.08606629 0.08625907 0.08644186 0.08647578 0.08631487
 0.08605912 0.08586603 0.08580862 0.08582377 0.08579317 0.08565987 0.08546122 0.08526806 0.08511855 0.08500846
 0.08491807 0.08483626 0.08477712 0.08478243 0.08488393 0.08504298 0.08514933 0.08511337 0.08495369 0.08477135
 0.08464994 0.08460397 0.08460393 0.08461713 0.08463384 0.08467652 0.08476705 0.08487396 0.08492653 0.08489911
 0.08484714 0.08484705 0.08493635 0.08511232 0.0853342 0.0855172 0.08558331 0.08554389 0.08549491 0.08551579
 0.08560444 0.08571706 0.08583044 0.08594635 0.08606677 0.08619465 0.08634916 0.08655711 0.08682503 0.08712482
 0.0874055 0.08762227 0.08777009 0.08789918 0.08808708 0.08837864 0.08874706 0.08911552 0.08942042 0.08965766
 0.08986971 0.090091 0.09031987 0.09055187 0.09081671 0.09115034 0.09153867 0.09192348 0.09226657 0.0925817
 0.09290121 0.09323651 0.09357993 0.09393182 0.09431282 0.09474182 0.0951971 0.09561159 0.09592561 0.09614518
 0.09633954 0.09658872 0.09693277 0.09734329 0.09772865 0.09800047 0.09816483 0.09832528 0.0985669 0.0988649
 0.09914279 0.09939533 0.09969938 0.1001036 0.1005536 0.1009467 0.1012369 0.1014679 0.1017104 0.1019821
 0.1022324 0.102406 0.1025129 0.1026213 0.1027815 0.1029893 0.1032355 0.1035486 0.1039499 0.1043922
 0.1047872 0.1050853 0.1052973 0.1054568 0.1055929 0.1057244 0.105851 0.1059614 0.1060653 0.10619
 0.1063317 0.1064478 0.10652 0.1065919 0.1067191 0.1069154 0.1071694 0.1074788 0.1078306 0.1081767
 0.1084772 0.108765 0.1091135 0.1095253 0.1098981 0.1101329 0.1102416 0.1103064 0.1103717 0.1104366
 0.1105294 0.1107155 0.1110205 0.1113939 0.111765 0.1121028 0.1124142 0.1127085 0.112974 0.1131786
 0.1132939 0.1133277 0.1133351 0.1133922 0.1135557 0.1138327 0.1141772 0.1145182 0.1148003 0.114996
 0.1150875 0.1150683 0.1149797 0.114915 0.1149436 0.1150293 0.1150494 0.1148988 0.114555 0.1140466
 0.1133994 0.1126345 0.1118031 0.1109916 0.1102874 0.1097449 0.1093909 0.1092554 0.1093813 0.1097845
 0.1104017 0.1111013 0.1117491 0.1122461 0.112505 0.1124408 0.1120245 0.111327 0.1104793 0.1095984
 0.1087559 0.1079792 0.1072549 0.1065622 0.1059451 0.1055465 0.1055453 0.1060594 0.1071025 0.1085952
 0.1103787 0.1122361 0.1139558 0.1154168 0.1166229 0.1176501 0.1185719 0.1194351 0.1202725 0.1210962
 0.1218776 0.1225722 0.1231718 0.1237109 0.1242199 0.1246942 0.1251071 0.125436 0.1256805 0.12587
 0.1260378 0.1261786 0.126251 0.1262351 0.1261625 0.1260697 0.1259446 0.1257343 0.1253913 0.1249075
 0.1243331 0.1237943 0.1234899 0.1236372 0.1243743 0.1256785 0.1273718 0.1292152 0.1310032 0.1325875
 0.1338674 0.1348113 0.1354791 0.1359847 0.1364253 0.136849 0.1372717 0.1376954 0.1381141 0.1385179
 0.1389014 0.1392709 0.1396452 0.1400377 0.1404321 0.1407894 0.1410926 0.1413775 0.1417077 0.1421134
 0.1425593 0.1429788 0.1433425 0.1436844 0.1440449 0.1444071 0.144718 0.1449632 0.1451871 0.145445
 0.1457632 0.1461378 0.1465378 0.1469101 0.147213 0.1474511 0.1476658 0.1478927 0.1481421 0.1484097
 0.1486889 0.1489706 0.1492458 0.1495188 0.1498096 0.1501286 0.1504491 0.1507209 0.1509209 0.1510821
 0.1512635 0.1514946 0.1517566 0.1520101 0.1522406 0.1524756 0.1527564 0.1530874 0.1534208 0.1536978
 0.1539016 0.1540634 0.1542263 0.1544135 0.1546262 0.1548571 0.155098 0.1553412 0.1555817 0.1558191
 0.1560555 0.1562919 0.1565284 0.1567655 0.1570031 0.1572391 0.1574705 0.1576994 0.1579376 0.1582055
 0.1585159 0.1588526 0.1591709 0.1594307 0.1596297 0.1597966 0.1599597 0.1601313 0.1603154 0.1605157
 0.1607325 0.1609607 0.1611931 0.1614257 0.1616595 0.161898 0.1621414 0.1623848 0.1626236 0.1628585
 0.1630933 0.1633322 0.1635784 0.1638315 0.1640832 0.1643216 0.1645407 0.1647471 0.1649567 0.1651813
 0.1654161 0.1656439 0.1658539 0.1660551 0.1662638 0.1664857 0.1667127 0.1669366 0.1671565 0.1673755
 0.1675934 0.1678077 0.1680188 0.1682319 0.1684517 0.1686775 0.1689048 0.1691278 0.169342 0.1695476
 0.1697498 0.1699539 0.170163 0.17038 0.1706059 0.1708368 0.1710659 0.1712895 0.1715069 0.1717189
 0.1719279 0.1721373 0.1723489 0.1725623 0.1727763 0.1729892 0.1732007 0.1734132 0.1736292 0.17385
 0.1740794 0.1743222 0.1745749 0.1748243 0.1750603 0.1752842 0.1755042 0.1757273 0.1759569 0.1761915
 0.1764272 0.1766618 0.1768926 0.1771153 0.1773292 0.1775387 0.1777467 0.1779519 0.1781535 0.1783507
 0.1785417 0.178729 0.1789208 0.1791218 0.1793284 0.1795356 0.1797424 0.1799509 0.1801668 0.180395
 0.1806319 0.1808675 0.1810957 0.1813164 0.1815317 0.181748 0.1819725 0.1822036 0.1824328 0.182656
 0.1828731 0.1830837 0.1832914 0.1835061 0.1837325 0.1839661 0.1842001 0.1844293 0.1846529 0.1848785
 0.1851139 0.1853527 0.1855815 0.1858001 0.1860182 0.18624 0.186463 0.186683 0.1868976 0.1871122
 0.1873376 0.1875722 0.1878017 0.1880212 0.1882393 0.188461 0.1886865 0.1889198 0.1891601 0.1893962
 0.1896219 0.1898417 0.1900596 0.1902794 0.1905072 0.19074 0.1909666 0.1911865 0.1914045 0.1916035
 0.1917303 0.1916651 0.1911271 0.1895644 0.1861275 0.1798211 0.1698892 0.1562839 0.1398491 0.122025
 0.1043158 0.08789007 0.07345445 0.06133351 0.05161666 0.04425371 0.03911445 0.03608878 0.03518963 0.03665793
 0.04108238 0.04905072 0.05982487 0.07017273 0.07563104 0.07402769 0.067554 0.0607643 0.05679876 0.0558819
 0.05668316 0.0580654 0.05966217 0.06167143 0.06444175 0.06806538 0.07235843 0.07730346 0.08326854 0.090536
 0.09873421 0.1069935 0.114696 0.1219509 0.1293034 0.1370659 0.1449892 0.1525097 0.1591973 0.1649695
 0.1700057 0.174552 0.1787846 0.1827895 0.1866078 0.1902334 0.1935365 0.1962358 0.1980343 0.19884
 0.198874 0.1985506 0.1982397 0.1981211 0.1982158 0.1984895 0.1989104 0.1994562 0.2001128 0.200863
 0.2016764 0.2025184 0.2033642 0.2041938 0.2049829 0.2057116 0.2063731 0.2069717 0.2075178 0.2080251
 0.2085021 0.2089487 0.2093646 0.2097541 0.2101227 0.2104748 0.2108141 0.2111387 0.2114396 0.2117115
 0.2119584 0.2121879 0.2124068 0.2126211 0.2128351 0.2130502 0.2132659 0.2134777 0.2136782 0.2138667
 0.214057 0.2142638 0.2144855 0.2147081 0.2149202 0.2151198 0.2153122 0.2155073 0.2157127 0.2159265
 0.2161396 0.216345 0.2165392 0.2167196 0.2168866 0.2170484 0.2172184 0.2174078 0.2176176 0.2178376
 0.2180583 0.2182821 0.218514 0.2187458 0.2189627 0.2191635 0.2193607 0.2195657 0.2197841 0.2200178
 0.2202565 0.2204746 0.2206516 0.2207966 0.2209464 0.2211353 0.2213633 0.221598 0.2218103 0.2220004
 0.2221849 0.2223718 0.2225565 0.2227325 0.2229042 0.223094 0.2233272 0.2235991 0.2238749 0.2241322
 0.2243768 0.2246151 0.2248442 0.2250715 0.2253053 0.225525 0.2256972 0.2258286 0.2259823 0.2262274
 0.2265719 0.226947 0.2272703 0.2275217 0.2277418 0.2279768 0.2282479 0.2285334 0.2287428 0.2287781
 0.2286869 0.2286903 0.2289782 0.2295154 0.2301029 0.2305837 0.2309389 0.2312278 0.2314958 0.2317325
 0.2318866 0.2319209 0.2318832 0.2319235 0.2321926 0.2326869 0.2332375 0.2336828 0.233999 0.2342403
 0.2344462 0.2346319 0.2347529 0.2346596 0.2342551 0.2337609 0.2336535 0.2342069 0.2351861 0.2360954
 0.236665 0.2369901 0.2372579 0.2375187 0.2377347 0.2378162 0.2375107 0.2365508 0.2351691 0.2342363
 0.2345369 0.2359807 0.237756 0.2391401 0.2399481 0.2403532 0.2405843 0.2407762 0.2408654 0.2405861
 0.2397693 0.2387498 0.238286 0.238857 0.2401236 0.2412964 0.2419445 0.2422182 0.2424257 0.2426866
 0.2428567 0.242479 0.2410367 0.2387164 0.2368026 0.2367811 0.2388876 0.2418253 0.2440472 0.2450906
 0.245472 0.2455504 0.2449925 0.2433741 0.240821 0.2379539 0.2356951 0.235145 0.2368549 0.2399116
 0.2424516 0.243495 0.2437717 0.2445078 0.2459602 0.2474136 0.2481197 0.2478863 0.2469472 0.2455426
 0.2438026 0.2421388 0.2414822 0.2426204 0.2452409 0.2480377 0.2499194 0.2508409 0.2512393 0.2507564
 0.2479764 0.2421325 0.2352431 0.2315516 0.2337769 0.2402698 0.2467883 0.2506717 0.252293 0.253057
 0.2535102 0.2531997 0.2509359 0.2454376 0.2373621 0.2305858 0.2295827 0.2349928 0.2428945 0.2484698
 0.2492869 0.2455418 0.2391805 0.2333228 0.2309944 0.2332931 0.2389059 0.2454062 0.2507119 0.2536568
 0.2539745 0.2521842 0.2495553 0.2477983 0.2478228 0.2483842 0.2470288 0.2431926 0.2391453 0.2366635
 0.2342826 0.2300024 0.2256693 0.225758 0.2315529 0.2390023 0.2432767 0.243668 0.242709 0.2415581
 0.2380062 0.2296454 0.2184144 0.2106842 0.211686 0.2200827 0.2291666 0.2334291 0.2329368 0.2313625
 0.2310893 0.2307963 0.2273484 0.2199072 0.2120121 0.2086091 0.2107873 0.2148016 0.2164994 0.2146289
 0.2093796 0.2010547 0.1924618 0.189753 0.1972166 0.2120075 0.2263841 0.2340832 0.2325825 0.2216795
 0.204387 0.1888048 0.1841805 0.1926146 0.2065072 0.215557 0.2149283 0.2060845 0.1924005 0.1768874
 0.1636023 0.1580116 0.1636944 0.1787316 0.1958022 0.2058106 0.2028857 0.1889541 0.1741696 0.1696069
 0.17717 0.1882754 0.193477 0.1910463 0.1856023 0.1821525 0.1832065 0.1883837 0.1948248 0.1998608
 0.2031414 0.2036284 0.1967079 0.179728 0.1593902 0.1473611 0.1481473 0.1567349 0.1679196 0.1810041
 0.1937928 0.1993572 0.1938478 0.1838019 0.1806098 0.1884203 0.2005749 0.2077649 0.2072525 0.2033882
 0.2008562 0.1996688 0.1975078 0.1951419 0.196615 0.2036824 0.212758 0.2189201 0.2210334 0.2213113
 0.2215558 0.2217901 0.2215299 0.2206042 0.2190772 0.2173698 0.2161321 0.2155045 0.2149844 0.2141806
 0.2127966 0.2095112 0.202273 0.1912224 0.1805363 0.1751373 0.175486 0.1779183 0.1800691 0.1822486
 0.1823716 0.1745303 0.1567997 0.1376488 0.1297903 0.1379049 0.1551504 0.170941 0.1790302 0.1780473
 0.1683605 0.1523341 0.1369477 0.1316295 0.1405748 0.1587237 0.1771813 0.1908905 0.1992419 0.2018491
 0.1976202 0.1878113 0.1772708 0.1716881 0.1741284 0.1836602 0.1956616 0.2030191 0.1995962 0.1863203
 0.1739234 0.1750498 0.1909835 0.2095204 0.2186868 0.2188834 0.2180848 0.2194485 0.2197165 0.2178795
 0.2186953 0.2261401 0.2375366 0.2461805 0.2472241 0.239594 0.2253729 0.2102861 0.2022243 0.2049136
 0.213668 0.2204801 0.2217739 0.217942 0.2086139 0.1946502 0.183178 0.1833066 0.1955755 0.2107317
 0.220245 0.2240773 0.2268524 0.2298827 0.2295864 0.2229423 0.2125558 0.2050569 0.2045387 0.2089664
 0.2135959 0.2159719 0.2159775 0.2130055 0.2063251 0.1982428 0.1941441 0.1978217 0.2075421 0.2176618
 0.2236747 0.2250291 0.2237877 0.2219568 0.2201406 0.2177126 0.2141598 0.210829 0.2106678 0.2150563
 0.221576 0.2264808 0.2289851 0.2315248 0.235936 0.2409235 0.2436348 0.242772 0.2398253 0.2377753
 0.2387019 0.2421312 0.2453829 0.2458572 0.2435104 0.2411308 0.2417721 0.24584 0.2510381 0.2549793
 0.2571372 0.2583429 0.2593684 0.2602537 0.2602909 0.2585686 0.2552719 0.2524327 0.2524955 0.2558967
 0.2606468 0.2643768 0.266242 0.2667961 0.2667026 0.2660401 0.2646707 0.2628635 0.2613235 0.2606409
 0.2608677 0.2616501 0.2626004 0.2634711 0.2641445 0.2646186 0.2649628 0.2652273 0.265424 0.2655835
 0.2657371 0.2658319 0.2657762 0.2656084 0.265525 0.2656691 0.2659538 0.2661617 0.2661495 0.2658684
 0.2652523 0.2642326 0.2628677 0.2613306 0.2597198 0.257991 0.2561879 0.2547033 0.2541665 0.254968
 0.256894 0.2592601 0.2613824 0.2629156 0.263846 0.264315 0.2644929 0.2645248 0.2644948 0.264416
 0.2642672 0.2640461 0.2637773 0.263477 0.2631365 0.262757 0.2623807 0.2620609 0.2618049 0.2615597
 0.2612545 0.2608526 0.2603686 0.2598433 0.2592986 0.2587128 0.2580386 0.2572402 0.2563215 0.2553322
 0.2543524 0.2534524 0.2526459 0.2518807 0.2510841 0.2502133 0.249247 0.2481498 0.2469006 0.2455713
 0.2443212 0.243268 0.24239 0.2415718 0.2407078 0.2397399 0.2386423 0.2374243 0.2361328 0.2348225
 0.2335181 0.2322125 0.2308866 0.229521 0.2280948 0.2265864 0.224984 0.2232978 0.221561 0.2198102
 0.2180451 0.216196 0.2141322 0.2117121 0.2088259 0.2054046 0.2014234 0.1969314 0.1920737 0.1870641
 0.1821209 0.1774155 0.1730642 0.1691554 0.1657738 0.1629941 0.1608641 0.1594065 0.1586352 0.1585557
 0.1591576 0.1604078 0.1622399 0.1645431 0.1671714 0.1699632 0.1727517 0.1753865 0.1777835 0.1799604
 0.1820019 0.1839745 0.1858731 0.1876466 0.1892595 0.1907095 0.1919912 0.1930792 0.1939621 0.1946685
 0.1952428 0.195715 0.1961035 0.1964223 0.1966732 0.1968488 0.1969567 0.1970354 0.1971422 0.1973257
 0.197603 0.1979631 0.1983928 0.1988964 0.1994874 0.2001673 0.2009123 0.2016791 0.2024354 0.2031899
 0.2039792 0.2048279 0.205746 0.2067576 0.2079036 0.2092092 0.2106638 0.212224 0.21382 0.2153642
 0.2167704 0.2179694 0.2189201 0.2196184 0.2200933 0.2203834 0.2205194 0.2205221 0.2204076 0.220199
 0.2199291 0.2196176 0.2192488 0.2187956 0.218264 0.217692 0.2171135 0.2165449 0.2159925 0.2154509
 0.2149044 0.2143449 0.2137824 0.2132313 0.2126959 0.2121682 0.2116352 0.2110901 0.2105391 0.2099907
 0.2094387 0.2088578 0.2082125 0.2074745 0.2066403 0.2057272 0.204743 0.2036703 0.2024885 0.2011992
 0.1998198 0.1983625 0.1968283 0.1952159 0.193532 0.1917853 0.189965 0.1880393 0.1860016 0.1839132
 0.18188 0.1799828 0.1782366 0.1766072 0.1750538 0.1735646 0.1721558 0.1708403 0.1696078 0.1684359
 0.1673068 0.1662089 0.1651404 0.1641158 0.1631599 0.1622973 0.1615449 0.1609001 0.1603369 0.1598301
 0.1593767 0.1589819 0.1586465 0.1583849 0.1582235 0.1581606 0.1581484 0.158126 0.1580522 0.1579129
 0.1577273 0.1575409 0.1573896 0.1572731 0.1571665 0.1570381 0.1568394 0.156494 0.1559044 0.154987
 0.1537218 0.1521695 0.1504297 0.1485981 0.1467754 0.1450812 0.1436195 0.1424404 0.141538 0.1408593
 0.1403216 0.1398625 0.1394854 0.1392463 0.1391985 0.1393344 0.1395512 0.1397001 0.1397181 0.1397008
 0.1398156 0.1401636 0.1407309 0.1414238 0.1421259 0.1427503 0.1432555 0.1436192 0.1438338 0.1439281
 0.1439463 0.1438977 0.1437632 0.1435421 0.1432566 0.1429249 0.1425516 0.1421241 0.1416203 0.1410347
 0.140377 0.1396403 0.1388057 0.137868 0.1368108 0.1356071 0.13432 0.1331659 0.1324079 0.1322008
 0.1325333 0.1332521 0.1341545 0.1351119 0.1360534 0.136806 0.1371377 0.1371148 0.137286 0.1382842
 0.1402191 0.1425576 0.1445978 0.1459635 0.1466456 0.1467444 0.1463311 0.145461 0.1441442 0.1423313
 0.1400312 0.137372 0.1344982 0.1315356 0.1286703 0.126106 0.1239452 0.1222008 0.1208521 0.1199202
 0.1195271 0.1193215 0.1174878 0.1116832 0.1026348 0.09577943 0.09671284 0.1049122 0.1140907 0.1188606
 0.1190378 0.1174511 0.1160563 0.1151481 0.1146252 0.1146149 0.1152356 0.1163645 0.1176479 0.1187038
 0.1193666 0.1196618 0.1195344 0.1186363 0.1162788 0.1116581 0.1045002 0.09564127 0.08674783 0.07934818
 0.07415579 0.07107706 0.06951652 0.06872519 0.06819125 0.06788142 0.06810915 0.06916533 0.07107885 0.0736824
 0.07678001 0.08012696 0.08332592 0.08598128 0.08800718 0.08961228 0.09095255 0.09195773 0.09249907 0.09256114
 0.09222893 0.09162641 0.0908867 0.09009923 0.0892468 0.08823189 0.08703101 0.08583622 0.08495887 0.08454096
 0.0844416 0.08444234 0.08444971 0.08446035 0.08446332 0.08444171 0.08440013 0.08438091 0.08448309 0.08480088
 0.08529487 0.08578682 0.08611362 0.0862513 0.08629088 0.08629291 0.08614396 0.0856503 0.08486752 0.08416232
 0.0837385 0.08328038 0.08236217 0.08109851 0.08009227 0.07977682 0.08003624 0.08044019 0.08064429 0.08055483
 0.08030917 0.08020082 0.08048148 0.08107105</values></Ydata></ScSm><ScRf><Ydata ylabel="Single channel"><values byteorder="INTEL" format="FLOAT32" numvalues="1820"> 0.06036796 0.06052037 0.06061256 0.06064579 0.06064546 0.0606575 0.06072823 0.06087411 0.06106828 0.06125528
 0.06138686 0.06145184 0.06146658 0.0614419 0.06138594 0.06134126 0.06137797 0.06152584 0.06172922 0.06188289
 0.06191542 0.06185359 0.06180993 0.06187354 0.06199042 0.06197913 0.06170295 0.06122627 0.06076998 0.06050532
 0.0604481 0.06059241 0.06101935 0.06168571 0.06218635 0.06204318 0.06130285 0.06057107 0.06033979 0.0605147
 0.06069073 0.06062062 0.06029898 0.05987867 0.0597068 0.06022144 0.06152018 0.06301576 0.06365065 0.06256047
 0.05969022 0.05599255 0.05307722 0.05234594 0.05400433 0.05678356 0.05889177 0.0594409 0.05887268 0.05805521
 0.05734985 0.05671622 0.05631371 0.05654216 0.05748814 0.05854279 0.05871154 0.05746609 0.05537667 0.05370956
 0.05326982 0.05389376 0.05512796 0.05672321 0.05794551 0.0571814 0.05352634 0.04879823 0.0467286 0.04941613
 0.05508719 0.05983169 0.06108171 0.05904861 0.05558563 0.05264749 0.05155354 0.05263609 0.05518517 0.05804151
 0.06029855 0.06133848 0.06067616 0.05838082 0.05548831 0.05349843 0.05345351 0.05552893 0.05899246 0.06226827
 0.06365594 0.06258935 0.06001338 0.05738474 0.0557112 0.05555703 0.05718916 0.06029486 0.06396618 0.06722892
 0.06943772 0.07033213 0.07009295 0.06923606 0.06822176 0.06736587 0.06710533 0.06773343 0.06868953 0.06877179
 0.06744582 0.06556445 0.06449318 0.0646998 0.06538229 0.06544217 0.06459352 0.0631813 0.0610963 0.05775996
 0.05345182 0.04965841 0.04758888 0.04725972 0.04838405 0.05083754 0.05360255 0.05469877 0.05334131 0.0513309
 0.05125998 0.05374631 0.05711002 0.05943623 0.06035106 0.06089947 0.06219093 0.06425969 0.06591889 0.06566025
 0.06315728 0.06010652 0.05902818 0.06079047 0.06377156 0.06584849 0.06663272 0.06723202 0.06832193 0.06910451
 0.06813906 0.06505135 0.06146113 0.05998357 0.06194758 0.06606255 0.06935492 0.06936945 0.06582277 0.06067066
 0.05658557 0.0551073 0.05622941 0.05941618 0.0641948 0.06962103 0.07403528 0.07598656 0.0752815 0.07291363
 0.06992756 0.06644882 0.06221685 0.05819175 0.05676242 0.05949411 0.06512748 0.07062621 0.07388607 0.07478532
 0.07400601 0.07173738 0.06787483 0.06328936 0.06024976 0.06066218 0.06377235 0.06658515 0.06699961 0.06573044
 0.06477422 0.06492133 0.0654539 0.06567706 0.06591877 0.06697357 0.06896369 0.07103893 0.0721969 0.07219024
 0.07157117 0.07105017 0.07085178 0.07054934 0.06967022 0.06864016 0.06873463 0.07067561 0.0736319 0.07607318
 0.07730748 0.07773101 0.07779644 0.07722306 0.07540077 0.07252833 0.07008426 0.06972979 0.07169819 0.07464291
 0.07703781 0.0782802 0.07855053 0.07825425 0.07774588 0.0772195 0.07676943 0.07663192 0.07712429 0.07818821
 0.07928856 0.07994717 0.08013215 0.08001573 0.07963555 0.07897069 0.07818832 0.07764001 0.07760697 0.07809138
 0.0788665 0.07967927 0.08033448 0.08065265 0.08053543 0.08010751 0.07964329 0.07931609 0.07913764 0.07912844
 0.07937056 0.07984796 0.08037543 0.0807559 0.08093575 0.08097202 0.08091903 0.08079238 0.08060942 0.08043301
 0.08036975 0.08049466 0.08075775 0.0810185 0.08121373 0.08142243 0.08170149 0.081938 0.08196722 0.08179213
 0.08158907 0.08151326 0.08157326 0.08168554 0.08177116 0.08176586 0.0815971 0.08124681 0.08085182 0.08065835
 0.08082347 0.08130082 0.0819272 0.08254056 0.08300729 0.08325157 0.08331331 0.08330521 0.08328018 0.08319418
 0.0830116 0.08280213 0.0827177 0.08287847 0.08326765 0.08373782 0.08412933 0.08436942 0.08447395 0.08451879
 0.08461126 0.08480342 0.08501096 0.08509161 0.08502435 0.08494547 0.08498503 0.08511838 0.08520618 0.08515918
 0.08504039 0.08499971 0.08511895 0.08534338 0.08556446 0.08573826 0.08590686 0.08611616 0.08632523 0.08641584
 0.08631717 0.08610568 0.0859341 0.08587184 0.08587724 0.08591945 0.08603983 0.08626015 0.0864984 0.08663599
 0.08664851 0.08662525 0.08665627 0.08672864 0.08674913 0.08665311 0.08647226 0.08630288 0.0862271 0.08626025
 0.08635139 0.08642353 0.08642362 0.08634971 0.08623844 0.08612883 0.08603962 0.0859852 0.08600567 0.08614983
 0.08640122 0.08663481 0.0866906 0.0865162 0.08622684 0.08600593 0.08594146 0.08596287 0.08593105 0.08577329
 0.08552743 0.08527923 0.08508399 0.08494468 0.08483747 0.08474591 0.08468489 0.08469951 0.08481781 0.08498579
 0.08507362 0.08498375 0.08474804 0.08449244 0.08431815 0.08424167 0.08422491 0.08422241 0.08421464 0.08422639
 0.08429284 0.08438849 0.08442794 0.08436487 0.08425446 0.08419688 0.08425429 0.08442569 0.08464692 0.08480439
 0.08481117 0.08469734 0.0845862 0.08456768 0.08463015 0.08471751 0.08480401 0.08489419 0.08498925 0.08508675
 0.08520097 0.08535977 0.08557793 0.08583619 0.08608417 0.08626908 0.08637846 0.08646287 0.08660457 0.08685083
 0.08717418 0.08749733 0.08775774 0.08795282 0.08812698 0.08831675 0.0885189 0.08871932 0.088934 0.08919492
 0.08950274 0.08982264 0.09012643 0.0904159 0.09070278 0.09098686 0.09126355 0.09154744 0.0918794 0.09229201
 0.09275379 0.09316358 0.09343004 0.09356019 0.09365882 0.09384642 0.09417459 0.094587 0.09494729 0.09514536
 0.09520924 0.09528451 0.09547596 0.09574391 0.09599189 0.09621801 0.09651823 0.09694669 0.09742722 0.09782222
 0.09806412 0.09820481 0.09834696 0.09853759 0.09873243 0.09886593 0.09894112 0.09902357 0.09915487 0.09932013
 0.09951475 0.09978636 0.1001662 0.1005955 0.10097 0.1012405 0.1014315 0.1015841 0.1017148 0.101817
 0.1018752 0.1018902 0.101905 0.1019744 0.1020937 0.1021943 0.1022296 0.1022369 0.1022898 0.1024256
 0.1026411 0.1029235 0.1032451 0.1035506 0.1038048 0.1040498 0.1043645 0.1047461 0.1050787 0.1052555
 0.1052972 0.1053073 0.1053433 0.1053934 0.1054619 0.1056024 0.1058497 0.1061724 0.1065142 0.1068525
 0.1071945 0.1075381 0.10785 0.1080783 0.1081874 0.1081916 0.1081568 0.1081663 0.1082785 0.1085038
 0.1088035 0.1091142 0.1093842 0.1095877 0.1097052 0.1097224 0.1096728 0.1096539 0.1097507 0.1099376
 0.110087 0.1100789 0.1098797 0.109518 0.1090233 0.1084148 0.1077358 0.1070676 0.1064991 0.1060859
 0.1058486 0.1058084 0.1060049 0.1064544 0.1070945 0.1077971 0.1084435 0.108959 0.1092727 0.1092971
 0.1089882 0.1084064 0.1076854 0.1069503 0.1062736 0.1056711 0.1051089 0.1045476 0.1040243 0.1036893
 0.1037343 0.1042794 0.1053139 0.1067068 0.1082485 0.1097139 0.1109469 0.1119182 0.112704 0.1134011
 0.1140654 0.1147209 0.1153878 0.1160658 0.1167084 0.1172586 0.1177131 0.1181228 0.118529 0.1189248
 0.1192763 0.1195581 0.1197752 0.1199662 0.1201674 0.1203597 0.1204744 0.1204705 0.1203823 0.1202706
 0.1201513 0.1199881 0.1197332 0.119366 0.1189229 0.118521 0.1183423 0.1185567 0.1192267 0.1202714
 0.1215253 0.1228376 0.1241102 0.125258 0.1261862 0.126845 0.1272803 0.1275958 0.1278755 0.1281562
 0.1284499 0.1287569 0.129066 0.1293638 0.1296478 0.12993 0.1302312 0.1305626 0.1309044 0.1312119
 0.1314611 0.1316842 0.1319485 0.1322943 0.1326937 0.1330765 0.1334034 0.1337027 0.1340166 0.134329
 0.1345817 0.1347585 0.1349121 0.1351109 0.135387 0.1357327 0.1361057 0.1364394 0.1366845 0.1368548
 0.1370119 0.1372027 0.1374274 0.1376649 0.1379058 0.1381532 0.1384092 0.1386761 0.1389646 0.139279
 0.1395923 0.1398534 0.1400349 0.140166 0.1403073 0.1404944 0.1407138 0.1409301 0.1411315 0.1413446
 0.1416058 0.1419164 0.1422291 0.1424826 0.1426537 0.1427725 0.1428922 0.1430475 0.1432409 0.1434579
 0.1436825 0.1439018 0.1441079 0.144304 0.1445034 0.1447158 0.1449364 0.1451527 0.1453593 0.1455615
 0.1457655 0.1459722 0.1461847 0.1464183 0.14669 0.1469924 0.1472854 0.1475267 0.1477074 0.1478519
 0.1479871 0.1481257 0.1482725 0.1484334 0.1486124 0.1488062 0.1490076 0.1492102 0.1494118 0.1496136
 0.1498182 0.150026 0.1502344 0.1504417 0.1506537 0.1508812 0.1511262 0.1513722 0.1515953 0.1517867
 0.151961 0.1521407 0.1523378 0.1525458 0.1527475 0.1529316 0.1531061 0.1532907 0.153495 0.1537093
 0.153917 0.1541103 0.1542916 0.1544664 0.1546408 0.1548207 0.1550106 0.155211 0.1554181 0.1556266
 0.1558329 0.1560357 0.1562369 0.1564399 0.1566454 0.156849 0.157046 0.157238 0.1574303 0.1576262
 0.1578261 0.1580294 0.1582327 0.1584311 0.1586224 0.1588077 0.1589898 0.1591733 0.159364 0.159564
 0.15977 0.1599775 0.1601833 0.1603876 0.1605936 0.1608045 0.1610167 0.161225 0.1614317 0.161644
 0.1618636 0.1620859 0.1623082 0.1625294 0.162747 0.1629577 0.1631617 0.1633644 0.1635706 0.1637766
 0.163971 0.164149 0.1643195 0.1644935 0.1646724 0.164853 0.1650346 0.1652172 0.1654005 0.1655866
 0.1657756 0.1659651 0.1661562 0.1663543 0.1665599 0.1667669 0.1669716 0.1671744 0.167378 0.1675857
 0.1677985 0.1680101 0.1682152 0.1684194 0.1686308 0.1688493 0.1690697 0.1692872 0.1694959 0.1696927
 0.1698843 0.1700796 0.170283 0.1704972 0.170722 0.1709468 0.1711582 0.1713556 0.1715505 0.1717536
 0.1719684 0.1721877 0.1723969 0.172591 0.1727832 0.1729878 0.1732073 0.1734392 0.1736785 0.1739127
 0.1741314 0.1743383 0.174542 0.1747474 0.1749584 0.1751746 0.1753869 0.1755906 0.175793 0.1759999
 0.1762116 0.1764327 0.1766599 0.1768625 0.1769856 0.1769242 0.1764255 0.1749798 0.1717996 0.1659635
 0.1567722 0.144182 0.1289749 0.1124839 0.09609979 0.08090419 0.06755169 0.05634185 0.04735628 0.04054881
 0.03579959 0.03300634 0.03218016 0.03354331 0.03763906 0.04500952 0.05497287 0.06454466 0.06960228 0.06813563
 0.06216338 0.05589237 0.05223063 0.05139073 0.05213774 0.05341229 0.05487811 0.05672933 0.05929286 0.0626487
 0.06662486 0.07121338 0.07676207 0.08352628 0.09114637 0.09880568 0.1059339 0.1126454 0.1194589 0.1266668
 0.1340305 0.1410188 0.1472313 0.1525964 0.1572863 0.1615301 0.1654834 0.169214 0.1727537 0.1761035
 0.1791567 0.1816616 0.1833422 0.1841077 0.184159 0.1838809 0.1836183 0.183536 0.1836485 0.1839214
 0.1843266 0.1848478 0.1854761 0.1861991 0.1869867 0.1877982 0.1886031 0.1893842 0.1901268 0.1908182
 0.1914523 0.1920295 0.1925566 0.1930449 0.193501 0.193924 0.1943145 0.1946803 0.1950293 0.1953667
 0.1956968 0.1960198 0.1963275 0.19661 0.196863 0.1970873 0.1972886 0.1974771 0.1976656 0.1978643
 0.1980788 0.1983057 0.1985312 0.1987421 0.1989402 0.1991381 0.1993421 0.1995471 0.1997445 0.1999327
 0.2001184 0.2003119 0.2005162 0.2007237 0.2009265 0.201126 0.2013256 0.2015198 0.201698 0.2018601
 0.2020234 0.2022104 0.2024263 0.2026522 0.2028654 0.203064 0.2032632 0.2034734 0.2036916 0.2039102
 0.2041236 0.2043308 0.2045366 0.204745 0.2049482 0.205131 0.2052899 0.205441 0.2056097 0.2058132
 0.2060464 0.2062825 0.2064973 0.2066919 0.2068846 0.2070855 0.2072866 0.2074722 0.2076392 0.2078106
 0.2080198 0.2082721 0.2085382 0.2087929 0.2090384 0.2092816 0.2095186 0.2097471 0.209966 0.2101589
 0.2103076 0.2104306 0.2105892 0.2108429 0.2111909 0.2115625 0.2118788 0.2121237 0.2123396 0.2125717
 0.2128385 0.2131174 0.2133251 0.2133726 0.2133012 0.2133102 0.2135771 0.2140816 0.2146509 0.2151391
 0.215516 0.2158211 0.216087 0.2163061 0.2164417 0.2164697 0.216438 0.2164856 0.2167526 0.2172329
 0.2177634 0.218191 0.2184974 0.2187353 0.2189371 0.2191144 0.2192314 0.2191538 0.2187861 0.2183284
 0.2182285 0.2187498 0.2196734 0.220533 0.2210777 0.2213981 0.221664 0.221916 0.2221203 0.2222008
 0.2219251 0.2210395 0.219758 0.2188984 0.219201 0.2205812 0.2222714 0.2235894 0.2243662 0.2247752
 0.2250362 0.2252675 0.2253938 0.225157 0.2244051 0.2234642 0.2230508 0.2236123 0.2248279 0.2259531
 0.2265761 0.2268362 0.2270325 0.2272898 0.2274709 0.227133 0.2257834 0.2236071 0.2218283 0.221846
 0.2238634 0.2266422 0.2287311 0.2297156 0.2300939 0.2301977 0.2297026 0.2282073 0.2258332 0.2231653
 0.2210702 0.220581 0.2222111 0.2250965 0.2274894 0.2284821 0.2287683 0.2294922 0.2308857 0.2322812
 0.2329874 0.2328199 0.2319789 0.2306754 0.2290372 0.2274701 0.2268627 0.2279574 0.2304572 0.2331321
 0.2349511 0.2358613 0.2362648 0.235826 0.2332202 0.2277309 0.2212601 0.2178063 0.2199332 0.2260869
 0.2322683 0.2359673 0.2375319 0.2382843 0.2387442 0.2384922 0.2364064 0.2312644 0.2236723 0.2172907
 0.2163621 0.2215104 0.2290358 0.2343711 0.2351952 0.2316812 0.2256786 0.2201562 0.2179844 0.2201982
 0.2255535 0.231756 0.2368339 0.2396779 0.2400325 0.2383908 0.2359551 0.2343431 0.2344137 0.2349898
 0.2337529 0.2301737 0.2263991 0.2240981 0.2218685 0.2178161 0.2137149 0.2138353 0.219405 0.2265678
 0.2307251 0.2311977 0.2303888 0.2293958 0.2261151 0.218255 0.2076658 0.2004302 0.2015481 0.2097441
 0.2186065 0.2228735 0.2226189 0.2213638 0.221385 0.221398 0.2183654 0.2114587 0.2040814 0.2010112
 0.2033078 0.2073579 0.2091471 0.2074567 0.2024616 0.1944589 0.1861816 0.1836001 0.190876 0.2052608
 0.2192612 0.2268075 0.2254452 0.2149665 0.1982958 0.1833126 0.1790119 0.1874269 0.2011505 0.2101559
 0.2097429 0.2013401 0.1882286 0.1733353 0.1606326 0.1555117 0.1615396 0.176863 0.1942502 0.2046517
 0.2021791 0.1887177 0.1744132 0.1703654 0.1784753 0.1901053 0.1957619 0.1937235 0.1886537 0.1856149
 0.1871655 0.192919 0.1999373 0.2054879 0.2092209 0.2100357 0.2031226 0.1857386 0.1648534 0.1525674
 0.1535449 0.1625941 0.1743443 0.1880837 0.2015027 0.2073624 0.2016591 0.1912261 0.1879403 0.1961108
 0.2087805 0.2162436 0.2156589 0.2115832 0.2089232 0.2077058 0.205516 0.2031497 0.2048138 0.2123266
 0.2219432 0.2285356 0.2309253 0.2314219 0.2319045 0.2323917 0.2323667 0.2316452 0.2303022 0.2287865
 0.2277742 0.2274031 0.2271472 0.2266126 0.2255017 0.2223961 0.2150583 0.2035774 0.1923834 0.1867398
 0.1871563 0.1897355 0.1919654 0.1941856 0.1941783 0.1856512 0.1665533 0.1458931 0.1371853 0.145387
 0.1632032 0.1793963 0.1874042 0.185886 0.1753279 0.1582281 0.1418134 0.1358113 0.1445165 0.1626592
 0.1810386 0.194466 0.2023931 0.2045198 0.1997831 0.1894628 0.1784646 0.1725308 0.174731 0.1840894
 0.1959175 0.2030518 0.1993589 0.1858105 0.1731661 0.1740535 0.1897392 0.2080445 0.2170371 0.2171223
 0.2162434 0.2175365 0.2177476 0.2158698 0.2166449 0.2240396 0.2353993 0.2440634 0.2452253 0.2378387
 0.2239969 0.20941 0.2019182 0.2051673 0.2143922 0.2215502 0.2230817 0.2194031 0.2101451 0.1961901
 0.1847533 0.1850381 0.1975755 0.2130081 0.2227283 0.2267194 0.2296637 0.2328748 0.2327134 0.2261224
 0.215754 0.2083376 0.208027 0.2127654 0.2177589 0.2205318 0.2209457 0.218323 0.2118719 0.2039566
 0.2001278 0.2042878 0.2146249 0.2252835 0.2315798 0.2329238 0.2314481 0.2292464 0.2269651 0.2239717
 0.2197509 0.2157112 0.2149121 0.2188006 0.2249185 0.2294276 0.2315007 0.2336064 0.2376254 0.2422649
 0.2446427 0.2434437 0.2401713 0.2378251 0.2384821 0.2416508 0.2446448 0.2448756 0.2423128 0.2397504
 0.2402444 0.2442049 0.2493371 0.2532468 0.2553922 0.256593 0.2576221 0.2585251 0.2585897 0.2568892
 0.2535944 0.2507279 0.2507246 0.2540179 0.2586355 0.2622443 0.2640291 0.2645418 0.2644204 0.2637292
 0.262344 0.2605558 0.2590707 0.2584574 0.2587407 0.2595469 0.2604816 0.2613058 0.2619206 0.2623385
 0.2626312 0.2628425 0.2629777 0.2630684 0.2631555 0.2632041 0.2631406 0.263008 0.2629847 0.2631869
 0.2635182 0.2637757 0.2638311 0.2636306 0.2630901 0.262134 0.260831 0.2593633 0.2578226 0.2561541
 0.2544073 0.2529947 0.2525536 0.2534603 0.2554818 0.2579237 0.2601028 0.261683 0.2626648 0.2631954
 0.2634329 0.2635049 0.263495 0.2634322 0.2633069 0.2631031 0.2628189 0.2624645 0.2620611 0.2616457
 0.2612658 0.2609517 0.2606885 0.2604201 0.2600871 0.2596666 0.2591797 0.2586666 0.2581455 0.257591
 0.2569513 0.2561904 0.2553144 0.2543675 0.2534175 0.2525333 0.2517422 0.2510013 0.2502363 0.2494088
 0.248515 0.2475302 0.2464211 0.2452376 0.2441311 0.2432322 0.2425342 0.2419203 0.2412721 0.2405276
 0.239674 0.2387302 0.2377303 0.2366968 0.2356271 0.2345076 0.2333273 0.2320713 0.2307205 0.2292681
 0.227731 0.2261398 0.2245269 0.2229134 0.2212823 0.2195556 0.2176057 0.2152965 0.2125129 0.2091738
 0.2052549 0.200817 0.1960081 0.1910301 0.1860927 0.1813778 0.1770259 0.1731395 0.1697958 0.1670562
 0.1649703 0.1635731 0.1628798 0.16289 0.1635944 0.1649674 0.1669445 0.1694122 0.1722195 0.1751958
 0.1781662 0.1809779 0.1835446 0.1858773 0.1880561 0.1901468 0.1921382 0.1939668 0.1955886 0.1970036
 0.1982219 0.1992438 0.2000816 0.2007726 0.201358 0.2018629 0.2023007 0.2026821 0.2030132 0.2032937
 0.2035218 0.2037057 0.2038693 0.2040418 0.2042432 0.2044796 0.2047537 0.2050739 0.2054555 0.2059095
 0.2064278 0.2069827 0.2075486 0.2081223 0.2087129 0.2093311 0.2100025 0.2107808 0.2117229 0.2128461
 0.2141194 0.2154873 0.2168871 0.2182454 0.2194772 0.220506 0.221286 0.2218063 0.2220825 0.2221515
 0.2220631 0.2218595 0.2215619 0.2211829 0.2207403 0.2202481 0.2197019 0.21909 0.2184121 0.2176819
 0.21692 0.2161562 0.2154252 0.2147464 0.2141092 0.2134882 0.2128716 0.2122668 0.2116807 0.2111074
 0.2105348 0.2099573 0.2093767 0.2087961 0.208215 0.2076215 0.2069864 0.2062743 0.2054683 0.2045742
 0.2035943 0.2025135 0.2013207 0.2000293 0.198664 0.1972339 0.1957307 0.1941499 0.1924999 0.1907851
 0.188987 0.1870772 0.1850644 0.1830174 0.1810298 0.1791641 0.1774394 0.1758518 0.1743857 0.1730127
 0.171702 0.170434 0.1692031 0.1680166 0.1668916 0.1658423 0.1648661 0.1639486 0.1630803 0.1622675
 0.1615306 0.1608854 0.1603256 0.1598304 0.1593922 0.1590244 0.1587481 0.1585811 0.1585273 0.1585558
 0.1586037 0.1586134 0.1585646 0.1584685 0.1583512 0.1582392 0.1581477 0.1580788 0.1580272 0.1579678
 0.1578352 0.1575361 0.1569845 0.1561246 0.154937 0.1534446 0.1517133 0.1498503 0.1480001 0.1463096
 0.1448737 0.1437214 0.1428406 0.1421876 0.1416885 0.1412796 0.1409557 0.1407657 0.1407638 0.1409469
 0.1412106 0.1413977 0.1414404 0.1414389 0.141572 0.1419531 0.1425745 0.1433354 0.144105 0.1447884
 0.1453459 0.1457565 0.1460092 0.1461263 0.1461465 0.1460876 0.1459571 0.1457731 0.1455447 0.145265
 0.1449309 0.1445353 0.1440558 0.1434854 0.142838 0.1421073 0.1412738 0.1403444 0.1393219 0.138179
 0.1369573 0.135856 0.1351464 0.1350058 0.1354309 0.1362528 0.1372528 0.1383054 0.1393445 0.1401867
 0.1405881 0.1406168 0.1408269 0.1418573 0.1438336 0.1462348 0.1483492 0.1497834 0.150524 0.1506729
 0.1502942 0.1494343 0.1480961 0.1462262 0.1438426 0.1410935 0.1381353 0.1350982 0.1321789 0.1295862
 0.1274106 0.125654 0.1242962 0.1233554 0.1229504 0.1227313 0.1208519 0.1149075 0.1056414 0.09864898
 0.0996858 0.1082003 0.1177118 0.1226742 0.1228945 0.1212762 0.1198282 0.1188626 0.1182983 0.1182871
 0.1189408 0.1201044 0.1214108 0.1224922 0.1231861 0.1235026 0.1233784 0.1224622 0.1200391 0.1152608
 0.1078295 0.0986122 0.08936068 0.0816939 0.07635145 0.0731931 0.07157502 0.07074726 0.07021467 0.06993824
 0.07020985 0.07130653 0.07326101 0.07592483 0.07911871 0.08259588 0.08594577 0.08876115 0.09094009 0.09266987
 0.09409608 0.09514879 0.09569757 0.09573388 0.09536849 0.09474523 0.09399129 0.09318313 0.0923001 0.09124374
 0.08999381 0.08875661 0.08785535 0.0874337 0.08735546 0.08740397 0.08746134 0.0874898 0.08747508 0.08742464
 0.08735679 0.08730693 0.08736825 0.0876447 0.0881169 0.0886181 0.08897275 0.08913307 0.08918084 0.08917992
 0.08901283 0.08847988 0.08764539 0.08688851 0.08640942 0.08588056 0.08487529 0.08352171 0.08243803 0.08205903
 0.08225319 0.08258037 0.08271553 0.08259888 0.08237987 0.08233321 0.08268347 0.08333591 0.08385135 0.08384924
</values></Ydata></ScRf><Data_Parameters_AB><parameter name="DPF">1</parameter><parameter name="NPT">3497</parameter><parameter name="FXV">3996</parameter><parameter name="LXV">500</parameter><parameter name="CSF">1</parameter><parameter name="MXY">0.0279626250267029</parameter><parameter name="MNY">-0.0517095923423767</parameter><parameter name="DAT">30/05/2022</parameter><parameter name="TIM">11:22:14.913 (GMT+2)</parameter><parameter name="DXU">WN</parameter></Data_Parameters_AB><AB__Qtest><MainReport name="Quality Test Report"><Header><Line><Legend>Test result ok/not ok [1/0]: </Legend><Value>0</Value></Line><Line><Legend>Method file: </Legend><Value>C:\Users\Public\Documents\Bruker\OPUS_8.2.28\QT\IRBT_v3_default.QT</Value></Line></Header><Matrix><Line><Legend></Legend><Legend>min</Legend><Legend>max</Legend><Legend>measured</Legend></Line><Line><Value>Absorption (X-Range 1):</Value><Value>0.400000</Value><Value>2.000000</Value><Value>0.051619</Value></Line><Line><Value>Noise (X-Range 4):</Value><Value></Value><Value>0.000300</Value><Value>0.000047</Value></Line><Line><Value>Signal/Noise (X-Range 2):</Value><Value>200.000000</Value><Value></Value><Value>14.338520</Value></Line><Line><Value>Signal/Noise (X-Range 3):</Value><Value>40.000000</Value><Value></Value><Value>11.475752</Value></Line><Line><Value>Water vapour (X-Range 5):</Value><Value></Value><Value>0.000300</Value><Value>0.000050</Value></Line><Line><Value>Signal/Water (X-Range 2):</Value><Value>100.000000</Value><Value></Value><Value>13.371447</Value></Line><Line><Value>Signal/Water (X-Range 3):</Value><Value>20.000000</Value><Value></Value><Value>10.701760</Value></Line><Line><Value>Fringes (X-Range 6):</Value><Value></Value><Value>0.000100</Value><Value>0.000049</Value></Line></Matrix></MainReport></AB__Qtest><Data_Parameters_ScSm><parameter name="DPF">1</parameter><parameter name="NPT">1814</parameter><parameter name="FXV">3996.33169228125</parameter><parameter name="LXV">499.541461535156</parameter><parameter name="CSF">1</parameter><parameter name="MXY">0.266796052455902</parameter><parameter name="MNY">0.0351896286010742</parameter><parameter name="DAT">30/05/2022</parameter><parameter name="TIM">11:22:14.913 (GMT+2)</parameter><parameter name="DXU">WN</parameter></Data_Parameters_ScSm><Data_Parameters_ScRf><parameter name="DPF">1</parameter><parameter name="NPT">1820</parameter><parameter name="FXV">4004.04661832813</parameter><parameter name="LXV">495.683998511719</parameter><parameter name="CSF">1</parameter><parameter name="MXY">0.264541774988174</parameter><parameter name="MNY">0.0321801640093327</parameter><parameter name="DAT">30/05/2022</parameter><parameter name="TIM">11:21:49.259 (GMT+2)</parameter><parameter name="DXU">WN</parameter></Data_Parameters_ScRf><Optic_Parameters_Rf><parameter name="APR">0</parameter><parameter name="APT">Open</parameter><parameter name="BMS">KBr</parameter><parameter name="DTC">RT-DLaTGS_IR-Biotyper [Microplate reader]</parameter><parameter name="HPF">0</parameter><parameter name="LPF">10.0</parameter><parameter name="LPV">4000</parameter><parameter name="PGR">0</parameter><parameter name="RCH">Module port</parameter><parameter name="RDX">0</parameter><parameter name="SRC">MIR</parameter><parameter name="VEL">10.0</parameter><parameter name="SON">Off</parameter></Optic_Parameters_Rf><Acquisition_Parameters_Rf><parameter name="ADT">1</parameter><parameter name="AQM">DD</parameter><parameter name="CFE">0</parameter><parameter name="COR">0</parameter><parameter name="DEL">0</parameter><parameter name="DLY">0</parameter><parameter name="HFW">8000</parameter><parameter name="LFW">0</parameter><parameter name="NSR">32</parameter><parameter name="PLF">AB</parameter><parameter name="RES">6</parameter><parameter name="RGN">-1</parameter><parameter name="STR">0</parameter><parameter name="TCL">MakeCompatibleScalar (0, {WSV=1.000000, ARV=0});</parameter><parameter name="TDL">37</parameter><parameter name="RPO">0</parameter></Acquisition_Parameters_Rf><FT_-_Parameters_Rf><parameter name="APF">B3</parameter><parameter name="HFQ">500</parameter><parameter name="LFQ">4000</parameter><parameter name="NLI">0</parameter><parameter name="PHR">24</parameter><parameter name="PHZ">ML</parameter><parameter name="SPZ">NO</parameter><parameter name="ZFF">1</parameter></FT_-_Parameters_Rf><Optic_Parameters_><parameter name="APR">0</parameter><parameter name="APT">Open</parameter><parameter name="BMS">KBr</parameter><parameter name="CHN">Module port</parameter><parameter name="DTC">RT-DLaTGS_IR-Biotyper [Microplate reader]</parameter><parameter name="HPF">0</parameter><parameter name="LPF">10.0</parameter><parameter name="LPV">4000</parameter><parameter name="PGN">0</parameter><parameter name="RDX">0</parameter><parameter name="SRC">MIR</parameter><parameter name="VEL">10.0</parameter><parameter name="SON">Off</parameter></Optic_Parameters_><FT_-_Parameters_><parameter name="APF">B3</parameter><parameter name="HFQ">500</parameter><parameter name="LFQ">4000</parameter><parameter name="NLI">0</parameter><parameter name="PHR">24</parameter><parameter name="PHZ">ML</parameter><parameter name="SPZ">NO</parameter><parameter name="ZFF">1</parameter></FT_-_Parameters_><Acquisition_Parameters_><parameter name="ADT">1</parameter><parameter name="AQM">DD</parameter><parameter name="CFE">0</parameter><parameter name="COR">0</parameter><parameter name="DEL">0</parameter><parameter name="DLY">0</parameter><parameter name="HFW">8000</parameter><parameter name="LFW">0</parameter><parameter name="NSS">32</parameter><parameter name="PLF">AB</parameter><parameter name="RES">6</parameter><parameter name="SOT">0</parameter><parameter name="TCL">MakeCompatibleScalar (0, {WSV=1.000000, ARV=0});</parameter><parameter name="TDL">37</parameter><parameter name="SPO">0</parameter><parameter name="SGN">-1</parameter></Acquisition_Parameters_><Instrument_Parameters_Rf><parameter name="HFL">15800.168544</parameter><parameter name="LFL">0</parameter><parameter name="LWN">15800.168544</parameter><parameter name="ABP">32197</parameter><parameter name="SSP">1</parameter><parameter name="ARG">2</parameter><parameter name="ASG">2</parameter><parameter name="ASS">32</parameter><parameter name="GFW">16</parameter><parameter name="GBW">16</parameter><parameter name="BFW">0</parameter><parameter name="BBW">0</parameter><parameter name="PKA">7316</parameter><parameter name="PKL">4990</parameter><parameter name="PRA">7474</parameter><parameter name="PRL">5001</parameter><parameter name="P2A">1</parameter><parameter name="P2L">1</parameter><parameter name="P2R">1</parameter><parameter name="P2K">1</parameter><parameter name="DAQ">0</parameter><parameter name="AG2">1</parameter><parameter name="SSM">1</parameter><parameter name="RSN">25194</parameter><parameter name="CRR">0</parameter><parameter name="SRT">1653909709.26</parameter><parameter name="DUR">19.6369934082031</parameter><parameter name="TSC">28</parameter><parameter name="MVD">0.389185845851898</parameter><parameter name="AN1">0.225816042349652</parameter><parameter name="AN2">0</parameter><parameter name="VSN">2.485 Apr  4 2017</parameter><parameter name="SRN">0085</parameter><parameter name="CAM">0</parameter><parameter name="INS">IR-Biotyper</parameter><parameter name="FOC">69</parameter><parameter name="RDY">1</parameter><parameter name="ARS">32</parameter></Instrument_Parameters_Rf><Sample_Parameters_><parameter name="BLD"></parameter><parameter name="CNM">Admin</parameter><parameter name="CPY"></parameter><parameter name="DPM"></parameter><parameter name="EXP">IRBT_v3_32Scans.XPM</parameter><parameter name="LCT"></parameter><parameter name="SFM">Microplate, HTS-XT</parameter><parameter name="SNM">220530-1021_CLA33F (D_8)_D3_a4aab0df-0488-43c8-81a2-f57b93fd76ad.0</parameter><parameter name="XPP">C:\Users\Public\Documents\Bruker\OPUS_8.2.28\XPM</parameter><parameter name="IST">OK</parameter><parameter name="CPG">1252</parameter><parameter name="UID">50c8c2fc-2486-46c3-b3ab-169013144eab</parameter></Sample_Parameters_><Instrument_Parameters_><parameter name="HFL">15800.168544</parameter><parameter name="LFL">0</parameter><parameter name="LWN">15800.168544</parameter><parameter name="ABP">32197</parameter><parameter name="SSP">1</parameter><parameter name="ASG">2</parameter><parameter name="ARG">2</parameter><parameter name="ASS">32</parameter><parameter name="GFW">16</parameter><parameter name="GBW">16</parameter><parameter name="BFW">0</parameter><parameter name="BBW">0</parameter><parameter name="PKA">7589</parameter><parameter name="PKL">4990</parameter><parameter name="PRA">7821</parameter><parameter name="PRL">4993</parameter><parameter name="P2A">1</parameter><parameter name="P2L">1</parameter><parameter name="P2R">1</parameter><parameter name="P2K">1</parameter><parameter name="DAQ">0</parameter><parameter name="AG2">1</parameter><parameter name="SSM">1</parameter><parameter name="RSN">13223</parameter><parameter name="CRR">0</parameter><parameter name="SRT">1653909734.913</parameter><parameter name="DUR">19.6379852294922</parameter><parameter name="TSC">28</parameter><parameter name="MVD">0.32212695479393</parameter><parameter name="AN1">0.225814326226673</parameter><parameter name="AN2">0</parameter><parameter name="VSN">2.485 Apr  4 2017</parameter><parameter name="SRN">0085</parameter><parameter name="CAM">0</parameter><parameter name="INS">IR-Biotyper</parameter><parameter name="FOC">69</parameter><parameter name="RDY">1</parameter></Instrument_Parameters_><History/></OPUSDataFile>
