<?xml version="1.0" encoding="UTF-8" ?>
<OPUSDataFile><AB><Ydata ylabel="Absorbance Units"><values byteorder="INTEL" format="FLOAT32" numvalues="3497"> -0.03523919 -0.03528241 -0.03532928 -0.03538177 -0.03541053 -0.03541406 -0.03537433 -0.03529292 -0.03518271 -0.03504974
 -0.03493603 -0.03484494 -0.03481407 -0.03483474 -0.03490858 -0.03501844 -0.03513691 -0.03525409 -0.03534566 -0.03541675
 -0.03546238 -0.0354932 -0.0355144 -0.03553037 -0.03554455 -0.03555522 -0.0355625 -0.03556479 -0.03556145 -0.03555441
 -0.03554348 -0.03553491 -0.03552904 -0.03553138 -0.03554165 -0.03555759 -0.03557797 -0.03559386 -0.03560566 -0.0356093
 -0.03560781 -0.03560643 -0.0356073 -0.03561656 -0.03563411 -0.03566181 -0.03570023 -0.03575126 -0.03581226 -0.03588571
 -0.03595622 -0.03602094 -0.03605866 -0.0360611 -0.03602935 -0.03595885 -0.035882 -0.03580092 -0.03574875 -0.03572747
 -0.03574 -0.03578459 -0.03583804 -0.0358988 -0.03594483 -0.03597891 -0.03599833 -0.03600849 -0.03602083 -0.03603903
 -0.03607524 -0.03612775 -0.03620239 -0.03628695 -0.03637691 -0.03645228 -0.03650025 -0.03651138 -0.03647427 -0.03640871
 -0.03631361 -0.03622764 -0.03615657 -0.03612904 -0.03614929 -0.03622278 -0.0363501 -0.03651731 -0.03672205 -0.03693121
 -0.03713926 -0.03729493 -0.03739616 -0.0374014 -0.03732704 -0.03718683 -0.03700802 -0.03684502 -0.03670659 -0.03662892
 -0.03659647 -0.03661229 -0.0366488 -0.03669193 -0.03672234 -0.03672567 -0.03671037 -0.03667267 -0.03664066 -0.03661883
 -0.03662398 -0.03665976 -0.03671451 -0.03678781 -0.03685647 -0.0369206 -0.03697707 -0.03702866 -0.03709269 -0.03716828
 -0.03726446 -0.03737184 -0.037473 -0.0375582 -0.03759934 -0.03760251 -0.03756101 -0.03749111 -0.03740607 -0.03730955
 -0.03720568 -0.03709996 -0.03698744 -0.03690724 -0.0368646 -0.03690925 -0.03705397 -0.03730391 -0.03766757 -0.03805722
 -0.03846915 -0.03870879 -0.0387737 -0.03858044 -0.03816308 -0.03770696 -0.03722801 -0.03688981 -0.03667083 -0.03660029
 -0.0366515 -0.03679824 -0.03700569 -0.03722705 -0.03742648 -0.037553 -0.0376098 -0.03757297 -0.03749889 -0.03740377
 -0.03732969 -0.03729828 -0.03728881 -0.0373027 -0.03730547 -0.03729146 -0.03726778 -0.0372343 -0.03722466 -0.03723921
 -0.03728946 -0.03737034 -0.03745485 -0.03753752 -0.03758141 -0.03758902 -0.03754583 -0.03746196 -0.03734601 -0.03721218
 -0.03707892 -0.03696121 -0.03687841 -0.03683544 -0.03684359 -0.03689062 -0.03697669 -0.03708114 -0.03719873 -0.03731549
 -0.0374282 -0.03753066 -0.03762282 -0.03768903 -0.03772844 -0.03771954 -0.03766247 -0.03755588 -0.0374033 -0.03722639
 -0.03702958 -0.03684006 -0.03666238 -0.03652182 -0.03641993 -0.036374 -0.03637461 -0.03642134 -0.03649316 -0.03657363
 -0.03664434 -0.03668787 -0.03670378 -0.03668506 -0.03664754 -0.03659246 -0.03654088 -0.03649649 -0.03647437 -0.03647725
 -0.03650542 -0.03655931 -0.03662082 -0.03668836 -0.03673256 -0.03675363 -0.03673508 -0.03668525 -0.03662662 -0.03656948
 -0.03655548 -0.03657977 -0.0366574 -0.0367683 -0.03689242 -0.03701904 -0.03712556 -0.03723052 -0.03733649 -0.03746697
 -0.03763911 -0.03783578 -0.0380622 -0.03826613 -0.03843782 -0.03855134 -0.03860099 -0.03859832 -0.03854417 -0.03842075
 -0.0382277 -0.0379497 -0.03759802 -0.03724362 -0.03689876 -0.03665618 -0.03650546 -0.03647289 -0.03652817 -0.03663272
 -0.03675506 -0.03683297 -0.03687313 -0.03685254 -0.03680984 -0.03676475 -0.03673303 -0.03673116 -0.03674059 -0.03676166
 -0.03676578 -0.03674634 -0.03669531 -0.03660873 -0.03651176 -0.03640541 -0.03632784 -0.03628032 -0.0362873 -0.03634552
 -0.03644828 -0.03658393 -0.0367034 -0.03679533 -0.03679496 -0.03672265 -0.03657851 -0.03640191 -0.0362512 -0.03612548
 -0.03605311 -0.03599443 -0.0359335 -0.03584089 -0.0356922 -0.03550964 -0.03528826 -0.03508363 -0.03490669 -0.03478461
 -0.03472565 -0.03469751 -0.03469956 -0.03465829 -0.03457157 -0.03439572 -0.03414168 -0.03386765 -0.03358598 -0.03338427
 -0.03325238 -0.03320805 -0.03323634 -0.03331768 -0.03344341 -0.03359998 -0.03376734 -0.03393137 -0.03405291 -0.03410454
 -0.03406214 -0.03390191 -0.03364629 -0.0332922 -0.03288488 -0.03243013 -0.03197294 -0.03151916 -0.03109679 -0.03070855
 -0.03034868 -0.03001673 -0.02970103 -0.02940439 -0.02914261 -0.02891896 -0.02875978 -0.02865656 -0.02860366 -0.02858285
 -0.02855804 -0.02851689 -0.02843074 -0.02828931 -0.02807389 -0.02777999 -0.02738752 -0.0269416 -0.02644887 -0.02597592
 -0.02555016 -0.02517409 -0.02485705 -0.02455921 -0.02427666 -0.02398359 -0.02367736 -0.02336707 -0.02305426 -0.02277364
 -0.02252554 -0.02233437 -0.02218791 -0.022055 -0.02190861 -0.02165106 -0.02128497 -0.02074779 -0.02011167 -0.01944633
 -0.01880375 -0.01827032 -0.01781954 -0.01746676 -0.0171551 -0.01686374 -0.0165546 -0.01620813 -0.01582873 -0.0154118
 -0.01498315 -0.01454656 -0.01410653 -0.01366424 -0.01319703 -0.0127042 -0.01217161 -0.01160335 -0.01102417 -0.01043955
 -0.009888134 -0.009367593 -0.008892708 -0.008455454 -0.008049055 -0.007663295 -0.007283188 -0.006898845 -0.006493042 -0.006071
 -0.005627243 -0.005182223 -0.00474864 -0.004318666 -0.003901404 -0.003440924 -0.002926045 -0.002327607 -0.001632177 -0.0009203922
 -0.0001956431 0.0004312648 0.0009584921 0.001374602 0.001689366 0.001974641 0.002237424 0.002549194 0.002902432 0.003317
 0.003772997 0.004241151 0.004708701 0.005139751 0.005550005 0.005933587 0.006331363 0.006769586 0.007268185 0.00785426
 0.008483361 0.009153598 0.009798999 0.01040363 0.0109442 0.0114129 0.01183245 0.01220311 0.01256846 0.01293042
 0.01332212 0.0137421 0.01419313 0.01467298 0.01517205 0.01569271 0.01623897 0.01680856 0.01740564 0.01800964
 0.0185969 0.01914547 0.01962007 0.02003055 0.02036691 0.0206634 0.0209337 0.02119724 0.02146576 0.0217315
 0.02199464 0.0222473 0.02248617 0.02273098 0.02298224 0.02327663 0.02361512 0.02401066 0.02445772 0.02491764
 0.02538219 0.0257897 0.02614565 0.02642771 0.02665967 0.02687747 0.02709899 0.02737154 0.02767887 0.02802927
 0.02838311 0.02871351 0.02900659 0.02923866 0.02945265 0.02965075 0.02989792 0.03021077 0.03060989 0.03110504
 0.03165082 0.03224584 0.03281962 0.03336938 0.03385393 0.03427581 0.03463819 0.03494544 0.03521844 0.0354601
 0.03568719 0.03590589 0.03613444 0.03638163 0.03666937 0.03699547 0.03736906 0.03777476 0.03820373 0.03864993
 0.03910606 0.03958079 0.04007959 0.0405883 0.04111028 0.0415975 0.04204264 0.04242637 0.04274406 0.04305499
 0.04336283 0.04375225 0.04421944 0.04477368 0.04539524 0.04599765 0.04656615 0.04700404 0.04732885 0.04752062
 0.04762424 0.04769482 0.04776159 0.04788172 0.04803753 0.04823823 0.04844906 0.04865119 0.04884287 0.04901524
 0.04919465 0.04938605 0.04960248 0.04984774 0.05011323 0.05039866 0.05069498 0.05100195 0.05131855 0.05164583
 0.05199132 0.05235815 0.05276639 0.05321576 0.05372182 0.05426877 0.05483726 0.05540078 0.05591181 0.05636017
 0.05671244 0.05698856 0.05718904 0.05734244 0.05746394 0.05756368 0.05764826 0.05771844 0.05777216 0.05782957
 0.05789096 0.05799188 0.05813552 0.0583377 0.0585984 0.05889842 0.05923563 0.05958255 0.05993949 0.06029477
 0.06064775 0.06099216 0.06132308 0.06162617 0.0619012 0.06213679 0.06234923 0.06254634 0.06275419 0.06299587
 0.06327649 0.06361344 0.06396738 0.06433435 0.06465934 0.06492512 0.06512809 0.06525961 0.06538257 0.06550129
 0.06566506 0.06587447 0.06609067 0.0663075 0.06644656 0.06651383 0.06649204 0.06640257 0.0663024 0.06620521
 0.06617122 0.06619158 0.06628243 0.06642215 0.06659548 0.06678468 0.06697013 0.06715255 0.06732204 0.06750488
 0.06770606 0.06795274 0.06825733 0.06860019 0.06898606 0.0693413 0.06966083 0.06987951 0.06999535 0.07001512
 0.06994521 0.0698508 0.06973535 0.0696519 0.06959451 0.06957051 0.06957752 0.06961081 0.06967857 0.06979416
 0.0699538 0.07016753 0.07040173 0.07063839 0.07084555 0.07099503 0.07110411 0.071165 0.07123302 0.07132035
 0.07145671 0.07165299 0.07187624 0.0721266 0.07233685 0.07250384 0.07258025 0.07256871 0.07247403 0.07230671
 0.07211978 0.07192513 0.07178954 0.07171359 0.0717365 0.07183851 0.07201391 0.07222626 0.07243914 0.07261916
 0.07272753 0.07276234 0.07270457 0.07259375 0.07243371 0.07227956 0.07214392 0.07206205 0.07204124 0.0720937
 0.07222096 0.07243162 0.07272599 0.07310489 0.07356367 0.07406064 0.07458191 0.07503469 0.07540879 0.07561451
 0.07567047 0.07556056 0.07533766 0.07506849 0.07480551 0.07463582 0.07456086 0.07462329 0.07475898 0.07495662
 0.07512993 0.07524633 0.07525915 0.07514502 0.0749272 0.07460046 0.07423714 0.07384226 0.07348041 0.07315445
 0.07287856 0.07265018 0.07244612 0.07226586 0.07209311 0.07193319 0.07179582 0.0716835 0.07161168 0.07156648
 0.07154103 0.07150197 0.07141514 0.07124767 0.07095979 0.07055417 0.07001102 0.06938335 0.06867787 0.0679667
 0.06726685 0.0666259 0.06605483 0.06556373 0.06515574 0.0648114 0.06452943 0.06426492 0.0640152 0.06373309
 0.06342324 0.06308206 0.06272339 0.06239353 0.06209495 0.0618642 0.06167563 0.06150974 0.06133421 0.06110102
 0.06081163 0.06044117 0.06003616 0.0596073 0.05921404 0.05888187 0.05863356 0.05848764 0.05839893 0.05836991
 0.05830617 0.05819977 0.05798041 0.05764499 0.05721126 0.05668656 0.05615871 0.05563306 0.0551874 0.05481327
 0.05452651 0.05431034 0.05413576 0.05399027 0.05384158 0.05368543 0.05350457 0.05330149 0.0530715 0.05282247
 0.05255554 0.05228318 0.05200842 0.05174626 0.05150046 0.05128189 0.05109391 0.05093247 0.05079864 0.05066941
 0.05054352 0.05039186 0.05021422 0.0499977 0.04974598 0.04947154 0.04917935 0.04889346 0.04861426 0.0483558
 0.04811271 0.04788328 0.0476613 0.04743901 0.04721377 0.04698084 0.04674076 0.04649225 0.0462377 0.0459775
 0.04571415 0.04544856 0.04518063 0.04491057 0.04463691 0.0443593 0.04408055 0.04380079 0.04352521 0.04325345
 0.04298343 0.04271364 0.0424336 0.04214412 0.04184043 0.04152862 0.04121954 0.04091959 0.04064566 0.04039504
 0.040174 0.03996978 0.03977353 0.03958002 0.03937863 0.03918979 0.03901598 0.0388852 0.03881056 0.03877506
 0.03878516 0.03876381 0.03870543 0.03853768 0.03825675 0.03787136 0.03738844 0.03689472 0.03639797 0.03598987
 0.03566488 0.03545835 0.03534731 0.03530182 0.03529028 0.03524818 0.03515963 0.0349732 0.03471463 0.0343779
 0.03401932 0.033668 0.03335692 0.03311166 0.03291233 0.03276061 0.03262477 0.03249639 0.0323853 0.03228982
 0.0322503 0.03226883 0.03235744 0.0325118 0.03268262 0.0328603 0.03296232 0.03298735 0.03288022 0.03266042
 0.03233962 0.03195135 0.03155618 0.03117169 0.03084783 0.03056751 0.03033553 0.03012707 0.02992432 0.02973392
 0.02955114 0.02939988 0.02928947 0.02921117 0.0291684 0.02912227 0.02906814 0.02899634 0.02890611 0.02883587
 0.02878714 0.02879227 0.02884558 0.02893071 0.0290396 0.02913265 0.02921173 0.02925935 0.02928626 0.02930306
 0.02931591 0.02934031 0.02936492 0.02939205 0.02939066 0.02934656 0.02923169 0.0290256 0.02874476 0.02837905
 0.02800498 0.02762958 0.02733884 0.02714473 0.02706218 0.02709278 0.02715862 0.02725367 0.02727543 0.02722679
 0.02706805 0.02681729 0.02651652 0.0261842 0.02588845 0.02562937 0.02544175 0.02530723 0.0252198 0.02515836
 0.02510344 0.02504485 0.02496905 0.02488364 0.02478487 0.02469686 0.02462408 0.02458897 0.02459921 0.02464193
 0.02471945 0.02477861 0.02481648 0.02479279 0.02471004 0.02459416 0.02445378 0.02435843 0.02430639 0.024333
 0.0244208 0.02454313 0.02469113 0.02482964 0.02498036 0.02514917 0.02537303 0.02568409 0.02610384 0.02665316
 0.02733877 0.02816436 0.02914613 0.0302869 0.03160902 0.0331203 0.03480807 0.036677 0.03864675 0.04071342
 0.04274249 0.04472609 0.04652686 0.04814195 0.04948213 0.05055413 0.05133295 0.05183064 0.05206278 0.05204047
 0.05178656 0.05131478 0.05064296 0.04980082 0.04880738 0.04771747 0.04655658 0.04539615 0.0442638 0.0432244
 0.0422993 0.04152608 0.04091449 0.04047924 0.04022165 0.0401631 0.04030467 0.04068939 0.04131877 0.04222623
 0.04340495 0.0448327 0.0464928 0.04831155 0.05027692 0.05231896 0.05444322 0.0566247 0.05888115 0.06122291
 0.06366716 0.0662306 0.06892587 0.07176451 0.07475282 0.07790048 0.08118936 0.08462609 0.08814469 0.09174377
 0.09531184 0.09884098 0.1022073 0.1054031 0.1083276 0.1109774 0.1132894 0.1152647 0.116875 0.1181302
 0.1190412 0.1196424 0.1200064 0.1202038 0.120375 0.1206045 0.1210501 0.1217535 0.1228141 0.1241966
 0.1259184 0.1279018 0.1301219 0.1325194 0.1350736 0.1377555 0.1405592 0.1434566 0.1464468 0.1494809
 0.1525564 0.1556005 0.158608 0.1614889 0.1642382 0.166776 0.1691042 0.1711869 0.1730316 0.1746438
 0.1760182 0.1771602 0.1780303 0.1785988 0.1787872 0.1785312 0.1777431 0.1763495 0.1743224 0.1716095
 0.1683137 0.1644236 0.1601759 0.1555931 0.1509621 0.1463135 0.1418695 0.1376465 0.133734 0.1301303
 0.1268069 0.1237544 0.1208976 0.1182306 0.1156928 0.1132796 0.1109531 0.1087027 0.1064937 0.1043161
 0.1021398 0.09997388 0.09781031 0.09567878 0.0935919 0.09157945 0.08965473 0.08784048 0.08614101 0.08459078
 0.08319116 0.08200233 0.0810281 0.08034472 0.07995709 0.07992768 0.08025577 0.08093756 0.08195525 0.08319289
 0.08461834 0.08603841 0.08744301 0.08868886 0.0898296 0.09087389 0.09193041 0.09312981 0.09457024 0.09638945
 0.09860539 0.1012883 0.1043481 0.1077887 0.1114346 0.1152571 0.1190427 0.1227608 0.1261979 0.1293351
 0.1319503 0.134031 0.1353005 0.1357417 0.13504 0.1331941 0.1300125 0.1255616 0.1199655 0.1133761
 0.1062261 0.09868733 0.09126513 0.08405385 0.07738753 0.07124507 0.06573273 0.06075952 0.05630574 0.05227824
 0.0486377 0.04531377 0.04228334 0.03948911 0.03691884 0.03452904 0.03231339 0.03024786 0.02833052 0.02654585
 0.02489264 0.02334942 0.02191435 0.02056345 0.01929635 0.01809812 0.01697077 0.01591204 0.01492405 0.01401139
 0.01317051 0.01240264 0.01169268 0.01103108 0.01039634 0.009771935 0.009148499 0.00851399 0.007884306 0.007258642
 0.006666171 0.006112958 0.005613099 0.005170973 0.004769815 0.004409214 0.004057063 0.003712431 0.003359209 0.002999801
 0.002645258 0.002296795 0.001968058 0.001652401 0.001339893 0.001021794 0.0006739519 0.0003008081 -0.0001063961 -0.0005275763
 -0.000949544 -0.00135218 -0.001717862 -0.00204151 -0.002314422 -0.002547085 -0.002738173 -0.002910073 -0.00306495 -0.003230867
 -0.003411534 -0.003623576 -0.003868907 -0.004137151 -0.004427046 -0.004711566 -0.004989926 -0.005243195 -0.005473263 -0.005677946
 -0.005859474 -0.006022519 -0.006168847 -0.006303413 -0.006428357 -0.006549197 -0.006664811 -0.006778332 -0.006880882 -0.006968782
 -0.007032249 -0.007063498 -0.007068617 -0.007043506 -0.007016758 -0.00699152 -0.006999729 -0.007046957 -0.007138305 -0.007275346
 -0.007429274 -0.007598294 -0.007746205 -0.007873612 -0.007967614 -0.008032532 -0.008080055 -0.008113297 -0.008147957 -0.008182
 -0.00821965 -0.008256066 -0.008286297 -0.008307675 -0.00831373 -0.008311005 -0.008298403 -0.008293521 -0.008301977 -0.00834266
 -0.008423564 -0.008548672 -0.008722532 -0.008928281 -0.009165687 -0.009408214 -0.009654032 -0.00988329 -0.01009543 -0.01028386
 -0.01044938 -0.01059501 -0.0107216 -0.01083423 -0.01093352 -0.01102363 -0.01110508 -0.01118114 -0.01125107 -0.01131583
 -0.01137289 -0.01142006 -0.0114562 -0.01147868 -0.01149174 -0.01149555 -0.01149775 -0.01150068 -0.01150904 -0.01152467
 -0.0115462 -0.0115741 -0.01160257 -0.0116313 -0.01165347 -0.01166879 -0.01167319 -0.01166698 -0.01165064 -0.01162503
 -0.01159355 -0.01155792 -0.01152402 -0.01149474 -0.011478 -0.01147655 -0.01149802 -0.01154179 -0.01161081 -0.01170095
 -0.01181102 -0.0119356 -0.0120728 -0.0122161 -0.01236385 -0.01250868 -0.01264867 -0.01278074 -0.0129037 -0.0130224
 -0.01313704 -0.0132539 -0.01337307 -0.01349357 -0.01361488 -0.0137319 -0.01384519 -0.01395427 -0.01406087 -0.01417025
 -0.01428253 -0.01440145 -0.01452372 -0.01464694 -0.01476689 -0.01487848 -0.01498002 -0.01506874 -0.01514502 -0.01520835
 -0.01525946 -0.01529769 -0.01532746 -0.0153483 -0.01537162 -0.01539843 -0.01544066 -0.01549955 -0.01557569 -0.01566875
 -0.01576786 -0.01587252 -0.01597312 -0.01607093 -0.01616629 -0.01626143 -0.01636325 -0.0164724 -0.01659442 -0.01672653
 -0.01686846 -0.01701402 -0.01715758 -0.01729372 -0.01741629 -0.01752594 -0.01762041 -0.01770584 -0.01778375 -0.01785815
 -0.01793054 -0.01799988 -0.01806608 -0.01812916 -0.01818891 -0.01825098 -0.01831564 -0.01838814 -0.01846803 -0.01855368
 -0.01864394 -0.01873231 -0.01881871 -0.01889931 -0.01897517 -0.01904673 -0.0191145 -0.01917959 -0.01924158 -0.01930034
 -0.01935585 -0.01940819 -0.01945694 -0.01950213 -0.01954248 -0.01957714 -0.01960755 -0.01963293 -0.01966074 -0.01969161
 -0.01973342 -0.0197871 -0.01985135 -0.01992589 -0.02000096 -0.02007634 -0.02014559 -0.02021022 -0.02027407 -0.02033829
 -0.02040929 -0.02048484 -0.02056392 -0.020643 -0.02071564 -0.02078255 -0.02084075 -0.02089599 -0.02095143 -0.02101064
 -0.02107746 -0.02114767 -0.02122142 -0.02129166 -0.02135651 -0.02141424 -0.02146403 -0.02150896 -0.0215492 -0.02158724
 -0.02162316 -0.02165664 -0.02168768 -0.02171616 -0.0217424 -0.0217681 -0.02179321 -0.02181876 -0.02184386 -0.02186696
 -0.02188785 -0.02190481 -0.02192013 -0.02193512 -0.02195253 -0.02197554 -0.02200235 -0.02203392 -0.0220643 -0.02209153
 -0.0221128 -0.02212614 -0.02213714 -0.02214586 -0.02216093 -0.0221832 -0.0222152 -0.02225691 -0.02230296 -0.02235302
 -0.02240125 -0.02244845 -0.02249529 -0.02254315 -0.0225972 -0.02265677 -0.02272361 -0.02279474 -0.02286632 -0.02293691
 -0.02300286 -0.02306639 -0.02312828 -0.02318929 -0.02325111 -0.02330939 -0.0233632 -0.02340855 -0.02344325 -0.0234726
 -0.02349616 -0.0235267 -0.02356526 -0.0236199 -0.02369079 -0.02377324 -0.02386615 -0.02395697 -0.02404519 -0.02412131
 -0.02418659 -0.02423979 -0.02428262 -0.02431808 -0.02434721 -0.0243724 -0.02439523 -0.02441752 -0.02444222 -0.02447212
 -0.02450826 -0.02455281 -0.02460175 -0.02465478 -0.02470589 -0.02475337 -0.02479549 -0.02483124 -0.02486527 -0.02489781
 -0.02493402 -0.02497409 -0.02501755 -0.02506402 -0.02510906 -0.02515298 -0.02519477 -0.0252357 -0.02527971 -0.02532663
 -0.02537883 -0.02543347 -0.02548763 -0.0255383 -0.02558091 -0.02561513 -0.02563895 -0.02565407 -0.02566026 -0.02566095
 -0.02565639 -0.02565278 -0.0256511 -0.02565808 -0.02567525 -0.02570262 -0.02574073 -0.02578032 -0.02582092 -0.02585281
 -0.02587635 -0.02589152 -0.02589999 -0.02591057 -0.02592376 -0.02594643 -0.02597651 -0.02601313 -0.02605368 -0.02609354
 -0.02613199 -0.02616652 -0.02619735 -0.02622409 -0.02624645 -0.0262643 -0.02627706 -0.02628429 -0.02628672 -0.02628414
 -0.02627891 -0.026271 -0.02626527 -0.02626205 -0.02626655 -0.02627897 -0.02629959 -0.02632787 -0.02635828 -0.02639028
 -0.02641802 -0.02644176 -0.0264594 -0.02647122 -0.02647686 -0.02647639 -0.02646937 -0.02645703 -0.02643986 -0.02642088
 -0.02640228 -0.0263865 -0.02637568 -0.02636966 -0.02636938 -0.02637179 -0.02637644 -0.02638049 -0.02638316 -0.02638541
 -0.02638706 -0.02639285 -0.02640303 -0.02642194 -0.02644978 -0.02648964 -0.02654216 -0.026612 -0.02670042 -0.02681381
 -0.02695345 -0.02712487 -0.02732957 -0.02757156 -0.02785338 -0.02817901 -0.02855048 -0.02897071 -0.02943975 -0.02995762
 -0.03052681 -0.03114669 -0.03182591 -0.03256562 -0.03337643 -0.0342613 -0.0352177 -0.03624775 -0.03731571 -0.03841908
 -0.03946549 -0.04044538 -0.04122144 -0.04178776 -0.04203596 -0.04197744 -0.04158739 -0.04089159 -0.03991726 -0.03872912
 -0.03741838 -0.03608805 -0.03488645 -0.03386323 -0.03311148 -0.03260854 -0.03237083 -0.03235276 -0.03254909 -0.03289551
 -0.03338934 -0.03391126 -0.03444939 -0.03486681 -0.03514567 -0.03527355 -0.03524991 -0.03516959 -0.03503485 -0.03490165
 -0.03476311 -0.03460964 -0.03443554 -0.03421391 -0.03395 -0.03363879 -0.03329629 -0.03294583 -0.03259741 -0.03227519
 -0.03196887 -0.03168038 -0.03139238 -0.03109332 -0.03078437 -0.03046025 -0.03013956 -0.0298256 -0.0295326 -0.02926403
 -0.02902078 -0.02880367 -0.02860566 -0.02842638 -0.02825584 -0.02809395 -0.02793589 -0.02778302 -0.02764056 -0.02750967
 -0.02739829 -0.02730404 -0.02722626 -0.02716023 -0.02709759 -0.027037 -0.02697272 -0.02690833 -0.02684474 -0.02678496
 -0.02673183 -0.02668291 -0.02663841 -0.02659393 -0.02654775 -0.02650112 -0.02645327 -0.0264118 -0.02637735 -0.0263558
 -0.02634744 -0.0263495 -0.02636132 -0.0263741 -0.02638751 -0.02639488 -0.02639708 -0.02639341 -0.02638507 -0.0263746
 -0.02636232 -0.02635011 -0.02633713 -0.02632288 -0.02630766 -0.02629056 -0.02627527 -0.02626308 -0.02625827 -0.02626396
 -0.02627671 -0.02629787 -0.02631484 -0.02632589 -0.02632173 -0.0263006 -0.02626812 -0.02622454 -0.02618353 -0.02614522
 -0.02611531 -0.02609249 -0.02607166 -0.02605245 -0.02603031 -0.0260072 -0.02598565 -0.02596699 -0.02595552 -0.02594876
 -0.02594606 -0.02594372 -0.02593809 -0.02592877 -0.025914 -0.02589648 -0.02587689 -0.02585694 -0.02583732 -0.02581814
 -0.02579943 -0.0257817 -0.02576498 -0.02574996 -0.02573669 -0.02572369 -0.02571077 -0.02569468 -0.02567567 -0.02565317
 -0.02562862 -0.02560662 -0.02558866 -0.02558123 -0.02558327 -0.02559706 -0.02561812 -0.0256428 -0.02566602 -0.02568254
 -0.02568972 -0.02568425 -0.02566712 -0.02563695 -0.02559957 -0.02555499 -0.02551429 -0.02547907 -0.02545829 -0.02545357
 -0.0254616 -0.0254823 -0.02550221 -0.02552094 -0.02552934 -0.02552858 -0.02552102 -0.02550794 -0.02549552 -0.02548328
 -0.02547328 -0.02546415 -0.02545421 -0.0254433 -0.02543003 -0.02541629 -0.02540267 -0.02539212 -0.02538676 -0.02538707
 -0.02539469 -0.02540498 -0.02541742 -0.02542645 -0.02543069 -0.02542957 -0.02542263 -0.02541357 -0.02540255 -0.02539254
 -0.02538356 -0.02537659 -0.02537172 -0.02537013 -0.02537166 -0.02537679 -0.0253843 -0.02539165 -0.0253973 -0.02539707
 -0.02539142 -0.0253785 -0.02536158 -0.02534241 -0.02532431 -0.02531002 -0.02529962 -0.02529427 -0.02529104 -0.02528943
 -0.0252871 -0.02528346 -0.02527824 -0.02527126 -0.02526352 -0.02525506 -0.02524839 -0.02524371 -0.02524472 -0.02525114
 -0.02526361 -0.02528067 -0.02529711 -0.02531182 -0.02531844 -0.02531926 -0.02531423 -0.02530852 -0.02530859 -0.02531672
 -0.02533873 -0.02536877 -0.02540679 -0.02544175 -0.02546906 -0.02548331 -0.02548079 -0.02546754 -0.02544333 -0.02541867
 -0.02539478 -0.02537645 -0.02536407 -0.02535651 -0.02535366 -0.0253538 -0.02535668 -0.02536043 -0.02536407 -0.02536276
 -0.02535604 -0.02533924 -0.02531521 -0.02528568 -0.02525594 -0.02523344 -0.02522007 -0.02522151 -0.02523232 -0.02525218
 -0.02527191 -0.02528756 -0.02529464 -0.0252903 -0.02527785 -0.02525698 -0.0252342 -0.02521018 -0.02518934 -0.02517201
 -0.02515972 -0.02515242 -0.02514965 -0.02515107 -0.02515418 -0.02515849 -0.0251606 -0.02516062 -0.0251569 -0.02515017
 -0.02514111 -0.0251298 -0.02511694 -0.02510135 -0.02508222 -0.02505885 -0.02502994 -0.02499786 -0.02496241 -0.02492898
 -0.02489864 -0.02487668 -0.02486449 -0.02486288 -0.0248725 -0.02488832 -0.02491013 -0.02492852 -0.02494303 -0.02494504
 -0.02493512 -0.02491196 -0.0248779 -0.02484102 -0.02480364 -0.02477625 -0.02475841 -0.0247549 -0.02476217 -0.02477833
 -0.02479885 -0.0248194 -0.02483685 -0.02484783 -0.02485252 -0.02484973 -0.02484248 -0.02483167 -0.02481787 -0.02480178
 -0.02477976 -0.02475129 -0.0247158 -0.02467306 -0.0246326 -0.02459504 -0.02457251 -0.02456424 -0.02457149 -0.02459154
 -0.02461416 -0.02463806 -0.02465391 -0.024664 -0.02466785 -0.0246688 -0.02467157 -0.02467592 -0.02468433 -0.02469241
 -0.02469816 -0.02469879 -0.02469146 -0.0246803 -0.02466492 -0.02465397 -0.02464906 -0.0246551 -0.02467318 -0.02470153
 -0.02474018 -0.02478419 -0.02483339 -0.0248845 -0.02493746 -0.02499042 -0.02504294 -0.02509256 -0.02513827 -0.02517619
 -0.02520579 -0.02522377 -0.02523168 -0.02522947 -0.02522052 -0.0252075 -0.02519337 -0.0251808 -0.02517072 -0.02516437
 -0.02516065 -0.02515978 -0.02515928 -0.02515881 -0.02515606 -0.02515065 -0.025142 -0.02513004 -0.0251152 -0.02509752
 -0.02507775 -0.02505621 -0.02503549 -0.02501606 -0.02500163 -0.02499156 -0.02498653 -0.02498473 -0.02498291 -0.0249805
 -0.02497505 -0.02496776 -0.02495911 -0.02494924 -0.02493883 -0.02492609 -0.02491015 -0.02489094 -0.02486768 -0.02484374
 -0.02481942 -0.02479872 -0.0247823 -0.02477071 -0.02476408 -0.02475979 -0.02475774 -0.02475592 -0.02475463 -0.02475536
 -0.02475808 -0.02476407 -0.02477195 -0.02477864 -0.02478304 -0.02478104 -0.02477415 -0.02476269 -0.02474802 -0.02473248
 -0.02471333 -0.02468983 -0.02465874 -0.02461706 -0.02456929 -0.02451494 -0.024464 -0.02441832 -0.024384 -0.02436247
 -0.02435112 -0.02434999 -0.02435141 -0.0243551 -0.0243555 -0.02435329 -0.02435084 -0.02434914 -0.02435432 -0.02436527
 -0.02438291 -0.02440391 -0.02442242 -0.02443634 -0.02443998 -0.02443439 -0.02441804 -0.02439392 -0.02436305 -0.02432895
 -0.02429323 -0.02425838 -0.0242257 -0.02419492 -0.02416639 -0.02413821 -0.02411012 -0.02408186 -0.02405336 -0.02402643
 -0.02400119 -0.02397976 -0.02396223 -0.02395033 -0.02394369 -0.02394196 -0.02394414 -0.02394709 -0.02395056 -0.02395246
 -0.02395322 -0.02395362 -0.02395088 -0.02394375 -0.02392687 -0.02389516 -0.02385051 -0.02379018 -0.02372652 -0.02366254
 -0.02360709 -0.02356375 -0.02352734 -0.02349817 -0.02346558 -0.02342867 -0.02338576 -0.0233372 -0.02329263 -0.0232528
 -0.02322877 -0.02321924 -0.02322586 -0.02324414 -0.02326329 -0.02327835 -0.02327357 -0.02325012 -0.02320054 -0.02313486
 -0.02305898 -0.0229827 -0.02291509 -0.02285703 -0.02281261 -0.02277395 -0.02274016 -0.02270182 -0.02265618 -0.02260256
 -0.02253961 -0.02247798 -0.02241818 -0.02237338 -0.02234386 -0.02233321 -0.02233942 -0.02234931 -0.02235886 -0.02234237
 -0.02230006 -0.0222155 -0.02210024 -0.02196787 -0.02183014 -0.02171121 -0.02160892 -0.02153122 -0.02146868 -0.02141732
 -0.02137097 -0.02132634 -0.0212788 -0.02122744 -0.02116427 -0.02108751 -0.02099245 -0.02087759 -0.02074774 -0.02060298
 -0.02045106 -0.02029237 -0.02013335 -0.01997444 -0.01982245 -0.01967736 -0.01954316 -0.01941867 -0.0193026 -0.0191939
 -0.01909067 -0.01899041 -0.01889054 -0.01878463 -0.01866508 -0.01852995 -0.01837256 -0.01820452 -0.01802892 -0.01785639
 -0.01769341 -0.01753204 -0.01737267 -0.0172015 -0.01701556 -0.01681947 -0.01661304 -0.0164115 -0.01621491 -0.01601872
 -0.01581989 -0.01558973 -0.01532752 -0.01501122 -0.01465014 -0.01425878 -0.01384794 -0.01344926 -0.01305848 -0.01268629
 -0.01231608 -0.01193595 -0.01153348 -0.01109445 -0.01062245 -0.01011545 -0.009579765 -0.009022272 -0.008421179 -0.007781241
 -0.007033439 -0.006173946 -0.005108368 -0.00382828 -0.002299201 -0.0005216379 0.001452567 0.003627357 0.006002667 0.008608253
 0.01157605 0.01494071 0.01888425 0.02339157 0.02855215 0.03425029 0.04039487 0.04680274 0.05327303 0.05967027
 0.06583755 0.07174829 0.07735991 0.08265481 0.08765396 0.0921777 0.0962127 0.09949801 0.1019874 0.1036245
 0.1043957 0.1044315 0.1037391 0.102458 0.1005962 0.09828053 0.09551547 0.09239343 0.08890527 0.08504958
 0.08086921 0.07640029 0.07181095 0.06735243 0.06313731 0.05940596 0.05606849 0.05314314 0.05051148 0.0481138
 0.045914 0.04388933 0.04202758 0.04032758 0.03875217 0.03729516 0.03594181 0.0346881 0.03358937 0.03264763
 0.03189582 0.03132581 0.03087457 0.03053642 0.03024953 0.03001986 0.02983412 0.02969802 0.02961622 0.02959379
 0.02963478 0.0297571 0.02997105 0.03031701 0.03082413 0.03152201 0.0324507 0.03354468 0.03480972 0.03610186
 0.0373898 0.03859241 0.03968964 0.04069038 0.04159198 0.04244426 0.04325106 0.04410509 0.0450162 0.04612482
 0.04741883 0.0489381 0.05061527 0.05225194 0.05383039 0.05519468 0.05641964 0.05754865 0.05864096 0.05977948
 0.06097014 0.06224236 0.06358646 0.0650035 0.06649018 0.06805445 0.06965008 0.07127244 0.07286189 0.07440394
 0.07592043 0.07741167 0.07891144 0.08041872 0.08184672 0.08318711 0.08431637 0.0852482 0.0859806 0.0865418
 0.08702556 0.08743007 0.08780812 0.08811759 0.08830588 0.08838103 0.0883152 0.08817563 0.08800514 0.08783448
 0.08770015 0.08756732 0.08743408 0.08726045 0.08703252 0.08675696 0.08642976 0.08609067 0.08574299 0.08540928
 0.08508954 0.08474381 0.08436849 0.08391057 0.08337405 0.08274996 0.08204728 0.08128645 0.08047971 0.07966111
 0.07884147 0.07805365 0.07729472 0.07657424 0.07588504 0.07521957 0.07459134 0.07400129 0.07347479 0.07302497
 0.0726454 0.07234142 0.07207589 0.07184289 0.07162924 0.07143175 0.07127697 0.07116634 0.07113472 0.07118182
 0.07131873 0.07154182 0.07183834 0.07220613 0.07263069 0.07311432 0.07365365 0.07425487 0.074924 0.07567038
 0.07650393 0.07743631 0.07847723 0.07963859 0.08092667 0.08235514 0.0839279 0.08566255 0.08756652 0.0896346
 0.09187445 0.09421393 0.09665114 0.09906539 0.1014503 0.103704 0.1058201 0.1077064 0.1093459 0.1105966
 0.1114554 0.1118166 0.1117349 0.1112632 0.1104832 0.1095338 0.1084828 0.107453 0.1064731 0.105608
 0.1048352 0.1041597 0.103557 0.1030112 0.1025484 0.1021678 0.1019198 0.1018208 0.1018206 0.101919
 0.1020156 0.1021062 0.1021877 0.1022637 0.1023733 0.1025154 0.1027047 0.1029371 0.1032075 0.1035132
 0.1038591 0.1042086 0.1045492 0.1047341 0.1046203 0.1040554 0.1028398 0.1010538 0.09866848 0.09584142
 0.0926096 0.08912571 0.08540635 0.08169208 0.07801476 0.07457981 0.07141403 0.06853189 0.06593389 0.06352498
 0.06130325 0.05921546 0.05726879 0.05547784 0.05384224 0.05237579 0.05105707 0.0498507 0.04872604 0.04762074
 0.04651717 0.04537214 0.04418422 0.0429399 0.04164027 0.04027595 0.0388746 0.03742367 0.03604045 0.03474877
 0.03363803 0.03274001 0.03196666 0.03131459 0.03068286 0.03006687 0.02946402 0.02887886 0.02836472 0.02792094
 0.02757137 0.02731016 0.02712241 0.0270214 0.02702259 0.02715651 0.02748171 0.02800485 0.0287638 0.02972838
 0.03088679 0.03221877 0.03370818 0.03535515 0.03715409 0.0391157 0.04122378 0.04358637 0.04619008 0.04935365
 0.05310387 0.05771395 0.06319404 0.06911269 0.07540476 0.08114766 0.08634339 0.09052116 0.09375703 0.09605457
 0.09748577 0.09818964 0.09826553 0.09791274 0.09723705 0.09643105 0.09553943 0.09466885 0.09377956 0.0928834
 0.09191754 0.09084963 0.0896972 0.08844737 0.08718707 0.08592338 0.08475516 0.0836932 0.08278631 0.08203711
 0.08140558 0.08088695 0.08041111 0.07997775 0.07955085 0.07913145 0.07870685 0.07827143 0.07780768 0.07730671
 0.0767436 0.07612251 0.07542963 0.07469925 0.07394057 0.07322153 0.07257295 0.07206493 0.07173252 0.07159867
 0.0716802 0.07195346 0.07242066 0.07303606 0.07380074 0.07460627 0.07544647 0.07613031 0.07665164 0.07687384
 0.07681309 0.07648753 0.07592408 0.07522202 0.07440262 0.07356362 0.0727127 0.07191064 0.0711396 0.0704096
 0.06968085 0.06892905 0.06811614 0.0672134 0.06620918 0.0650848 0.06387597 0.0625769 0.06128006 0.05999446
 0.05882198 0.05777488 0.05689056 0.05617158 0.05560999 0.05520689 0.05497448 0.05491587 0.05506061 0.05540107
 0.05593457 0.05663348 0.05744337 0.05831486 0.05915686 0.05990196 0.06044235 0.0607308 0.06067813 0.06032884
 0.05965607 0.05880971 0.05782837 0.05686197 0.05596168 0.05517158 0.0545133 0.05393947 0.053449 0.0529815
 0.05253354 0.05208363 0.05163363 0.05120353 0.05079635 0.05044057 0.05013519 0.04989257 0.04970829 0.04958009
 0.04949914 0.04945283 0.04942704 0.04940124 0.04936562 0.04930398 0.049219 0.04910713 0.04897553 0.04882671
 0.04866289 0.04848513 0.04829388 0.04808898 0.04787334 0.04764712 0.04741357 0.04717287 0.04693093 0.0466889
 0.0464627 0.04625564 0.04609488 0.0459847 0.04595539 0.04600784 0.04616204 0.04640984 0.04675005 0.04716577
 0.04763971 0.04815208 0.04868473 0.04921577 0.04973257 0.05020785 0.05063067 0.05097641 0.05123495 0.05140362
 0.05147741 0.05148186 0.05141755 0.05132375 0.05120271 0.05108847 0.05098179 0.05090016 0.05084184 0.05080613
 0.05078911 0.05077691 0.05076525 0.05073644 0.05068973 0.05061364 0.05051574 0.05039747 0.05027433 0.05015763
 0.05006314 0.05000193 0.04998505 0.0500179 0.05011108 0.05026765 0.0504972 0.05080324 0.05118056 0.05163085
 0.05212432 0.05265947 0.05319099 0.05371656 0.05419446 0.05462469 0.05498429 0.05527839 0.05551105 0.05569274
 0.05584966 0.0559922 0.05615054 0.05632726 0.05653889 0.05677889 0.05704778 0.05733763 0.05764276 0.05796338
 0.05829711 0.05865094 0.05902706 0.05942612 0.0598501 0.06028638 0.06073407 0.06118049 0.0616247 0.06207207
 0.06252395 0.06300253 0.06350914 0.06406479 0.06466669 0.06531826 0.06601033 0.06672539 0.06744772 0.06814571
 0.06880074 0.06937934 0.06986797 0.07024258 0.07050437 0.0706441 0.07067925 0.07061204 0.07046652 0.07024844
 0.06997798 0.06965903 0.06930608 0.06892091 0.06851359 0.06808485 0.0676387 0.06717543 0.06669802 0.06620874
 0.06572241 0.06524411 0.06480158 0.06439716 0.06405309 0.06376299 0.06352755 0.06333579 0.06317362 0.06303689
 0.06291462 0.06281553 0.06273996 0.06270172 0.06270705 0.06276157 0.06286937 0.06302462 0.06322733 0.06346917
 0.06374899 0.06406471 0.06441604 0.06480914 0.06524468 0.06573451 0.06627884 0.06688628 0.06755405 0.06827711
 0.06905005 0.06985594 0.07069293 0.07154872 0.07242735 0.07332911 0.07425722 0.0752154 0.07620256 0.07721879
 0.07826383 0.07933677 0.08044105 0.08157749 0.0827482 0.08395425 0.08519262 0.08646391 0.08775649 0.08906996
 0.09037789 0.09167825 0.09293473 0.09414603 0.09528486 0.0963532 0.09734461 0.09826101 0.09910615 0.09987589
 0.1005675 0.1011691 0.1016662 0.1020463 0.1022918 0.1024028 0.1023698 0.1022127 0.1019328 0.1015641
 0.1011129 0.1006183 0.1000865 0.09955408 0.09902611 0.09852185 0.0980432 0.09758139 0.09713513 0.09668074
 0.09621671 0.09572306 0.09519685 0.09461732 0.0939787 0.09325292 0.09244251 0.09153137 0.09054536 0.08950082
 0.08844668 0.08742236 0.08648653 0.08567934 0.08505379 0.08463974 0.08446836 0.08455881 0.08489933 0.08549899
 0.08628645 0.08726087 0.08829912 0.08939405 0.09041637 0.09136167 0.09215264 0.09279335 0.09327457 0.09360353
 0.09380225 0.09387836 0.09385715 0.09375653 0.09361391 0.09345905 0.09334312 0.09328817 0.09333477 0.09347837
 0.09373382 0.09406879 0.09447987 0.0949157 0.09536534 0.09577487 0.09613326 0.09640457 0.09658252 0.09665757
 0.09662835 0.09650556 0.09629057 0.09600925 0.09566391 0.09528422 0.09487014 0.0944378 0.09398464 0.09351158
 0.0930175 0.09250113 0.09196118 0.09139628 0.09080332 0.09017709 0.08952231 0.08883619 0.08813827 0.08743355
 0.08674582 0.08608152 0.08546125 0.08488856 0.08438443 0.08395173 0.08360346 0.08334114 0.0831532 0.08303804
 0.08296394 0.08292794 0.08289443 0.08285978 0.08279041 0.08268359 0.08251262 0.08228224 0.08198544 0.08163693
 0.08125062 0.08084428 0.08043817 0.08004399 0.07967644 0.07933337 0.07901954 0.07872109 0.07843418 0.07815277
 0.07787316 0.07760696 0.07735555 0.07712414 0.07691392 0.07670043 0.07648192 0.07622328 0.07592406 0.07556497
 0.0751466 0.07466102 0.07410916 0.07348684 0.07280108 0.07206082 0.07127763 0.0704709 0.06964561 0.06881355
 0.06797383 0.06712706 0.06627905 0.06543064 0.06459321 0.06377083 0.06296742 0.0621853 0.06141896 0.06066776
 0.05992923 0.05920277 0.05850017 0.05782246 0.05719141 0.05660696 0.0560806 0.05560781 0.05517589 0.05477937
 0.05439576 0.05402422 0.0536532 0.05328248 0.05290931 0.05252742 0.0521308 0.05171308 0.05126689 0.05079507
 0.05029565 0.04977791 0.0492437 0.04870173 0.04815385 0.04760621 0.04705997 0.04651668 0.04597661 0.04543759
 0.04489974 0.04436586 0.04383686 0.04332167 0.04282022 0.04233732 0.04187146 0.04142038 0.04098391 0.0405601
 0.04015083 0.03975753 0.03938271 0.03902866 0.03869858 0.0383963 0.03811952 0.0378717 0.0376356 0.03740964
 0.03716689 0.03690188 0.03659684 0.03624776 0.03585672 0.03542302 0.03496566 0.03448604 0.03401299 0.03354791
 0.03311598 0.03271553 0.03235368 0.03202549 0.03172098 0.03143563 0.03115597 0.03087979 0.03059801 0.03031189
 0.03001744 0.02972302 0.02943096 0.02915428 0.02890007 0.02867304 0.0284788 0.02830444 0.02814996 0.02799376
 0.02783253 0.02765746 0.02746685 0.02727855 0.02709388 0.02694392 0.02682836 0.02675973 0.02673315 0.0267325
 0.02675507 0.02678259 0.02682011 0.02686977 0.02693452 0.02702332 0.02712536 0.02723544 0.02733878 0.0274212
 0.02748487 0.02752396 0.02755694 0.02758879 0.02763021 0.02768646 0.02774757 0.0278134 0.02787002 0.02791593
 0.02795406 0.02798485 0.02802157 0.02806425 0.02811847 0.02818367 0.02825917 0.02834678 0.0284524 0.0285758
 0.02872256 0.02888302 0.02904783 0.02920443 0.02933569 0.02944007 0.02950952 0.02955279 0.0295713 0.0295744
 0.02956372 0.02955238 0.02954129 0.02955217 0.02958797 0.02966341 0.02978067 0.02992831 0.03010525 0.03028162
 0.03045646 0.0306077 0.03073828 0.03084905 0.03094581 0.03104604 0.03115373 0.03128665 0.03144201 0.03162576
 0.03182713 0.03203894 0.03224939 0.03244651 0.03263082 0.03279652 0.03295925 0.03312251 0.03329906 0.03349457
 0.03370029 0.03391735 0.03412231 0.03431338 0.0344761 0.03461013 0.03471824 0.03480155 0.03487093 0.03492723
 0.03498043 0.03503006 0.03508093 0.03512979 0.03517274 0.03520614 0.0352213 0.0352219 0.03520568 0.03518511
 0.035168 0.03516268 0.03517868 0.03520453 0.03524169 0.0352646 0.03526722 0.03523803 0.035172 0.03509023
 0.03499328 0.03491448 0.03485507 0.03482613 0.03482601 0.0348429 0.03487637 0.03491812 0.03496971 0.03503275
 0.03510594 0.0351879 0.03527585 0.03536425 0.03545417 0.035544 0.03563733 0.03573612 0.03584295 0.03595915
 0.03608743 0.03622914 0.03638494 0.0365563 0.03673628 0.03692465 0.03711095 0.03729415 0.03747062 0.03764044
 0.0378121 0.03798676 0.03817947 0.03838981 0.03862476 0.03888061 0.03914887 0.03942813 0.03970949 0.0399981
 0.04029955 0.04061273 0.04094371 0.04127415 0.04159334 0.04188769 0.04214231 0.04237431 0.04258344 0.0427978
 0.04302583 0.04327032 0.04353441 0.04380083 0.04406831 0.0443263 0.04457444 0.04481459 0.045047 0.04527492
 0.04549785 0.0457147 0.04592497 0.04612488 0.04631799 0.04650792 0.04670315 0.04691822 0.04715702 0.04743034
 0.04773408 0.04806584 0.04843145 0.04882951 0.04927928 0.0497894 0.05036012 0.05099709 0.05167139 0.05237953
 0.0531024 0.05383717 0.05459299 0.05537027 0.05617836 0.05701702 0.05788495 0.05878481 0.05972781 0.06072039
 0.06178956 0.0629377 0.0641859 0.06552569 0.06695937 0.06846204 0.07001834 0.07158047 0.07312207 0.07457066
 0.07589667 0.07700806 0.07787222 0.07841426 0.07860164 0.07845617 0.07796341 0.0772689 0.07638037 0.07546748
 0.07453834 0.07368358 0.0729017 0.07221023 0.07160494 0.07107579 0.07061798 0.07021087 0.06985269 0.06952766
 0.06924121 0.06899734 0.06879327 0.06863441 0.06849614 0.06836405 0.06821539 0.06803109 0.06781632 0.0675667
 0.06729989 0.06701905 0.06673646 0.06645314 0.0661867 0.06593854 0.06572513 0.06554702 0.06539387 0.06526374
 0.06513067 0.06499627 0.06485423 0.06471059 0.06458236 0.0644725 0.06439892 0.06435367 0.06433554 0.06432807
 0.06430971 0.06428155 0.06422775 0.06418742 0.06417687 0.06422188 0.06435717 0.06448636 0.06459942 0.06458379
 0.0644066 0.06413478 0.0637682 0.0634221 0.06310181 0.06284765 0.06265566 0.06249629 0.06236337 0.06220684
 0.06202912 0.06180825 0.06155798 0.06129643 0.06103829 0.06081711 0.06063163 0.06049548 0.0603961 0.06032535
 0.06028446 0.06027028 0.06029194 0.06035494 0.06045107 0.06058015 0.06073063 0.0609 0.06108947 0.06130037
 0.0615111 0.0617202 0.06186851 0.06195448 0.06193849 0.06182703 0.06163414 0.06136805 0.06106209 0.0607231
 0.06037921 0.06004193 0.05974273 0.05948382 0.05928316 0.05912694 0.05900326 0.05892612 0.05889304 0.05894221
 0.05909559 0.05933513 0.05967115 0.06002109 0.06037482 0.06066749 0.0608905 0.06103414 0.06109788 0.06111449
 0.06108858 0.06108507 0.06110518 0.06119613 0.06134204 0.06151549 0.06169843 0.06183003 0.06191821 0.06194398
 0.0619331 0.06190459 0.06188397 0.06189295 0.0619581 0.06210139 0.06232659 0.06265209 0.0630179 0.06342137
 0.06376789 0.0640398 0.06419846 0.06423427 0.06419988 0.06409791 0.06401467 0.06395098 0.06394589 0.06398866
 0.06403986 0.06408756 0.0640634 0.06397818 0.06381653 0.0636089 0.06339975 0.06320257 0.06305383 0.0629423
 0.0628692 0.0628287 0.06281968 0.06283244 0.06287134 0.06289189 0.06288465 0.06281496 0.06266878 0.06248814
 0.06227281 0.06210408 0.06198622 0.06194657 0.06198062 0.06203905 0.06211513 0.06214112 0.06212321 0.06204223
 0.06191854 0.0617915 0.06167148 0.06159893 0.06155793 0.06154619 0.06154838 0.06154814 0.06154948 0.06155463
 0.06155171 0.06154189 0.06149249 0.06139003 0.06124648 0.06105675 0.06087783 0.06071716 0.06057728 0.06045861
 0.06028772 0.0600634 0.05974624 0.05934824 0.05891895 0.05847228 0.05808534 0.05775889 0.0575382 0.0574045
 0.05735517 0.0573514 0.05735091 0.05731945 0.05721122 0.05702838 0.05675296 0.05642127 0.05603718 0.05565238
 0.05527565 0.05496694 0.05473765 0.05462169 0.05462722 0.05471079 0.05487029</values></Ydata></AB><ScSm><Ydata ylabel="Single channel"><values byteorder="INTEL" format="FLOAT32" numvalues="1814"> 0.06604962 0.0660747 0.06615575 0.06630544 0.06649365 0.06666665 0.06678642 0.06685402 0.06688824 0.06689069
 0.06685974 0.0668363 0.06689355 0.06706108 0.06727992 0.06744437 0.06748728 0.06744062 0.06741739 0.06750122
 0.0676304 0.06761983 0.06733564 0.06684902 0.06638855 0.06613182 0.06609531 0.06626594 0.06671473 0.0673914
 0.06788762 0.06772739 0.06696881 0.06623291 0.06601518 0.06621019 0.06640308 0.06634702 0.06603648 0.06561717
 0.06543655 0.06595121 0.06727937 0.06882896 0.06950566 0.06839825 0.0654285 0.06157388 0.05851535 0.05773365
 0.05946158 0.06237644 0.06459306 0.06516897 0.06456144 0.06368363 0.06292505 0.06225774 0.06185645 0.06213209
 0.0631588 0.06429125 0.06448986 0.06319701 0.06099852 0.05922379 0.05873975 0.0593936 0.06070557 0.0623996
 0.06369465 0.06288262 0.05899765 0.05395941 0.05173266 0.05455907 0.06056558 0.0656085 0.06696978 0.06486496
 0.06122676 0.05810205 0.05690659 0.05803593 0.0607569 0.06382138 0.06624305 0.06736247 0.06667331 0.0642516
 0.06118999 0.05907082 0.05899463 0.06115275 0.06478683 0.06824535 0.0697296 0.06862669 0.0659226 0.06315421
 0.06139169 0.0612389 0.06298065 0.06627665 0.07015061 0.07357018 0.07587641 0.07682508 0.07661367 0.07575905
 0.0747094 0.07378452 0.0734662 0.07409738 0.07510389 0.07521093 0.07383594 0.07186345 0.07073089 0.07094181
 0.07166509 0.07174946 0.07088757 0.06942925 0.06724337 0.06370932 0.05912621 0.05508013 0.05285997 0.05247671
 0.05361253 0.05613491 0.05898519 0.06008697 0.05861038 0.05644459 0.05631916 0.05889416 0.06241566 0.06487667
 0.06587806 0.06650556 0.06791963 0.07016046 0.07197962 0.07177038 0.06915497 0.06589806 0.06466845 0.0664252
 0.06949928 0.0716588 0.07246929 0.0730738 0.07418554 0.07498619 0.07397127 0.07072825 0.06693029 0.06532645
 0.06735186 0.07168888 0.07521426 0.07531483 0.07165159 0.06625363 0.06192984 0.06031845 0.06142844 0.06469456
 0.06961223 0.0751912 0.07969871 0.08162926 0.08080583 0.07828747 0.07515848 0.07152317 0.06708844 0.06284524
 0.06127501 0.06400229 0.06971689 0.07526545 0.07847127 0.07922815 0.07826862 0.07580616 0.07173005 0.06690875
 0.06363616 0.0638604 0.06685178 0.06960493 0.06999256 0.06870967 0.06773645 0.06784066 0.06828494 0.06836884
 0.06842434 0.0692561 0.07100891 0.07286593 0.07385252 0.07372609 0.07301486 0.072391 0.07206165 0.07162201
 0.07062392 0.06947103 0.06938931 0.07109618 0.07382007 0.0760877 0.07719994 0.07750241 0.07742406 0.07672334
 0.07484993 0.07199728 0.06954238 0.06903093 0.07068373 0.07325724 0.07534112 0.07637252 0.0765031 0.07609484
 0.07547528 0.0748264 0.07423282 0.07391708 0.07419258 0.07502545 0.07592079 0.07642101 0.07648744 0.07628532
 0.07585629 0.07516986 0.07435469 0.07372104 0.07354455 0.07385931 0.07446958 0.07512286 0.07561424 0.07578273
 0.07556801 0.07510015 0.0746076 0.07420999 0.07390235 0.07372145 0.07377262 0.07406057 0.07441871 0.07466112
 0.07473113 0.07466924 0.07451211 0.07427216 0.07397549 0.07368065 0.07347094 0.07341553 0.07350053 0.07361999
 0.07368578 0.0737154 0.07375565 0.07376751 0.07366888 0.07346387 0.07325435 0.07313356 0.07311556 0.07315318
 0.07317746 0.07311118 0.07288375 0.07249185 0.07206407 0.07180986 0.07185238 0.07213607 0.07251444 0.07286812
 0.07311983 0.07322636 0.07321182 0.07315177 0.07308482 0.07297732 0.07279423 0.07257836 0.07244498 0.07249384
 0.07271397 0.07298548 0.07318712 0.07328087 0.07329433 0.07327756 0.07328771 0.0733503 0.07341421 0.07339837
 0.07329638 0.07319292 0.07316935 0.07322197 0.07327498 0.0732636 0.07320515 0.07318144 0.07324448 0.07336202
 0.07346837 0.07354034 0.07360253 0.07367481 0.07373071 0.07371284 0.07359937 0.07344756 0.07334329 0.07331182
 0.0733145 0.07332774 0.07337677 0.07347983 0.07359701 0.07366092 0.07364807 0.07360141 0.0735759 0.0735734
 0.07354808 0.07347141 0.07336852 0.07328732 0.07325232 0.07325451 0.07326885 0.07327243 0.07325394 0.07321405
 0.07315925 0.07309358 0.07301533 0.07292646 0.07284984 0.07282516 0.07286844 0.07293673 0.07295283 0.07287447
 0.07273354 0.07260236 0.07252365 0.07247736 0.07241516 0.07231773 0.07220877 0.07212064 0.07206406 0.07203075
 0.0720077 0.07198559 0.07197104 0.07199682 0.07209975 0.07227173 0.07244514 0.07254847 0.07257363 0.07257365
 0.0726013 0.07266791 0.07275507 0.07284516 0.07294007 0.07305834 0.07320596 0.07334978 0.07344362 0.07348686
 0.07353057 0.07362083 0.0737641 0.07394628 0.07414624 0.0743258 0.07444891 0.07452522 0.07460484 0.07471867
 0.07484919 0.07496902 0.07508261 0.0752151 0.07537774 0.07556309 0.07576655 0.07599571 0.0762563 0.07653648
 0.07680656 0.07703596 0.07722019 0.07739612 0.07762086 0.07792413 0.07828088 0.07863327 0.07893926 0.07920188
 0.07945484 0.07972193 0.07999811 0.08027563 0.08057411 0.08092272 0.0813176 0.08172011 0.08209759 0.08244808
 0.08278644 0.08312482 0.08347063 0.08383106 0.08421266 0.08461489 0.08502172 0.08540414 0.08574126 0.08604009
 0.08633064 0.08664465 0.08699717 0.08737172 0.08771769 0.08798657 0.08818974 0.08840052 0.08867484 0.08898642
 0.08926965 0.08951341 0.08977477 0.09009916 0.09046255 0.09080602 0.09110353 0.09137854 0.09166518 0.09196525
 0.0922408 0.09244871 0.09258702 0.09270141 0.09284155 0.09302479 0.09325154 0.09353238 0.09387042 0.09422943
 0.09455064 0.09479973 0.09498079 0.09511583 0.09523249 0.09535944 0.09550876 0.09566686 0.09581373 0.09593911
 0.09603571 0.09610397 0.096175 0.0963001 0.09649906 0.09674311 0.09700307 0.09728499 0.09759696 0.09791104
 0.09819385 0.09846079 0.09875821 0.09908795 0.09938572 0.09958829 0.09969291 0.09973349 0.09973294 0.09970994
 0.0997042 0.09974874 0.09982064 0.09984875 0.09976857 0.09955204 0.09919566 0.09870888 0.09812059 0.09748576
 0.09688079 0.09639165 0.09609887 0.09606414 0.09631865 0.09684661 0.09757103 0.09836669 0.09910311 0.09967932
 0.1000296 0.1001253 0.09998953 0.09968922 0.09928036 0.09875673 0.0980634 0.09715489 0.09602487 0.09468625
 0.09314739 0.09142221 0.08955839 0.08764929 0.0858164 0.08417694 0.08282449 0.08183399 0.08126514 0.08113343
 0.08136588 0.0817938 0.08220004 0.08238129 0.08219025 0.0815603 0.08051939 0.07917519 0.07766677 0.07611603
 0.07461002 0.07320364 0.07192411 0.07078818 0.06983832 0.06916623 0.06889442 0.0691357 0.0699651 0.07139842
 0.07336102 0.07567263 0.0780922 0.08040856 0.08250878 0.08437733 0.08605278 0.0875921 0.08905254 0.09047247
 0.09185705 0.09319054 0.09446298 0.09567527 0.09681867 0.09785839 0.09873584 0.09938067 0.09973072 0.09976017
 0.09950155 0.09904455 0.09850726 0.09797847 0.09745139 0.09680541 0.09587646 0.09456906 0.09291976 0.09108227
 0.08927917 0.08777 0.0868459 0.08682194 0.08797466 0.09041017 0.09394722 0.0981361 0.1024264 0.1063643
 0.1097028 0.1124056 0.1145812 0.1163906 0.1179688 0.1193933 0.1206952 0.1218829 0.1229616 0.1239431
 0.1248454 0.1256851 0.1264744 0.1272214 0.1279267 0.1285841 0.1291915 0.1297638 0.1303291 0.1309068
 0.1314883 0.1320468 0.1325704 0.1330785 0.1335941 0.1341084 0.1345902 0.1350274 0.1354413 0.1358629
 0.1363099 0.1367815 0.1372586 0.1377089 0.1381089 0.1384645 0.1388012 0.1391372 0.1394732 0.1398054
 0.1401362 0.1404682 0.1407957 0.1411106 0.1414134 0.1417112 0.1420035 0.1422789 0.14253 0.1427664
 0.1430069 0.1432607 0.1435183 0.1437618 0.1439874 0.1442163 0.1444809 0.1447929 0.1451298 0.1454552
 0.1457502 0.1460225 0.1462907 0.1465667 0.1468519 0.147142 0.1474297 0.1477074 0.1479729 0.148231
 0.1484874 0.1487422 0.148991 0.1492312 0.1494631 0.1496874 0.1499032 0.15011 0.1503133 0.1505283
 0.1507711 0.151044 0.1513282 0.1515979 0.1518407 0.1520635 0.1522844 0.1525198 0.1527764 0.1530496
 0.1533301 0.1536129 0.1538988 0.1541887 0.1544808 0.1547734 0.1550652 0.1553541 0.1556357 0.155908
 0.1561736 0.1564385 0.1567076 0.1569815 0.1572553 0.1575233 0.1577842 0.1580439 0.1583105 0.1585867
 0.1588668 0.1591427 0.1594114 0.1596768 0.1599438 0.1602132 0.1604805 0.1607399 0.1609904 0.1612379
 0.1614891 0.1617459 0.1620051 0.1622626 0.1625144 0.1627592 0.1630003 0.163243 0.1634881 0.1637319
 0.1639738 0.1642181 0.1644703 0.164732 0.165 0.165269 0.1655353 0.1657949 0.1660411 0.1662723
 0.1664993 0.1667384 0.166994 0.1672558 0.1675116 0.1677584 0.1680007 0.1682423 0.1684817 0.1687163
 0.1689505 0.1691932 0.1694451 0.169698 0.1699469 0.1701922 0.1704328 0.1706657 0.1708942 0.1711283
 0.1713763 0.171638 0.1719048 0.172165 0.172414 0.1726559 0.1728939 0.173127 0.1733569 0.1735875
 0.1738195 0.1740514 0.1742838 0.1745187 0.1747583 0.1750049 0.1752578 0.175511 0.1757591 0.1760023
 0.1762425 0.1764826 0.1767292 0.1769869 0.1772514 0.1775127 0.1777627 0.1779994 0.1782303 0.1784681
 0.178717 0.1789703 0.1792262 0.1794893 0.1797564 0.1800168 0.1802679 0.1805142 0.1807556 0.1809906
 0.1812227 0.1814563 0.1816927 0.1819323 0.1821724 0.18241 0.1826479 0.1828906 0.1831342 0.1833737
 0.1836128 0.1838531 0.1840877 0.1843151 0.1845428 0.1847736 0.1850066 0.1852455 0.1854904 0.1857323
 0.1859675 0.1862014 0.1864341 0.186662 0.1868882 0.1871156 0.1873421 0.1875695 0.1877969 0.1880029
 0.1881386 0.1880898 0.1875692 0.1859995 0.1824944 0.1760292 0.1658477 0.1519411 0.1352174 0.1171761
 0.09935121 0.08291379 0.06855904 0.05659308 0.04707819 0.03992877 0.03497493 0.03206815 0.03119075 0.03256514
 0.03677276 0.04441474 0.05481441 0.06485415 0.07017738 0.06862585 0.06230188 0.0556492 0.05175447 0.05084915
 0.05162957 0.05297939 0.05454115 0.05650911 0.05922545 0.06279019 0.0670388 0.0719618 0.07791702 0.08517842
 0.09338033 0.1016595 0.109393 0.1166873 0.1240996 0.1319572 0.1400078 0.147667 0.1544849 0.1603738
 0.165522 0.1701877 0.1745508 0.1786887 0.1826323 0.1863764 0.1897974 0.1926067 0.1944829 0.195318
 0.1953438 0.1950013 0.1946765 0.1945471 0.1946285 0.1948918 0.1953174 0.1958911 0.1965931 0.1973909
 0.1982406 0.1991057 0.1999689 0.2008174 0.2016309 0.2023941 0.2031032 0.203755 0.2043437 0.2048725
 0.2053531 0.2057958 0.2062081 0.2065977 0.2069701 0.207329 0.2076755 0.2080043 0.2083067 0.2085827
 0.2088419 0.2090888 0.2093199 0.2095356 0.2097443 0.2099534 0.2101662 0.2103839 0.2106043 0.2108203
 0.211027 0.2112274 0.211429 0.2116368 0.2118487 0.212055 0.2122471 0.2124293 0.2126171 0.2128208
 0.2130367 0.2132532 0.2134615 0.2136581 0.2138461 0.2140336 0.214229 0.2144361 0.2146507 0.2148636
 0.2150723 0.2152857 0.2155116 0.2157425 0.2159659 0.2161819 0.2163993 0.2166207 0.2168451 0.2170743
 0.2173032 0.2175131 0.2176903 0.2178492 0.2180272 0.2182507 0.2185073 0.2187564 0.2189721 0.2191643
 0.2193546 0.2195486 0.21974 0.2199258 0.220111 0.2203104 0.2205406 0.2207986 0.2210597 0.2213098
 0.2215575 0.2218085 0.2220545 0.2222925 0.2225246 0.2227345 0.2228984 0.2230293 0.2231898 0.2234462
 0.2238044 0.2241934 0.2245258 0.2247737 0.2249748 0.2251829 0.2254328 0.2257126 0.2259374 0.2260083
 0.2259574 0.2259783 0.2262469 0.2267459 0.2273095 0.2277958 0.2281735 0.2284806 0.2287515 0.2289808
 0.2291284 0.2291637 0.2291303 0.2291696 0.2294301 0.2299153 0.2304663 0.2309248 0.2312607 0.2315188
 0.2317333 0.2319237 0.2320581 0.2320007 0.2316565 0.231229 0.2311663 0.2317286 0.2326958 0.2336026
 0.2341965 0.234563 0.2348681 0.2351503 0.235375 0.2354678 0.2352002 0.2343211 0.2330449 0.2321909
 0.2325029 0.2338959 0.2355938 0.2369076 0.2376724 0.2380709 0.2383234 0.2385423 0.2386551 0.2384141
 0.237669 0.2367345 0.2363175 0.2368672 0.2380703 0.2391897 0.2398198 0.2400993 0.2403165 0.240584
 0.2407627 0.240416 0.2390519 0.2368483 0.2350279 0.2350047 0.2370062 0.2398052 0.2419366 0.2429579
 0.2433483 0.2434428 0.242938 0.2414478 0.2390821 0.2363951 0.234239 0.2336757 0.2352689 0.2381773
 0.2406268 0.2416665 0.2419724 0.2427001 0.2440939 0.2454838 0.2461742 0.2459876 0.2451356 0.2438312
 0.2421915 0.2406093 0.2399736 0.2410409 0.2435257 0.2461937 0.2480016 0.2488943 0.2492808 0.2488243
 0.2461857 0.2406393 0.2341037 0.2306125 0.2327476 0.2389349 0.2451351 0.2488148 0.2503253 0.2510073
 0.2514041 0.2511147 0.2490019 0.2437882 0.2360379 0.229452 0.2283786 0.2335087 0.2410993 0.2464791
 0.2472624 0.2436295 0.237468 0.2317848 0.2294809 0.2316013 0.2368844 0.2430138 0.2480099 0.2507615
 0.2510124 0.2492609 0.2467088 0.2449547 0.2448461 0.2452249 0.2437955 0.2400246 0.2360428 0.2335178
 0.2310528 0.2267486 0.2223651 0.222163 0.2273729 0.2341559 0.2379264 0.237994 0.23673 0.2352064
 0.2313215 0.2227922 0.211411 0.2030858 0.2026025 0.208585 0.2146555 0.215562 0.2112455 0.2050738
 0.1994743 0.1938556 0.1861697 0.1761034 0.1665772 0.1614495 0.1615767 0.1641167 0.165872 0.1657612
 0.1637061 0.1597156 0.1558545 0.156902 0.1661598 0.1812037 0.1956569 0.2042957 0.204863 0.1970108
 0.1832724 0.1707418 0.1675958 0.1757621 0.1886053 0.1970533 0.19682 0.1891686 0.177049 0.1631223
 0.1510355 0.1457084 0.1503596 0.1633108 0.1781012 0.1866887 0.1838431 0.171195 0.1576563 0.1530061
 0.158989 0.1681136 0.172097 0.1694212 0.1641263 0.1605289 0.160712 0.1643144 0.1689356 0.17233
 0.1742154 0.173832 0.167472 0.1529614 0.1358274 0.125768 0.1265649 0.1340011 0.1436124 0.1547403
 0.1656033 0.1704887 0.1661536 0.1579876 0.1555296 0.1623638 0.1730027 0.1796182 0.1798138 0.1771697
 0.1756104 0.1751426 0.1737928 0.1722178 0.1738989 0.1803782 0.188593 0.194276 0.1963788 0.1967511
 0.1969399 0.1969974 0.1965397 0.1954298 0.1937065 0.1916904 0.1898911 0.1884033 0.1867987 0.1847483
 0.1820287 0.1776495 0.1701082 0.1597153 0.150025 0.1451399 0.1454605 0.1479069 0.1503314 0.1527468
 0.1532979 0.1470955 0.1325552 0.1166543 0.1099092 0.1162455 0.130049 0.142569 0.1486591 0.1472788
 0.1388578 0.1253951 0.1125838 0.1081598 0.1157479 0.1315082 0.1483112 0.1618221 0.1710892 0.175347
 0.1734424 0.1663921 0.1583918 0.154461 0.157397 0.1664931 0.1777754 0.1850261 0.1827773 0.1717205
 0.1613122 0.1628852 0.1777255 0.1949563 0.2037466 0.2043464 0.2039271 0.205394 0.2058011 0.204119
 0.2044934 0.2104228 0.2194891 0.2257221 0.2248975 0.2162094 0.2015069 0.1855126 0.174746 0.1726114
 0.1759514 0.17887 0.178694 0.1755505 0.1687104 0.1583942 0.1500209 0.1508914 0.1616139 0.1748463
 0.1836013 0.1876421 0.1906154 0.1936318 0.1938458 0.1888191 0.1807138 0.1750469 0.1752726 0.1797384
 0.1844498 0.1872226 0.1877898 0.1855226 0.1798015 0.1726927 0.1689493 0.1719845 0.1804539 0.189569
 0.1953744 0.1972108 0.1966975 0.1955388 0.1943491 0.1927016 0.1901956 0.1879285 0.1883225 0.1924826
 0.1982965 0.2025052 0.2043672 0.2059304 0.2087958 0.2119754 0.2132753 0.2119075 0.2093463 0.208048
 0.2094843 0.2129807 0.216172 0.2169057 0.2152183 0.2134957 0.2143071 0.2179752 0.2225452 0.2259945
 0.2278914 0.2289761 0.2299427 0.2308456 0.2310832 0.229867 0.2273272 0.2251608 0.2254304 0.228505
 0.2326781 0.2358914 0.2373712 0.2375559 0.2370282 0.2359228 0.2342109 0.232199 0.2305382 0.2297534
 0.229879 0.2305737 0.2314524 0.2322545 0.2328519 0.2332438 0.2335165 0.233747 0.2339619 0.2341701
 0.2343602 0.234456 0.2343583 0.2340687 0.2337122 0.2333992 0.2331108 0.2327651 0.2323369 0.2318332
 0.2311831 0.2302584 0.229017 0.2275381 0.2258915 0.224075 0.2221758 0.2205566 0.2197547 0.2200969
 0.221397 0.2230497 0.2244255 0.2251907 0.2253439 0.2250711 0.2246086 0.224162 0.2238522 0.223698
 0.2236548 0.2236766 0.2237413 0.2238361 0.2239486 0.2240805 0.2242465 0.2244388 0.2246033 0.2246688
 0.2245991 0.2244041 0.2241089 0.2237257 0.2232493 0.2226604 0.2219273 0.2210172 0.2199205 0.218664
 0.2173024 0.2158945 0.214477 0.2130491 0.2115815 0.2100438 0.2084114 0.2066496 0.2047362 0.2027233
 0.2007407 0.1988968 0.1971956 0.195573 0.1939838 0.1924265 0.1909158 0.1894738 0.1881399 0.1869622
 0.1859701 0.1851545 0.1844675 0.1838356 0.1831818 0.1824503 0.1816251 0.18073 0.1798113 0.1789197
 0.1780925 0.1773183 0.1764966 0.1754385 0.1739165 0.1717252 0.168735 0.164944 0.1605141 0.1557475
 0.1509986 0.1465666 0.1426363 0.139291 0.1365599 0.1344386 0.1328866 0.1318434 0.1312636 0.1311347
 0.1314729 0.1323104 0.1336681 0.1355176 0.1377657 0.1402706 0.1428639 0.145385 0.1477375 0.1499278
 0.1520323 0.1541133 0.156163 0.1581207 0.1599288 0.1615552 0.1629672 0.1641191 0.1649912 0.1656288
 0.1661207 0.1665519 0.1669812 0.1674402 0.1679305 0.1684279 0.1689017 0.1693346 0.169731 0.1701089
 0.1704825 0.1708562 0.1712435 0.1716836 0.172229 0.1729209 0.1737707 0.1747539 0.1758241 0.176947
 0.1781192 0.1793509 0.1806485 0.1820247 0.1835033 0.1850997 0.1867968 0.1885388 0.1902478 0.1918495
 0.1932899 0.1945304 0.1955461 0.1963392 0.1969449 0.1974097 0.1977694 0.1980436 0.1982377 0.1983523
 0.1983998 0.1984029 0.1983709 0.1982923 0.198152 0.1979436 0.1976671 0.1973338 0.1969676 0.1965886
 0.1962052 0.1958321 0.1955003 0.1952398 0.1950551 0.194919 0.1947856 0.1946159 0.1943982 0.1941436
 0.1938653 0.193562 0.1932116 0.1927768 0.1922255 0.1915474 0.1907512 0.1898509 0.1888592 0.1877795
 0.1865996 0.185306 0.1839009 0.1823948 0.1807905 0.1790881 0.1772953 0.175425 0.1735001 0.1715716
 0.1697124 0.1679788 0.1663797 0.1648844 0.1634564 0.1620792 0.1607516 0.1594668 0.158215 0.1570053
 0.1558645 0.1548084 0.1538322 0.1529275 0.15209 0.1513141 0.1505975 0.1499452 0.149359 0.1488336
 0.1483681 0.1479653 0.1476242 0.1473486 0.1471551 0.1470485 0.1469898 0.1469084 0.1467513 0.1465213
 0.1462723 0.1460632 0.1459151 0.1458122 0.1457294 0.1456371 0.1454838 0.1451919 0.1446737 0.1438568
 0.1427185 0.1413078 0.1397246 0.1380766 0.1364603 0.1349603 0.1336417 0.1325446 0.1316827 0.1310308
 0.1305245 0.1301015 0.1297498 0.1295094 0.1294339 0.1295289 0.129702 0.1298037 0.1297632 0.129669
 0.129686 0.1299146 0.1303396 0.1308664 0.13138 0.1317994 0.1321001 0.1322882 0.1323705 0.1323548
 0.1322502 0.1320618 0.1317998 0.1314821 0.1311163 0.1307032 0.1302525 0.1297615 0.129194 0.1285208
 0.1277534 0.1269081 0.1259727 0.1249226 0.123726 0.1223523 0.1208502 0.1194115 0.1182935 0.1176615
 0.1174978 0.117623 0.1178216 0.1179791 0.1180597 0.1179642 0.1175893 0.1171366 0.1172027 0.1183436
 0.1205322 0.1231328 0.1254061 0.1269773 0.1278488 0.1281348 0.1279109 0.127223 0.1260833 0.1244738
 0.1224388 0.1201126 0.1176188 0.1150491 0.1125458 0.1102754 0.1083366 0.1067692 0.1055805 0.1047922
 0.1045005 0.1043826 0.1028112 0.09768163 0.08964527 0.08360399 0.08461681 0.09221147 0.1006764 0.1051001
 0.1053113 0.1039076 0.1026966 0.1019523 0.1015776 0.1016943 0.1024107 0.1035871 0.1048602 0.1058703
 0.1064935 0.106783 0.1066945 0.1059098 0.1038186 0.09971437 0.09335709 0.08549755 0.07763046 0.07111254
 0.06655212 0.06384119 0.06245083 0.06173111 0.06123436 0.06092674 0.0610864 0.06198108 0.06364187 0.06591536
 0.0686306 0.0715968 0.07448881 0.07694519 0.07884054 0.08031099 0.08147582 0.08228396 0.08265612 0.08262779
 0.08230677 0.08178737 0.08114073 0.08042444 0.07965136 0.07877349 0.077771 0.07678097 0.07605051 0.07570189
 0.07562202 0.07562825 0.07564127 0.07565487 0.07565342 0.07562037 0.07556891 0.07555221 0.07566369 0.07597154
 0.07642128 0.07685938 0.07716553 0.07732451 0.07739107 0.07739858 0.07726479 0.07685083 0.07620873 0.07563826
 0.07530969 0.07496306 0.07423427 0.07319905 0.07234989 0.07206126 0.07226074 0.07260376 0.07280527 0.07278734
 0.07265867 0.07264264 0.07292643 0.07344124</values></Ydata></ScSm><ScRf><Ydata ylabel="Single channel"><values byteorder="INTEL" format="FLOAT32" numvalues="1820"> 0.0606148 0.06076016 0.0608541 0.0608962 0.06090389 0.06091525 0.06097716 0.06111486 0.06130909 0.0615029
 0.06163909 0.06169994 0.06170505 0.06167496 0.06162409 0.06159174 0.06163918 0.06178994 0.06198987 0.06214239
 0.06218468 0.06214307 0.06211909 0.0621911 0.06230667 0.06229689 0.06203504 0.06158292 0.06114977 0.06089836
 0.06084523 0.06098701 0.06140127 0.06204285 0.06252046 0.06237867 0.06166925 0.06097598 0.06076569 0.06094162
 0.06111477 0.06105085 0.06074356 0.06033535 0.06015991 0.06064501 0.06189121 0.06333414 0.06394979 0.06289607
 0.06011253 0.05652007 0.05368621 0.05298103 0.05460662 0.0573215 0.05937298 0.05989571 0.0593272 0.05852098
 0.05783282 0.05722369 0.05684583 0.05708148 0.05800823 0.05903424 0.05919726 0.05798383 0.05594417 0.05431182
 0.05388134 0.0545029 0.05573265 0.0573138 0.0585087 0.05772183 0.05407086 0.04936982 0.04731829 0.04998545
 0.05560267 0.06029951 0.06154847 0.05956579 0.05617201 0.05328235 0.0521976 0.05325425 0.05575787 0.05856776
 0.06079384 0.06182895 0.06119251 0.05895049 0.05612138 0.05417362 0.05412045 0.05613179 0.05950077 0.0626954
 0.06405266 0.06301415 0.06049993 0.05793088 0.05629212 0.05614311 0.05775379 0.06081516 0.06442441 0.06761885
 0.06977421 0.07065251 0.07043931 0.06962988 0.06865492 0.06781213 0.06753546 0.06812766 0.06905158 0.06913435
 0.06785139 0.06603211 0.06500355 0.06521361 0.0658752 0.06592427 0.06509597 0.06372687 0.06168903 0.05840052
 0.05414677 0.05040556 0.04836394 0.04802552 0.04910637 0.05149325 0.05418973 0.05524477 0.05388129 0.05186364
 0.05173486 0.05410767 0.05735321 0.05961435 0.06053032 0.06111366 0.06243646 0.06452501 0.06621157 0.06600426
 0.06356354 0.06054387 0.05942678 0.06108556 0.06395178 0.0659582 0.06672573 0.06732959 0.06841908 0.0692085
 0.06829008 0.06529902 0.0618172 0.06039978 0.06234831 0.06640723 0.06967184 0.06973168 0.06629207 0.06125817
 0.05725617 0.05581307 0.05693202 0.06007924 0.06477466 0.07008667 0.07439869 0.07630158 0.07560892 0.07329109
 0.07037185 0.06697825 0.06285723 0.0589471 0.0575796 0.0602721 0.06577442 0.07110926 0.07423247 0.07505003
 0.07424259 0.07198668 0.06816371 0.06362356 0.06060055 0.06097547 0.06401776 0.06680129 0.06727403 0.06612838
 0.06529435 0.065516 0.06607299 0.06628535 0.06648463 0.06746078 0.06934678 0.07132737 0.0724377 0.07244034
 0.07186331 0.07138013 0.07119572 0.07089754 0.07004328 0.0690624 0.06919213 0.07111679 0.07401548 0.07640243
 0.07761315 0.0780362 0.07811044 0.07756454 0.07581185 0.07304872 0.07070258 0.07036932 0.07226595 0.07509412
 0.0773904 0.07858138 0.07884412 0.07856885 0.07809332 0.07759926 0.077176 0.07705329 0.07753569 0.07856135
 0.0796123 0.0802325 0.08039775 0.08027831 0.0799126 0.0792802 0.07853831 0.07802024 0.07799231 0.07845426
 0.07918999 0.07996272 0.08058986 0.08089606 0.08078022 0.08036123 0.07990984 0.07960035 0.07944487 0.07945612
 0.07970377 0.08016744 0.0806693 0.08102221 0.08117814 0.08119731 0.08113737 0.0810158 0.08084849 0.08069167
 0.08064095 0.08076365 0.08101425 0.08126356 0.08145177 0.08165094 0.08191448 0.08213618 0.08215788 0.08197947
 0.08177015 0.08168486 0.08173907 0.08185336 0.08194429 0.08194168 0.08177631 0.08143944 0.08106911 0.08090057
 0.08107965 0.08155887 0.08218111 0.08278965 0.08325217 0.0834908 0.08354165 0.08351569 0.08346939 0.08336742
 0.08318398 0.08299187 0.0829336 0.0831113 0.08349482 0.08393809 0.08429528 0.08451051 0.0846097 0.08466607
 0.08477446 0.08497566 0.08518347 0.0852613 0.08519469 0.08512249 0.0851716 0.08531174 0.08540324 0.08536337
 0.08525866 0.08523085 0.08534887 0.08555469 0.0857489 0.0858994 0.08605371 0.08625682 0.08646589 0.08656251
 0.08647525 0.08627637 0.08611287 0.08605187 0.08605398 0.08609031 0.08620128 0.08640829 0.08663268 0.08676054
 0.08677049 0.0867535 0.08679888 0.08688809 0.0869203 0.08682882 0.08664934 0.08648079 0.08640362 0.08643379
 0.08652617 0.08660665 0.08661518 0.08653937 0.08641474 0.08629023 0.08619387 0.08613959 0.08616067 0.08630204
 0.08654875 0.08677927 0.08683769 0.0866751 0.08640481 0.086201 0.08614282 0.08615975 0.08611911 0.08595274
 0.08570006 0.08544962 0.08525974 0.08513135 0.08503403 0.08494656 0.08488424 0.08489382 0.08500307 0.0851588
 0.08523601 0.08514159 0.08490537 0.08464764 0.08446958 0.08439416 0.08438648 0.08439474 0.08439007 0.08439479
 0.08445003 0.0845392 0.08458334 0.08453552 0.08444139 0.08438902 0.0844373 0.08459389 0.08480634 0.08496565
 0.08498153 0.08487768 0.08477275 0.08475535 0.08481361 0.08489037 0.08496139 0.08503896 0.08513287 0.08524048
 0.08536731 0.08553444 0.0857572 0.08601999 0.08627351 0.0864632 0.0865757 0.08666253 0.08680588 0.08704882
 0.08735995 0.08766612 0.08791511 0.08810951 0.08828853 0.08848071 0.0886806 0.08887872 0.08909871 0.08937603
 0.08970426 0.09003323 0.09032504 0.09058857 0.090855 0.09114027 0.09144022 0.09175485 0.09210657 0.09251844
 0.0929625 0.09334978 0.09360257 0.09373542 0.09384845 0.0940471 0.09437096 0.09476702 0.09511373 0.09531127
 0.09538449 0.09546944 0.09566659 0.09593868 0.09619057 0.09641596 0.09670585 0.09711678 0.09758165 0.09796904
 0.0982087 0.09834632 0.0984842 0.098674 0.09887221 0.09900784 0.09907965 0.09915604 0.09928533 0.09945638
 0.09966151 0.09994098 0.1003221 0.1007511 0.1011316 0.1014135 0.1016137 0.1017693 0.1019011 0.1020056
 0.1020628 0.1020675 0.102063 0.1021126 0.1022234 0.1023323 0.1023888 0.1024181 0.1024836 0.1026188
 0.1028227 0.1030877 0.1033924 0.1036887 0.1039445 0.1041976 0.1045186 0.1048999 0.1052299 0.1054093
 0.1054589 0.1054741 0.1055061 0.1055467 0.1056087 0.1057475 0.1059917 0.1063035 0.1066296 0.1069576
 0.1073035 0.1076648 0.1079988 0.108242 0.1083529 0.1083469 0.1082956 0.1082895 0.1083938 0.1086217
 0.1089321 0.1092561 0.1095361 0.1097387 0.109839 0.1098271 0.1097509 0.1097212 0.1098249 0.1100276
 0.1101912 0.1101906 0.1099901 0.1096155 0.1090961 0.1084599 0.1077635 0.1070945 0.1065369 0.1061386
 0.1059172 0.1058937 0.1061048 0.1065608 0.1071948 0.107882 0.1085155 0.1090322 0.1093607 0.1094013
 0.1090992 0.1085141 0.1077855 0.1070438 0.1063627 0.1057561 0.1051885 0.1046221 0.1040979 0.1037656
 0.1038112 0.1043497 0.1053737 0.1067595 0.1083 0.1097681 0.1110061 0.1119863 0.1127856 0.1134973
 0.1141702 0.1148218 0.1154732 0.1161338 0.1167696 0.1173281 0.1177999 0.1182255 0.1186379 0.1190294
 0.1193729 0.1196518 0.119874 0.120072 0.1202727 0.1204528 0.1205482 0.1205293 0.120441 0.1203457
 0.1202504 0.120106 0.1198577 0.1194869 0.1190367 0.1186266 0.1184368 0.1186384 0.1193006 0.1203455
 0.1216031 0.1229199 0.1242007 0.1253622 0.1263044 0.1269706 0.1274046 0.1277149 0.1279912 0.1282737
 0.1285724 0.1288818 0.129187 0.1294773 0.1297574 0.1300442 0.1303561 0.1306972 0.1310434 0.1313523
 0.1316025 0.1318241 0.1320793 0.1324054 0.132778 0.1331364 0.1334522 0.1337563 0.1340841 0.1344112
 0.134677 0.1348657 0.1350307 0.1352407 0.1355284 0.1358838 0.1362615 0.1365959 0.1368442 0.1370229
 0.1371873 0.1373764 0.1375933 0.1378279 0.138075 0.1383295 0.1385851 0.1388465 0.1391299 0.1394377
 0.1397359 0.1399746 0.1401388 0.1402695 0.1404258 0.1406305 0.1408597 0.1410773 0.1412754 0.1414839
 0.1417422 0.1420543 0.1423729 0.142634 0.1428106 0.1429284 0.1430369 0.143172 0.1433433 0.1435432
 0.1437581 0.1439749 0.1441873 0.1443998 0.1446225 0.1448585 0.1450986 0.1453296 0.1455447 0.1457455
 0.1459378 0.1461293 0.1463305 0.1465551 0.1468138 0.1470996 0.1473814 0.1476223 0.147807 0.1479478
 0.1480714 0.1482038 0.1483619 0.148546 0.1487419 0.1489375 0.1491347 0.14934 0.1495516 0.1497607
 0.1499625 0.1501607 0.1503614 0.1505684 0.1507851 0.1510164 0.1512612 0.1515055 0.1517297 0.1519269
 0.152109 0.1522929 0.1524851 0.1526786 0.1528612 0.1530288 0.1531917 0.1533667 0.1535606 0.1537664
 0.1539738 0.1541776 0.1543763 0.1545687 0.1547553 0.1549402 0.1551288 0.1553219 0.1555151 0.1557055
 0.1558966 0.1560934 0.1562974 0.1565071 0.1567199 0.1569304 0.1571338 0.1573331 0.1575368 0.1577476
 0.1579566 0.1581522 0.1583315 0.1585029 0.1586794 0.1588671 0.1590627 0.1592607 0.1594594 0.1596592
 0.159861 0.1600654 0.1602708 0.1604749 0.1606797 0.1608924 0.1611164 0.1613454 0.1615705 0.1617862
 0.1619925 0.1621954 0.1624029 0.1626179 0.1628369 0.1630562 0.163274 0.1634867 0.1636885 0.163876
 0.1640512 0.1642206 0.1643913 0.164565 0.1647407 0.1649227 0.1651179 0.1653216 0.1655188 0.165701
 0.1658739 0.1660487 0.1662334 0.1664293 0.1666331 0.1668425 0.1670582 0.1672778 0.1674936 0.1677015
 0.1679032 0.1680999 0.168293 0.1684876 0.1686883 0.1688945 0.1691049 0.1693185 0.16953 0.1697361
 0.1699437 0.1701605 0.1703847 0.1706093 0.1708277 0.1710339 0.1712288 0.1714247 0.1716325 0.1718484
 0.1720626 0.17227 0.1724696 0.1726651 0.1728651 0.1730721 0.1732805 0.1734899 0.1737065 0.1739292
 0.1741502 0.1743656 0.1745753 0.1747786 0.174981 0.1751904 0.1754079 0.1756302 0.1758572 0.1760848
 0.1763051 0.1765189 0.1767295 0.1769212 0.177047 0.1769926 0.1764811 0.1749646 0.1716031 0.1654268
 0.1557256 0.1425006 0.1266204 0.1095119 0.09263237 0.07708846 0.06352906 0.05223341 0.04325393 0.03650856
 0.03184181 0.02911903 0.02832097 0.02964808 0.03364394 0.04087541 0.05069738 0.06015631 0.06514129 0.06363514
 0.05764549 0.0513738 0.04772141 0.04688819 0.04763381 0.04890913 0.0503891 0.05226556 0.05485845 0.05825073
 0.0622791 0.06693815 0.07257503 0.0794523 0.08722235 0.09506738 0.1023981 0.1093138 0.1163421 0.1237927
 0.1314228 0.1386736 0.1451216 0.1506947 0.1555766 0.1600061 0.1641458 0.1680704 0.1718149 0.1753733
 0.1786184 0.1812694 0.1830271 0.1838026 0.1838242 0.1835076 0.1832114 0.1830998 0.1831884 0.1834496
 0.183858 0.184392 0.1850368 0.185781 0.1865982 0.1874469 0.1882912 0.1891105 0.1898933 0.1906314
 0.191316 0.1919374 0.192494 0.1929984 0.1934646 0.1938986 0.1943039 0.1946869 0.1950522 0.1954022
 0.1957404 0.1960664 0.1963722 0.196649 0.1968945 0.1971115 0.1973082 0.1975005 0.1977056 0.1979308
 0.1981692 0.198403 0.1986147 0.198802 0.1989814 0.1991697 0.1993699 0.1995767 0.1997849 0.1999888
 0.2001819 0.2003648 0.2005449 0.2007298 0.2009232 0.2011244 0.2013268 0.2015216 0.2017069 0.2018882
 0.2020718 0.2022611 0.2024579 0.2026618 0.2028721 0.2030903 0.203315 0.2035372 0.2037497 0.2039571
 0.2041684 0.2043846 0.2046003 0.2048114 0.205013 0.2051974 0.2053619 0.2055169 0.2056811 0.2058687
 0.206077 0.2062905 0.206498 0.2067007 0.2069011 0.2070956 0.2072793 0.2074524 0.207624 0.207817
 0.2080541 0.2083249 0.208588 0.2088189 0.2090343 0.209259 0.2094965 0.2097402 0.2099809 0.2101948
 0.2103567 0.2104797 0.2106275 0.210869 0.2112124 0.2115892 0.2119163 0.21217 0.2123881 0.2126174
 0.2128799 0.2131542 0.2133575 0.2134053 0.2133443 0.213372 0.2136553 0.2141615 0.2147139 0.2151707
 0.2155097 0.2157813 0.2160289 0.2162492 0.2163997 0.2164496 0.2164459 0.2165227 0.2168036 0.2172718
 0.2177762 0.218187 0.2184927 0.2187345 0.2189337 0.2191055 0.2192287 0.2191826 0.2188709 0.2184696
 0.2183923 0.2188866 0.2197529 0.220558 0.2210672 0.2213673 0.2216234 0.2218777 0.2220954 0.2221964
 0.2219554 0.2211313 0.2199278 0.2191229 0.219423 0.2207492 0.2223689 0.2236298 0.2243712 0.2247586
 0.2249998 0.2252087 0.2253215 0.2251032 0.224411 0.2235454 0.2231747 0.223717 0.2248692 0.2259336
 0.2265312 0.2267964 0.2269992 0.2272445 0.2274082 0.2270856 0.2258104 0.2237458 0.2220521 0.2220729
 0.224017 0.2267063 0.2287425 0.2297104 0.2300766 0.2301677 0.2296919 0.2282734 0.2260169 0.2234609
 0.221424 0.220911 0.2224489 0.2252342 0.2275831 0.2285955 0.2289135 0.2296307 0.230975 0.2323087
 0.2329699 0.2327923 0.2319826 0.230747 0.2291965 0.2277107 0.2271459 0.228218 0.2306337 0.2332045
 0.2349491 0.2358338 0.2362493 0.2358578 0.2333693 0.2280968 0.2218859 0.2185923 0.2206731 0.2266162
 0.2325629 0.2360988 0.2375694 0.2382663 0.2387083 0.2384944 0.236519 0.2315639 0.2241946 0.2179743
 0.2170557 0.2220653 0.2293962 0.2345884 0.2353856 0.2319743 0.2261625 0.2208285 0.218746 0.2209082
 0.2261053 0.2321188 0.2370446 0.2398098 0.2401683 0.2385999 0.2362649 0.2347169 0.2347812 0.2353266
 0.2341244 0.2306693 0.2270306 0.2248059 0.2226282 0.2186765 0.2146948 0.2148324 0.2202652 0.2272332
 0.2312728 0.2317395 0.2309718 0.2300119 0.2267858 0.2190696 0.2087033 0.2016395 0.2027396 0.2107323
 0.2193588 0.2235103 0.2232835 0.2221064 0.222162 0.222169 0.219188 0.2124715 0.2053733 0.202513
 0.2048376 0.2087655 0.2103965 0.2085975 0.2035775 0.1956434 0.1874907 0.1849805 0.1921617 0.2062831
 0.2199745 0.2273172 0.2259475 0.2156714 0.1993463 0.1846963 0.1805353 0.1888317 0.2023032 0.2111349
 0.2107427 0.2025088 0.1896054 0.1749042 0.1623634 0.1573202 0.1632566 0.1783182 0.1954088 0.2056581
 0.2032651 0.1900563 0.1760108 0.1720597 0.1800572 0.1914749 0.1969782 0.1949191 0.1899213 0.1869496
 0.1884723 0.1940816 0.2009101 0.2063121 0.2099579 0.2107424 0.2039045 0.1867402 0.1661401 0.1540657
 0.1551295 0.1641697 0.1758113 0.1893211 0.2024812 0.2082358 0.2026486 0.1923947 0.1891274 0.1971064
 0.2095338 0.2168877 0.2163621 0.2124064 0.2098162 0.2086026 0.2063978 0.2040114 0.2056079 0.2129853
 0.2224557 0.2289639 0.2313326 0.2318132 0.2322497 0.2326788 0.2326181 0.2318985 0.2305805 0.2290743
 0.2280247 0.2275835 0.2272701 0.2267145 0.2256137 0.2225634 0.2153689 0.2041202 0.1931615 0.1876591
 0.1881207 0.1907224 0.1929834 0.1952086 0.195194 0.1867556 0.1679046 0.1475323 0.1389448 0.1470105
 0.1645326 0.1804369 0.1882601 0.1866962 0.176252 0.1594101 0.143288 0.1374588 0.1461594 0.1642043
 0.1824988 0.1958793 0.2037891 0.2059615 0.2013703 0.1912678 0.1804863 0.1747054 0.1769504 0.1862185
 0.1978652 0.2048723 0.2012468 0.187921 0.1754148 0.1761445 0.1914342 0.2093753 0.2182167 0.2182953
 0.2174098 0.2186997 0.2190099 0.2173014 0.2181205 0.2253027 0.2362977 0.2446792 0.2457901 0.2385817
 0.2250482 0.210739 0.2033234 0.2063993 0.2153419 0.2222924 0.2237523 0.2201192 0.2110397 0.1973885
 0.1862258 0.1865422 0.1988332 0.2139263 0.2234036 0.227262 0.2300882 0.2331726 0.2329707 0.2265042
 0.216365 0.2091269 0.2088436 0.2134886 0.2183632 0.2210569 0.2214542 0.2188961 0.2125995 0.2048759
 0.2011563 0.2052411 0.2153326 0.2257037 0.23181 0.2331115 0.2316962 0.2295873 0.2274044 0.2245394
 0.2204943 0.2166196 0.2158626 0.2196231 0.2255338 0.2298975 0.2319262 0.2340081 0.2379483 0.2424837
 0.2448272 0.2437094 0.2405742 0.2383066 0.238919 0.2419659 0.2448827 0.2451722 0.2427774 0.2403558
 0.2408325 0.2446116 0.2495169 0.2532738 0.2553607 0.2565416 0.2575428 0.2584177 0.2585081 0.2569416
 0.2538702 0.2511983 0.2512318 0.2543873 0.2587949 0.2622301 0.2639098 0.2643664 0.2642288 0.2635737
 0.2622805 0.2606075 0.2592037 0.258596 0.2588139 0.2595257 0.2603816 0.2611623 0.2617624 0.2621774
 0.2624694 0.2626813 0.2628193 0.2629117 0.2629997 0.2630543 0.2630037 0.2628803 0.262848 0.2630202
 0.2633112 0.2635289 0.2635524 0.2633414 0.2628329 0.2619537 0.2607368 0.2593131 0.2577546 0.2560349
 0.2542481 0.2528226 0.2523789 0.2532732 0.2552734 0.2576987 0.2598699 0.2614428 0.2624119 0.2629329
 0.2631789 0.2632791 0.2632961 0.2632341 0.2630792 0.2628385 0.2625383 0.2622004 0.261834 0.2614518
 0.2610814 0.2607511 0.2604626 0.2601814 0.2598582 0.2594606 0.2589902 0.2584763 0.2579486 0.257403
 0.2567924 0.2560604 0.2551891 0.254221 0.2532421 0.2523342 0.2515233 0.2507669 0.2500025 0.2491962
 0.2483278 0.247354 0.2462444 0.2450655 0.243977 0.2431047 0.2424305 0.2418233 0.2411553 0.2403716
 0.2394791 0.2385118 0.2375062 0.2364788 0.235419 0.2343049 0.2331194 0.2318484 0.2304825 0.2290291
 0.2275079 0.2259343 0.224322 0.2226934 0.2210508 0.2193273 0.2173867 0.2150774 0.2122796 0.2089176
 0.2049695 0.2004948 0.1956497 0.190654 0.1857234 0.181025 0.1766866 0.1728195 0.1695143 0.1668272
 0.1647913 0.1634355 0.1627815 0.1628275 0.1635498 0.1649114 0.1668562 0.1692907 0.172077 0.1750453
 0.1780172 0.1808324 0.1833937 0.1857106 0.1878745 0.1899568 0.1919377 0.1937488 0.1953571 0.1967726
 0.1979997 0.1990244 0.1998487 0.2005108 0.2010663 0.2015549 0.2019864 0.2023525 0.20265 0.2028919
 0.2031005 0.2032973 0.2034934 0.2036877 0.2038844 0.2041053 0.2043735 0.2046956 0.2050757 0.205527
 0.2060474 0.2066029 0.2071623 0.2077305 0.2083322 0.2089849 0.2097088 0.2105404 0.2115168 0.2126473
 0.213908 0.2152558 0.2166397 0.2179945 0.2192348 0.2202739 0.2210595 0.2215843 0.2218675 0.2219413
 0.2218477 0.2216275 0.2213062 0.2208981 0.2204215 0.2198994 0.2193485 0.2187716 0.2181607 0.2175045
 0.2168006 0.2160666 0.2153372 0.2146437 0.2139924 0.213366 0.2127461 0.2121298 0.2115235 0.2109312
 0.2103537 0.2097921 0.2092437 0.2086989 0.2081431 0.2075554 0.2069088 0.206181 0.2053672 0.2044702
 0.2034787 0.2023712 0.2011463 0.1998361 0.1984764 0.1970695 0.1955889 0.1940165 0.1923602 0.1906301
 0.1888118 0.1868824 0.1848626 0.182836 0.1809 0.1791025 0.1774339 0.175865 0.1743749 0.1729543
 0.1716022 0.1703197 0.1690992 0.1679261 0.1667941 0.1657075 0.1646727 0.163697 0.1627967 0.1619961
 0.1613124 0.1607361 0.1602303 0.159762 0.1593339 0.1589759 0.1587127 0.1585525 0.1584931 0.1585135
 0.1585664 0.1585963 0.158565 0.1584665 0.1583292 0.1581979 0.1580987 0.158029 0.1579748 0.1579095
 0.1577692 0.1574578 0.156883 0.1559885 0.1547671 0.1532594 0.1515397 0.1497087 0.1478961 0.1462326
 0.1448011 0.1436315 0.1427287 0.1420662 0.141571 0.1411682 0.1408437 0.1406464 0.1406395 0.1408336
 0.1411297 0.1413578 0.1414283 0.1414331 0.1415623 0.1419428 0.1425656 0.1433171 0.1440623 0.1447198
 0.1452635 0.1456704 0.1459213 0.1460413 0.1460759 0.146038 0.1459203 0.1457293 0.1454747 0.1451604
 0.144796 0.1443753 0.1438673 0.1432625 0.1425892 0.1418632 0.1410775 0.1402286 0.1392819 0.1381691
 0.13692 0.1357584 0.1349875 0.1348015 0.1352023 0.1360238 0.1370453 0.1381286 0.139184 0.1400037
 0.1403373 0.1402801 0.140438 0.14149 0.1435542 0.1460576 0.148236 0.1496804 0.1503894 0.150476
 0.1500122 0.1490585 0.1476257 0.1456515 0.1431467 0.1402691 0.1371861 0.1340226 0.1309643 0.1282195
 0.1258896 0.1239941 0.1225361 0.1215591 0.1211906 0.1210476 0.1192131 0.1132408 0.1039281 0.09698005
 0.0981902 0.1069163 0.1165498 0.1215014 0.1216371 0.1199404 0.1184509 0.1174667 0.1169003 0.1169298
 0.1176918 0.1190128 0.1204744 0.1216736 0.122462 0.1228884 0.1228996 0.1221042 0.1197394 0.1149571
 0.1075099 0.09831556 0.08913448 0.08155029 0.07625988 0.07311958 0.07152566 0.07075652 0.07029103 0.07004328
 0.07029451 0.07134631 0.07325341 0.07587713 0.07904904 0.0825309 0.08590424 0.08873896 0.09091455 0.09262332
 0.09403822 0.09511186 0.09570573 0.0957806 0.09542483 0.09478575 0.09401108 0.09319442 0.09231691 0.09127203
 0.09003422 0.08880801 0.08791214 0.08748604 0.08739303 0.08741269 0.08741923 0.08737807 0.08729807 0.08721574
 0.08716497 0.08717176 0.08729677 0.08760913 0.08807989 0.08856335 0.08891434 0.08909769 0.08917519 0.08917524
 0.08897762 0.08842891 0.08762805 0.08692196 0.08645806 0.08591447 0.08491386 0.08360244 0.08257198 0.08223425
 0.08245656 0.08279669 0.08291792 0.08275697 0.08247931 0.08238403 0.08270812 0.08335083 0.08386235 0.08385954
</values></Ydata></ScRf><Data_Parameters_AB><parameter name="DPF">1</parameter><parameter name="NPT">3497</parameter><parameter name="FXV">3996</parameter><parameter name="LXV">500</parameter><parameter name="CSF">1</parameter><parameter name="MXY">0.178787171840668</parameter><parameter name="MNY">-0.0420359559357166</parameter><parameter name="DAT">27/05/2022</parameter><parameter name="TIM">12:13:33.941 (GMT+2)</parameter><parameter name="DXU">WN</parameter></Data_Parameters_AB><AB__Qtest><MainReport name="Quality Test Report"><Header><Line><Legend>Test result ok/not ok [1/0]: </Legend><Value>0</Value></Line><Line><Legend>Method file: </Legend><Value>C:\Users\Public\Documents\Bruker\OPUS_8.2.28\QT\IRBT_v3_default.QT</Value></Line></Header><Matrix><Line><Legend></Legend><Legend>min</Legend><Legend>max</Legend><Legend>measured</Legend></Line><Line><Value>Absorption (X-Range 1):</Value><Value>0.400000</Value><Value>2.000000</Value><Value>0.129666</Value></Line><Line><Value>Noise (X-Range 4):</Value><Value></Value><Value>0.000300</Value><Value>0.000084</Value></Line><Line><Value>Signal/Noise (X-Range 2):</Value><Value>200.000000</Value><Value></Value><Value>28.085923</Value></Line><Line><Value>Signal/Noise (X-Range 3):</Value><Value>40.000000</Value><Value></Value><Value>27.014260</Value></Line><Line><Value>Water vapour (X-Range 5):</Value><Value></Value><Value>0.000300</Value><Value>0.000069</Value></Line><Line><Value>Signal/Water (X-Range 2):</Value><Value>100.000000</Value><Value></Value><Value>34.262348</Value></Line><Line><Value>Signal/Water (X-Range 3):</Value><Value>20.000000</Value><Value></Value><Value>32.955014</Value></Line><Line><Value>Fringes (X-Range 6):</Value><Value></Value><Value>0.000100</Value><Value>0.000072</Value></Line></Matrix></MainReport></AB__Qtest><Data_Parameters_ScSm><parameter name="DPF">1</parameter><parameter name="NPT">1814</parameter><parameter name="FXV">3996.33169228125</parameter><parameter name="LXV">499.541461535156</parameter><parameter name="CSF">1</parameter><parameter name="MXY">0.251404106616974</parameter><parameter name="MNY">0.0311907455325127</parameter><parameter name="DAT">27/05/2022</parameter><parameter name="TIM">12:13:33.941 (GMT+2)</parameter><parameter name="DXU">WN</parameter></Data_Parameters_ScSm><Data_Parameters_ScRf><parameter name="DPF">1</parameter><parameter name="NPT">1820</parameter><parameter name="FXV">4004.04661832813</parameter><parameter name="LXV">495.683998511719</parameter><parameter name="CSF">1</parameter><parameter name="MXY">0.264366447925568</parameter><parameter name="MNY">0.0283209681510925</parameter><parameter name="DAT">27/05/2022</parameter><parameter name="TIM">12:13:07.566 (GMT+2)</parameter><parameter name="DXU">WN</parameter></Data_Parameters_ScRf><Optic_Parameters_Rf><parameter name="APR">0</parameter><parameter name="APT">Open</parameter><parameter name="BMS">KBr</parameter><parameter name="DTC">RT-DLaTGS_IR-Biotyper [Microplate reader]</parameter><parameter name="HPF">0</parameter><parameter name="LPF">10.0</parameter><parameter name="LPV">4000</parameter><parameter name="PGR">0</parameter><parameter name="RCH">Module port</parameter><parameter name="RDX">0</parameter><parameter name="SRC">MIR</parameter><parameter name="VEL">10.0</parameter><parameter name="SON">Off</parameter></Optic_Parameters_Rf><Acquisition_Parameters_Rf><parameter name="ADT">1</parameter><parameter name="AQM">DD</parameter><parameter name="CFE">0</parameter><parameter name="COR">0</parameter><parameter name="DEL">0</parameter><parameter name="DLY">0</parameter><parameter name="HFW">8000</parameter><parameter name="LFW">0</parameter><parameter name="NSR">32</parameter><parameter name="PLF">AB</parameter><parameter name="RES">6</parameter><parameter name="RGN">-1</parameter><parameter name="STR">0</parameter><parameter name="TCL">MakeCompatibleScalar (0, {WSV=1.000000, ARV=0});</parameter><parameter name="TDL">37</parameter><parameter name="RPO">0</parameter></Acquisition_Parameters_Rf><FT_-_Parameters_Rf><parameter name="APF">B3</parameter><parameter name="HFQ">500</parameter><parameter name="LFQ">4000</parameter><parameter name="NLI">0</parameter><parameter name="PHR">24</parameter><parameter name="PHZ">ML</parameter><parameter name="SPZ">NO</parameter><parameter name="ZFF">1</parameter></FT_-_Parameters_Rf><Optic_Parameters_><parameter name="APR">0</parameter><parameter name="APT">Open</parameter><parameter name="BMS">KBr</parameter><parameter name="CHN">Module port</parameter><parameter name="DTC">RT-DLaTGS_IR-Biotyper [Microplate reader]</parameter><parameter name="HPF">0</parameter><parameter name="LPF">10.0</parameter><parameter name="LPV">4000</parameter><parameter name="PGN">0</parameter><parameter name="RDX">0</parameter><parameter name="SRC">MIR</parameter><parameter name="VEL">10.0</parameter><parameter name="SON">Off</parameter></Optic_Parameters_><FT_-_Parameters_><parameter name="APF">B3</parameter><parameter name="HFQ">500</parameter><parameter name="LFQ">4000</parameter><parameter name="NLI">0</parameter><parameter name="PHR">24</parameter><parameter name="PHZ">ML</parameter><parameter name="SPZ">NO</parameter><parameter name="ZFF">1</parameter></FT_-_Parameters_><Acquisition_Parameters_><parameter name="ADT">1</parameter><parameter name="AQM">DD</parameter><parameter name="CFE">0</parameter><parameter name="COR">0</parameter><parameter name="DEL">0</parameter><parameter name="DLY">0</parameter><parameter name="HFW">8000</parameter><parameter name="LFW">0</parameter><parameter name="NSS">32</parameter><parameter name="PLF">AB</parameter><parameter name="RES">6</parameter><parameter name="SOT">0</parameter><parameter name="TCL">MakeCompatibleScalar (0, {WSV=1.000000, ARV=0});</parameter><parameter name="TDL">37</parameter><parameter name="SPO">0</parameter><parameter name="SGN">-1</parameter></Acquisition_Parameters_><Instrument_Parameters_Rf><parameter name="HFL">15800.168544</parameter><parameter name="LFL">0</parameter><parameter name="LWN">15800.168544</parameter><parameter name="ABP">32197</parameter><parameter name="SSP">1</parameter><parameter name="ARG">2</parameter><parameter name="ASG">2</parameter><parameter name="ASS">32</parameter><parameter name="GFW">16</parameter><parameter name="GBW">16</parameter><parameter name="BFW">0</parameter><parameter name="BBW">0</parameter><parameter name="PKA">7265</parameter><parameter name="PKL">4996</parameter><parameter name="PRA">7453</parameter><parameter name="PRL">5001</parameter><parameter name="P2A">1</parameter><parameter name="P2L">1</parameter><parameter name="P2R">1</parameter><parameter name="P2K">1</parameter><parameter name="DAQ">0</parameter><parameter name="AG2">1</parameter><parameter name="SSM">1</parameter><parameter name="RSN">24948</parameter><parameter name="CRR">0</parameter><parameter name="SRT">1653653587.567</parameter><parameter name="DUR">19.635986328125</parameter><parameter name="TSC">27.9</parameter><parameter name="MVD">0.234986394643784</parameter><parameter name="AN1">0.225806023257321</parameter><parameter name="AN2">0</parameter><parameter name="VSN">2.485 Apr  4 2017</parameter><parameter name="SRN">0085</parameter><parameter name="CAM">0</parameter><parameter name="INS">IR-Biotyper</parameter><parameter name="FOC">69</parameter><parameter name="RDY">1</parameter><parameter name="ARS">32</parameter></Instrument_Parameters_Rf><Sample_Parameters_><parameter name="BLD"></parameter><parameter name="CNM">Admin</parameter><parameter name="CPY"></parameter><parameter name="DPM"></parameter><parameter name="EXP">IRBT_v3_32Scans.XPM</parameter><parameter name="LCT"></parameter><parameter name="SFM">Microplate, HTS-XT</parameter><parameter name="SNM">220527-1039(v.2)_CLA33F (D_6)_B10_8bec7d12-59a0-4ed7-817a-37b3f2073e83.0</parameter><parameter name="XPP">C:\Users\Public\Documents\Bruker\OPUS_8.2.28\XPM</parameter><parameter name="IST">OK</parameter><parameter name="CPG">1252</parameter><parameter name="UID">9a93a4cf-c5fd-4988-bd11-fdd8059a2bab</parameter></Sample_Parameters_><Instrument_Parameters_><parameter name="HFL">15800.168544</parameter><parameter name="LFL">0</parameter><parameter name="LWN">15800.168544</parameter><parameter name="ABP">32197</parameter><parameter name="SSP">1</parameter><parameter name="ASG">2</parameter><parameter name="ARG">2</parameter><parameter name="ASS">32</parameter><parameter name="GFW">16</parameter><parameter name="GBW">16</parameter><parameter name="BFW">0</parameter><parameter name="BBW">0</parameter><parameter name="PKA">6910</parameter><parameter name="PKL">4988</parameter><parameter name="PRA">7200</parameter><parameter name="PRL">4993</parameter><parameter name="P2A">1</parameter><parameter name="P2L">1</parameter><parameter name="P2R">1</parameter><parameter name="P2K">1</parameter><parameter name="DAQ">0</parameter><parameter name="AG2">1</parameter><parameter name="SSM">1</parameter><parameter name="RSN">13100</parameter><parameter name="CRR">0</parameter><parameter name="SRT">1653653613.942</parameter><parameter name="DUR">19.635986328125</parameter><parameter name="TSC">27.9</parameter><parameter name="MVD">0.243279457092285</parameter><parameter name="AN1">0.225805687498309</parameter><parameter name="AN2">0</parameter><parameter name="VSN">2.485 Apr  4 2017</parameter><parameter name="SRN">0085</parameter><parameter name="CAM">0</parameter><parameter name="INS">IR-Biotyper</parameter><parameter name="FOC">69</parameter><parameter name="RDY">1</parameter></Instrument_Parameters_><History/></OPUSDataFile>
