<?xml version="1.0" encoding="UTF-8" ?>
<OPUSDataFile><AB><Ydata ylabel="Absorbance Units"><values byteorder="INTEL" format="FLOAT32" numvalues="3497"> -0.02681047 -0.02681339 -0.02681541 -0.02681748 -0.02680532 -0.0267782 -0.02672747 -0.02665468 -0.02657626 -0.02649646
 -0.02645014 -0.02643608 -0.02647211 -0.02654645 -0.02664165 -0.02674531 -0.02682698 -0.02688808 -0.02691579 -0.02692337
 -0.02691697 -0.02690682 -0.02690126 -0.02690068 -0.02690715 -0.02691858 -0.02693421 -0.02695596 -0.02698406 -0.02702001
 -0.0270644 -0.02711198 -0.0271625 -0.02720485 -0.02723877 -0.02725706 -0.02726126 -0.02725608 -0.02724422 -0.02723816
 -0.02723834 -0.02725301 -0.02727865 -0.02731359 -0.02735362 -0.02739291 -0.02743027 -0.02746315 -0.02749071 -0.0275134
 -0.02752491 -0.02752399 -0.02750175 -0.02745426 -0.02738442 -0.02728999 -0.02719166 -0.02709054 -0.02701157 -0.02695622
 -0.02693639 -0.02695135 -0.02699476 -0.02706415 -0.02714184 -0.02722582 -0.02729941 -0.02736249 -0.02740594 -0.02743197
 -0.02743874 -0.02743236 -0.02741817 -0.02740343 -0.02739695 -0.02739822 -0.02741182 -0.02742605 -0.02743765 -0.02743739
 -0.02741957 -0.02739485 -0.02736191 -0.02734737 -0.02735327 -0.02740536 -0.02750526 -0.02766241 -0.0278746 -0.02811752
 -0.0283814 -0.02859501 -0.02874946 -0.02876395 -0.02865992 -0.02843918 -0.02814784 -0.0278673 -0.02761743 -0.02746011
 -0.02737682 -0.02737756 -0.02742629 -0.02750736 -0.02759041 -0.02765789 -0.02770551 -0.0277261 -0.02773781 -0.02774234
 -0.02775585 -0.02778092 -0.02781646 -0.02786257 -0.0279107 -0.02796138 -0.02802064 -0.02809021 -0.02818645 -0.0283055
 -0.02844567 -0.02859383 -0.02871698 -0.02880601 -0.02882331 -0.02878688 -0.02869851 -0.02858927 -0.02849022 -0.02840322
 -0.02834058 -0.02828658 -0.02823164 -0.0281921 -0.028165 -0.02819487 -0.02829091 -0.02846883 -0.02873733 -0.02902361
 -0.0293248 -0.02946146 -0.02943178 -0.02916466 -0.02869343 -0.02820566 -0.02771484 -0.02737617 -0.0271676 -0.02711293
 -0.02718603 -0.02736036 -0.0275987 -0.02785278 -0.0280803 -0.02822452 -0.02828455 -0.02823002 -0.02812569 -0.02798771
 -0.0278732 -0.02780813 -0.02777891 -0.02778987 -0.02780185 -0.02780954 -0.02780846 -0.02779781 -0.02780178 -0.02782074
 -0.02786497 -0.02793067 -0.0279984 -0.02806404 -0.02810043 -0.02810885 -0.02807776 -0.02801286 -0.0279165 -0.0277997
 -0.02767344 -0.02755498 -0.02746201 -0.02740546 -0.02739914 -0.02743681 -0.02752233 -0.02763491 -0.02777176 -0.02790788
 -0.02803975 -0.02814312 -0.02821544 -0.02823592 -0.02820298 -0.02811691 -0.02797954 -0.02782123 -0.0276441 -0.02747782
 -0.02732071 -0.02718055 -0.02705779 -0.02695596 -0.02687993 -0.02684204 -0.02683944 -0.02687918 -0.02694028 -0.02701054
 -0.02706478 -0.0270815 -0.02706036 -0.02699015 -0.0269024 -0.02680091 -0.02672283 -0.02667677 -0.02667439 -0.0267197
 -0.02679458 -0.02689839 -0.02699988 -0.02709738 -0.02716 -0.02718814 -0.02716621 -0.02710119 -0.02701002 -0.0269032
 -0.02681777 -0.02675545 -0.02673901 -0.02675822 -0.02680923 -0.02688397 -0.02696985 -0.02707718 -0.02720626 -0.02737468
 -0.02759487 -0.02785484 -0.0281615 -0.02846112 -0.02874705 -0.0289686 -0.02911815 -0.02918351 -0.02916363 -0.02904059
 -0.02881478 -0.02848435 -0.02806205 -0.02763475 -0.02721612 -0.02691263 -0.02671501 -0.02665988 -0.02671624 -0.02685197
 -0.02702612 -0.02717011 -0.02727469 -0.02729952 -0.02727856 -0.02722177 -0.02715296 -0.02708775 -0.0270227 -0.02696056
 -0.02689119 -0.02681187 -0.02672474 -0.02662862 -0.02653964 -0.02645864 -0.02640311 -0.02637365 -0.02638182 -0.0264261
 -0.02650514 -0.02661055 -0.02671055 -0.02679266 -0.02680085 -0.02674603 -0.02661406 -0.02644035 -0.02626878 -0.0261093
 -0.0259931 -0.02589528 -0.02581142 -0.025714 -0.0255856 -0.02543202 -0.02524606 -0.02506563 -0.02489671 -0.02476569
 -0.02467906 -0.0246191 -0.02458588 -0.0245234 -0.02442973 -0.02426529 -0.02403857 -0.02379141 -0.02353494 -0.02334137
 -0.023205 -0.02314761 -0.02315874 -0.02323074 -0.02335222 -0.02351326 -0.02368359 -0.02384023 -0.02394031 -0.02394483
 -0.02385467 -0.02365144 -0.02338633 -0.02307294 -0.02273308 -0.02237547 -0.02198997 -0.02157466 -0.02114026 -0.02068688
 -0.02024353 -0.01981173 -0.01941789 -0.01906318 -0.01877045 -0.01853727 -0.01836947 -0.01825662 -0.018174 -0.01811288
 -0.01804384 -0.01796839 -0.01788186 -0.01777197 -0.01763525 -0.01743327 -0.01713252 -0.01674223 -0.01624194 -0.01571676
 -0.01518971 -0.01470542 -0.0142816 -0.01389826 -0.01355555 -0.01322874 -0.01291566 -0.01261892 -0.01233961 -0.01210308
 -0.01190871 -0.01177012 -0.0116734 -0.0115748 -0.011446 -0.01117735 -0.01077604 -0.01018022 -0.009472504 -0.008738359
 -0.008031168 -0.007445334 -0.006948869 -0.00655448 -0.006206198 -0.005881491 -0.005549935 -0.005194061 -0.004822752 -0.004434235
 -0.004045156 -0.003659563 -0.003263612 -0.00285733 -0.002401879 -0.001896362 -0.001325306 -0.0006952592 -4.928442E-05 0.0006049761
 0.001208645 0.001766612 0.002260037 0.002702005 0.003107935 0.003488806 0.003866188 0.004243182 0.004632748 0.005025539
 0.005419984 0.005805706 0.006170947 0.006538856 0.006906331 0.007331918 0.00782981 0.008418046 0.009109068 0.009813679
 0.01052756 0.01114385 0.01166093 0.01207278 0.01238838 0.01267577 0.01294079 0.01324756 0.01358876 0.013981
 0.01440507 0.01483187 0.01524814 0.01561734 0.01595494 0.01625259 0.01655794 0.0168977 0.01730819 0.01782465
 0.01840943 0.01906794 0.01971738 0.02034103 0.0208934 0.02136312 0.02176635 0.02210218 0.02242513 0.0227377
 0.0230862 0.02346861 0.02388954 0.0243447 0.0248162 0.02530511 0.02580692 0.02632068 0.02684793 0.02737285
 0.02787594 0.02834229 0.02874465 0.02909705 0.02939547 0.02967198 0.02994172 0.03021748 0.03051039 0.03080274
 0.03109337 0.0313629 0.03160619 0.03183769 0.03205686 0.03231206 0.0326054 0.0329769 0.03342192 0.03392343
 0.03446849 0.0349883 0.03547824 0.03588315 0.03622109 0.03649783 0.03673966 0.0369892 0.0372498 0.03754673
 0.03785352 0.03816029 0.03844636 0.03869165 0.03892056 0.03912957 0.03937489 0.03966834 0.04004074 0.04050182
 0.04102274 0.04160362 0.04217787 0.04274239 0.04324297 0.04368125 0.04404614 0.04434391 0.04459596 0.0448081
 0.04500715 0.04519746 0.04540006 0.04561676 0.0458607 0.04612548 0.04641094 0.04670694 0.04700303 0.04730639
 0.04761441 0.04794833 0.04831908 0.04871617 0.04914575 0.04955297 0.04993027 0.05024966 0.05050566 0.05075663
 0.05100628 0.05134183 0.05175921 0.05226622 0.05284294 0.05340087 0.05392623 0.05432467 0.05461314 0.05477279
 0.05484451 0.05487754 0.05490019 0.05496442 0.05505991 0.05519887 0.05535337 0.05551022 0.05566384 0.05580658
 0.05595459 0.05611062 0.05628264 0.05647309 0.05667498 0.05688796 0.05710625 0.05732974 0.05755964 0.05779715
 0.0580516 0.0583267 0.05864554 0.05900938 0.05943919 0.05992173 0.06044572 0.0609852 0.06149913 0.06196997
 0.06236309 0.06268071 0.06291232 0.06307039 0.06315619 0.06318703 0.0631646 0.06311958 0.0630556 0.06301226
 0.06299536 0.06302861 0.06311504 0.06325133 0.06343718 0.06366032 0.06392062 0.06421354 0.06453741 0.06488448
 0.06524724 0.06559981 0.06593441 0.06621931 0.06646051 0.06664709 0.06680434 0.06695057 0.06711302 0.06732042
 0.0675708 0.06787874 0.06820285 0.06853569 0.06883314 0.06908016 0.06927864 0.06942345 0.06955613 0.06968017
 0.06981361 0.0699562 0.07007087 0.07015536 0.07016934 0.07012077 0.07002404 0.06989475 0.06978902 0.06971389
 0.06971438 0.06978092 0.06992276 0.07011756 0.07034887 0.07059245 0.07082406 0.07103959 0.07122396 0.07140841
 0.0715974 0.07182775 0.07211428 0.07244127 0.07281467 0.07315928 0.07346986 0.07368296 0.07379683 0.07382668
 0.07377885 0.07372285 0.07365894 0.0736276 0.07361823 0.07361501 0.07361839 0.07361428 0.07362603 0.07368396
 0.07379911 0.07400739 0.0742681 0.07457226 0.07485761 0.07508475 0.0752457 0.07531794 0.07536332 0.07538909
 0.0754573 0.07558196 0.07575969 0.07599386 0.07622453 0.07644865 0.07660638 0.07669882 0.07671084 0.07665213
 0.07656 0.07644831 0.07638051 0.07636245 0.07644234 0.07660535 0.07685749 0.07716279 0.0774899 0.07780324
 0.07806411 0.0782683 0.07839692 0.07848323 0.07853132 0.07858118 0.07864286 0.07873692 0.07886714 0.07904677
 0.07927652 0.07957936 0.0799562 0.08041618 0.0809541 0.08152483 0.08211495 0.08263152 0.08306748 0.08334331
 0.0834793 0.08346906 0.08336242 0.0832264 0.08310875 0.08309268 0.08317365 0.0833906 0.08366977 0.0839941
 0.08427177 0.08446424 0.0845365 0.08446442 0.08429556 0.08402848 0.08374828 0.08346238 0.08322338 0.08303346
 0.08288544 0.08277674 0.08267546 0.08258399 0.08249592 0.08242055 0.08238601 0.08239543 0.08247677 0.08260933
 0.08278372 0.08295402 0.08307239 0.08309636 0.08297276 0.08270778 0.08227715 0.08174978 0.08113559 0.08052391
 0.07993694 0.07942842 0.07901242 0.07868815 0.07845874 0.07828353 0.07816014 0.07802745 0.07788341 0.07768135
 0.0774282 0.07713252 0.07680925 0.07651503 0.07625136 0.07605767 0.07590703 0.07577974 0.07564112 0.07544142
 0.07517752 0.07481927 0.07441524 0.07397174 0.07356681 0.07322944 0.07300504 0.07292044 0.07292937 0.07303788
 0.07312447 0.0731793 0.07310901 0.07290937 0.07259621 0.07217745 0.07174699 0.07131003 0.07094543 0.07064576
 0.07043014 0.07028403 0.07018661 0.07012243 0.07006006 0.06998715 0.0698771 0.06972983 0.06953298 0.06930405
 0.0690459 0.06878327 0.06852499 0.06828806 0.06807932 0.06789975 0.06775227 0.06761976 0.06750179 0.06737094
 0.0672258 0.06704779 0.06683793 0.06660116 0.06634115 0.06608044 0.06582163 0.06558613 0.06537241 0.0651887
 0.06502935 0.06489028 0.06476407 0.06464151 0.06451698 0.06438289 0.06423859 0.06408128 0.06391398 0.06373761
 0.06355242 0.06335951 0.06315322 0.06293272 0.06269456 0.06243766 0.06217114 0.06189551 0.06162775 0.0613682
 0.06112633 0.0609007 0.06068809 0.06048736 0.06029297 0.0601045 0.05991904 0.05973467 0.05954748 0.05935517
 0.05915247 0.05894221 0.05872175 0.05850443 0.0582932 0.05811026 0.05796432 0.05786871 0.05783332 0.05783466
 0.05787573 0.05789363 0.05788346 0.05778936 0.05760835 0.05734508 0.05700487 0.05665306 0.05629664 0.05601128
 0.05579375 0.05567914 0.05564667 0.05567169 0.05572269 0.0557369 0.05570016 0.05556246 0.0553543 0.0550746
 0.05477972 0.05450296 0.05426502 0.05408909 0.05394082 0.05381586 0.05368602 0.05354025 0.05341218 0.05330177
 0.05327183 0.05332568 0.05347741 0.05372155 0.05399481 0.05428668 0.05450219 0.0546405 0.05464203 0.05452636
 0.05430392 0.05400653 0.05369123 0.05337499 0.05310436 0.05286646 0.05266667 0.05248887 0.05231962 0.05217271
 0.05204837 0.05196773 0.05194218 0.05194929 0.05199125 0.05201382 0.05201042 0.05196639 0.0518806 0.0518004
 0.05172829 0.05171172 0.05174564 0.05182504 0.05194135 0.05205967 0.05217988 0.05228309 0.05237605 0.05246294
 0.0525453 0.05263046 0.05270619 0.05277011 0.05279631 0.05277153 0.05267402 0.05248643 0.05222644 0.05188562
 0.05153551 0.05118295 0.05090692 0.05071859 0.05062963 0.05064141 0.05067981 0.0507395 0.0507282 0.05064972
 0.0504753 0.05022275 0.04993938 0.04964153 0.0493953 0.04919799 0.04907921 0.04901812 0.0490044 0.04901416
 0.04902494 0.04902314 0.04899264 0.04893882 0.0488555 0.04877035 0.04868693 0.04863831 0.04863325 0.04867044
 0.04875369 0.04883396 0.04890867 0.04893084 0.04890214 0.04883533 0.04873798 0.04866619 0.04861817 0.04862114
 0.04865973 0.0487074 0.04875955 0.04878767 0.04881766 0.04886342 0.04896222 0.04915044 0.04944405 0.04986412
 0.05040498 0.05106803 0.05185083 0.05275257 0.05377506 0.0549221 0.0561687 0.05751698 0.05889178 0.06028926
 0.0615966 0.0628079 0.06381677 0.06462358 0.06517328 0.06547669 0.06554089 0.0653826 0.06504323 0.06454018
 0.063917 0.06319442 0.06240826 0.06158615 0.0607577 0.05995238 0.05919207 0.05850055 0.05789113 0.05737807
 0.0569688 0.05666207 0.05646009 0.05634862 0.0563256 0.05639051 0.05654288 0.05681915 0.0572219 0.05779947
 0.05854819 0.05947324 0.06056011 0.06175843 0.06305476 0.06438841 0.06576012 0.06714138 0.06854471 0.06997272
 0.07143977 0.07295749 0.07453834 0.07619204 0.07792655 0.07974993 0.08165332 0.08364179 0.08567541 0.08775353
 0.08980785 0.09183336 0.09375613 0.0955715 0.09722567 0.09871734 0.1000209 0.1011373 0.1020582 0.1027872
 0.103327 0.1036943 0.1039209 0.1040479 0.1041512 0.1042846 0.1045425 0.1049552 0.1055851 0.106421
 0.1074759 0.1087224 0.1101507 0.1117493 0.1135135 0.1154388 0.1175274 0.1197511 0.1221103 0.1245446
 0.1270509 0.1295464 0.1320255 0.1343914 0.1366374 0.1386713 0.1404907 0.1420363 0.1433126 0.1443021
 0.1450078 0.1454314 0.1455642 0.1453995 0.1449198 0.1441062 0.1429534 0.1414444 0.1396111 0.1374497
 0.135038 0.1323854 0.1296008 0.1266984 0.1237927 0.1208959 0.1181014 0.1154159 0.1128882 0.1105184
 0.1083066 0.1062493 0.1043233 0.1025262 0.1008382 0.09925352 0.09775218 0.09631888 0.09491877 0.09353857
 0.09214284 0.09074213 0.08932681 0.087931 0.08656958 0.08527493 0.08406369 0.08295231 0.08194776 0.08106004
 0.08029056 0.07965384 0.07915026 0.07880543 0.07862072 0.07863229 0.0788405 0.0792592 0.07987743 0.08063356
 0.08150282 0.08235243 0.08316994 0.0838422 0.0844034 0.08484602 0.08524971 0.08570219 0.08628461 0.08709977
 0.08817922 0.08958289 0.0912674 0.09324557 0.09540602 0.09773596 0.1000794 0.1024175 0.1045738 0.1065326
 0.1081134 0.1093047 0.1099337 0.1099931 0.1093459 0.107998 0.1059075 0.1031132 0.09972669 0.09582701
 0.09166262 0.08732225 0.08307943 0.07897909 0.07519685 0.07170945 0.06856347 0.06569862 0.06309269 0.06069698
 0.05848568 0.05643539 0.05453619 0.05277099 0.05113673 0.04961334 0.04819854 0.04687632 0.04564549 0.04449584
 0.04342667 0.04242588 0.04149215 0.04060996 0.03977885 0.03898788 0.03823923 0.03753276 0.0368714 0.03626191
 0.03570198 0.03519493 0.03472729 0.03429164 0.0338673 0.03343883 0.0329969 0.03252885 0.03205425 0.03157182
 0.03112073 0.03070873 0.03035729 0.03007261 0.02983323 0.02963874 0.02944489 0.0292504 0.02903271 0.0287951
 0.02855194 0.02830572 0.02807734 0.02786007 0.02764825 0.02743033 0.02717989 0.02689644 0.02656365 0.02619939
 0.02581043 0.02542233 0.02505231 0.02471701 0.02442906 0.02418919 0.02400297 0.02385282 0.02373915 0.02362871
 0.02351829 0.0233776 0.02320389 0.02299518 0.0227526 0.0225024 0.0222462 0.02200926 0.02178937 0.02159076
 0.02141027 0.02124047 0.02108209 0.02093266 0.02079476 0.02067121 0.0205626 0.0204705 0.02039463 0.02033534
 0.02029211 0.02026668 0.02025067 0.02024486 0.02022842 0.02019835 0.0201345 0.02003273 0.01989553 0.01972207
 0.01954096 0.0193538 0.01919174 0.01905376 0.01894735 0.01886773 0.0187984 0.01873597 0.01866092 0.0185766
 0.0184782 0.01837526 0.0182779 0.01819453 0.01813873 0.01810695 0.01810487 0.01811323 0.01812747 0.01812396
 0.01809437 0.01802714 0.01791694 0.01777072 0.01758749 0.01738663 0.01716919 0.01695694 0.01675075 0.01656478
 0.01639822 0.01625152 0.01612266 0.01600293 0.01589172 0.01578213 0.01567623 0.01557486 0.01547982 0.01539501
 0.01531796 0.0152488 0.01518183 0.01511329 0.01504014 0.01495882 0.01487367 0.01478445 0.01469906 0.01461926
 0.01454877 0.01448878 0.01443538 0.01438842 0.01434227 0.01429689 0.01425321 0.01421223 0.01418278 0.0141652
 0.0141672 0.01418512 0.01421418 0.0142474 0.01426893 0.01427459 0.01425071 0.01420059 0.0141213 0.01402072
 0.01390242 0.0137743 0.01363988 0.01350697 0.01337833 0.01325979 0.01315375 0.01305788 0.01297294 0.01288828
 0.01280321 0.01270898 0.01260536 0.01249128 0.01236702 0.01223449 0.01209397 0.01194703 0.01179508 0.01164207
 0.01149125 0.01135089 0.01122305 0.01111513 0.01102439 0.01095214 0.01089153 0.01083817 0.01078861 0.01073877
 0.01069356 0.01065338 0.01062391 0.01060796 0.01059856 0.01059628 0.01058356 0.01055905 0.01051236 0.01044345
 0.01035892 0.01025998 0.01016027 0.01005971 0.009965499 0.009875854 0.009789576 0.009704617 0.009616306 0.009523644
 0.009422569 0.009315087 0.009200501 0.009084499 0.008969885 0.00886314 0.008768342 0.008687175 0.008621941 0.008567913
 0.008525027 0.008486131 0.008450371 0.008412415 0.008371796 0.008325287 0.008272721 0.008211577 0.008141811 0.008061652
 0.0079716 0.007872556 0.007765961 0.007655946 0.007544868 0.007439224 0.00734087 0.007255592 0.007182645 0.007124457
 0.007076324 0.00703663 0.006999066 0.00695997 0.006917183 0.006868381 0.006817637 0.006765139 0.006716099 0.006671657
 0.006630906 0.006594091 0.006554339 0.006511352 0.006459936 0.006400682 0.006336493 0.006268628 0.006204944 0.006145269
 0.006093914 0.006048332 0.006005681 0.005963187 0.005915087 0.005861782 0.005800599 0.00573574 0.005668884 0.00560443
 0.005545392 0.005491924 0.005445364 0.005401693 0.005360198 0.005318468 0.005275769 0.005234138 0.005193685 0.005156085
 0.005121302 0.00508601 0.005049934 0.005008712 0.004963127 0.004914264 0.004863855 0.004818092 0.004777166 0.004745241
 0.004719672 0.004698865 0.004679355 0.004656589 0.004630225 0.004597593 0.004563008 0.004527396 0.004495848 0.004470808
 0.004452232 0.004441189 0.004432582 0.004425858 0.004417215 0.004406106 0.004394824 0.004383513 0.004376583 0.004373659
 0.004373426 0.004374367 0.004368173 0.004354184 0.004325058 0.004283315 0.004230077 0.004169245 0.004107439 0.004045612
 0.003987729 0.003931659 0.003876804 0.00382239 0.0037675 0.003713457 0.003660812 0.003609061 0.003558473 0.003506612
 0.003452911 0.003398213 0.003342398 0.003289595 0.003239962 0.003195034 0.003154449 0.00311515 0.00307693 0.003036784
 0.002995649 0.002954657 0.002915211 0.002881252 0.002852383 0.002830406 0.002812543 0.002796971 0.002780528 0.002760204
 0.002735104 0.002703656 0.002667408 0.002626114 0.002583141 0.002538754 0.002497915 0.002461283 0.002432812 0.002413082
 0.002400566 0.002395103 0.002390337 0.002385864 0.002375392 0.002358734 0.002331596 0.002294081 0.002243345 0.002181686
 0.002111026 0.002037408 0.00197015 0.001914553 0.001881391 0.001866996 0.001874582 0.001891265 0.001912056 0.00192625
 0.001927648 0.001918317 0.001896225 0.001873512 0.001851728 0.001838803 0.001836036 0.001838206 0.001844976 0.001844768
 0.001837632 0.001819414 0.001791698 0.001760528 0.001727043 0.001698334 0.001673823 0.001655682 0.001642998 0.001635302
 0.001631984 0.00163291 0.001635562 0.001638822 0.001638475 0.001631949 0.001617609 0.001593521 0.00156328 0.001526844
 0.001490218 0.001454224 0.001422981 0.001396926 0.001378368 0.001367406 0.001363945 0.001367565 0.001374028 0.001382535
 0.001386213 0.001385596 0.001378104 0.001366233 0.001354345 0.001343821 0.001339579 0.001339269 0.00134277 0.001346246
 0.001346404 0.001342477 0.001332559 0.001319505 0.00130342 0.00128874 0.001276343 0.001270096 0.001271044 0.001278418
 0.001292609 0.001306056 0.001318328 0.001318798 0.001307225 0.00127729 0.001229467 0.001163001 0.001078323 0.0009767913
 0.0008576973 0.0007208086 0.0005636554 0.000383405 0.0001752971 -6.573743E-05 -0.0003460074 -0.0006706532 -0.001046804 -0.001478295
 -0.001973113 -0.00253494 -0.003167889 -0.003876101 -0.004646752 -0.005482451 -0.006339911 -0.007217487 -0.008050426 -0.008835294
 -0.009518987 -0.01010201 -0.01057413 -0.01093659 -0.01119907 -0.01134501 -0.01133008 -0.01112585 -0.01062466 -0.009868841
 -0.008843629 -0.007687322 -0.006543414 -0.005506591 -0.004705874 -0.004133908 -0.003826673 -0.003731904 -0.00384592 -0.004097089
 -0.004477515 -0.004885217 -0.005306818 -0.005649643 -0.005900868 -0.006059823 -0.006126379 -0.006152927 -0.006140271 -0.006112603
 -0.006067937 -0.006008194 -0.005931321 -0.005832856 -0.005709105 -0.00554824 -0.005351438 -0.005112432 -0.004841783 -0.004547696
 -0.004240996 -0.003932629 -0.003627613 -0.003330424 -0.003046131 -0.002776476 -0.002528707 -0.00230539 -0.002107765 -0.001937598
 -0.001784538 -0.001648258 -0.001513292 -0.001378837 -0.001237193 -0.001089186 -0.0009421901 -0.0007979141 -0.0006701218 -0.0005586726
 -0.0004709299 -0.0004044687 -0.000357876 -0.000327832 -0.0003091078 -0.0002978231 -0.0002881549 -0.0002766502 -0.0002582574 -0.0002335228
 -0.0002002968 -0.0001642193 -0.0001263319 -9.308083E-05 -6.648715E-05 -4.867819E-05 -4.055521E-05 -4.043539E-05 -4.834132E-05 -6.131042E-05
 -7.918572E-05 -0.0001000152 -0.0001238417 -0.0001507284 -0.0001807264 -0.0002143754 -0.0002512007 -0.0002898638 -0.0003298576 -0.0003688435
 -0.0004079003 -0.0004476669 -0.0004892979 -0.0005352356 -0.0005832625 -0.00063337 -0.0006805694 -0.0007219882 -0.0007553769 -0.0007785123
 -0.0007942736 -0.0008028029 -0.0008074628 -0.0008089822 -0.000807894 -0.0008043337 -0.0007979365 -0.0007886942 -0.00077953 -0.0007707113
 -0.0007666944 -0.0007672096 -0.0007731878 -0.0007836797 -0.0007955236 -0.0008087764 -0.0008215876 -0.0008354511 -0.0008523507 -0.0008723645
 -0.0008972898 -0.0009239012 -0.0009504437 -0.0009739497 -0.0009917554 -0.001004698 -0.001012019 -0.001017028 -0.001020287 -0.001024729
 -0.001030875 -0.001040746 -0.001054718 -0.001072132 -0.001092972 -0.001112834 -0.001131487 -0.0011444 -0.001152205 -0.001155929
 -0.001157166 -0.001162289 -0.001171945 -0.001191772 -0.001219232 -0.001253696 -0.001289965 -0.001321552 -0.001346021 -0.001357775
 -0.00136159 -0.001357622 -0.001353567 -0.001353016 -0.001357524 -0.001368745 -0.001383089 -0.001399994 -0.001418491 -0.001438349
 -0.001460728 -0.001485695 -0.001509724 -0.001532479 -0.001547934 -0.001556799 -0.001559947 -0.001559194 -0.001561999 -0.001568523
 -0.001583468 -0.001604675 -0.001630747 -0.00165961 -0.001688149 -0.001715731 -0.001741003 -0.001763404 -0.001782518 -0.001797191
 -0.001806599 -0.00181141 -0.001811036 -0.001809589 -0.001807422 -0.001809372 -0.001816107 -0.001828675 -0.001847191 -0.001867683
 -0.001889825 -0.001908066 -0.001922435 -0.001929953 -0.001931624 -0.001929199 -0.001924316 -0.001921925 -0.001922696 -0.001930726
 -0.001943832 -0.001961576 -0.001980413 -0.001996837 -0.002010329 -0.002018667 -0.002025998 -0.00203336 -0.002044095 -0.002060053
 -0.002078557 -0.002099983 -0.002117525 -0.002130393 -0.002135701 -0.002133199 -0.002127043 -0.002117586 -0.00211097 -0.002106994
 -0.002107589 -0.002111973 -0.002117992 -0.002125733 -0.002133982 -0.002144015 -0.002157647 -0.002175296 -0.00219912 -0.00222618
 -0.002255709 -0.00228234 -0.002302671 -0.002314103 -0.002313751 -0.002305733 -0.002289789 -0.002273797 -0.002259159 -0.002250222
 -0.00224786 -0.00225058 -0.002258358 -0.002267869 -0.002278961 -0.002288981 -0.002297821 -0.002303228 -0.002305574 -0.002304547
 -0.002301619 -0.00230023 -0.002301586 -0.002310162 -0.002324026 -0.002343648 -0.002364028 -0.002381247 -0.002391794 -0.002391265
 -0.002383238 -0.002366682 -0.002351258 -0.002339338 -0.002337402 -0.002348088 -0.002365855 -0.002390972 -0.002410717 -0.002424273
 -0.002427755 -0.002421835 -0.002417313 -0.00241492 -0.002425977 -0.002447901 -0.002477566 -0.002510601 -0.002533427 -0.002546039
 -0.002540628 -0.002523204 -0.002497542 -0.002469745 -0.002447109 -0.002429869 -0.002420706 -0.002416443 -0.002415971 -0.002418884
 -0.00242452 -0.002434931 -0.002450652 -0.002471152 -0.002496697 -0.002523314 -0.0025508 -0.002574598 -0.002594499 -0.002606645
 -0.00261111 -0.002605892 -0.002592218 -0.002573431 -0.002551343 -0.002532719 -0.002517367 -0.002508898 -0.002504089 -0.002500409
 -0.002495404 -0.002485282 -0.002471747 -0.002453885 -0.002436675 -0.002421692 -0.002413171 -0.00241287 -0.002421423 -0.002439718
 -0.002463907 -0.00249395 -0.002523408 -0.002551879 -0.002574681 -0.002591802 -0.002602787 -0.002608133 -0.00261094 -0.002611652
 -0.002613783 -0.002617117 -0.00262303 -0.002630758 -0.002639734 -0.002648933 -0.002656912 -0.002662891 -0.002665491 -0.002665127
 -0.002660783 -0.002656249 -0.002651979 -0.002654354 -0.002665443 -0.002688023 -0.00272378 -0.002767422 -0.002818909 -0.002869602
 -0.00291892 -0.002962623 -0.003000723 -0.0030337 -0.00306168 -0.003085608 -0.003105606 -0.003122609 -0.003136768 -0.003149218
 -0.003159382 -0.003166818 -0.003170805 -0.003169423 -0.003164842 -0.003157361 -0.003151803 -0.003151599 -0.003157999 -0.003173804
 -0.003192496 -0.003213374 -0.00322836 -0.003235058 -0.003234438 -0.003225691 -0.003218506 -0.003213487 -0.003216504 -0.003227398
 -0.003242614 -0.003261619 -0.003278776 -0.003294417 -0.003307234 -0.003317212 -0.003324087 -0.003326625 -0.003322084 -0.003310607
 -0.003290374 -0.003264558 -0.003234685 -0.003205193 -0.003179369 -0.003159108 -0.003146938 -0.003139161 -0.003136229 -0.003129678
 -0.003117828 -0.00309612 -0.003062936 -0.003026608 -0.002987416 -0.002959929 -0.002944416 -0.00294564 -0.002961918 -0.002983246
 -0.003008063 -0.003023882 -0.003032116 -0.003029466 -0.003019605 -0.003007744 -0.0029965 -0.00299197 -0.002993357 -0.00300321
 -0.003016346 -0.003031171 -0.003040817 -0.003041616 -0.003031295 -0.003007223 -0.002975612 -0.002936476 -0.002899913 -0.002867189
 -0.002844023 -0.002831043 -0.00282497 -0.002825442 -0.002824677 -0.00282282 -0.002816972 -0.002808453 -0.00280134 -0.002796458
 -0.002798794 -0.002806806 -0.002820899 -0.002836901 -0.002850107 -0.002856025 -0.002847706 -0.002827122 -0.002790962 -0.002751129
 -0.002711226 -0.002682423 -0.002670486 -0.002671923 -0.002688675 -0.002704644 -0.002718256 -0.002716943 -0.00269952 -0.002666498
 -0.002618222 -0.002562714 -0.002500509 -0.002439033 -0.002378742 -0.00232526 -0.002279266 -0.002245484 -0.002224278 -0.002219307
 -0.0022284 -0.002251887 -0.002282782 -0.002316195 -0.002343032 -0.002355445 -0.00235126 -0.002325805 -0.002287345 -0.00223666
 -0.002183861 -0.002131393 -0.00208271 -0.002038669 -0.001998762 -0.001962963 -0.001932279 -0.001906893 -0.001890858 -0.00188442
 -0.001891872 -0.001912352 -0.001945752 -0.001988388 -0.002031271 -0.002068583 -0.002084192 -0.002077224 -0.002036906 -0.001973442
 -0.00189091 -0.001802429 -0.001718338 -0.00164306 -0.001582381 -0.001531056 -0.001489223 -0.001449321 -0.001409481 -0.001367665
 -0.001322891 -0.001280046 -0.001239294 -0.001208146 -0.001186858 -0.001179951 -0.001186315 -0.001200478 -0.001218944 -0.001223339
 -0.001211587 -0.001165607 -0.001092075 -0.00099371 -0.0008811539 -0.0007707571 -0.0006663068 -0.000577694 -0.0005032328 -0.0004451835
 -0.0003993174 -0.000365962 -0.0003350662 -0.0003047899 -0.0002627564 -0.0002052772 -0.0001312922 -3.921526E-05 5.914579E-05 0.0001630364
 0.0002643265 0.0003628743 0.0004592628 0.0005534919 0.0006458206 0.0007357554 0.0008210119 0.0009015555 0.0009759272 0.001044783
 0.00110794 0.001168056 0.001227957 0.001291619 0.001365162 0.001446283 0.001537426 0.001628202 0.001713548 0.001790719
 0.001855044 0.001920751 0.0019894 0.002075582 0.002182822 0.002304239 0.002440045 0.002569731 0.002692814 0.002804611
 0.002907858 0.003023544 0.003154154 0.003325065 0.003530135 0.0037664 0.004023456 0.004276659 0.004527174 0.004763559
 0.004997805 0.0052381 0.005490882 0.005765927 0.006054398 0.006354899 0.006658807 0.006959045 0.007271062 0.007591142
 0.007968687 0.008406438 0.008971725 0.00967063 0.01052641 0.01153833 0.01266007 0.01389271 0.0152183 0.01665543
 0.01827628 0.02010491 0.02225324 0.02472232 0.02758212 0.03078395 0.03430561 0.03805914 0.04195672 0.04592764
 0.04989481 0.05384297 0.05775497 0.06160229 0.06540699 0.06898139 0.07231407 0.07511677 0.07734282 0.07888713
 0.07973229 0.07997841 0.07963159 0.0788273 0.07757392 0.07599851 0.07410869 0.0720084 0.06969852 0.06722111
 0.06460726 0.06191355 0.05923243 0.05672495 0.05442752 0.05245956 0.0507392 0.04924894 0.04791209 0.04668206
 0.04554375 0.04448282 0.04350078 0.04259731 0.04176395 0.04099669 0.04031739 0.03972561 0.0392881 0.03900639
 0.03888179 0.03890489 0.0389863 0.03912509 0.03926831 0.03942647 0.03960445 0.0398096 0.04005817 0.04035585
 0.04071195 0.04114529 0.04166719 0.04232381 0.04314594 0.04417637 0.04546361 0.04694244 0.04862604 0.05034035
 0.05205002 0.05364522 0.05510036 0.05641906 0.05759736 0.05869387 0.05971309 0.06076362 0.06185716 0.06315926
 0.06465714 0.06640577 0.06832597 0.07018971 0.07197325 0.0734896 0.074825 0.07602506 0.07716285 0.07833571
 0.07955863 0.08087336 0.08226731 0.08374572 0.08529085 0.08690757 0.08853608 0.09016743 0.09174007 0.09323779
 0.09469112 0.09610063 0.09751336 0.09892894 0.1002728 0.1015361 0.102598 0.1034704 0.1041441 0.1046483
 0.1050727 0.1054236 0.1057691 0.1060713 0.1062961 0.106435 0.1064526 0.106396 0.1062908 0.1061603
 0.1060315 0.105876 0.1056926 0.1054453 0.1051236 0.1047204 0.1042305 0.1036793 0.1030668 0.1024471
 0.1018224 0.1012215 0.1006398 0.1000426 0.09942477 0.0987417 0.09799433 0.09716077 0.09624813 0.0952563
 0.09420311 0.09311274 0.09200305 0.09090424 0.08981525 0.08874492 0.08768676 0.0866335 0.08560564 0.08460393
 0.08366593 0.08280309 0.08201991 0.08132112 0.08068065 0.08009643 0.07955518 0.07905657 0.0786112 0.07822005
 0.0778975 0.07764238 0.07745679 0.07733808 0.07727936 0.0772782 0.07732568 0.07742197 0.07756144 0.07775125
 0.07799433 0.07830396 0.07868992 0.07916219 0.07972769 0.08039252 0.08115816 0.08203709 0.08303275 0.08415172
 0.0853995 0.0867421 0.0881791 0.08964612 0.09114 0.09261759 0.0940765 0.09548587 0.09683036 0.09801605
 0.09902547 0.09973869 0.1001828 0.1003471 0.1002893 0.100091 0.09979226 0.09946858 0.09912559 0.09879163
 0.09845598 0.09811389 0.09778015 0.09744582 0.09718437 0.09700616 0.09699539 0.09718095 0.09747371 0.09787312
 0.0982137 0.0984887 0.09868487 0.09880718 0.09890518 0.09897853 0.09904911 0.09911424 0.09917323 0.0992322
 0.09930488 0.09939489 0.09953623 0.09966373 0.09975033 0.09965399 0.09924763 0.09849813 0.0973358 0.09584577
 0.09403256 0.09200919 0.08978863 0.08752574 0.08524235 0.08306015 0.08099522 0.07905497 0.07723982 0.07550505
 0.07385159 0.0722748 0.07078016 0.06939902 0.06812632 0.06696703 0.06590166 0.06489155 0.06391761 0.06293371
 0.06193098 0.06088393 0.05978775 0.05863433 0.05741173 0.05610594 0.05473281 0.05326981 0.05185098 0.05049828
 0.04933995 0.04841573 0.04764142 0.04701595 0.04641605 0.04583593 0.04524639 0.04465114 0.04408429 0.04354738
 0.04306635 0.04263765 0.04225713 0.04193447 0.04168319 0.04152805 0.04151649 0.04165535 0.04197698 0.04245748
 0.043088 0.04385312 0.04474113 0.04575039 0.04687943 0.04812046 0.04946317 0.05094799 0.05256255 0.05448733
 0.05673615 0.05948396 0.06273727 0.06623492 0.06993722 0.07327935 0.07626685 0.07863464 0.08043508 0.0817031
 0.08248315 0.0828804 0.08294521 0.08279251 0.08247665 0.08209738 0.08168936 0.08131681 0.08096574 0.08065564
 0.08032615 0.07995523 0.07952343 0.07901382 0.07847045 0.07789499 0.07734457 0.07682528 0.07636486 0.07596482
 0.07560607 0.07528622 0.07497047 0.07465879 0.07433309 0.07399604 0.0736471 0.07328867 0.07292772 0.07256082
 0.07218719 0.07179906 0.07138335 0.0709485 0.07048818 0.07003976 0.0696156 0.06926253 0.0690006 0.06885397
 0.06883342 0.06894095 0.06917895 0.06954324 0.07003625 0.0706172 0.0712837 0.07192422 0.07253298 0.07300288
 0.0733411 0.07353122 0.07358918 0.0735599 0.07345644 0.07333089 0.07318852 0.07306384 0.07294731 0.07284609
 0.07273538 0.07260111 0.07241677 0.07216384 0.07183098 0.07140692 0.07090249 0.07031482 0.06967374 0.06898142
 0.06827518 0.06755823 0.06686207 0.06618857 0.06556624 0.06499723 0.06451601 0.06412441 0.06385332 0.06369868
 0.06366705 0.06374372 0.06390426 0.06412064 0.06434449 0.06453571 0.06463306 0.06460591 0.06440166 0.06403948
 0.06350155 0.06286454 0.06214767 0.06142687 0.06072858 0.0600718 0.05946691 0.05888803 0.05833379 0.05778053
 0.05722684 0.05668229 0.05614936 0.05566423 0.05522774 0.05486518 0.05457105 0.05433992 0.0541648 0.05402691
 0.0539213 0.05383226 0.05375599 0.05368199 0.05360954 0.05353432 0.0534585 0.05338285 0.05330656 0.05323015
 0.05314974 0.05306374 0.05297359 0.05287859 0.05278632 0.05269762 0.05261558 0.05254045 0.05246736 0.05239664
 0.05232983 0.05227033 0.05223828 0.05223922 0.0523048 0.05243607 0.05265488 0.05295063 0.05331953 0.05374088
 0.0541921 0.05465081 0.05509421 0.05550245 0.05586026 0.05615212 0.05636821 0.0565042 0.05655503 0.05653255
 0.05643638 0.05628803 0.05608902 0.05586194 0.05560813 0.05534812 0.05508265 0.05482604 0.05457784 0.05434228
 0.05411882 0.0539071 0.05370834 0.05352524 0.05335924 0.05321465 0.05309018 0.05298622 0.05290069 0.05283127
 0.05277918 0.05274331 0.05272929 0.05273825 0.05277738 0.05284852 0.0529572 0.0531051 0.05329154 0.05351734
 0.05377189 0.05405473 0.05434603 0.05464456 0.05492889 0.05519886 0.05544192 0.05566007 0.05585357 0.05602543
 0.05618263 0.05632828 0.0564697 0.05661156 0.05676131 0.05692442 0.05710832 0.05731389 0.05754499 0.0577957
 0.05806502 0.05834654 0.05863816 0.05893776 0.05924478 0.0595577 0.05987656 0.06019666 0.06051769 0.06083777
 0.0611574 0.0614839 0.06181858 0.06217428 0.06255021 0.06295202 0.06337431 0.06380834 0.06424537 0.06466774
 0.06506675 0.06542604 0.06573837 0.06599287 0.06618492 0.06630787 0.06636445 0.06635213 0.0662834 0.06615988
 0.06599701 0.06579784 0.06557067 0.06531708 0.06503636 0.06472857 0.06439233 0.06402816 0.06364346 0.06323995
 0.06283266 0.06242279 0.06202308 0.06163329 0.06125848 0.06089941 0.06055889 0.06023942 0.05994552 0.05967747
 0.05943756 0.05922346 0.05903348 0.05886948 0.05873046 0.05862404 0.05855227 0.0585192 0.05852693 0.05856929
 0.05864628 0.0587475 0.05887225 0.05901587 0.05917874 0.05936693 0.05958187 0.05983634 0.06013057 0.06047317
 0.06086141 0.06129308 0.06176472 0.06226884 0.06280442 0.06336722 0.06395744 0.06457397 0.06521707 0.065886
 0.06658325 0.06730916 0.06806775 0.06886077 0.06968756 0.07054918 0.07143809 0.07235404 0.07328619 0.07423393
 0.07518536 0.07613973 0.07708445 0.07801849 0.07892908 0.07981507 0.08066516 0.08147881 0.08224923 0.08297598
 0.08365698 0.08428718 0.08486219 0.08537021 0.08579919 0.08614344 0.08639144 0.08655971 0.08664814 0.08668788
 0.08668728 0.08666704 0.08663314 0.08658856 0.08653414 0.08647095 0.08639886 0.08633018 0.08626587 0.08622451
 0.08620573 0.08621772 0.08625569 0.08630596 0.0863619 0.08639784 0.0864138 0.08639544 0.08635226 0.08628858
 0.08621778 0.08615066 0.08610296 0.08608356 0.08611406 0.08620328 0.08637243 0.08662991 0.08698314 0.08743717
 0.08797786 0.08860657 0.08928508 0.09001163 0.09072854 0.09143309 0.09207438 0.09265438 0.09316029 0.0936
 0.09399764 0.0943609 0.09472153 0.09508441 0.09547187 0.09588802 0.09634728 0.09684979 0.09740391 0.09799681
 0.09862851 0.09926923 0.09991053 0.1005164 0.1010746 0.1015666 0.1019846 0.1023386 0.1026281 0.1028714
 0.10307 0.1032287 0.1033478 0.1034278 0.1034703 0.1034873 0.1034808 0.1034666 0.1034443 0.1034208
 0.1033938 0.1033629 0.1033235 0.1032711 0.1031984 0.1030966 0.1029644 0.1027957 0.1026018 0.1023845
 0.102159 0.10193 0.1017056 0.1014881 0.1012798 0.1010814 0.1008927 0.1007139 0.1005434 0.1003814
 0.1002288 0.1000857 0.09995404 0.09983201 0.09971327 0.09959488 0.0994645 0.09932335 0.09916691 0.09900015
 0.09882803 0.0986534 0.09848036 0.09831057 0.09814461 0.0979889 0.09784487 0.09772265 0.09762505 0.09756047
 0.097532 0.09753735 0.09757847 0.09763235 0.09769806 0.09773881 0.09775339 0.09772124 0.09764504 0.09753548
 0.09739623 0.09724931 0.09709417 0.09694134 0.09678669 0.09662846 0.0964601 0.0962731 0.09606075 0.09581248
 0.09552999 0.09520801 0.09486134 0.09449366 0.09412146 0.0937508 0.09338865 0.0930378 0.09269767 0.09236865
 0.09204804 0.09173567 0.09142959 0.09112966 0.09083422 0.09054209 0.09024458 0.08993814 0.0896031 0.08923647
 0.08881881 0.08835181 0.08782932 0.08725474 0.08663046 0.08595798 0.08523903 0.08447587 0.0836703 0.08282422
 0.0819401 0.0810137 0.08004437 0.07902792 0.07796169 0.07685506 0.07570773 0.07453878 0.07334947 0.07215483
 0.07095549 0.06975998 0.06856882 0.06738913 0.06622259 0.06507848 0.06396209 0.06289095 0.06187389 0.06093704
 0.06008301 0.0593304 0.05866525 0.0580854 0.05756513 0.05708993 0.05663435 0.05618583 0.0557221 0.05523548
 0.05470667 0.05413 0.05349872 0.05280969 0.05207718 0.05130137 0.05051136 0.04970873 0.04892264 0.04815383
 0.04742126 0.0467246 0.04607249 0.04546423 0.044903 0.04438655 0.04391362 0.04347808 0.04307207 0.04268853
 0.04231767 0.041957 0.04160114 0.04125334 0.04091269 0.04058647 0.04027532 0.03999111 0.0397356 0.03952138
 0.03935077 0.03922645 0.03914923 0.03910831 0.03910288 0.0391152 0.03914424 0.0391733 0.03920298 0.03922562
 0.03924533 0.03926953 0.03930265 0.0393586 0.03943486 0.03953572 0.03965194 0.03977648 0.03990193 0.04002136
 0.04013118 0.04022918 0.04030986 0.04037179 0.04040817 0.04041678 0.04039719 0.04034795 0.04028038 0.04019466
 0.04011363 0.04003862 0.03999601 0.03998621 0.04002498 0.0401102 0.04024152 0.04041487 0.0406202 0.0408503
 0.04108882 0.04132403 0.04153348 0.04170848 0.04182974 0.04190362 0.04192475 0.04191413 0.04187787 0.04183915
 0.04180643 0.04179298 0.04180472 0.04183609 0.04188863 0.04194102 0.0419917 0.0420264 0.04204508 0.04205812
 0.0420669 0.04208949 0.0421232 0.04216597 0.04221203 0.04224173 0.04225489 0.0422395 0.04220371 0.04215318
 0.04209674 0.04204548 0.04200295 0.04197459 0.0419619 0.04196567 0.041991 0.04203992 0.04211449 0.04221774
 0.04233582 0.04246888 0.04259068 0.04269915 0.04277747 0.04282532 0.04284836 0.04284818 0.04284166 0.04282925
 0.04282238 0.04281929 0.04282097 0.04282488 0.04282627 0.04282372 0.04281287 0.04279427 0.04276672 0.0427316
 0.04268936 0.04264155 0.04258846 0.04253316 0.04247667 0.04242092 0.04236716 0.04231192 0.04225496 0.04219258
 0.04212409 0.04205607 0.04198901 0.04193674 0.04189901 0.04187998 0.04187704 0.04187917 0.04188528 0.0418842
 0.04188123 0.04188113 0.04189095 0.0419258 0.04198118 0.04206194 0.04215053 0.0422351 0.0423082 0.04235774
 0.04240466 0.04245069 0.0425247 0.04263546 0.04278659 0.04298186 0.04319979 0.04343918 0.04367939 0.04391968
 0.044155 0.04438623 0.04461965 0.04485576 0.04510091 0.04535339 0.045611 0.04587251 0.04613293 0.04639545
 0.04666305 0.04693712 0.04722358 0.04751187 0.04779809 0.04806869 0.04831337 0.04853599 0.04873274 0.04892299
 0.04911034 0.04930792 0.04951907 0.04974112 0.04997443 0.05020967 0.05044647 0.05068069 0.05091294 0.05114801
 0.05138598 0.05163132 0.05188031 0.05212391 0.05235849 0.05256943 0.05276198 0.0529356 0.05310149 0.05327174
 0.05345111 0.05364748 0.05385908 0.05408661 0.0543294 0.0545872 0.05486032 0.05514869 0.05545293 0.05577286
 0.05611181 0.05647031 0.05684563 0.05723755 0.05763581 0.05804177 0.05846353 0.05890646 0.05940396 0.05995681
 0.06058789 0.0612884 0.06205087 0.06286687 0.06372167 0.06460776 0.06551765 0.06642947 0.06733288 0.06818802
 0.06897845 0.06965779 0.07020901 0.07059616 0.07080404 0.07083911 0.07069387 0.07043558 0.07006741 0.06967487
 0.06926207 0.06887797 0.06852235 0.06820971 0.06793968 0.0677195 0.06754763 0.06742504 0.06734593 0.06729954
 0.06727827 0.06726754 0.06725875 0.06723874 0.06719939 0.06712966 0.06703024 0.06689719 0.06673887 0.06655785
 0.06635716 0.06613713 0.06590317 0.06565364 0.06541467 0.06518792 0.06500161 0.06485691 0.06475194 0.06468467
 0.06463283 0.06459468 0.06455102 0.06449936 0.06442117 0.06431594 0.06416978 0.06399333 0.06379541 0.0635888
 0.06339305 0.06320668 0.06303447 0.06287335 0.06271831 0.06258586 0.06248011 0.06241582 0.06240303 0.06241302
 0.06244484 0.06245975 0.06245403 0.06240673 0.06231681 0.0621772 0.06199063 0.061783 0.06155986 0.0613679
 0.06120292 0.06107763 0.06098049 0.060889 0.0608032 0.06071272 0.06062234 0.06053795 0.06044871 0.06034894
 0.06022884 0.06007543 0.05990986 0.05973147 0.05958166 0.05946997 0.05942317 0.05944933 0.0595393 0.05969504
 0.05987198 0.06006768 0.06022719 0.06034959 0.0604056 0.06039944 0.06033684 0.06022552 0.06009101 0.05994486
 0.05982458 0.05973848 0.05972189 0.05975966 0.05985387 0.05997378 0.06009348 0.06020581 0.06029875 0.06037916
 0.06045073 0.06050123 0.06052716 0.06052646 0.06049438 0.06046597 0.06044381 0.06045542 0.06050226 0.06059001
 0.0607206 0.06092 0.06118922 0.06155377 0.06200063 0.06250108 0.06303866 0.06355958 0.06406169 0.06451789
 0.06493219 0.06529804 0.06562284 0.06590577 0.06616764 0.06641866 0.06667355 0.06694245 0.06721897 0.06750066
 0.0677968 0.06810565 0.0684607 0.06886694 0.06931526 0.06980506 0.07026607 0.07069597 0.07104386 0.07131639
 0.07152584 0.07167853 0.07180394 0.07190026 0.07197893 0.07203318 0.07206103 0.07204626 0.07197064 0.07182175
 0.07157464 0.07125736 0.07086862 0.07046819 0.07007867 0.06973198 0.06944625 0.06919836 0.06899073 0.06877301
 0.06854033 0.06826247 0.0679377 0.06758936 0.06722072 0.06688328 0.0665732 0.06629717 0.06604277 0.06576422
 0.06546662 0.06513197 0.064788 0.06447346 0.06420273 0.0640126 0.06388936 0.0638376 0.06383176 0.06386479
 0.06389897 0.06392282 0.0638954 0.06380017 0.06363968 0.06340714 0.06315103 0.06287587 0.06260901 0.06235212
 0.06208574 0.06180861 0.06149938 0.06115898 0.06078283 0.06037154 0.0599221 0.05944043 0.05893515 0.05842045
 0.05792281 0.05745242 0.05703005 0.05666259 0.05636096 0.05613104 0.0559852 0.05590081 0.05588018 0.05586917
 0.05585388 0.05580388 0.05570798 0.05558686 0.0554405 0.05530207 0.05517346</values></Ydata></AB><ScSm><Ydata ylabel="Single channel"><values byteorder="INTEL" format="FLOAT32" numvalues="1814"> 0.06497282 0.06498404 0.06505533 0.06520003 0.06538735 0.06556453 0.065694 0.06577195 0.06580675 0.06579112
 0.06572515 0.06566337 0.06569579 0.0658612 0.06609621 0.06627986 0.0663287 0.06626907 0.0662234 0.0662901
 0.06641105 0.06638729 0.06606759 0.06552295 0.06500101 0.06469744 0.06463288 0.06479709 0.06527255 0.06600633
 0.06654958 0.06637716 0.06554772 0.06473708 0.06448717 0.06468354 0.06487134 0.06478307 0.0644241 0.06396405
 0.0637757 0.06433678 0.06576262 0.06741652 0.06813505 0.06696109 0.06382695 0.05977038 0.05655059 0.05570883
 0.05748853 0.06051651 0.06283103 0.06344783 0.06283784 0.06194227 0.0611521 0.0604284 0.05996143 0.06020311
 0.06124909 0.06242362 0.06262871 0.06128009 0.05899743 0.05716551 0.05666989 0.05733655 0.05866975 0.06039938
 0.06173945 0.06094778 0.05703023 0.05192649 0.04966188 0.05252479 0.05862469 0.06373964 0.06507666 0.06284945
 0.05906412 0.05585068 0.05465717 0.05585713 0.05867429 0.06182445 0.06430016 0.06543007 0.06469995 0.06219111
 0.05902961 0.05685173 0.05679869 0.05906108 0.0628387 0.0664188 0.06795157 0.06681013 0.06400783 0.06112585
 0.05926836 0.05906103 0.06080903 0.06418689 0.06820761 0.07179153 0.07421397 0.07518826 0.07492231 0.07398038
 0.0728532 0.07188156 0.07156015 0.07223452 0.07329981 0.07342447 0.07199514 0.06992647 0.06871647 0.06889841
 0.06961513 0.0696668 0.06872795 0.06717452 0.06490779 0.0613094 0.0566651 0.05256677 0.05032598 0.04996304
 0.05114555 0.0537141 0.0565787 0.05764198 0.0560967 0.05390541 0.05386191 0.05660656 0.06028692 0.06280956
 0.063779 0.0643582 0.06577488 0.06806569 0.06991876 0.06966702 0.0669387 0.0635817 0.06235887 0.06424166
 0.06747697 0.06974258 0.07059512 0.07123046 0.0723858 0.07319678 0.07209795 0.06868353 0.06471752 0.06305104
 0.06514175 0.06959606 0.07318093 0.07321948 0.06938937 0.06379598 0.05932943 0.0576666 0.05881254 0.06218952
 0.06728236 0.07306585 0.07774056 0.07974091 0.07887805 0.07624494 0.07296622 0.06916088 0.06453907 0.06012908
 0.05848977 0.06129883 0.06721339 0.07298433 0.07635289 0.07718586 0.07622689 0.07370754 0.06953434 0.06460841
 0.06127867 0.06153178 0.06460433 0.06739673 0.06771684 0.06628851 0.0651772 0.06521045 0.06565207 0.06577428
 0.06589364 0.06681807 0.06868754 0.07065161 0.07169245 0.0715553 0.07080076 0.0701486 0.06982325 0.06938857
 0.06835458 0.06713669 0.06703215 0.06881085 0.0716693 0.07405537 0.07523009 0.07555822 0.07549009 0.07476169
 0.07278237 0.06975746 0.06715538 0.06662606 0.06841031 0.07118723 0.07345109 0.07459326 0.07476719 0.07435586
 0.07370979 0.07302633 0.07240114 0.07208095 0.07240833 0.07334276 0.07433793 0.07489051 0.07496151 0.07474005
 0.07427865 0.07354535 0.07267503 0.07199514 0.07179802 0.07212619 0.07278247 0.07350257 0.07405932 0.07426514
 0.07404667 0.07354912 0.07303069 0.07262476 0.07231683 0.0721355 0.07219607 0.07251671 0.07292738 0.07322356
 0.07333201 0.07329082 0.07314584 0.07291895 0.07263798 0.07236015 0.07217317 0.07215314 0.07228383 0.07244744
 0.07254755 0.07260498 0.07267254 0.07270893 0.07262482 0.07242474 0.07222183 0.07211982 0.0721316 0.07220082
 0.07225062 0.07219803 0.07196631 0.07155219 0.07110009 0.0708439 0.07091917 0.07126115 0.07170319 0.07210828
 0.07238913 0.07250296 0.07248743 0.07243557 0.0723894 0.07230078 0.07212111 0.07189853 0.07176785 0.07184234
 0.07210762 0.0724296 0.07267375 0.07279471 0.0728181 0.07279748 0.07279951 0.0728593 0.07292596 0.07290897
 0.07279646 0.07268304 0.07266774 0.07275109 0.07283969 0.07284525 0.0727791 0.0727383 0.07279294 0.07291405
 0.07302687 0.07310104 0.07316263 0.07323541 0.07329263 0.07327317 0.0731528 0.07298987 0.07287416 0.07283632
 0.07284163 0.07286496 0.07292418 0.07303046 0.07314494 0.07320882 0.0732047 0.07317086 0.07314993 0.07313403
 0.07307653 0.07295642 0.07280995 0.07269365 0.0726327 0.07261057 0.07259372 0.07255712 0.07249297 0.07240598
 0.07230526 0.07219798 0.07208541 0.071969 0.071868 0.07181963 0.07183962 0.07188281 0.07186557 0.07173991
 0.07153978 0.07134815 0.07122053 0.07114354 0.07106487 0.07095353 0.07082254 0.07070216 0.07060873 0.07053955
 0.07048173 0.0704219 0.07036319 0.07033885 0.07039052 0.07051602 0.07064952 0.07071497 0.07069741 0.07064706
 0.07061972 0.07063283 0.07067345 0.07072672 0.07079439 0.07089362 0.07102765 0.07115689 0.07122731 0.07123852
 0.07125399 0.07133181 0.07147437 0.07165114 0.07183003 0.07197492 0.07205565 0.07208554 0.07211953 0.07219532
 0.07229751 0.07239501 0.07248946 0.07260595 0.07275301 0.07291751 0.07309474 0.07330095 0.07355002 0.07382794
 0.07409496 0.07431185 0.07447141 0.07461265 0.07479882 0.07506824 0.07540083 0.07573427 0.07601634 0.07624525
 0.07645929 0.07668889 0.07693121 0.07717896 0.07745381 0.07778473 0.07816092 0.07853457 0.07887077 0.07917571
 0.07947646 0.07979055 0.08011826 0.08045477 0.08080418 0.08117585 0.08156028 0.08191879 0.08221434 0.08245119
 0.08267327 0.08292781 0.08323556 0.08357824 0.08390045 0.08414576 0.08431683 0.08448532 0.08471616 0.08499388
 0.08525369 0.0854751 0.08570699 0.08599445 0.08631673 0.08661643 0.08686921 0.08710244 0.08735265 0.08761926
 0.08786111 0.08803511 0.08814076 0.08822468 0.08833779 0.08849879 0.08870739 0.08897139 0.08929176 0.08963121
 0.08992992 0.09015392 0.09030949 0.09041996 0.0905124 0.09061641 0.0907485 0.09089923 0.09104791 0.09117852
 0.0912753 0.09133124 0.09137575 0.09146545 0.09162824 0.09184058 0.09207466 0.09233615 0.09263234 0.09293398
 0.09320675 0.09346571 0.09375623 0.0940773 0.09436047 0.09454137 0.09462322 0.09465115 0.09465587 0.0946551
 0.09468333 0.09477216 0.09490143 0.09500283 0.09501618 0.09492426 0.09473971 0.09448424 0.09418735 0.09389137
 0.0936482 0.09350921 0.09351688 0.09370139 0.09407462 0.09461151 0.09523544 0.09583978 0.09633701 0.09668296
 0.09686026 0.09686644 0.09673249 0.09652472 0.09629281 0.09601575 0.09561769 0.09503745 0.09426896 0.09333856
 0.09226558 0.09105942 0.08974999 0.08841051 0.08714403 0.08604565 0.08517963 0.08459111 0.08432201 0.08438951
 0.08474025 0.08523829 0.08570822 0.085988 0.0859531 0.08552843 0.08471005 0.08357298 0.08223957 0.08083248
 0.07944903 0.07815367 0.07697786 0.07594295 0.07510748 0.07459036 0.07453333 0.07503529 0.07611055 0.07767995
 0.07958239 0.08161265 0.08358692 0.08539918 0.08702813 0.08849849 0.08984205 0.09108858 0.09227076 0.09341349
 0.09451652 0.09556139 0.09653735 0.09744791 0.09829079 0.09904318 0.09966858 0.10013 0.1004014 0.1004802
 0.1003923 0.1001847 0.09991568 0.09963882 0.09936696 0.09903802 0.09853336 0.09775117 0.09667414 0.09538838
 0.09406953 0.09296141 0.09234367 0.09247401 0.09350876 0.0954316 0.09803721 0.1009945 0.1039558 0.1066491
 0.1089224 0.1107497 0.1122038 0.1134012 0.1144459 0.1154031 0.116301 0.1171436 0.1179254 0.1186436
 0.1193029 0.1199138 0.1204933 0.1210576 0.1216085 0.1221314 0.1226155 0.1230716 0.1235262 0.1239984
 0.1244831 0.1249576 0.1254072 0.1258396 0.1262679 0.1266864 0.1270792 0.1274485 0.1278162 0.1282
 0.1286038 0.1290224 0.1294401 0.1298302 0.1301731 0.1304772 0.1307692 0.13107 0.1313846 0.1317079
 0.1320307 0.1323423 0.1326357 0.1329166 0.133204 0.1335145 0.1338391 0.1341437 0.1344005 0.134618
 0.134832 0.135069 0.1353263 0.1355846 0.135835 0.1360908 0.1363726 0.1366819 0.1369928 0.1372739
 0.1375183 0.1377469 0.1379857 0.1382451 0.1385211 0.1388071 0.1390961 0.1393774 0.1396408 0.1398879
 0.1401324 0.1403855 0.1406453 0.1409007 0.1411443 0.1413782 0.1416095 0.1418411 0.1420731 0.1423122
 0.1425722 0.142857 0.1431469 0.1434123 0.1436404 0.1438428 0.1440395 0.144243 0.1444602 0.1446965
 0.1449537 0.145226 0.1455038 0.1457807 0.1460567 0.1463327 0.1466046 0.1468657 0.1471144 0.147357
 0.1476013 0.14785 0.1481006 0.1483502 0.1485991 0.1488478 0.149095 0.1493387 0.1495809 0.1498253
 0.1500709 0.1503127 0.1505515 0.1507947 0.1510438 0.1512887 0.1515193 0.1517382 0.151958 0.1521893
 0.1524341 0.1526875 0.1529423 0.153193 0.1534367 0.1536743 0.1539089 0.1541429 0.1543757 0.1546053
 0.1548318 0.1550564 0.1552808 0.1555093 0.1557465 0.15599 0.15623 0.1564584 0.156679 0.1569043
 0.1571428 0.1573887 0.1576269 0.1578487 0.1580609 0.158276 0.1585 0.1587317 0.1589684 0.1592092
 0.1594528 0.1596957 0.159932 0.1601587 0.1603791 0.160599 0.1608197 0.1610404 0.1612619 0.1614866
 0.1617162 0.1619501 0.1621855 0.1624177 0.1626434 0.1628619 0.1630726 0.1632778 0.1634838 0.1636935
 0.163903 0.1641108 0.1643225 0.1645419 0.1647659 0.1649908 0.1652147 0.1654368 0.1656595 0.1658867
 0.1661173 0.1663464 0.1665741 0.1668028 0.1670312 0.1672572 0.1674812 0.1677021 0.1679197 0.1681387
 0.1683626 0.1685883 0.1688156 0.1690518 0.1692991 0.1695475 0.1697839 0.1700039 0.1702135 0.1704241
 0.1706409 0.1708564 0.1710659 0.1712781 0.1715011 0.1717287 0.1719524 0.1721735 0.1723948 0.1726142
 0.1728305 0.173044 0.1732572 0.1734765 0.1737047 0.1739327 0.1741533 0.1743719 0.1745935 0.1748149
 0.175036 0.1752585 0.1754757 0.1756836 0.1758936 0.1761158 0.1763441 0.1765708 0.1767904 0.1769842
 0.1771063 0.1770462 0.1765302 0.1750131 0.171661 0.1655183 0.155897 0.1428203 0.1271625 0.1103259
 0.09372105 0.0784128 0.06503139 0.05385599 0.04494575 0.03822841 0.0335603 0.03082066 0.03000524 0.03132242
 0.03530484 0.04249837 0.05225838 0.06166838 0.06666199 0.0652293 0.05934016 0.05315033 0.04954562 0.04873961
 0.04950395 0.05078022 0.05222467 0.05402377 0.0565123 0.05979601 0.06372632 0.06829936 0.07385591 0.08065008
 0.08832477 0.09605518 0.1032543 0.1100339 0.1169368 0.1242869 0.131853 0.1390805 0.1455392 0.1511422
 0.1560587 0.1605162 0.1646703 0.1685958 0.1723366 0.1758983 0.1791617 0.181848 0.1836551 0.1844884
 0.184569 0.1843066 0.1840569 0.1839848 0.1841077 0.1843984 0.1848342 0.1853985 0.1860766 0.1868451
 0.1876644 0.1884961 0.189323 0.1901393 0.190931 0.1916798 0.1923751 0.1930122 0.1935895 0.1941119
 0.1945891 0.1950295 0.1954397 0.195828 0.1962013 0.1965623 0.1969106 0.1972405 0.1975447 0.1978227
 0.198083 0.1983332 0.1985742 0.1988064 0.1990332 0.1992557 0.1994717 0.1996837 0.1999008 0.2001297
 0.2003654 0.2005947 0.2008098 0.2010163 0.2012255 0.2014403 0.2016535 0.2018589 0.2020578 0.2022547
 0.2024544 0.2026619 0.2028789 0.2031001 0.2033161 0.2035207 0.2037139 0.2039027 0.2040957 0.204295
 0.2044973 0.2047044 0.2049233 0.205156 0.205397 0.2056412 0.2058831 0.2061152 0.2063356 0.2065499
 0.2067566 0.2069411 0.2070955 0.2072385 0.2074057 0.2076201 0.2078707 0.2081203 0.20834 0.2085334
 0.2087239 0.2089254 0.2091306 0.2093203 0.2094868 0.2096558 0.2098711 0.2101429 0.2104317 0.2106976
 0.2109379 0.2111683 0.2113988 0.2116382 0.2118834 0.2121006 0.2122563 0.2123756 0.2125409 0.2128168
 0.2131836 0.2135507 0.2138427 0.2140646 0.2142754 0.2145203 0.2148065 0.2150996 0.2153085 0.2153438
 0.215258 0.215265 0.2155447 0.2160646 0.2166401 0.2171239 0.2174906 0.2177837 0.2180394 0.2182513
 0.2183799 0.2183996 0.2183636 0.2184216 0.2187175 0.2192388 0.2198092 0.2202661 0.2205879 0.2208301
 0.2210311 0.2212088 0.2213269 0.2212441 0.2208629 0.2203978 0.2203189 0.2208983 0.221901 0.2228328
 0.2234267 0.2237792 0.2240736 0.2243519 0.2245685 0.2246367 0.2243193 0.2233628 0.2219968 0.221078
 0.2213865 0.2228413 0.224636 0.226042 0.2268685 0.2272912 0.2275385 0.2277353 0.2278116 0.2275105
 0.2266804 0.2256626 0.2252064 0.2257779 0.2270357 0.2281998 0.2288499 0.2291386 0.2293656 0.2296375
 0.2298016 0.229404 0.2279409 0.2256133 0.2237104 0.2237057 0.2258168 0.2287421 0.2309479 0.2319835
 0.2323642 0.2324449 0.2318962 0.2302994 0.2277813 0.2249599 0.2227442 0.2222074 0.2238821 0.2268734
 0.2293616 0.2303923 0.2306837 0.2314344 0.2328872 0.2343302 0.2350228 0.2347738 0.2338178 0.2324058
 0.2306798 0.2290431 0.2283978 0.2295119 0.2320837 0.2348365 0.2366962 0.2376135 0.2380155 0.2375508
 0.2348253 0.2290759 0.2222786 0.2186144 0.2207823 0.2271766 0.2336119 0.2374416 0.2390188 0.2397383
 0.2401583 0.2398429 0.2376245 0.2322442 0.2243381 0.2176894 0.2166727 0.2219252 0.2296235 0.2350553
 0.2358296 0.2321209 0.225822 0.2199946 0.2176308 0.2198341 0.2253222 0.2316983 0.2369018 0.2397755
 0.2400482 0.2382253 0.235559 0.2337447 0.2336948 0.2341988 0.2328359 0.2290219 0.2249677 0.2224373
 0.2200323 0.2157982 0.211506 0.2114952 0.2170228 0.2241549 0.2281789 0.2283788 0.227217 0.2258572
 0.2221907 0.2138691 0.2026989 0.1947505 0.1950119 0.2021702 0.2097353 0.2123225 0.2098685 0.2058104
 0.2024983 0.198974 0.1926934 0.1831279 0.1735165 0.1683045 0.1686478 0.1715129 0.1733511 0.1729086
 0.1700702 0.1648294 0.1594008 0.1589811 0.16727 0.1818461 0.1959787 0.2040918 0.2037887 0.1947545
 0.179681 0.1659494 0.1620343 0.1699414 0.1828011 0.1911851 0.190624 0.1824772 0.1699043 0.1556597
 0.1433339 0.1377874 0.1422606 0.1550926 0.1697608 0.1781582 0.1750814 0.1622349 0.1485509 0.1437878
 0.1497096 0.1588724 0.16297 0.1603784 0.1550682 0.1514152 0.1516228 0.1553764 0.1602169 0.163819
 0.1658739 0.165643 0.1594513 0.1451281 0.1281326 0.1180425 0.1185951 0.1257093 0.135143 0.146322
 0.1573414 0.16233 0.1580346 0.1499573 0.1477074 0.1548064 0.1656355 0.1722963 0.1724505 0.1698155
 0.1684119 0.1682329 0.1672401 0.1660758 0.1682551 0.1753058 0.1840712 0.1902119 0.1927149 0.1935186
 0.1942004 0.1947678 0.1947875 0.194115 0.1928195 0.1912795 0.1900662 0.1892931 0.1884917 0.1872786
 0.185366 0.1816128 0.1742938 0.1636386 0.1534174 0.1480395 0.1479689 0.1499769 0.1518868 0.1538642
 0.1540666 0.1473477 0.1319551 0.1151239 0.1078475 0.1142651 0.1285599 0.1416252 0.1480767 0.1467693
 0.1380847 0.1240718 0.110641 0.1057766 0.1131131 0.128543 0.144687 0.1572345 0.1654413 0.1687011
 0.1659206 0.1581553 0.1496188 0.1452892 0.1479163 0.1568002 0.1679661 0.1751149 0.1727018 0.1614882
 0.1511036 0.1529385 0.168113 0.1855345 0.194344 0.1949454 0.1946111 0.1961619 0.196543 0.1948344
 0.1954795 0.2021573 0.2123047 0.2196191 0.2196357 0.2115151 0.197282 0.1820582 0.1728079 0.1729605
 0.1787399 0.1834477 0.184045 0.1807488 0.1730307 0.1614223 0.1519379 0.1524376 0.1634813 0.1771334
 0.1859672 0.1898653 0.1928096 0.1959483 0.1961425 0.190717 0.1819529 0.1757233 0.1757115 0.1801881
 0.1849563 0.1877433 0.1883001 0.1859739 0.1800841 0.1727481 0.1689095 0.1721114 0.18089 0.1901606
 0.195761 0.1970648 0.1958642 0.1939927 0.1920701 0.1896001 0.1861637 0.1830082 0.1828228 0.1868573
 0.1928733 0.1973826 0.1995858 0.2016569 0.2052708 0.2092921 0.2112317 0.2100733 0.2073038 0.2056331
 0.2068355 0.2103511 0.2136761 0.2144353 0.2125984 0.2107132 0.2115659 0.2155197 0.2204594 0.2241878
 0.2262282 0.2273688 0.2283479 0.2292167 0.2293118 0.2277609 0.2247106 0.2220528 0.2220921 0.225256
 0.2296688 0.2330655 0.2346044 0.2347835 0.2342495 0.2331434 0.2314221 0.2294136 0.2278198 0.2271931
 0.2275479 0.2285047 0.229654 0.2307235 0.2315772 0.2322077 0.232686 0.2330572 0.2333201 0.2334985
 0.2336325 0.2336911 0.2335954 0.2333683 0.2331684 0.233113 0.2331324 0.2330657 0.2328318 0.2324196
 0.2317676 0.2307868 0.2295024 0.228051 0.2265057 0.224817 0.223027 0.2214975 0.2207973 0.2212746
 0.2227353 0.2245604 0.2261282 0.2271264 0.2275555 0.2275674 0.2273459 0.2270589 0.2268252 0.2266874
 0.2266211 0.226579 0.2265331 0.2264858 0.2264564 0.2264675 0.2265384 0.2266731 0.2268448 0.2269956
 0.227059 0.2269914 0.2267914 0.2264913 0.2261209 0.2256747 0.2251143 0.2244 0.2235229 0.2225165
 0.2214434 0.2203616 0.2192904 0.2182025 0.2170534 0.2158142 0.2144661 0.2129758 0.2113196 0.20955
 0.2078015 0.2061928 0.2047357 0.2033569 0.2019792 0.2005654 0.1991163 0.1976614 0.1962467 0.1949147
 0.1936904 0.1925738 0.1915314 0.1905043 0.18944 0.1883172 0.1871338 0.1858844 0.1845645 0.1831889
 0.1817816 0.1803299 0.1787508 0.1769094 0.1746698 0.1719268 0.1686224 0.1647709 0.1604859 0.1559716
 0.151472 0.1472066 0.143326 0.1399066 0.136978 0.1345526 0.1326358 0.1312274 0.1303311 0.1299635
 0.1301507 0.1309075 0.1322074 0.1339658 0.1360564 0.1383384 0.1406682 0.142911 0.1449784 0.1468658
 0.1486356 0.1503494 0.1520132 0.1535849 0.1550218 0.1563052 0.1574267 0.1583799 0.1591749 0.1598422
 0.1604103 0.1608973 0.1613258 0.1617229 0.1620995 0.1624471 0.1627546 0.1630194 0.1632437 0.1634324
 0.163594 0.1637446 0.1639167 0.1641541 0.1644855 0.1649073 0.1653952 0.1659262 0.1664947 0.1671168
 0.1678151 0.1685968 0.1694549 0.1703934 0.1714328 0.1725891 0.1738539 0.1751917 0.1765507 0.177882
 0.1791511 0.18033 0.1813916 0.1823254 0.183147 0.1838839 0.1845616 0.185204 0.1858304 0.186448
 0.1870511 0.1876241 0.188142 0.1885847 0.1889465 0.1892159 0.1893605 0.1893569 0.1892275 0.1890263
 0.1888049 0.1886121 0.1885038 0.1885177 0.1886365 0.1887936 0.1889194 0.1889787 0.1889691 0.1889
 0.1887801 0.1886101 0.1883692 0.1880172 0.1875256 0.186898 0.1861464 0.185264 0.1842391 0.1830831
 0.18183 0.1805116 0.1791355 0.1776828 0.1761292 0.174471 0.1727206 0.1708871 0.1689891 0.1670847
 0.1652624 0.1635883 0.1620706 0.1606669 0.1593186 0.1579874 0.1566707 0.1553824 0.1541348 0.1529448
 0.1518394 0.1508331 0.149911 0.1490457 0.1482265 0.14747 0.1468021 0.1462291 0.14573 0.1452855
 0.144901 0.1445896 0.1443524 0.1441943 0.144133 0.1441623 0.1442227 0.1442318 0.1441426 0.1439711
 0.1437778 0.1436217 0.1435228 0.143467 0.1434339 0.1433957 0.1432934 0.1430382 0.142546 0.14177
 0.1407096 0.1393986 0.137889 0.136256 0.1346117 0.1330826 0.1317589 0.1306808 0.1298553 0.1292512
 0.128793 0.1284079 0.1280858 0.1278789 0.1278431 0.1279659 0.1281336 0.1281947 0.1280992 0.1279594
 0.1279516 0.128178 0.1286205 0.1291762 0.1297173 0.1301546 0.1304608 0.1306401 0.130706 0.1306874
 0.1306125 0.1304752 0.1302524 0.1299443 0.1295732 0.1291603 0.128717 0.1282388 0.1277041 0.1270973
 0.1264153 0.1256469 0.124782 0.1238306 0.122789 0.1216243 0.1203671 0.1191892 0.1183234 0.1179134
 0.1179468 0.1182835 0.1187476 0.1192295 0.1196641 0.1199078 0.1198005 0.1194781 0.1195002 0.1204526
 0.1223858 0.1247307 0.1267776 0.1281573 0.1288662 0.1290061 0.1286496 0.1278562 0.126648 0.1249996
 0.1229434 0.1206106 0.1181227 0.1155642 0.1130713 0.1108083 0.1088686 0.1072874 0.1060819 0.1053011
 0.1050607 0.1050183 0.103499 0.09837924 0.09034443 0.08432944 0.08536628 0.09293051 0.1013138 0.1056661
 0.1058582 0.1044675 0.1032576 0.102485 0.1020624 0.1021238 0.1027902 0.1039458 0.105246 0.1063107
 0.1069644 0.1072367 0.1071179 0.1063364 0.1042829 0.100212 0.09384449 0.08591484 0.07792936 0.07127941
 0.06660727 0.06381419 0.06236611 0.06161791 0.0611316 0.06086302 0.06106053 0.0619703 0.06362516 0.06588018
 0.06855522 0.0714334 0.07417646 0.07644786 0.07817285 0.07952909 0.08064842 0.08146238 0.0818479 0.08178612
 0.08135884 0.08068958 0.07990719 0.07909745 0.07825101 0.07728672 0.07618947 0.07513884 0.07441934 0.07415357
 0.07419702 0.07432657 0.07443279 0.07450606 0.07455652 0.07459217 0.07461636 0.07465528 0.07480639 0.07517408
 0.07571767 0.07624814 0.07660265 0.07676585 0.07682812 0.07685003 0.07674363 0.07634857 0.07571089 0.07514395
 0.07482409 0.07447869 0.07374279 0.07272656 0.07195866 0.07180053 0.07211966 0.07251401 0.07268197 0.07257371
 0.07235582 0.07231184 0.07265198 0.07327217</values></Ydata></ScSm><ScRf><Ydata ylabel="Single channel"><values byteorder="INTEL" format="FLOAT32" numvalues="1820"> 0.06080011 0.06095781 0.06105151 0.06108449 0.06108331 0.06109313 0.06116032 0.06130401 0.06149894 0.06168653
 0.06181389 0.06187005 0.06187519 0.06184121 0.06177438 0.06171853 0.06175006 0.06190339 0.06211958 0.06228409
 0.06231786 0.06224836 0.06219615 0.06225692 0.06237318 0.06235124 0.06204501 0.06152318 0.06102268 0.06072943
 0.06066379 0.06081986 0.06128025 0.06199471 0.06253168 0.06238448 0.06160178 0.0608227 0.06056599 0.06073267
 0.06090027 0.06081761 0.06048457 0.06005352 0.05987304 0.06039763 0.06174124 0.06330179 0.06397291 0.06284246
 0.05984672 0.05597998 0.05292619 0.05215457 0.05388423 0.05678883 0.05899233 0.05956574 0.05897171 0.05811533
 0.05736895 0.05668818 0.05624367 0.05645909 0.05742694 0.05851013 0.05867269 0.05737237 0.05521052 0.05349944
 0.05305907 0.05370569 0.05496899 0.05660203 0.057861 0.0570915 0.05336034 0.04852625 0.0464153 0.04918396
 0.05501294 0.05987756 0.06112607 0.05897855 0.05536677 0.05232931 0.0512274 0.05238217 0.05503819 0.05799112
 0.06031163 0.06137337 0.06068335 0.05831449 0.05533426 0.05328899 0.0532518 0.05539956 0.05897516 0.06235658
 0.06379292 0.06269554 0.06002984 0.05729512 0.05553784 0.05535169 0.05702284 0.06023624 0.06405447 0.06745832
 0.06976087 0.07068218 0.07041619 0.06951123 0.06845122 0.06756058 0.06728658 0.06793223 0.06892018 0.06900717
 0.06763574 0.06568321 0.0645624 0.0647624 0.06545644 0.06550375 0.06460282 0.06311595 0.06094731 0.05750938
 0.05308174 0.04918328 0.04705738 0.04672292 0.04787522 0.05036922 0.05315283 0.05420586 0.05274858 0.05065233
 0.05058347 0.05316003 0.0566317 0.05901846 0.05994648 0.06051245 0.06187016 0.0640471 0.06579936 0.06555106
 0.06295662 0.05977678 0.05863585 0.06044834 0.06353942 0.06570429 0.06653374 0.06717299 0.06831789 0.06913264
 0.06812102 0.06490713 0.06118549 0.05966681 0.06171369 0.06597769 0.06937996 0.06938531 0.0657071 0.06037503
 0.05615562 0.05463526 0.05579975 0.05909877 0.06405659 0.06970152 0.07430223 0.07633511 0.07559116 0.07310952
 0.06998703 0.06635852 0.06195102 0.05776022 0.05626889 0.05910388 0.06495491 0.07066312 0.07403757 0.07494919
 0.07410911 0.07172303 0.06769481 0.06293419 0.05978562 0.06020962 0.06341921 0.06632093 0.06674761 0.06543486
 0.06444061 0.06458454 0.06513415 0.0653752 0.06564084 0.06674477 0.06881005 0.07095668 0.07214905 0.07213615
 0.07149507 0.07095966 0.07075338 0.07042757 0.06949659 0.06841429 0.06851494 0.07055062 0.0736514 0.07621644
 0.07751978 0.07797316 0.07804592 0.0774374 0.07550533 0.07246383 0.06987445 0.06948911 0.07155694 0.07466279
 0.07719642 0.07851659 0.07881149 0.07851005 0.07798274 0.07742593 0.07693703 0.07677594 0.07729068 0.07842018
 0.07958667 0.08027513 0.0804555 0.08031965 0.07991034 0.0792014 0.07836751 0.07778434 0.07775479 0.0782821
 0.07912071 0.07999423 0.0806915 0.08102428 0.08089325 0.08043568 0.07994702 0.07961202 0.07943793 0.07943981
 0.07970338 0.08021529 0.08078129 0.08118999 0.0813802 0.08141079 0.08134185 0.08119423 0.08098883 0.08079257
 0.08071864 0.08084743 0.08112656 0.0814057 0.08161303 0.08182614 0.08210523 0.08233956 0.08236252 0.08217429
 0.0819537 0.0818665 0.08193266 0.08206803 0.08217742 0.0821758 0.08198157 0.08158673 0.08115174 0.08094482
 0.08112922 0.08164851 0.08232494 0.08298647 0.08349174 0.08375616 0.08381364 0.08377919 0.083716 0.08359237
 0.08338144 0.08315663 0.08307276 0.08325344 0.08367876 0.08418596 0.08459723 0.08483525 0.08492667 0.08496037
 0.08504738 0.08523536 0.08543539 0.08550591 0.08542997 0.0853449 0.0853789 0.08550848 0.08559877 0.08556028
 0.08545083 0.08541851 0.0855476 0.08578044 0.08599921 0.08615734 0.08630694 0.08650509 0.08671197 0.08680359
 0.08670676 0.08650123 0.08634146 0.08629087 0.08629757 0.08632731 0.08643146 0.08664728 0.08689767 0.08705294
 0.08707434 0.08704887 0.08707443 0.08714275 0.0871575 0.08705178 0.08686024 0.08668166 0.08659656 0.08662069
 0.0867091 0.08678927 0.08680435 0.08674456 0.08664329 0.08654153 0.08645953 0.08641054 0.08643343 0.0865767
 0.08682367 0.08705 0.08709837 0.08691902 0.0866275 0.0864068 0.08634513 0.08636956 0.08633514 0.08616653
 0.08590835 0.0856573 0.08547133 0.08534369 0.08523829 0.08513683 0.08506455 0.0850779 0.08520596 0.08538614
 0.08547913 0.08538303 0.08513109 0.08485633 0.0846712 0.08459952 0.08459777 0.08460569 0.08459489 0.08459547
 0.08465312 0.08474439 0.08477831 0.08470505 0.08458167 0.08451279 0.08456688 0.0847497 0.08499643 0.08518123
 0.08520293 0.08508769 0.0849659 0.08493693 0.08499384 0.08507946 0.08516482 0.08525327 0.08534627 0.0854408
 0.08555276 0.08571684 0.0859518 0.08622965 0.08648473 0.08665839 0.08674644 0.08681145 0.08694309 0.08719102
 0.0875261 0.08786502 0.08813813 0.08834048 0.08851816 0.08870674 0.08889894 0.08908383 0.08929282 0.08957122
 0.08991317 0.0902613 0.09057109 0.09084667 0.09111485 0.09139112 0.09167717 0.09198001 0.09232542 0.09273778
 0.09319002 0.09359024 0.09385319 0.09398755 0.09409489 0.09428796 0.09461369 0.09502059 0.09538107 0.09558666
 0.09565914 0.09573832 0.09592772 0.09618773 0.09642175 0.09663035 0.09691618 0.09734 0.09782643 0.09823227
 0.09848352 0.09862971 0.09877414 0.09896366 0.09915298 0.09927821 0.09934808 0.09943363 0.09957628 0.0997543
 0.0999547 0.1002224 0.1005949 0.101025 0.1014152 0.1017114 0.1019251 0.1020864 0.1022127 0.1023072
 0.1023622 0.1023785 0.1023938 0.1024587 0.1025671 0.1026511 0.1026686 0.1026632 0.1027129 0.1028529
 0.1030758 0.1033679 0.1037021 0.104022 0.104289 0.1045443 0.1048696 0.1052646 0.105613 0.1058045
 0.1058547 0.1058618 0.1058801 0.1059029 0.105948 0.1060809 0.1063355 0.1066683 0.107014 0.1073517
 0.1076955 0.1080459 0.1083676 0.1086061 0.1087248 0.1087354 0.1086993 0.1086991 0.1088028 0.1090331
 0.1093537 0.1096888 0.1099736 0.1101789 0.1102879 0.1102869 0.110212 0.1101709 0.1102606 0.1104569
 0.1106193 0.110613 0.1103998 0.110015 0.1094989 0.1088782 0.1081959 0.1075298 0.1069672 0.1065649
 0.1063415 0.1063121 0.1065124 0.1069627 0.1076066 0.1083173 0.1089723 0.1094906 0.1097963 0.1098006
 0.1094659 0.1088628 0.1081323 0.1074004 0.1067369 0.106153 0.105607 0.1050511 0.1045204 0.1041725
 0.104211 0.104762 0.1058105 0.1072149 0.1087573 0.110215 0.111441 0.1124122 0.1132033 0.1139059
 0.1145718 0.1152236 0.1158853 0.1165635 0.117215 0.1177772 0.1182388 0.1186476 0.1190478 0.1194395
 0.1197953 0.1200898 0.1203208 0.1205209 0.1207286 0.1209276 0.1210438 0.12103 0.1209243 0.1208007
 0.1206828 0.1205286 0.1202793 0.1199101 0.1194619 0.1190563 0.1188731 0.1190795 0.1197396 0.1207754
 0.1220243 0.1233408 0.1246331 0.1258167 0.1267862 0.127474 0.1279125 0.1282084 0.1284626 0.128729
 0.1290231 0.1293386 0.1296571 0.1299599 0.1302416 0.1305157 0.1308088 0.1311378 0.1314832 0.1317947
 0.1320415 0.1322545 0.1325071 0.1328465 0.1332466 0.1336373 0.1339788 0.134295 0.1346202 0.1349367
 0.135193 0.1353756 0.1355318 0.1357235 0.1359858 0.13632 0.1366909 0.1370316 0.137287 0.1374628
 0.1376158 0.1377961 0.138013 0.1382529 0.138504 0.1387595 0.1390147 0.1392762 0.1395633 0.1398826
 0.1401995 0.1404532 0.1406163 0.1407299 0.1408659 0.1410597 0.1412876 0.1415061 0.1417037 0.1419136
 0.1421791 0.1425027 0.142832 0.1431002 0.1432813 0.1434032 0.1435155 0.1436548 0.1438338 0.1440457
 0.1442728 0.1444957 0.1447061 0.1449102 0.1451196 0.1453363 0.145552 0.1457594 0.1459609 0.146164
 0.1463721 0.146582 0.1467955 0.1470299 0.1473074 0.1476223 0.1479298 0.1481793 0.1483562 0.1484848
 0.1485995 0.1487263 0.1488812 0.1490676 0.1492751 0.1494869 0.1496911 0.1498834 0.1500669 0.1502495
 0.1504398 0.1506417 0.150852 0.151066 0.1512841 0.1515138 0.1517602 0.1520124 0.1522493 0.1524588
 0.1526469 0.1528286 0.1530147 0.1532066 0.1533958 0.1535717 0.1537369 0.1539089 0.1541013 0.1543082
 0.154514 0.1547121 0.1549077 0.1551071 0.1553091 0.1555063 0.1556936 0.1558722 0.15605 0.156237
 0.1564384 0.1566492 0.1568577 0.1570568 0.1572509 0.1574481 0.1576495 0.1578508 0.1580508 0.1582512
 0.158452 0.1586502 0.1588439 0.1590364 0.1592336 0.1594361 0.1596368 0.1598288 0.160014 0.1602015
 0.1603997 0.160609 0.1608225 0.161034 0.1612448 0.16146 0.1616789 0.1618937 0.1620989 0.162297
 0.1624954 0.1627015 0.1629173 0.163139 0.1633631 0.1635917 0.1638269 0.1640614 0.1642804 0.1644735
 0.1646439 0.1648058 0.164972 0.1651434 0.1653147 0.1654858 0.1656618 0.1658433 0.1660284 0.1662185
 0.1664136 0.1666087 0.1668026 0.1670019 0.1672111 0.1674271 0.1676444 0.1678581 0.1680633 0.1682597
 0.1684526 0.1686484 0.1688524 0.1690677 0.1692888 0.1695037 0.1697057 0.1698993 0.1700931 0.1702964
 0.1705155 0.170745 0.1709695 0.1711801 0.1713815 0.1715829 0.1717908 0.1720077 0.1722263 0.1724351
 0.1726348 0.1728371 0.1730479 0.1732641 0.1734825 0.1736983 0.1739053 0.1741056 0.1743067 0.1745084
 0.1747102 0.1749207 0.1751449 0.175373 0.1755949 0.17581 0.1760193 0.1762263 0.1764397 0.1766613
 0.1768818 0.177097 0.1773086 0.1775043 0.1776371 0.1775851 0.1770587 0.175502 0.1720791 0.1658376
 0.1560941 0.1428767 0.127066 0.1100731 0.09331838 0.07787473 0.06437919 0.05311888 0.04416045 0.03743106
 0.0327743 0.03004808 0.02923101 0.03053446 0.03451787 0.04175472 0.05159437 0.06107628 0.06609108 0.06462835
 0.05869488 0.05247861 0.04886618 0.04805508 0.04880998 0.0500776 0.05151882 0.05332118 0.05582281 0.05913386
 0.06310483 0.06772556 0.07333067 0.08017026 0.08788438 0.09564804 0.1028798 0.1097009 0.1166588 0.1240705
 0.1316904 0.138954 0.1454302 0.1510386 0.155959 0.1604287 0.1646054 0.1685566 0.1723154 0.1758823
 0.1791392 0.181811 0.1835985 0.1844074 0.1844584 0.1841639 0.1838825 0.1837772 0.1838616 0.1841118
 0.1845153 0.1850613 0.1857316 0.1864975 0.1873184 0.1881559 0.1889883 0.1898032 0.1905856 0.1913221
 0.1920047 0.1926246 0.1931786 0.1936781 0.1941404 0.1945738 0.1949798 0.1953613 0.1957214 0.1960641
 0.1963956 0.1967171 0.1970186 0.1972884 0.1975263 0.1977446 0.19796 0.1981842 0.1984137 0.1986347
 0.1988397 0.1990359 0.1992346 0.1994411 0.1996564 0.1998761 0.2000899 0.2002907 0.2004823 0.2006716
 0.2008588 0.201042 0.2012244 0.2014132 0.2016124 0.20182 0.2020296 0.2022338 0.2024297 0.2026202
 0.2028099 0.2030015 0.2031939 0.2033824 0.2035672 0.2037596 0.2039702 0.2041942 0.2044193 0.2046438
 0.2048737 0.2051064 0.2053334 0.2055504 0.2057529 0.2059299 0.206075 0.2062027 0.2063457 0.206533
 0.2067665 0.207017 0.2072498 0.2074545 0.207646 0.2078398 0.2080341 0.2082147 0.2083776 0.2085477
 0.2087615 0.2090211 0.2092896 0.2095406 0.2097826 0.2100265 0.2102645 0.2104922 0.2107144 0.2109183
 0.2110768 0.2111971 0.2113431 0.2115878 0.2119373 0.212314 0.2126297 0.2128696 0.2130863 0.2133292
 0.2136074 0.2138834 0.2140672 0.2140769 0.213973 0.2139749 0.2142641 0.2148008 0.2153887 0.2158757
 0.2162444 0.216547 0.2168182 0.2170413 0.2171676 0.217169 0.2171052 0.2171361 0.2174135 0.2179254
 0.2184911 0.2189423 0.2192553 0.219487 0.2196801 0.2198554 0.2199771 0.2198968 0.2195045 0.2190067
 0.2188794 0.2194077 0.220366 0.2212631 0.2218322 0.2221675 0.222449 0.2227198 0.2229379 0.2230123
 0.222695 0.2217292 0.2203545 0.2194369 0.2197504 0.2211984 0.22297 0.2243477 0.2251521 0.2255609
 0.2258024 0.2260063 0.2261053 0.2258363 0.2250361 0.2240366 0.2235879 0.224169 0.2254503 0.2266433
 0.2273046 0.2275779 0.2277798 0.2280396 0.2282099 0.2278268 0.2263753 0.2240524 0.2221498 0.2221478
 0.2242695 0.227213 0.2294358 0.2304783 0.2308574 0.2309397 0.2304024 0.2288213 0.2263133 0.2234948
 0.2212841 0.2207644 0.2224652 0.2254739 0.2279559 0.2289648 0.2292435 0.2300076 0.2314991 0.2329961
 0.2337471 0.2335489 0.2326242 0.2312159 0.2294706 0.2278116 0.2271635 0.2283012 0.2309114 0.2337037
 0.2356001 0.2365504 0.236977 0.2365218 0.2337895 0.2280252 0.2212208 0.217572 0.2197809 0.2262321
 0.2327241 0.2366 0.2382158 0.2389758 0.2394413 0.2391686 0.2369787 0.2316088 0.2237082 0.2170862
 0.2161341 0.2214787 0.229271 0.2347801 0.2356094 0.231938 0.225678 0.2199132 0.2176386 0.2199422
 0.2255317 0.2320111 0.2373166 0.2402825 0.2406313 0.238869 0.2362603 0.2345208 0.2345656 0.2351578
 0.2338572 0.2301009 0.2261359 0.2237242 0.221426 0.2172678 0.213069 0.2132439 0.2190602 0.2265122
 0.2308192 0.2312738 0.2303838 0.2293119 0.2258943 0.2177572 0.2068047 0.1993203 0.2004762 0.2089634
 0.2181567 0.2226019 0.2223536 0.2210444 0.2210389 0.2210192 0.2178402 0.2106335 0.2029183 0.1996545
 0.2019737 0.2061712 0.2081001 0.2064758 0.2014479 0.1932958 0.18481 0.182137 0.189604 0.2044376
 0.2189314 0.2267817 0.2253999 0.2145567 0.1972879 0.1817443 0.1772302 0.1858771 0.2000529 0.2093716
 0.2089396 0.2002575 0.1867886 0.1715726 0.158622 0.1533991 0.1595673 0.1752629 0.1930693 0.2036882
 0.2010965 0.1872599 0.1725855 0.168443 0.1767915 0.188786 0.1946591 0.1925831 0.1873232 0.1841325
 0.1857135 0.191682 0.1989705 0.2047264 0.2085913 0.2094684 0.20245 0.1847147 0.1633558 0.1507056
 0.1515312 0.1606083 0.1725723 0.1867329 0.2006161 0.206667 0.2007575 0.1899853 0.18662 0.1950796
 0.2081538 0.2158205 0.2151636 0.2109094 0.2081455 0.2069162 0.2047242 0.2023582 0.2041199 0.2118745
 0.2217833 0.2285883 0.2310843 0.2316415 0.2321828 0.2327216 0.2327251 0.2320016 0.230624 0.229061
 0.2280337 0.2277107 0.2275494 0.2271106 0.2260477 0.222881 0.215315 0.2034629 0.1918986 0.1860332
 0.1863799 0.1889314 0.1911211 0.1933226 0.1932896 0.1845824 0.1650713 0.1439259 0.1349424 0.1432104
 0.1613217 0.1778226 0.1859887 0.1844013 0.1735356 0.1559829 0.1391812 0.1330636 0.1419485 0.1604037
 0.1790614 0.1926837 0.2007182 0.2028124 0.1978608 0.1872141 0.1759288 0.1698559 0.1720883 0.1816256
 0.1937024 0.2009888 0.1971818 0.1832947 0.1704104 0.171482 0.1877337 0.2065999 0.2158473 0.2159475
 0.2150615 0.2163515 0.2164452 0.2143816 0.2151597 0.2229043 0.2348076 0.2439017 0.2451793 0.2375609
 0.2232272 0.2081131 0.200369 0.2037932 0.2134436 0.2209517 0.2225883 0.2187854 0.209215 0.1948372
 0.1830933 0.1834367 0.1963875 0.2123028 0.2223307 0.2264755 0.2295756 0.2329739 0.2328796 0.2261017
 0.2153713 0.207661 0.2072954 0.2121757 0.21735 0.2202346 0.2206631 0.2179428 0.2112785 0.2031149
 0.1991733 0.2034886 0.2142063 0.2252746 0.2318271 0.2332303 0.2316858 0.2293648 0.2269354 0.2237378
 0.2192482 0.2149617 0.2140867 0.2181214 0.2244766 0.2291453 0.2312895 0.2335027 0.2377337 0.2426017
 0.2450746 0.243771 0.2402682 0.2377276 0.2383596 0.2416714 0.2448344 0.2450972 0.2424026 0.2396889
 0.2401876 0.2443403 0.2497275 0.2538185 0.2560357 0.2572429 0.2582641 0.2591593 0.2591774 0.2573254
 0.2537733 0.2506739 0.250634 0.2541249 0.2590359 0.262862 0.2647306 0.2652482 0.2651145 0.2643972
 0.2629454 0.2610505 0.2594596 0.2587873 0.2590748 0.2599358 0.2609531 0.2618623 0.2625409 0.2629915
 0.2632965 0.263515 0.2636565 0.263747 0.2638257 0.2638592 0.263772 0.2636087 0.2635623 0.2637646
 0.2641141 0.2643848 0.2644372 0.2642311 0.2636985 0.2627575 0.2614594 0.2599863 0.2584462 0.2567908
 0.2550548 0.2536356 0.2531796 0.2540858 0.2561277 0.2585945 0.2607872 0.2623716 0.2633536 0.2638775
 0.2641001 0.2641606 0.2641556 0.2641112 0.2640009 0.2637982 0.2635077 0.2631538 0.26276 0.2623516
 0.2619687 0.2616495 0.2613918 0.2611425 0.2608348 0.260432 0.2599384 0.2593865 0.2588137 0.2582307
 0.2576036 0.2568747 0.2560118 0.2550431 0.2540529 0.2531338 0.2523237 0.2515827 0.2508391 0.2500466
 0.2491788 0.248195 0.2470708 0.2458743 0.2447612 0.2438561 0.243152 0.242538 0.2418962 0.2411545
 0.2402892 0.2393205 0.2382962 0.2372482 0.2361688 0.2350356 0.2338413 0.2325834 0.2312481 0.2298216
 0.2283064 0.2267196 0.2250888 0.2234427 0.2217787 0.2200297 0.2180709 0.2157597 0.2129725 0.2096273
 0.2057022 0.2012536 0.1964261 0.1914339 0.1865041 0.181815 0.1774837 0.1735995 0.1702481 0.1675031
 0.1654135 0.1640074 0.1633011 0.1633004 0.1639933 0.1653444 0.1672895 0.1697312 0.1725322 0.1755207
 0.1785152 0.1813609 0.1839684 0.186342 0.1885575 0.1906785 0.1926899 0.1945283 0.1961571 0.1975814
 0.1988086 0.1998369 0.2006805 0.2013766 0.2019629 0.2024642 0.2028961 0.2032712 0.2035976 0.2038769
 0.2041073 0.2042923 0.2044488 0.204604 0.2047851 0.2050094 0.2052791 0.2055883 0.2059394 0.2063466
 0.2068171 0.2073391 0.2078979 0.2084894 0.2091157 0.2097808 0.2105037 0.2113237 0.2122834 0.2134037
 0.2146695 0.2160327 0.2174248 0.2187665 0.2199761 0.2209808 0.221736 0.2222354 0.2225054 0.2225876
 0.2225194 0.2223234 0.2220158 0.2216217 0.2211697 0.2206702 0.2201123 0.2194887 0.218816 0.2181236
 0.2174317 0.2167466 0.2160679 0.2153904 0.2147048 0.2140117 0.2133324 0.2126939 0.2120999 0.2115259
 0.2109457 0.2103545 0.209766 0.2091952 0.2086447 0.2080924 0.207489 0.2067771 0.2059291 0.204963
 0.2039146 0.2027988 0.2016072 0.2003337 0.1989849 0.1975675 0.1960795 0.1945156 0.1928733 0.1911501
 0.1893376 0.187424 0.1854183 0.1833739 0.1813769 0.1794999 0.1777698 0.1761744 0.174687 0.1732865
 0.171966 0.1707199 0.1695272 0.1683615 0.1672185 0.1661167 0.1650745 0.1641017 0.1632105 0.1624137
 0.1617127 0.1610962 0.1605543 0.160087 0.1596949 0.1593645 0.1590834 0.1588711 0.1587701 0.1587868
 0.1588609 0.1589099 0.1588855 0.1587873 0.158648 0.1585107 0.1584045 0.1583357 0.1582964 0.1582564
 0.1581428 0.1578506 0.1572858 0.1563986 0.1551917 0.1537074 0.1520063 0.1501674 0.1483109 0.1465837
 0.1451007 0.1439093 0.1430031 0.1423364 0.1418355 0.1414403 0.1411386 0.1409609 0.1409521 0.1411217
 0.1413809 0.1415713 0.1416144 0.1416103 0.1417479 0.1421476 0.1427972 0.14358 0.1443491 0.1450102
 0.145537 0.1459184 0.1461461 0.1462526 0.1462923 0.1462764 0.1461772 0.1459844 0.1457181 0.1454072
 0.1450676 0.1446809 0.1442054 0.1436281 0.142968 0.1422268 0.1413937 0.1404789 0.1394777 0.1383527
 0.1371409 0.1360344 0.1352902 0.1350864 0.1354496 0.1362464 0.137265 0.138357 0.1394244 0.140258
 0.1406016 0.1405392 0.1406749 0.1417009 0.1437471 0.1462385 0.1484036 0.1498346 0.1505407 0.1506421
 0.1502053 0.1492727 0.1478431 0.1458659 0.1433764 0.1405397 0.1375051 0.1343802 0.1313525 0.1286403
 0.1263473 0.1244889 0.1230622 0.1221037 0.1217356 0.1215768 0.1197162 0.1137095 0.1043544 0.09736589
 0.09855846 0.1073038 0.116978 0.1219544 0.122079 0.1203594 0.1188754 0.1179303 0.1173981 0.1174215
 0.1181424 0.1194133 0.1208226 0.1219534 0.1226504 0.1229807 0.1229267 0.122131 0.1198374 0.1151614
 0.1077969 0.09862629 0.08942014 0.08179466 0.07646973 0.07330112 0.07166596 0.07082678 0.07027428 0.06995678
 0.07017872 0.0712395 0.07318415 0.07586554 0.07909568 0.08260871 0.08597496 0.08877815 0.09092087 0.09261091
 0.09401973 0.09508301 0.09565417 0.09571695 0.09538918 0.09480575 0.09406436 0.09322904 0.09229988 0.09120515
 0.08993559 0.08869711 0.08780451 0.08738358 0.08728267 0.08728899 0.08730529 0.08730824 0.08727454 0.087192
 0.08708055 0.0870047 0.08707961 0.08739402 0.08789295 0.08839466 0.08874366 0.08891996 0.08900508 0.08903368
 0.0888676 0.08831939 0.08747637 0.08672126 0.08624522 0.08571896 0.08472002 0.0833776 0.08231019 0.08195349
 0.08217324 0.08252298 0.08266831 0.08253787 0.0822811 0.08219544 0.0825301 0.08318707 0.08370486 0.08369548
</values></Ydata></ScRf><Data_Parameters_AB><parameter name="DPF">1</parameter><parameter name="NPT">3497</parameter><parameter name="FXV">3996</parameter><parameter name="LXV">500</parameter><parameter name="CSF">1</parameter><parameter name="MXY">0.145564183592796</parameter><parameter name="MNY">-0.0294614601880312</parameter><parameter name="DAT">02/06/2022</parameter><parameter name="TIM">13:43:24.413 (GMT+2)</parameter><parameter name="DXU">WN</parameter></Data_Parameters_AB><AB__Qtest><MainReport name="Quality Test Report"><Header><Line><Legend>Test result ok/not ok [1/0]: </Legend><Value>0</Value></Line><Line><Legend>Method file: </Legend><Value>C:\Users\Public\Documents\Bruker\OPUS_8.2.28\QT\IRBT_v3_default.QT</Value></Line></Header><Matrix><Line><Legend></Legend><Legend>min</Legend><Legend>max</Legend><Legend>measured</Legend></Line><Line><Value>Absorption (X-Range 1):</Value><Value>0.400000</Value><Value>2.000000</Value><Value>0.109779</Value></Line><Line><Value>Noise (X-Range 4):</Value><Value></Value><Value>0.000300</Value><Value>0.000064</Value></Line><Line><Value>Signal/Noise (X-Range 2):</Value><Value>200.000000</Value><Value></Value><Value>43.527962</Value></Line><Line><Value>Signal/Noise (X-Range 3):</Value><Value>40.000000</Value><Value></Value><Value>33.463862</Value></Line><Line><Value>Water vapour (X-Range 5):</Value><Value></Value><Value>0.000300</Value><Value>0.000077</Value></Line><Line><Value>Signal/Water (X-Range 2):</Value><Value>100.000000</Value><Value></Value><Value>36.215833</Value></Line><Line><Value>Signal/Water (X-Range 3):</Value><Value>20.000000</Value><Value></Value><Value>27.842370</Value></Line><Line><Value>Fringes (X-Range 6):</Value><Value></Value><Value>0.000100</Value><Value>0.000065</Value></Line></Matrix></MainReport></AB__Qtest><Data_Parameters_ScSm><parameter name="DPF">1</parameter><parameter name="NPT">1814</parameter><parameter name="FXV">3996.33169228125</parameter><parameter name="LXV">499.541461535156</parameter><parameter name="CSF">1</parameter><parameter name="MXY">0.240158319473267</parameter><parameter name="MNY">0.0300052389502525</parameter><parameter name="DAT">02/06/2022</parameter><parameter name="TIM">13:43:24.413 (GMT+2)</parameter><parameter name="DXU">WN</parameter></Data_Parameters_ScSm><Data_Parameters_ScRf><parameter name="DPF">1</parameter><parameter name="NPT">1820</parameter><parameter name="FXV">4004.04661832813</parameter><parameter name="LXV">495.683998511719</parameter><parameter name="CSF">1</parameter><parameter name="MXY">0.265248239040375</parameter><parameter name="MNY">0.0292310118675232</parameter><parameter name="DAT">02/06/2022</parameter><parameter name="TIM">13:42:58.559 (GMT+2)</parameter><parameter name="DXU">WN</parameter></Data_Parameters_ScRf><Optic_Parameters_Rf><parameter name="APR">0</parameter><parameter name="APT">Open</parameter><parameter name="BMS">KBr</parameter><parameter name="DTC">RT-DLaTGS_IR-Biotyper [Microplate reader]</parameter><parameter name="HPF">0</parameter><parameter name="LPF">10.0</parameter><parameter name="LPV">4000</parameter><parameter name="PGR">0</parameter><parameter name="RCH">Module port</parameter><parameter name="RDX">0</parameter><parameter name="SRC">MIR</parameter><parameter name="VEL">10.0</parameter><parameter name="SON">Off</parameter></Optic_Parameters_Rf><Acquisition_Parameters_Rf><parameter name="ADT">1</parameter><parameter name="AQM">DD</parameter><parameter name="CFE">0</parameter><parameter name="COR">0</parameter><parameter name="DEL">0</parameter><parameter name="DLY">0</parameter><parameter name="HFW">8000</parameter><parameter name="LFW">0</parameter><parameter name="NSR">32</parameter><parameter name="PLF">AB</parameter><parameter name="RES">6</parameter><parameter name="RGN">-1</parameter><parameter name="STR">0</parameter><parameter name="TCL">MakeCompatibleScalar (0, {WSV=1.000000, ARV=0});</parameter><parameter name="TDL">37</parameter><parameter name="RPO">0</parameter></Acquisition_Parameters_Rf><FT_-_Parameters_Rf><parameter name="APF">B3</parameter><parameter name="HFQ">500</parameter><parameter name="LFQ">4000</parameter><parameter name="NLI">0</parameter><parameter name="PHR">24</parameter><parameter name="PHZ">ML</parameter><parameter name="SPZ">NO</parameter><parameter name="ZFF">1</parameter></FT_-_Parameters_Rf><Optic_Parameters_><parameter name="APR">0</parameter><parameter name="APT">Open</parameter><parameter name="BMS">KBr</parameter><parameter name="CHN">Module port</parameter><parameter name="DTC">RT-DLaTGS_IR-Biotyper [Microplate reader]</parameter><parameter name="HPF">0</parameter><parameter name="LPF">10.0</parameter><parameter name="LPV">4000</parameter><parameter name="PGN">0</parameter><parameter name="RDX">0</parameter><parameter name="SRC">MIR</parameter><parameter name="VEL">10.0</parameter><parameter name="SON">Off</parameter></Optic_Parameters_><FT_-_Parameters_><parameter name="APF">B3</parameter><parameter name="HFQ">500</parameter><parameter name="LFQ">4000</parameter><parameter name="NLI">0</parameter><parameter name="PHR">24</parameter><parameter name="PHZ">ML</parameter><parameter name="SPZ">NO</parameter><parameter name="ZFF">1</parameter></FT_-_Parameters_><Acquisition_Parameters_><parameter name="ADT">1</parameter><parameter name="AQM">DD</parameter><parameter name="CFE">0</parameter><parameter name="COR">0</parameter><parameter name="DEL">0</parameter><parameter name="DLY">0</parameter><parameter name="HFW">8000</parameter><parameter name="LFW">0</parameter><parameter name="NSS">32</parameter><parameter name="PLF">AB</parameter><parameter name="RES">6</parameter><parameter name="SOT">0</parameter><parameter name="TCL">MakeCompatibleScalar (0, {WSV=1.000000, ARV=0});</parameter><parameter name="TDL">37</parameter><parameter name="SPO">0</parameter><parameter name="SGN">-1</parameter></Acquisition_Parameters_><Instrument_Parameters_Rf><parameter name="HFL">15800.168544</parameter><parameter name="LFL">0</parameter><parameter name="LWN">15800.168544</parameter><parameter name="ABP">32197</parameter><parameter name="SSP">1</parameter><parameter name="ARG">2</parameter><parameter name="ASG">2</parameter><parameter name="ASS">32</parameter><parameter name="GFW">16</parameter><parameter name="GBW">16</parameter><parameter name="BFW">0</parameter><parameter name="BBW">0</parameter><parameter name="PKA">7269</parameter><parameter name="PKL">4996</parameter><parameter name="PRA">7456</parameter><parameter name="PRL">5001</parameter><parameter name="P2A">1</parameter><parameter name="P2L">1</parameter><parameter name="P2R">1</parameter><parameter name="P2K">1</parameter><parameter name="DAQ">0</parameter><parameter name="AG2">1</parameter><parameter name="SSM">1</parameter><parameter name="RSN">26245</parameter><parameter name="CRR">0</parameter><parameter name="SRT">1654177378.559</parameter><parameter name="DUR">19.6389923095703</parameter><parameter name="TSC">29.2</parameter><parameter name="MVD">0.2148517370224</parameter><parameter name="AN1">0.225827157243076</parameter><parameter name="AN2">0</parameter><parameter name="VSN">2.485 Apr  4 2017</parameter><parameter name="SRN">0085</parameter><parameter name="CAM">0</parameter><parameter name="INS">IR-Biotyper</parameter><parameter name="FOC">69</parameter><parameter name="RDY">1</parameter><parameter name="ARS">32</parameter></Instrument_Parameters_Rf><Sample_Parameters_><parameter name="BLD"></parameter><parameter name="CNM">Admin</parameter><parameter name="CPY"></parameter><parameter name="DPM"></parameter><parameter name="EXP">IRBT_v3_32Scans.XPM</parameter><parameter name="LCT"></parameter><parameter name="SFM">Microplate, HTS-XT</parameter><parameter name="SNM">220602-1248_CLA33F (D_22)_D7_47432a51-062a-40c1-8efc-5d0318127c18.0</parameter><parameter name="XPP">C:\Users\Public\Documents\Bruker\OPUS_8.2.28\XPM</parameter><parameter name="IST">OK</parameter><parameter name="CPG">1252</parameter><parameter name="UID">22376b90-2998-41a8-9a59-12f979b24d04</parameter></Sample_Parameters_><Instrument_Parameters_><parameter name="HFL">15800.168544</parameter><parameter name="LFL">0</parameter><parameter name="LWN">15800.168544</parameter><parameter name="ABP">32197</parameter><parameter name="SSP">1</parameter><parameter name="ASG">2</parameter><parameter name="ARG">2</parameter><parameter name="ASS">32</parameter><parameter name="GFW">16</parameter><parameter name="GBW">16</parameter><parameter name="BFW">0</parameter><parameter name="BBW">0</parameter><parameter name="PKA">6696</parameter><parameter name="PKL">4988</parameter><parameter name="PRA">6997</parameter><parameter name="PRL">4993</parameter><parameter name="P2A">1</parameter><parameter name="P2L">1</parameter><parameter name="P2R">1</parameter><parameter name="P2K">1</parameter><parameter name="DAQ">0</parameter><parameter name="AG2">1</parameter><parameter name="SSM">1</parameter><parameter name="RSN">13748</parameter><parameter name="CRR">0</parameter><parameter name="SRT">1654177404.413</parameter><parameter name="DUR">19.6379852294922</parameter><parameter name="TSC">29.2</parameter><parameter name="MVD">0.195846945047379</parameter><parameter name="AN1">0.225823791517591</parameter><parameter name="AN2">0</parameter><parameter name="VSN">2.485 Apr  4 2017</parameter><parameter name="SRN">0085</parameter><parameter name="CAM">0</parameter><parameter name="INS">IR-Biotyper</parameter><parameter name="FOC">69</parameter><parameter name="RDY">1</parameter></Instrument_Parameters_><History/></OPUSDataFile>
