<?xml version="1.0" encoding="UTF-8" ?>
<OPUSDataFile><AB><Ydata ylabel="Absorbance Units"><values byteorder="INTEL" format="FLOAT32" numvalues="3497"> -0.08141541 -0.08141267 -0.08139615 -0.08136538 -0.08132746 -0.08128273 -0.08123102 -0.08117244 -0.08110747 -0.08103796
 -0.08097528 -0.08092091 -0.0808876 -0.08087213 -0.0808742 -0.08088824 -0.08090442 -0.08092134 -0.08093304 -0.08094177
 -0.0809477 -0.08095197 -0.08095545 -0.08095785 -0.08095879 -0.08095989 -0.08096102 -0.08096608 -0.08097565 -0.08099285
 -0.08101838 -0.08104915 -0.08108501 -0.08111487 -0.08113844 -0.08114818 -0.08114613 -0.08114087 -0.08113409 -0.08113877
 -0.08114972 -0.08116242 -0.08116861 -0.08114991 -0.0811097 -0.08104053 -0.08096031 -0.08088012 -0.08081438 -0.08077659
 -0.080763 -0.08077759 -0.08080431 -0.08084054 -0.08087122 -0.08089275 -0.08090241 -0.0808987 -0.08089412 -0.08088926
 -0.08089902 -0.080923 -0.08095993 -0.08100756 -0.08105079 -0.08108984 -0.08111707 -0.081135 -0.08114718 -0.0811524
 -0.08115031 -0.0811394 -0.0811153 -0.08108509 -0.08105192 -0.08102473 -0.08101211 -0.08100782 -0.08101351 -0.08101337
 -0.08100148 -0.08098012 -0.08094635 -0.08092368 -0.08091402 -0.08093663 -0.08099274 -0.0810784 -0.08119164 -0.08130544
 -0.08141579 -0.08148372 -0.08150849 -0.08146211 -0.08135629 -0.08120167 -0.08101787 -0.08084309 -0.08068745 -0.08058015
 -0.08051565 -0.08050314 -0.08052108 -0.08056359 -0.08060152 -0.08062063 -0.08061194 -0.08056525 -0.08050875 -0.08044347
 -0.08040888 -0.08041058 -0.08045352 -0.0805385 -0.08062749 -0.08071878 -0.08077864 -0.08081074 -0.08082099 -0.0808144
 -0.08081456 -0.08081922 -0.08083602 -0.0808575 -0.08087311 -0.08088139 -0.08087481 -0.08085907 -0.0808377 -0.08081073
 -0.08077989 -0.08074144 -0.08069136 -0.08064044 -0.0805876 -0.08055855 -0.08055715 -0.08060414 -0.08070431 -0.08084288
 -0.08101986 -0.08114471 -0.08121333 -0.08113821 -0.08093572 -0.08066852 -0.08035398 -0.08009459 -0.07988526 -0.07976557
 -0.07972166 -0.07975176 -0.07983328 -0.07994297 -0.08005258 -0.08012921 -0.0801644 -0.08013683 -0.08007595 -0.07998595
 -0.07990088 -0.07983382 -0.07978579 -0.0797603 -0.07974292 -0.07973202 -0.07972459 -0.07972034 -0.07972265 -0.07973114
 -0.07974059 -0.07974979 -0.07974774 -0.07973468 -0.07970578 -0.07966182 -0.07960228 -0.07952803 -0.07943813 -0.07933934
 -0.0792379 -0.0791434 -0.07906701 -0.07901026 -0.07897843 -0.07896553 -0.07897053 -0.07898805 -0.07901677 -0.07905213
 -0.07909438 -0.07913152 -0.07916321 -0.07916879 -0.07914694 -0.07908614 -0.07898724 -0.07886242 -0.07871431 -0.07856662
 -0.07841986 -0.07828853 -0.07817157 -0.07807305 -0.07799302 -0.07793422 -0.07789458 -0.07787587 -0.07786645 -0.07785955
 -0.07783886 -0.07779042 -0.07771498 -0.07760463 -0.07748532 -0.07736086 -0.07725902 -0.07718693 -0.07714843 -0.07714587
 -0.07716455 -0.07720381 -0.07724556 -0.07728869 -0.07731346 -0.07731964 -0.07729367 -0.07724036 -0.07716975 -0.07708973
 -0.07702736 -0.07698298 -0.07697278 -0.07698543 -0.07701486 -0.07704728 -0.07706573 -0.07707275 -0.07706062 -0.07705104
 -0.07705133 -0.07707529 -0.07713245 -0.07720551 -0.07729538 -0.07736905 -0.07742292 -0.07743707 -0.07741012 -0.0773229
 -0.07717515 -0.07695707 -0.07667545 -0.07637194 -0.07605466 -0.07578132 -0.07554772 -0.07537386 -0.07524832 -0.07515965
 -0.07509983 -0.07505348 -0.0750191 -0.07499072 -0.07496757 -0.07494868 -0.07493012 -0.07491139 -0.07488434 -0.0748483
 -0.07478885 -0.07470334 -0.07458153 -0.07442063 -0.07423059 -0.07401153 -0.07378938 -0.07356559 -0.07336651 -0.07319248
 -0.07306071 -0.07296689 -0.07290629 -0.07286745 -0.07281629 -0.07274908 -0.07263838 -0.07249901 -0.07234111 -0.07216989
 -0.07199831 -0.07181136 -0.07160252 -0.07136435 -0.07108627 -0.07079134 -0.0704814 -0.07018817 -0.06992 -0.06968111
 -0.0694757 -0.06927087 -0.06906531 -0.0688046 -0.0684877 -0.06809246 -0.06762858 -0.06715748 -0.06668624 -0.06628271
 -0.06593274 -0.06563275 -0.0653685 -0.06511118 -0.06485631 -0.06458962 -0.06430192 -0.06398272 -0.06361907 -0.06319582
 -0.06272268 -0.06219783 -0.06164093 -0.0610614 -0.06044851 -0.05980161 -0.05911072 -0.05837186 -0.05761164 -0.05683132
 -0.05606063 -0.05530029 -0.05456032 -0.05384045 -0.05314436 -0.05247074 -0.05181803 -0.05118143 -0.05054663 -0.04991176
 -0.04926669 -0.04861168 -0.04794935 -0.04726113 -0.04653552 -0.04574567 -0.0448586 -0.04390852 -0.04289199 -0.04188204
 -0.04090613 -0.03997214 -0.03908983 -0.03822728 -0.03738119 -0.03653566 -0.03568904 -0.03484608 -0.03400745 -0.03318803
 -0.03238779 -0.03161823 -0.03087019 -0.03011708 -0.02933783 -0.02845269 -0.02746937 -0.02634648 -0.02514897 -0.0239493
 -0.02278151 -0.02171526 -0.02071691 -0.01978917 -0.01888609 -0.01798696 -0.01706991 -0.0161212 -0.01514963 -0.01415366
 -0.01315091 -0.01214476 -0.01113086 -0.01010966 -0.00905512 -0.007966953 -0.0068415 -0.005684087 -0.004536113 -0.003399565
 -0.002308595 -0.001253198 -0.0002228632 0.0007909554 0.001811065 0.00283659 0.003875455 0.004925428 0.005988284 0.007058213
 0.008134426 0.009204031 0.01025785 0.01130233 0.01233185 0.01338352 0.0144652 0.01559283 0.01677388 0.01796381
 0.01916028 0.02031831 0.02143765 0.02252752 0.02359142 0.02466135 0.02573792 0.0268417 0.02796844 0.02911898
 0.03028412 0.0314458 0.03260029 0.03372974 0.03485015 0.03596656 0.03710354 0.03828325 0.03950193 0.04077
 0.04205159 0.04333771 0.04460549 0.04584754 0.04706232 0.04824868 0.04940841 0.0505413 0.05165642 0.05275453
 0.05385226 0.05494996 0.05605735 0.05717453 0.05830614 0.05945425 0.06062818 0.06182719 0.06305656 0.06430864
 0.06557648 0.06685078 0.06812035 0.06938018 0.07062328 0.07185013 0.07305844 0.07425351 0.0754372 0.0766098
 0.07777307 0.0789163 0.08003759 0.08113637 0.08221164 0.08328848 0.08436801 0.08547195 0.08659813 0.0877374
 0.08888716 0.09002946 0.09116665 0.09229701 0.09342174 0.09454337 0.09565975 0.09676849 0.0978694 0.09896159
 0.1000447 0.1011183 0.1021825 0.1032354 0.1042861 0.1053371 0.1063954 0.1074657 0.1085338 0.1095991
 0.1106449 0.1116692 0.1126775 0.11367 0.1146531 0.1156257 0.1165769 0.1175085 0.1184195 0.1193173
 0.1202248 0.1211427 0.1220866 0.1230458 0.1240116 0.1249767 0.1259285 0.1268703 0.1277995 0.1287232
 0.1296443 0.1305667 0.1314938 0.1324198 0.1333455 0.1342557 0.1351483 0.1360168 0.1368601 0.1376859
 0.1384943 0.1392861 0.1400612 0.1408149 0.1415512 0.1422863 0.1430254 0.1437966 0.1445927 0.1454161
 0.1462509 0.1470738 0.1478807 0.1486563 0.1494107 0.1501462 0.1508705 0.1515893 0.1522996 0.1530024
 0.1536893 0.1543584 0.1550048 0.1556265 0.1562331 0.1568248 0.1574196 0.1580181 0.1586252 0.1592396
 0.1598522 0.1604623 0.1610635 0.1616537 0.1622248 0.1627724 0.1632809 0.163757 0.1641985 0.164626
 0.1650604 0.1655106 0.165995 0.1664936 0.1670041 0.1675014 0.1679751 0.1684209 0.168834 0.1692288
 0.1696053 0.1699863 0.1703736 0.1707838 0.1712172 0.1716618 0.1721139 0.172536 0.1729273 0.1732619
 0.1735465 0.1737863 0.1739908 0.1741807 0.1743644 0.1745628 0.1747805 0.1750328 0.1753111 0.1756181
 0.1759308 0.1762399 0.1765271 0.176783 0.1770075 0.1771975 0.1773644 0.1775088 0.1776436 0.17777
 0.177893 0.1780127 0.1781183 0.1782087 0.1782681 0.1782985 0.1783011 0.1782815 0.1782586 0.1782356
 0.1782299 0.1782387 0.1782666 0.1783064 0.178353 0.1783991 0.1784367 0.1784687 0.1784918 0.1785221
 0.178565 0.1786277 0.1787172 0.1788073 0.1788981 0.1789434 0.178939 0.1788601 0.1787063 0.1784995
 0.1782443 0.1779931 0.1777475 0.1775453 0.1773793 0.1772469 0.1771409 0.1770419 0.176953 0.1768719
 0.1767988 0.1767399 0.1766743 0.1765911 0.1764683 0.176286 0.1760601 0.1757853 0.1755078 0.1752377
 0.1750014 0.174807 0.1746375 0.174493 0.1743356 0.1741633 0.1739482 0.1736912 0.1733907 0.1730526
 0.172704 0.1723535 0.1720429 0.1717758 0.1715838 0.1714556 0.1713947 0.1713711 0.1713591 0.1713249
 0.1712322 0.1710777 0.1708417 0.1705653 0.1702541 0.169958 0.1696906 0.1694713 0.169305 0.169196
 0.1691439 0.1691685 0.1692708 0.1694649 0.1697462 0.1700748 0.1704368 0.1707393 0.1709732 0.1710537
 0.1709965 0.1707834 0.1704594 0.1700775 0.1696879 0.169367 0.1691271 0.1690137 0.1689773 0.1690155
 0.169046 0.169041 0.1689461 0.1687378 0.1684285 0.1680117 0.1675522 0.1670543 0.1665818 0.166138
 0.1657452 0.165402 0.1650993 0.1648364 0.1646058 0.1644088 0.1642484 0.1641216 0.1640275 0.1639513
 0.1638761 0.1637748 0.1636157 0.1633715 0.1630087 0.1625286 0.161913 0.1612089 0.1604209 0.1596187
 0.1588171 0.1580698 0.1573874 0.1567928 0.1562903 0.1558676 0.1555237 0.1552016 0.1548968 0.1545363
 0.1541253 0.1536469 0.1531203 0.1526023 0.1520992 0.1516631 0.1512654 0.1508882 0.1504969 0.1500394
 0.149523 0.1489253 0.1482995 0.1476622 0.1470691 0.1465461 0.1461104 0.1457777 0.1455086 0.1453056
 0.1450831 0.1448347 0.1444833 0.1440253 0.1434576 0.1427872 0.1420899 0.141374 0.1407262 0.1401418
 0.1396546 0.1392479 0.1389023 0.1386017 0.1383127 0.1380282 0.137728 0.1374121 0.1370753 0.1367167
 0.1363361 0.1359272 0.1354878 0.1350143 0.134504 0.1339647 0.1333967 0.1328108 0.1322087 0.131585
 0.1309396 0.1302533 0.1295262 0.1287509 0.127932 0.1270903 0.1262316 0.1253878 0.124559 0.1237622
 0.1229907 0.122242 0.1215092 0.1207833 0.1200611 0.1193364 0.1186122 0.1178865 0.1171702 0.1164662
 0.1157839 0.1151285 0.1144905 0.1138713 0.1132447 0.1126083 0.1119466 0.1112587 0.110557 0.1098432
 0.1091417 0.1084525 0.1077883 0.1071454 0.1065183 0.105903 0.1052868 0.1046698 0.1040455 0.1034181
 0.1027896 0.1021634 0.1015413 0.1009306 0.1003306 0.09976622 0.09924444 0.09879123 0.09842195 0.0981063
 0.09785133 0.09755062 0.09719634 0.09668766 0.09601925 0.09519872 0.09423581 0.09324982 0.09225348 0.09138483
 0.09063774 0.09007458 0.08965908 0.08934792 0.08908837 0.088774 0.08838262 0.08783223 0.08717325 0.08640514
 0.08561737 0.08486377 0.08417456 0.08358692 0.08303949 0.08252469 0.08198786 0.08140962 0.08083854 0.08027343
 0.07982006 0.079484 0.07929692 0.07925034 0.07924782 0.07927354 0.07918268 0.07897716 0.0785778 0.07801616
 0.07731983 0.07653239 0.07573913 0.07495829 0.07425173 0.07359461 0.07299028 0.07240459 0.07181328 0.07122155
 0.07062092 0.07004412 0.06950166 0.06899333 0.06852479 0.06805608 0.06758264 0.06709347 0.06658775 0.06611579
 0.06568007 0.06532986 0.06505807 0.06484993 0.06469245 0.06452969 0.06435942 0.06414596 0.06389955 0.06362199
 0.06332019 0.06300715 0.06267281 0.06231831 0.06191856 0.06146045 0.06092708 0.06030203 0.05961017 0.05884533
 0.05808192 0.05732791 0.05666078 0.05609167 0.05563071 0.05527913 0.05496098 0.05467057 0.0543103 0.05388372
 0.05335727 0.0527497 0.05210908 0.05145292 0.05085075 0.05029985 0.04983119 0.04942396 0.04906834 0.04874053
 0.04841901 0.04808762 0.04772966 0.04734667 0.04693032 0.04650899 0.04608591 0.04569618 0.04534977 0.0450395
 0.04476905 0.04447948 0.04416759 0.04378774 0.04334264 0.04286053 0.0423495 0.04187784 0.04144107 0.04106389
 0.0407265 0.04039093 0.04004856 0.03966008 0.03924669 0.03881397 0.03839272 0.03801262 0.03768206 0.03741704
 0.03720457 0.03704235 0.03692318 0.03684311 0.0368084 0.03682067 0.03687708 0.03697979 0.03709555 0.03722274
 0.03730352 0.03733519 0.03726632 0.03709986 0.03682448 0.0364522 0.03601875 0.03553896 0.03506716 0.03461005
 0.03420484 0.03384719 0.03354735 0.03329609 0.03308942 0.0329196 0.03278179 0.03266959 0.03258018 0.03250711
 0.03244834 0.03239936 0.03235806 0.0323297 0.03231313 0.03233201 0.03238752 0.03251684 0.03272106 0.03302489
 0.03342358 0.03390224 0.0344501 0.03501919 0.03560223 0.03615493 0.03668141 0.03716719 0.03762295 0.03805603
 0.03847385 0.03888499 0.03929304 0.0397014 0.04011483 0.04053711 0.04096583 0.04140579 0.04182859 0.04223429
 0.04257058 0.04283246 0.04297767 0.04300301 0.04291343 0.04271216 0.04245036 0.04213284 0.04181704 0.04150196
 0.041214 0.04095004 0.04071168 0.04050623 0.04034327 0.04023951 0.04022053 0.04029166 0.04047063 0.04074128
 0.04110051 0.04153021 0.04202164 0.04256865 0.04317036 0.0438126 0.0444967 0.0451838 0.04587103 0.04651755
 0.04712068 0.04765754 0.04812631 0.04849872 0.04876897 0.0488832 0.04883839 0.048588 0.04814649 0.04752088
 0.04674037 0.04585823 0.0448962 0.04390535 0.04288398 0.04185148 0.04078761 0.03968763 0.03852927 0.03730101
 0.03599633 0.03460689 0.0331549 0.03163817 0.03010901 0.02857072 0.02708588 0.02565863 0.02432862 0.02309578
 0.02196031 0.02091893 0.01994974 0.01905114 0.01820631 0.01741398 0.01666488 0.01595265 0.01526239 0.01458842
 0.01391436 0.01324844 0.01258847 0.01195452 0.01135773 0.01081127 0.01032468 0.009896449 0.009528606 0.009214312
 0.008952461 0.008739323 0.008573764 0.008460839 0.008400612 0.008409557 0.00848752 0.008637413 0.008850843 0.009075787
 0.009295199 0.009410428 0.009418029 0.009248177 0.008932757 0.008486924 0.007965799 0.007442041 0.006957734 0.006577383
 0.006307143 0.006174165 0.006151376 0.006239469 0.006392457 0.006602162 0.006816059 0.007026284 0.007181115 0.007275428
 0.007260259 0.00713245 0.00684486 0.006395407 0.005745052 0.004896285 0.003840551 0.002594337 0.00120984 -0.0002788026
 -0.001758753 -0.003200182 -0.004488687 -0.005636759 -0.006601037 -0.007441873 -0.008193319 -0.008913205 -0.009653541 -0.01041642
 -0.01122305 -0.01202812 -0.01282437 -0.01357079 -0.01425644 -0.01487382 -0.01541925 -0.0159104 -0.01634794 -0.01675646
 -0.01713704 -0.01750917 -0.01787268 -0.01823613 -0.01859775 -0.01895594 -0.01930717 -0.01964224 -0.01995653 -0.02023609
 -0.02048201 -0.02068539 -0.02086282 -0.02102199 -0.02118812 -0.02138099 -0.02160698 -0.0218804 -0.02217082 -0.02247664
 -0.02275195 -0.02298628 -0.02316192 -0.02327232 -0.02334819 -0.02339057 -0.02344999 -0.02352762 -0.02364326 -0.02379242
 -0.02395019 -0.02411412 -0.02425652 -0.0243877 -0.0245198 -0.02466639 -0.02486334 -0.0251041 -0.0254017 -0.02572641
 -0.02605781 -0.02636922 -0.02663548 -0.02685384 -0.02701431 -0.02713243 -0.02720861 -0.02726579 -0.02730653 -0.0273583
 -0.02742446 -0.02752482 -0.02766142 -0.02782896 -0.02802625 -0.02822717 -0.02843043 -0.02861377 -0.02877869 -0.02891963
 -0.02903883 -0.02913932 -0.02922284 -0.02929306 -0.02935342 -0.02940927 -0.0294646 -0.02952595 -0.0295918 -0.02966492
 -0.02973638 -0.02980276 -0.02985893 -0.02990001 -0.02993792 -0.02997229 -0.0300258 -0.03010174 -0.03020916 -0.03034954
 -0.03050503 -0.03067432 -0.03082999 -0.03097261 -0.03109274 -0.03119471 -0.03129228 -0.03138832 -0.03150015 -0.03162251
 -0.03175632 -0.03188887 -0.03200366 -0.03209235 -0.03213704 -0.03214934 -0.03212582 -0.03209746 -0.03207536 -0.03208632
 -0.03214311 -0.03224603 -0.03239996 -0.03258204 -0.03279088 -0.03300115 -0.0332109 -0.03340666 -0.03358812 -0.03375343
 -0.03390292 -0.0340383 -0.03415961 -0.03426746 -0.03436261 -0.03444664 -0.03452224 -0.03459515 -0.0346675 -0.03474536
 -0.03482702 -0.03491346 -0.0350013 -0.035088 -0.03517378 -0.03525757 -0.03534246 -0.03542921 -0.03551969 -0.03561449
 -0.03571394 -0.03581817 -0.03592728 -0.03604138 -0.03615798 -0.03627673 -0.03638984 -0.03649627 -0.03658396 -0.03665266
 -0.03669312 -0.03670927 -0.0367052 -0.03668977 -0.03668203 -0.03668793 -0.03672605 -0.0367903 -0.03688351 -0.03699277
 -0.03710961 -0.0372289 -0.03734479 -0.03746229 -0.0375824 -0.03770624 -0.03783553 -0.03796146 -0.03808339 -0.03819209
 -0.03828663 -0.03836708 -0.03843374 -0.03849541 -0.03855294 -0.03861748 -0.0386889 -0.03877312 -0.03886821 -0.03897209
 -0.03908214 -0.03919218 -0.039301 -0.03940417 -0.039502 -0.03959318 -0.03967838 -0.03975766 -0.03983153 -0.03990031
 -0.03996413 -0.04002304 -0.04007729 -0.04012673 -0.04017279 -0.04021538 -0.04025785 -0.04030035 -0.04034717 -0.04039847
 -0.04045748 -0.04052392 -0.04059727 -0.04067622 -0.0407544 -0.04083068 -0.04089725 -0.04095659 -0.04100873 -0.04105936
 -0.04111713 -0.04118361 -0.04126548 -0.04135584 -0.04145295 -0.04154815 -0.04163607 -0.04171583 -0.04178491 -0.04184993
 -0.0419116 -0.04197645 -0.04204567 -0.04212091 -0.04220255 -0.04228733 -0.04237499 -0.04245958 -0.04254086 -0.04261388
 -0.04267913 -0.04273612 -0.04278595 -0.04283161 -0.04287364 -0.04291475 -0.04295446 -0.04299336 -0.04303054 -0.04306512
 -0.04309708 -0.04312558 -0.04315285 -0.04317912 -0.04320836 -0.04324175 -0.04328227 -0.04333121 -0.04338706 -0.04345012
 -0.04351549 -0.04358284 -0.04364824 -0.04371155 -0.04377158 -0.04382834 -0.04388142 -0.04393087 -0.0439765 -0.04401891
 -0.04405975 -0.04409969 -0.04414129 -0.04418377 -0.04422728 -0.04427047 -0.04431147 -0.04435132 -0.04438993 -0.04442913
 -0.04447065 -0.04451187 -0.04455273 -0.04458874 -0.04461791 -0.04464397 -0.04466629 -0.04469704 -0.04473726 -0.04479256
 -0.04486283 -0.04493774 -0.04501598 -0.04508067 -0.04513231 -0.04516336 -0.04517718 -0.04517937 -0.04517396 -0.04517196
 -0.04517537 -0.0451925 -0.04522109 -0.04526334 -0.04531214 -0.04536397 -0.04541162 -0.04544993 -0.04547877 -0.04549584
 -0.04550814 -0.04551661 -0.04552743 -0.04554193 -0.0455602 -0.04558243 -0.0456062 -0.04563145 -0.04565832 -0.04568706
 -0.04572011 -0.04575747 -0.04580077 -0.045849 -0.04590026 -0.04595266 -0.04600119 -0.04604496 -0.04607952 -0.04610776
 -0.04613 -0.04615176 -0.04617727 -0.04620894 -0.04625008 -0.04629686 -0.04634933 -0.04640146 -0.04645167 -0.04649787
 -0.04653917 -0.04657868 -0.04661651 -0.04665675 -0.04669958 -0.04674583 -0.04679524 -0.04684563 -0.04689669 -0.04694589
 -0.04699317 -0.04703721 -0.0470777 -0.04711347 -0.0471441 -0.04716822 -0.04718634 -0.04719795 -0.04720525 -0.04720895
 -0.04721308 -0.04721941 -0.04723195 -0.0472526 -0.04728258 -0.047323 -0.04737086 -0.04742604 -0.04748485 -0.04754696
 -0.04761023 -0.04767451 -0.04773677 -0.04779667 -0.04784924 -0.04789509 -0.04793406 -0.04796829 -0.04800484 -0.0480442
 -0.04809212 -0.04814477 -0.04819921 -0.04825141 -0.04829492 -0.04833138 -0.0483588 -0.0483832 -0.0484071 -0.0484342
 -0.0484668 -0.04850392 -0.04854593 -0.04859032 -0.04863685 -0.04868321 -0.04872924 -0.04877189 -0.04881101 -0.0488441
 -0.04887154 -0.04889581 -0.04891807 -0.04894588 -0.0489792 -0.04902288 -0.04907397 -0.04912863 -0.04918395 -0.0492328
 -0.04927683 -0.04931458 -0.0493497 -0.04938539 -0.04942043 -0.04945614 -0.04948644 -0.04950906 -0.04952217 -0.04952383
 -0.04952051 -0.04951255 -0.04950776 -0.04950701 -0.04951233 -0.0495238 -0.04953887 -0.04955745 -0.04957788 -0.04960039
 -0.04962562 -0.04965318 -0.04968253 -0.04971229 -0.04973894 -0.04976209 -0.04977887 -0.04979145 -0.04980075 -0.04980943
 -0.04982014 -0.04983296 -0.04984894 -0.04986622 -0.04988435 -0.0499021 -0.0499191 -0.04993492 -0.04994946 -0.04996238
 -0.04997349 -0.04998492 -0.04999681 -0.05001441 -0.05003795 -0.05007182 -0.05011548 -0.05016845 -0.0502298 -0.0502957
 -0.05036691 -0.05044207 -0.05052518 -0.05062043 -0.05073473 -0.05087608 -0.05105168 -0.05126899 -0.05153275 -0.05184759
 -0.05221403 -0.05263441 -0.05310259 -0.05361916 -0.05417005 -0.05475432 -0.0553535 -0.05596603 -0.0565782 -0.05718911
 -0.05778151 -0.05835123 -0.05884966 -0.059267 -0.05952279 -0.05961474 -0.0594857 -0.05915534 -0.05862914 -0.05795171
 -0.05718574 -0.05638627 -0.05563575 -0.0549654 -0.05442582 -0.05402042 -0.05376409 -0.05365022 -0.05368322 -0.05384041
 -0.05412684 -0.05447017 -0.05486688 -0.05520806 -0.05548175 -0.05564655 -0.05570043 -0.05568678 -0.05560808 -0.05550551
 -0.05537881 -0.05524646 -0.0551093 -0.05498092 -0.05486031 -0.05475359 -0.0546549 -0.05455794 -0.05445742 -0.05434447
 -0.05421867 -0.05407658 -0.05392021 -0.05374938 -0.05356707 -0.05337337 -0.05317444 -0.05297049 -0.05277308 -0.05258361
 -0.05241326 -0.05226352 -0.05213588 -0.05203039 -0.05193639 -0.05185325 -0.05176993 -0.0516874 -0.05160521 -0.05152515
 -0.05145351 -0.05139044 -0.05133988 -0.05130004 -0.05127007 -0.05124762 -0.05122993 -0.05121511 -0.05120086 -0.05118629
 -0.05117001 -0.05115314 -0.0511354 -0.05111964 -0.05110648 -0.05109803 -0.05109503 -0.05109585 -0.05110061 -0.05110443
 -0.05110705 -0.05110509 -0.05109874 -0.05108918 -0.05107708 -0.05106668 -0.05105856 -0.051057 -0.05106213 -0.05107675
 -0.05109982 -0.05113185 -0.05116921 -0.0512084 -0.05124575 -0.05127639 -0.05130161 -0.05132004 -0.05133652 -0.05135314
 -0.05137045 -0.05138972 -0.05140614 -0.05141887 -0.05142632 -0.0514279 -0.05142854 -0.05142849 -0.05143273 -0.05144102
 -0.05145179 -0.05146443 -0.05147424 -0.05148144 -0.051484 -0.05148311 -0.05148053 -0.05147726 -0.05147586 -0.05147624
 -0.05147932 -0.05148445 -0.05149144 -0.05149971 -0.05150915 -0.05151845 -0.05152734 -0.05153389 -0.05153717 -0.05153819
 -0.05153647 -0.05153699 -0.05154017 -0.05154997 -0.05156665 -0.05158933 -0.05161781 -0.05164897 -0.05168277 -0.05171754
 -0.05175323 -0.0517889 -0.05182428 -0.05185837 -0.0518909 -0.05192109 -0.0519485 -0.05197242 -0.05199238 -0.05200727
 -0.05201862 -0.05202625 -0.05203419 -0.05204376 -0.05205809 -0.05207849 -0.05210495 -0.05213774 -0.0521758 -0.0522191
 -0.05226674 -0.05231869 -0.0523718 -0.0524256 -0.05247307 -0.05251399 -0.05254263 -0.05256085 -0.05257142 -0.05257825
 -0.05259247 -0.05261563 -0.05265701 -0.05271156 -0.05277846 -0.0528489 -0.0529153 -0.05297311 -0.05301654 -0.05304884
 -0.05306895 -0.05308471 -0.05309756 -0.05311466 -0.05313756 -0.05316916 -0.05321023 -0.05325756 -0.053311 -0.05336488
 -0.05341924 -0.05347327 -0.05352775 -0.05358762 -0.05365245 -0.05372417 -0.05380001 -0.05387418 -0.05394467 -0.05400429
 -0.05405581 -0.05409871 -0.05413876 -0.05418095 -0.05422735 -0.05428165 -0.05433957 -0.05440053 -0.05446004 -0.05451611
 -0.05457042 -0.05462264 -0.05467726 -0.05473487 -0.05479612 -0.05486111 -0.05492634 -0.0549917 -0.05505467 -0.05511553
 -0.05517458 -0.05523218 -0.05528987 -0.05534779 -0.05540726 -0.05546782 -0.05552952 -0.05559126 -0.05565164 -0.05571039
 -0.0557664 -0.05582114 -0.05587499 -0.05592956 -0.05598566 -0.05604377 -0.05610407 -0.05616728 -0.05623353 -0.05630333
 -0.0563769 -0.05645221 -0.05652917 -0.05660342 -0.05667491 -0.0567423 -0.05680631 -0.05687104 -0.05693709 -0.05700948
 -0.05708689 -0.05716909 -0.0572532 -0.05733384 -0.05740986 -0.05747674 -0.05753754 -0.05759268 -0.05764688 -0.05770325
 -0.05776354 -0.05782937 -0.05790002 -0.05797547 -0.05805574 -0.05814086 -0.05823087 -0.05832602 -0.05842328 -0.0585225
 -0.0586197 -0.05871483 -0.05880645 -0.05889475 -0.05898021 -0.0590627 -0.05914187 -0.05921771 -0.05928957 -0.05935843
 -0.05942539 -0.05949181 -0.05956008 -0.05963008 -0.05970297 -0.05977686 -0.05985115 -0.05992395 -0.05999402 -0.06006185
 -0.06012701 -0.06019203 -0.06025718 -0.06032504 -0.06039599 -0.06047036 -0.06054821 -0.06062786 -0.06070912 -0.06078881
 -0.06086672 -0.06093954 -0.06100801 -0.06107275 -0.06113558 -0.06120152 -0.06127159 -0.06135082 -0.06143668 -0.0615288
 -0.06162259 -0.06171336 -0.06180051 -0.06188081 -0.06196081 -0.06204193 -0.06213114 -0.06223191 -0.06234129 -0.06246044
 -0.06257773 -0.06269204 -0.06279495 -0.06288575 -0.06296576 -0.06303527 -0.06309928 -0.06315795 -0.06321435 -0.06326883
 -0.063324 -0.06338104 -0.06344423 -0.06351446 -0.06359559 -0.06368699 -0.06379024 -0.06390187 -0.06402078 -0.06414001
 -0.06425586 -0.06436143 -0.06445223 -0.06452823 -0.06458727 -0.06463747 -0.06467944 -0.06472293 -0.06476918 -0.06482266
 -0.06488381 -0.06495078 -0.0650233 -0.06509572 -0.06516795 -0.06523631 -0.06530189 -0.06536707 -0.06543311 -0.06550545
 -0.06558245 -0.06566467 -0.06574779 -0.06582644 -0.0658983 -0.06595822 -0.06600985 -0.0660526 -0.06609447 -0.06613841
 -0.06619051 -0.06625409 -0.0663268 -0.06640987 -0.06649234 -0.06657316 -0.06664389 -0.06670372 -0.06675699 -0.06680428
 -0.06685788 -0.06691777 -0.06699043 -0.06707375 -0.06716289 -0.06725565 -0.0673432 -0.06742599 -0.06750036 -0.06756856
 -0.06763226 -0.06769241 -0.06775077 -0.06780663 -0.06785963 -0.0679106 -0.06795926 -0.06800844 -0.06805906 -0.06811205
 -0.06816819 -0.0682242 -0.06827988 -0.06833163 -0.06837916 -0.06842297 -0.06846321 -0.06850335 -0.06854352 -0.06858635
 -0.06863157 -0.06867936 -0.0687295 -0.06878135 -0.06883532 -0.06889166 -0.06895126 -0.06901588 -0.06908451 -0.06915791
 -0.06923181 -0.0693045 -0.06937063 -0.06942689 -0.06947318 -0.06950764 -0.06953741 -0.06956302 -0.06959341 -0.06962993
 -0.06967539 -0.06973023 -0.06978887 -0.06985091 -0.06990857 -0.06996221 -0.07001069 -0.07005522 -0.07010031 -0.07014649
 -0.07019754 -0.07025314 -0.07031444 -0.07038123 -0.07045418 -0.07053161 -0.07061327 -0.07069442 -0.07077233 -0.07084307
 -0.07090358 -0.07095516 -0.07099697 -0.07103393 -0.07106686 -0.07109906 -0.07113127 -0.07116237 -0.07119235 -0.07121867
 -0.07124142 -0.07126261 -0.07128294 -0.07130893 -0.07134043 -0.07138105 -0.07142863 -0.07147922 -0.07153102 -0.07157809
 -0.07162154 -0.07166009 -0.07169613 -0.07173192 -0.07176735 -0.07180352 -0.07183816 -0.0718704 -0.07189927 -0.0719239
 -0.07194606 -0.07196561 -0.07198624 -0.07200827 -0.07203536 -0.07206781 -0.07210653 -0.07215145 -0.07220055 -0.07225372
 -0.07230902 -0.07236686 -0.07242826 -0.07249314 -0.07256304 -0.0726347 -0.07270379 -0.07276435 -0.07280532 -0.07282732
 -0.07282432 -0.07280739 -0.07278123 -0.07275601 -0.07273882 -0.07272848 -0.07272666 -0.07272744 -0.07272904 -0.07273348
 -0.07274032 -0.07275701 -0.07278414 -0.07282392 -0.07287629 -0.072939 -0.07301164 -0.07309126 -0.07317551 -0.07325349
 -0.0733214 -0.07336075 -0.07337479 -0.07335857 -0.07332316 -0.07328198 -0.07324108 -0.07321197 -0.07319298 -0.07318628
 -0.0731895 -0.07320225 -0.07322215 -0.07324951 -0.07327718 -0.07330482 -0.07332054 -0.07332273 -0.07330447 -0.07326479
 -0.07321008 -0.07314103 -0.07307363 -0.0730084 -0.07295759 -0.07291942 -0.07289274 -0.07287518 -0.07285858 -0.07284363
 -0.07282785 -0.0728126 -0.07280009 -0.07278738 -0.0727731 -0.07275294 -0.07272241 -0.07268378 -0.07263581 -0.07258562
 -0.07253522 -0.0724887 -0.07244781 -0.07241049 -0.07237706 -0.07234127 -0.07230263 -0.07225851 -0.07220897 -0.07215869
 -0.07210727 -0.07205449 -0.07199743 -0.07192162 -0.07182696 -0.0717029 -0.07155753 -0.07140187 -0.07124233 -0.07109433
 -0.07095452 -0.07082609 -0.07070187 -0.07057726 -0.07045025 -0.07031769 -0.07018378 -0.0700487 -0.06991861 -0.06979584
 -0.06967817 -0.06956779 -0.06943952 -0.06929202 -0.06909383 -0.06884454 -0.06855236 -0.06822038 -0.06788153 -0.06753317
 -0.06718194 -0.06682014 -0.06642796 -0.06600197 -0.06552365 -0.06499924 -0.06442695 -0.06382112 -0.06319312 -0.06255836
 -0.06193227 -0.06131618 -0.06071861 -0.06011981 -0.05951464 -0.05889162 -0.05824216 -0.05759653 -0.05695625 -0.05635843
 -0.0558068 -0.05530487 -0.05485253 -0.05443983 -0.05406655 -0.0537287 -0.05342403 -0.0531426 -0.05287688 -0.05260148
 -0.05230637 -0.05195803 -0.05155474 -0.05107569 -0.05053589 -0.04994139 -0.04930811 -0.04864975 -0.04797081 -0.04727641
 -0.04656808 -0.04584708 -0.04511533 -0.04437696 -0.04361141 -0.0428217 -0.04193912 -0.04095844 -0.03982819 -0.03854925
 -0.03720508 -0.03580299 -0.03445177 -0.0331376 -0.03185153 -0.03057628 -0.02925237 -0.02787947 -0.02642811 -0.02490554
 -0.02331595 -0.02164738 -0.01990074 -0.01803062 -0.01600821 -0.01379744 -0.01135251 -0.00874645 -0.005971438 -0.003194108
 -0.0004499194 0.002162867 0.004620598 0.00692994 0.009087306 0.01115252 0.01313034 0.01513741 0.01718645 0.01945691
 0.02193413 0.0246734 0.02758896 0.03043068 0.03317558 0.0356263 0.03787564 0.03997799 0.04200054 0.04404236
 0.04609903 0.04819727 0.05031971 0.05245858 0.05462515 0.05682971 0.05904037 0.06125922 0.0634139 0.06549002
 0.06748812 0.06940586 0.07128224 0.07311722 0.07486431 0.07651705 0.07798852 0.07928722 0.08040582 0.08136467
 0.08222486 0.08299384 0.08372138 0.08439296 0.08500443 0.08555403 0.08603022 0.08645995 0.0868578 0.08724519
 0.08764192 0.08803434 0.08842676 0.08878285 0.08909492 0.08934151 0.08951571 0.08963258 0.08969088 0.08974551
 0.08979908 0.08989473 0.0900289 0.09018274 0.09035088 0.090495 0.09061752 0.09070206 0.09076271 0.09081707
 0.09088729 0.0910145 0.0912087 0.09149452 0.09187572 0.09235345 0.09295898 0.09370441 0.09462363 0.09573986
 0.09702447 0.09847863 0.1000536 0.1017377 0.1035469 0.1054802 0.1075818 0.1098532 0.1122978 0.1149129
 0.1176722 0.1205753 0.1236087 0.1267719 0.1300579 0.1334642 0.1369801 0.1406096 0.1443533 0.1482164
 0.1522077 0.1563195 0.1605518 0.1648879 0.1693219 0.1738336 0.1784184 0.1830487 0.1877219 0.1923972
 0.1970731 0.2016823 0.2062196 0.2106188 0.2148777 0.2190228 0.2230626 0.2271125 0.2311538 0.235168
 0.239091 0.2426883 0.2459587 0.2487701 0.2511865 0.2532664 0.2550085 0.2564415 0.2575291 0.258244
 0.2585959 0.2586091 0.2581894 0.2573669 0.2557932 0.2533751 0.2499783 0.2454821 0.2406703 0.2356015
 0.2308338 0.2263873 0.2219546 0.2175183 0.2127818 0.2077764 0.2025197 0.1970412 0.1914772 0.1857624
 0.1798613 0.1736032 0.1666434 0.1590751 0.1506749 0.1421733 0.134081 0.1267302 0.1205728 0.1150912
 0.1102017 0.1054929 0.1008153 0.09618785 0.09158222 0.08716173 0.08294472 0.07892846 0.07511189 0.07135525
 0.06765569 0.06392803 0.06019083 0.05649529 0.05286711 0.04942229 0.04616175 0.04315118 0.04036251 0.03778502
 0.03538324 0.03312385 0.03095745 0.02885777 0.02672527 0.02450961 0.02212141 0.01946659 0.0167495 0.01396345
 0.01150761 0.009474225 0.007821392 0.006566952 0.005405545 0.004322834 0.003156476 0.001915708 0.0006534444 -0.0006141718
 -0.001762008 -0.002808092 -0.003745805 -0.004602506 -0.005449245 -0.006268072 -0.007072865 -0.007811429 -0.008424787 -0.008901675
 -0.009204171 -0.009372328 -0.009417938 -0.009368495 -0.009241174 -0.00902715 -0.00873214 -0.00831913 -0.007789488 -0.007064246
 -0.006137761 -0.004922925 -0.003416133 -0.001693006 0.000229014 0.002114953 0.003962331 0.005633667 0.007149208 0.008507855
 0.009720944 0.01081054 0.01178712 0.0126635 0.01348326 0.01428344 0.01514201 0.01613702 0.01728776 0.01865258
 0.02011693 0.02165045 0.02317873 0.02466449 0.02615543 0.02765224 0.02921074 0.03083874 0.03253007 0.03428443
 0.03604624 0.03781433 0.03955248 0.04127204 0.04301091 0.04479482 0.04673303 0.048839 0.05121334 0.05381503
 0.05662825 0.05960099 0.0626532 0.06580541 0.06904338 0.0724074 0.07593031 0.07957848 0.08335779 0.08718771
 0.09104299 0.09491064 0.09877552 0.1027227 0.106761 0.1109289 0.1152278 0.1194485 0.1235683 0.1272403
 0.1304633 0.1330569 0.1350354 0.1363665 0.1370318 0.136977 0.1361741 0.1345377 0.1321012 0.1288425
 0.1248781 0.1202725 0.1151687 0.109656 0.103826 0.09772941 0.09141114 0.08487 0.07824223 0.07152527
 0.06501067 0.05872585 0.05287552 0.0474718 0.04244393 0.03778025 0.03330335 0.02902055 0.02487929 0.02090978
 0.01719877 0.01374925 0.01062443 0.00778128 0.005182327 0.002779662 0.0005030072 -0.001669712 -0.003780292 -0.005826807
 -0.007820399 -0.009748451 -0.01160875 -0.01339101 -0.01509031 -0.01671207 -0.01825449 -0.01973928 -0.02116878 -0.02255413
 -0.02389609 -0.02516381 -0.02635333 -0.02740286 -0.02831202 -0.02904472 -0.02960908 -0.03001535 -0.03026981 -0.03039297
 -0.03038571 -0.03025607 -0.0300099 -0.02965133 -0.02920177 -0.02867027 -0.02810182 -0.02751272 -0.02697087 -0.02649803
 -0.02616647 -0.0259962 -0.02603999 -0.02631153 -0.02682283 -0.02758045 -0.02853143 -0.02967331 -0.03090053 -0.03220802
 -0.03350376 -0.03478796 -0.03601686 -0.03719061 -0.03828743 -0.03930444 -0.04022216 -0.04104294 -0.04175976 -0.04238207
 -0.04291798 -0.0433749 -0.04376163 -0.04408091 -0.04433519 -0.04453009 -0.04466591 -0.04475649 -0.04480297 -0.04482783
 -0.04483302 -0.04484791 -0.04487531 -0.04493926 -0.04504136 -0.04518372 -0.04536495 -0.04556562 -0.04578361 -0.04599518
 -0.04620153 -0.04639206 -0.04657408 -0.04675762 -0.04695447 -0.04718899 -0.04746811 -0.04781265 -0.04821451 -0.04867787
 -0.04918141 -0.04971712 -0.05026044 -0.0508015 -0.05132074 -0.05181098 -0.05226383 -0.05267554 -0.05305291 -0.0533957
 -0.05371775 -0.05401988 -0.05430909 -0.05458513 -0.0548453 -0.05508873 -0.05530909 -0.05550503 -0.05566884 -0.05579841
 -0.05588484 -0.05592677 -0.05591703 -0.05585784 -0.05574699 -0.0555931 -0.05540009 -0.05518194 -0.05494672 -0.05470606
 -0.05446734 -0.05423142 -0.05400068 -0.05376932 -0.05353651 -0.05329966 -0.05305831 -0.05281313 -0.05256421 -0.05230716
 -0.05204086 -0.0517482 -0.05142641 -0.05104704 -0.05061227 -0.05010673 -0.04955242 -0.04898631 -0.04845104 -0.04803687
 -0.04776915 -0.04772908 -0.04787617 -0.04822177 -0.04866771 -0.04916666 -0.04963364 -0.05001877 -0.05030492 -0.05047259
 -0.05055508 -0.05055439 -0.05050378 -0.05040774 -0.05027671 -0.05011168 -0.04990857 -0.04966612 -0.04936652 -0.04900431
 -0.04853491 -0.04795364 -0.04720814 -0.04632066 -0.04529977 -0.04421879 -0.04319497 -0.04231814 -0.0417565 -0.0415182
 -0.04170034 -0.0421703 -0.04290105 -0.04370559 -0.04449647 -0.0451938 -0.04574111 -0.04621353 -0.04660944 -0.0470438
 -0.04753336 -0.0480972 -0.04873893 -0.04935959 -0.04995174 -0.05037929 -0.05064366 -0.0506766 -0.05050652 -0.05019631
 -0.0497943 -0.04945805 -0.04920894 -0.0491728 -0.04930351 -0.04960568 -0.05000062 -0.05041676 -0.0508246 -0.05117621
 -0.05150682 -0.05182159 -0.05214372 -0.05249029 -0.05281998 -0.05313166 -0.0533652 -0.05351164 -0.0535601 -0.05350871
 -0.05339509 -0.05322124 -0.05302498 -0.05280523 -0.0525729 -0.05232505 -0.05205573 -0.05176369 -0.05144246 -0.05109275
 -0.05071227 -0.05030372 -0.04986821 -0.04941185 -0.04893843 -0.04845807 -0.04797665 -0.04750426 -0.04704693 -0.04660752
 -0.04618976 -0.04578434 -0.04539131 -0.04499482 -0.04459293 -0.04417738 -0.04374736 -0.04330739 -0.04285773 -0.042404
 -0.04194543 -0.04147912 -0.04100415 -0.04051527 -0.04001224 -0.03949268 -0.03895452 -0.03839384 -0.03780675 -0.03718605
 -0.03653174 -0.03583962 -0.03511656 -0.03436374 -0.03359276 -0.03280677 -0.03202099 -0.03123868 -0.03047713 -0.02973951
 -0.02903954 -0.02837931 -0.02776467 -0.02719631 -0.02666941 -0.02618288 -0.02571667 -0.02526841 -0.02481058 -0.02434376
 -0.02385416 -0.02334683 -0.02282819 -0.02230214 -0.02177919 -0.02125976 -0.02074817 -0.02024499 -0.01975297 -0.0192693
 -0.01879516 -0.01832028 -0.01784078 -0.01734931 -0.01684123 -0.01632264 -0.01579285 -0.01526494 -0.01474013 -0.01422952
 -0.01373399 -0.01325835 -0.01280216 -0.01235682 -0.01192014 -0.01147147 -0.01101039 -0.01052235 -0.01001215 -0.00948355
 -0.008944975 -0.008411993 -0.007894473 -0.007409715 -0.006967983 -0.006583682 -0.006263628 -0.0060162 -0.005842956 -0.005747123
 -0.005725739 -0.005781577 -0.005896857 -0.006073167 -0.006266756 -0.006474785 -0.006643877 -0.006770212 -0.006820101 -0.006792798
 -0.006679575 -0.006481062 -0.006197841 -0.005829536 -0.005375388 -0.004833258 -0.004197613 -0.003465247 -0.002626609 -0.001682731
 -0.0006273882 0.0005264348 0.00177801 0.003088848 0.00445459 0.005778493 0.007045248 0.008079134 0.008840795 0.009144304
 0.008938916 0.008176716 0.00682929 0.005068772 0.002900226 0.000631592 -0.001722088 -0.003888919 -0.005870518 -0.007546629
 -0.00893995 -0.01007808 -0.01098717 -0.01175371 -0.01238809 -0.01295094 -0.01343922 -0.01386965 -0.01424727 -0.01457415
 -0.01487967 -0.01517353 -0.01550842 -0.01590263 -0.01641608 -0.01706868 -0.01790082 -0.01892686 -0.02014409 -0.02155763
 -0.02312089 -0.02483215 -0.02661852 -0.02847577 -0.03032634 -0.03216732 -0.03393987 -0.03564544 -0.03725821 -0.03878234
 -0.04021589 -0.04156236 -0.04282628 -0.04401255 -0.04512805 -0.04618017 -0.04717863 -0.04812569 -0.04902663 -0.04987754
 -0.05067674 -0.051426 -0.05212346 -0.05278152 -0.05340169 -0.05399671 -0.05456836 -0.05512379 -0.05566366 -0.05619119
 -0.05670626 -0.05720498 -0.05768632 -0.05813995 -0.05856569 -0.05895688 -0.05931517 -0.05964258 -0.05993889 -0.06020586
 -0.06043971 -0.06063605 -0.06079217 -0.06090205 -0.06097087 -0.0609972 -0.06099634 -0.06097289 -0.06094445 -0.06091788
 -0.0608998 -0.06089376 -0.06089424 -0.06090119 -0.06090818 -0.0609148 -0.06091604 -0.0609113 -0.06088773 -0.06084418
 -0.06076436 -0.06064983 -0.06049775 -0.06031254 -0.06010564 -0.05987926 -0.05964395 -0.05939771 -0.05914237 -0.05887498
 -0.05859335 -0.05829558 -0.05797949 -0.05764546 -0.0572929 -0.05692357 -0.05653837 -0.05613599 -0.05571665 -0.05527661
 -0.0548147 -0.0543352 -0.05383776 -0.05334155 -0.05284803 -0.05238808 -0.05196445 -0.05161338 -0.0513369 -0.05116567
 -0.05109559 -0.05113412 -0.05126842 -0.05147882 -0.05175038 -0.05205602 -0.05238279 -0.05271292 -0.0530273 -0.05331295
 -0.05354264 -0.0537009 -0.05377288 -0.05374626 -0.05363854 -0.05344744 -0.05321326 -0.05294057 -0.05266032 -0.05237583
 -0.05208874 -0.05179859 -0.05148677 -0.05115257 -0.05078114 -0.05037487 -0.04993585 -0.04946875 -0.04898778 -0.04849692
 -0.04801064 -0.0475309 -0.04706655 -0.04661753 -0.0461871 -0.04577379 -0.04537845 -0.04499643 -0.04462776 -0.0442612
 -0.04389468 -0.04351382 -0.04311457 -0.04269287 -0.04224624 -0.04178814 -0.04131903 -0.04085882 -0.04040839 -0.03998052
 -0.03957521 -0.03919792 -0.03884816 -0.03852781 -0.03823408 -0.03796149 -0.0377036 -0.03744573 -0.03718136 -0.03689421
 -0.03658409 -0.03624333 -0.03587902 -0.03549351 -0.035093 -0.03468201 -0.03425931 -0.03382493 -0.03337919 -0.0329201
 -0.03246143 -0.03200416 -0.0315646 -0.03114468 -0.03074141 -0.03035424 -0.02996378 -0.02956935 -0.02915664 -0.02872706
 -0.02827959 -0.02781624 -0.02734181 -0.026859 -0.02637512 -0.025893 -0.0254209 -0.02495668 -0.02450288 -0.02405163
 -0.02359777 -0.02313787 -0.02266723 -0.02219238 -0.02171418 -0.02123942 -0.02077087 -0.02030462 -0.01984062 -0.01937313
 -0.01890107 -0.01843463 -0.01797461 -0.01754441 -0.01714367 -0.0167809 -0.01645049 -0.01613007 -0.0158142 -0.0154718
 -0.01510765 -0.01471398 -0.0143042 -0.01389534 -0.01349388 -0.01311713 -0.01275193 -0.01239788 -0.01203145 -0.01163875
 -0.0112159 -0.01075271 -0.01028023 -0.009801725 -0.009351509 -0.008937226 -0.008555669 -0.008208343 -0.007863696 -0.00752046
 -0.007162293 -0.006790702 -0.006414528 -0.006034538 -0.005659782 -0.005287826 -0.004915929 -0.004541481 -0.004157437 -0.003763241
 -0.00335322 -0.002933275 -0.002504673 -0.002080582 -0.001671324 -0.001282427 -0.0009225802 -0.000578958 -0.0002495531 7.781217E-05
 0.0004084646 0.0007343973 0.001055787 0.001359283 0.001643123 0.001912561 0.002168145 0.002430694 0.002701156 0.00299774
 0.003318544 0.003665304 0.004032373 0.004403009 0.004773415 0.005125385 0.005463571 0.005786324 0.006100653 0.006414729
 0.006728014 0.007042538 0.007357036 0.007670181 0.007986031 0.008306883 0.008629612 0.008955305 0.009272118 0.009577834
 0.009870933 0.01015072 0.0104253 0.010695 0.0109616 0.01122582 0.01149365 0.01176896 0.01207578 0.01241513
 0.01280608 0.01323996 0.01370886 0.01420171 0.01469833 0.01519324 0.01567307 0.01613733 0.01658069 0.01700776
 0.01741932 0.01781978 0.01821245 0.0185916 0.01895696 0.01930068 0.01962037 0.01992248 0.02020689 0.02048803
 0.02076668 0.02105608 0.02135742 0.0216893 0.02205041 0.02244842 0.02287199 0.02329018 0.02369055 0.02402595
 0.02430432 0.02451269 0.0246746 0.02481129 0.02493512 0.02506414 0.02519405 0.0253275 0.02545796 0.02558331
 0.02570101 0.02580819 0.02591527 0.02602098 0.02615497 0.02631968 0.0265371 0.026808 0.02711892 0.02746743
 0.0278225 0.02818339 0.02852915 0.02886298 0.02918037 0.02949346 0.02982457 0.03018764 0.03062082 0.03110987
 0.03165973 0.03223759 0.032812 0.03339318 0.03396606 0.03459293 0.03530212 0.03608834 0.03697091 0.03783855
 0.03867161 0.03944557 0.04015316 0.04085108 0.04154158 0.04223742 0.04293419 0.04358733 0.04419199 0.04469992
 0.04510943 0.04539238 0.04554346 0.04553831 0.04537082 0.04501728 0.04448603 0.04376505 0.04290137 0.04190916
 0.04087966 0.03985721 0.03891968 0.03811127 0.03743463 0.03690374 0.03647392 0.03613962 0.03587554 0.03567848
 0.03554345 0.03546993 0.03544059 0.03545376 0.03548554 0.0355338 0.0355778 0.03561058 0.03559935 0.03553591
 0.03538208 0.035144 0.03481165 0.03440118 0.0339271 0.03339846 0.03282466 0.03221625 0.03158011 0.03092511
 0.0302568 0.02957327 0.02886732 0.02818073 0.02750929 0.02696694 0.0265639 0.0263782 0.0264135 0.02661645
 0.02697865 0.02738457 0.02783102 0.02823985 0.02861743 0.0289409 0.02922424 0.02948774 0.02974148 0.03001742
 0.03029892 0.03058369 0.03084433 0.03105079 0.03121604 0.03133168 0.0314408 0.03156241 0.03169945 0.03186186
 0.03200989 0.03213689 0.03222949 0.03228314 0.03233622 0.03239066 0.03249427 0.03264621 0.03285389 0.03310715
 0.03335371 0.03358282 0.0337229 0.03378639 0.03375959 0.03367542 0.03358569 0.03349768 0.03344966 0.03340666
 0.03335338 0.03326442 0.03311458 0.03292164 0.03268258 0.03243225 0.03217731 0.03194787 0.03174953 0.0316008
 0.03150537 0.03145169 0.0314392 0.0314322 0.03142926 0.03140305 0.03135445 0.03127276 0.0311625 0.03102907
 0.03088615 0.03076814 0.03068439 0.03067419 0.03071442 0.03080072 0.03089224 0.03095189 0.03096824 0.03092154
 0.03082676 0.03068844 0.03050403 0.030276 0.02998714 0.02963251 0.02922011 0.02874748 0.02826282 0.02776868
 0.027334 0.02695974 0.02668216 0.02648876 0.02632891 0.02618219 0.02594156 0.02561479 0.0251519 0.02460678
 0.02404289 0.02350721 0.02309055 0.02277505 0.02258709 0.02246416 0.02237935 0.02228963 0.02216474 0.02202228
 0.02185516 0.02171828 0.02162233 0.02158253 0.0216053 0.02163277 0.02166197</values></Ydata></AB><ScSm><Ydata ylabel="Single channel"><values byteorder="INTEL" format="FLOAT32" numvalues="1814"> 0.07344327 0.07344726 0.07351956 0.07368359 0.07390644 0.07411894 0.07426541 0.07433848 0.07435917 0.07433397
 0.07426561 0.07420494 0.07424232 0.07441935 0.07466905 0.07486076 0.07490607 0.07483745 0.07478923 0.07486671
 0.07500614 0.07499027 0.07464881 0.07405183 0.07346967 0.073125 0.07305039 0.07323955 0.073781 0.07460731
 0.07521357 0.07501787 0.07409112 0.07318704 0.07290763 0.07312657 0.07333802 0.07323896 0.07283011 0.07230501
 0.07209025 0.07272199 0.07431966 0.07616203 0.07694931 0.07561872 0.07209978 0.06755616 0.06395978 0.06303465
 0.06504207 0.06843212 0.07100952 0.07168551 0.07099631 0.0699932 0.06910913 0.06830222 0.06778885 0.06807049
 0.06924206 0.07053839 0.07073595 0.06919765 0.06663036 0.06458296 0.06403594 0.06478739 0.0662837 0.06822346
 0.0697182 0.06880771 0.06438748 0.05865603 0.05613656 0.0593753 0.06622504 0.0719483 0.0734341 0.07094126
 0.06671981 0.06314266 0.06181362 0.06314024 0.06625908 0.0697497 0.072496 0.07374403 0.07291314 0.07009847
 0.06656581 0.06413982 0.06408364 0.06660416 0.07080865 0.07478342 0.07646361 0.07516088 0.07202181 0.06881435
 0.06676148 0.06654934 0.06850581 0.07225682 0.07670361 0.08065908 0.08333015 0.08439855 0.08409131 0.08303584
 0.08177893 0.08069736 0.08033499 0.08106819 0.08222233 0.08232718 0.08071698 0.07841614 0.07708432 0.07730152
 0.07810383 0.0781572 0.07710893 0.07537971 0.07284952 0.06882547 0.06363692 0.0590654 0.05656591 0.05615672
 0.05747658 0.06035567 0.06357279 0.06477836 0.06306496 0.06061379 0.06053264 0.06353801 0.06758311 0.07035646
 0.07142034 0.07204717 0.07357655 0.07604588 0.07802095 0.07768174 0.07463272 0.07091409 0.06955879 0.07161792
 0.07514915 0.0775964 0.07847787 0.07911558 0.08032543 0.0811604 0.07990344 0.07611227 0.07171929 0.06983716
 0.07204759 0.07681805 0.08061658 0.08053444 0.07624476 0.07006065 0.06512524 0.06324083 0.06438805 0.06792134
 0.07327479 0.07934649 0.08420978 0.08619316 0.08510377 0.08212155 0.07845941 0.07425793 0.06921674 0.06441738
 0.06254305 0.06533793 0.0713696 0.07722323 0.08055078 0.08123914 0.08007355 0.07728789 0.07278518 0.06751506
 0.063917 0.06402709 0.06703094 0.06972821 0.06988204 0.06825303 0.06695305 0.06681123 0.06707218 0.06700782
 0.0669497 0.06771056 0.06941824 0.07120767 0.07205836 0.07172449 0.07077314 0.06991966 0.06938502 0.068748
 0.06754346 0.06618512 0.06592277 0.0674696 0.07001664 0.07206552 0.0729325 0.07299297 0.07268721 0.07176825
 0.06968033 0.06661831 0.06396399 0.06326236 0.06472166 0.06708279 0.06893419 0.069729 0.06963801 0.06903066
 0.06822843 0.06740482 0.06664009 0.06614527 0.06620638 0.06677116 0.0673655 0.06757395 0.06737658 0.06692994
 0.06627186 0.06538325 0.06439766 0.06360859 0.06325868 0.06335139 0.06368802 0.0640509 0.06428026 0.06423186
 0.06382786 0.06317437 0.06249729 0.06193819 0.06150976 0.06122873 0.06115461 0.06127267 0.06144065 0.06149872
 0.06138878 0.06114828 0.06083053 0.06046248 0.06006359 0.05967984 0.05938818 0.05924643 0.05922305 0.05921181
 0.0591542 0.05910266 0.05910464 0.05907846 0.0588945 0.05855096 0.05818512 0.05792181 0.05777413 0.05768083
 0.05757684 0.05740756 0.05712065 0.05670729 0.0562667 0.05597483 0.05594473 0.0561438 0.05645908 0.05678125
 0.05701121 0.0570764 0.05699079 0.05684059 0.05668162 0.05649623 0.05626147 0.05601821 0.0558623 0.05587674
 0.05605863 0.05631068 0.05651798 0.05662318 0.05663088 0.05658815 0.0565706 0.05662445 0.05670134 0.05670498
 0.05661625 0.05652218 0.05650967 0.05656981 0.05661988 0.05660107 0.05654414 0.05653542 0.05662078 0.05676171
 0.05689092 0.05698662 0.05707821 0.05719388 0.05731301 0.05737431 0.05734265 0.05726102 0.05720912 0.0572176
 0.05725967 0.05732072 0.05742661 0.05759194 0.05777644 0.0579161 0.05798806 0.05803005 0.0580916 0.0581738
 0.05823112 0.05823101 0.05819296 0.05816512 0.0581786 0.05822986 0.05829468 0.05835085 0.05839022 0.05841388
 0.05842247 0.05841479 0.05839169 0.05836069 0.05834316 0.05837062 0.05845406 0.0585547 0.05860471 0.05856901
 0.05847998 0.05840426 0.05837755 0.05837712 0.05835709 0.05830178 0.05823589 0.05818984 0.05817087 0.05816796
 0.0581682 0.05816472 0.0581656 0.05820116 0.0583046 0.05846924 0.0586355 0.05873983 0.05877509 0.05878944
 0.05882975 0.05890292 0.05899078 0.05908399 0.05919521 0.05934321 0.05952271 0.05969228 0.05980892 0.05987819
 0.05995252 0.06007727 0.06025769 0.06047402 0.06069842 0.06089486 0.0610369 0.06113926 0.06124909 0.06139469
 0.06155935 0.06171302 0.06185146 0.06199268 0.06214982 0.06232613 0.06253213 0.0627894 0.06310987 0.06347722
 0.06385264 0.06419987 0.06451183 0.06481975 0.06517181 0.06559152 0.06605371 0.06650364 0.06690158 0.06725017
 0.06758051 0.06791566 0.0682564 0.06860498 0.06898578 0.06942193 0.06989808 0.07036912 0.07080743 0.0712237
 0.07164045 0.07206456 0.07249115 0.07291956 0.07335561 0.07380232 0.07425314 0.07469603 0.07512356 0.07553813
 0.07594743 0.07635906 0.07677966 0.07720815 0.07762431 0.07799897 0.0783302 0.07865866 0.07902703 0.07942966
 0.0798232 0.0801851 0.08053854 0.08091441 0.081312 0.08171034 0.08210319 0.08250552 0.08292802 0.08335541
 0.08375114 0.08408425 0.08435777 0.08461019 0.08488408 0.08519793 0.08555356 0.0859542 0.08639379 0.08683799
 0.08724155 0.08758386 0.08787345 0.08812933 0.08837584 0.08864168 0.08894012 0.08925664 0.08956721 0.08985528
 0.09010731 0.09032041 0.09052635 0.0907777 0.09109396 0.09144673 0.0918099 0.09219354 0.09260902 0.09303139
 0.09343018 0.09382139 0.09425023 0.09471856 0.09516259 0.09551738 0.09577772 0.09597996 0.09615526 0.09633145
 0.09655515 0.09686711 0.09725644 0.09766769 0.09805287 0.09839857 0.09870861 0.09898263 0.09921598 0.09940998
 0.09957743 0.09973934 0.09991837 0.1001382 0.1004224 0.1007766 0.1011665 0.10153 0.1018187 0.1020161
 0.102115 0.1021072 0.1020137 0.1018995 0.1018224 0.101767 0.1016521 0.1014021 0.1009981 0.1004613
 0.09981366 0.09907083 0.09826849 0.09748156 0.09680986 0.09633964 0.096118 0.09616019 0.09646621 0.09701042
 0.09771574 0.09845895 0.09911278 0.09957504 0.09976134 0.09960327 0.09908503 0.09827907 0.09732571 0.09636886
 0.09550297 0.0947599 0.09413313 0.09362832 0.09330986 0.09329829 0.093715 0.09462443 0.09601119 0.09777951
 0.09976229 0.1017587 0.1036046 0.1052282 0.1066452 0.1079061 0.1090537 0.110122 0.1111454 0.1121435
 0.1131018 0.1139856 0.1147759 0.1154799 0.1161089 0.1166593 0.1171162 0.1174658 0.1177085 0.1178657
 0.1179744 0.1180707 0.118181 0.1183214 0.1184863 0.1186309 0.1186793 0.1185615 0.118249 0.1177707
 0.1172236 0.1167822 0.1166779 0.1171264 0.1182276 0.1199035 0.1219269 0.1240245 0.1259801 0.127675
 0.1290738 0.1301993 0.1311103 0.1318743 0.1325434 0.1331516 0.133724 0.1342791 0.1348224 0.135349
 0.1358544 0.1363424 0.1368227 0.1373011 0.1377714 0.1382199 0.1386416 0.1390493 0.139465 0.1399012
 0.1403506 0.1407937 0.1412189 0.1416351 0.1420574 0.1424837 0.1428966 0.1432876 0.143667 0.1440505
 0.144448 0.1448607 0.1452752 0.1456638 0.1460064 0.1463141 0.146619 0.1469413 0.1472758 0.1476082
 0.1479333 0.1482546 0.1485748 0.1488962 0.1492267 0.1495712 0.1499155 0.1502294 0.1504981 0.150742
 0.1509978 0.1512845 0.1515917 0.1518968 0.1521885 0.1524782 0.1527896 0.1531327 0.1534878 0.1538191
 0.1541081 0.1543677 0.1546265 0.1549043 0.1552038 0.1555149 0.1558225 0.1561163 0.1563994 0.1566857
 0.1569854 0.1572943 0.1575999 0.1578946 0.1581818 0.1584712 0.1587689 0.1590723 0.1593757 0.1596803
 0.1599932 0.1603156 0.1606347 0.1609312 0.1611925 0.1614215 0.1616366 0.1618607 0.1621072 0.1623738
 0.1626504 0.1629303 0.1632121 0.163497 0.1637865 0.1640814 0.1643795 0.1646754 0.1649646 0.1652471
 0.1655285 0.165816 0.1661105 0.1664021 0.166678 0.1669346 0.1671824 0.1674379 0.1677092 0.1679895
 0.168265 0.1685295 0.1687895 0.1690537 0.1693232 0.1695923 0.1698562 0.1701144 0.1703702 0.1706278
 0.1708887 0.1711493 0.1714067 0.1716623 0.1719194 0.172179 0.1724402 0.1727006 0.1729584 0.1732155
 0.173476 0.1737394 0.1740008 0.1742585 0.1745158 0.174774 0.1750299 0.1752808 0.1755271 0.1757704
 0.1760135 0.1762599 0.1765112 0.1767662 0.1770209 0.1772723 0.1775218 0.1777747 0.1780327 0.1782901
 0.178542 0.178792 0.1790482 0.1793149 0.1795876 0.179855 0.180107 0.1803477 0.1805925 0.1808518
 0.1811222 0.1813951 0.1816648 0.181928 0.1821835 0.1824309 0.1826674 0.1828935 0.1831176 0.1833489
 0.1835866 0.183825 0.184062 0.1842979 0.1845348 0.1847784 0.1850333 0.1852956 0.1855589 0.1858193
 0.1860729 0.1863153 0.1865486 0.18678 0.187017 0.1872672 0.1875355 0.1878161 0.1880975 0.188374
 0.1886422 0.1888993 0.1891536 0.1894214 0.1897044 0.1899846 0.1902488 0.1905006 0.1907504 0.1910067
 0.1912732 0.1915474 0.1918247 0.192102 0.1923742 0.1926361 0.1928937 0.1931567 0.1934232 0.1936861
 0.1939483 0.1942125 0.1944703 0.1947155 0.1949547 0.1951982 0.1954537 0.1957241 0.1959992 0.196263
 0.1965157 0.1967695 0.1970264 0.1972817 0.1975402 0.1978043 0.1980643 0.1983148 0.1985569 0.1987764
 0.1989252 0.1988795 0.1983339 0.1966845 0.1930119 0.1862597 0.1756525 0.1611823 0.1437822 0.1249973
 0.1064174 0.0892603 0.07424583 0.06168557 0.05164668 0.0440621 0.03878886 0.0356984 0.03478288 0.03628125
 0.04081176 0.04899861 0.06008888 0.07074679 0.07636419 0.07469776 0.06800923 0.06100298 0.05692445 0.05600122
 0.05684466 0.05826678 0.05989181 0.061943 0.06479876 0.06855954 0.07303266 0.07820185 0.08445366 0.09207845
 0.1006758 0.1093262 0.1173876 0.1249966 0.1327497 0.1409812 0.1494119 0.1574261 0.1645594 0.1707274
 0.1761262 0.1810181 0.1855835 0.189904 0.19402 0.1979308 0.2015035 0.2044342 0.2063956 0.207287
 0.207353 0.207047 0.2067626 0.2066774 0.2068011 0.207102 0.207564 0.2081774 0.2089248 0.2097763
 0.2106893 0.2116223 0.2125489 0.2134494 0.2143039 0.2151025 0.2158481 0.2165409 0.2171743 0.2177473
 0.2182679 0.2187448 0.2191863 0.2196047 0.2200121 0.2204149 0.2208136 0.2212024 0.2215709 0.2219126
 0.2222282 0.2225188 0.2227845 0.223032 0.2232752 0.2235262 0.2237895 0.2240621 0.2243382 0.224615
 0.2248934 0.2251692 0.2254336 0.2256878 0.2259472 0.2262215 0.2265006 0.2267682 0.2270199 0.2272624
 0.2275055 0.2277581 0.2280225 0.2282923 0.228561 0.2288314 0.2291115 0.2294036 0.2296991 0.2299841
 0.2302559 0.2305305 0.2308245 0.2311338 0.2314437 0.2317518 0.2320618 0.2323679 0.2326639 0.2329552
 0.2332422 0.2335075 0.2337384 0.2339549 0.2341993 0.234499 0.2348413 0.2351863 0.2355047 0.2358007
 0.2360927 0.2363876 0.236677 0.236952 0.2372168 0.2374993 0.2378336 0.2382178 0.2386089 0.2389719
 0.23931 0.2396389 0.2399684 0.2403114 0.2406683 0.2410025 0.2412716 0.2414927 0.2417488 0.2421183
 0.242599 0.2431038 0.2435408 0.2438933 0.2442135 0.2445589 0.2449558 0.2453757 0.2457078 0.2458336
 0.2458031 0.2458664 0.2462444 0.24691 0.2476503 0.2482887 0.2487933 0.2492197 0.2496173 0.249982
 0.2502628 0.2504151 0.2504821 0.2506246 0.2510145 0.2516572 0.2523692 0.2529694 0.2534274 0.2538009
 0.2541336 0.2544461 0.2546899 0.2546883 0.2543191 0.2538305 0.2537732 0.2544684 0.255649 0.2567478
 0.2574636 0.257916 0.2583209 0.2587225 0.2590604 0.2592292 0.258957 0.2579573 0.2564945 0.2555414
 0.2559733 0.2576844 0.2597619 0.2614 0.2624002 0.2629607 0.263331 0.2636503 0.2638393 0.2635983
 0.2627448 0.2616675 0.2612287 0.2619654 0.2634851 0.2648877 0.2656846 0.2660533 0.2663535 0.2667275
 0.2670084 0.2666673 0.2651106 0.2625545 0.2604692 0.2605419 0.263025 0.2664346 0.2690248 0.2702882
 0.2708124 0.2709931 0.2704486 0.2687041 0.2659068 0.2627586 0.2603012 0.2597744 0.2617896 0.2653034
 0.2682145 0.2694388 0.2698221 0.2707472 0.2724886 0.2742314 0.2751332 0.2749684 0.2739807 0.2724322
 0.2704845 0.2686296 0.2679379 0.2693004 0.2723519 0.2756054 0.2778256 0.2789651 0.2795138 0.2790512
 0.2759579 0.2693647 0.2615811 0.2574477 0.2600548 0.2675114 0.2749831 0.2794477 0.281335 0.2822486
 0.2828203 0.2825413 0.2800495 0.273872 0.2647492 0.2570921 0.2559943 0.2621948 0.2712423 0.2776493
 0.2786278 0.2743861 0.2671466 0.2604826 0.2578521 0.2605015 0.2669317 0.2743834 0.2804835 0.2838842
 0.2842646 0.282221 0.279215 0.2772032 0.2772233 0.2778582 0.2763113 0.2719426 0.2673421 0.2645245
 0.2618037 0.2568988 0.2519301 0.2520035 0.2585766 0.2670296 0.2718597 0.2722539 0.2710936 0.2697046
 0.2655828 0.2560016 0.2431767 0.2343402 0.2354057 0.2448348 0.2550114 0.2596809 0.2589073 0.2568489
 0.2562063 0.2554948 0.2511979 0.2423965 0.2330805 0.2288126 0.2308411 0.2349959 0.2366312 0.2343438
 0.2283462 0.218949 0.2092022 0.2058601 0.2136437 0.2294199 0.2446675 0.2524997 0.2501721 0.2375359
 0.2179502 0.2002162 0.1942827 0.2023571 0.2162288 0.2248313 0.2230302 0.2125145 0.1970166 0.1797476
 0.1648224 0.1577094 0.1619293 0.1754557 0.1909211 0.1993533 0.1951177 0.180223 0.1645258 0.1586317
 0.1643374 0.1734943 0.1771664 0.1737188 0.1674894 0.1631252 0.1628747 0.166346 0.1709651 0.1743362
 0.1761421 0.1755602 0.1687128 0.1533889 0.1353863 0.1247029 0.1251284 0.1323048 0.1417692 0.1529099
 0.163783 0.1684189 0.1635703 0.1549021 0.1521644 0.1588426 0.1691806 0.1752158 0.174649 0.1712221
 0.1689162 0.1677032 0.165562 0.1630801 0.1636199 0.1686307 0.1750771 0.1788174 0.1789184 0.1772695
 0.175405 0.1733679 0.1707947 0.167588 0.1638192 0.1598183 0.1560931 0.1527773 0.1495445 0.146166
 0.1424981 0.1377365 0.1306317 0.1213336 0.1124952 0.1072156 0.1058246 0.1060566 0.1064 0.1070346
 0.1067636 0.1020735 0.09183154 0.08116206 0.07771058 0.08426231 0.09668949 0.1085929 0.1160508 0.1178784
 0.1138591 0.1053361 0.09726778 0.09662613 0.1065967 0.1234722 0.1406794 0.1544623 0.1641641 0.1690329
 0.167852 0.161627 0.1545762 0.1517467 0.1559888 0.1666254 0.1795248 0.1880437 0.1863031 0.1751567
 0.1649555 0.167892 0.1850698 0.2044967 0.2145559 0.215813 0.2161359 0.2184807 0.2195028 0.2182997
 0.2198128 0.2280633 0.2402086 0.2493161 0.2504063 0.2423912 0.227429 0.2113907 0.2023048 0.20395
 0.2116441 0.2174157 0.2177574 0.2131256 0.2031863 0.1887449 0.176718 0.1759506 0.1868955 0.2004728
 0.2083863 0.2106534 0.2118065 0.2131809 0.2114406 0.2037474 0.1924621 0.1836347 0.1809809 0.1826297
 0.1842749 0.1837357 0.1810247 0.1758047 0.1675905 0.1583202 0.1523675 0.1528182 0.1584284 0.1649412
 0.1690269 0.1704471 0.1709302 0.1719984 0.1739098 0.1758709 0.1772258 0.1789915 0.1836415 0.1922705
 0.2025658 0.2110706 0.2171355 0.2230975 0.2306241 0.2383338 0.2433831 0.2445313 0.2433681 0.2430223
 0.2457055 0.250944 0.2559022 0.2577983 0.2565514 0.255098 0.2566717 0.2616858 0.2676524 0.2719777
 0.2740825 0.274891 0.2753233 0.275578 0.2750865 0.273042 0.2697609 0.2674775 0.2687755 0.2739719
 0.2807163 0.2862762 0.2896265 0.2913117 0.292042 0.2919187 0.2908155 0.2890632 0.2874907 0.2868066
 0.2871162 0.2880729 0.289284 0.2904771 0.2914808 0.29224 0.2928136 0.2932984 0.2937863 0.294372
 0.2950901 0.2958378 0.2964601 0.2969523 0.2974899 0.2982035 0.2989916 0.2996241 0.2999585 0.2999455
 0.2994913 0.298482 0.2969585 0.2951207 0.2931122 0.2909313 0.2886733 0.286804 0.2860293 0.2867728
 0.2887726 0.2912254 0.2933053 0.2945541 0.2949475 0.294799 0.2945965 0.2947253 0.2952144 0.2957724
 0.2960843 0.2960424 0.2957175 0.2952036 0.2945443 0.2937579 0.2928442 0.2917359 0.2903286 0.288671
 0.2871218 0.2861781 0.286047 0.286428 0.2867917 0.2868466 0.2866813 0.2865016 0.2863315 0.2859778
 0.285218 0.2840176 0.2826216 0.2814206 0.2806503 0.280201 0.2797534 0.2790846 0.2782121 0.2772823
 0.2764 0.2755701 0.2747386 0.2738478 0.2728548 0.2717192 0.2704059 0.2689142 0.2672879 0.2655832
 0.2638328 0.2620457 0.2602195 0.2583405 0.2563838 0.254328 0.2521701 0.2499288 0.2476354 0.2453133
 0.2429459 0.2404497 0.2376844 0.2344953 0.2307542 0.2263825 0.2213762 0.2158371 0.2099725 0.2040423
 0.1982843 0.1928639 0.1878718 0.1833658 0.1794179 0.1761159 0.1735272 0.1716789 0.1705767 0.1702187
 0.1705861 0.1716307 0.1732748 0.1754144 0.1779187 0.1806231 0.1833298 0.1858457 0.188062 0.190009
 0.1918147 0.1935923 0.1953609 0.1970714 0.1986854 0.2001997 0.2015956 0.2028036 0.2037481 0.2044071
 0.2048084 0.2049846 0.2049491 0.2046987 0.2042208 0.2035038 0.2025647 0.2015045 0.2005742 0.2001659
 0.2006452 0.2021113 0.2042954 0.2067076 0.2089106 0.2107059 0.2121265 0.2132995 0.2143276 0.2152707
 0.2161896 0.2171798 0.2183778 0.2199394 0.2219866 0.2245521 0.2275628 0.2308621 0.2342452 0.2375046
 0.2404748 0.2430536 0.2451991 0.2469243 0.2482827 0.2493381 0.2501382 0.2507146 0.2510934 0.2513033
 0.2513775 0.251345 0.251213 0.2509716 0.2506174 0.2501611 0.2496134 0.2489823 0.2482829 0.2475422
 0.2467906 0.2460494 0.2453245 0.244612 0.2439088 0.2432087 0.2424907 0.2417265 0.2409003 0.2400153
 0.2390814 0.2380996 0.237049 0.2358906 0.2345932 0.2331529 0.2315769 0.2298634 0.2280163 0.22607
 0.2240935 0.2221697 0.2203611 0.2186744 0.2170566 0.2154233 0.2136827 0.2117489 0.2095852 0.207254
 0.2048925 0.2026201 0.2004717 0.1984142 0.1964062 0.1944371 0.1925219 0.1906733 0.1888939 0.1871941
 0.1855957 0.1841051 0.1826995 0.1813498 0.1800466 0.1788055 0.1776562 0.1766247 0.1757212 0.1749406
 0.1742688 0.1736823 0.1731627 0.1727216 0.1723879 0.1721509 0.1719351 0.1716494 0.1712545 0.1707799
 0.1702901 0.1698323 0.1694081 0.1689943 0.1685763 0.1681411 0.1676416 0.1669875 0.1660732 0.164819
 0.1632065 0.1612847 0.1591417 0.1568852 0.1546515 0.15259 0.1508085 0.1493432 0.1481794 0.1472669
 0.1465247 0.1458788 0.145311 0.1448588 0.1445714 0.1444539 0.1444245 0.1443462 0.1441492 0.1439188
 0.1438277 0.1439915 0.1443968 0.1449308 0.1454562 0.1458808 0.146173 0.1463248 0.1463337 0.1462247
 0.1460432 0.1458116 0.1455215 0.1451586 0.1447157 0.144196 0.143616 0.1429849 0.1422878 0.1415118
 0.1406645 0.1397493 0.1387569 0.1376794 0.1364935 0.1351683 0.133765 0.1324992 0.1316353 0.1313233
 0.1315363 0.132109 0.1328409 0.1336086 0.1343412 0.1348707 0.1349804 0.1347483 0.1347207 0.1355201
 0.1372482 0.1393706 0.1411892 0.1423323 0.1427932 0.1426808 0.1420816 0.1410609 0.1396254 0.1377189
 0.1353492 0.1326449 0.1297464 0.1267651 0.1238617 0.1212121 0.1189119 0.1169987 0.1154919 0.1144286
 0.113895 0.1135009 0.1114896 0.1056587 0.09675661 0.08998952 0.0906654 0.09824151 0.1066996 0.1109117
 0.1107396 0.1089323 0.1074015 0.1064599 0.1060333 0.1062634 0.1072575 0.1088363 0.1105573 0.1119731
 0.1129096 0.1134208 0.1134785 0.1127484 0.1105613 0.1061483 0.09926931 0.09076958 0.08229727 0.07534271
 0.07057038 0.06784809 0.06658247 0.0660614 0.0657907 0.06569459 0.06601313 0.0670026 0.06872788 0.07109687
 0.07397737 0.0771533 0.08022617 0.08278472 0.08472769 0.0862558 0.08751987 0.08844248 0.0888969 0.08888825
 0.08851905 0.0878973 0.08711945 0.08626686 0.08536182 0.08435525 0.08323565 0.08216663 0.08141726 0.0810982
 0.08105819 0.08108744 0.08110975 0.08113617 0.0811595 0.08115445 0.08111583 0.08109081 0.08119476 0.08152336
 0.08201643 0.08248609 0.08279662 0.08295768 0.08305263 0.08310422 0.08299074 0.08255866 0.08189614 0.08133997
 0.08103037 0.08063447 0.07977982 0.07863933 0.07780783 0.07765149 0.07799487 0.07840413 0.07857842 0.07846938
 0.07822506 0.07812092 0.07839998 0.07900214</values></Ydata></ScSm><ScRf><Ydata ylabel="Single channel"><values byteorder="INTEL" format="FLOAT32" numvalues="1820"> 0.06062672 0.06078512 0.06087624 0.06090037 0.06088898 0.06089351 0.06096166 0.06110977 0.06131032 0.06150512
 0.06164185 0.06170817 0.06172271 0.06169722 0.06163768 0.0615859 0.06161608 0.06176271 0.06196933 0.06212544
 0.06215603 0.06208969 0.06204329 0.06210745 0.06222471 0.06220905 0.06192346 0.06143666 0.06097399 0.06070798
 0.06065395 0.06080632 0.06124658 0.06192712 0.06243093 0.0622692 0.06149373 0.0607313 0.06048885 0.06066492
 0.06083824 0.06075798 0.06042612 0.05999865 0.05982305 0.06034632 0.06167585 0.0632132 0.06386805 0.06274825
 0.05979966 0.05600455 0.0530155 0.05226918 0.05397522 0.05682988 0.05899285 0.05955427 0.05897105 0.05813501
 0.05741269 0.05675679 0.0563289 0.0565431 0.05749408 0.058561 0.05872543 0.05744739 0.05531117 0.05360886
 0.05315745 0.05378692 0.05503736 0.05666054 0.05791378 0.05715559 0.05346008 0.04866627 0.04656303 0.04928863
 0.05504751 0.0598637 0.06111911 0.05902858 0.05548876 0.05249997 0.05140391 0.05252754 0.0551375 0.05804878
 0.06033735 0.06137712 0.06068359 0.0583389 0.05540161 0.05339193 0.05336152 0.05548377 0.059012 0.0623434
 0.06375118 0.06266268 0.06003766 0.05735366 0.055636 0.05546509 0.05711975 0.06028548 0.064037 0.06737538
 0.06963329 0.07054102 0.07028851 0.06941017 0.06837717 0.06750645 0.06723847 0.0678722 0.06883929 0.068916
 0.06755602 0.06562817 0.064527 0.06473078 0.06541726 0.06546102 0.06457405 0.06312214 0.06100638 0.05763458
 0.05327556 0.04942985 0.04732808 0.04699212 0.04812754 0.05059873 0.05336932 0.05444024 0.05303379 0.05098873
 0.05092953 0.0534643 0.05687283 0.05921233 0.06011897 0.06067138 0.06200389 0.06414601 0.06587633 0.06564108
 0.0630932 0.0599618 0.05883205 0.060608 0.06364296 0.06576754 0.06657955 0.06720482 0.06832482 0.0691158
 0.06810874 0.0649391 0.06127701 0.05978805 0.06180836 0.06600752 0.06935669 0.06936479 0.06575094 0.06050891
 0.05635684 0.05485611 0.05599719 0.05924196 0.06412102 0.06967375 0.07419392 0.07618528 0.0754493 0.0730131
 0.06995416 0.0663998 0.06207797 0.05796731 0.05650867 0.05930001 0.06505261 0.07066421 0.07398726 0.07490039
 0.07410064 0.07177792 0.06782311 0.06312931 0.0600179 0.06043392 0.06360289 0.06646722 0.06688613 0.06559011
 0.06461397 0.06476288 0.06530736 0.06554255 0.06580249 0.0668909 0.06892485 0.07103676 0.07221168 0.0722045
 0.0715781 0.07105052 0.07084426 0.07052232 0.06960641 0.06853766 0.06862374 0.07060578 0.07363727 0.07615322
 0.07743886 0.07788981 0.07796416 0.07737519 0.07550023 0.07254407 0.07002412 0.06964817 0.07166111 0.07468459
 0.0771504 0.07843393 0.07871562 0.07841084 0.07788461 0.07733645 0.07686447 0.07671607 0.07722178 0.0783194
 0.07945177 0.08012499 0.08031106 0.08019042 0.0797976 0.07910578 0.07828877 0.07771606 0.07768309 0.07819121
 0.07900099 0.07984675 0.08052674 0.08085588 0.08073002 0.08027781 0.07978968 0.07945211 0.07927539 0.07927303
 0.07952732 0.08002584 0.08057921 0.08097918 0.0811635 0.0811885 0.08111373 0.08096283 0.08076051 0.08057362
 0.08051044 0.08064775 0.08093496 0.08122337 0.08143647 0.08164668 0.08191847 0.08215149 0.08218284 0.08200535
 0.08178831 0.08169551 0.08175221 0.08188015 0.08198646 0.0819871 0.08180271 0.0814254 0.08100801 0.08080738
 0.08098298 0.08148527 0.08214504 0.08279328 0.08328876 0.08354764 0.08360403 0.0835712 0.08351026 0.08338918
 0.0831828 0.08296686 0.08289437 0.08308062 0.08349726 0.08398344 0.08437361 0.08460055 0.08469045 0.08472602
 0.08481617 0.08501071 0.0852199 0.08529606 0.08521737 0.08512375 0.0851496 0.08527441 0.08536339 0.08533004
 0.08523569 0.08522375 0.08536553 0.0855957 0.08580402 0.08595818 0.08611473 0.08632275 0.08653353 0.08662187
 0.08651708 0.08630025 0.08612891 0.08607484 0.08609428 0.08615053 0.08628027 0.08650497 0.08674403 0.08687797
 0.08688034 0.08684222 0.08685976 0.08692456 0.08694217 0.08684437 0.08666079 0.08648568 0.08639828 0.08641586
 0.08649673 0.08657178 0.08658509 0.08652458 0.08642018 0.08631045 0.0862156 0.0861523 0.08616538 0.08630846
 0.08656563 0.0868093 0.0868776 0.08671604 0.0864353 0.08621488 0.086144 0.08615644 0.08611502 0.0859468
 0.08569157 0.08543863 0.08524382 0.08510773 0.08500604 0.08492362 0.08487315 0.08489376 0.08501109 0.08517586
 0.08526257 0.08517021 0.08492342 0.08464787 0.08445461 0.08437195 0.08436482 0.08438002 0.08438724 0.08440589
 0.08447105 0.08455685 0.08457769 0.08449325 0.08436947 0.08431198 0.08437796 0.08455938 0.08479229 0.08496683
 0.08499253 0.08488888 0.08477548 0.08475204 0.08481666 0.08490857 0.08499096 0.0850687 0.08515349 0.08524714
 0.08535865 0.08551383 0.08573327 0.08600128 0.08626133 0.0864519 0.08656003 0.08664437 0.08679338 0.08704995
 0.08737583 0.08768862 0.08792995 0.08810503 0.08826385 0.08844484 0.08864307 0.08884293 0.08906445 0.08934544
 0.08968304 0.09002793 0.09033993 0.09062246 0.09089963 0.0911833 0.09147193 0.09177279 0.09211586 0.09252832
 0.09298118 0.09337936 0.09363681 0.09376292 0.09386078 0.0940471 0.09437193 0.09478109 0.09514115 0.09534419
 0.09541911 0.09550859 0.09570964 0.09597434 0.09620496 0.09640764 0.09668966 0.09711067 0.09759132 0.09798886
 0.09823579 0.0983873 0.0985461 0.09875439 0.09896091 0.09909394 0.0991548 0.09921525 0.09932795 0.09948488
 0.09967953 0.09995407 0.1003383 0.1007772 0.1011694 0.1014606 0.1016644 0.1018141 0.1019297 0.1020165
 0.1020683 0.1020867 0.1021083 0.102182 0.1023029 0.1024061 0.1024483 0.1024652 0.1025261 0.1026634
 0.1028729 0.1031464 0.1034616 0.1037644 0.1040165 0.1042602 0.1045777 0.1049671 0.1053099 0.1054977
 0.1055502 0.1055654 0.105594 0.1056277 0.1056837 0.1058239 0.1060799 0.1064119 0.1067603 0.1071034
 0.1074494 0.107795 0.1081055 0.1083305 0.108439 0.108447 0.1084178 0.1084337 0.108559 0.1088088
 0.1091373 0.1094668 0.1097366 0.1099216 0.1100093 0.1099956 0.109925 0.1099006 0.1100048 0.1102041
 0.1103622 0.1103529 0.1101421 0.1097638 0.1092548 0.1086394 0.1079626 0.1073048 0.1067503 0.1063487
 0.1061162 0.1060747 0.1062687 0.1067197 0.1073666 0.1080791 0.1087344 0.1092543 0.1095651 0.1095785
 0.1092542 0.1086592 0.107931 0.1071924 0.1065119 0.1059034 0.1053332 0.1047614 0.1042254 0.1038771
 0.1039115 0.1044519 0.1054915 0.1069007 0.1084642 0.1099482 0.1111927 0.1121726 0.1129686 0.1136772
 0.1143485 0.1150008 0.1156541 0.1163175 0.1169573 0.117521 0.1179954 0.1184146 0.1188117 0.1191862
 0.1195177 0.1197891 0.1200062 0.1202056 0.120423 0.1206357 0.1207668 0.120768 0.120673 0.1205495
 0.1204208 0.1202519 0.1199913 0.1196159 0.1191641 0.1187567 0.118578 0.1187985 0.1194777 0.1205254
 0.1217696 0.1230678 0.1243405 0.1255109 0.1264718 0.1271512 0.127584 0.1278823 0.128147 0.128425
 0.1287248 0.1290382 0.1293502 0.1296469 0.1299273 0.1302082 0.1305162 0.1308624 0.1312162 0.1315235
 0.1317622 0.131976 0.1322393 0.1325875 0.1329837 0.1333564 0.1336744 0.1339726 0.1342918 0.1346098
 0.1348662 0.1350478 0.1352113 0.1354228 0.1357073 0.1360508 0.1364127 0.136734 0.1369727 0.1371443
 0.1373077 0.1375069 0.1377435 0.1379996 0.138264 0.1385302 0.1387903 0.1390458 0.1393153 0.1396115
 0.1399084 0.1401516 0.1403163 0.1404408 0.1405897 0.1407901 0.1410152 0.1412244 0.1414119 0.1416173
 0.1418876 0.1422222 0.1425591 0.1428238 0.1429926 0.1431025 0.1432106 0.1433522 0.1435328 0.1437412
 0.1439625 0.1441836 0.1443986 0.1446117 0.1448322 0.1450615 0.145289 0.145504 0.1457068 0.1459055
 0.1461058 0.1463086 0.1465188 0.1467521 0.1470249 0.1473285 0.1476216 0.14786 0.1480337 0.1481665
 0.1482872 0.1484131 0.1485547 0.1487199 0.148911 0.1491219 0.1493405 0.1495542 0.1497577 0.1499555
 0.150155 0.1503583 0.1505632 0.1507693 0.150981 0.1512044 0.1514399 0.1516768 0.1518991 0.1520981
 0.1522796 0.1524599 0.1526551 0.1528684 0.1530843 0.1532825 0.1534604 0.1536349 0.1538215 0.1540192
 0.1542159 0.1544023 0.1545786 0.1547528 0.1549336 0.155124 0.1553216 0.1555233 0.1557283 0.1559372
 0.1561506 0.1563669 0.1565814 0.1567896 0.1569904 0.157185 0.1573749 0.1575637 0.1577564 0.1579547
 0.1581555 0.1583539 0.1585467 0.158736 0.1589269 0.1591219 0.1593196 0.1595217 0.1597311 0.1599405
 0.1601361 0.1603155 0.160494 0.1606881 0.160902 0.1611292 0.1613592 0.1615828 0.1617959 0.1620006
 0.1622023 0.1624074 0.1626211 0.1628437 0.1630712 0.1632987 0.1635205 0.1637307 0.1639265 0.1641113
 0.1642908 0.1644714 0.1646569 0.1648444 0.1650267 0.1652027 0.1653795 0.1655611 0.1657455 0.1659327
 0.1661256 0.1663236 0.1665246 0.1667276 0.166931 0.1671329 0.1673351 0.1675399 0.1677461 0.1679533
 0.1681629 0.1683732 0.1685792 0.1687792 0.1689748 0.1691698 0.1693707 0.1695814 0.1697964 0.1700069
 0.170213 0.1704184 0.1706229 0.1708266 0.1710328 0.1712428 0.1714561 0.1716744 0.171896 0.1721123
 0.1723177 0.1725153 0.1727111 0.1729104 0.1731165 0.173325 0.1735291 0.1737324 0.1739448 0.1741673
 0.1743954 0.1746281 0.1748596 0.1750777 0.1752821 0.1754855 0.1756955 0.1759119 0.1761354 0.1763618
 0.1765808 0.17679 0.1769927 0.1771771 0.1773007 0.17725 0.1767452 0.1752426 0.1719252 0.1658594
 0.1563583 0.1434103 0.1278392 0.1110208 0.09437893 0.07901073 0.0655681 0.05433474 0.04536903 0.03860207
 0.03389708 0.0311378 0.03032219 0.03166625 0.03571881 0.04303399 0.05294164 0.06246613 0.06748833 0.06599652
 0.06000927 0.05373678 0.05008582 0.04926002 0.05001698 0.0512958 0.05275807 0.0545947 0.05713748 0.06048014
 0.06446021 0.06906803 0.07464754 0.08145744 0.08914292 0.09688235 0.1040946 0.1108949 0.1178181 0.1251696
 0.1327021 0.1398606 0.1462265 0.1517246 0.1565338 0.1608918 0.1649616 0.1688149 0.172483 0.1759618
 0.1791347 0.1817384 0.1834868 0.1842885 0.1843541 0.1840793 0.1838102 0.1837058 0.1837844 0.1840286
 0.1844246 0.1849558 0.1856046 0.1863512 0.1871605 0.1879887 0.1888053 0.1895951 0.1903477 0.1910568
 0.1917216 0.1923374 0.1928964 0.1933989 0.1938533 0.1942698 0.1946593 0.1950317 0.19539 0.1957333
 0.1960633 0.1963795 0.1966757 0.1969481 0.1971992 0.197432 0.1976484 0.1978562 0.1980651 0.1982781
 0.1984925 0.1987048 0.1989113 0.1991113 0.1993113 0.199519 0.199735 0.1999529 0.2001649 0.2003644
 0.2005502 0.2007311 0.2009186 0.2011161 0.2013185 0.2015202 0.2017173 0.2019088 0.2020978 0.2022876
 0.2024778 0.2026689 0.2028653 0.2030675 0.2032702 0.2034729 0.2036821 0.2039003 0.2041231 0.2043468
 0.2045675 0.2047787 0.2049803 0.2051812 0.2053811 0.2055618 0.2057101 0.2058442 0.2060048 0.2062176
 0.206469 0.2067202 0.206944 0.2071427 0.2073316 0.2075202 0.2077083 0.2078898 0.208061 0.2082385
 0.2084544 0.2087188 0.2090023 0.2092694 0.2095117 0.209737 0.2099541 0.210174 0.2103975 0.2105975
 0.2107436 0.2108536 0.2109994 0.2112499 0.2116035 0.2119811 0.2122969 0.212535 0.2127444 0.2129795
 0.2132634 0.2135665 0.2137879 0.2138237 0.2137205 0.2137016 0.2139642 0.2144821 0.2150595 0.2155343
 0.2158831 0.2161674 0.2164351 0.2166708 0.2168155 0.216834 0.2167838 0.2168196 0.2170887 0.2175867
 0.2181489 0.2186127 0.2189426 0.2191804 0.2193628 0.2195165 0.2196175 0.2195317 0.2191575 0.2186946
 0.2185992 0.2191387 0.2200856 0.2209609 0.2215117 0.2218359 0.2221098 0.2223733 0.2225893 0.2226787
 0.222403 0.2214985 0.2201784 0.2192805 0.219574 0.2209825 0.2227154 0.2240604 0.224837 0.2252258
 0.2254584 0.2256609 0.2257607 0.2254971 0.2247148 0.2237449 0.2233189 0.2238931 0.2251371 0.2262877
 0.2269273 0.2272014 0.2274125 0.2276818 0.2278677 0.2275177 0.2261226 0.2238691 0.2220218 0.2220313
 0.2241137 0.2269914 0.2291599 0.2301808 0.2305649 0.2306635 0.2301534 0.228622 0.2261876 0.2234457
 0.2212819 0.2207541 0.2223923 0.2253194 0.2277504 0.2287564 0.2290492 0.2298044 0.2312586 0.2327159
 0.2334493 0.2332622 0.2323714 0.231012 0.2293226 0.2277139 0.2270916 0.2282149 0.2307761 0.233512
 0.2353692 0.2363002 0.2367183 0.2362715 0.2335929 0.227947 0.2212905 0.2177317 0.2199063 0.2262212
 0.2325664 0.2363581 0.2379559 0.2387262 0.2392007 0.2389352 0.2367738 0.2314779 0.2236854 0.2171486
 0.2162 0.221464 0.2291479 0.2345862 0.2354161 0.2318168 0.2256735 0.22002 0.2177987 0.2200747
 0.2255732 0.2319364 0.2371356 0.2400323 0.2403705 0.2386589 0.23613 0.2344462 0.2344983 0.2350859
 0.2338283 0.2301727 0.2263132 0.2239671 0.2217114 0.2176074 0.2134529 0.2136007 0.2193068 0.226635
 0.2308817 0.2313463 0.2304888 0.2294433 0.2260708 0.2180334 0.2072166 0.199823 0.2009511 0.2093013
 0.2183362 0.2226898 0.2224365 0.2211646 0.2211907 0.2211959 0.2180777 0.2109967 0.2034378 0.2002868
 0.2026301 0.2067808 0.2086414 0.206972 0.2019542 0.1938764 0.1854841 0.1828305 0.1901751 0.2047749
 0.2190319 0.226746 0.2253792 0.2147048 0.1977092 0.1824245 0.1780131 0.1865547 0.200516 0.2096824
 0.209261 0.2007226 0.187438 0.1723836 0.1595483 0.1543638 0.1604542 0.1759642 0.1935618 0.2040618
 0.2015077 0.1878394 0.1733501 0.1692768 0.177537 0.1893761 0.1951593 0.1931101 0.1879365 0.1847938
 0.1863252 0.1921663 0.1993237 0.2049949 0.2088078 0.2096516 0.2026661 0.1850792 0.163938 0.1514672
 0.1523747 0.1614389 0.1732899 0.1872357 0.2008897 0.2068498 0.201046 0.1904477 0.1871316 0.1954559
 0.2083272 0.2158806 0.2152478 0.2110842 0.2083925 0.2072 0.2050356 0.2026835 0.2044035 0.2120465
 0.221821 0.2285271 0.2309705 0.2314951 0.2320062 0.2325231 0.2325245 0.2318214 0.2304738 0.2289244
 0.2278731 0.2274936 0.2272708 0.2267913 0.2257238 0.2226072 0.215163 0.2034854 0.1920783 0.1862894
 0.1866431 0.1891962 0.1914123 0.1936422 0.1936392 0.1850219 0.1656942 0.1447558 0.1358836 0.1441182
 0.1621068 0.1784851 0.1865855 0.1850157 0.1742635 0.1568941 0.140258 0.1341923 0.1430013 0.16133
 0.1798896 0.1934601 0.2014816 0.2036172 0.1987749 0.1882713 0.1770989 0.1710711 0.1732838 0.1827539
 0.1947456 0.2019916 0.1982533 0.184519 0.1717302 0.1727075 0.1887041 0.2073221 0.2164505 0.2165333
 0.2156502 0.2169576 0.2171198 0.2151358 0.2158882 0.2234468 0.2350884 0.2439871 0.2452185 0.2377087
 0.223594 0.2087077 0.2010628 0.2043944 0.2138457 0.2211947 0.2227829 0.219033 0.2096021 0.1954206
 0.1838306 0.1841719 0.1969616 0.2126721 0.2225547 0.2266114 0.2296246 0.2329319 0.2328084 0.2261185
 0.2155561 0.2079824 0.2076372 0.2124345 0.217503 0.2203279 0.2207621 0.2181005 0.2115266 0.2034515
 0.1995441 0.203798 0.2143731 0.2252894 0.2317537 0.2331529 0.2316575 0.2294004 0.2270413 0.2239401
 0.2195809 0.2154131 0.2145679 0.2185195 0.2247478 0.2293326 0.2314417 0.233606 0.2377368 0.2424911
 0.2449083 0.2436449 0.2402527 0.2378209 0.2384917 0.241762 0.2448621 0.2451172 0.2424876 0.2398453
 0.2403339 0.244375 0.2496148 0.2536033 0.2557882 0.2570036 0.2580346 0.2589297 0.258962 0.2571761
 0.2537408 0.2507417 0.2507045 0.2540928 0.2588711 0.2626138 0.2644637 0.2649937 0.264877 0.2641821
 0.2627657 0.2609119 0.2593501 0.2586828 0.2589511 0.2597756 0.2607492 0.2616201 0.2622757 0.2627174
 0.2630171 0.2632277 0.2633616 0.2634496 0.263529 0.263566 0.2634948 0.2633683 0.2633681 0.263598
 0.2639388 0.2641725 0.2641795 0.2639328 0.2633706 0.2624158 0.2611206 0.2596574 0.2581241 0.2564734
 0.2547518 0.2533621 0.2529402 0.25387 0.2559241 0.2584054 0.2606215 0.2622241 0.2632036 0.2637089
 0.263915 0.2639663 0.2639465 0.2638742 0.2637356 0.2635218 0.2632383 0.2628943 0.2625005 0.2620819
 0.2616826 0.2613425 0.2610619 0.2607946 0.2604812 0.2600861 0.259611 0.2590849 0.2585387 0.2579749
 0.2573553 0.2566262 0.2557622 0.2547939 0.2538012 0.2528718 0.2520433 0.251282 0.2505261 0.2497351
 0.2488788 0.2479047 0.2467817 0.2455854 0.244484 0.2436016 0.2429164 0.2423063 0.2416586 0.2409147
 0.2400551 0.2390915 0.2380647 0.2370157 0.2359525 0.2348524 0.2336843 0.2324254 0.23107 0.2296288
 0.2281152 0.2265384 0.2249169 0.223277 0.2216131 0.2198547 0.217883 0.2155694 0.2127962 0.2094701
 0.2055535 0.2011026 0.1962739 0.1912867 0.1863587 0.1816606 0.1773152 0.173421 0.1700662 0.1673248
 0.1652471 0.1638558 0.1631572 0.1631582 0.1638617 0.165239 0.1672137 0.1696715 0.1724722 0.1754507
 0.1784282 0.1812464 0.183819 0.1861637 0.1883708 0.1905077 0.1925522 0.1944277 0.1960839 0.1975185
 0.1987412 0.1997566 0.2005806 0.2012515 0.2018151 0.2023045 0.2027362 0.2031188 0.2034569 0.2037416
 0.2039564 0.2041082 0.2042425 0.2044101 0.2046268 0.2048773 0.2051492 0.2054533 0.205816 0.206253
 0.2067479 0.2072643 0.2077841 0.2083256 0.2089207 0.2095892 0.2103408 0.2111897 0.2121568 0.2132579
 0.2144906 0.2158273 0.2172125 0.2185628 0.2197809 0.2207848 0.2215326 0.2220218 0.2222786 0.2223509
 0.2222893 0.222121 0.2218479 0.2214708 0.2210056 0.2204722 0.2198848 0.219254 0.2185882 0.2178932
 0.2171776 0.21646 0.2157646 0.2151057 0.2144759 0.2138547 0.2132297 0.2126046 0.2119882 0.2113857
 0.2108019 0.2102386 0.2096841 0.2091178 0.208528 0.207913 0.2072615 0.2065446 0.2057353 0.2048262
 0.2038243 0.2027326 0.2015454 0.2002594 0.1988822 0.197427 0.1959029 0.1943148 0.1926654 0.1909464
 0.1891318 0.1872005 0.1851802 0.1831575 0.1812277 0.1794327 0.1777543 0.1761587 0.1746342 0.1731906
 0.1718348 0.1705537 0.1693243 0.1681409 0.1670184 0.1659642 0.1649668 0.1640179 0.1631313 0.1623283
 0.1616189 0.1610011 0.1604673 0.1600063 0.1596048 0.1592535 0.1589618 0.1587678 0.1587088 0.1587664
 0.1588597 0.1589039 0.158861 0.1587402 0.1585803 0.1584285 0.1583107 0.1582237 0.1581545 0.1580827
 0.1579515 0.1576624 0.1571145 0.1562442 0.1550402 0.1535394 0.1518148 0.1499716 0.1481453 0.1464675
 0.1450167 0.1438233 0.1429046 0.1422502 0.1417872 0.1414164 0.1410984 0.1408836 0.1408557 0.1410316
 0.141298 0.1414793 0.141507 0.1414979 0.1416405 0.1420405 0.1426763 0.1434418 0.1442116 0.1448997
 0.1454654 0.1458762 0.146115 0.14622 0.1462521 0.1462266 0.1461198 0.1459233 0.1456538 0.145335
 0.1449829 0.1445832 0.1440979 0.1435146 0.1428542 0.1421231 0.1413108 0.1404136 0.1394041 0.1382372
 0.1369726 0.1358394 0.1351129 0.134958 0.1353766 0.1362202 0.1372694 0.1383671 0.1394181 0.1402394
 0.1406079 0.1406088 0.1408054 0.1418413 0.1438328 0.1462394 0.1483466 0.1497847 0.1505475 0.1506996
 0.1502667 0.1493081 0.1478741 0.1459388 0.143512 0.1407216 0.1377127 0.1346155 0.1316317 0.1289692
 0.1267138 0.1248734 0.1234496 0.1224842 0.1221032 0.1219318 0.1200715 0.1140839 0.1047469 0.09773685
 0.09885326 0.1075057 0.1171321 0.1221311 0.1223167 0.1206457 0.1191779 0.118233 0.1177034 0.1177224
 0.1184072 0.1196132 0.1209703 0.1220997 0.1228402 0.1232166 0.1231726 0.122338 0.1199682 0.1152019
 0.1077521 0.09850472 0.08922844 0.08155185 0.07621651 0.07308525 0.07151759 0.07074644 0.07023837 0.06993568
 0.07015613 0.07121529 0.07315758 0.07582474 0.07903111 0.08253235 0.08591764 0.08876774 0.09096165 0.09268014
 0.09408589 0.09513088 0.09568643 0.09572871 0.09535594 0.09471216 0.09393595 0.09311645 0.0922333 0.09118041
 0.08994506 0.08875473 0.08792771 0.08755678 0.08744968 0.08738776 0.08731579 0.0872706 0.08725908 0.08724645
 0.08720226 0.08715747 0.08722915 0.0875281 0.08801993 0.08853124 0.08890002 0.0890895 0.08916636 0.08916184
 0.08894467 0.08833975 0.08744942 0.08666945 0.08619593 0.08569449 0.08472753 0.08340394 0.08233349 0.0819679
 0.08219627 0.08256891 0.08272055 0.08255839 0.08224378 0.08210256 0.0824019 0.08304556 0.08356574 0.08356717
</values></Ydata></ScRf><Data_Parameters_AB><parameter name="DPF">1</parameter><parameter name="NPT">3497</parameter><parameter name="FXV">3996</parameter><parameter name="LXV">500</parameter><parameter name="CSF">1</parameter><parameter name="MXY">0.258609116077423</parameter><parameter name="MNY">-0.081508494913578</parameter><parameter name="DAT">02/06/2022</parameter><parameter name="TIM">11:55:16.348 (GMT+2)</parameter><parameter name="DXU">WN</parameter></Data_Parameters_AB><AB__Qtest><MainReport name="Quality Test Report"><Header><Line><Legend>Test result ok/not ok [1/0]: </Legend><Value>0</Value></Line><Line><Legend>Method file: </Legend><Value>C:\Users\Public\Documents\Bruker\OPUS_8.2.28\QT\IRBT_v3_default.QT</Value></Line></Header><Matrix><Line><Legend></Legend><Legend>min</Legend><Legend>max</Legend><Legend>measured</Legend></Line><Line><Value>Absorption (X-Range 1):</Value><Value>0.400000</Value><Value>2.000000</Value><Value>0.210355</Value></Line><Line><Value>Noise (X-Range 4):</Value><Value></Value><Value>0.000300</Value><Value>0.000060</Value></Line><Line><Value>Signal/Noise (X-Range 2):</Value><Value>200.000000</Value><Value></Value><Value>58.370818</Value></Line><Line><Value>Signal/Noise (X-Range 3):</Value><Value>40.000000</Value><Value></Value><Value>55.534404</Value></Line><Line><Value>Water vapour (X-Range 5):</Value><Value></Value><Value>0.000300</Value><Value>0.000085</Value></Line><Line><Value>Signal/Water (X-Range 2):</Value><Value>100.000000</Value><Value></Value><Value>41.199375</Value></Line><Line><Value>Signal/Water (X-Range 3):</Value><Value>20.000000</Value><Value></Value><Value>39.197372</Value></Line><Line><Value>Fringes (X-Range 6):</Value><Value></Value><Value>0.000100</Value><Value>0.000058</Value></Line></Matrix></MainReport></AB__Qtest><Data_Parameters_ScSm><parameter name="DPF">1</parameter><parameter name="NPT">1814</parameter><parameter name="FXV">3996.33169228125</parameter><parameter name="LXV">499.541461535156</parameter><parameter name="CSF">1</parameter><parameter name="MXY">0.299958467483521</parameter><parameter name="MNY">0.0347828790545464</parameter><parameter name="DAT">02/06/2022</parameter><parameter name="TIM">11:55:16.348 (GMT+2)</parameter><parameter name="DXU">WN</parameter></Data_Parameters_ScSm><Data_Parameters_ScRf><parameter name="DPF">1</parameter><parameter name="NPT">1820</parameter><parameter name="FXV">4004.04661832813</parameter><parameter name="LXV">495.683998511719</parameter><parameter name="CSF">1</parameter><parameter name="MXY">0.264993667602539</parameter><parameter name="MNY">0.0303221940994263</parameter><parameter name="DAT">02/06/2022</parameter><parameter name="TIM">11:54:50.496 (GMT+2)</parameter><parameter name="DXU">WN</parameter></Data_Parameters_ScRf><Optic_Parameters_Rf><parameter name="APR">0</parameter><parameter name="APT">Open</parameter><parameter name="BMS">KBr</parameter><parameter name="DTC">RT-DLaTGS_IR-Biotyper [Microplate reader]</parameter><parameter name="HPF">0</parameter><parameter name="LPF">10.0</parameter><parameter name="LPV">4000</parameter><parameter name="PGR">0</parameter><parameter name="RCH">Module port</parameter><parameter name="RDX">0</parameter><parameter name="SRC">MIR</parameter><parameter name="VEL">10.0</parameter><parameter name="SON">Off</parameter></Optic_Parameters_Rf><Acquisition_Parameters_Rf><parameter name="ADT">1</parameter><parameter name="AQM">DD</parameter><parameter name="CFE">0</parameter><parameter name="COR">0</parameter><parameter name="DEL">0</parameter><parameter name="DLY">0</parameter><parameter name="HFW">8000</parameter><parameter name="LFW">0</parameter><parameter name="NSR">32</parameter><parameter name="PLF">AB</parameter><parameter name="RES">6</parameter><parameter name="RGN">-1</parameter><parameter name="STR">0</parameter><parameter name="TCL">MakeCompatibleScalar (0, {WSV=1.000000, ARV=0});</parameter><parameter name="TDL">37</parameter><parameter name="RPO">0</parameter></Acquisition_Parameters_Rf><FT_-_Parameters_Rf><parameter name="APF">B3</parameter><parameter name="HFQ">500</parameter><parameter name="LFQ">4000</parameter><parameter name="NLI">0</parameter><parameter name="PHR">24</parameter><parameter name="PHZ">ML</parameter><parameter name="SPZ">NO</parameter><parameter name="ZFF">1</parameter></FT_-_Parameters_Rf><Optic_Parameters_><parameter name="APR">0</parameter><parameter name="APT">Open</parameter><parameter name="BMS">KBr</parameter><parameter name="CHN">Module port</parameter><parameter name="DTC">RT-DLaTGS_IR-Biotyper [Microplate reader]</parameter><parameter name="HPF">0</parameter><parameter name="LPF">10.0</parameter><parameter name="LPV">4000</parameter><parameter name="PGN">0</parameter><parameter name="RDX">0</parameter><parameter name="SRC">MIR</parameter><parameter name="VEL">10.0</parameter><parameter name="SON">Off</parameter></Optic_Parameters_><FT_-_Parameters_><parameter name="APF">B3</parameter><parameter name="HFQ">500</parameter><parameter name="LFQ">4000</parameter><parameter name="NLI">0</parameter><parameter name="PHR">24</parameter><parameter name="PHZ">ML</parameter><parameter name="SPZ">NO</parameter><parameter name="ZFF">1</parameter></FT_-_Parameters_><Acquisition_Parameters_><parameter name="ADT">1</parameter><parameter name="AQM">DD</parameter><parameter name="CFE">0</parameter><parameter name="COR">0</parameter><parameter name="DEL">0</parameter><parameter name="DLY">0</parameter><parameter name="HFW">8000</parameter><parameter name="LFW">0</parameter><parameter name="NSS">32</parameter><parameter name="PLF">AB</parameter><parameter name="RES">6</parameter><parameter name="SOT">0</parameter><parameter name="TCL">MakeCompatibleScalar (0, {WSV=1.000000, ARV=0});</parameter><parameter name="TDL">37</parameter><parameter name="SPO">0</parameter><parameter name="SGN">-1</parameter></Acquisition_Parameters_><Instrument_Parameters_Rf><parameter name="HFL">15800.168544</parameter><parameter name="LFL">0</parameter><parameter name="LWN">15800.168544</parameter><parameter name="ABP">32197</parameter><parameter name="SSP">1</parameter><parameter name="ARG">2</parameter><parameter name="ASG">2</parameter><parameter name="ASS">32</parameter><parameter name="GFW">16</parameter><parameter name="GBW">16</parameter><parameter name="BFW">0</parameter><parameter name="BBW">0</parameter><parameter name="PKA">7268</parameter><parameter name="PKL">4996</parameter><parameter name="PRA">7448</parameter><parameter name="PRL">5001</parameter><parameter name="P2A">1</parameter><parameter name="P2L">1</parameter><parameter name="P2R">1</parameter><parameter name="P2K">1</parameter><parameter name="DAQ">0</parameter><parameter name="AG2">1</parameter><parameter name="SSM">1</parameter><parameter name="RSN">26111</parameter><parameter name="CRR">0</parameter><parameter name="SRT">1654170890.497</parameter><parameter name="DUR">19.6379852294922</parameter><parameter name="TSC">28.8</parameter><parameter name="MVD">0.307287961244583</parameter><parameter name="AN1">0.225818768537719</parameter><parameter name="AN2">0</parameter><parameter name="VSN">2.485 Apr  4 2017</parameter><parameter name="SRN">0085</parameter><parameter name="CAM">0</parameter><parameter name="INS">IR-Biotyper</parameter><parameter name="FOC">69</parameter><parameter name="RDY">1</parameter><parameter name="ARS">32</parameter></Instrument_Parameters_Rf><Sample_Parameters_><parameter name="BLD"></parameter><parameter name="CNM">Admin</parameter><parameter name="CPY"></parameter><parameter name="DPM"></parameter><parameter name="EXP">IRBT_v3_32Scans.XPM</parameter><parameter name="LCT"></parameter><parameter name="SFM">Microplate, HTS-XT</parameter><parameter name="SNM">220602-1054_CLA33F (D_18)_A7_13c3a786-2a23-4b3a-8983-43e981eda433.0</parameter><parameter name="XPP">C:\Users\Public\Documents\Bruker\OPUS_8.2.28\XPM</parameter><parameter name="IST">OK</parameter><parameter name="CPG">1252</parameter><parameter name="UID">a19e4c29-61f5-4100-b0a9-aa2bbfc9cf3d</parameter></Sample_Parameters_><Instrument_Parameters_><parameter name="HFL">15800.168544</parameter><parameter name="LFL">0</parameter><parameter name="LWN">15800.168544</parameter><parameter name="ABP">32197</parameter><parameter name="SSP">1</parameter><parameter name="ASG">2</parameter><parameter name="ARG">2</parameter><parameter name="ASS">32</parameter><parameter name="GFW">16</parameter><parameter name="GBW">16</parameter><parameter name="BFW">0</parameter><parameter name="BBW">0</parameter><parameter name="PKA">7521</parameter><parameter name="PKL">4988</parameter><parameter name="PRA">7814</parameter><parameter name="PRL">4993</parameter><parameter name="P2A">1</parameter><parameter name="P2L">1</parameter><parameter name="P2R">1</parameter><parameter name="P2K">1</parameter><parameter name="DAQ">0</parameter><parameter name="AG2">1</parameter><parameter name="SSM">1</parameter><parameter name="RSN">13681</parameter><parameter name="CRR">0</parameter><parameter name="SRT">1654170916.349</parameter><parameter name="DUR">19.6379852294922</parameter><parameter name="TSC">28.8</parameter><parameter name="MVD">0.345148891210556</parameter><parameter name="AN1">0.225832984420847</parameter><parameter name="AN2">0</parameter><parameter name="VSN">2.485 Apr  4 2017</parameter><parameter name="SRN">0085</parameter><parameter name="CAM">0</parameter><parameter name="INS">IR-Biotyper</parameter><parameter name="FOC">69</parameter><parameter name="RDY">1</parameter></Instrument_Parameters_><History/></OPUSDataFile>
