<?xml version="1.0" encoding="UTF-8" ?>
<OPUSDataFile><AB><Ydata ylabel="Absorbance Units"><values byteorder="INTEL" format="FLOAT32" numvalues="3497"> -0.09289393 -0.09294424 -0.09299335 -0.09304248 -0.093073 -0.09308396 -0.09306745 -0.09302479 -0.09296985 -0.09290586
 -0.09285974 -0.0928309 -0.09283385 -0.09286098 -0.09290231 -0.09295039 -0.09298663 -0.09301355 -0.09302471 -0.09303081
 -0.09303872 -0.09305402 -0.09308393 -0.09312125 -0.09316643 -0.09320642 -0.09323768 -0.0932541 -0.09325296 -0.0932418
 -0.09322063 -0.09320258 -0.09318838 -0.09318095 -0.09317945 -0.09317274 -0.09316091 -0.09313734 -0.09310607 -0.09307815
 -0.09305672 -0.09305675 -0.09307387 -0.09310873 -0.09315353 -0.09319841 -0.09324205 -0.09327867 -0.09331417 -0.09335081
 -0.093391 -0.09343817 -0.09348378 -0.09352756 -0.09355594 -0.09356609 -0.09355406 -0.09351821 -0.09347159 -0.09341481
 -0.09336822 -0.09333222 -0.0933174 -0.09332222 -0.09334294 -0.09337809 -0.0934205 -0.09346959 -0.09352152 -0.09357347
 -0.0936197 -0.09365662 -0.09367648 -0.09368178 -0.09367033 -0.09365071 -0.09362724 -0.09360476 -0.09358691 -0.09357168
 -0.09355865 -0.09354866 -0.09354045 -0.09354516 -0.09356329 -0.09361006 -0.09368639 -0.09379924 -0.09394746 -0.09411847
 -0.09430721 -0.09447714 -0.09462306 -0.09470274 -0.09472331 -0.0946762 -0.09458157 -0.09446928 -0.09435319 -0.09426404
 -0.09419812 -0.09416622 -0.09414907 -0.09414017 -0.09412057 -0.0940778 -0.09401873 -0.09393881 -0.09386903 -0.09381435
 -0.09379301 -0.09380937 -0.09384475 -0.09389839 -0.09393968 -0.09396902 -0.09398615 -0.0939955 -0.09402604 -0.09407835
 -0.09417392 -0.09430188 -0.09445007 -0.09459981 -0.09471152 -0.09478115 -0.09478101 -0.09473632 -0.09465667 -0.09456818
 -0.09449185 -0.09442751 -0.09438032 -0.09434293 -0.09431051 -0.09429922 -0.09430882 -0.09437069 -0.09449004 -0.09466465
 -0.09489544 -0.09508326 -0.09522223 -0.09519462 -0.09501786 -0.09474442 -0.09439801 -0.0941002 -0.09384893 -0.09370138
 -0.09364203 -0.09367459 -0.09377291 -0.09391106 -0.09405993 -0.09418502 -0.09427767 -0.09431844 -0.09432746 -0.09430711
 -0.0942788 -0.09425076 -0.09422324 -0.09419806 -0.09416801 -0.09413176 -0.09409432 -0.09405579 -0.09403192 -0.09402323
 -0.0940409 -0.09408334 -0.09414722 -0.09422791 -0.09430744 -0.09437975 -0.09441992 -0.0944269 -0.09438375 -0.09430286
 -0.09418841 -0.09406327 -0.09394716 -0.09385684 -0.09380969 -0.0938039 -0.09384565 -0.09391705 -0.09401572 -0.09412207
 -0.09423225 -0.09433581 -0.0944319 -0.09450689 -0.09456008 -0.09456655 -0.09452609 -0.09443092 -0.0942856 -0.09411585
 -0.0939269 -0.09375275 -0.09359466 -0.09347307 -0.09338649 -0.09334285 -0.09333648 -0.09336685 -0.09341936 -0.09348414
 -0.0935429 -0.09358086 -0.09359359 -0.09357301 -0.09353252 -0.09347318 -0.09341076 -0.09334803 -0.09329533 -0.09325354
 -0.09323573 -0.09324275 -0.09328749 -0.09336927 -0.09347964 -0.09361356 -0.09373189 -0.09383196 -0.09387846 -0.0938811
 -0.09384514 -0.09378443 -0.09372763 -0.09367782 -0.09365214 -0.09364332 -0.09364956 -0.09366845 -0.0936944 -0.09374021
 -0.0938093 -0.09391314 -0.09406016 -0.09423158 -0.09442954 -0.09460744 -0.09476037 -0.09485757 -0.09489664 -0.09486844
 -0.09477303 -0.09460779 -0.09437807 -0.0941163 -0.09383374 -0.09359317 -0.09339967 -0.09330317 -0.09329021 -0.09336957
 -0.09350037 -0.09363585 -0.09374548 -0.09377515 -0.09375166 -0.0936716 -0.09357681 -0.09348741 -0.09341303 -0.09336387
 -0.09332065 -0.09328192 -0.09322815 -0.09315555 -0.09306946 -0.09296965 -0.09288108 -0.09280499 -0.09276456 -0.09275902
 -0.09279712 -0.09287218 -0.09296606 -0.09306476 -0.09311938 -0.09312826 -0.09305762 -0.09293395 -0.09277633 -0.09260834
 -0.09246162 -0.09233358 -0.09223534 -0.09214588 -0.09205906 -0.09195953 -0.09183855 -0.09170549 -0.09155882 -0.09142099
 -0.09129465 -0.09119209 -0.09111461 -0.09105475 -0.09101147 -0.09096411 -0.09091229 -0.0908425 -0.09075768 -0.09066217
 -0.09055991 -0.09046306 -0.09037506 -0.09030799 -0.0902625 -0.09024727 -0.09025247 -0.09027677 -0.09029785 -0.09030288
 -0.09027377 -0.09019855 -0.09007479 -0.08989952 -0.08967343 -0.0893949 -0.08907368 -0.08870897 -0.08832805 -0.08793256
 -0.08754694 -0.08717208 -0.08682168 -0.08649705 -0.08621463 -0.08597531 -0.08579446 -0.08566567 -0.08558189 -0.08553147
 -0.08548853 -0.08544889 -0.08539754 -0.0853318 -0.08524994 -0.0851323 -0.08496658 -0.08473919 -0.08443303 -0.08407912
 -0.08368004 -0.08327542 -0.08287442 -0.08249164 -0.08213019 -0.08179206 -0.0814776 -0.08118732 -0.08092131 -0.08068115
 -0.08046678 -0.08028048 -0.08011907 -0.07997489 -0.07983582 -0.07966553 -0.07945369 -0.07915524 -0.07879073 -0.07836377
 -0.07790783 -0.07745813 -0.07702348 -0.07662246 -0.07624383 -0.07588763 -0.07554139 -0.07519975 -0.07486431 -0.07453357
 -0.07421754 -0.07391846 -0.07363024 -0.0733533 -0.07305698 -0.07273987 -0.07237405 -0.07196239 -0.07151268 -0.07103164
 -0.0705524 -0.07007814 -0.0696351 -0.06922144 -0.06884786 -0.0685061 -0.06819277 -0.06789186 -0.06758741 -0.06726975
 -0.06692455 -0.06656189 -0.06618241 -0.06579669 -0.06541149 -0.06501424 -0.06460408 -0.06416625 -0.063696 -0.06321546
 -0.06272517 -0.06226575 -0.06183811 -0.06145318 -0.06110778 -0.06078212 -0.06047297 -0.06015537 -0.05982988 -0.05948375
 -0.05912244 -0.0587498 -0.0583721 -0.05800098 -0.05763508 -0.05728109 -0.05692383 -0.05655773 -0.05616395 -0.05572889
 -0.0552588 -0.05474745 -0.0542304 -0.0537127 -0.05322563 -0.05277544 -0.05236151 -0.05198506 -0.0516171 -0.05125618
 -0.05087428 -0.05047248 -0.05004673 -0.04959976 -0.0491416 -0.04867298 -0.04819993 -0.04772455 -0.04725184 -0.04678838
 -0.04634564 -0.04592616 -0.04553932 -0.0451756 -0.0448335 -0.04449867 -0.04416351 -0.04382299 -0.04347224 -0.04311943
 -0.04276515 -0.04241836 -0.04208159 -0.04174653 -0.0414133 -0.04105783 -0.04067929 -0.04026471 -0.03981691 -0.03935281
 -0.03887678 -0.03841874 -0.03797758 -0.0375674 -0.03718064 -0.03680965 -0.03644701 -0.03607791 -0.03570298 -0.03531487
 -0.03492482 -0.03453739 -0.03416314 -0.03381103 -0.03347367 -0.03315362 -0.03282851 -0.03249393 -0.03213677 -0.03175341
 -0.0313515 -0.03093097 -0.03050867 -0.03008541 -0.02967478 -0.02927698 -0.02889983 -0.02854244 -0.02820563 -0.02788735
 -0.02758233 -0.02728873 -0.02700016 -0.0267166 -0.02643484 -0.02615701 -0.02588431 -0.02561748 -0.02535958 -0.02510288
 -0.02484674 -0.02457659 -0.0242862 -0.02397445 -0.02363691 -0.02329629 -0.02295462 -0.0226328 -0.02233347 -0.02204588
 -0.02176901 -0.02147402 -0.02116176 -0.02082533 -0.02047092 -0.020124 -0.01978829 -0.01949131 -0.01922509 -0.01898976
 -0.01876928 -0.01853951 -0.01829525 -0.01801666 -0.01772357 -0.01741997 -0.01713372 -0.01688209 -0.01666721 -0.01649825
 -0.0163472 -0.01621076 -0.01606176 -0.01589487 -0.01570727 -0.01549774 -0.01528088 -0.01505731 -0.01483871 -0.01462383
 -0.01440721 -0.01418551 -0.01393902 -0.013668 -0.01335969 -0.01302376 -0.01267136 -0.01231663 -0.01198494 -0.01168244
 -0.01142652 -0.01121091 -0.01103782 -0.01089618 -0.01078173 -0.01068594 -0.01060573 -0.01053428 -0.01047048 -0.01040552
 -0.01033859 -0.01025911 -0.01016614 -0.01005337 -0.009920674 -0.009770431 -0.009603367 -0.009426898 -0.009241776 -0.009054869
 -0.008867535 -0.008687054 -0.00851512 -0.008359957 -0.008218934 -0.008094415 -0.007975892 -0.007854759 -0.007720578 -0.007560623
 -0.007380309 -0.007174225 -0.006968064 -0.006767368 -0.00659787 -0.00646879 -0.006377246 -0.006326822 -0.006284782 -0.006248868
 -0.006192973 -0.006116564 -0.00603102 -0.005939068 -0.005872692 -0.005830398 -0.005823929 -0.005845069 -0.005874838 -0.005906866
 -0.00591654 -0.005907771 -0.005873382 -0.005825552 -0.00577419 -0.005727157 -0.0056964 -0.00567281 -0.005658526 -0.00563107
 -0.005582843 -0.005502389 -0.005381714 -0.005242371 -0.00508345 -0.004949163 -0.004843098 -0.004794994 -0.004805602 -0.004863047
 -0.00496369 -0.005066978 -0.005171923 -0.00525067 -0.00530881 -0.005350025 -0.00537755 -0.005402439 -0.005418947 -0.005421724
 -0.005410533 -0.005377848 -0.005341671 -0.00531174 -0.005302876 -0.005330826 -0.005377707 -0.005444914 -0.005497462 -0.005525526
 -0.005521254 -0.005478906 -0.005428501 -0.005371382 -0.005343943 -0.005347737 -0.005397807 -0.005492557 -0.005623566 -0.005786364
 -0.005955712 -0.006125832 -0.006265052 -0.006371497 -0.006422484 -0.006428005 -0.006388388 -0.006326398 -0.006263848 -0.006221301
 -0.006224208 -0.006267565 -0.006361551 -0.006473017 -0.006594591 -0.006695534 -0.006765387 -0.006801879 -0.006802356 -0.006778338
 -0.006731136 -0.006657545 -0.00655731 -0.00641743 -0.006239784 -0.006035591 -0.005813099 -0.00561992 -0.005463387 -0.00539621
 -0.005410107 -0.005520286 -0.005697208 -0.005907719 -0.006117566 -0.006275748 -0.006373579 -0.006380327 -0.006328992 -0.00622083
 -0.006111342 -0.006018431 -0.005982099 -0.006018191 -0.00612449 -0.006306585 -0.006523522 -0.006773152 -0.007008819 -0.00722837
 -0.007412686 -0.00756318 -0.007688493 -0.007789533 -0.00787645 -0.007946257 -0.007994341 -0.008018254 -0.008007386 -0.007968817
 -0.007903245 -0.00783268 -0.007776526 -0.007762372 -0.007818307 -0.007951995 -0.008181458 -0.008478138 -0.008841482 -0.009223757
 -0.009615012 -0.009979041 -0.01030883 -0.01058772 -0.01081314 -0.01098412 -0.01110083 -0.01118624 -0.01124333 -0.01131409
 -0.01139814 -0.01151874 -0.01166651 -0.01182258 -0.01198005 -0.0121095 -0.01222186 -0.01231812 -0.01241731 -0.01254377
 -0.01269794 -0.01289432 -0.0131064 -0.01332782 -0.01352591 -0.01368629 -0.0137979 -0.01385125 -0.01386968 -0.01385208
 -0.01384548 -0.01385363 -0.01391501 -0.01403144 -0.01420551 -0.01443445 -0.01468901 -0.01496567 -0.01523059 -0.015483
 -0.01570243 -0.01589056 -0.01603988 -0.01615562 -0.01624038 -0.0163045 -0.01635924 -0.01641389 -0.01648013 -0.01655785
 -0.01665061 -0.01675367 -0.0168643 -0.01698728 -0.01712118 -0.01728248 -0.01747355 -0.01770538 -0.01798003 -0.01828943
 -0.01863312 -0.0189892 -0.01935649 -0.01971479 -0.02006404 -0.0203934 -0.0207039 -0.02099273 -0.02126218 -0.02151491
 -0.02175548 -0.02199135 -0.02222758 -0.02247333 -0.0227285 -0.02299805 -0.02327318 -0.02355196 -0.02382259 -0.02407941
 -0.0243205 -0.02454237 -0.0247576 -0.02496692 -0.02518579 -0.0254161 -0.02566122 -0.02592135 -0.02618687 -0.02645699
 -0.02671948 -0.02697424 -0.02721425 -0.02744069 -0.02765309 -0.02785446 -0.02805066 -0.02824561 -0.02844835 -0.02866033
 -0.02888794 -0.0291269 -0.02937825 -0.02963039 -0.02988028 -0.03010945 -0.03031094 -0.03047184 -0.03058367 -0.03066367
 -0.0307087 -0.03077172 -0.03085667 -0.03101287 -0.03124295 -0.03154494 -0.03191448 -0.0322981 -0.03269021 -0.03302998
 -0.03331972 -0.03353128 -0.0336786 -0.03377583 -0.03384442 -0.03392494 -0.03403021 -0.03419578 -0.03440721 -0.03467028
 -0.0349516 -0.03523333 -0.03550021 -0.03573836 -0.03596359 -0.03617841 -0.03639068 -0.03660632 -0.03679293 -0.03694898
 -0.03703305 -0.03704292 -0.03698652 -0.03686891 -0.03675561 -0.03665274 -0.03663215 -0.03668884 -0.03684797 -0.03709126
 -0.03739042 -0.03772717 -0.03805686 -0.03837764 -0.03866743 -0.03893908 -0.03919728 -0.03944699 -0.03969605 -0.03993096
 -0.04014845 -0.04033836 -0.04049382 -0.04063158 -0.04075181 -0.04088097 -0.04102288 -0.04117661 -0.0413423 -0.04148843
 -0.04161379 -0.04169261 -0.04172892 -0.04173196 -0.04170939 -0.04169403 -0.04168844 -0.04171747 -0.04177354 -0.04185671
 -0.04195576 -0.04205538 -0.04215629 -0.04224864 -0.04235396 -0.04247876 -0.04264832 -0.0428781 -0.04316148 -0.04350667
 -0.04386449 -0.04423049 -0.04455042 -0.04481663 -0.04502139 -0.0451638 -0.04528896 -0.04539986 -0.04554924 -0.04573437
 -0.04596826 -0.04624053 -0.04652128 -0.04680195 -0.04704485 -0.04725328 -0.04741305 -0.04753784 -0.04763703 -0.04772398
 -0.04781301 -0.04790918 -0.04802065 -0.04814221 -0.04827562 -0.04840707 -0.04853372 -0.04864397 -0.04873313 -0.04881295
 -0.04888222 -0.04897922 -0.04910607 -0.04928942 -0.04952702 -0.04979361 -0.05008243 -0.05033602 -0.05055657 -0.05071718
 -0.05083386 -0.05093225 -0.05102409 -0.05114513 -0.05128682 -0.05145548 -0.05163382 -0.0518082 -0.05197303 -0.05212017
 -0.05225388 -0.05237571 -0.05248193 -0.05257368 -0.05263748 -0.05267064 -0.05266832 -0.05262815 -0.05257 -0.05249472
 -0.05244248 -0.05241518 -0.05244857 -0.05254028 -0.05269586 -0.05290695 -0.0531471 -0.0534071 -0.05365133 -0.0538753
 -0.05405536 -0.05419164 -0.05427419 -0.05430814 -0.05429196 -0.05423847 -0.05415192 -0.05405037 -0.05394097 -0.05383778
 -0.05374623 -0.05367107 -0.05361483 -0.05357243 -0.05354472 -0.05351305 -0.05347653 -0.05340483 -0.0532968 -0.05312844
 -0.05290235 -0.05262103 -0.0522913 -0.05193917 -0.05157094 -0.05121548 -0.05087436 -0.05056461 -0.05028111 -0.05002646
 -0.04978915 -0.0495619 -0.04933225 -0.04909023 -0.04883272 -0.04855415 -0.04826404 -0.04796238 -0.04766469 -0.0473729
 -0.04710228 -0.04685426 -0.04664379 -0.04647188 -0.04634692 -0.04626818 -0.04622598 -0.04621696 -0.04621487 -0.04621704
 -0.04619928 -0.04616137 -0.04609169 -0.04598841 -0.04584414 -0.04565512 -0.04541165 -0.04511888 -0.04477351 -0.04439506
 -0.04399186 -0.04358425 -0.04318319 -0.04279484 -0.04242308 -0.0420677 -0.04172795 -0.04141236 -0.04112114 -0.04086826
 -0.0406546 -0.04048942 -0.04037352 -0.04031887 -0.04032827 -0.04042666 -0.04061577 -0.04091901 -0.04132869 -0.04184159
 -0.04243923 -0.04309 -0.04377567 -0.04446036 -0.04513855 -0.04579111 -0.04642731 -0.04704556 -0.04766135 -0.04828071
 -0.04891283 -0.04956318 -0.05022616 -0.05090372 -0.05157499 -0.05223883 -0.0528691 -0.05346406 -0.05400975 -0.05450667
 -0.05496276 -0.05537992 -0.05577559 -0.05614907 -0.05650695 -0.0568471 -0.05716537 -0.05746519 -0.05774902 -0.05802501
 -0.05830612 -0.05859173 -0.05888973 -0.05918419 -0.05946993 -0.05972797 -0.05994874 -0.06012461 -0.06025047 -0.06033031
 -0.06036328 -0.06035892 -0.06031791 -0.06025042 -0.06015716 -0.06004322 -0.0599089 -0.05975781 -0.05959261 -0.05943191
 -0.05928179 -0.0591777 -0.05912066 -0.05913565 -0.05920998 -0.05933553 -0.05949289 -0.05965443 -0.05980849 -0.05993457
 -0.06003236 -0.06009535 -0.0601288 -0.0601314 -0.06011583 -0.0600819 -0.06005629 -0.06004122 -0.06007286 -0.06015496
 -0.06031764 -0.0605632 -0.06090431 -0.06134064 -0.0618667 -0.06247941 -0.06315746 -0.06389313 -0.06464718 -0.06540732
 -0.0661215 -0.06678254 -0.06734872 -0.06783249 -0.06822687 -0.06856269 -0.06886313 -0.06915389 -0.06946045 -0.06978199
 -0.07012744 -0.07047652 -0.07082585 -0.07115744 -0.07146689 -0.07174804 -0.07199913 -0.07222445 -0.07242402 -0.07260825
 -0.07277769 -0.0729427 -0.07310292 -0.07326107 -0.0734155 -0.07356104 -0.07369618 -0.07381384 -0.0739143 -0.07399377
 -0.0740559 -0.07410197 -0.07414039 -0.07417767 -0.07422373 -0.07428726 -0.07437053 -0.07447929 -0.07460145 -0.07473708
 -0.0748644 -0.07497944 -0.0750672 -0.07512412 -0.07515728 -0.07516648 -0.07517686 -0.07518941 -0.07522226 -0.07527357
 -0.07533808 -0.07541342 -0.07548472 -0.07555579 -0.07562815 -0.07570916 -0.07581547 -0.07594529 -0.0761075 -0.0762855
 -0.07646989 -0.07664071 -0.0767818 -0.07688642 -0.07694515 -0.07696857 -0.07695524 -0.07692798 -0.07688943 -0.07686497
 -0.07685804 -0.07688324 -0.0769422 -0.07702786 -0.07713913 -0.07725272 -0.07736763 -0.0774648 -0.07754593 -0.07760782
 -0.07765314 -0.07768756 -0.07771268 -0.07773337 -0.07775208 -0.07777315 -0.07780033 -0.07783974 -0.07788924 -0.07795192
 -0.07801541 -0.07807583 -0.07812162 -0.0781462 -0.07815579 -0.07814826 -0.07814575 -0.07815079 -0.07817757 -0.07822771
 -0.07829294 -0.07837239 -0.0784467 -0.07851591 -0.07857095 -0.07861403 -0.07865013 -0.07868064 -0.0787124 -0.0787445
 -0.07877852 -0.07881302 -0.07884654 -0.07887872 -0.0789085 -0.07893664 -0.07896274 -0.07898954 -0.07901746 -0.07905128
 -0.07909246 -0.07914421 -0.07920805 -0.07928114 -0.07936389 -0.07944744 -0.0795313 -0.07960632 -0.07967225 -0.07972538
 -0.07976633 -0.07979829 -0.07982225 -0.07984399 -0.07986413 -0.07988734 -0.07991366 -0.07994562 -0.07998227 -0.08002387
 -0.08006801 -0.08011256 -0.08015582 -0.08019512 -0.08023327 -0.08027031 -0.08031086 -0.08035703 -0.08040795 -0.08046467
 -0.08051997 -0.08057308 -0.08061892 -0.08065688 -0.08068935 -0.08071652 -0.08074289 -0.08076818 -0.0807922 -0.08081412
 -0.08082987 -0.08083981 -0.08084187 -0.08083893 -0.08083501 -0.08083368 -0.08084191 -0.08086003 -0.0808918 -0.08093318
 -0.08098297 -0.08103683 -0.08109213 -0.08114822 -0.08120422 -0.08126137 -0.08132005 -0.08137952 -0.08143988 -0.08149893
 -0.08155651 -0.08161053 -0.08166091 -0.08170669 -0.08174811 -0.08178654 -0.08182277 -0.08186117 -0.0819021 -0.08194944
 -0.08200178 -0.08205853 -0.0821173 -0.08217438 -0.08222876 -0.08227774 -0.0823226 -0.08236341 -0.08240134 -0.08243756
 -0.08247004 -0.08249861 -0.08252047 -0.08253442 -0.08254264 -0.08254457 -0.08254916 -0.08255702 -0.08257502 -0.0826032
 -0.08263841 -0.08267985 -0.08271907 -0.08275655 -0.08278973 -0.08282056 -0.08285381 -0.08288987 -0.08293264 -0.08297937
 -0.08302826 -0.08307596 -0.08311839 -0.08315431 -0.08318131 -0.08320053 -0.08321155 -0.08321697 -0.08321718 -0.08321567
 -0.08321309 -0.08321246 -0.08321429 -0.08321999 -0.08322976 -0.08324325 -0.0832604 -0.08327934 -0.08329987 -0.08331915
 -0.08333753 -0.0833547 -0.08337211 -0.08339406 -0.08342135 -0.08345883 -0.0835033 -0.08355352 -0.08360314 -0.08364514
 -0.08367681 -0.08369242 -0.08369792 -0.08369342 -0.08368883 -0.08368753 -0.08369428 -0.08371144 -0.08373585 -0.08376783
 -0.08380027 -0.08383264 -0.08385966 -0.08388118 -0.08389679 -0.08390693 -0.08391554 -0.0839229 -0.08393282 -0.0839444
 -0.08395708 -0.08396964 -0.08397859 -0.08398522 -0.08398888 -0.08399387 -0.08400441 -0.08402272 -0.08405329 -0.08409068
 -0.08413473 -0.08417588 -0.08421062 -0.08423527 -0.08424757 -0.0842521 -0.08424903 -0.08424334 -0.08423551 -0.0842261
 -0.08421516 -0.08420308 -0.08419004 -0.08417827 -0.08416752 -0.0841579 -0.08414871 -0.0841373 -0.0841245 -0.0841103
 -0.08409681 -0.08408768 -0.08408242 -0.08408286 -0.08408498 -0.08408656 -0.0840847 -0.08407677 -0.08406442 -0.0840473
 -0.0840288 -0.08400971 -0.08399142 -0.08397419 -0.08395881 -0.0839453 -0.08393565 -0.08392996 -0.08393034 -0.0839367
 -0.08394925 -0.08396754 -0.08398969 -0.08401492 -0.08403997 -0.08406416 -0.08408441 -0.08410075 -0.08411159 -0.08411813
 -0.08412081 -0.08412111 -0.08412022 -0.08411886 -0.08411776 -0.08411676 -0.0841158 -0.08411542 -0.08411554 -0.08411772
 -0.08412216 -0.08413019 -0.08414203 -0.08415629 -0.08417285 -0.08418753 -0.08420023 -0.08420816 -0.08421188 -0.08421269
 -0.08421127 -0.08421084 -0.08421054 -0.08421026 -0.08420881 -0.08420371 -0.08419618 -0.08418609 -0.084176 -0.08416814
 -0.08416244 -0.08415999 -0.08415798 -0.08415546 -0.0841516 -0.0841457 -0.08413994 -0.0841345 -0.08413121 -0.08413023
 -0.08413287 -0.08413921 -0.08415111 -0.08416844 -0.08419094 -0.08421759 -0.08424311 -0.08426653 -0.08428158 -0.08428913
 -0.08428756 -0.08427922 -0.08426676 -0.0842522 -0.08423875 -0.08422694 -0.08421841 -0.08421218 -0.08420835 -0.08420525
 -0.08420211 -0.08419902 -0.08419552 -0.08419416 -0.08419532 -0.08420037 -0.08420971 -0.08421981 -0.08423044 -0.08423556
 -0.08423525 -0.0842278 -0.08421431 -0.08419959 -0.08418436 -0.08417413 -0.08416766 -0.08416539 -0.0841651 -0.08416325
 -0.08415948 -0.08415172 -0.08414129 -0.08412879 -0.08411424 -0.08409794 -0.08407909 -0.08405671 -0.08403373 -0.08401006
 -0.08399157 -0.08397927 -0.08397561 -0.08398115 -0.08399171 -0.08400706 -0.08402119 -0.08403399 -0.08404238 -0.08404662
 -0.08404637 -0.08404199 -0.08403427 -0.08402356 -0.08401106 -0.08399685 -0.08398145 -0.08396518 -0.08394832 -0.08393189
 -0.08391683 -0.08390354 -0.08389339 -0.08388272 -0.08387128 -0.08385299 -0.08382592 -0.08378922 -0.08374152 -0.08369201
 -0.0836411 -0.08360087 -0.08357186 -0.08355821 -0.08355932 -0.08356989 -0.08358958 -0.08361332 -0.08364246 -0.08367841
 -0.08372347 -0.08378332 -0.08385956 -0.08395665 -0.08407647 -0.0842216 -0.08439641 -0.08460377 -0.08485022 -0.08513945
 -0.08547652 -0.08586444 -0.08630322 -0.0867941 -0.08733232 -0.0879187 -0.08853894 -0.08919335 -0.08984746 -0.09049918
 -0.09109139 -0.09162057 -0.09202768 -0.09231306 -0.09244678 -0.09243366 -0.09227468 -0.09197189 -0.09152372 -0.09094748
 -0.0902544 -0.08950038 -0.088745 -0.08804069 -0.08744747 -0.0869825 -0.08667082 -0.08650996 -0.08650757 -0.08664358
 -0.08692469 -0.08727711 -0.08769917 -0.08806435 -0.08835965 -0.08852317 -0.08855198 -0.08849699 -0.08836245 -0.08821347
 -0.0880485 -0.08789279 -0.08774091 -0.08758836 -0.08743057 -0.08725412 -0.0870593 -0.08683905 -0.08659954 -0.08634368
 -0.08608001 -0.08581498 -0.08555668 -0.08531065 -0.08508206 -0.08487466 -0.08468714 -0.08452061 -0.08436888 -0.08423156
 -0.08410137 -0.08397778 -0.08385354 -0.08372822 -0.08359591 -0.08345681 -0.08331108 -0.08316012 -0.08301158 -0.08286692
 -0.08273545 -0.08261683 -0.08251552 -0.08242891 -0.08235545 -0.08229112 -0.08223101 -0.08217209 -0.08211005 -0.0820451
 -0.08197587 -0.08190458 -0.08183196 -0.08175854 -0.08168457 -0.08161002 -0.08153437 -0.08146198 -0.08139299 -0.08133432
 -0.08128632 -0.08124994 -0.08122461 -0.08120311 -0.08118486 -0.08116243 -0.08113673 -0.08110701 -0.08107458 -0.08104246
 -0.0810105 -0.0809801 -0.08094984 -0.0809186 -0.08088543 -0.08084901 -0.08080979 -0.08076739 -0.08072326 -0.0806774
 -0.0806327 -0.08058954 -0.08055175 -0.08052022 -0.08049569 -0.08047874 -0.08046266 -0.08044712 -0.08042146 -0.0803858
 -0.08033811 -0.08028053 -0.08022459 -0.0801717 -0.08013429 -0.08010915 -0.08009576 -0.08008868 -0.08007806 -0.08006272
 -0.08003648 -0.08000301 -0.07996327 -0.07992017 -0.07987583 -0.07983068 -0.07978477 -0.07974051 -0.07969777 -0.0796626
 -0.0796361 -0.07962114 -0.07961858 -0.07962237 -0.07963222 -0.07963723 -0.07963709 -0.07962474 -0.07960105 -0.0795672
 -0.0795247 -0.07947944 -0.07943227 -0.07938819 -0.07934716 -0.07931141 -0.07928023 -0.07925377 -0.07923112 -0.07921182
 -0.07919458 -0.07917874 -0.07916302 -0.07914684 -0.07912946 -0.07911056 -0.07909003 -0.07906784 -0.07904355 -0.07901718
 -0.07898754 -0.07895458 -0.0789179 -0.07887767 -0.07883614 -0.07879363 -0.07875361 -0.07871586 -0.07868173 -0.07865025
 -0.07861964 -0.07858949 -0.07855795 -0.07852613 -0.07849446 -0.07846453 -0.07843819 -0.07841489 -0.07839517 -0.07837714
 -0.07835997 -0.07834364 -0.07832758 -0.07831464 -0.07830538 -0.07830069 -0.07830113 -0.07830126 -0.0783008 -0.07829276
 -0.07827722 -0.07825343 -0.07822242 -0.07819032 -0.07815766 -0.07812998 -0.07810637 -0.07808754 -0.0780723 -0.07805897
 -0.07804681 -0.07803439 -0.078021 -0.07800563 -0.07798772 -0.07796644 -0.07794246 -0.07791553 -0.07788772 -0.07785939
 -0.07783274 -0.07780824 -0.07778695 -0.07776915 -0.07775385 -0.077741 -0.07772814 -0.07771522 -0.07770097 -0.07768563
 -0.07767028 -0.07765493 -0.07764063 -0.0776263 -0.07761002 -0.07759023 -0.07756296 -0.07752874 -0.07748552 -0.07743768
 -0.07738751 -0.07734002 -0.07729943 -0.07726554 -0.0772404 -0.07721769 -0.07719623 -0.07717087 -0.0771399 -0.07710574
 -0.07706812 -0.07703411 -0.07700412 -0.07698153 -0.07696619 -0.07695601 -0.07695071 -0.07694747 -0.07694611 -0.0769449
 -0.07694302 -0.07693793 -0.07692829 -0.07691021 -0.07688426 -0.07684848 -0.07680713 -0.07676245 -0.07671976 -0.0766832
 -0.0766538 -0.07663402 -0.07661867 -0.07660735 -0.07659337 -0.07657517 -0.0765513 -0.07652106 -0.07648915 -0.07645579
 -0.07642632 -0.07640072 -0.07637901 -0.07636073 -0.07634277 -0.0763253 -0.07630726 -0.07628925 -0.07627296 -0.07625694
 -0.07624011 -0.07621932 -0.07618954 -0.0761513 -0.07610157 -0.07604749 -0.07599175 -0.07594158 -0.07590171 -0.07587039
 -0.07584917 -0.07582941 -0.07580963 -0.07578528 -0.07575524 -0.07572351 -0.07569028 -0.07566033 -0.07563353 -0.07560807
 -0.07558338 -0.07555417 -0.07552124 -0.07548451 -0.07544589 -0.07541059 -0.0753787 -0.07535353 -0.07533243 -0.07531352
 -0.07529456 -0.0752723 -0.07524813 -0.0752214 -0.07519568 -0.07517236 -0.07515346 -0.07514031 -0.07513101 -0.07512589
 -0.07511978 -0.07511222 -0.0750984 -0.07507793 -0.07505108 -0.07501818 -0.0749848 -0.07495124 -0.0749227 -0.07489833
 -0.07487784 -0.07485971 -0.07483976 -0.07481746 -0.0747895 -0.07475715 -0.07472024 -0.07468125 -0.0746422 -0.07460494
 -0.07457176 -0.07454102 -0.07451333 -0.0744838 -0.07445104 -0.07441253 -0.07436676 -0.07431889 -0.07426898 -0.07422543
 -0.07418887 -0.07416088 -0.07414109 -0.07412241 -0.07410438 -0.07407983 -0.0740496 -0.07401311 -0.07397188 -0.07392984
 -0.07388731 -0.07384689 -0.07380773 -0.07376973 -0.0737323 -0.07369455 -0.07365747 -0.07362103 -0.07358741 -0.07355762
 -0.07353241 -0.07351284 -0.07349548 -0.07348038 -0.07346117 -0.07343712 -0.0734046 -0.07336324 -0.07331472 -0.07325926
 -0.07320108 -0.07314046 -0.07308159 -0.07302466 -0.07297295 -0.07292604 -0.07288501 -0.07284813 -0.07281278 -0.07277743
 -0.07273833 -0.07269692 -0.07265254 -0.07260872 -0.07256795 -0.07253061 -0.07249857 -0.07246647 -0.07243334 -0.07239404
 -0.07234666 -0.07229401 -0.07223576 -0.07218008 -0.07212754 -0.07208188 -0.07204295 -0.07200687 -0.07197313 -0.07193625
 -0.07189655 -0.0718525 -0.07180471 -0.07175392 -0.07170102 -0.07164766 -0.0715954 -0.07154692 -0.07150309 -0.07146636
 -0.07143439 -0.0714072 -0.07137991 -0.07135046 -0.07131591 -0.07127465 -0.07122744 -0.07117404 -0.07111637 -0.0710545
 -0.07099071 -0.07092511 -0.07086138 -0.07079972 -0.07074358 -0.07069282 -0.07064804 -0.07060854 -0.07057178 -0.07053693
 -0.07050043 -0.07046194 -0.07041905 -0.07037223 -0.07032084 -0.07026621 -0.07020904 -0.07015116 -0.07009371 -0.0700384
 -0.06998667 -0.06993753 -0.06989187 -0.06984404 -0.06979354 -0.06973324 -0.06966181 -0.06957934 -0.0694855 -0.06939054
 -0.06929504 -0.06921039 -0.06913605 -0.06907367 -0.0690214 -0.06897203 -0.06892505 -0.06887464 -0.06882326 -0.06877287
 -0.06872532 -0.06868542 -0.06864907 -0.0686158 -0.06857707 -0.06852663 -0.06846195 -0.06837798 -0.06828494 -0.06818354
 -0.06808841 -0.06800313 -0.06793243 -0.06787822 -0.06783231 -0.06779443 -0.06775243 -0.06770598 -0.06765036 -0.06758662
 -0.06752089 -0.06745454 -0.06739734 -0.06734825 -0.06731095 -0.06728024 -0.06724861 -0.06721047 -0.06715359 -0.06708049
 -0.06698723 -0.06688367 -0.0667747 -0.06666785 -0.06656827 -0.06647663 -0.06639445 -0.06631939 -0.06625124 -0.06618834
 -0.06613059 -0.06607548 -0.0660229 -0.06596888 -0.06591333 -0.06585535 -0.06579516 -0.06573462 -0.06567321 -0.06561015
 -0.06554389 -0.06546899 -0.06538615 -0.06529312 -0.06519387 -0.06509256 -0.06499282 -0.06489971 -0.06481429 -0.06473906
 -0.06467275 -0.06461608 -0.06456492 -0.06451876 -0.06447173 -0.06442283 -0.06436664 -0.06430235 -0.06422707 -0.06414048
 -0.06404281 -0.06393419 -0.063818 -0.06369466 -0.06356907 -0.06344176 -0.06331746 -0.06319713 -0.06308596 -0.06298436
 -0.06289674 -0.06281978 -0.06275233 -0.06268717 -0.062617 -0.06253755 -0.06244228 -0.06233554 -0.06221664 -0.06209392
 -0.06196978 -0.06184952 -0.06173493 -0.0616264 -0.06152445 -0.06142639 -0.06133206 -0.06123937 -0.06114823 -0.06105828
 -0.06096882 -0.06087461 -0.06077366 -0.06065282 -0.06051325 -0.06034907 -0.06016793 -0.05998207 -0.05979744 -0.05962915
 -0.05947417 -0.05933691 -0.05920704 -0.0590792 -0.05894583 -0.05880008 -0.05864722 -0.05848555 -0.05833007 -0.05818398
 -0.05805523 -0.05794742 -0.05784246 -0.05773994 -0.05760537 -0.0574379 -0.05723193 -0.05699089 -0.05674288 -0.05648907
 -0.0562508 -0.05602389 -0.05580775 -0.05559703 -0.05538025 -0.05515583 -0.05491496 -0.05466313 -0.05440118 -0.05413808
 -0.0538809 -0.05363204 -0.0533967 -0.05316497 -0.05293537 -0.05269749 -0.05244733 -0.0521898 -0.05192462 -0.0516609
 -0.0513996 -0.0511389 -0.05087879 -0.05061803 -0.05035761 -0.05010705 -0.04986595 -0.04964034 -0.04942328 -0.04919925
 -0.04895801 -0.04866827 -0.04833322 -0.04793867 -0.04750663 -0.04705368 -0.04659507 -0.04614837 -0.04571183 -0.04528907
 -0.04487523 -0.04446876 -0.04407003 -0.04368 -0.04329273 -0.04291015 -0.04250188 -0.04206611 -0.04156842 -0.04100852
 -0.04040789 -0.0397709 -0.03914933 -0.0385399 -0.03795471 -0.0373864 -0.03681858 -0.03624816 -0.03566168 -0.03505744
 -0.03443021 -0.03377137 -0.03307461 -0.0323215 -0.03149747 -0.03059203 -0.02958768 -0.02851786 -0.02738145 -0.02624505
 -0.02512327 -0.0240541 -0.02304665 -0.02209927 -0.02121335 -0.02036796 -0.01956141 -0.01875118 -0.01793244 -0.01703823
 -0.01607347 -0.01501524 -0.01389473 -0.01280081 -0.01174334 -0.01079606 -0.009926911 -0.009119194 -0.008349941 -0.007585393
 -0.006828823 -0.006073587 -0.005322251 -0.004578656 -0.003827354 -0.003061268 -0.00228388 -0.001490497 -0.0007137189 4.176676E-05
 0.0007619849 0.001444937 0.002096407 0.002716122 0.003288246 0.003810858 0.004256501 0.004628787 0.004928464 0.00516566
 0.005371154 0.005553549 0.005749126 0.005951487 0.006167182 0.006387147 0.006599437 0.006814507 0.007036838 0.007272078
 0.007530328 0.007788247 0.008042522 0.008264991 0.008446965 0.008584132 0.008672808 0.008731376 0.008760402 0.00878792
 0.008815042 0.008851891 0.00889648 0.008932753 0.008959225 0.008959367 0.008935315 0.008883107 0.00880998 0.008726976
 0.008645335 0.008586856 0.008556347 0.008567554 0.008618354 0.008709299 0.008844812 0.009026548 0.009260062 0.009551146
 0.009885089 0.01026138 0.01065744 0.01106862 0.01149385 0.01193209 0.01239671 0.01288831 0.01341529 0.01397732
 0.01457416 0.01520505 0.01586671 0.01655773 0.01727197 0.01800868 0.01876216 0.01953519 0.02032886 0.02114742
 0.02199644 0.0228761 0.02378939 0.02473153 0.02570164 0.02669347 0.0277052 0.02873117 0.02977085 0.03081497
 0.03186369 0.03289656 0.03391207 0.03489083 0.03583233 0.03674969 0.03764628 0.03856604 0.03950504 0.04047168
 0.04144752 0.0423738 0.04324622 0.04402315 0.04471818 0.04533986 0.04588314 0.04634999 0.04672216 0.04698411
 0.0471347 0.047173 0.04708714 0.04688345 0.04650168 0.04592535 0.04513409 0.04410629 0.04298965 0.04179566
 0.04062291 0.03947477 0.03828273 0.03704334 0.03569435 0.03424358 0.03270113 0.03107442 0.02940139 0.0276641
 0.02585203 0.02392112 0.02177795 0.01945811 0.01691009 0.0143449 0.01191482 0.009711251 0.007864443 0.006218125
 0.004746761 0.003322702 0.001900217 0.0004811542 -0.0009438819 -0.002326054 -0.003660111 -0.004944042 -0.00617798 -0.007398259
 -0.008604913 -0.00981294 -0.01101554 -0.01218437 -0.01331284 -0.01436148 -0.01533499 -0.01622172 -0.01703551 -0.01779164
 -0.01850278 -0.01918618 -0.01985485 -0.02051879 -0.02120156 -0.02191783 -0.02268129 -0.02351609 -0.0243498 -0.02517873
 -0.02589202 -0.02646196 -0.0269141 -0.02724471 -0.0275459 -0.02782198 -0.02811224 -0.02841363 -0.02870324 -0.02897791
 -0.029206 -0.02939419 -0.02954901 -0.02967602 -0.02979501 -0.02989731 -0.02997996 -0.03002918 -0.03002582 -0.02997127
 -0.02985781 -0.02969872 -0.02949925 -0.02926721 -0.02900767 -0.02871895 -0.02840396 -0.02804681 -0.02764903 -0.02716845
 -0.02660183 -0.0259076 -0.02508408 -0.02417668 -0.02319328 -0.02224465 -0.02132921 -0.02049605 -0.01973416 -0.01902952
 -0.01838011 -0.01777504 -0.01721493 -0.01670299 -0.0162202 -0.01575411 -0.0152684 -0.01472519 -0.01412551 -0.01344447
 -0.01275198 -0.01206845 -0.01143862 -0.01088296 -0.01038645 -0.009950211 -0.009553697 -0.009194856 -0.008865028 -0.008563653
 -0.008282567 -0.008020567 -0.007762237 -0.007504326 -0.007222284 -0.006910547 -0.006536445 -0.00609829 -0.005571588 -0.004969138
 -0.004299383 -0.003576399 -0.002823937 -0.002034345 -0.001210965 -0.000339747 0.0005908086 0.001570284 0.002602075 0.003654993
 0.004721127 0.005785399 0.006841773 0.007906065 0.008979646 0.01007111 0.01118077 0.01225809 0.01329752 0.01421466
 0.01500858 0.01563147 0.01608576 0.01635733 0.0164423 0.016325 0.01600099 0.01545219 0.01468825 0.01370677
 0.01253627 0.01119286 0.009713144 0.008119198 0.006437351 0.004681013 0.002865846 0.0009922822 -0.0009002045 -0.002811643
 -0.004662923 -0.006446451 -0.008108306 -0.009645282 -0.01107705 -0.01240659 -0.01367989 -0.01489429 -0.01605904 -0.01716549
 -0.01818538 -0.01911886 -0.01994819 -0.02068727 -0.02134948 -0.02194971 -0.02251073 -0.02303832 -0.02354489 -0.02402916
 -0.02449336 -0.02493591 -0.02535619 -0.02575509 -0.02613249 -0.02649041 -0.02682895 -0.02715144 -0.0274584 -0.02775015
 -0.02802676 -0.02827598 -0.0284966 -0.02866869 -0.02879306 -0.02886282 -0.02888296 -0.02886724 -0.02882028 -0.02876044
 -0.0286881 -0.02861284 -0.02853119 -0.028443 -0.0283447 -0.02823144 -0.0281079 -0.0279719 -0.02784069 -0.02771836
 -0.02762488 -0.02756674 -0.02755134 -0.02758225 -0.02765081 -0.02775726 -0.02788411 -0.02803041 -0.02818083 -0.02833508
 -0.02848632 -0.02863466 -0.028778 -0.0289151 -0.02904071 -0.02915287 -0.02924375 -0.02931366 -0.029359 -0.02938252
 -0.02938623 -0.02937168 -0.02934108 -0.02929402 -0.02923008 -0.02915162 -0.02905829 -0.02895679 -0.02884814 -0.0287402
 -0.02863433 -0.02853596 -0.02844584 -0.02836628 -0.02829747 -0.02823726 -0.02818531 -0.02813663 -0.02809105 -0.02804468
 -0.02799827 -0.02795198 -0.02790786 -0.02787071 -0.02784267 -0.02783038 -0.02783238 -0.02785096 -0.02787999 -0.02791554
 -0.02795225 -0.02798508 -0.02801517 -0.02804146 -0.0280676 -0.02809527 -0.02812163 -0.02814725 -0.02816327 -0.02816877
 -0.02815819 -0.02813108 -0.02809109 -0.02803883 -0.02798394 -0.02792674 -0.02787455 -0.02782574 -0.02777911 -0.02773098
 -0.02767179 -0.02759888 -0.02750228 -0.02738433 -0.02724221 -0.02708389 -0.02691442 -0.02674123 -0.02657073 -0.02640334
 -0.02624129 -0.0260807 -0.02592074 -0.02575987 -0.02559772 -0.02543367 -0.02526797 -0.02509517 -0.02491499 -0.02471949
 -0.0245083 -0.02427516 -0.02401959 -0.02373429 -0.02342075 -0.02307645 -0.02271211 -0.02234839 -0.02200536 -0.02172776
 -0.02152496 -0.02143395 -0.0214307 -0.02151663 -0.02164045 -0.02177653 -0.02188002 -0.02192548 -0.02189934 -0.02179049
 -0.02161204 -0.02136345 -0.02106501 -0.02071876 -0.02033829 -0.01992458 -0.01948298 -0.01901346 -0.01851587 -0.01798975
 -0.01743105 -0.01684136 -0.01622017 -0.01557885 -0.01493901 -0.01432621 -0.01379204 -0.01335982 -0.01308539 -0.01295679
 -0.01299585 -0.01314251 -0.01337556 -0.01362499 -0.01385446 -0.01404108 -0.01416434 -0.01426069 -0.01433086 -0.01442465
 -0.01454919 -0.01471571 -0.0149259 -0.01514203 -0.01536118 -0.0155291 -0.0156469 -0.01569087 -0.01567339 -0.0156265
 -0.01556785 -0.01556149 -0.0156096 -0.01575235 -0.01596531 -0.01623763 -0.01653906 -0.01683671 -0.01712473 -0.01738692
 -0.01763921 -0.01788672 -0.01813195 -0.01838139 -0.01860846 -0.01881062 -0.01895929 -0.01904966 -0.01908166 -0.0190547
 -0.0189917 -0.01889358 -0.01877762 -0.01864259 -0.01848792 -0.01831286 -0.01811294 -0.01789099 -0.01765177 -0.01739876
 -0.01714103 -0.01687837 -0.01661475 -0.01634724 -0.01607466 -0.01579468 -0.01550537 -0.01520618 -0.01489632 -0.01457634
 -0.01424599 -0.0139072 -0.01355995 -0.01320776 -0.01285065 -0.01249544 -0.0121425 -0.01180052 -0.01146964 -0.01115267
 -0.01084864 -0.01055182 -0.01026179 -0.009973513 -0.009688028 -0.009406566 -0.009127667 -0.008850939 -0.008570391 -0.008278057
 -0.007970762 -0.007640888 -0.007294677 -0.006932464 -0.006564224 -0.006194942 -0.005827223 -0.00546388 -0.005099024 -0.004731797
 -0.004358781 -0.003978497 -0.003601053 -0.003226842 -0.002872706 -0.002538757 -0.002227258 -0.001935775 -0.001647193 -0.00136079
 -0.001063038 -0.0007582991 -0.0004515991 -0.0001460931 0.0001485197 0.0004355183 0.0007147202 0.0009907736 0.00126797 0.001548389
 0.001834242 0.002127161 0.002429048 0.002737505 0.003053633 0.003367778 0.003678485 0.003977928 0.004264529 0.004539928
 0.004804058 0.005061886 0.005313701 0.005564053 0.005813939 0.006072465 0.006341151 0.006632242 0.006944156 0.007281045
 0.007635598 0.007998117 0.008358192 0.008698697 0.0090131 0.009288325 0.009526906 0.009726075 0.009891836 0.01002731
 0.01013132 0.01020498 0.01024207 0.01024085 0.01020221 0.01012528 0.01002007 0.009887053 0.009738684 0.00957582
 0.009413576 0.009253581 0.009114987 0.008999109 0.008921316 0.008882557 0.008891533 0.008952605 0.009076258 0.009269872
 0.009548667 0.009912523 0.01037315 0.01090675 0.01151436 0.01213317 0.01275078 0.01326697 0.01365728 0.01382386
 0.01374055 0.01337577 0.01271547 0.01182784 0.0107143 0.009512181 0.008228946 0.007002442 0.005834042 0.004801832
 0.003895252 0.003114755 0.002443497 0.001835988 0.001281551 0.0007375368 0.0002048949 -0.0003335655 -0.0008701108 -0.001403651
 -0.001927283 -0.002435306 -0.002927515 -0.003401292 -0.003862805 -0.004313933 -0.004756237 -0.005191645 -0.005610893 -0.006012864
 -0.006392605 -0.006749194 -0.007097092 -0.007437349 -0.007792125 -0.008161086 -0.008552421 -0.008963226 -0.009385965 -0.00981714
 -0.01024367 -0.01066274 -0.01106257 -0.01144298 -0.0117979 -0.01213129 -0.01244444 -0.01274137 -0.01302547 -0.01329733
 -0.01355765 -0.01380773 -0.01404724 -0.01428128 -0.01451078 -0.01473917 -0.01496726 -0.01519358 -0.01541808 -0.01563876
 -0.0158556 -0.01606889 -0.01627867 -0.01648575 -0.0166899 -0.01689106 -0.01708803 -0.017278 -0.01745872 -0.01762416
 -0.01777395 -0.01790355 -0.0180179 -0.01811885 -0.01821399 -0.01830912 -0.01840737 -0.01851276 -0.01862082 -0.01873173
 -0.01883814 -0.01893832 -0.01902969 -0.01911132 -0.01918681 -0.01925641 -0.01932155 -0.01938201 -0.01943109 -0.01946822
 -0.01948526 -0.0194828 -0.01945894 -0.01941509 -0.01935379 -0.01927724 -0.01918948 -0.01909569 -0.01900415 -0.01891955
 -0.01885113 -0.01879472 -0.01875226 -0.01871254 -0.01867047 -0.01862104 -0.0185602 -0.01849385 -0.01842201 -0.01835318
 -0.01828871 -0.01823128 -0.01818145 -0.0181333 -0.01808638 -0.01802973 -0.01796349 -0.01788318 -0.01779139 -0.01769753
 -0.01760378 -0.01752269 -0.01745157 -0.01739157 -0.01733833 -0.01728539 -0.01723278 -0.01717813 -0.01712268 -0.01706822
 -0.01700992 -0.01694754 -0.01687133 -0.01677819 -0.01666224 -0.01652079 -0.01635735 -0.01617097 -0.01597536 -0.01577119
 -0.01557626 -0.01539124 -0.01522569 -0.01507823 -0.01494182 -0.01481364 -0.01467658 -0.01453021 -0.01436254 -0.01417909
 -0.01398336 -0.01378481 -0.01359805 -0.01342886 -0.01329017 -0.01317693 -0.01309217 -0.01302145 -0.01296015 -0.01289349
 -0.01281568 -0.01271957 -0.01260173 -0.01246559 -0.01231028 -0.01214801 -0.01197949 -0.01181757 -0.01166272 -0.01152014
 -0.01138931 -0.01126781 -0.01115553 -0.01105014 -0.01095324 -0.0108685 -0.01079724 -0.01074533 -0.01070939 -0.01068963
 -0.01067566 -0.01065876 -0.01062761 -0.01057068 -0.0104868 -0.01036938 -0.01023327 -0.01007985 -0.009929933 -0.009789286
 -0.00966337 -0.009555769 -0.009446647 -0.009335116 -0.009195937 -0.009028522 -0.008834485 -0.008616907 -0.00840534 -0.008200809
 -0.008025966 -0.007874631 -0.007740302 -0.007616467 -0.007484019 -0.007346995 -0.00720062 -0.007057092 -0.006927808 -0.006817831
 -0.006738179 -0.00667533 -0.006628859 -0.006574903 -0.006504621 -0.006408495 -0.006279834 -0.006135798 -0.005976522 -0.005828775
 -0.005695067 -0.005584932 -0.005498359 -0.00542178 -0.00535342 -0.005271066 -0.00517458 -0.005050437 -0.004902137 -0.004732646
 -0.00454653 -0.004355674 -0.004159833 -0.003964749 -0.003765824 -0.003559198 -0.003345603 -0.003122142 -0.002897957 -0.002676134
 -0.002465022 -0.002267864 -0.002089519 -0.001930992 -0.001798493 -0.001693289 -0.001616968 -0.001570401 -0.001540518 -0.001526392
 -0.001504276 -0.001472826 -0.001409708 -0.00131508 -0.001176385 -0.0009975474 -0.0007815564 -0.0005376349 -0.0002851706 -3.36737E-05
 0.000194075 0.000395594 0.0005584559 0.000688842 0.0007854887 0.0008605271 0.0009180408 0.000971664 0.00102678 0.001090762
 0.001167084 0.00125279 0.00134817 0.001447797 0.001551149 0.001657072 0.001765459 0.001874462 0.001983278 0.002083288
 0.002173613 0.002244187 0.002297091 0.002331344 0.00235436 0.002379878 0.00241698 0.002486702 0.002588502 0.002733415
 0.002906036 0.003100159 0.003299753 0.003493433 0.003680773 0.003857791 0.004034037 0.004211324 0.004394452 0.004585189
 0.004778418 0.00497439 0.005158567 0.005330111 0.005470136 0.005578762 0.0056487 0.005683416 0.005695832 0.00569063
 0.005689189 0.005694141 0.005721842 0.005771448 0.00585075 0.00595187 0.006071337 0.006197192 0.006318567 0.00643286
 0.006533949 0.006630786 0.006725042 0.006823792 0.006929105 0.007043539 0.007167368 0.007305381 0.007458264 0.00762475
 0.007804597 0.007983757 0.008161821 0.008328893 0.008486537 0.008638402 0.00878482 0.008929306 0.009069971 0.009204265
 0.009330961 0.009448132 0.009552297 0.009640303 0.009706091 0.009741968 0.00975279 0.009736001 0.009708375 0.00967563
 0.009645905 0.009622333 0.009605968 0.00959568 0.009606925 0.009640682 0.009714542 0.009829019 0.009969499 0.01013301
 0.0102818 0.01041512 0.01050783 0.0105647 0.01058515 0.01058026 0.01057189 0.01057286 0.01061659 0.01069656
 0.01082471 0.01097224 0.01111919 0.01125467 0.01135719 0.01146779 0.01159353 0.01177853 0.01204538 0.01234987
 0.01269136 0.01300796 0.01329262 0.01353518 0.013735 0.01389453 0.01401395 0.01409432 0.01413745 0.01415311
 0.01414399 0.01412338 0.01409406 0.01406795 0.01404805 0.01404695 0.01405769 0.01408163 0.0140994 0.01409598
 0.01406264 0.01398698 0.01388262 0.01375025 0.01360752 0.01345805 0.01331598 0.01318283 0.01307669 0.01299949
 0.0129608 0.012961 0.01298786 0.01304047 0.01310393 0.01317909 0.01326495 0.0133593 0.01345783 0.01354975
 0.01361022 0.01362781 0.01357122 0.01344284 0.01322789 0.01294932 0.01261263 0.01225912 0.01190785 0.01159815
 0.01134891 0.01117607 0.01108779 0.01108324 0.01116502 0.01131821 0.01154396 0.01179339 0.01206382 0.01229492
 0.01248766 0.01263327 0.01273931 0.0128454 0.01295246 0.01308661 0.01323938 0.01340394 0.01357395 0.01373528
 0.0138884 0.01402716 0.01415762 0.01428212 0.01440642 0.01453756 0.01466504 0.01478937 0.01488904 0.01495591
 0.01499429 0.01500018 0.01500975 0.01502614 0.01507229 0.01514944 0.01524948 0.01537164 0.01550554 0.01564999
 0.01579626 0.01593761 0.0160465 0.01611708 0.0161184 0.01605886 0.01593398 0.01576457 0.01556909 0.015371
 0.01519408 0.01505115 0.01496034 0.01490523 0.01488755 0.01487508 0.01485661 0.01483307 0.01480001 0.01478887
 0.01480365 0.01484397 0.01490988 0.0149611 0.0149967 0.01499378 0.01495557 0.01489008 0.01479854 0.01468839
 0.01456099 0.01442177 0.01427484 0.01413052 0.0139874 0.01384599 0.01370993 0.01357511 0.01346855 0.01340297
 0.01339872 0.01347495 0.01360029 0.01377726 0.0139414 0.01408395 0.01415396 0.01414505 0.01403519 0.01382293
 0.01353154 0.01316586 0.01279574 0.01242349 0.01210267 0.01182216 0.01157048 0.01133791 0.01109052 0.01083821
 0.01058112 0.01033248 0.01010987 0.009913763 0.009749196 0.009617485 0.009522093 0.009457924 0.009431928 0.009402752
 0.009365489 0.009266672 0.009092391 0.008845985 0.008522109 0.008199234 0.007881569</values></Ydata></AB><ScSm><Ydata ylabel="Single channel"><values byteorder="INTEL" format="FLOAT32" numvalues="1814"> 0.07527976 0.07530928 0.07539932 0.0755682 0.07578696 0.07599677 0.07614971 0.07623773 0.07627553 0.07626563
 0.07621293 0.07617168 0.07622876 0.07641655 0.07666537 0.07685471 0.07690932 0.07686242 0.07683437 0.07691609
 0.07704745 0.07703576 0.07673485 0.07621151 0.07570589 0.07541359 0.07536373 0.0755557 0.0760747 0.07685581
 0.07742588 0.07724531 0.07638863 0.07556418 0.0753292 0.07555817 0.07577653 0.07569987 0.07532132 0.07481666
 0.0745941 0.07517328 0.07667659 0.07842507 0.07918729 0.07794864 0.0746282 0.07032109 0.06690757 0.06604554
 0.0679943 0.07126763 0.07375223 0.07439664 0.07371584 0.07273014 0.07187708 0.07113366 0.07069856 0.07102177
 0.07217525 0.07343788 0.07365522 0.07220778 0.06974883 0.06776281 0.06722037 0.0679552 0.06943443 0.0713428
 0.0727856 0.07183363 0.06741926 0.0617368 0.05926093 0.06248847 0.06927386 0.07494581 0.07646996 0.07411276
 0.07004967 0.0665691 0.06524815 0.06652085 0.06956293 0.07298583 0.0756972 0.07695716 0.07618751 0.07347053
 0.07003765 0.0676644 0.06757735 0.06998499 0.07403891 0.07789576 0.07955132 0.0783286 0.0753299 0.07226276
 0.07031456 0.07016088 0.07212025 0.07580484 0.08011887 0.08391665 0.08647394 0.08752166 0.0872778 0.08631991
 0.0851534 0.08413766 0.08380154 0.08450908 0.08560999 0.08569878 0.08415784 0.08198867 0.08077667 0.08105144
 0.08186866 0.08195169 0.0809748 0.07932962 0.07685311 0.07284766 0.06767203 0.06312206 0.06063215 0.06020253
 0.06149159 0.06436583 0.06761703 0.06888078 0.06722276 0.06478752 0.06464942 0.0675365 0.07147236 0.07421688
 0.07533734 0.07605064 0.07764356 0.08014733 0.08216141 0.08190123 0.07896885 0.07535225 0.0740191 0.07600553
 0.07942882 0.08181497 0.08271017 0.08339889 0.08465925 0.08555771 0.08441393 0.08078615 0.07656214 0.07480878
 0.07710181 0.08194427 0.08584612 0.08590585 0.08176498 0.07570542 0.07087209 0.06909256 0.07036953 0.07406342
 0.07959937 0.08585884 0.0909026 0.09305529 0.09212677 0.08930442 0.08580322 0.0817434 0.07680289 0.0720965
 0.07039559 0.07349544 0.07990971 0.08611602 0.08970405 0.09056958 0.08952107 0.08677334 0.0821937 0.07678065
 0.07314599 0.07348076 0.07692179 0.08004937 0.08047815 0.07902926 0.07795469 0.07810995 0.07864399 0.07875991
 0.07884227 0.07981299 0.08183672 0.08397985 0.08513197 0.08501923 0.08424322 0.08356454 0.08321064 0.08271734
 0.08158979 0.08031486 0.08029335 0.08230722 0.08543858 0.08801125 0.08926553 0.08962208 0.08956328 0.08879188
 0.08667372 0.08344725 0.08070251 0.08019436 0.08214167 0.08510198 0.08747312 0.08863682 0.08878341 0.08832846
 0.08763985 0.08692314 0.08628018 0.08596411 0.08631387 0.08727036 0.08827136 0.08881405 0.08886399 0.08860474
 0.08808106 0.08726584 0.08631651 0.08559105 0.08539338 0.08573927 0.08639087 0.08707362 0.08758178 0.08774193
 0.08747138 0.0869063 0.08631758 0.08586525 0.08555284 0.08540204 0.08550076 0.08584076 0.0862423 0.08650449
 0.08656423 0.08647478 0.08629474 0.08604623 0.08575159 0.08547232 0.08530466 0.08531545 0.08546115 0.08561235
 0.085702 0.0857944 0.08594371 0.08605275 0.08597232 0.08570267 0.08540349 0.08522227 0.08518182 0.08521704
 0.08524698 0.08518886 0.08495957 0.08454564 0.08408876 0.08382998 0.0839151 0.08428904 0.08479156 0.0852787
 0.08563909 0.08580591 0.08581089 0.08575325 0.08567923 0.08554763 0.08532898 0.08509246 0.08497919 0.08509587
 0.08541962 0.0858079 0.08611475 0.08628276 0.08633246 0.08632746 0.08635886 0.08647935 0.08662526 0.08667319
 0.08659661 0.08650601 0.08651531 0.08661352 0.08668917 0.08666237 0.0865773 0.08655658 0.08666874 0.08686422
 0.08704779 0.08718328 0.0873088 0.08746417 0.08761783 0.08767739 0.08759113 0.08742633 0.08730716 0.08728398
 0.08731528 0.08737107 0.08748378 0.08767569 0.08788879 0.08802822 0.08806238 0.0880518 0.08807148 0.08812206
 0.08813658 0.08806794 0.08794512 0.08784111 0.08780858 0.08784995 0.08792832 0.08799459 0.08801353 0.08797738
 0.08790161 0.08780902 0.08771741 0.08764537 0.08762946 0.08771281 0.08788961 0.08806755 0.08812112 0.08800201
 0.08778782 0.08760969 0.08753276 0.08751042 0.08744967 0.0873085 0.08712425 0.08696115 0.08685163 0.08678631
 0.08673783 0.0866864 0.08664066 0.08664306 0.08673285 0.08688468 0.08700196 0.08699945 0.08688796 0.08675741
 0.08668576 0.08668509 0.08672248 0.08676495 0.08680924 0.08688281 0.08700299 0.08713067 0.08719648 0.08718504
 0.08715938 0.08719213 0.08730754 0.08749091 0.08770276 0.08787468 0.08794655 0.08793449 0.08792575 0.08798715
 0.08810672 0.08823647 0.08835855 0.08848716 0.08862995 0.0887808 0.08894896 0.08916979 0.08947313 0.08984393
 0.09022154 0.09054312 0.09079546 0.0910287 0.09131543 0.09168957 0.09212074 0.09254354 0.09291013 0.09322096
 0.0935109 0.09380728 0.09410897 0.09441292 0.09474511 0.09513816 0.09558307 0.09603174 0.09645046 0.0968484
 0.09725041 0.0976638 0.09808055 0.0985003 0.09894022 0.09941569 0.09990792 0.1003617 0.1007319 0.1010311
 0.1013214 0.1016646 0.1020822 0.1025408 0.1029629 0.1032807 0.1035087 0.1037432 0.1040607 0.1044351
 0.1047881 0.1051028 0.1054448 0.1058672 0.1063355 0.1067641 0.1071098 0.1074075 0.1077203 0.1080656
 0.1083968 0.1086576 0.1088485 0.1090258 0.1092381 0.1094915 0.1097862 0.110147 0.1105831 0.1110424
 0.1114491 0.1117731 0.1120344 0.1122582 0.1124572 0.1126432 0.1128237 0.1129974 0.1131723 0.1133635
 0.1135614 0.1137321 0.1138707 0.114022 0.1142297 0.1144933 0.1147967 0.1151437 0.1155323 0.115924
 0.1162841 0.11664 0.1170518 0.1175137 0.1179313 0.1182207 0.1183955 0.1185261 0.1186517 0.1187782
 0.1189386 0.1191905 0.1195507 0.1199716 0.1203938 0.1207949 0.1211808 0.1215522 0.121889 0.1221599
 0.122343 0.1224447 0.1225073 0.1225952 0.1227651 0.123032 0.1233565 0.1236723 0.1239292 0.124104
 0.1241788 0.1241449 0.1240403 0.1239528 0.1239443 0.123976 0.1239342 0.1237278 0.1233408 0.122797
 0.1221105 0.1212924 0.1203903 0.1195 0.1187301 0.1181594 0.1178273 0.1177576 0.1179713 0.1184555
 0.1191257 0.1198418 0.1204715 0.1209177 0.121095 0.1209236 0.1203837 0.1195572 0.1185921 0.1176292
 0.1167604 0.1160195 0.1153917 0.1148614 0.1144862 0.1144148 0.1148117 0.1157615 0.117232 0.1190877
 0.1211192 0.1230948 0.1248432 0.1263145 0.1275616 0.1286638 0.1296742 0.1306285 0.1315637 0.1324952
 0.133391 0.1342018 0.1349153 0.1355575 0.1361463 0.1366676 0.137095 0.1374141 0.1376346 0.1377933
 0.1379316 0.1380559 0.1381368 0.1381575 0.1381425 0.1381191 0.1380682 0.137929 0.1376472 0.1372193
 0.1367234 0.1363322 0.1362826 0.1367854 0.1379148 0.1395582 0.1414764 0.1434294 0.1452549 0.1468542
 0.1481588 0.1491502 0.1498886 0.1504797 0.1510075 0.1515089 0.151996 0.1524744 0.1529416 0.1533876
 0.1538074 0.1542117 0.1546245 0.1550625 0.1555122 0.1559383 0.1563236 0.1566932 0.1570916 0.1575368
 0.1580032 0.1584481 0.1588585 0.1592627 0.1596879 0.1601174 0.1605078 0.1608439 0.1611549 0.1614824
 0.1618515 0.1622655 0.1627003 0.16311 0.1634595 0.1637575 0.1640429 0.1643419 0.1646523 0.1649635
 0.165276 0.1655965 0.1659269 0.1662673 0.1666231 0.1669948 0.1673591 0.1676784 0.1679363 0.1681595
 0.1683947 0.1686671 0.1689626 0.1692493 0.1695163 0.1697911 0.170114 0.1704904 0.1708741 0.1712042
 0.1714576 0.1716638 0.1718715 0.1721097 0.1723792 0.1726677 0.1729621 0.1732506 0.1735281 0.1738
 0.1740776 0.1743671 0.1746658 0.1749662 0.1752604 0.1755448 0.1758214 0.1760951 0.1763728 0.1766667
 0.17699 0.1773381 0.1776808 0.1779839 0.1782365 0.1784531 0.1786549 0.1788599 0.1790827 0.1793329
 0.1796091 0.1798999 0.1801915 0.1804757 0.1807532 0.1810293 0.181307 0.1815844 0.1818591 0.1821334
 0.182415 0.1827098 0.1830153 0.1833182 0.1836036 0.1838663 0.1841149 0.184366 0.1846316 0.1849092
 0.1851835 0.1854409 0.1856829 0.1859195 0.1861564 0.1863949 0.1866387 0.186892 0.187152 0.1874115
 0.1876673 0.1879202 0.1881728 0.1884282 0.1886877 0.1889479 0.1892032 0.1894502 0.1896911 0.1899342
 0.1901883 0.1904544 0.1907222 0.1909795 0.1912239 0.1914634 0.1917055 0.1919484 0.192186 0.1924207
 0.1926654 0.1929291 0.1932042 0.1934741 0.1937289 0.1939707 0.194208 0.1944494 0.1946967 0.1949445
 0.1951906 0.1954402 0.1956984 0.1959607 0.1962178 0.1964642 0.1967039 0.1969473 0.1972019 0.1974651
 0.1977295 0.197993 0.1982579 0.1985237 0.1987871 0.199043 0.1992857 0.1995137 0.199733 0.19995
 0.2001654 0.2003804 0.2005993 0.2008241 0.2010538 0.2012878 0.2015221 0.2017511 0.2019773 0.2022107
 0.202453 0.2026979 0.2029436 0.2031927 0.2034429 0.2036911 0.2039392 0.2041887 0.2044397 0.2046941
 0.2049525 0.205211 0.2054681 0.2057262 0.205983 0.2062349 0.2064853 0.2067378 0.2069888 0.2072377
 0.20749 0.2077472 0.2080057 0.2082646 0.2085221 0.2087724 0.2090164 0.2092617 0.2095098 0.2097578
 0.2100062 0.2102539 0.2104959 0.2107349 0.2109783 0.2112255 0.2114756 0.2117354 0.2120046 0.2122704
 0.212528 0.2127831 0.2130339 0.2132757 0.2135149 0.213758 0.214001 0.214239 0.2144657 0.2146582
 0.2147692 0.2146743 0.2140399 0.212194 0.2081204 0.200666 0.188997 0.1731231 0.1540811 0.1335711
 0.1133309 0.09468137 0.07839657 0.06481016 0.05398975 0.04584511 0.04019447 0.03688112 0.0358976 0.03750788
 0.0423769 0.05117446 0.06309526 0.07455436 0.08058879 0.07877851 0.07156037 0.06400397 0.05960048 0.05858774
 0.05947427 0.06099459 0.0627466 0.06495236 0.06800213 0.07201253 0.07680176 0.08236639 0.08911593 0.09735131
 0.1066383 0.115988 0.1247062 0.1329356 0.1413177 0.1502141 0.1593243 0.1679842 0.1756978 0.1823781
 0.1882327 0.1935335 0.1984694 0.2031317 0.2075685 0.2117795 0.2156223 0.2187711 0.2208709 0.2218064
 0.2218366 0.2214533 0.22109 0.2209474 0.2210405 0.2213319 0.2217976 0.222423 0.2231894 0.224065
 0.2250025 0.2259553 0.2268974 0.2278166 0.228701 0.2295384 0.230318 0.2310279 0.2316633 0.2322346
 0.2327571 0.2332391 0.2336877 0.2341145 0.2345272 0.2349242 0.235302 0.2356587 0.2359907 0.2362933
 0.2365654 0.2368109 0.2370398 0.2372664 0.2374989 0.2377333 0.2379613 0.2381816 0.2384006 0.2386244
 0.238852 0.2390749 0.2392844 0.2394809 0.2396725 0.2398649 0.2400598 0.2402606 0.2404695 0.2406829
 0.2408958 0.2411094 0.241325 0.2415369 0.2417388 0.241934 0.2421333 0.2423447 0.2425657 0.2427859
 0.2430006 0.2432186 0.2434509 0.2436942 0.2439362 0.2441734 0.2444109 0.2446505 0.2448898 0.2451253
 0.245346 0.2455358 0.2456921 0.245837 0.2460043 0.2462157 0.2464634 0.2467145 0.2469399 0.2471395
 0.2473335 0.2475351 0.247738 0.2479264 0.2480986 0.2482828 0.2485163 0.2488001 0.2490947 0.2493688
 0.2496251 0.2498745 0.2501211 0.2503731 0.250632 0.2508673 0.2510424 0.2511713 0.2513304 0.2515987
 0.2519827 0.2523987 0.2527469 0.253002 0.2532163 0.25345 0.2537259 0.2540132 0.2542183 0.2542522
 0.2541718 0.2541961 0.2545059 0.2550632 0.2556735 0.2561809 0.2565593 0.2568628 0.2571409 0.2573903
 0.2575609 0.2576114 0.2575859 0.2576362 0.2579169 0.2584266 0.2589946 0.2594553 0.2597807 0.2600228
 0.2602245 0.2604101 0.2605399 0.2604559 0.2600476 0.2595376 0.2594213 0.2599869 0.2609909 0.2619179
 0.2624906 0.2628133 0.2630836 0.2633515 0.2635724 0.263651 0.2633289 0.2623332 0.260905 0.2599412
 0.2602485 0.2617285 0.2635369 0.2649287 0.2657273 0.2661297 0.2663748 0.2665851 0.2666777 0.2663791
 0.2655304 0.2644855 0.2640169 0.2646031 0.2658896 0.2670694 0.2677057 0.2679576 0.2681465 0.2684003
 0.2685689 0.2681724 0.2666693 0.2642535 0.2622614 0.2622329 0.2644032 0.2674183 0.2696777 0.2707154
 0.2710772 0.2711399 0.2705649 0.2689151 0.2662988 0.2633182 0.2609109 0.2602481 0.261952 0.2651009
 0.2677502 0.2688542 0.2691435 0.269877 0.2713305 0.2727867 0.2734893 0.2732376 0.2722592 0.2707912
 0.268967 0.2672163 0.2665012 0.2676291 0.2702745 0.2731002 0.274997 0.2759245 0.2763232 0.275807
 0.2729092 0.2668532 0.2597451 0.2559683 0.2582989 0.2649957 0.2716693 0.2755916 0.2771677 0.2778637
 0.2782682 0.2779343 0.275612 0.2699105 0.2614588 0.2543012 0.2531666 0.2587808 0.2670439 0.2728727
 0.2737031 0.2697697 0.2631398 0.2570571 0.254629 0.256964 0.2627017 0.2693475 0.2747589 0.2777348
 0.2780181 0.2761664 0.2734764 0.2716644 0.2716337 0.2721132 0.270615 0.2665946 0.2623936 0.2597963
 0.2572336 0.2526417 0.2479937 0.2479681 0.2538855 0.2615291 0.2659095 0.266316 0.2653506 0.2641451
 0.2603605 0.2515275 0.2397363 0.2316475 0.2326699 0.2413667 0.2507605 0.2551664 0.2546916 0.2531407
 0.2529296 0.252637 0.2490291 0.2413186 0.233237 0.2298713 0.2322218 0.2362971 0.2377909 0.235478
 0.2296095 0.220531 0.2112208 0.2081324 0.2156854 0.2308011 0.2453682 0.252937 0.250991 0.2393786
 0.2212317 0.2049144 0.1999288 0.2083621 0.2223399 0.2313016 0.2303428 0.2209589 0.2065428 0.1901689
 0.1760718 0.1698992 0.1752623 0.1901444 0.2071096 0.2169636 0.2137505 0.1993957 0.1841685 0.1792558
 0.1865376 0.1973262 0.2021557 0.1993988 0.1937588 0.1901867 0.1910523 0.1959122 0.2019775 0.2066762
 0.2096807 0.2099372 0.2028552 0.1858239 0.1655476 0.1536639 0.1546413 0.1633852 0.1745695 0.1874506
 0.1999628 0.2053878 0.1999488 0.1900415 0.1868619 0.1945205 0.2064978 0.2136391 0.2132252 0.2094948
 0.2070149 0.2057719 0.2034909 0.2009624 0.2022028 0.2089536 0.217674 0.2234905 0.2252503 0.2251097
 0.224851 0.2245311 0.223709 0.222237 0.2201738 0.2178996 0.2160105 0.2146401 0.2133418 0.2117893
 0.2097431 0.2059888 0.1986023 0.1876801 0.1770927 0.1714548 0.171248 0.17307 0.1746808 0.1763405
 0.176122 0.1685716 0.1519571 0.1342069 0.1271511 0.1351045 0.1516635 0.1669644 0.1751823 0.1749971
 0.1666668 0.1523481 0.1386718 0.1347077 0.1445408 0.1633044 0.1823703 0.1967962 0.2059465 0.209388
 0.2059893 0.1969493 0.1870866 0.1821418 0.1852488 0.1954651 0.2080923 0.2159429 0.2128286 0.1996796
 0.187371 0.1887855 0.205293 0.2244818 0.2340958 0.2344864 0.2338004 0.2353337 0.2358133 0.2341644
 0.2351199 0.2426456 0.254037 0.2625682 0.26339 0.2554286 0.2407691 0.2251771 0.2166207 0.2188772
 0.2272344 0.2336215 0.2344428 0.2301177 0.2202885 0.2058055 0.1938148 0.1934741 0.2053404 0.2201359
 0.2293121 0.2328336 0.2353223 0.2380855 0.2375518 0.230702 0.2201018 0.2123211 0.2114166 0.21535
 0.2193937 0.2211264 0.2204902 0.2169516 0.2098224 0.201352 0.1967714 0.199753 0.2086318 0.218016
 0.2236633 0.2251405 0.2244669 0.2235282 0.2228255 0.2216771 0.219516 0.2175822 0.2186964 0.2241812
 0.2316566 0.2374414 0.2407748 0.244078 0.2491625 0.2547214 0.2579102 0.2574497 0.2548392 0.2530563
 0.2541865 0.2577779 0.2611744 0.2617855 0.2595601 0.257265 0.2579342 0.2619778 0.2671295 0.2710265
 0.2731352 0.2742621 0.2751729 0.2759399 0.2759137 0.2742318 0.2710787 0.2684293 0.2686532 0.2721502
 0.2769483 0.2807161 0.2826265 0.2832257 0.2831655 0.2825181 0.2811407 0.2792936 0.2776757 0.2768783
 0.2769628 0.2775922 0.2783994 0.2791482 0.2797154 0.2800832 0.2803153 0.2804751 0.2805959 0.280718
 0.2808666 0.2809823 0.2809747 0.2808783 0.2808642 0.2810418 0.2813142 0.281487 0.2814478 0.281158
 0.2805358 0.2794818 0.2780234 0.2763169 0.2744704 0.272474 0.2704152 0.2687235 0.2680477 0.2687723
 0.2706519 0.2729526 0.2749373 0.2762242 0.276814 0.2769393 0.2769043 0.2769339 0.2770628 0.277154
 0.2770404 0.2766514 0.2760221 0.2752222 0.2743073 0.273325 0.2723224 0.271321 0.2703102 0.2693059
 0.2684069 0.2677449 0.2673538 0.2671095 0.2668246 0.2663964 0.2658471 0.2652397 0.2645871 0.2638463
 0.2629835 0.2620406 0.2611397 0.2604008 0.2598373 0.2593385 0.258756 0.2580017 0.2570894 0.2561178
 0.2552084 0.2544202 0.2537106 0.252981 0.2521459 0.2511588 0.2500107 0.2487294 0.2473645 0.2459548
 0.2445119 0.2430271 0.2414799 0.2398427 0.2380951 0.236239 0.2343003 0.2323162 0.2303217 0.2283394
 0.2263577 0.2243033 0.2220382 0.2194 0.2162538 0.2125202 0.2081869 0.2033279 0.1981097 0.1927576
 0.1874978 0.18251 0.177912 0.17378 0.1701832 0.1671928 0.1648644 0.163229 0.1623017 0.1620848
 0.1625599 0.1636835 0.1653852 0.1675619 0.1700791 0.1727813 0.1754974 0.1780572 0.1803451 0.1823564
 0.1841834 0.1859256 0.18761 0.1892016 0.1906697 0.1920152 0.1932348 0.1943044 0.1952164 0.1960033
 0.1966993 0.1972976 0.1977659 0.1980809 0.198234 0.198218 0.198034 0.1977253 0.197416 0.1973083
 0.1976062 0.1984046 0.1996298 0.2010809 0.2025406 0.2038778 0.2050759 0.2061849 0.2072622 0.2083472
 0.2094566 0.2105886 0.2117497 0.212979 0.2143304 0.2158308 0.2174702 0.2192159 0.2210157 0.2227927
 0.2244541 0.2259109 0.2270984 0.227994 0.2286169 0.2290089 0.2292142 0.2292712 0.2292092 0.2290497
 0.2288116 0.2285096 0.2281496 0.2277329 0.2272608 0.2267286 0.2261315 0.2254881 0.2248413 0.2242231
 0.2236317 0.2230513 0.2224784 0.2219213 0.2213825 0.2208486 0.2202986 0.2197197 0.2191087 0.2184649
 0.2177912 0.2170951 0.2163658 0.2155611 0.2146395 0.2136 0.212468 0.2112558 0.2099557 0.2085608
 0.2070745 0.2055067 0.2038687 0.2021672 0.2004037 0.1985748 0.1966622 0.1946307 0.1924692 0.1902361
 0.1880403 0.1859713 0.1840575 0.1822779 0.180596 0.178986 0.177442 0.1759637 0.1745474 0.173198
 0.1719337 0.1707628 0.169668 0.1686239 0.1676228 0.1666818 0.1658315 0.1650936 0.1644616 0.1639093
 0.1634171 0.1629864 0.1626392 0.1624117 0.162323 0.1623315 0.1623415 0.1622731 0.1621128 0.1618933
 0.16165 0.1614067 0.1611826 0.1609944 0.1608444 0.1606992 0.1604805 0.1600859 0.1594257 0.158446
 0.1571369 0.1555289 0.1536864 0.1517138 0.1497592 0.1479769 0.1464624 0.1452327 0.1442593 0.1434903
 0.1428566 0.1423047 0.1418378 0.141513 0.1413904 0.1414662 0.1416358 0.1417506 0.1417516 0.1417324
 0.1418502 0.1421936 0.1427371 0.1433765 0.1439946 0.1445218 0.1449425 0.1452506 0.1454355 0.1455098
 0.145502 0.1454165 0.1452422 0.1449861 0.1446705 0.1443146 0.1439301 0.1435052 0.1429972 0.1423728
 0.1416356 0.1408007 0.1398784 0.1388783 0.1377818 0.1365459 0.1352162 0.1340093 0.133215 0.13302
 0.1334175 0.1342252 0.1352058 0.1362155 0.137185 0.1379409 0.138243 0.1381586 0.1382571 0.1391986
 0.141102 0.1434196 0.1454307 0.1467547 0.1473866 0.1474232 0.1469234 0.1459396 0.144497 0.1425655
 0.140159 0.1373982 0.1344243 0.1313647 0.1283995 0.1257172 0.1234176 0.1215355 0.1200769 0.1190698
 0.1186203 0.1183519 0.1164266 0.1105022 0.1013532 0.094491 0.09553795 0.103902 0.1131829 0.1179374
 0.1180201 0.1163318 0.1148632 0.1139053 0.1133564 0.1133686 0.1140832 0.1153679 0.1168313 0.1180558
 0.1188602 0.1192694 0.1192332 0.1184071 0.1160963 0.1114788 0.1042673 0.09531544 0.08634062 0.07891981
 0.07377627 0.07078924 0.0693295 0.06862316 0.06813602 0.06781897 0.06799398 0.06898423 0.07084695 0.07341864
 0.07649213 0.07982017 0.08301935 0.08570553 0.08777878 0.08941437 0.09074853 0.09172014 0.0922195 0.09224246
 0.09188095 0.0912614 0.09050397 0.08967823 0.08877024 0.08771832 0.08653684 0.08541706 0.0846207 0.08422818
 0.08408211 0.08400694 0.08396089 0.08395089 0.08394779 0.08392765 0.08390217 0.0839123 0.08404495 0.08438616
 0.08489862 0.08541413 0.085779 0.0859596 0.08601324 0.08597746 0.08576761 0.08525495 0.08453026 0.08393167
 0.08361325 0.08324797 0.08243096 0.0812749 0.08034327 0.08004177 0.08027263 0.08064006 0.08081321 0.08070135
 0.08045698 0.08038611 0.08072689 0.08137324</values></Ydata></ScSm><ScRf><Ydata ylabel="Single channel"><values byteorder="INTEL" format="FLOAT32" numvalues="1820"> 0.06048895 0.06064185 0.06073859 0.06077976 0.06078571 0.06079603 0.06085639 0.06098998 0.06117707 0.06136283
 0.06149501 0.06156069 0.06157876 0.06156229 0.06151744 0.06148117 0.06151839 0.0616581 0.06185123 0.06200446
 0.06205384 0.0620198 0.06199805 0.06206718 0.06218117 0.06217806 0.06193217 0.06149868 0.06107863 0.06083306
 0.06078261 0.06092488 0.06133258 0.06196045 0.0624297 0.06229888 0.06161764 0.06095216 0.06075411 0.06092608
 0.06108807 0.06101514 0.06070662 0.0603039 0.06013068 0.06060217 0.06181744 0.06322856 0.06383683 0.06281673
 0.0601025 0.05658785 0.05380546 0.05310345 0.05468914 0.05735119 0.0593711 0.05989663 0.05935188 0.0585705
 0.05790303 0.05731644 0.05696195 0.05720995 0.05813131 0.05914484 0.05930699 0.05811098 0.05609498 0.05447648
 0.05404589 0.05465705 0.05586468 0.05741141 0.05857943 0.05780818 0.05422629 0.04960854 0.04759193 0.05021766
 0.05575059 0.06038548 0.06163826 0.05971947 0.05640926 0.05357992 0.05250983 0.0535393 0.05599462 0.05875676
 0.06094917 0.06197355 0.061356 0.0591578 0.05637467 0.05444665 0.05437215 0.05632559 0.05962018 0.06275526
 0.06409821 0.06309906 0.0606567 0.05815912 0.05656792 0.05643201 0.05801783 0.06101876 0.06454363 0.06765166
 0.06974386 0.07059576 0.07038595 0.06959413 0.06864487 0.06783389 0.0675806 0.06816936 0.0690691 0.0691379
 0.06787121 0.06608459 0.06507835 0.06529541 0.06596895 0.06605135 0.06526893 0.06393949 0.06193426 0.05868562
 0.05447957 0.0507736 0.04873955 0.04838634 0.04944241 0.05180348 0.05448637 0.05555511 0.05422787 0.05223786
 0.05209796 0.05442303 0.05761651 0.05985145 0.0607682 0.06135519 0.06266064 0.06470875 0.06635656 0.06614916
 0.06376204 0.06081609 0.05973373 0.06136458 0.06417508 0.06614371 0.06689566 0.06747997 0.06853725 0.06930872
 0.06841946 0.06550185 0.06208996 0.06068221 0.06256491 0.06652387 0.06971958 0.06978495 0.06642248 0.0614936
 0.05756958 0.05614652 0.0572317 0.06031205 0.06492464 0.07015194 0.07439618 0.07626833 0.07559012 0.07332094
 0.0704658 0.06714389 0.06310219 0.05926102 0.05791144 0.06054749 0.06594825 0.07119545 0.07428011 0.07510142
 0.07432007 0.07210854 0.06835358 0.06389229 0.06092142 0.06129213 0.06428872 0.06703451 0.06751118 0.06639988
 0.06559604 0.06582241 0.0663605 0.06654161 0.06670588 0.06764883 0.06950986 0.07148058 0.07259755 0.07261567
 0.07205085 0.07156889 0.07137723 0.07107432 0.07022659 0.06925695 0.06938265 0.07127576 0.07412803 0.07647963
 0.07767788 0.07810047 0.07817281 0.07762895 0.07590117 0.07319109 0.07090218 0.07059534 0.07247379 0.0752559
 0.0775063 0.07867025 0.07892828 0.07866348 0.07820369 0.07772469 0.0773125 0.07718928 0.07765171 0.07864349
 0.07966548 0.0802753 0.08044569 0.08033664 0.07998166 0.07936022 0.07862923 0.07812163 0.07810462 0.07857603
 0.07931203 0.08006883 0.08066931 0.08095662 0.08084418 0.08044603 0.08001556 0.07971638 0.07956207 0.07956941
 0.07981052 0.08026975 0.08077459 0.08113655 0.08129992 0.08131897 0.08125053 0.08111377 0.08092849 0.08075844
 0.08070591 0.08083677 0.08109625 0.08134819 0.08153515 0.08173589 0.08200523 0.08223234 0.08225629 0.08208071
 0.08188038 0.08181033 0.08187941 0.08200058 0.08208983 0.08208518 0.08192591 0.08160204 0.081241 0.08106869
 0.08123116 0.08168939 0.08229578 0.08289878 0.08336614 0.08361656 0.08368112 0.08366527 0.08362219 0.08351777
 0.08333005 0.08313401 0.08307191 0.08324674 0.08363137 0.08408125 0.08444734 0.08466716 0.08476148 0.08480437
 0.0848985 0.08509461 0.08531074 0.0854044 0.08534902 0.08527501 0.08531228 0.08544245 0.08553438 0.08550282
 0.08540721 0.08538742 0.08551399 0.08572574 0.08591756 0.08605856 0.08620423 0.08640456 0.08661453 0.08671168
 0.08662362 0.08642544 0.08626844 0.08622137 0.08624002 0.08628753 0.08640067 0.08660354 0.08682241 0.0869471
 0.08695691 0.08693816 0.08697309 0.08704259 0.08705486 0.08695255 0.08677149 0.08660418 0.08652749 0.08655947
 0.08665685 0.08674285 0.08675417 0.08668036 0.08656155 0.08644611 0.08635649 0.08630428 0.08632739 0.08647566
 0.08673283 0.08697115 0.08702821 0.0868521 0.0865595 0.08633398 0.0862646 0.08628381 0.0862531 0.08609498
 0.08584391 0.08559106 0.08540103 0.0852783 0.08519061 0.08511225 0.08505557 0.08506855 0.08518276 0.08534583
 0.08542791 0.08533008 0.08508226 0.08481004 0.08461908 0.08453481 0.08452561 0.08454272 0.08455437 0.08457323
 0.08463144 0.08471099 0.0847383 0.08467468 0.08457351 0.08452527 0.08458194 0.0847414 0.08495082 0.08511116
 0.08513692 0.08504193 0.08493159 0.0848951 0.08493599 0.08501261 0.08510262 0.0852059 0.08531652 0.08542521
 0.0855436 0.08570249 0.08591873 0.08616933 0.08640108 0.08656909 0.08667569 0.086777 0.08694395 0.0872052
 0.08752353 0.08782757 0.08806907 0.08825552 0.08843078 0.08862388 0.08882518 0.08902045 0.08923119 0.08949471
 0.08981134 0.090141 0.09045171 0.09074609 0.0910387 0.09133106 0.09161828 0.09191135 0.09224398 0.0926433
 0.09308015 0.09346318 0.09371265 0.09384194 0.09395073 0.09414381 0.09446053 0.09485146 0.09520216 0.09541629
 0.09551194 0.09561086 0.0958034 0.0960566 0.09629202 0.09651843 0.09682725 0.09726027 0.09773287 0.09810891
 0.09833144 0.09846351 0.09860784 0.0988007 0.09899159 0.09912229 0.09920406 0.09929816 0.09943682 0.09960447
 0.09980128 0.1000742 0.100451 0.1008749 0.1012478 0.1015212 0.1017168 0.1018746 0.1020109 0.1021158
 0.1021685 0.1021694 0.1021666 0.1022206 0.1023309 0.1024308 0.1024731 0.1024899 0.1025493 0.1026852
 0.1028935 0.1031621 0.1034679 0.1037657 0.1040269 0.1042885 0.1046152 0.1049926 0.1053045 0.1054551
 0.1054796 0.10549 0.1055408 0.105609 0.1056892 0.1058313 0.1060708 0.106377 0.1066958 0.1070109
 0.1073395 0.107687 0.1080182 0.10827 0.1083918 0.1083869 0.1083205 0.1082871 0.1083626 0.1085701
 0.1088721 0.1091953 0.1094742 0.1096713 0.1097641 0.109749 0.1096769 0.1096524 0.109751 0.1099341
 0.1100741 0.1100597 0.1098591 0.1094942 0.1089924 0.1083812 0.1077098 0.1070556 0.1065016 0.1061042
 0.1058861 0.1058626 0.1060624 0.106498 0.1071161 0.1078039 0.1084521 0.1089837 0.1093181 0.1093597
 0.1090636 0.108492 0.1077766 0.1070375 0.1063468 0.1057271 0.1051534 0.1045904 0.104073 0.1037462
 0.1037962 0.1043385 0.1053614 0.1067361 0.1082568 0.1097041 0.1109295 0.1119094 0.1127174 0.1134387
 0.1141144 0.1147611 0.1154057 0.1160649 0.1167048 0.1172666 0.1177348 0.1181506 0.1185546 0.1189474
 0.1193045 0.1196044 0.1198456 0.1200543 0.1202608 0.1204493 0.1205568 0.1205461 0.1204557 0.1203507
 0.1202455 0.1200965 0.1198524 0.1194958 0.1190663 0.1186766 0.1185023 0.1187126 0.1193749 0.1204112
 0.121657 0.1229652 0.1242443 0.1254096 0.1263577 0.1270271 0.12746 0.1277671 0.1280421 0.1283251
 0.1286228 0.1289293 0.1292318 0.1295196 0.1297947 0.1300744 0.1303826 0.1307276 0.1310828 0.1314006
 0.1316596 0.1318933 0.1321644 0.1325062 0.1328908 0.1332561 0.1335724 0.1338693 0.1341843 0.1344984
 0.1347544 0.1349342 0.1350879 0.1352858 0.135566 0.1359218 0.1363066 0.1366512 0.1369084 0.1370931
 0.1372633 0.1374623 0.1376914 0.1379342 0.1381836 0.1384367 0.1386859 0.1389315 0.1391945 0.1394916
 0.139799 0.1400603 0.140245 0.1403839 0.1405373 0.1407361 0.1409625 0.1411816 0.1413828 0.1415913
 0.1418423 0.1421394 0.1424405 0.1426878 0.1428577 0.1429776 0.1430984 0.1432548 0.1434519 0.1436755
 0.1439071 0.1441309 0.1443395 0.144538 0.1447406 0.1449563 0.14518 0.1453991 0.1456075 0.1458102
 0.1460152 0.1462243 0.1464384 0.1466681 0.1469291 0.1472188 0.1475049 0.1477478 0.1479337 0.1480796
 0.1482106 0.1483435 0.1484895 0.1486574 0.1488486 0.1490562 0.1492699 0.1494808 0.1496837 0.1498786
 0.1500699 0.1502623 0.1504582 0.1506586 0.150868 0.1510939 0.1513376 0.151586 0.1518158 0.1520145
 0.1521931 0.1523752 0.1525733 0.1527788 0.1529747 0.1531545 0.1533275 0.1535065 0.1536957 0.1538926
 0.1540953 0.1543028 0.1545107 0.1547135 0.1549108 0.1551068 0.1553032 0.1554963 0.1556815 0.1558615
 0.1560463 0.1562419 0.1564436 0.1566434 0.1568403 0.1570379 0.1572368 0.1574338 0.1576275 0.1578194
 0.1580111 0.1582025 0.1583931 0.1585834 0.1587752 0.158969 0.1591654 0.159365 0.159567 0.1597681
 0.1599691 0.1601757 0.1603884 0.1606003 0.1608098 0.1610243 0.1612468 0.1614681 0.1616789 0.1618818
 0.162086 0.1622991 0.1625225 0.1627516 0.1629789 0.1632002 0.1634143 0.1636209 0.1638204 0.1640135
 0.1642005 0.1643821 0.1645617 0.1647412 0.1649195 0.1650972 0.1652771 0.1654587 0.1656393 0.1658204
 0.1660041 0.1661894 0.1663763 0.1665688 0.1667691 0.1669756 0.1671856 0.167396 0.1676039 0.1678105
 0.1680191 0.1682284 0.1684357 0.1686404 0.1688408 0.1690345 0.1692286 0.1694338 0.1696496 0.1698674
 0.1700833 0.170297 0.1705065 0.1707139 0.1709239 0.1711345 0.1713407 0.1715466 0.1717587 0.1719741
 0.1721864 0.1723942 0.1725995 0.172806 0.1730175 0.1732319 0.1734445 0.1736587 0.1738764 0.1740887
 0.1742908 0.1744938 0.1747059 0.1749212 0.1751361 0.1753539 0.1755712 0.1757828 0.175993 0.1762047
 0.1764131 0.1766199 0.1768295 0.1770251 0.177155 0.1770991 0.1765764 0.1750398 0.1716581 0.1654785
 0.1558072 0.1426515 0.1268713 0.1098742 0.09309845 0.07763977 0.06414355 0.05288877 0.04393188 0.03719825
 0.03253709 0.02981495 0.0290172 0.03035375 0.03437463 0.04164536 0.0515137 0.06101576 0.06603068 0.06453779
 0.05854922 0.05227338 0.0486166 0.04778243 0.04853124 0.04980716 0.05127261 0.05311194 0.05565222 0.05899479
 0.06299093 0.06763366 0.07325394 0.08009534 0.0878001 0.0955563 0.1027957 0.1096406 0.1166257 0.1240499
 0.131658 0.1388896 0.1453266 0.1508978 0.155783 0.160215 0.1643521 0.1682674 0.1719992 0.1755469
 0.1787858 0.1814353 0.1831988 0.1839906 0.1840361 0.1837439 0.1834685 0.1833749 0.1834784 0.1837509
 0.1841727 0.1847293 0.1854002 0.1861528 0.1869464 0.1877525 0.1885646 0.1893748 0.1901546 0.1908753
 0.1915315 0.1921332 0.1926871 0.1931976 0.1936706 0.1941108 0.1945193 0.194896 0.1952421 0.1955656
 0.1958807 0.1961967 0.1965083 0.1968009 0.1970643 0.1972978 0.1975101 0.1977151 0.1979227 0.1981326
 0.1983396 0.1985431 0.1987493 0.198965 0.1991898 0.1994129 0.1996215 0.1998141 0.2000009 0.2001896
 0.2003798 0.2005697 0.2007612 0.2009544 0.2011458 0.2013318 0.2015121 0.2016904 0.2018725 0.2020619
 0.2022573 0.2024561 0.2026556 0.202851 0.203042 0.2032389 0.2034532 0.203681 0.2039084 0.2041284
 0.2043431 0.2045554 0.2047674 0.2049781 0.2051766 0.2053485 0.2054961 0.2056458 0.2058275 0.2060493
 0.2062916 0.2065244 0.2067338 0.2069296 0.2071255 0.2073215 0.2075062 0.2076698 0.2078158 0.2079718
 0.2081749 0.2084335 0.2087161 0.2089865 0.2092329 0.2094594 0.2096775 0.2099067 0.2101515 0.2103792
 0.2105501 0.210676 0.210826 0.211068 0.2114052 0.2117722 0.2120964 0.2123592 0.2125897 0.2128214
 0.2130733 0.2133343 0.2135347 0.2135941 0.2135524 0.2135967 0.2138876 0.214392 0.2149366 0.2153849
 0.2157211 0.2159985 0.2162576 0.2164884 0.2166439 0.2166919 0.2166788 0.2167408 0.2170076 0.2174684
 0.2179707 0.2183768 0.2186716 0.2189051 0.2191119 0.2193055 0.2194463 0.2194032 0.2190925 0.2187071
 0.2186561 0.219168 0.2200352 0.2208351 0.2213466 0.221658 0.2219277 0.2221927 0.2224164 0.2225197
 0.2222828 0.2214703 0.2202834 0.2194855 0.2197696 0.2210599 0.2226412 0.2238764 0.2246082 0.2249965
 0.225242 0.2254553 0.2255739 0.2253655 0.224687 0.2238348 0.2234728 0.2240167 0.2251629 0.2262141
 0.2267931 0.2270414 0.227241 0.2275034 0.2276991 0.2274161 0.2261878 0.2241732 0.2225101 0.2225167
 0.2244008 0.227014 0.2289948 0.2299422 0.2303123 0.2304181 0.2299711 0.2286048 0.2264188 0.2239296
 0.2219347 0.2214274 0.2229332 0.2256642 0.2279665 0.22896 0.22928 0.2299991 0.2313344 0.2326538
 0.2333097 0.2331445 0.2323623 0.2311595 0.229641 0.2281823 0.2276281 0.2286793 0.2310413 0.2335424
 0.2352211 0.2360563 0.2364466 0.23607 0.2336577 0.2285245 0.22247 0.2192697 0.2213304 0.2271676
 0.2330005 0.2364664 0.2379039 0.2385728 0.2389815 0.2387511 0.2368147 0.2319774 0.2247747 0.2186851
 0.2177869 0.2227124 0.2299264 0.2350387 0.2358291 0.2324969 0.22683 0.2216365 0.2196071 0.2217065
 0.2267653 0.2326279 0.2374349 0.2401357 0.2404925 0.2389768 0.2367185 0.2352276 0.2353051 0.2358461
 0.2346756 0.2313057 0.2277637 0.225604 0.2234693 0.219568 0.2156249 0.2157319 0.2210522 0.2278946
 0.2318777 0.2323701 0.2316613 0.2307603 0.2276152 0.2200324 0.2098198 0.2028381 0.2038844 0.2117254
 0.2202109 0.2243088 0.224103 0.2229574 0.2230158 0.2230179 0.2200811 0.213489 0.2065522 0.2037988
 0.2061243 0.2099852 0.211557 0.2097408 0.2047341 0.1968314 0.1887196 0.1862225 0.1933365 0.2073053
 0.2208232 0.2280599 0.2267123 0.2165983 0.2005243 0.1860997 0.1820197 0.190227 0.2035393 0.2122829
 0.2119386 0.2038445 0.1910907 0.1765074 0.1640453 0.1590162 0.1648635 0.1797457 0.1966552 0.2068255
 0.2045011 0.1914679 0.1775967 0.1737067 0.181622 0.192895 0.1983074 0.1962649 0.1913529 0.1884487
 0.1899538 0.1954685 0.2021923 0.2075236 0.2111193 0.2118708 0.205074 0.1880686 0.1676891 0.1557899
 0.1569328 0.1659636 0.1775035 0.1908193 0.2037779 0.2094676 0.2039995 0.1939198 0.1906997 0.1985527
 0.2108033 0.2180758 0.2175892 0.2137044 0.2111338 0.2098939 0.2076676 0.2052684 0.2068121 0.2140762
 0.2234193 0.2298392 0.232156 0.2325874 0.2329657 0.2333415 0.2332417 0.232496 0.2311648 0.2296561
 0.2286022 0.2281399 0.2277845 0.2271733 0.2260246 0.222978 0.215886 0.2048333 0.1940836 0.1887166
 0.1892336 0.1918646 0.1941488 0.1963612 0.1963068 0.187888 0.1691795 0.1490081 0.1405336 0.1485439
 0.1658951 0.181627 0.1893572 0.1878133 0.1775134 0.1609095 0.1450143 0.1392759 0.1478977 0.1657804
 0.1839355 0.1972351 0.2051124 0.2073108 0.2028257 0.1928856 0.1822516 0.176542 0.1787609 0.1879162
 0.1994074 0.2063102 0.2027294 0.1895869 0.1772449 0.1779504 0.1930321 0.2107554 0.2195056 0.2195809
 0.2186717 0.2199127 0.220228 0.2185826 0.2194118 0.2264628 0.2372339 0.2454301 0.246491 0.2393854
 0.2260607 0.2119653 0.2046495 0.2076682 0.216476 0.2233315 0.2247808 0.2211999 0.2122179 0.1986838
 0.1875793 0.1878193 0.1999302 0.2148547 0.2242417 0.2280482 0.2307965 0.2337823 0.2335283 0.2271039
 0.2170734 0.2099347 0.2096911 0.2143246 0.2191682 0.2218304 0.2222126 0.2196827 0.213465 0.2058279
 0.2021316 0.2061369 0.2160732 0.2262848 0.2322902 0.2335668 0.2321763 0.2301044 0.2279583 0.2251536
 0.2212113 0.2174452 0.2167268 0.2204239 0.2262209 0.230491 0.2324596 0.2344816 0.2383497 0.2428333
 0.2451897 0.244161 0.2411523 0.2389801 0.239606 0.2425887 0.2454179 0.2456582 0.243273 0.240886
 0.2413723 0.2451216 0.2499831 0.2537062 0.2557697 0.2569312 0.2579191 0.258792 0.258898 0.2573753
 0.2543762 0.2517721 0.2518215 0.2549261 0.2592497 0.2626156 0.2642668 0.2647361 0.2646411 0.2640425
 0.262799 0.2611525 0.2597497 0.2591279 0.2593271 0.2600192 0.2608554 0.2616189 0.2622045 0.2626033
 0.2628729 0.2630593 0.2631774 0.2632639 0.263361 0.2634323 0.2633944 0.2632722 0.2632316 0.2633938
 0.2636801 0.2639008 0.2639299 0.2637162 0.2631888 0.2622793 0.2610369 0.259608 0.2580693 0.256385
 0.2546306 0.2532178 0.2527635 0.2536348 0.2556145 0.2580291 0.2601976 0.2617728 0.2627489 0.2632766
 0.2635181 0.2636006 0.2636027 0.2635443 0.2634081 0.2631824 0.2628801 0.2625225 0.26213 0.2617344
 0.2613801 0.261094 0.2608554 0.2606049 0.2602844 0.259874 0.2593947 0.2588831 0.2583589 0.2578076
 0.2571867 0.2564519 0.255589 0.2546338 0.2536633 0.2527566 0.2519469 0.2512009 0.2504528 0.2496525
 0.248767 0.2477571 0.2466107 0.2454138 0.2443345 0.2434874 0.242834 0.2422363 0.2415786 0.2408158
 0.2399447 0.2389782 0.237942 0.2368652 0.2357643 0.2346376 0.2334679 0.2322274 0.2308914 0.229454
 0.2279265 0.2263289 0.2246912 0.2230462 0.2213917 0.2196551 0.2177065 0.2154063 0.2126356 0.2093029
 0.2053713 0.2009025 0.1960669 0.1910912 0.1861837 0.1815006 0.1771605 0.1732673 0.1699093 0.1671506
 0.1650353 0.1635996 0.1628716 0.1628625 0.1635604 0.1649215 0.1668644 0.1692752 0.1720203 0.1749497
 0.1778981 0.1807075 0.1832787 0.1856097 0.1877703 0.1898221 0.1917623 0.1935494 0.1951604 0.1965941
 0.1978367 0.1988626 0.1996796 0.2003423 0.2009126 0.2014172 0.2018516 0.2022124 0.2025169 0.2027912
 0.2030475 0.2032822 0.2034909 0.2036801 0.203868 0.2040811 0.2043467 0.2046845 0.205105 0.2056078
 0.2061723 0.2067603 0.2073453 0.2079338 0.2085502 0.2092103 0.209925 0.2107232 0.2116537 0.2127576
 0.2140325 0.2154215 0.2168353 0.2181844 0.2193938 0.2204049 0.2211818 0.2217154 0.2220195 0.2221244
 0.2220697 0.2218898 0.2216037 0.2212256 0.2207758 0.2202719 0.2197196 0.2191191 0.2184728 0.2177835
 0.2170594 0.216325 0.2156105 0.2149258 0.2142579 0.213598 0.2129562 0.2123462 0.2117652 0.2111984
 0.2106373 0.2100828 0.2095345 0.2089851 0.2084253 0.2078403 0.2072 0.2064674 0.2056253 0.2046857
 0.2036648 0.2025599 0.2013587 0.200064 0.1986961 0.1972697 0.1957784 0.1942085 0.1925622 0.1908496
 0.1890576 0.1871511 0.1851277 0.1830603 0.1810639 0.1792194 0.1775336 0.1759608 0.1744535 0.172999
 0.1716167 0.1703218 0.1690992 0.1679243 0.1667925 0.165715 0.1646989 0.1637455 0.1628607 0.1620577
 0.1613502 0.1607423 0.160221 0.1597639 0.1593541 0.1589874 0.1586784 0.158468 0.1583978 0.1584535
 0.1585499 0.1585899 0.1585301 0.1583927 0.1582362 0.1581147 0.1580438 0.1580023 0.1579655 0.1579124
 0.1577922 0.1575056 0.15694 0.1560263 0.1547711 0.1532398 0.151512 0.1496703 0.1478283 0.1461269
 0.1446775 0.1435234 0.1426515 0.142005 0.1414996 0.1410763 0.1407446 0.1405619 0.1405763 0.1407717
 0.1410364 0.1412146 0.1412456 0.1412379 0.1413762 0.1417753 0.1424239 0.1432111 0.1439895 0.1446539
 0.1451701 0.1455355 0.1457573 0.1458693 0.1459119 0.1458879 0.1457798 0.1455925 0.1453451 0.1450463
 0.1446967 0.1442867 0.1437968 0.1432243 0.1425829 0.1418661 0.1410567 0.1401585 0.1391623 0.1380306
 0.1368039 0.1356846 0.1349468 0.1347743 0.1351771 0.1359976 0.1370162 0.1380955 0.1391543 0.1399947
 0.1403635 0.1403376 0.1405046 0.1415405 0.1435736 0.1460468 0.1482112 0.1496665 0.1504096 0.1505418
 0.1501178 0.1491855 0.1477617 0.1458032 0.1433292 0.1404864 0.1374323 0.1343006 0.1312913 0.1286121
 0.1263476 0.1244946 0.1230362 0.1220061 0.1215442 0.1213035 0.1194034 0.1133992 0.1040593 0.09707549
 0.09826938 0.1070304 0.1167359 0.1217483 0.1219003 0.1201832 0.1186647 0.1176613 0.1170828 0.1170984
 0.1178477 0.1191665 0.1206324 0.1218241 0.1225742 0.1229264 0.1228489 0.1219965 0.1196414 0.1149202
 0.1075299 0.09833861 0.08909237 0.0814002 0.07601187 0.07282299 0.07121481 0.070418 0.06989589 0.06959814
 0.06984599 0.07094532 0.07292406 0.07560991 0.07881306 0.08229585 0.08565812 0.08849128 0.09068611 0.0924269
 0.09386004 0.09491423 0.09545708 0.09548503 0.09511979 0.09451021 0.09377533 0.09297821 0.09209436 0.09103581
 0.0897948 0.08857374 0.08767103 0.08720121 0.08701955 0.08693506 0.08687991 0.08685896 0.08686198 0.08686411
 0.08685082 0.08684882 0.08695321 0.08725891 0.08773267 0.08820909 0.08853129 0.08866915 0.08870707 0.08870503
 0.08855528 0.08807575 0.08731999 0.08662181 0.08615875 0.08564266 0.08469309 0.08341669 0.08236876 0.08196765
 0.08212756 0.08244826 0.08259421 0.08246942 0.08220019 0.08206084 0.08229364 0.0828356 0.08327974 0.08325481
</values></Ydata></ScRf><Data_Parameters_AB><parameter name="DPF">1</parameter><parameter name="NPT">3497</parameter><parameter name="FXV">3996</parameter><parameter name="LXV">500</parameter><parameter name="CSF">1</parameter><parameter name="MXY">0.0471730045974255</parameter><parameter name="MNY">-0.0952222272753716</parameter><parameter name="DAT">20/05/2022</parameter><parameter name="TIM">10:57:19.377 (GMT+2)</parameter><parameter name="DXU">WN</parameter></Data_Parameters_AB><AB__Qtest><MainReport name="Quality Test Report"><Header><Line><Legend>Test result ok/not ok [1/0]: </Legend><Value>0</Value></Line><Line><Legend>Method file: </Legend><Value>C:\Users\Public\Documents\Bruker\OPUS_8.2.28\QT\IRBT_v3_default.QT</Value></Line></Header><Matrix><Line><Legend></Legend><Legend>min</Legend><Legend>max</Legend><Legend>measured</Legend></Line><Line><Value>Absorption (X-Range 1):</Value><Value>0.400000</Value><Value>2.000000</Value><Value>0.095313</Value></Line><Line><Value>Noise (X-Range 4):</Value><Value></Value><Value>0.000300</Value><Value>0.000036</Value></Line><Line><Value>Signal/Noise (X-Range 2):</Value><Value>200.000000</Value><Value></Value><Value>31.331977</Value></Line><Line><Value>Signal/Noise (X-Range 3):</Value><Value>40.000000</Value><Value></Value><Value>46.420010</Value></Line><Line><Value>Water vapour (X-Range 5):</Value><Value></Value><Value>0.000300</Value><Value>0.000025</Value></Line><Line><Value>Signal/Water (X-Range 2):</Value><Value>100.000000</Value><Value></Value><Value>45.906290</Value></Line><Line><Value>Signal/Water (X-Range 3):</Value><Value>20.000000</Value><Value></Value><Value>68.012638</Value></Line><Line><Value>Fringes (X-Range 6):</Value><Value></Value><Value>0.000100</Value><Value>0.000043</Value></Line></Matrix></MainReport></AB__Qtest><Data_Parameters_ScSm><parameter name="DPF">1</parameter><parameter name="NPT">1814</parameter><parameter name="FXV">3996.33169228125</parameter><parameter name="LXV">499.541461535156</parameter><parameter name="CSF">1</parameter><parameter name="MXY">0.283225744962692</parameter><parameter name="MNY">0.0358975976705551</parameter><parameter name="DAT">20/05/2022</parameter><parameter name="TIM">10:57:19.377 (GMT+2)</parameter><parameter name="DXU">WN</parameter></Data_Parameters_ScSm><Data_Parameters_ScRf><parameter name="DPF">1</parameter><parameter name="NPT">1820</parameter><parameter name="FXV">4004.04661832813</parameter><parameter name="LXV">495.683998511719</parameter><parameter name="CSF">1</parameter><parameter name="MXY">0.264736115932465</parameter><parameter name="MNY">0.0290172025561333</parameter><parameter name="DAT">20/05/2022</parameter><parameter name="TIM">10:56:53.811 (GMT+2)</parameter><parameter name="DXU">WN</parameter></Data_Parameters_ScRf><Optic_Parameters_Rf><parameter name="APR">0</parameter><parameter name="APT">Open</parameter><parameter name="BMS">KBr</parameter><parameter name="DTC">RT-DLaTGS_IR-Biotyper [Microplate reader]</parameter><parameter name="HPF">0</parameter><parameter name="LPF">10.0</parameter><parameter name="LPV">4000</parameter><parameter name="PGR">0</parameter><parameter name="RCH">Module port</parameter><parameter name="RDX">0</parameter><parameter name="SRC">MIR</parameter><parameter name="VEL">10.0</parameter><parameter name="SON">Off</parameter></Optic_Parameters_Rf><Acquisition_Parameters_Rf><parameter name="ADT">1</parameter><parameter name="AQM">DD</parameter><parameter name="CFE">0</parameter><parameter name="COR">0</parameter><parameter name="DEL">0</parameter><parameter name="DLY">0</parameter><parameter name="HFW">8000</parameter><parameter name="LFW">0</parameter><parameter name="NSR">32</parameter><parameter name="PLF">AB</parameter><parameter name="RES">6</parameter><parameter name="RGN">-1</parameter><parameter name="STR">0</parameter><parameter name="TCL">MakeCompatibleScalar (0, {WSV=1.000000, ARV=0});</parameter><parameter name="TDL">37</parameter><parameter name="RPO">0</parameter></Acquisition_Parameters_Rf><FT_-_Parameters_Rf><parameter name="APF">B3</parameter><parameter name="HFQ">500</parameter><parameter name="LFQ">4000</parameter><parameter name="NLI">0</parameter><parameter name="PHR">24</parameter><parameter name="PHZ">ML</parameter><parameter name="SPZ">NO</parameter><parameter name="ZFF">1</parameter></FT_-_Parameters_Rf><Optic_Parameters_><parameter name="APR">0</parameter><parameter name="APT">Open</parameter><parameter name="BMS">KBr</parameter><parameter name="CHN">Module port</parameter><parameter name="DTC">RT-DLaTGS_IR-Biotyper [Microplate reader]</parameter><parameter name="HPF">0</parameter><parameter name="LPF">10.0</parameter><parameter name="LPV">4000</parameter><parameter name="PGN">0</parameter><parameter name="RDX">0</parameter><parameter name="SRC">MIR</parameter><parameter name="VEL">10.0</parameter><parameter name="SON">Off</parameter></Optic_Parameters_><FT_-_Parameters_><parameter name="APF">B3</parameter><parameter name="HFQ">500</parameter><parameter name="LFQ">4000</parameter><parameter name="NLI">0</parameter><parameter name="PHR">24</parameter><parameter name="PHZ">ML</parameter><parameter name="SPZ">NO</parameter><parameter name="ZFF">1</parameter></FT_-_Parameters_><Acquisition_Parameters_><parameter name="ADT">1</parameter><parameter name="AQM">DD</parameter><parameter name="CFE">0</parameter><parameter name="COR">0</parameter><parameter name="DEL">0</parameter><parameter name="DLY">0</parameter><parameter name="HFW">8000</parameter><parameter name="LFW">0</parameter><parameter name="NSS">32</parameter><parameter name="PLF">AB</parameter><parameter name="RES">6</parameter><parameter name="SOT">0</parameter><parameter name="TCL">MakeCompatibleScalar (0, {WSV=1.000000, ARV=0});</parameter><parameter name="TDL">37</parameter><parameter name="SPO">0</parameter><parameter name="SGN">-1</parameter></Acquisition_Parameters_><Instrument_Parameters_Rf><parameter name="HFL">15800.168544</parameter><parameter name="LFL">0</parameter><parameter name="LWN">15800.168544</parameter><parameter name="ABP">32197</parameter><parameter name="SSP">1</parameter><parameter name="ARG">2</parameter><parameter name="ASG">2</parameter><parameter name="ASS">32</parameter><parameter name="GFW">16</parameter><parameter name="GBW">16</parameter><parameter name="BFW">0</parameter><parameter name="BBW">0</parameter><parameter name="PKA">7377</parameter><parameter name="PKL">4990</parameter><parameter name="PRA">7491</parameter><parameter name="PRL">5001</parameter><parameter name="P2A">1</parameter><parameter name="P2L">1</parameter><parameter name="P2R">1</parameter><parameter name="P2K">1</parameter><parameter name="DAQ">0</parameter><parameter name="AG2">1</parameter><parameter name="SSM">1</parameter><parameter name="RSN">24499</parameter><parameter name="CRR">0</parameter><parameter name="SRT">1653044213.811</parameter><parameter name="DUR">19.6379852294922</parameter><parameter name="TSC">28.9</parameter><parameter name="MVD">6.03523635864258</parameter><parameter name="AN1">0.225788700813318</parameter><parameter name="AN2">0</parameter><parameter name="VSN">2.485 Apr  4 2017</parameter><parameter name="SRN">0085</parameter><parameter name="CAM">0</parameter><parameter name="INS">IR-Biotyper</parameter><parameter name="FOC">69</parameter><parameter name="RDY">1</parameter><parameter name="ARS">32</parameter></Instrument_Parameters_Rf><Sample_Parameters_><parameter name="BLD"></parameter><parameter name="CNM">Admin</parameter><parameter name="CPY"></parameter><parameter name="DPM"></parameter><parameter name="EXP">IRBT_v3_32Scans.XPM</parameter><parameter name="LCT"></parameter><parameter name="SFM">Microplate, HTS-XT</parameter><parameter name="SNM">220520-0930(v.3)_CLA33F (D_1)_D3_f6cfdc0b-1729-4f12-8e9f-c339256affc9.0</parameter><parameter name="XPP">C:\Users\Public\Documents\Bruker\OPUS_8.2.28\XPM</parameter><parameter name="IST">OK</parameter><parameter name="CPG">1252</parameter><parameter name="UID">88eed478-f3d5-4072-9787-0f276818d795</parameter></Sample_Parameters_><Instrument_Parameters_><parameter name="HFL">15800.168544</parameter><parameter name="LFL">0</parameter><parameter name="LWN">15800.168544</parameter><parameter name="ABP">32197</parameter><parameter name="SSP">1</parameter><parameter name="ASG">2</parameter><parameter name="ARG">2</parameter><parameter name="ASS">32</parameter><parameter name="GFW">16</parameter><parameter name="GBW">16</parameter><parameter name="BFW">0</parameter><parameter name="BBW">0</parameter><parameter name="PKA">8222</parameter><parameter name="PKL">4990</parameter><parameter name="PRA">8436</parameter><parameter name="PRL">4993</parameter><parameter name="P2A">1</parameter><parameter name="P2L">1</parameter><parameter name="P2R">1</parameter><parameter name="P2K">1</parameter><parameter name="DAQ">0</parameter><parameter name="AG2">1</parameter><parameter name="SSM">1</parameter><parameter name="RSN">12874</parameter><parameter name="CRR">0</parameter><parameter name="SRT">1653044239.377</parameter><parameter name="DUR">19.6379852294922</parameter><parameter name="TSC">28.9</parameter><parameter name="MVD">3.91644954681396</parameter><parameter name="AN1">0.22578541302579</parameter><parameter name="AN2">0</parameter><parameter name="VSN">2.485 Apr  4 2017</parameter><parameter name="SRN">0085</parameter><parameter name="CAM">0</parameter><parameter name="INS">IR-Biotyper</parameter><parameter name="FOC">69</parameter><parameter name="RDY">1</parameter></Instrument_Parameters_><History/></OPUSDataFile>
