<?xml version="1.0" encoding="UTF-8" ?>
<OPUSDataFile><AB><Ydata ylabel="Absorbance Units"><values byteorder="INTEL" format="FLOAT32" numvalues="3497"> -0.1030047 -0.1030305 -0.1030414 -0.1030372 -0.1030207 -0.102992 -0.1029554 -0.1029115 -0.1028684 -0.1028276
 -0.1028016 -0.1027896 -0.1027968 -0.1028175 -0.1028413 -0.1028642 -0.1028732 -0.1028738 -0.1028654 -0.1028587
 -0.1028629 -0.1028825 -0.1029248 -0.1029808 -0.1030513 -0.1031172 -0.1031742 -0.1032081 -0.1032144 -0.103199
 -0.1031612 -0.1031236 -0.1030873 -0.1030675 -0.1030635 -0.1030686 -0.1030815 -0.1030895 -0.1030948 -0.1030979
 -0.1031017 -0.1031141 -0.1031341 -0.1031639 -0.1031999 -0.1032386 -0.1032782 -0.1033161 -0.103352 -0.1033858
 -0.1034139 -0.103436 -0.1034439 -0.1034352 -0.1034059 -0.1033532 -0.1032877 -0.103209 -0.1031403 -0.1030829
 -0.1030554 -0.1030576 -0.1030898 -0.1031492 -0.1032201 -0.1033005 -0.103374 -0.1034396 -0.1034865 -0.1035143
 -0.1035156 -0.1034962 -0.1034566 -0.1034118 -0.1033731 -0.1033519 -0.1033612 -0.1033908 -0.1034435 -0.1034923
 -0.10353 -0.1035435 -0.1035267 -0.1034974 -0.1034557 -0.1034345 -0.1034356 -0.1034802 -0.1035674 -0.1036915
 -0.1038471 -0.1040008 -0.1041461 -0.1042386 -0.104281 -0.1042531 -0.1041715 -0.1040534 -0.1039162 -0.1037881
 -0.103675 -0.103594 -0.103535 -0.1034999 -0.1034692 -0.1034344 -0.1033906 -0.1033309 -0.1032778 -0.1032329
 -0.1032219 -0.1032492 -0.1033091 -0.1034015 -0.1034882 -0.1035678 -0.1036109 -0.1036215 -0.1036084 -0.1035786
 -0.103563 -0.1035626 -0.1035987 -0.1036614 -0.103745 -0.103836 -0.1039144 -0.1039782 -0.104018 -0.1040398
 -0.1040456 -0.1040369 -0.1040137 -0.1039817 -0.1039385 -0.1039087 -0.103894 -0.1039291 -0.1040192 -0.1041716
 -0.1043879 -0.1045807 -0.1047434 -0.104748 -0.1046097 -0.1043624 -0.1040321 -0.1037396 -0.1034862 -0.1033376
 -0.1032781 -0.1033165 -0.1034217 -0.1035648 -0.1037106 -0.103816 -0.1038786 -0.1038765 -0.1038499 -0.1038096
 -0.1037845 -0.1037904 -0.1038077 -0.1038374 -0.1038459 -0.1038282 -0.1037826 -0.1037084 -0.1036398 -0.1035785
 -0.1035594 -0.1035798 -0.1036418 -0.1037358 -0.1038266 -0.1039064 -0.1039335 -0.1039146 -0.1038381 -0.1037232
 -0.1035869 -0.1034482 -0.1033287 -0.103239 -0.1031924 -0.1031864 -0.1032261 -0.1032935 -0.1033866 -0.1034821
 -0.1035751 -0.1036565 -0.1037246 -0.1037801 -0.1038231 -0.1038387 -0.1038259 -0.1037649 -0.1036578 -0.1035085
 -0.1033232 -0.1031263 -0.102924 -0.1027433 -0.1025885 -0.1024804 -0.1024162 -0.1024052 -0.10243 -0.1024829
 -0.1025379 -0.1025763 -0.1025895 -0.1025652 -0.1025218 -0.1024606 -0.1024035 -0.1023555 -0.1023222 -0.1023049
 -0.1023035 -0.102318 -0.1023529 -0.1024079 -0.1024777 -0.1025592 -0.1026259 -0.1026764 -0.1026872 -0.1026671
 -0.1026256 -0.1025742 -0.1025396 -0.1025217 -0.1025335 -0.1025642 -0.1026069 -0.1026592 -0.1027136 -0.102786
 -0.1028816 -0.103009 -0.1031779 -0.1033567 -0.1035449 -0.1036916 -0.1037894 -0.1038271 -0.1038033 -0.1037281
 -0.1036017 -0.10342 -0.1031866 -0.1029222 -0.1026372 -0.1023856 -0.1021728 -0.1020439 -0.1019887 -0.1020176
 -0.1020984 -0.1021965 -0.1022849 -0.1023198 -0.1023178 -0.1022727 -0.1022166 -0.1021636 -0.1021245 -0.1021084
 -0.1020995 -0.1020982 -0.1020777 -0.1020345 -0.1019602 -0.1018535 -0.1017371 -0.1016127 -0.1015157 -0.1014464
 -0.1014267 -0.1014486 -0.1014956 -0.1015503 -0.1015537 -0.1015065 -0.1013723 -0.1011869 -0.1009812 -0.1007816
 -0.1006286 -0.1005121 -0.1004427 -0.100388 -0.100337 -0.1002674 -0.1001668 -0.1000454 -0.09990151 -0.09975751
 -0.09961681 -0.09948198 -0.09935386 -0.09921107 -0.09905314 -0.09886923 -0.09866419 -0.09846951 -0.09828781 -0.09814999
 -0.0980472 -0.09797069 -0.09791388 -0.09785867 -0.09780795 -0.09775877 -0.0977127 -0.09767394 -0.09763078 -0.09758039
 -0.09750304 -0.09738983 -0.09722909 -0.09701522 -0.09674574 -0.09641785 -0.09604153 -0.09561621 -0.09516556 -0.09469097
 -0.09421401 -0.09373581 -0.09327508 -0.09283416 -0.09244003 -0.09209344 -0.09181599 -0.09159817 -0.09142791 -0.09129062
 -0.09115148 -0.09100819 -0.09084383 -0.0906601 -0.09045911 -0.09022246 -0.0899395 -0.08959761 -0.08917886 -0.08872151
 -0.08823016 -0.08774894 -0.08728972 -0.08685905 -0.08646066 -0.08607607 -0.08570433 -0.08532792 -0.08494698 -0.0845679
 -0.08419304 -0.08384623 -0.08352359 -0.08322675 -0.08293892 -0.0826133 -0.08224189 -0.08177632 -0.08124787 -0.0806756
 -0.08009205 -0.07953914 -0.07901546 -0.07853366 -0.07808053 -0.07765284 -0.07724272 -0.07684702 -0.07646295 -0.07608962
 -0.07572581 -0.07537216 -0.07501921 -0.07466698 -0.07428581 -0.07387411 -0.07339934 -0.07286458 -0.07227574 -0.07164272
 -0.07101087 -0.07038739 -0.06981701 -0.0692974 -0.06884912 -0.06845596 -0.06810988 -0.06778303 -0.06744667 -0.06708524
 -0.06667499 -0.0662318 -0.0657557 -0.06526662 -0.06477447 -0.06427021 -0.06375431 -0.06321213 -0.06263864 -0.06206075
 -0.06147921 -0.06094328 -0.06045412 -0.06002606 -0.05965478 -0.05931382 -0.05899732 -0.05866531 -0.05831696 -0.05792667
 -0.05750328 -0.05705012 -0.0565792 -0.05610985 -0.05564367 -0.05519246 -0.0547431 -0.05429171 -0.05382409 -0.05332983
 -0.05281462 -0.05227517 -0.05173296 -0.05119175 -0.05066595 -0.05015871 -0.0496683 -0.04919512 -0.04872777 -0.04826577
 -0.04780124 -0.04733443 -0.04686454 -0.04639082 -0.04590951 -0.04541936 -0.04491263 -0.0443939 -0.04386624 -0.04333957
 -0.04282968 -0.04233951 -0.04188048 -0.04144211 -0.04102238 -0.04060768 -0.04019088 -0.03976654 -0.03933024 -0.03888727
 -0.03843734 -0.03798958 -0.03754563 -0.03710606 -0.03667138 -0.03623031 -0.03578243 -0.03532014 -0.03484501 -0.03436674
 -0.03388736 -0.03342259 -0.0329699 -0.03253143 -0.03210121 -0.03166802 -0.03122932 -0.03077442 -0.03031052 -0.02983818
 -0.02937151 -0.02892062 -0.02849176 -0.02809422 -0.02771278 -0.02734673 -0.02697336 -0.02658636 -0.02618224 -0.02575829
 -0.02533056 -0.02490005 -0.02447848 -0.02406603 -0.02366024 -0.02326073 -0.02286304 -0.02246822 -0.02207886 -0.02169619
 -0.02132573 -0.02096647 -0.02061977 -0.02028232 -0.01994967 -0.01962083 -0.01929251 -0.01896719 -0.018647 -0.01832868
 -0.01801366 -0.01768913 -0.01735011 -0.01699447 -0.01661753 -0.01624268 -0.01587201 -0.01552698 -0.01521033 -0.01490921
 -0.01462254 -0.01432061 -0.01400471 -0.01367195 -0.01332857 -0.01300323 -0.01269803 -0.01243737 -0.01221202 -0.01201721
 -0.0118388 -0.01165331 -0.01145711 -0.01123473 -0.01099846 -0.01075085 -0.01050585 -0.0102726 -0.01005042 -0.00984231
 -0.00963875 -0.009437876 -0.009235483 -0.009030621 -0.008823011 -0.008612597 -0.008398172 -0.008179778 -0.007960082 -0.007739338
 -0.00752215 -0.00730666 -0.007086763 -0.006859945 -0.006612944 -0.006350692 -0.006074043 -0.005795418 -0.005533612 -0.005294254
 -0.005093091 -0.004920141 -0.004775044 -0.004642973 -0.004515693 -0.004389307 -0.004259793 -0.004132276 -0.004007635 -0.003887122
 -0.003771432 -0.003656677 -0.003542518 -0.003428376 -0.003314272 -0.003202544 -0.003092697 -0.002981072 -0.002866946 -0.002743675
 -0.002613495 -0.002478755 -0.002344002 -0.002220796 -0.002109001 -0.002016109 -0.001932403 -0.001852697 -0.001763944 -0.001653379
 -0.001521624 -0.001360102 -0.001195231 -0.001030879 -0.0009004612 -0.0008152175 -0.000773614 -0.0007808772 -0.0007923743 -0.0008050391
 -0.0007830742 -0.0007258719 -0.0006539765 -0.0005714288 -0.000527095 -0.0005184742 -0.0005619971 -0.0006459628 -0.0007432875 -0.0008448907
 -0.0009164538 -0.0009614562 -0.0009674881 -0.0009487751 -0.0009143881 -0.0008773273 -0.0008521533 -0.0008356489 -0.0008337598 -0.0008257693
 -0.000806049 -0.0007603648 -0.0006806054 -0.0005850714 -0.0004723291 -0.0003851547 -0.0003269455 -0.0003271833 -0.0003866508 -0.0004954605
 -0.0006502207 -0.000813835 -0.000984975 -0.001136628 -0.001272436 -0.001390933 -0.001492776 -0.001580563 -0.001648719 -0.001687309
 -0.001700672 -0.001683605 -0.001659768 -0.001643942 -0.001652855 -0.001705186 -0.001780255 -0.00187966 -0.001963546 -0.002021403
 -0.002040057 -0.002012995 -0.001966224 -0.001900474 -0.001853722 -0.001827779 -0.00184866 -0.00191566 -0.002033812 -0.002198158
 -0.002388975 -0.002597562 -0.002786535 -0.002950427 -0.003056567 -0.003112062 -0.003108905 -0.003068214 -0.003006109 -0.002945982
 -0.00291089 -0.002907894 -0.002950404 -0.003021698 -0.003121397 -0.003224477 -0.003325529 -0.003407925 -0.003469059 -0.003496322
 -0.003488962 -0.003427988 -0.003312571 -0.003132647 -0.002891648 -0.002617401 -0.002319686 -0.002063445 -0.00185448 -0.001751005
 -0.0017396 -0.001827258 -0.001980306 -0.002154073 -0.002317778 -0.002417008 -0.002455702 -0.002410461 -0.002325247 -0.002211195
 -0.00211882 -0.002070036 -0.00208195 -0.002166856 -0.002300797 -0.002484028 -0.002678112 -0.002879513 -0.003067608 -0.003241537
 -0.003405675 -0.003560574 -0.003714806 -0.003866062 -0.004007241 -0.004134503 -0.00423028 -0.004295854 -0.004322047 -0.004320398
 -0.004300394 -0.004282462 -0.004289672 -0.004340828 -0.004459212 -0.004644813 -0.004909057 -0.005225664 -0.005591837 -0.005970617
 -0.006353885 -0.006714291 -0.007046626 -0.007336802 -0.007582678 -0.007783799 -0.00794039 -0.008075867 -0.008192875 -0.008330097
 -0.00848598 -0.008675684 -0.008889147 -0.009100399 -0.009303949 -0.009469413 -0.009610849 -0.009733423 -0.009858975 -0.0100164
 -0.01020748 -0.01044957 -0.01071491 -0.0109981 -0.011262 -0.01149129 -0.01166982 -0.01178621 -0.01186391 -0.01190081
 -0.01195153 -0.01202026 -0.01215378 -0.01235427 -0.01262317 -0.01295653 -0.01331186 -0.01368419 -0.01402396 -0.01433181
 -0.01458161 -0.01478124 -0.01493318 -0.01504986 -0.01515062 -0.01524609 -0.01535605 -0.01548195 -0.01563267 -0.01580071
 -0.01598432 -0.01617799 -0.01637786 -0.01658828 -0.01680879 -0.01704815 -0.01730827 -0.01758945 -0.01789264 -0.01820454
 -0.01852445 -0.01883575 -0.01913868 -0.01942994 -0.01971179 -0.01999577 -0.02028224 -0.02058011 -0.02088471 -0.02119033
 -0.02149185 -0.02177729 -0.02204811 -0.02229952 -0.02253972 -0.02277231 -0.02300686 -0.02324905 -0.02350519 -0.02377959
 -0.0240711 -0.02438176 -0.02470058 -0.02502709 -0.02534532 -0.02565366 -0.02594248 -0.02621129 -0.02646531 -0.02670579
 -0.02694952 -0.02719718 -0.02746247 -0.02774254 -0.02803588 -0.02833735 -0.02863399 -0.02892399 -0.0291973 -0.0294583
 -0.02970759 -0.02995045 -0.03019317 -0.03043174 -0.03066876 -0.0308883 -0.03108548 -0.03124787 -0.03136766 -0.031461
 -0.0315251 -0.03160863 -0.03171519 -0.03189041 -0.03213672 -0.03245359 -0.03283688 -0.03323676 -0.03364735 -0.0340081
 -0.03432072 -0.03455496 -0.03472506 -0.03484465 -0.03493625 -0.03504157 -0.03517514 -0.03537485 -0.03562736 -0.03594162
 -0.03627922 -0.0366229 -0.03694412 -0.03722382 -0.0374712 -0.037683 -0.03788326 -0.03807816 -0.03826068 -0.03843277
 -0.0385542 -0.03862291 -0.03861799 -0.03854336 -0.03844094 -0.03832066 -0.03826381 -0.0382714 -0.03839639 -0.03861964
 -0.03892708 -0.03929081 -0.0396571 -0.04001599 -0.04033037 -0.04061646 -0.04087463 -0.04112145 -0.04137088 -0.04161333
 -0.04185071 -0.04206258 -0.04224112 -0.04239105 -0.0425094 -0.04262402 -0.04273788 -0.04286236 -0.0429982 -0.04312557
 -0.04324356 -0.04333324 -0.043398 -0.04344801 -0.04348801 -0.04354224 -0.04360819 -0.04369404 -0.04379032 -0.04388421
 -0.04397157 -0.04403817 -0.04409716 -0.04414931 -0.04422224 -0.04433063 -0.04449372 -0.04472727 -0.04501584 -0.04536468
 -0.04572385 -0.04608796 -0.04640663 -0.04667278 -0.04687744 -0.04701969 -0.04714155 -0.04724658 -0.04739412 -0.04758295
 -0.04784003 -0.04815312 -0.04849513 -0.04885022 -0.04916482 -0.04943654 -0.04963231 -0.04977043 -0.0498558 -0.0499149
 -0.04997079 -0.05003846 -0.05013518 -0.05025519 -0.05040314 -0.0505581 -0.05071627 -0.05085897 -0.05098037 -0.05108665
 -0.05117597 -0.05128204 -0.05140669 -0.05157665 -0.05179029 -0.0520307 -0.0522924 -0.05253044 -0.05274717 -0.05292359
 -0.05307358 -0.05322215 -0.05337752 -0.05356997 -0.0537868 -0.05402832 -0.05427213 -0.05449896 -0.0546991 -0.05485967
 -0.05498688 -0.05508008 -0.05514623 -0.0551876 -0.05520498 -0.05519823 -0.05517118 -0.05512296 -0.05507267 -0.05502124
 -0.05500245 -0.05501785 -0.05509747 -0.0552388 -0.05544433 -0.05570496 -0.05599039 -0.05628971 -0.05656079 -0.05679907
 -0.05697614 -0.05709726 -0.05715584 -0.0571635 -0.05712659 -0.05705673 -0.05696142 -0.05684956 -0.05672469 -0.05659778
 -0.05647061 -0.05635933 -0.05626712 -0.05620343 -0.05617123 -0.0561541 -0.05615149 -0.05612135 -0.05606168 -0.055934
 -0.05574105 -0.05547844 -0.05515516 -0.05480121 -0.05442582 -0.05406729 -0.05372825 -0.05343192 -0.05317283 -0.05295481
 -0.05276817 -0.05260717 -0.05246177 -0.05232577 -0.05218965 -0.05204872 -0.05189605 -0.05172764 -0.05154694 -0.0513516
 -0.05116262 -0.05098077 -0.05083672 -0.05073242 -0.05068575 -0.05069596 -0.0507536 -0.05085542 -0.05097564 -0.05111292
 -0.05124876 -0.05138364 -0.05151177 -0.05162861 -0.05172597 -0.05179405 -0.05181658 -0.05179138 -0.05170702 -0.05157847
 -0.05140886 -0.05121849 -0.05101729 -0.05081193 -0.05060806 -0.05039629 -0.05017673 -0.04993483 -0.04966895 -0.04936972
 -0.04903626 -0.04867657 -0.04829283 -0.04792034 -0.04756367 -0.0472719 -0.04704493 -0.04691195 -0.0468627 -0.04688821
 -0.04697395 -0.04708932 -0.04722874 -0.04736869 -0.04752308 -0.04768898 -0.04790155 -0.04817583 -0.0485521 -0.04905244
 -0.04968836 -0.05047537 -0.05137087 -0.05237668 -0.05340892 -0.05446044 -0.05545274 -0.05638026 -0.05720961 -0.0579415
 -0.05858719 -0.05914959 -0.05965324 -0.06009899 -0.06050177 -0.06086349 -0.06119455 -0.06150109 -0.06179884 -0.06209136
 -0.06239234 -0.06269334 -0.06299396 -0.06327943 -0.06354011 -0.06377 -0.06396279 -0.06412417 -0.06425419 -0.06435958
 -0.06444195 -0.06450288 -0.06454306 -0.06455891 -0.0645503 -0.06450998 -0.06443824 -0.06433781 -0.06421326 -0.06409585
 -0.06399316 -0.06395439 -0.06397848 -0.06409287 -0.06427988 -0.06452405 -0.06480102 -0.06507418 -0.06532893 -0.06553885
 -0.06570385 -0.06581569 -0.06588153 -0.0659026 -0.06588391 -0.06582757 -0.06573357 -0.0656014 -0.06543538 -0.06523373
 -0.06502427 -0.06480785 -0.06464688 -0.06454559 -0.06458227 -0.06475744 -0.06511851 -0.06565141 -0.06633252 -0.06713263
 -0.06796592 -0.0688067 -0.06956446 -0.07024165 -0.07079758 -0.07126555 -0.07165727 -0.07201114 -0.07235558 -0.0727052
 -0.07307656 -0.07345608 -0.07384549 -0.07421964 -0.0745743 -0.07489181 -0.07516886 -0.07540484 -0.07559925 -0.07576498
 -0.0759029 -0.07602853 -0.07614263 -0.07625809 -0.07637489 -0.07650116 -0.07663385 -0.07677055 -0.07690472 -0.07702231
 -0.07712175 -0.07719134 -0.07724391 -0.07728388 -0.07733098 -0.07740057 -0.07749655 -0.07762906 -0.07777625 -0.07793604
 -0.07808043 -0.07820236 -0.07829534 -0.07835615 -0.07840265 -0.0784357 -0.07847454 -0.07851927 -0.07857016 -0.0786255
 -0.07867169 -0.07870965 -0.07873406 -0.07875112 -0.07877414 -0.07880979 -0.07887871 -0.07897836 -0.07911775 -0.079281
 -0.07945991 -0.07963328 -0.07978562 -0.07990535 -0.07998121 -0.08002057 -0.08002032 -0.08000375 -0.07997321 -0.07995572
 -0.07995511 -0.07998449 -0.08004546 -0.08012816 -0.08023161 -0.08033478 -0.0804376 -0.08052952 -0.08061264 -0.08069102
 -0.08076489 -0.08083765 -0.08090668 -0.08096786 -0.08102124 -0.08106412 -0.08110049 -0.0811339 -0.08116433 -0.0811941
 -0.0812175 -0.08123173 -0.08123653 -0.08122884 -0.08122204 -0.08121735 -0.08123074 -0.08126507 -0.08132196 -0.08140218
 -0.08148969 -0.08158351 -0.08166359 -0.08173034 -0.0817764 -0.08180533 -0.08182777 -0.08184769 -0.08188294 -0.08193165
 -0.08200126 -0.08208162 -0.08216324 -0.08223595 -0.08228459 -0.08231232 -0.08231276 -0.08230518 -0.08229509 -0.08230143
 -0.08233301 -0.08238937 -0.08247431 -0.08256776 -0.08266835 -0.08275434 -0.08282383 -0.08287109 -0.08289655 -0.08291303
 -0.08292218 -0.08294305 -0.08297566 -0.08303114 -0.08310634 -0.08319923 -0.08330458 -0.08341196 -0.08351681 -0.08360838
 -0.08368572 -0.0837431 -0.0837848 -0.0838108 -0.08382864 -0.08384128 -0.08385506 -0.08387262 -0.08389661 -0.08392835
 -0.08396664 -0.0840118 -0.08405948 -0.08410944 -0.08415695 -0.0842019 -0.08424376 -0.08428279 -0.0843215 -0.08435912
 -0.08439389 -0.0844241 -0.08444304 -0.08445188 -0.08444812 -0.08443763 -0.08442678 -0.0844214 -0.0844297 -0.08445312
 -0.08449554 -0.08455455 -0.08463088 -0.0847187 -0.08481769 -0.08491734 -0.08501629 -0.08510236 -0.08517355 -0.08522516
 -0.08525635 -0.08527389 -0.08527831 -0.08528206 -0.08528543 -0.08529651 -0.08531434 -0.08533887 -0.08536883 -0.08540013
 -0.08543318 -0.08546654 -0.08550172 -0.0855409 -0.0855829 -0.08562864 -0.08567295 -0.08571299 -0.08574425 -0.08576286
 -0.08577138 -0.08576845 -0.08576355 -0.08575793 -0.08576114 -0.08577482 -0.08580214 -0.08584373 -0.08589403 -0.08595256
 -0.08600858 -0.08606154 -0.08610164 -0.08612978 -0.08614402 -0.08614752 -0.08614798 -0.08614886 -0.08616161 -0.08618544
 -0.08622574 -0.08627569 -0.08633141 -0.08638529 -0.08643018 -0.08646539 -0.08648753 -0.08650319 -0.08651345 -0.08652461
 -0.08653868 -0.08655585 -0.0865768 -0.08659693 -0.08661589 -0.08663075 -0.08664154 -0.08665172 -0.08666182 -0.08667827
 -0.08670036 -0.08672882 -0.08676141 -0.0867917 -0.08681886 -0.08683733 -0.08684926 -0.08685508 -0.08685751 -0.08685946
 -0.08686203 -0.08686658 -0.08687405 -0.08688512 -0.08690058 -0.08692128 -0.08694537 -0.08697288 -0.08700043 -0.08702739
 -0.08705363 -0.08707903 -0.08710534 -0.08713254 -0.08715924 -0.08718505 -0.0872056 -0.08722105 -0.08722953 -0.08723199
 -0.08723036 -0.08722526 -0.08721881 -0.08721126 -0.08720379 -0.0871966 -0.08719026 -0.08718501 -0.08718095 -0.087179
 -0.08717932 -0.08718379 -0.0871933 -0.0872078 -0.08722809 -0.08724941 -0.08727145 -0.08728862 -0.08730029 -0.08730648
 -0.08730727 -0.08730727 -0.08730663 -0.08730879 -0.0873136 -0.08732213 -0.08733425 -0.08735044 -0.08736981 -0.08739132
 -0.0874127 -0.08743022 -0.08744254 -0.08744611 -0.08744321 -0.08743361 -0.08742186 -0.08741023 -0.08740102 -0.08739625
 -0.08739285 -0.08739096 -0.08738495 -0.08737377 -0.08735636 -0.08733226 -0.08730756 -0.08728257 -0.08726379 -0.0872509
 -0.08724356 -0.08724094 -0.08723839 -0.08723623 -0.08723286 -0.08722952 -0.08722825 -0.08722941 -0.08723471 -0.08724304
 -0.08725389 -0.08726652 -0.08727998 -0.08729486 -0.08731106 -0.08732973 -0.08735169 -0.08737551 -0.08740162 -0.08742508
 -0.08744521 -0.08745885 -0.08746545 -0.08746794 -0.08746646 -0.08746464 -0.08746213 -0.08745657 -0.0874476 -0.08743136
 -0.08740931 -0.08738389 -0.08735689 -0.0873339 -0.08731417 -0.08729912 -0.08728719 -0.08727665 -0.08726831 -0.08726208
 -0.08725914 -0.08726062 -0.08726493 -0.08727212 -0.08727918 -0.08728533 -0.08728939 -0.08729091 -0.08729094 -0.08728947
 -0.08728861 -0.08728843 -0.08728996 -0.08729292 -0.0872952 -0.08729624 -0.08729199 -0.08728273 -0.0872668 -0.08724563
 -0.08722104 -0.08719502 -0.08717109 -0.08715092 -0.08713775 -0.08713157 -0.08713432 -0.08714217 -0.08715463 -0.0871653
 -0.08717185 -0.08717073 -0.08716018 -0.08714196 -0.08711577 -0.08708612 -0.08705324 -0.08702248 -0.08699416 -0.08697394
 -0.08696181 -0.08696016 -0.08696775 -0.08697974 -0.08699439 -0.08700299 -0.08700611 -0.08699983 -0.08698766 -0.08697324
 -0.08695918 -0.08695053 -0.08694526 -0.08694386 -0.08694275 -0.08693968 -0.08693483 -0.08692726 -0.08692046 -0.08691537
 -0.08691245 -0.08691238 -0.08691067 -0.08690709 -0.0868962 -0.08687777 -0.08684983 -0.08681271 -0.08676898 -0.0867195
 -0.08667027 -0.08662169 -0.08657847 -0.08653966 -0.08650559 -0.08647506 -0.08644596 -0.08641881 -0.08639336 -0.08637019
 -0.0863504 -0.08633187 -0.08631457 -0.08629397 -0.08626855 -0.08623515 -0.08619222 -0.0861414 -0.08608197 -0.08602185
 -0.08596136 -0.0859115 -0.08587284 -0.08585087 -0.08584505 -0.08585119 -0.08586811 -0.08588731 -0.08590855 -0.08592618
 -0.08594147 -0.08595336 -0.08596572 -0.08598187 -0.08601074 -0.08606125 -0.08614496 -0.08627416 -0.08645143 -0.08668523
 -0.08695899 -0.08727185 -0.08759668 -0.08792561 -0.08824983 -0.08856411 -0.08889121 -0.08923244 -0.08961231 -0.09003166
 -0.09046536 -0.09090769 -0.0912852 -0.09159499 -0.09178078 -0.09184999 -0.0917986 -0.09163234 -0.09135935 -0.09098884
 -0.09052862 -0.09001316 -0.08947819 -0.08896022 -0.08849851 -0.08810836 -0.0878076 -0.08759961 -0.08749107 -0.08747354
 -0.08755326 -0.08768184 -0.08785857 -0.08799832 -0.08809184 -0.08810659 -0.08804106 -0.08794247 -0.08781309 -0.08769503
 -0.08758477 -0.08748366 -0.08738851 -0.08728756 -0.08718418 -0.08707917 -0.08697923 -0.08689707 -0.08683169 -0.08679053
 -0.08675954 -0.08673238 -0.08669236 -0.08662737 -0.08653537 -0.08641031 -0.08626641 -0.08610533 -0.08594127 -0.08577701
 -0.08561766 -0.08546406 -0.08531715 -0.08517704 -0.08504532 -0.08492214 -0.08481013 -0.08470901 -0.08461904 -0.08453902
 -0.08446509 -0.08439619 -0.0843274 -0.08426008 -0.08419343 -0.08413117 -0.08407746 -0.0840336 -0.0840033 -0.08398182
 -0.08396874 -0.08395603 -0.08394068 -0.08391801 -0.08388556 -0.08384576 -0.08379801 -0.08375008 -0.08370258 -0.08366264
 -0.08363067 -0.08360831 -0.08359526 -0.08358818 -0.08358663 -0.08358651 -0.08358769 -0.08358764 -0.08358636 -0.08358249
 -0.08357631 -0.08356731 -0.08355659 -0.08354483 -0.0835338 -0.08352493 -0.08351986 -0.08352014 -0.08352548 -0.08353687
 -0.08355016 -0.08356516 -0.08357511 -0.0835789 -0.08357215 -0.083554 -0.08352683 -0.08349077 -0.08345371 -0.0834161
 -0.083386 -0.08336294 -0.083349 -0.08334236 -0.08333778 -0.08333366 -0.08332305 -0.08330677 -0.08328244 -0.0832533
 -0.08322183 -0.08319124 -0.08316501 -0.08314431 -0.08313113 -0.08312386 -0.08312311 -0.08312389 -0.08312555 -0.08312171
 -0.08311108 -0.08309095 -0.0830606 -0.08302372 -0.08298047 -0.08293769 -0.08289565 -0.08285964 -0.08282956 -0.08280777
 -0.08279397 -0.08278868 -0.08279104 -0.08279993 -0.08281294 -0.08282631 -0.08283647 -0.08283768 -0.08282857 -0.08280522
 -0.08277103 -0.08272613 -0.08267606 -0.08262286 -0.08257032 -0.08251943 -0.08247396 -0.0824342 -0.08240603 -0.08239018
 -0.08238889 -0.08240236 -0.08242352 -0.08245171 -0.0824758 -0.08249587 -0.08250641 -0.08250857 -0.0825035 -0.08249218
 -0.08247767 -0.08246008 -0.08244121 -0.08242033 -0.08239735 -0.08237152 -0.08234165 -0.08230917 -0.08227365 -0.08223964
 -0.08220875 -0.08218396 -0.08216707 -0.08215516 -0.08214834 -0.0821414 -0.08213361 -0.08212452 -0.08211405 -0.08210556
 -0.08209898 -0.08209395 -0.08208971 -0.0820808 -0.08206715 -0.082045 -0.08201631 -0.08198379 -0.08194976 -0.08191969
 -0.08189377 -0.08187472 -0.08186079 -0.08185152 -0.08184531 -0.08184134 -0.081838 -0.08183493 -0.08182921 -0.08182014
 -0.08180506 -0.08178305 -0.08175535 -0.08172165 -0.08168776 -0.08165398 -0.0816261 -0.08160409 -0.08158861 -0.08157895
 -0.08157096 -0.08156402 -0.08155356 -0.08153968 -0.0815203 -0.0814961 -0.08146694 -0.08143443 -0.08139975 -0.08136598
 -0.08133587 -0.08131183 -0.08129687 -0.08128842 -0.08128718 -0.08128633 -0.08128426 -0.08127617 -0.08126047 -0.08123872
 -0.08121064 -0.08118159 -0.08115188 -0.08112585 -0.0811035 -0.08108573 -0.08107211 -0.08106042 -0.08105026 -0.08103871
 -0.08102621 -0.08101228 -0.08099801 -0.08098535 -0.08097421 -0.08096605 -0.08095805 -0.08094862 -0.08093491 -0.08091424
 -0.08088741 -0.08085312 -0.08081694 -0.08077971 -0.08074758 -0.08072194 -0.0807051 -0.08069776 -0.08069688 -0.08070237
 -0.08070787 -0.08071307 -0.08071218 -0.08070521 -0.08068927 -0.08066487 -0.08063216 -0.08059214 -0.08054711 -0.08049849
 -0.08044953 -0.08040159 -0.08035798 -0.08031809 -0.08028283 -0.08025031 -0.08021942 -0.08018988 -0.08016093 -0.08013449
 -0.08011146 -0.08009031 -0.08007155 -0.0800487 -0.08002097 -0.07998503 -0.07994051 -0.0798939 -0.07984567 -0.07980487
 -0.07977098 -0.07974526 -0.07972625 -0.07970872 -0.07969248 -0.07967407 -0.07965485 -0.07963556 -0.07961756 -0.07960304
 -0.07959207 -0.07958603 -0.07958268 -0.07958198 -0.07957894 -0.07957186 -0.07955609 -0.07952923 -0.07949332 -0.0794473
 -0.07940126 -0.07935598 -0.07932135 -0.07929818 -0.07928567 -0.07928322 -0.0792795 -0.07927391 -0.07925612 -0.07922754
 -0.07918797 -0.07913957 -0.07908804 -0.07903391 -0.07898089 -0.07892833 -0.07887647 -0.07882582 -0.07877658 -0.07873021
 -0.07868766 -0.07864969 -0.07861719 -0.07858892 -0.07856492 -0.07854295 -0.07852261 -0.07850241 -0.07848202 -0.07846238
 -0.07844351 -0.07842666 -0.07841171 -0.07839689 -0.0783819 -0.07836344 -0.07834177 -0.07831611 -0.07828709 -0.07825606
 -0.07822312 -0.07818921 -0.07815401 -0.07811739 -0.07807951 -0.07804027 -0.07800043 -0.07796012 -0.07792081 -0.07788307
 -0.07784808 -0.07781699 -0.0777866 -0.07775714 -0.07772135 -0.07767814 -0.07762605 -0.07756475 -0.07750399 -0.07744435
 -0.07739677 -0.07736034 -0.07733458 -0.07731691 -0.07729638 -0.07727172 -0.07723307 -0.07718277 -0.07711948 -0.07704862
 -0.07697599 -0.07690702 -0.07684886 -0.07680284 -0.07677338 -0.07675406 -0.07674495 -0.0767337 -0.07671701 -0.0766859
 -0.07663689 -0.07657452 -0.07649814 -0.07642147 -0.07634542 -0.07627749 -0.0762175 -0.07616066 -0.07610643 -0.07604825
 -0.07598718 -0.07592409 -0.07586027 -0.07580005 -0.07574289 -0.07568999 -0.07564021 -0.07559255 -0.07554629 -0.07550082
 -0.07545461 -0.07540676 -0.07535562 -0.07529997 -0.07524023 -0.07517602 -0.07510921 -0.07503994 -0.07497038 -0.0749007
 -0.07483356 -0.07476917 -0.07470892 -0.07465276 -0.07459904 -0.07454778 -0.07449816 -0.07445075 -0.07440773 -0.07436892
 -0.07433581 -0.07430588 -0.07427553 -0.07424179 -0.07419907 -0.07414665 -0.07408127 -0.0740054 -0.07391866 -0.07382663
 -0.07373103 -0.07363776 -0.07354925 -0.07346667 -0.07339127 -0.07331862 -0.07324838 -0.07317664 -0.07310299 -0.07302941
 -0.07295612 -0.07288866 -0.07282676 -0.07277165 -0.07272179 -0.07267135 -0.07261876 -0.07255586 -0.07248396 -0.07240061
 -0.07231056 -0.07221898 -0.07212934 -0.0720479 -0.07197167 -0.07190166 -0.07183079 -0.07175566 -0.07167412 -0.07158361
 -0.07149033 -0.07139473 -0.07130392 -0.07121921 -0.07114039 -0.07106771 -0.07099402 -0.07091915 -0.07083997 -0.07075762
 -0.07067958 -0.07060694 -0.07054961 -0.07050513 -0.07047345 -0.07044802 -0.0704164 -0.07037402 -0.07030771 -0.07022189
 -0.07011447 -0.06999515 -0.06986944 -0.06974386 -0.06962297 -0.06950805 -0.06940062 -0.06929911 -0.0692035 -0.06911222
 -0.06902511 -0.06894097 -0.06885973 -0.06878026 -0.0687026 -0.06862793 -0.0685564 -0.06849048 -0.06842898 -0.06836867
 -0.06830658 -0.06823195 -0.06814475 -0.06803823 -0.06791805 -0.06778847 -0.06765556 -0.06752637 -0.06740449 -0.06729419
 -0.06719685 -0.06711504 -0.06704497 -0.06698762 -0.06693169 -0.06687589 -0.06680728 -0.0667237 -0.06662171 -0.06650063
 -0.06636872 -0.06622655 -0.0660864 -0.06594833 -0.06581876 -0.06569635 -0.06557871 -0.06546447 -0.0653478 -0.06522964
 -0.06510887 -0.06498736 -0.06486804 -0.06474958 -0.06463221 -0.06451304 -0.06438944 -0.06426249 -0.06413131 -0.06400026
 -0.06387069 -0.06374446 -0.06362247 -0.06350338 -0.06338711 -0.06327239 -0.06315908 -0.06304757 -0.06293782 -0.06282918
 -0.06272084 -0.06260599 -0.06248327 -0.06234145 -0.06218272 -0.06200603 -0.06181763 -0.0616302 -0.06144561 -0.06127354
 -0.06110809 -0.06094726 -0.06078534 -0.06061607 -0.06044327 -0.06026546 -0.06009331 -0.05992998 -0.05978183 -0.05965204
 -0.05953509 -0.05943225 -0.05932253 -0.05920471 -0.05905562 -0.05887491 -0.05866581 -0.05843074 -0.0581926 -0.05795136
 -0.05771936 -0.05749342 -0.05727057 -0.05704831 -0.05681948 -0.0565851 -0.05634232 -0.05609651 -0.05585118 -0.05561223
 -0.05538662 -0.05517027 -0.05496681 -0.05475633 -0.05453415 -0.05428243 -0.05399369 -0.05367828 -0.0533354 -0.05298704
 -0.05263521 -0.05228361 -0.05193227 -0.05157674 -0.05121767 -0.05085984 -0.05050316 -0.0501516 -0.04980074 -0.04943978
 -0.04906444 -0.04865822 -0.04822664 -0.04776873 -0.04729525 -0.04681791 -0.04633848 -0.04586218 -0.0453862 -0.04490911
 -0.04443409 -0.0439612 -0.04349646 -0.04304347 -0.04259161 -0.04214333 -0.04165547 -0.041125 -0.04051356 -0.03982122
 -0.0390882 -0.03831963 -0.03758272 -0.03687157 -0.03619342 -0.03553896 -0.03488332 -0.0342237 -0.0335436 -0.03284125
 -0.03211112 -0.0313415 -0.03052367 -0.02963454 -0.02865467 -0.02757437 -0.02637258 -0.02509528 -0.02374299 -0.02239928
 -0.02108291 -0.01984034 -0.01868282 -0.01760868 -0.01661982 -0.01568714 -0.01480816 -0.01392017 -0.01301633 -0.01200039
 -0.01088004 -0.00962563 -0.008281455 -0.006976096 -0.005721541 -0.004619334 -0.003622587 -0.002705239 -0.001831233 -0.0009496345
 -5.878883E-05 0.000859283 0.001792697 0.002739974 0.003692265 0.004650134 0.005589761 0.006507525 0.007377984 0.008194451
 0.008969246 0.009702451 0.01041563 0.01110892 0.01176073 0.01236826 0.01289318 0.01333939 0.01370459 0.01399753
 0.01424509 0.01445001 0.01463336 0.01478761 0.01490875 0.01499583 0.01504138 0.01506208 0.01506551 0.01506976
 0.01508912 0.01511816 0.01516256 0.01519347 0.01520666 0.01517515 0.01509352 0.01495506 0.01475719 0.01453115
 0.01427884 0.01404869 0.01383901 0.01365325 0.01348443 0.01329867 0.01309338 0.01284005 0.01254655 0.01221109
 0.01185352 0.01150111 0.01117052 0.01089065 0.01066317 0.01049725 0.0103928 0.01035128 0.01037466 0.01046604
 0.01061575 0.01082301 0.01107526 0.01136943 0.0117092 0.0120943 0.01253521 0.01303227 0.01358559 0.01419414
 0.01484782 0.01554502 0.01627279 0.01702952 0.01780247 0.01859314 0.01939649 0.02022001 0.02107188 0.02195993
 0.02289649 0.02388189 0.02492185 0.02600874 0.02714167 0.02830914 0.02950772 0.03072764 0.03196692 0.033216
 0.03447514 0.03572161 0.03695411 0.03814353 0.03928891 0.04039651 0.04147058 0.04256228 0.0436683 0.04480605
 0.04595298 0.04704139 0.04806402 0.04896613 0.04976659 0.05047524 0.05109473 0.05163629 0.05208424 0.05243083
 0.0526646 0.05278995 0.05275368 0.05256294 0.0520631 0.05121584 0.04993722 0.04817231 0.04623156 0.04413458
 0.04216369 0.04032978 0.03855675 0.03683738 0.03506685 0.03325487 0.03140244 0.02951692 0.02763338 0.02572793
 0.02377693 0.02172855 0.0194704 0.01703843 0.01436947 0.01169305 0.009173107 0.006908229 0.005038455 0.003396835
 0.001955513 0.0005818685 -0.0007711813 -0.002105282 -0.003429908 -0.004703476 -0.005921149 -0.007089771 -0.008209968 -0.00932627
 -0.01043914 -0.01157113 -0.01271548 -0.01384918 -0.01496341 -0.01601512 -0.01700494 -0.0179095 -0.01874247 -0.01951196
 -0.02023693 -0.02093822 -0.02163526 -0.02234492 -0.02309078 -0.02389139 -0.02475083 -0.02569332 -0.02662686 -0.02754213
 -0.02832234 -0.02893602 -0.02942627 -0.02979071 -0.03013181 -0.03045436 -0.03079639 -0.03115433 -0.0314989 -0.0318266
 -0.03210028 -0.03232719 -0.0325133 -0.03266387 -0.0327977 -0.03290597 -0.03298364 -0.0330213 -0.03300267 -0.03293572
 -0.03281976 -0.0326676 -0.03248768 -0.03227982 -0.03204786 -0.03178029 -0.03147746 -0.03111742 -0.03069928 -0.0301869
 -0.02957599 -0.02885306 -0.02801797 -0.02715162 -0.02626156 -0.02546537 -0.02475877 -0.02417937 -0.02371514 -0.02334572
 -0.02306278 -0.02284064 -0.02266869 -0.022524 -0.0223869 -0.02223144 -0.02203315 -0.02176024 -0.02141819 -0.02099014
 -0.02053119 -0.02005882 -0.01960389 -0.01918199 -0.01877625 -0.01838623 -0.01799621 -0.01760383 -0.0172144 -0.01682814
 -0.01645659 -0.01609918 -0.01575385 -0.01541749 -0.01507296 -0.01471532 -0.01431938 -0.01388085 -0.01337621 -0.01280735
 -0.01216668 -0.01145825 -0.01068587 -0.009845852 -0.008935728 -0.007955474 -0.006899551 -0.005787825 -0.004624729 -0.003431702
 -0.002219646 -0.0009723015 0.0003068011 0.001671644 0.003128118 0.004700078 0.00638869 0.00810797 0.00984895 0.01147318
 0.01298106 0.01430587 0.01545299 0.01641171 0.0171726 0.0177112 0.01801155 0.01803304 0.01777888 0.01722994
 0.01641594 0.01534892 0.01406726 0.01259309 0.01095383 0.009161728 0.007240122 0.005187725 0.003068654 0.0008838957
 -0.001248792 -0.00331798 -0.005244535 -0.007023737 -0.008680739 -0.01021972 -0.01170428 -0.01313139 -0.01451758 -0.01585142
 -0.0170983 -0.01825733 -0.01930443 -0.02025568 -0.02112531 -0.02192999 -0.02269503 -0.02342671 -0.0241385 -0.02482971
 -0.02550375 -0.02615719 -0.02679047 -0.0273964 -0.02797391 -0.02851439 -0.02901575 -0.0294773 -0.02989835 -0.03028589
 -0.03064028 -0.03096505 -0.03125966 -0.03151777 -0.03173843 -0.03191268 -0.03204061 -0.03211758 -0.03214461 -0.0321211
 -0.03204985 -0.03193368 -0.03177884 -0.03159203 -0.03138208 -0.031156 -0.0309261 -0.03069826 -0.0304894 -0.03030546
 -0.03016345 -0.03006878 -0.03003068 -0.03005251 -0.03013044 -0.03026556 -0.03043789 -0.03064639 -0.03086415 -0.03109042
 -0.03130946 -0.03152181 -0.03172389 -0.03191425 -0.03208649 -0.03223705 -0.0323531 -0.03243506 -0.03247575 -0.03248277
 -0.03246106 -0.03241973 -0.03236812 -0.03230993 -0.03225081 -0.03218718 -0.0321195 -0.03204165 -0.0319509 -0.03185019
 -0.03173771 -0.03163111 -0.03153135 -0.03145999 -0.03141835 -0.03141489 -0.03144895 -0.03151266 -0.03160419 -0.03170872
 -0.03182486 -0.03193965 -0.03205298 -0.0321578 -0.03225549 -0.03234527 -0.03242812 -0.0325052 -0.03257621 -0.03264099
 -0.03270021 -0.03275369 -0.03280389 -0.03285195 -0.03289832 -0.03294378 -0.03298569 -0.03302382 -0.03305578 -0.03308134
 -0.03309873 -0.03310786 -0.03310622 -0.03309374 -0.03306925 -0.03303296 -0.03298589 -0.03292781 -0.03285846 -0.03277724
 -0.03268203 -0.03257358 -0.03245172 -0.03231848 -0.03217624 -0.03202623 -0.03187007 -0.03170884 -0.03154316 -0.03137504
 -0.03120547 -0.03103516 -0.03086479 -0.03069277 -0.03051857 -0.03034345 -0.03016699 -0.02999688 -0.02983356 -0.02968435
 -0.02954891 -0.02942375 -0.02930692 -0.02918362 -0.02905357 -0.02890538 -0.02874544 -0.02858148 -0.02842502 -0.02829997
 -0.02821165 -0.0281793 -0.02819305 -0.02825475 -0.02834303 -0.02844783 -0.02854932 -0.02863717 -0.02870231 -0.02873963
 -0.02875014 -0.02873263 -0.02869409 -0.02863484 -0.02856382 -0.02848159 -0.02839403 -0.02830087 -0.02819911 -0.02808722
 -0.02795291 -0.02779675 -0.02761133 -0.02740495 -0.02719113 -0.02698579 -0.02682223 -0.02671158 -0.02668498 -0.02673248
 -0.0268628 -0.02704273 -0.02725842 -0.02747627 -0.02767689 -0.02785502 -0.02800162 -0.02814041 -0.02827383 -0.0284228
 -0.02859142 -0.02877217 -0.02896512 -0.02914053 -0.02929686 -0.02940548 -0.0294677 -0.02947548 -0.02943595 -0.02937033
 -0.02928877 -0.02922928 -0.02919365 -0.02920615 -0.02925387 -0.0293317 -0.0294253 -0.02951816 -0.0296107 -0.02969744
 -0.02978588 -0.02988064 -0.02997473 -0.03007029 -0.03014432 -0.03019351 -0.03019912 -0.03015785 -0.03006987 -0.02993478
 -0.0297665 -0.02956583 -0.0293473 -0.02911117 -0.02886596 -0.02861175 -0.02835326 -0.02809084 -0.02782782 -0.0275644
 -0.02730217 -0.0270419 -0.02678478 -0.02653247 -0.02628733 -0.02604852 -0.02581742 -0.02558848 -0.02535942 -0.02512785
 -0.02489112 -0.02465681 -0.02442542 -0.02420635 -0.02400134 -0.02380849 -0.02362798 -0.0234464 -0.02326297 -0.0230632
 -0.02284723 -0.02260858 -0.02234878 -0.02207062 -0.0217751 -0.02146695 -0.02114462 -0.02080733 -0.02045407 -0.02008153
 -0.01969456 -0.01929482 -0.01889077 -0.01848799 -0.01809121 -0.01770399 -0.01732676 -0.01696024 -0.01660444 -0.01625963
 -0.01592482 -0.01560026 -0.0152816 -0.01496868 -0.01465406 -0.01433724 -0.01400892 -0.01366909 -0.01331238 -0.01294102
 -0.0125608 -0.01217446 -0.01179266 -0.01141547 -0.01104745 -0.01068904 -0.01034139 -0.01000823 -0.009694773 -0.009398054
 -0.009120833 -0.008848702 -0.008576611 -0.008293645 -0.00799439 -0.007680672 -0.007351625 -0.007012508 -0.006663708 -0.006309957
 -0.005951484 -0.00559638 -0.005244903 -0.004901928 -0.004566633 -0.004234931 -0.003906514 -0.003577663 -0.00324939 -0.002922648
 -0.002598105 -0.002276415 -0.001960642 -0.001653081 -0.001361659 -0.00109441 -0.000855607 -0.0006517533 -0.000478149 -0.0003339715
 -0.0002166294 -0.0001244134 -6.063557E-05 -2.68126E-05 -1.765858E-05 -3.405496E-05 -5.655482E-05 -8.403308E-05 -9.757062E-05 -9.662192E-05
 -7.297444E-05 -2.712439E-05 4.117248E-05 0.0001314368 0.0002409625 0.0003715569 0.0005253165 0.000707455 0.0009290997 0.001192485
 0.001508515 0.001866837 0.002267041 0.002683873 0.003107612 0.003500048 0.003847568 0.004106625 0.004261957 0.004288658
 0.004175168 0.003940231 0.003581045 0.003154596 0.002663855 0.002175945 0.001693962 0.001272205 0.0009102016 0.0006323297
 0.0004317999 0.0002944247 0.0002113847 0.0001500488 0.0001089117 6.866288E-05 3.476933E-05 7.037121E-06 -1.075165E-05 -1.413671E-05
 -4.371713E-06 2.078906E-05 5.341787E-05 9.315505E-05 0.0001236721 0.0001404491 0.0001311817 9.0709E-05 2.700693E-05 -6.050683E-05
 -0.0001538007 -0.0002514088 -0.000349422 -0.0004481425 -0.0005575677 -0.0006774256 -0.0008114614 -0.0009560096 -0.001098431 -0.001233025
 -0.001337135 -0.001408449 -0.001429267 -0.001407327 -0.001343398 -0.001251261 -0.001144955 -0.001029723 -0.0009144127 -0.000794537
 -0.0006678926 -0.0005399382 -0.0004083064 -0.0002956189 -0.0002049512 -0.0001582063 -0.0001589213 -0.0002148528 -0.0003270182 -0.0004925221
 -0.0007109918 -0.0009740879 -0.00128075 -0.001619017 -0.001987867 -0.002376768 -0.002784837 -0.003204752 -0.003634869 -0.004069095
 -0.004505252 -0.00493817 -0.00536605 -0.005785246 -0.00619567 -0.00659503 -0.006988156 -0.007375963 -0.007764905 -0.008158749
 -0.008552947 -0.008949007 -0.009330349 -0.009695052 -0.01003223 -0.01034072 -0.01062171 -0.01087517 -0.0111007 -0.01129794
 -0.01146237 -0.01159592 -0.01170389 -0.01179049 -0.01187104 -0.01194668 -0.01202774 -0.01211132 -0.01219805 -0.01228425
 -0.01236729 -0.01244258 -0.01250705 -0.01255568 -0.01258531 -0.01259402 -0.01258014 -0.01254536 -0.01248935 -0.0124162
 -0.01232579 -0.01222682 -0.01211976 -0.01201516 -0.01191342 -0.01181969 -0.01173379 -0.01165619 -0.01158737 -0.01152996
 -0.01148448 -0.01145434 -0.01143836 -0.01143609 -0.01144564 -0.01146465 -0.01149065 -0.01152172 -0.01155226 -0.01157914
 -0.01159498 -0.01159572 -0.01157724 -0.01153716 -0.01147531 -0.01139094 -0.01128659 -0.01116212 -0.01102346 -0.01087104
 -0.0107098 -0.01053976 -0.01035825 -0.01016477 -0.009952716 -0.009723496 -0.00947872 -0.009222844 -0.008969337 -0.00872228
 -0.008497692 -0.008293156 -0.008114848 -0.007951021 -0.007793339 -0.00763072 -0.007450522 -0.007257252 -0.007047805 -0.006836262
 -0.006627821 -0.006424592 -0.006228895 -0.006032951 -0.005834599 -0.005642318 -0.005455941 -0.005300163 -0.005175719 -0.005089968
 -0.005039828 -0.005001192 -0.004970692 -0.004918559 -0.004846913 -0.004745593 -0.004620523 -0.004478426 -0.004324707 -0.004169184
 -0.004016461 -0.003874116 -0.0037455 -0.003636443 -0.003543237 -0.003468134 -0.003397187 -0.003327853 -0.0032437 -0.003140215
 -0.003011761 -0.002855942 -0.002681223 -0.002487717 -0.00229043 -0.002090171 -0.0019018 -0.001725847 -0.001573589 -0.001444501
 -0.001342878 -0.001266434 -0.001211275 -0.001173989 -0.001146703 -0.001124937 -0.001100054 -0.001066565 -0.001015909 -0.0009454923
 -0.0008493011 -0.0007330024 -0.0005958288 -0.0004504744 -0.0003003445 -0.0001561391 -2.156333E-05 0.0001030337 0.0002163204 0.0003274479
 0.0004370264 0.0005521716 0.0006730303 0.0007968267 0.0009229985 0.001044905 0.001162874 0.001275124 0.001382208 0.00148465
 0.001583287 0.001678701 0.001775095 0.001878194 0.001992569 0.002126928 0.002276897 0.002444293 0.002617083 0.002789874
 0.002955423 0.003109318 0.003252958 0.003385139 0.003512537 0.003635045 0.003765414 0.003904368 0.004067545 0.004255563
 0.004474431 0.0047228 0.004991295 0.005276595 0.005558494 0.005833016 0.006076082 0.006288993 0.006459241 0.006599299
 0.006720602 0.006836832 0.00696933 0.007114851 0.007280437 0.00745065 0.007618119 0.007779064 0.007928343 0.008077155
 0.008226972 0.008386949 0.008559146 0.008743391 0.008940155 0.009142381 0.00934958 0.009548752 0.009739287 0.009909232
 0.01006023 0.01019256 0.01031137 0.01043174 0.01055985 0.01071765 0.0109039 0.01113164 0.01138155 0.01164205
 0.01188775 0.01209198 0.01225885 0.01237621 0.01248221 0.01258763 0.01271633 0.01288048 0.01306011 0.01325608
 0.0134321 0.01358517 0.01369187 0.01375122 0.01375687 0.0137113 0.01363466 0.01353328 0.01345134 0.0133899
 0.0133788 0.01340784 0.0134698 0.01355531 0.01364512 0.01374069 0.01383577 0.0139358 0.01404326 0.01416057
 0.01429005 0.01443067 0.01458355 0.01474287 0.01490816 0.01507147 0.01523197 0.01538169 0.0155202 0.01563583
 0.01572811 0.01579264 0.01583152 0.01586484 0.01589525 0.0159494 0.01602293 0.01611559 0.01622276 0.01633087
 0.01644668 0.01657589 0.01672068 0.01689295 0.01706904 0.01723898 0.01737365 0.01745162 0.01747441 0.017433
 0.01735726 0.01724998 0.01714707 0.0170535 0.01699753 0.01698282 0.01701259 0.01708677 0.01718076 0.01729361
 0.01740616 0.01752011 0.01763654 0.0177536 0.01786663 0.01797122 0.0180527 0.01811549 0.01815831 0.01819066
 0.01822251 0.01825893 0.01830517 0.01836858 0.01845591 0.01856456 0.01870319 0.01882861 0.0189309 0.0189881
 0.01898883 0.01898505 0.01898034 0.01901384 0.01908715 0.01918553 0.01930673 0.0194198 0.01952599 0.01961723
 0.01969467 0.01975991 0.01980839 0.0198299 0.01982277 0.01977867 0.01970142 0.01959172 0.01945376 0.019289
 0.01910647 0.01890988 0.01870969 0.01851088 0.01831618 0.01812567 0.01794826 0.01778369 0.01765318 0.01755952
 0.01750203 0.01748044 0.0174584 0.01743398 0.01737338 0.01727766 0.01713578 0.01694859 0.01671052 0.01642714
 0.01610292 0.01575589 0.01541788 0.01509583 0.01481537 0.01455769 0.01431154 0.01407968 0.01385287 0.01366636
 0.01353448 0.01346293 0.01346052 0.01349659 0.01356717 0.01365529 0.01375884 0.01387277 0.0139967 0.01411826
 0.01423776 0.01435547 0.01447227 0.01459517 0.01472051 0.01483745 0.01494709 0.01504284 0.01513678 0.01524658
 0.01537686 0.01554115 0.01573478 0.01595512 0.01620918 0.01649952 0.01683303 0.01721897 0.01763164 0.01807023
 0.01849333 0.01889307 0.01925426 0.01957304 0.01986914 0.02014363 0.02044552 0.02077785 0.02119688 0.02169557
 0.02227083 0.0228985 0.02349266 0.02403925 0.02445575 0.02476087 0.02494621 0.0250372 0.02506093 0.02502778
 0.02495041 0.02484527 0.02472131 0.02459906 0.024492 0.02439176 0.02430225 0.02419358 0.02406128 0.02388759
 0.02366948 0.02341064 0.02311124 0.02280406 0.02249268 0.02223358 0.02202539 0.02189374 0.02182556 0.02178766
 0.02177239 0.02174306 0.02170493 0.02165387 0.02158637 0.02149794 0.02138288 0.02122764 0.02105599 0.02087462
 0.02071092 0.02058521 0.02047198 0.02037485 0.02023474 0.02004077 0.01976935 0.01941388 0.0190124 0.01856675
 0.01815324 0.01777454 0.01748878 0.01728765 0.01715546 0.01707609 0.01698007 0.01686813 0.01670117 0.01650292
 0.01629664 0.01609582 0.01592928 0.01578838 0.01567477 0.01558218 0.01550772 0.01544729 0.01540131 0.01535558
 0.01530634 0.01524633 0.01517334 0.01508874 0.01499339 0.0148732 0.01472742</values></Ydata></AB><ScSm><Ydata ylabel="Single channel"><values byteorder="INTEL" format="FLOAT32" numvalues="1814"> 0.07719254 0.0772085 0.07729004 0.07745993 0.07768744 0.07790576 0.07805885 0.07813641 0.07815622 0.0781251
 0.07805175 0.07799602 0.07805264 0.07825795 0.07853395 0.07874139 0.07879075 0.07872097 0.07867587 0.07876426
 0.07891472 0.07889865 0.07854362 0.07792985 0.07733919 0.07699573 0.0769249 0.0771178 0.07767084 0.07852056
 0.07914545 0.07894006 0.07797757 0.077043 0.07676218 0.07700089 0.07723153 0.07714017 0.07672622 0.07618479
 0.07595613 0.07660338 0.07825925 0.08017497 0.08099373 0.07960841 0.07595076 0.0712371 0.06751969 0.06658755
 0.06870347 0.07224382 0.07491919 0.0756035 0.07486883 0.07381961 0.07290864 0.07208803 0.07157389 0.07187849
 0.07309795 0.07444185 0.0746429 0.07303892 0.07036524 0.06823609 0.06767431 0.06847027 0.07004682 0.07208453
 0.07364362 0.07266841 0.06801543 0.06200938 0.05939741 0.06283063 0.07003263 0.07603067 0.07758003 0.07496715
 0.07054803 0.06680314 0.06541854 0.06682962 0.07012709 0.0738093 0.07669903 0.07800819 0.07713516 0.07418685
 0.07049327 0.06796393 0.06791712 0.07056619 0.07497489 0.0791398 0.08090147 0.07954156 0.07625996 0.07290779
 0.07077119 0.07057534 0.07266009 0.07661882 0.08128735 0.08542369 0.08821163 0.08933128 0.08902249 0.08793582
 0.08663766 0.08552164 0.08515924 0.08594353 0.08716257 0.08727488 0.085592 0.08319808 0.08182994 0.08208144
 0.08293365 0.08299358 0.08190085 0.08009472 0.07743764 0.07319843 0.06773494 0.06293079 0.06031185 0.05988974
 0.06128906 0.06433854 0.06774677 0.06903027 0.06723741 0.06467542 0.06461656 0.0678071 0.07208929 0.07503368
 0.07618393 0.07688184 0.07853618 0.08117892 0.08329065 0.08295132 0.07975085 0.07585151 0.0744561 0.07666387
 0.08041528 0.08302131 0.08399359 0.08473206 0.08607972 0.08701579 0.08572006 0.08173478 0.07712489 0.0752062
 0.07765968 0.08284627 0.08699316 0.08698629 0.08246852 0.07591829 0.0707142 0.06879634 0.07014748 0.0740806
 0.07999034 0.08668238 0.09206966 0.09434558 0.09330408 0.09022212 0.08640485 0.08198345 0.07661846 0.07151022
 0.06963017 0.07290557 0.07975352 0.0864054 0.09026721 0.09120505 0.09007622 0.08713065 0.08225559 0.0765178
 0.07266589 0.07299516 0.07658167 0.0798099 0.08016153 0.07851112 0.07725456 0.07732126 0.07783649 0.07796525
 0.07809456 0.07916412 0.08132176 0.0835745 0.08475554 0.08458577 0.0837135 0.08295678 0.08256301 0.08203196
 0.08081924 0.07942703 0.0793474 0.08143157 0.0847213 0.08743429 0.08874926 0.08910254 0.08900593 0.08814634
 0.08584817 0.08236063 0.0793789 0.07878844 0.08084206 0.08400482 0.08654908 0.08779284 0.08793319 0.08742435
 0.08667011 0.08588834 0.08517832 0.08481088 0.085163 0.0861818 0.08725613 0.08782964 0.08785941 0.08754991
 0.08695888 0.08606333 0.08503369 0.08424968 0.08403139 0.08439654 0.08509575 0.08583511 0.08638617 0.08655427
 0.08624815 0.0856182 0.0849621 0.08445644 0.08410707 0.08393977 0.08404922 0.08441968 0.0848489 0.08512159
 0.08517945 0.08508565 0.08489933 0.08463658 0.08431559 0.08400103 0.08380162 0.08379996 0.08395754 0.08413261
 0.08424094 0.0843415 0.08449566 0.08461274 0.08454207 0.0842797 0.08398582 0.08381179 0.08377921 0.08381505
 0.08383174 0.08374827 0.08348843 0.08304456 0.08256477 0.08230083 0.082407 0.08282425 0.08337696 0.08390762
 0.08430035 0.08448806 0.08450123 0.08444004 0.08435567 0.08420932 0.08396907 0.0837075 0.08358194 0.08371414
 0.08407665 0.08450632 0.08484102 0.0850229 0.08508167 0.08508909 0.08513636 0.08526911 0.08541876 0.08546744
 0.08539838 0.08532423 0.08535302 0.08546911 0.08556068 0.0855483 0.08547696 0.08547065 0.08559662 0.08580239
 0.08599451 0.08614407 0.08629294 0.08647537 0.0866506 0.08672281 0.08664542 0.08649386 0.08639494 0.08639295
 0.08643755 0.08649644 0.08660868 0.08680524 0.08703128 0.08718973 0.08724602 0.08725776 0.08729441 0.08735
 0.08735791 0.08728196 0.0871627 0.08707312 0.08705506 0.08710206 0.08717738 0.08723548 0.08724153 0.08718905
 0.08710213 0.08701427 0.08694182 0.08688674 0.08686809 0.08692765 0.08707531 0.08723651 0.08728945 0.08717398
 0.08695492 0.08676419 0.08667845 0.08665793 0.08660468 0.08646791 0.08628151 0.08611199 0.08599527 0.08592451
 0.08587398 0.08582436 0.08578405 0.08579591 0.08590048 0.08607279 0.08621277 0.08622853 0.08612594 0.0859964
 0.08592512 0.08593202 0.08598743 0.08605516 0.08612475 0.08621767 0.0863497 0.08648342 0.08655205 0.08654337
 0.08652472 0.08657417 0.08672069 0.08694912 0.08721146 0.08742733 0.087532 0.087547 0.08756548 0.08765242
 0.08778982 0.08792812 0.08805459 0.08818982 0.08834557 0.0885175 0.08871409 0.08896641 0.08929719 0.0896851
 0.09006633 0.09037813 0.09061158 0.09082679 0.09110807 0.09149412 0.09194745 0.09238908 0.09276299 0.0930742
 0.09337005 0.09368545 0.09401494 0.09434623 0.09470072 0.09511176 0.0955724 0.09603702 0.09647363 0.09688838
 0.09729964 0.09771363 0.0981296 0.09855421 0.09900504 0.09949544 0.1000065 0.1004816 0.1008697 0.1011779
 0.1014702 0.1018185 0.1022544 0.1027433 0.1031928 0.1035197 0.1037402 0.103969 0.1042968 0.1046933
 0.1050665 0.1053934 0.1057417 0.1061657 0.1066311 0.1070589 0.1074148 0.1077363 0.1080788 0.1084494
 0.1087935 0.1090521 0.1092299 0.1093935 0.1096 0.1098553 0.1101557 0.1105277 0.110987 0.1114822
 0.1119254 0.1122698 0.1125263 0.1127259 0.1128991 0.1130757 0.1132682 0.113467 0.1136664 0.1138717
 0.1140698 0.1142318 0.1143671 0.1145344 0.1147746 0.1150696 0.1153904 0.115745 0.1161425 0.1165468
 0.1169175 0.1172789 0.1176939 0.1181602 0.118584 0.118881 0.1190646 0.1192032 0.1193342 0.1194672
 0.1196422 0.1199189 0.1203069 0.1207504 0.1211892 0.1216057 0.1220085 0.1223967 0.122748 0.1230334
 0.1232372 0.1233711 0.1234732 0.1235972 0.1237935 0.1240806 0.1244234 0.1247506 0.1250049 0.1251684
 0.1252384 0.1252127 0.1251215 0.1250443 0.125047 0.1250982 0.1250812 0.1248942 0.1245179 0.1239849
 0.1233208 0.1225406 0.1216861 0.1208428 0.120112 0.1195721 0.1192685 0.1192367 0.119512 0.1200909
 0.1208856 0.1217429 0.1225158 0.1230985 0.1233996 0.123333 0.1228741 0.1221032 0.1211657 0.1201914
 0.1192577 0.1183946 0.1175987 0.1168667 0.1162561 0.1159126 0.1160154 0.1166849 0.1179309 0.1196529
 0.121663 0.1237296 0.1256503 0.1273207 0.1287448 0.1299814 0.1310866 0.1321046 0.1330791 0.1340347
 0.1349477 0.1357703 0.1364874 0.137129 0.1377226 0.1382594 0.138709 0.1390508 0.1392931 0.1394756
 0.1396445 0.1398104 0.1399443 0.140025 0.1400677 0.1400905 0.140068 0.1399378 0.1396434 0.1391695
 0.1385672 0.1379823 0.1376584 0.1378663 0.1387695 0.1403197 0.1422776 0.1443465 0.1462952 0.1479843
 0.1493423 0.1503653 0.1511214 0.1517157 0.1522353 0.1527292 0.1532182 0.1537047 0.1541787 0.1546317
 0.1550646 0.1554868 0.1559124 0.1563533 0.1568029 0.1572324 0.1576192 0.157979 0.1583615 0.1588067
 0.1593012 0.1597873 0.1602214 0.1606168 0.1610111 0.1614061 0.1617702 0.1620943 0.1624104 0.162755
 0.163142 0.1635664 0.1640044 0.164413 0.16476 0.1650559 0.1653421 0.1656485 0.1659745 0.1663069
 0.1666396 0.1669721 0.1673028 0.1676334 0.1679761 0.1683394 0.1687032 0.1690247 0.1692825 0.1695052
 0.1697429 0.1700191 0.1703183 0.1706139 0.1709001 0.1711989 0.1715391 0.1719212 0.1723052 0.1726393
 0.1729032 0.1731201 0.1733315 0.1735657 0.17383 0.1741191 0.1744225 0.1747273 0.1750245 0.1753144
 0.175604 0.1758968 0.1761903 0.1764804 0.1767685 0.177059 0.1773527 0.1776441 0.177932 0.1782315
 0.1785631 0.1789223 0.1792707 0.1795672 0.179804 0.1800081 0.1802143 0.1804436 0.1806981 0.1809655
 0.1812331 0.1815001 0.1817755 0.1820625 0.1823531 0.1826372 0.1829126 0.183183 0.1834492 0.1837099
 0.1839681 0.1842355 0.1845222 0.1848244 0.1851249 0.1854084 0.1856727 0.185927 0.1861825 0.186444
 0.1867051 0.1869554 0.1871937 0.187431 0.1876783 0.1879365 0.1881995 0.1884614 0.18872 0.1889748
 0.1892263 0.1894756 0.1897247 0.1899771 0.1902349 0.1904955 0.1907536 0.1910066 0.1912565 0.1915074
 0.19176 0.1920128 0.1922658 0.1925222 0.1927839 0.1930483 0.1933117 0.1935716 0.1938249 0.1940687
 0.194304 0.1945349 0.1947672 0.195007 0.1952561 0.1955089 0.1957598 0.1960103 0.196265 0.1965248
 0.1967918 0.1970701 0.1973567 0.1976383 0.1979039 0.1981544 0.1983971 0.1986408 0.1988908 0.1991469
 0.1994061 0.1996678 0.1999304 0.2001859 0.2004276 0.2006574 0.2008798 0.2010972 0.2013125 0.2015308
 0.2017546 0.2019845 0.2022187 0.2024524 0.2026838 0.2029181 0.2031577 0.2033948 0.2036253 0.2038581
 0.2041013 0.2043511 0.2046003 0.2048453 0.2050844 0.2053203 0.2055581 0.2057985 0.2060396 0.2062862
 0.2065434 0.2068064 0.2070668 0.2073225 0.2075755 0.207828 0.2080824 0.2083372 0.2085868 0.2088305
 0.2090733 0.2093139 0.2095471 0.209777 0.2100134 0.210261 0.2105181 0.2107774 0.2110295 0.2112755
 0.2115268 0.2117818 0.2120261 0.2122599 0.2125013 0.2127568 0.2130146 0.213264 0.2135004 0.2137235
 0.2139455 0.214181 0.2144265 0.2146674 0.2149008 0.2151296 0.2153537 0.215576 0.2157971 0.2159947
 0.2161147 0.2160268 0.2154015 0.2135801 0.2095591 0.2021894 0.1906306 0.1748804 0.1559615 0.1355571
 0.1153859 0.09675387 0.08043431 0.06677698 0.05587194 0.04764647 0.04192936 0.03857253 0.03757577 0.03920667
 0.04413043 0.05301318 0.06503359 0.07657318 0.08263456 0.08079147 0.07351004 0.06589969 0.06147423 0.06047004
 0.06137825 0.06291446 0.06467257 0.06689007 0.06997272 0.07403135 0.07886325 0.08445288 0.09121472 0.09945778
 0.1087468 0.1180859 0.1267765 0.1349651 0.1433025 0.1521613 0.1612462 0.1698882 0.1775775 0.1842179
 0.1900225 0.1952793 0.2001868 0.2048317 0.2092497 0.2134337 0.2172427 0.2203608 0.2224466 0.2233927
 0.2234531 0.2231048 0.22277 0.222649 0.2227623 0.223077 0.223569 0.2242198 0.2250061 0.2258939
 0.2268367 0.2277926 0.2287414 0.2296745 0.2305755 0.2314241 0.232208 0.2329231 0.233571 0.2341606
 0.2347034 0.2352086 0.2356838 0.2361346 0.2365593 0.2369544 0.2373231 0.2376724 0.2380055 0.2383226
 0.2386225 0.2389014 0.2391563 0.2393921 0.2396179 0.2398393 0.2400604 0.2402879 0.2405259 0.2407703
 0.2410151 0.2412581 0.2414995 0.241736 0.2419617 0.2421732 0.2423741 0.2425734 0.24278 0.2429966
 0.2432205 0.243448 0.2436751 0.2438979 0.244113 0.2443192 0.2445209 0.2447286 0.2449505 0.2451807
 0.2454087 0.2456383 0.245883 0.2461417 0.246397 0.2466381 0.2468702 0.2471016 0.2473354 0.2475688
 0.2477902 0.2479829 0.2481413 0.2482857 0.2484543 0.248676 0.2489429 0.2492155 0.249462 0.2496851
 0.2499039 0.2501233 0.2503345 0.2505292 0.2507114 0.2509047 0.2511398 0.2514195 0.2517114 0.2519875
 0.2522492 0.2525038 0.2527527 0.2530054 0.2532664 0.2535068 0.253688 0.2538222 0.2539848 0.2542539
 0.2546344 0.2550452 0.2553945 0.2556603 0.2558879 0.2561304 0.2564159 0.2567211 0.2569385 0.2569513
 0.2568139 0.256783 0.2570814 0.2576762 0.2583458 0.2589086 0.2593325 0.259674 0.2599776 0.2602278
 0.2603665 0.2603605 0.2602794 0.2603047 0.2606045 0.2611614 0.261773 0.2622561 0.2625877 0.2628276
 0.2630171 0.2631788 0.2632749 0.2631398 0.2626543 0.2620624 0.2619091 0.2625137 0.2636085 0.2646246
 0.265255 0.2656127 0.2659085 0.2661883 0.2663974 0.266436 0.2660324 0.2648957 0.2632912 0.2622027
 0.2625189 0.2641364 0.2661289 0.2676728 0.2685629 0.2690037 0.2692528 0.26945 0.2695142 0.2691512
 0.2681862 0.2670039 0.2664508 0.2670548 0.2684326 0.2697012 0.2703786 0.2706358 0.2708254 0.2710886
 0.2712554 0.270789 0.2690917 0.2663873 0.2641583 0.2640982 0.2664548 0.2697337 0.2721836 0.2733033
 0.2736921 0.2737492 0.2730866 0.2712227 0.2683021 0.2650242 0.2624272 0.2617514 0.2636142 0.2669812
 0.2697575 0.2708554 0.2711093 0.2718952 0.273492 0.2750912 0.2758507 0.2755448 0.2744265 0.2727697
 0.2707363 0.2687992 0.2679984 0.2692051 0.2720633 0.2751202 0.2771692 0.2781617 0.278568 0.2779679
 0.2747762 0.2681512 0.2603688 0.2561854 0.2586371 0.2658587 0.2730827 0.2773272 0.2790254 0.279775
 0.2802058 0.2798123 0.2772505 0.2710708 0.2619958 0.2543533 0.253147 0.2591039 0.2678529 0.2740107
 0.2748522 0.2705923 0.2634085 0.2567887 0.2541076 0.2565842 0.2627533 0.2699147 0.2757504 0.2789559
 0.2792298 0.2771527 0.2741406 0.2720929 0.2720173 0.2725355 0.2709317 0.2665844 0.262006 0.2591542
 0.2564025 0.2515507 0.2466646 0.246696 0.2530433 0.2612053 0.2658378 0.2661627 0.2649865 0.2636006
 0.2595794 0.2502776 0.2378437 0.2293051 0.2304149 0.2396796 0.2496979 0.2544078 0.2538947 0.2522078
 0.2519612 0.2516834 0.2479104 0.2397123 0.2309773 0.2271444 0.2294148 0.2336713 0.2353469 0.2330726
 0.2270742 0.2176906 0.2079808 0.2046591 0.2124138 0.2281459 0.2434111 0.251387 0.2493573 0.237156
 0.2180827 0.2008792 0.195481 0.2041194 0.2186064 0.2278731 0.2267509 0.2168657 0.2018923 0.1850499
 0.1705836 0.164199 0.1696274 0.1848401 0.2021694 0.2121406 0.2086854 0.1938351 0.1781024 0.1729202
 0.1802607 0.1912995 0.1963166 0.1935135 0.1876158 0.183754 0.1844958 0.1894529 0.1957152 0.2005664
 0.2036514 0.2039396 0.1967985 0.1795725 0.1590259 0.1469035 0.1477241 0.1564428 0.1678512 0.1812445
 0.1943365 0.2000672 0.1945702 0.1845382 0.1815409 0.1897431 0.202329 0.2098295 0.2094938 0.2057817
 0.2034587 0.2024949 0.2004796 0.1981789 0.1997323 0.2069409 0.2161256 0.2222343 0.2241041 0.2240141
 0.2238269 0.2235837 0.2228018 0.2213057 0.2191469 0.2167391 0.214741 0.2133137 0.2119809 0.2103721
 0.2082061 0.2042015 0.1963721 0.1848559 0.1736945 0.1676651 0.1672538 0.1689478 0.1704521 0.1720608
 0.1718224 0.1641552 0.1472865 0.129345 0.1224532 0.1310247 0.1484771 0.164652 0.1734878 0.1735186
 0.1649358 0.1499888 0.1356384 0.1313588 0.1413745 0.1605861 0.1800488 0.1947013 0.2039137 0.2071944
 0.2033428 0.193652 0.1831765 0.1778615 0.1809342 0.1914491 0.2045648 0.2127646 0.2095306 0.1958487
 0.1831547 0.1849084 0.202416 0.2225918 0.2326596 0.2331111 0.2324938 0.2341298 0.2344806 0.2325042
 0.2333918 0.2414457 0.2537458 0.2630215 0.2640285 0.2556204 0.2400738 0.2235949 0.2147047 0.2174196
 0.2267002 0.2339366 0.2352757 0.2311232 0.2210737 0.2060445 0.1936567 0.1936367 0.2065362 0.2224595
 0.2323262 0.2361443 0.2388722 0.2418981 0.241383 0.2340945 0.2227879 0.2144809 0.2134816 0.217607
 0.2218409 0.2236257 0.2228863 0.219018 0.211252 0.2019469 0.1966441 0.1992672 0.2080992 0.2174487
 0.2228121 0.2237383 0.2224175 0.2209093 0.2197731 0.2182823 0.2158278 0.2137254 0.2149554 0.220882
 0.2289342 0.2351898 0.2388574 0.242521 0.2480941 0.2541609 0.2576669 0.2572358 0.2544912 0.2526697
 0.254039 0.2580898 0.261907 0.2626613 0.2603047 0.2578663 0.2586614 0.2631266 0.268757 0.2729466
 0.275116 0.2761803 0.2770168 0.277724 0.2775778 0.2756047 0.2720051 0.2689857 0.2691934 0.2730718
 0.2784184 0.2826289 0.2847691 0.2854314 0.2853362 0.2845793 0.2830275 0.2809867 0.2792277 0.2783921
 0.2785431 0.2793164 0.2803149 0.2812793 0.2820727 0.2826709 0.2831242 0.2834688 0.2837139 0.2839034
 0.2840893 0.2842318 0.2842393 0.2841436 0.2841373 0.2843581 0.2847063 0.2849505 0.2849454 0.2846461
 0.2839805 0.2828659 0.2813567 0.2796305 0.2777877 0.2757909 0.2737124 0.2719916 0.2712996 0.2720468
 0.27401 0.2764611 0.2786491 0.2801718 0.281008 0.2813532 0.2814608 0.2815273 0.2816238 0.2817035
 0.2816809 0.2815071 0.2811854 0.2807473 0.2802318 0.2796811 0.2791306 0.2785883 0.2780377 0.2774774
 0.2769535 0.2765272 0.2762064 0.2759234 0.2755894 0.2751608 0.2746435 0.2740439 0.2733406 0.2725103
 0.2715714 0.2705939 0.2696653 0.2688338 0.268076 0.2673181 0.2664817 0.2655105 0.2643929 0.263194
 0.2620399 0.2610224 0.2601218 0.2592417 0.2582951 0.2572384 0.2560575 0.2547625 0.2533854 0.2519618
 0.2505128 0.2490425 0.2475395 0.2459802 0.2443414 0.242612 0.2407918 0.2388885 0.2369211 0.2349159
 0.2328705 0.2307109 0.2282965 0.2254796 0.2221577 0.2182767 0.2138269 0.2088684 0.2035539 0.1981001
 0.1927259 0.1876062 0.1828652 0.1785964 0.1748821 0.1717932 0.1693815 0.1676842 0.1667257 0.1665066
 0.1669998 0.1681593 0.1699125 0.1721431 0.174701 0.1774293 0.1801688 0.1827638 0.1851125 0.1872181
 0.1891659 0.1910357 0.1928362 0.1945211 0.1960514 0.1974241 0.1986387 0.1996697 0.2004968 0.2011432
 0.2016586 0.2020768 0.2024037 0.2026273 0.2027271 0.2026909 0.2025398 0.2023427 0.2022093 0.2022571
 0.2025581 0.2030986 0.2037918 0.2045303 0.2052349 0.2058792 0.2064817 0.2070696 0.2076534 0.2082375
 0.2088348 0.2094636 0.2101549 0.2109665 0.211961 0.2131591 0.2145285 0.2160122 0.2175409 0.2190228
 0.2203467 0.221414 0.2221735 0.2226314 0.2228253 0.2227962 0.2225933 0.2222838 0.2219314 0.2215707
 0.2212187 0.2208927 0.2205987 0.2203198 0.2200353 0.2197418 0.2194485 0.2191611 0.218877 0.2185897
 0.2182985 0.2180085 0.2177185 0.217416 0.2170899 0.2167349 0.2163428 0.2159049 0.2154266 0.2149247
 0.2144095 0.2138721 0.2132812 0.212591 0.2117669 0.2108041 0.2097143 0.2085034 0.2071765 0.2057518
 0.2042549 0.2027057 0.2011153 0.1994868 0.1978174 0.1960951 0.1942874 0.1923514 0.1902808 0.1881394
 0.1860265 0.1840146 0.1821286 0.1803603 0.1786797 0.177054 0.1754749 0.1739635 0.1725432 0.1712169
 0.1699669 0.1687703 0.1676175 0.1665161 0.1654786 0.164517 0.1636526 0.1629089 0.1622846 0.1617502
 0.1612761 0.1608516 0.1604863 0.1602108 0.1600595 0.1600263 0.1600439 0.1600229 0.1599075 0.1596981
 0.15944 0.1591907 0.1589873 0.1588362 0.1587212 0.1586019 0.158408 0.1580495 0.1574361 0.1564987
 0.1552173 0.1536347 0.151835 0.1499182 0.1480044 0.1462273 0.1446919 0.1434464 0.1424934 0.141796
 0.1412728 0.1408301 0.1404261 0.1401026 0.1399453 0.1399892 0.140144 0.1402445 0.1402086 0.1401232
 0.1401526 0.1403999 0.1408626 0.1414663 0.1421039 0.1426759 0.1431172 0.1433957 0.1435159 0.1435215
 0.1434554 0.1433164 0.1430829 0.142761 0.1423813 0.1419724 0.1415473 0.1410847 0.1405302 0.1398546
 0.1390875 0.1382667 0.1373928 0.1364418 0.1353788 0.1341797 0.1329166 0.1318066 0.131109 0.1309706
 0.1313635 0.132122 0.1330488 0.1340279 0.1349866 0.1357361 0.136031 0.1359386 0.1360211 0.136929
 0.1387878 0.1410743 0.1430865 0.1444378 0.1451042 0.1451748 0.1447114 0.1437596 0.1423302 0.1403982
 0.138008 0.1353045 0.1324208 0.1294641 0.1266115 0.1240599 0.1218989 0.1201314 0.1187435 0.1177767
 0.1173662 0.1171597 0.1153426 0.1095836 0.1006156 0.09385747 0.09487102 0.1031065 0.1122688 0.1169796
 0.1170755 0.115409 0.1139528 0.113014 0.1125074 0.1125768 0.1133349 0.1146224 0.1160449 0.1172107
 0.1179708 0.1183631 0.1183315 0.1175303 0.115279 0.1107734 0.1037314 0.0949892 0.08621892 0.07894312
 0.07385738 0.07085541 0.06934708 0.06860135 0.06811744 0.06784956 0.06808235 0.06909184 0.07092555 0.07345499
 0.07651463 0.07986514 0.08309179 0.08577071 0.08779004 0.08934062 0.09056984 0.09141117 0.09175703 0.09162686
 0.09113418 0.09039996 0.08952089 0.08855134 0.08748271 0.08627045 0.08494624 0.08372051 0.08288281 0.08253728
 0.08251561 0.08259162 0.08267096 0.08274415 0.08279675 0.08281901 0.08282156 0.08284153 0.08297241 0.08331128
 0.08382408 0.08434076 0.08471374 0.08492264 0.08502983 0.08506275 0.08492123 0.08446631 0.08378321 0.08320118
 0.08285959 0.08242477 0.08151449 0.08028905 0.07934579 0.07907983 0.07935679 0.07975861 0.07995531 0.07985666
 0.07960621 0.07951374 0.07984762 0.0805308</values></Ydata></ScSm><ScRf><Ydata ylabel="Single channel"><values byteorder="INTEL" format="FLOAT32" numvalues="1820"> 0.06061881 0.06077842 0.06087245 0.06090175 0.06089512 0.06090125 0.0609668 0.06110836 0.06129932 0.06148253
 0.0616074 0.0616641 0.0616734 0.06164769 0.06159196 0.0615451 0.06157694 0.06172013 0.06192369 0.06208617
 0.06213472 0.06208903 0.06205509 0.06212188 0.06223892 0.06222521 0.06194045 0.06144731 0.06097097 0.0606902
 0.06062582 0.06077304 0.06121244 0.06189676 0.06241011 0.06226321 0.06150404 0.06075237 0.06051019 0.06068018
 0.06085257 0.06078344 0.06046869 0.06005038 0.05986581 0.06036236 0.06165845 0.06317252 0.06382785 0.06273489
 0.05983038 0.05608039 0.05311988 0.05237348 0.05405267 0.05687072 0.05900849 0.0595664 0.0589964 0.0581793
 0.05747585 0.05683848 0.05642589 0.05664432 0.05758578 0.05864032 0.05880505 0.05754241 0.0554229 0.05372486
 0.05326567 0.0538845 0.05512505 0.05673506 0.0579721 0.05720552 0.05352012 0.04875038 0.04666592 0.04938854
 0.05512439 0.05991518 0.0611608 0.05908062 0.05556204 0.05259226 0.05150463 0.05262379 0.05521853 0.0581118
 0.06039231 0.06144188 0.06076971 0.05844303 0.05551235 0.05350121 0.05346505 0.05557485 0.05908318 0.06239489
 0.06379288 0.06270742 0.06009573 0.05743109 0.05573149 0.05556729 0.05721211 0.06035609 0.06408381 0.06740448
 0.06965491 0.07056494 0.07031867 0.06944358 0.06840952 0.06753711 0.06726854 0.06790166 0.06886964 0.06895371
 0.06760827 0.06569478 0.06459945 0.06480123 0.06548791 0.06554249 0.06467331 0.0632339 0.06111958 0.05774673
 0.05339643 0.04957019 0.04748804 0.04716053 0.04828887 0.05074197 0.05349572 0.0545629 0.05316478 0.05112546
 0.05105758 0.05357419 0.05696994 0.05930959 0.06022291 0.06077638 0.06209707 0.06421605 0.06592139 0.06567347
 0.06313621 0.06003579 0.05893928 0.06073135 0.06376072 0.06586708 0.06665743 0.06726055 0.06836218 0.0691492
 0.06816185 0.06503083 0.06140618 0.05993156 0.06193683 0.06610634 0.06943497 0.06944571 0.06585287 0.06063328
 0.05649214 0.05499124 0.05612778 0.05936297 0.0642196 0.06973796 0.07422861 0.07621245 0.07548989 0.07307234
 0.07002698 0.06648542 0.06218275 0.05809281 0.05664217 0.05941983 0.06514169 0.07071723 0.07400896 0.07490231
 0.07410016 0.07179592 0.06787752 0.06322464 0.0601371 0.06054476 0.06368311 0.06652696 0.06695999 0.06570456
 0.06476597 0.06492908 0.06546486 0.06567736 0.0659075 0.06696662 0.06898186 0.07108936 0.07226583 0.07225423
 0.07161567 0.07107781 0.07087335 0.07056767 0.06967756 0.06863593 0.06874111 0.07072648 0.07374382 0.0762341
 0.07749212 0.07791999 0.07797821 0.07738438 0.07552356 0.07260045 0.0701144 0.06974775 0.07173724 0.0747219
 0.07715811 0.07843208 0.07871932 0.0784262 0.07791319 0.07737798 0.07691392 0.07676164 0.07725158 0.07833195
 0.07945572 0.08012702 0.08031012 0.08018691 0.0798026 0.07913399 0.07834317 0.07778394 0.07774729 0.07824332
 0.07904343 0.0798849 0.0805621 0.08088754 0.08075999 0.08031012 0.07982539 0.07948795 0.07930785 0.07930087
 0.07955005 0.08004297 0.08059123 0.08098829 0.08117405 0.08120758 0.0811488 0.08101522 0.08082256 0.08063492
 0.08056618 0.08069877 0.08098195 0.08126549 0.08147544 0.08168677 0.0819595 0.08218582 0.08220357 0.08201573
 0.08179909 0.08171263 0.08177039 0.08188887 0.08198066 0.08197236 0.08179256 0.08143386 0.08104175 0.08086173
 0.08104385 0.08153586 0.08217384 0.08279898 0.08327895 0.08353408 0.08359903 0.08358565 0.08354993 0.08345085
 0.08325563 0.0830384 0.08295579 0.08312777 0.08353007 0.0840048 0.08438793 0.0846125 0.08470398 0.08474283
 0.08483467 0.0850281 0.08523571 0.08531366 0.08524358 0.08516715 0.08521602 0.0853608 0.08545735 0.08541737
 0.08530848 0.08528126 0.08540985 0.08562886 0.08582891 0.0859798 0.08613867 0.08635189 0.08656729 0.08665927
 0.08656029 0.08635291 0.08619001 0.08613471 0.0861382 0.08616789 0.08627018 0.08647394 0.08670148 0.08683644
 0.08685636 0.08684893 0.08689567 0.08697394 0.08699046 0.08689052 0.0867122 0.08654532 0.08646174 0.08647969
 0.08656374 0.08664522 0.08665982 0.0865878 0.0864633 0.08633925 0.08624612 0.08619627 0.08622189 0.08636974
 0.08662722 0.0868713 0.08693933 0.08677489 0.08649181 0.08627498 0.08621329 0.08623347 0.08619275 0.08602124
 0.08576705 0.08552343 0.08534129 0.08521178 0.08510454 0.08500641 0.08493832 0.08494672 0.08505759 0.08521776
 0.08530118 0.08521025 0.08496997 0.08470039 0.08450793 0.0844233 0.08441725 0.08443753 0.08444799 0.08446157
 0.08451388 0.08458824 0.0846089 0.0845353 0.08442267 0.08436741 0.08442948 0.0846103 0.08484883 0.08502914
 0.08505554 0.08494839 0.08482867 0.08479472 0.08484665 0.0849313 0.08501664 0.0851028 0.08519334 0.08528828
 0.08540072 0.08555815 0.08577611 0.08603333 0.0862774 0.08645957 0.08657354 0.08666886 0.08682057 0.0870712
 0.08739492 0.08771887 0.08798267 0.08818104 0.08835182 0.08852772 0.08871142 0.08890317 0.0891303 0.08942033
 0.08975439 0.09007998 0.09036957 0.09064029 0.09091741 0.09120455 0.09149484 0.09179661 0.09213985 0.09254864
 0.09299441 0.09338775 0.09364638 0.09377764 0.0938803 0.09406812 0.0943913 0.09479966 0.09516343 0.09536927
 0.0954348 0.09550282 0.09568873 0.09596267 0.09622243 0.09645163 0.09674183 0.09715716 0.09763086 0.09802405
 0.09826522 0.0984093 0.09856334 0.09876949 0.09897156 0.09909809 0.09915845 0.09923071 0.09936485 0.09954505
 0.0997584 0.1000435 0.1004283 0.1008568 0.1012296 0.1014993 0.1016905 0.1018425 0.1019716 0.1020731
 0.1021343 0.1021557 0.1021749 0.102241 0.1023509 0.1024445 0.1024814 0.1024951 0.1025508 0.1026834
 0.1028953 0.1031787 0.1035051 0.1038171 0.1040784 0.1043288 0.1046422 0.1050125 0.105329 0.1054952
 0.1055387 0.1055583 0.1056 0.1056459 0.1057037 0.1058337 0.1060745 0.1063952 0.1067412 0.1070907
 0.1074498 0.1078135 0.1081449 0.1083882 0.1085038 0.1085027 0.1084509 0.1084396 0.1085418 0.1087777
 0.1091031 0.1094391 0.1097231 0.1099265 0.1100306 0.1100244 0.1099489 0.1099117 0.110004 0.1101999
 0.1103651 0.1103693 0.1101712 0.1097981 0.1092847 0.108659 0.1079706 0.1073037 0.1067459 0.1063487
 0.1061263 0.1060956 0.1062966 0.1067487 0.1073909 0.1080945 0.1087417 0.1092596 0.1095773 0.1096043
 0.1092946 0.1087084 0.1079812 0.1072412 0.1065651 0.1059713 0.1054245 0.1048792 0.104365 0.1040269
 0.1040593 0.1045915 0.1056212 0.1070152 0.1085521 0.1100005 0.1112122 0.1121731 0.1129649 0.1136762
 0.1143498 0.1150032 0.1156595 0.116327 0.1169663 0.117522 0.1179885 0.1184119 0.1188275 0.1192245
 0.1195702 0.1198447 0.1200588 0.1202531 0.1204618 0.1206596 0.1207709 0.1207537 0.1206492 0.1205272
 0.1204061 0.1202434 0.1199855 0.1196128 0.1191674 0.1187689 0.1185982 0.1188268 0.1195193 0.1205883
 0.1218566 0.12317 0.1244394 0.1255913 0.1265334 0.1272043 0.1276321 0.1279154 0.1281558 0.1284155
 0.1287146 0.1290421 0.1293728 0.1296854 0.1299729 0.1302488 0.1305432 0.1308773 0.1312287 0.1315418
 0.1317856 0.1319956 0.1322467 0.1325822 0.1329738 0.1333531 0.1336836 0.1339901 0.1343074 0.134618
 0.1348695 0.1350484 0.1352055 0.1354081 0.135691 0.1360456 0.1364256 0.1367633 0.1370154 0.1372008
 0.1373767 0.1375793 0.137804 0.138037 0.1382784 0.13853 0.1387846 0.139042 0.1393192 0.1396247
 0.1399267 0.1401705 0.1403358 0.1404638 0.1406186 0.1408268 0.1410612 0.1412782 0.1414673 0.1416661
 0.1419228 0.1422405 0.1425611 0.1428139 0.1429784 0.1430963 0.1432277 0.1434032 0.1436139 0.1438328
 0.1440386 0.1442256 0.144403 0.1445881 0.1447946 0.1450214 0.1452548 0.1454815 0.1456978 0.1459082
 0.1461183 0.1463292 0.1465406 0.1467627 0.1470154 0.1473032 0.1475952 0.1478447 0.1480297 0.1481656
 0.1482828 0.1484065 0.1485527 0.1487271 0.148926 0.149141 0.1493644 0.1495892 0.149809 0.1500208
 0.1502241 0.1504189 0.1506073 0.1507967 0.1509984 0.1512198 0.1514573 0.1516949 0.1519139 0.1521083
 0.1522898 0.1524779 0.152683 0.1528968 0.1530977 0.1532719 0.1534297 0.1535961 0.153785 0.1539892
 0.1541946 0.1543953 0.1545945 0.1547953 0.1549939 0.1551836 0.155366 0.1555533 0.1557543 0.155965
 0.1561749 0.156378 0.1565739 0.1567644 0.1569522 0.1571403 0.1573294 0.1575204 0.1577167 0.1579216
 0.1581343 0.1583497 0.1585619 0.1587665 0.1589631 0.1591543 0.1593432 0.1595318 0.1597212 0.1599133
 0.1601103 0.1603141 0.1605224 0.1607318 0.1609421 0.1611566 0.1613756 0.1615952 0.161812 0.1620243
 0.1622306 0.1624331 0.1626398 0.1628579 0.1630867 0.1633182 0.1635428 0.1637545 0.1639539 0.1641444
 0.1643261 0.1644988 0.1646664 0.1648347 0.1650053 0.1651769 0.1653499 0.165527 0.1657111 0.1659034
 0.1661012 0.1663015 0.1665051 0.166715 0.1669294 0.1671436 0.1673546 0.1675586 0.1677524 0.1679401
 0.1681304 0.1683259 0.168524 0.1687257 0.1689342 0.1691486 0.1693677 0.1695915 0.1698177 0.1700408
 0.1702565 0.1704613 0.1706566 0.1708527 0.1710604 0.171277 0.1714922 0.1717013 0.1719045 0.1721029
 0.172303 0.1725115 0.1727255 0.1729379 0.1731489 0.1733587 0.1735614 0.1737584 0.1739597 0.1741694
 0.1743841 0.1746027 0.1748241 0.1750441 0.1752636 0.1754878 0.1757138 0.1759331 0.1761435 0.1763462
 0.1765443 0.1767483 0.1769644 0.1771726 0.177317 0.1772747 0.1767677 0.1752618 0.1719466 0.1658879
 0.1563959 0.1434596 0.1279023 0.1110954 0.0944605 0.07909672 0.06565987 0.05443421 0.04547485 0.03870873
 0.03399868 0.03123297 0.03041297 0.03175147 0.03579203 0.04309038 0.05298493 0.06250654 0.0675351 0.06605363
 0.06007765 0.05381886 0.05018581 0.04937864 0.05014734 0.0514278 0.0528877 0.05472606 0.05727402 0.0606157
 0.06458229 0.06916964 0.07473244 0.08153293 0.08921149 0.09694298 0.1041484 0.1109442 0.1178625 0.1252057
 0.1327299 0.1398873 0.1462629 0.1517756 0.156592 0.160943 0.1649972 0.1688387 0.1725063 0.1759923
 0.1791698 0.1817671 0.1834991 0.1842819 0.1843311 0.1840446 0.1837728 0.1836811 0.1837839 0.1840495
 0.1844538 0.1849811 0.1856186 0.1863494 0.1871424 0.18796 0.1887736 0.1895638 0.1903147 0.1910189
 0.1916781 0.1922915 0.192853 0.1933604 0.1938182 0.1942359 0.1946283 0.195011 0.195388 0.195751
 0.1960916 0.196407 0.1966958 0.1969578 0.1971956 0.1974159 0.1976299 0.1978493 0.1980769 0.1983065
 0.1985329 0.1987542 0.198964 0.1991554 0.1993346 0.1995178 0.1997139 0.1999178 0.200119 0.2003118
 0.2004996 0.2006921 0.2008943 0.2010994 0.201299 0.2014938 0.201689 0.2018823 0.2020664 0.2022415
 0.20242 0.202616 0.2028298 0.2030454 0.2032491 0.2034464 0.2036525 0.2038704 0.2040913 0.2043116
 0.2045338 0.2047555 0.2049695 0.2051728 0.2053631 0.2055347 0.2056865 0.2058346 0.2060058 0.2062148
 0.2064478 0.2066751 0.2068829 0.2070831 0.2072898 0.2074985 0.2076944 0.2078693 0.2080303 0.208202
 0.2084102 0.2086533 0.2089029 0.2091425 0.209381 0.2096245 0.2098645 0.2100968 0.2103203 0.2105158
 0.2106622 0.2107796 0.2109358 0.2111948 0.2115553 0.2119422 0.2122718 0.2125248 0.2127428 0.212971
 0.21323 0.2135026 0.2137108 0.2137627 0.213693 0.2137002 0.2139682 0.2144791 0.2150546 0.2155408
 0.2159059 0.2161949 0.2164492 0.2166669 0.2168101 0.2168485 0.2168225 0.216866 0.2171202 0.2175903
 0.2181254 0.2185725 0.2189004 0.2191518 0.2193597 0.2195414 0.2196614 0.2195792 0.2191972 0.218723
 0.2186147 0.2191375 0.2200664 0.2209297 0.2214768 0.221803 0.2220819 0.2223498 0.2225613 0.2226326
 0.2223347 0.221421 0.2201103 0.2192306 0.2195379 0.2209492 0.2226736 0.2240031 0.224768 0.2251608
 0.2254158 0.2256489 0.2257737 0.2255225 0.2247396 0.2237589 0.2233158 0.2238724 0.2251021 0.2262411
 0.2268708 0.2271422 0.2273624 0.2276475 0.2278465 0.2275063 0.2261274 0.2239003 0.2220752 0.2220808
 0.2241268 0.2269545 0.2290861 0.2300941 0.2304793 0.2305802 0.2300709 0.228541 0.2261112 0.2233808
 0.2212388 0.2207378 0.2223963 0.2253316 0.2277628 0.2287663 0.2290527 0.2297916 0.2312156 0.2326322
 0.2333276 0.233123 0.232248 0.2309355 0.2293063 0.2277456 0.227138 0.2282389 0.2307553 0.2334457
 0.2352723 0.236192 0.236616 0.2361914 0.2335552 0.2279725 0.2213834 0.2178631 0.2200228 0.2262798
 0.2325581 0.2362975 0.2378565 0.2385962 0.2390559 0.2388064 0.2367017 0.2314995 0.2238115 0.2173427
 0.2163919 0.2215968 0.2292132 0.2346138 0.2354445 0.231876 0.2257779 0.2201615 0.2179459 0.2201875
 0.2256217 0.2319127 0.2370571 0.2399358 0.2402969 0.2386379 0.236169 0.2345279 0.2345928 0.2351766
 0.2339262 0.230297 0.2264587 0.2241065 0.2218353 0.2177432 0.2136295 0.2138033 0.2194839 0.2267504
 0.2309446 0.2313924 0.2305444 0.2295178 0.2261766 0.2181958 0.2074534 0.2001143 0.2012428 0.2095482
 0.2185396 0.2228868 0.2226573 0.2214061 0.22143 0.2214242 0.2183201 0.2112938 0.2038027 0.2006814
 0.2029946 0.2070836 0.2088946 0.2072053 0.2021927 0.1941402 0.1857867 0.1831622 0.1904966 0.2050405
 0.2192229 0.2268856 0.2255248 0.2149224 0.1980391 0.1828534 0.1784809 0.1869961 0.2009045 0.2100369
 0.2096149 0.2010953 0.1878362 0.1728179 0.1600306 0.1548812 0.160961 0.1764112 0.1939368 0.2043999
 0.2018678 0.1882643 0.1738338 0.1697652 0.1779714 0.1897421 0.195492 0.19346 0.1883354 0.1852374
 0.1867732 0.1925659 0.1996506 0.2052682 0.2090659 0.2099278 0.2029909 0.1854796 0.1644169 0.1519953
 0.1529141 0.1619633 0.173777 0.1876618 0.2012528 0.2071899 0.2014178 0.1908678 0.1875639 0.1958545
 0.208684 0.216226 0.2156109 0.2114622 0.2087586 0.2075343 0.2053399 0.2029652 0.2046525 0.2122411
 0.2219563 0.2286244 0.2310559 0.2315813 0.2320966 0.232617 0.232613 0.2318896 0.2305179 0.2289589
 0.2279174 0.227556 0.2273461 0.2268668 0.2257858 0.2226527 0.2152099 0.2035655 0.1922151 0.1864857
 0.1868907 0.1894882 0.1917363 0.1939737 0.1939639 0.185366 0.1661121 0.1452739 0.1364654 0.1446929
 0.1626281 0.1789595 0.1870567 0.1855373 0.1748785 0.1576161 0.1410535 0.1349884 0.1437291 0.1619643
 0.1804453 0.1939631 0.2019578 0.2041017 0.199307 0.1888703 0.1777509 0.1717398 0.1739264 0.1833327
 0.1952458 0.2024429 0.1987257 0.1850739 0.1723604 0.173331 0.1892359 0.2077501 0.2168294 0.2169093
 0.2160207 0.2173111 0.2174805 0.2155345 0.2163038 0.2238099 0.2353484 0.2441569 0.2453554 0.2378756
 0.223839 0.2090476 0.2014686 0.2048093 0.2142324 0.2215539 0.2231289 0.2193766 0.2099683 0.1958466
 0.1843184 0.1846582 0.197368 0.2129808 0.2228141 0.2268702 0.2298833 0.2331667 0.2330212 0.226343
 0.2158193 0.2082759 0.2079313 0.2127088 0.2177539 0.2205562 0.2209727 0.2183178 0.2117917 0.2037851
 0.1999142 0.204136 0.2146264 0.225453 0.2318551 0.23322 0.231706 0.2294414 0.2270911 0.224022
 0.2197136 0.2155912 0.2147564 0.218678 0.2248614 0.2294151 0.23151 0.2336623 0.2377782 0.2425283
 0.2449662 0.2437451 0.2403926 0.2379664 0.2385924 0.2417849 0.2448212 0.2450691 0.2424877 0.2399004
 0.2403994 0.2443996 0.2495833 0.2535347 0.2557067 0.2569224 0.2579614 0.2588738 0.2589347 0.2571879
 0.253796 0.2508284 0.2507948 0.2541559 0.2588875 0.2625781 0.2643828 0.2648869 0.2647733 0.2641082
 0.2627316 0.2609075 0.2593558 0.2586859 0.2589525 0.259781 0.2607562 0.2616181 0.2622558 0.2626804
 0.2629692 0.2631721 0.2632993 0.2633885 0.2634879 0.2635589 0.2635101 0.2633693 0.2633202 0.263496
 0.2638084 0.2640486 0.2640843 0.2638723 0.2633464 0.2624337 0.2611824 0.2597485 0.2582183 0.2565518
 0.2548104 0.2534005 0.2529514 0.2538453 0.2558614 0.2583071 0.2604895 0.2620634 0.2630281 0.2635371
 0.2637598 0.2638327 0.263837 0.2637904 0.2636745 0.263475 0.2631972 0.2628559 0.2624681 0.2620608
 0.2616746 0.2613426 0.2610577 0.2607724 0.2604342 0.2600207 0.2595434 0.2590286 0.2584924 0.2579228
 0.2572807 0.2565268 0.2556549 0.2547044 0.2537505 0.2528688 0.2520857 0.2513572 0.2506118 0.2498076
 0.2489233 0.2479199 0.246773 0.2455565 0.2444355 0.2435351 0.2428385 0.2422283 0.2415935 0.2408744
 0.2400469 0.2391123 0.2380957 0.237026 0.2359167 0.2347721 0.2335935 0.2323653 0.2310517 0.2296245
 0.2280868 0.2264702 0.2248192 0.2231694 0.221512 0.2197673 0.2178024 0.2154784 0.212683 0.2093396
 0.2054222 0.2009833 0.1961683 0.1911879 0.1862609 0.1815691 0.1772473 0.1733928 0.1700768 0.1673539
 0.1652703 0.1638616 0.1631466 0.1631316 0.1638152 0.1651743 0.1671414 0.169598 0.1723912 0.1753566
 0.1783304 0.1811637 0.1837597 0.1861186 0.188321 0.1904354 0.1924479 0.1942954 0.1959423 0.1973892
 0.1986305 0.1996485 0.200454 0.2011016 0.2016556 0.2021509 0.2025904 0.2029698 0.2032921 0.2035613
 0.2037785 0.2039528 0.2041074 0.2042679 0.2044525 0.2046721 0.2049336 0.2052435 0.2056156 0.2060629
 0.2065753 0.207119 0.2076692 0.2082324 0.208832 0.2094868 0.2102122 0.2110333 0.2119871 0.2131038
 0.2143806 0.2157675 0.2171798 0.2185218 0.2197104 0.2206942 0.2214559 0.2219903 0.2222928 0.2223793
 0.2223019 0.2221169 0.2218449 0.2214774 0.2210144 0.2204783 0.2198916 0.2192606 0.2185862 0.2178815
 0.2171704 0.2164719 0.2157929 0.2151301 0.2144733 0.2138143 0.2131582 0.2125214 0.2119128 0.2113273
 0.2107576 0.2102004 0.2096483 0.2090879 0.2085102 0.2079077 0.20726 0.2065357 0.205714 0.204796
 0.2037902 0.2026946 0.201499 0.2002032 0.198823 0.1973766 0.1958702 0.1943019 0.1926717 0.1909749
 0.1891884 0.1872844 0.1852728 0.1832248 0.1812376 0.1793772 0.1776586 0.1760666 0.1745754 0.1731607
 0.1718088 0.1705173 0.1692848 0.1681107 0.1670017 0.1659625 0.1649825 0.1640492 0.1631691 0.1623627
 0.1616401 0.1609947 0.160418 0.1599141 0.1594932 0.1591563 0.1589 0.1587359 0.158682 0.1587215
 0.1587912 0.1588225 0.1587843 0.158687 0.1585652 0.1584564 0.1583776 0.1583205 0.1582641 0.1581755
 0.1579989 0.1576619 0.1570917 0.1562285 0.1550454 0.1535655 0.151856 0.1500149 0.1481728 0.1464719
 0.1450146 0.143842 0.1429552 0.1423186 0.1418539 0.1414779 0.1411608 0.1409418 0.14089 0.1410289
 0.1412676 0.1414473 0.1415005 0.1415325 0.1417159 0.1421429 0.1427857 0.1435391 0.1442831 0.14494
 0.1454778 0.1458693 0.1460989 0.1462017 0.1462333 0.1462043 0.1460931 0.1458972 0.1456321 0.1453133
 0.1449574 0.1445646 0.1441086 0.1435689 0.1429427 0.1422188 0.1413915 0.140483 0.1394911 0.1383721
 0.1371593 0.13605 0.1353071 0.1351081 0.1354745 0.1362668 0.1372693 0.1383365 0.1393863 0.1402296
 0.1406174 0.1406182 0.1408062 0.1418457 0.143858 0.146288 0.1484033 0.1498269 0.1505643 0.1507061
 0.1503004 0.1494031 0.1480322 0.146124 0.1436744 0.1408291 0.1377643 0.134637 0.1316634 0.1290498
 0.1268632 0.1250867 0.1237056 0.1227567 0.1223667 0.1221714 0.1202946 0.1143153 0.1050041 0.09800924
 0.09910825 0.107714 0.1172871 0.1222467 0.1224098 0.1207244 0.1192437 0.1182894 0.117761 0.1178009
 0.1185292 0.1197841 0.1211643 0.1222742 0.1229649 0.1232872 0.1232039 0.1223546 0.1199958 0.1152589
 0.107847 0.09863984 0.08939803 0.08173427 0.07637737 0.07319487 0.07156911 0.0707632 0.07026508 0.0700108
 0.07028317 0.07136393 0.07329686 0.07595044 0.07915772 0.08266497 0.08604087 0.08886263 0.09102692 0.0927311
 0.09413444 0.09517447 0.09571829 0.09574953 0.09537024 0.09472077 0.09393992 0.09312315 0.09224926 0.09119673
 0.08993492 0.08868917 0.0878 0.08739936 0.08732863 0.08736811 0.087415 0.08743817 0.08740833 0.08731797
 0.0872028 0.0871411 0.08724616 0.0875935 0.08811893 0.08863837 0.08899031 0.08914548 0.08918861 0.08917429
 0.08898254 0.08842468 0.0875721 0.0867967 0.08629679 0.08576192 0.08477898 0.08346419 0.08241517 0.0820647
 0.08229585 0.08267412 0.08285236 0.08273308 0.08245455 0.08233145 0.08264095 0.08329414 0.08381356 0.08379313
</values></Ydata></ScRf><Data_Parameters_AB><parameter name="DPF">1</parameter><parameter name="NPT">3497</parameter><parameter name="FXV">3996</parameter><parameter name="LXV">500</parameter><parameter name="CSF">1</parameter><parameter name="MXY">0.0527899451553822</parameter><parameter name="MNY">-0.104747951030731</parameter><parameter name="DAT">31/05/2022</parameter><parameter name="TIM">10:56:52.627 (GMT+2)</parameter><parameter name="DXU">WN</parameter></Data_Parameters_AB><AB__Qtest><MainReport name="Quality Test Report"><Header><Line><Legend>Test result ok/not ok [1/0]: </Legend><Value>0</Value></Line><Line><Legend>Method file: </Legend><Value>C:\Users\Public\Documents\Bruker\OPUS_8.2.28\QT\IRBT_v3_default.QT</Value></Line></Header><Matrix><Line><Legend></Legend><Legend>min</Legend><Legend>max</Legend><Legend>measured</Legend></Line><Line><Value>Absorption (X-Range 1):</Value><Value>0.400000</Value><Value>2.000000</Value><Value>0.100110</Value></Line><Line><Value>Noise (X-Range 4):</Value><Value></Value><Value>0.000300</Value><Value>0.000052</Value></Line><Line><Value>Signal/Noise (X-Range 2):</Value><Value>200.000000</Value><Value></Value><Value>30.615921</Value></Line><Line><Value>Signal/Noise (X-Range 3):</Value><Value>40.000000</Value><Value></Value><Value>15.929356</Value></Line><Line><Value>Water vapour (X-Range 5):</Value><Value></Value><Value>0.000300</Value><Value>0.000051</Value></Line><Line><Value>Signal/Water (X-Range 2):</Value><Value>100.000000</Value><Value></Value><Value>30.975067</Value></Line><Line><Value>Signal/Water (X-Range 3):</Value><Value>20.000000</Value><Value></Value><Value>16.116218</Value></Line><Line><Value>Fringes (X-Range 6):</Value><Value></Value><Value>0.000100</Value><Value>0.000063</Value></Line></Matrix></MainReport></AB__Qtest><Data_Parameters_ScSm><parameter name="DPF">1</parameter><parameter name="NPT">1814</parameter><parameter name="FXV">3996.33169228125</parameter><parameter name="LXV">499.541461535156</parameter><parameter name="CSF">1</parameter><parameter name="MXY">0.285431444644928</parameter><parameter name="MNY">0.0375757738947868</parameter><parameter name="DAT">31/05/2022</parameter><parameter name="TIM">10:56:52.627 (GMT+2)</parameter><parameter name="DXU">WN</parameter></Data_Parameters_ScSm><Data_Parameters_ScRf><parameter name="DPF">1</parameter><parameter name="NPT">1820</parameter><parameter name="FXV">4004.04661832813</parameter><parameter name="LXV">495.683998511719</parameter><parameter name="CSF">1</parameter><parameter name="MXY">0.264886915683746</parameter><parameter name="MNY">0.030412970110774</parameter><parameter name="DAT">31/05/2022</parameter><parameter name="TIM">10:56:26.773 (GMT+2)</parameter><parameter name="DXU">WN</parameter></Data_Parameters_ScRf><Optic_Parameters_Rf><parameter name="APR">0</parameter><parameter name="APT">Open</parameter><parameter name="BMS">KBr</parameter><parameter name="DTC">RT-DLaTGS_IR-Biotyper [Microplate reader]</parameter><parameter name="HPF">0</parameter><parameter name="LPF">10.0</parameter><parameter name="LPV">4000</parameter><parameter name="PGR">0</parameter><parameter name="RCH">Module port</parameter><parameter name="RDX">0</parameter><parameter name="SRC">MIR</parameter><parameter name="VEL">10.0</parameter><parameter name="SON">Off</parameter></Optic_Parameters_Rf><Acquisition_Parameters_Rf><parameter name="ADT">1</parameter><parameter name="AQM">DD</parameter><parameter name="CFE">0</parameter><parameter name="COR">0</parameter><parameter name="DEL">0</parameter><parameter name="DLY">0</parameter><parameter name="HFW">8000</parameter><parameter name="LFW">0</parameter><parameter name="NSR">32</parameter><parameter name="PLF">AB</parameter><parameter name="RES">6</parameter><parameter name="RGN">-1</parameter><parameter name="STR">0</parameter><parameter name="TCL">MakeCompatibleScalar (0, {WSV=1.000000, ARV=0});</parameter><parameter name="TDL">37</parameter><parameter name="RPO">0</parameter></Acquisition_Parameters_Rf><FT_-_Parameters_Rf><parameter name="APF">B3</parameter><parameter name="HFQ">500</parameter><parameter name="LFQ">4000</parameter><parameter name="NLI">0</parameter><parameter name="PHR">24</parameter><parameter name="PHZ">ML</parameter><parameter name="SPZ">NO</parameter><parameter name="ZFF">1</parameter></FT_-_Parameters_Rf><Optic_Parameters_><parameter name="APR">0</parameter><parameter name="APT">Open</parameter><parameter name="BMS">KBr</parameter><parameter name="CHN">Module port</parameter><parameter name="DTC">RT-DLaTGS_IR-Biotyper [Microplate reader]</parameter><parameter name="HPF">0</parameter><parameter name="LPF">10.0</parameter><parameter name="LPV">4000</parameter><parameter name="PGN">0</parameter><parameter name="RDX">0</parameter><parameter name="SRC">MIR</parameter><parameter name="VEL">10.0</parameter><parameter name="SON">Off</parameter></Optic_Parameters_><FT_-_Parameters_><parameter name="APF">B3</parameter><parameter name="HFQ">500</parameter><parameter name="LFQ">4000</parameter><parameter name="NLI">0</parameter><parameter name="PHR">24</parameter><parameter name="PHZ">ML</parameter><parameter name="SPZ">NO</parameter><parameter name="ZFF">1</parameter></FT_-_Parameters_><Acquisition_Parameters_><parameter name="ADT">1</parameter><parameter name="AQM">DD</parameter><parameter name="CFE">0</parameter><parameter name="COR">0</parameter><parameter name="DEL">0</parameter><parameter name="DLY">0</parameter><parameter name="HFW">8000</parameter><parameter name="LFW">0</parameter><parameter name="NSS">32</parameter><parameter name="PLF">AB</parameter><parameter name="RES">6</parameter><parameter name="SOT">0</parameter><parameter name="TCL">MakeCompatibleScalar (0, {WSV=1.000000, ARV=0});</parameter><parameter name="TDL">37</parameter><parameter name="SPO">0</parameter><parameter name="SGN">-1</parameter></Acquisition_Parameters_><Instrument_Parameters_Rf><parameter name="HFL">15800.168544</parameter><parameter name="LFL">0</parameter><parameter name="LWN">15800.168544</parameter><parameter name="ABP">32197</parameter><parameter name="SSP">1</parameter><parameter name="ARG">2</parameter><parameter name="ASG">2</parameter><parameter name="ASS">32</parameter><parameter name="GFW">16</parameter><parameter name="GBW">16</parameter><parameter name="BFW">0</parameter><parameter name="BBW">0</parameter><parameter name="PKA">7269</parameter><parameter name="PKL">4996</parameter><parameter name="PRA">7450</parameter><parameter name="PRL">5001</parameter><parameter name="P2A">1</parameter><parameter name="P2L">1</parameter><parameter name="P2R">1</parameter><parameter name="P2K">1</parameter><parameter name="DAQ">0</parameter><parameter name="AG2">1</parameter><parameter name="SSM">1</parameter><parameter name="RSN">25387</parameter><parameter name="CRR">0</parameter><parameter name="SRT">1653994586.774</parameter><parameter name="DUR">19.6379852294922</parameter><parameter name="TSC">28.8</parameter><parameter name="MVD">0.236821383237839</parameter><parameter name="AN1">0.225841464701578</parameter><parameter name="AN2">0</parameter><parameter name="VSN">2.485 Apr  4 2017</parameter><parameter name="SRN">0085</parameter><parameter name="CAM">0</parameter><parameter name="INS">IR-Biotyper</parameter><parameter name="FOC">69</parameter><parameter name="RDY">1</parameter><parameter name="ARS">32</parameter></Instrument_Parameters_Rf><Sample_Parameters_><parameter name="BLD"></parameter><parameter name="CNM">Admin</parameter><parameter name="CPY"></parameter><parameter name="DPM"></parameter><parameter name="EXP">IRBT_v3_32Scans.XPM</parameter><parameter name="LCT"></parameter><parameter name="SFM">Microplate, HTS-XT</parameter><parameter name="SNM">220531-1021(v.3)_CLA33F (D_15)_C3_670a1ef3-b5ad-4463-8a84-2828479749ef.0</parameter><parameter name="XPP">C:\Users\Public\Documents\Bruker\OPUS_8.2.28\XPM</parameter><parameter name="IST">OK</parameter><parameter name="CPG">1252</parameter><parameter name="UID">67945229-2c59-4368-9929-8317480d7997</parameter></Sample_Parameters_><Instrument_Parameters_><parameter name="HFL">15800.168544</parameter><parameter name="LFL">0</parameter><parameter name="LWN">15800.168544</parameter><parameter name="ABP">32197</parameter><parameter name="SSP">1</parameter><parameter name="ASG">2</parameter><parameter name="ARG">2</parameter><parameter name="ASS">32</parameter><parameter name="GFW">16</parameter><parameter name="GBW">16</parameter><parameter name="BFW">0</parameter><parameter name="BBW">0</parameter><parameter name="PKA">8125</parameter><parameter name="PKL">4988</parameter><parameter name="PRA">8447</parameter><parameter name="PRL">4993</parameter><parameter name="P2A">1</parameter><parameter name="P2L">1</parameter><parameter name="P2R">1</parameter><parameter name="P2K">1</parameter><parameter name="DAQ">0</parameter><parameter name="AG2">1</parameter><parameter name="SSM">1</parameter><parameter name="RSN">13319</parameter><parameter name="CRR">0</parameter><parameter name="SRT">1653994612.627</parameter><parameter name="DUR">19.6369934082031</parameter><parameter name="TSC">28.8</parameter><parameter name="MVD">0.48067045211792</parameter><parameter name="AN1">0.225821004886434</parameter><parameter name="AN2">0</parameter><parameter name="VSN">2.485 Apr  4 2017</parameter><parameter name="SRN">0085</parameter><parameter name="CAM">0</parameter><parameter name="INS">IR-Biotyper</parameter><parameter name="FOC">69</parameter><parameter name="RDY">1</parameter></Instrument_Parameters_><History/></OPUSDataFile>
