<?xml version="1.0" encoding="UTF-8" ?>
<OPUSDataFile><AB><Ydata ylabel="Absorbance Units"><values byteorder="INTEL" format="FLOAT32" numvalues="3497"> -0.1072303 -0.1072784 -0.1073186 -0.1073515 -0.1073659 -0.1073612 -0.1073358 -0.1072906 -0.1072351 -0.1071718
 -0.1071185 -0.1070763 -0.1070591 -0.1070636 -0.1070898 -0.1071314 -0.107178 -0.1072272 -0.107271 -0.1073132
 -0.1073539 -0.1073963 -0.107443 -0.1074925 -0.1075448 -0.1075973 -0.1076492 -0.1076992 -0.1077475 -0.1077903
 -0.1078276 -0.1078526 -0.107865 -0.107864 -0.1078504 -0.1078361 -0.1078227 -0.1078263 -0.1078452 -0.1078832
 -0.1079348 -0.1079886 -0.1080408 -0.1080782 -0.1081043 -0.1081161 -0.1081226 -0.1081298 -0.1081433 -0.1081694
 -0.1082041 -0.1082495 -0.1082922 -0.1083299 -0.1083484 -0.1083437 -0.1083168 -0.1082658 -0.1082154 -0.1081666
 -0.10815 -0.1081651 -0.1082171 -0.108301 -0.1083873 -0.1084723 -0.1085245 -0.1085505 -0.1085481 -0.1085295
 -0.108515 -0.1085106 -0.1085339 -0.1085777 -0.108645 -0.1087182 -0.1087896 -0.1088436 -0.1088705 -0.1088715
 -0.108842 -0.1088029 -0.1087558 -0.1087266 -0.1087183 -0.1087461 -0.1088108 -0.1089105 -0.1090436 -0.1091907
 -0.1093482 -0.1094849 -0.1095977 -0.1096569 -0.1096674 -0.1096219 -0.1095348 -0.1094248 -0.1093068 -0.1092058
 -0.1091281 -0.1090899 -0.1090831 -0.1091107 -0.1091524 -0.1092005 -0.1092441 -0.1092759 -0.1093085 -0.1093426
 -0.1093918 -0.109459 -0.1095319 -0.1096102 -0.1096669 -0.1097021 -0.1097079 -0.1096879 -0.1096604 -0.1096284
 -0.109614 -0.1096154 -0.109641 -0.1096842 -0.1097382 -0.1097968 -0.1098485 -0.109894 -0.1099295 -0.1099579
 -0.1099803 -0.1099972 -0.1100075 -0.1100176 -0.1100265 -0.1100519 -0.1100962 -0.110176 -0.1102948 -0.1104414
 -0.1106158 -0.1107474 -0.110833 -0.1108062 -0.1106788 -0.1104952 -0.1102683 -0.1100734 -0.1099084 -0.1098062
 -0.1097594 -0.1097732 -0.1098319 -0.1099234 -0.1100229 -0.1101053 -0.1101594 -0.1101654 -0.110147 -0.1101062
 -0.1100737 -0.1100615 -0.1100694 -0.1101011 -0.1101376 -0.110177 -0.1102116 -0.1102406 -0.1102724 -0.1103072
 -0.1103525 -0.1104067 -0.1104642 -0.1105219 -0.1105653 -0.1105934 -0.1105948 -0.1105729 -0.1105264 -0.1104624
 -0.1103876 -0.1103118 -0.1102441 -0.1101951 -0.1101728 -0.1101848 -0.1102379 -0.1103272 -0.1104571 -0.1105983
 -0.1107497 -0.1108665 -0.1109434 -0.1109571 -0.1109056 -0.110809 -0.1106696 -0.110525 -0.1103752 -0.1102368
 -0.1101076 -0.1099862 -0.109875 -0.1097793 -0.1097044 -0.1096645 -0.1096562 -0.1096852 -0.1097347 -0.1097932
 -0.1098454 -0.1098759 -0.10989 -0.1098839 -0.1098753 -0.1098694 -0.1098729 -0.1098888 -0.1099104 -0.1099369
 -0.1099651 -0.1099945 -0.1100287 -0.1100674 -0.1101084 -0.1101505 -0.1101828 -0.1102052 -0.1102107 -0.1102037
 -0.1101908 -0.1101774 -0.1101774 -0.1101909 -0.1102254 -0.1102758 -0.1103398 -0.1104148 -0.1104969 -0.1105923
 -0.1107036 -0.1108322 -0.1109835 -0.1111332 -0.11128 -0.1113897 -0.1114571 -0.1114757 -0.1114444 -0.1113686
 -0.1112485 -0.1110831 -0.1108763 -0.1106523 -0.1104193 -0.1102237 -0.1100677 -0.1099844 -0.1099644 -0.1100114
 -0.1101015 -0.1102075 -0.110309 -0.110374 -0.1104106 -0.1104124 -0.1103981 -0.1103758 -0.1103502 -0.1103266
 -0.1102927 -0.1102474 -0.1101768 -0.1100778 -0.1099595 -0.1098219 -0.1096996 -0.1095942 -0.1095382 -0.10953
 -0.1095759 -0.1096666 -0.1097698 -0.1098714 -0.1099124 -0.1098984 -0.1098042 -0.1096617 -0.1095034 -0.1093466
 -0.109223 -0.1091202 -0.1090421 -0.1089667 -0.1088839 -0.1087873 -0.1086702 -0.1085466 -0.1084178 -0.1082972
 -0.1081872 -0.1080847 -0.1079899 -0.1078881 -0.1077789 -0.1076569 -0.1075245 -0.1073958 -0.1072716 -0.1071625
 -0.1070656 -0.1069774 -0.1068989 -0.1068301 -0.1067737 -0.1067363 -0.1067089 -0.1066908 -0.1066589 -0.1065987
 -0.1064973 -0.1063421 -0.1061449 -0.1059064 -0.105637 -0.1053391 -0.1050171 -0.1046708 -0.1043141 -0.1039476
 -0.1035878 -0.1032354 -0.1029045 -0.1025961 -0.1023254 -0.1020901 -0.1018927 -0.1017235 -0.1015574 -0.1013874
 -0.1011846 -0.1009579 -0.1007066 -0.1004401 -0.1001719 -0.09988881 -0.09958719 -0.09925438 -0.09887682 -0.09847965
 -0.09806551 -0.09766415 -0.0972837 -0.09692699 -0.09659615 -0.0962801 -0.09597819 -0.09568278 -0.09539393 -0.09511553
 -0.09484737 -0.09459303 -0.09434594 -0.09408341 -0.09379286 -0.09342184 -0.09297856 -0.09244198 -0.09185607 -0.09127212
 -0.09071429 -0.09023022 -0.08980194 -0.08943487 -0.08909925 -0.08878436 -0.08846753 -0.08813896 -0.08779258 -0.08742413
 -0.0870439 -0.08665288 -0.08625692 -0.08585696 -0.08543906 -0.0850024 -0.08452892 -0.08402061 -0.08348359 -0.08292281
 -0.08236289 -0.08180633 -0.08127207 -0.0807611 -0.08028449 -0.07984083 -0.07943619 -0.07905836 -0.07870136 -0.07834622
 -0.07797847 -0.07759003 -0.07717339 -0.0767289 -0.0762566 -0.07575057 -0.0752085 -0.07463337 -0.07402217 -0.07341186
 -0.07280438 -0.07224246 -0.0717269 -0.07126389 -0.07084988 -0.07046023 -0.07009109 -0.06971196 -0.06932346 -0.06890929
 -0.06847768 -0.0680363 -0.067593 -0.06716526 -0.06674565 -0.06633861 -0.06591976 -0.06547435 -0.06498788 -0.06444324
 -0.0638652 -0.06325333 -0.0626507 -0.06206696 -0.06152133 -0.06101955 -0.06054687 -0.06010327 -0.05965644 -0.05920517
 -0.05872966 -0.05823177 -0.05771817 -0.05719036 -0.05665987 -0.05612331 -0.0555757 -0.05501644 -0.05443854 -0.05385194
 -0.05326634 -0.05269196 -0.05214442 -0.05162034 -0.05112351 -0.05064423 -0.05017796 -0.04972279 -0.04927618 -0.04884369
 -0.04842651 -0.04802603 -0.0476438 -0.04726748 -0.04689672 -0.04650909 -0.0461038 -0.04566782 -0.04520339 -0.04472291
 -0.04422977 -0.04374751 -0.04327381 -0.04281558 -0.0423656 -0.04191146 -0.04145194 -0.04097663 -0.040497 -0.04001847
 -0.03955577 -0.03912311 -0.03871816 -0.03834852 -0.03798797 -0.03763169 -0.03725252 -0.03684165 -0.03639997 -0.03592455
 -0.03543966 -0.03494677 -0.03446686 -0.03400062 -0.03355492 -0.0331294 -0.03272439 -0.03233944 -0.03197343 -0.03162482
 -0.03128947 -0.03096433 -0.03064192 -0.03031911 -0.02998824 -0.02964863 -0.02929573 -0.02893383 -0.02856352 -0.02819149
 -0.02782088 -0.02745593 -0.02709818 -0.02675151 -0.02641637 -0.02609907 -0.02580088 -0.02552225 -0.02526387 -0.02501056
 -0.02476123 -0.02449105 -0.02419969 -0.02387181 -0.02351151 -0.02312751 -0.02272786 -0.02234088 -0.02197097 -0.02164335
 -0.0213506 -0.02109475 -0.02086293 -0.02064128 -0.02042816 -0.02021643 -0.02001425 -0.01982598 -0.01964818 -0.01948323
 -0.0193147 -0.01913907 -0.0189485 -0.01874037 -0.01852292 -0.0182965 -0.01807037 -0.01784481 -0.01762136 -0.0173995
 -0.01717597 -0.0169494 -0.01671198 -0.01646249 -0.01619156 -0.0159029 -0.01559702 -0.01528429 -0.01497869 -0.01468988
 -0.01443378 -0.01421049 -0.01402726 -0.01387303 -0.01374606 -0.01363129 -0.01352358 -0.01341388 -0.01329875 -0.01317837
 -0.01305215 -0.01292328 -0.01279204 -0.01265849 -0.01252262 -0.01238326 -0.01224058 -0.01209528 -0.01194802 -0.01180173
 -0.01165815 -0.01152352 -0.01140021 -0.01129745 -0.01121265 -0.01114934 -0.01109485 -0.01103944 -0.01096911 -0.01086769
 -0.0107408 -0.01058141 -0.01041968 -0.01026269 -0.01013711 -0.01005336 -0.01000361 -0.009990474 -0.009981578 -0.009974167
 -0.009953225 -0.00991875 -0.009892014 -0.009874896 -0.009895448 -0.009950519 -0.01004123 -0.0101597 -0.01028257 -0.01040445
 -0.01050166 -0.01057633 -0.01061973 -0.01064078 -0.01064448 -0.01064027 -0.01063806 -0.01063658 -0.01064094 -0.01063511
 -0.01061505 -0.01056845 -0.01048828 -0.010391 -0.01027474 -0.01018375 -0.01012127 -0.01012359 -0.01019177 -0.01031923
 -0.01050183 -0.01069676 -0.01090165 -0.0110805 -0.01123823 -0.01137159 -0.01148515 -0.01158921 -0.01168002 -0.01175578
 -0.0118148 -0.01185045 -0.01187576 -0.01189626 -0.01192689 -0.01197963 -0.01204882 -0.01213822 -0.01222602 -0.01230758
 -0.01237081 -0.0124116 -0.01244074 -0.01245801 -0.01248789 -0.01253165 -0.01261309 -0.01273214 -0.01289933 -0.01311023
 -0.01335109 -0.01361239 -0.0138582 -0.01407999 -0.01423924 -0.01434092 -0.01436935 -0.01435085 -0.01430192 -0.01425738
 -0.01424957 -0.01428908 -0.0143972 -0.01454221 -0.01472252 -0.01489121 -0.01503625 -0.01513694 -0.01518701 -0.01519395
 -0.01515793 -0.01508443 -0.01497363 -0.01482211 -0.01463199 -0.01442029 -0.01419527 -0.01400812 -0.01386509 -0.01381817
 -0.01385628 -0.0139878 -0.01418249 -0.01440107 -0.01461575 -0.01477809 -0.01489061 -0.01493224 -0.01493986 -0.01492243
 -0.01492252 -0.0149579 -0.01504598 -0.01519688 -0.01539738 -0.01564861 -0.01592355 -0.01622027 -0.01651556 -0.01680823
 -0.01708364 -0.01734131 -0.01757091 -0.01777206 -0.0179368 -0.01806583 -0.01815608 -0.01821099 -0.01823349 -0.0182344
 -0.01822604 -0.01823124 -0.01827534 -0.01838284 -0.01858404 -0.01887468 -0.01927047 -0.01972264 -0.02022349 -0.02071168
 -0.0211699 -0.02157355 -0.02191374 -0.022207 -0.02245331 -0.02267903 -0.02288551 -0.0230927 -0.02330104 -0.02352342
 -0.02375739 -0.02399834 -0.02424093 -0.02446264 -0.0246661 -0.02484098 -0.02500486 -0.02517932 -0.02537964 -0.02563571
 -0.02593709 -0.02629235 -0.0266662 -0.02704617 -0.02739603 -0.02769926 -0.02794177 -0.02811255 -0.02823595 -0.02830957
 -0.02839256 -0.02848931 -0.0286536 -0.02888789 -0.02919309 -0.02956468 -0.02995276 -0.03035329 -0.03071655 -0.03104748
 -0.03133472 -0.03158819 -0.03182505 -0.03205011 -0.0322797 -0.03251085 -0.03274656 -0.03298295 -0.03321658 -0.03344977
 -0.03368203 -0.0339187 -0.03416262 -0.03441202 -0.0346681 -0.03492185 -0.03517173 -0.03541447 -0.03564906 -0.03588418
 -0.0361203 -0.03636884 -0.0366297 -0.03690576 -0.03719517 -0.03749009 -0.03778753 -0.03807321 -0.03834583 -0.03859346
 -0.03882152 -0.03903074 -0.0392333 -0.03944224 -0.03966724 -0.03992211 -0.04020287 -0.04051422 -0.0408387 -0.04117237
 -0.04149742 -0.04180783 -0.0420998 -0.04237058 -0.04263143 -0.04288286 -0.04313783 -0.043397 -0.04366392 -0.04393812
 -0.04421519 -0.04449461 -0.0447714 -0.04504537 -0.04531325 -0.0455751 -0.04582896 -0.04607613 -0.04631704 -0.04655483
 -0.04679271 -0.04703411 -0.04728372 -0.0475396 -0.04780518 -0.04806568 -0.04831878 -0.04854362 -0.0487321 -0.04888638
 -0.04900084 -0.04912035 -0.04924723 -0.04943717 -0.0496931 -0.05002253 -0.05042072 -0.05083196 -0.05124976 -0.05160537
 -0.05190367 -0.05212011 -0.05227398 -0.05239481 -0.05250407 -0.05265161 -0.0528414 -0.05310346 -0.05341377 -0.05376834
 -0.05413058 -0.05447787 -0.0547968 -0.05507272 -0.05532516 -0.05555657 -0.05578193 -0.05600782 -0.05621032 -0.05638907
 -0.05650379 -0.05655235 -0.05653432 -0.05645439 -0.056371 -0.05629127 -0.05628921 -0.05636138 -0.05654022 -0.05680687
 -0.05713625 -0.05750648 -0.05786861 -0.05821787 -0.0585259 -0.05880843 -0.05906868 -0.05932025 -0.05957532 -0.05982564
 -0.06007236 -0.06030038 -0.0605033 -0.06068818 -0.06085333 -0.0610219 -0.06119683 -0.06138147 -0.06157616 -0.06175514
 -0.06191728 -0.06203975 -0.06212591 -0.06218319 -0.06221724 -0.06225304 -0.06229108 -0.06234608 -0.0624131 -0.06248945
 -0.06257393 -0.06266081 -0.0627604 -0.06287619 -0.06302544 -0.06321952 -0.06346449 -0.06376995 -0.0641152 -0.06450151
 -0.06488605 -0.06526329 -0.06559484 -0.06587498 -0.06609982 -0.0662688 -0.06641904 -0.06655338 -0.06672046 -0.06691877
 -0.06716692 -0.06745546 -0.06776121 -0.06807476 -0.06835996 -0.0686185 -0.06883457 -0.06901972 -0.06918048 -0.06932812
 -0.06947448 -0.06962331 -0.06978159 -0.06994288 -0.0701085 -0.07026275 -0.0704019 -0.07051505 -0.07059687 -0.07066503
 -0.07071872 -0.07080207 -0.07091757 -0.07109234 -0.07132424 -0.07158886 -0.07188053 -0.07214927 -0.07239804 -0.07260787
 -0.07279237 -0.07297644 -0.07316681 -0.07339074 -0.0736359 -0.07390061 -0.07416672 -0.07441698 -0.07464707 -0.0748482
 -0.0750275 -0.07518692 -0.07532731 -0.07545082 -0.07554818 -0.07561754 -0.07565628 -0.07566231 -0.07565659 -0.0756401
 -0.0756539 -0.07569965 -0.07581099 -0.07598424 -0.07621627 -0.07649668 -0.07678629 -0.07707609 -0.07732285 -0.07752769
 -0.07767124 -0.0777631 -0.07780635 -0.07781116 -0.07778635 -0.07773963 -0.07767689 -0.07760466 -0.077526 -0.0774472
 -0.07737005 -0.07730023 -0.07723919 -0.07718894 -0.07715082 -0.07711315 -0.0770755 -0.07700872 -0.07691137 -0.0767552
 -0.07654285 -0.07627475 -0.07595909 -0.07562644 -0.07528316 -0.0749616 -0.07466029 -0.0743917 -0.07415135 -0.07393795
 -0.07375017 -0.07358725 -0.07344603 -0.07332723 -0.07321853 -0.07311642 -0.07300768 -0.07288589 -0.07275594 -0.07261503
 -0.07248919 -0.0723804 -0.07231379 -0.07229117 -0.07231217 -0.0723752 -0.07245469 -0.07254909 -0.07263426 -0.07271346
 -0.0727863 -0.07285657 -0.07293636 -0.07302038 -0.07310717 -0.07318519 -0.07323731 -0.0732641 -0.07325556 -0.07323055
 -0.07319671 -0.07316945 -0.07316041 -0.07316046 -0.07317172 -0.07317211 -0.07315721 -0.07311894 -0.07305472 -0.07297695
 -0.07288608 -0.07280439 -0.07273332 -0.07269765 -0.07269861 -0.07275794 -0.07287339 -0.07305055 -0.07328085 -0.07354695
 -0.07383873 -0.0741292 -0.0744172 -0.07468686 -0.07495182 -0.07521436 -0.07549862 -0.07581726 -0.07619268 -0.07663824
 -0.07715905 -0.07776364 -0.07842731 -0.07915162 -0.07988382 -0.08062011 -0.08130264 -0.08192744 -0.08246606 -0.08291951
 -0.08330379 -0.08362319 -0.08391494 -0.0841797 -0.08444058 -0.08469377 -0.08493984 -0.08517838 -0.08540704 -0.0856313
 -0.08585767 -0.08608804 -0.08632884 -0.08657158 -0.08681421 -0.08704589 -0.08726117 -0.08745632 -0.08762883 -0.08778007
 -0.08791005 -0.08801951 -0.08810874 -0.08817583 -0.0882207 -0.088239 -0.08823087 -0.08819653 -0.08813924 -0.08807946
 -0.08802444 -0.08801486 -0.08805348 -0.08817266 -0.08836008 -0.08861286 -0.08890779 -0.08921529 -0.08951834 -0.08978981
 -0.09003063 -0.09023156 -0.09040599 -0.09055684 -0.09069626 -0.09082909 -0.09095734 -0.09108264 -0.09120073 -0.09131066
 -0.09141637 -0.09151767 -0.09163788 -0.09177885 -0.09197589 -0.09222938 -0.09256213 -0.09296715 -0.09343223 -0.09394265
 -0.0944544 -0.09495611 -0.09540314 -0.09580213 -0.09613863 -0.09643658 -0.09671103 -0.0969824 -0.09727046 -0.0975733
 -0.09789766 -0.0982256 -0.09855381 -0.09886702 -0.0991613 -0.09943233 -0.09967884 -0.09990337 -0.100106 -0.1002913
 -0.10046 -0.1006191 -0.1007697 -0.1009215 -0.1010749 -0.1012376 -0.1014062 -0.1015776 -0.1017454 -0.1018953
 -0.102026 -0.102126 -0.1022076 -0.1022748 -0.1023464 -0.1024368 -0.1025497 -0.1026947 -0.1028501 -0.1030139
 -0.1031575 -0.1032736 -0.103354 -0.1033948 -0.1034159 -0.103418 -0.1034293 -0.1034505 -0.1034919 -0.1035514
 -0.1036171 -0.1036878 -0.1037501 -0.1038088 -0.1038694 -0.1039389 -0.1040351 -0.1041556 -0.1043083 -0.1044777
 -0.1046544 -0.1048211 -0.1049633 -0.1050758 -0.1051508 -0.1051967 -0.1052125 -0.1052149 -0.1052053 -0.1052044
 -0.1052146 -0.1052508 -0.1053147 -0.1054039 -0.1055177 -0.1056389 -0.1057667 -0.1058862 -0.1059987 -0.1061018
 -0.1061964 -0.1062846 -0.1063644 -0.1064329 -0.1064889 -0.1065282 -0.1065546 -0.1065692 -0.1065775 -0.1065842
 -0.1065897 -0.1065956 -0.1065993 -0.1065989 -0.1065994 -0.1066 -0.1066147 -0.1066452 -0.1066993 -0.1067781
 -0.1068708 -0.1069766 -0.1070741 -0.1071629 -0.10723 -0.1072777 -0.1073094 -0.1073288 -0.1073486 -0.10737
 -0.1074028 -0.1074427 -0.1074895 -0.1075352 -0.1075714 -0.1075953 -0.1075995 -0.1075941 -0.1075794 -0.107573
 -0.1075805 -0.1076104 -0.1076673 -0.1077424 -0.1078359 -0.107931 -0.1080267 -0.1081121 -0.1081873 -0.1082525
 -0.1083082 -0.1083594 -0.1084064 -0.1084529 -0.1084994 -0.1085493 -0.1086021 -0.10866 -0.1087198 -0.1087785
 -0.1088322 -0.1088745 -0.1089081 -0.1089305 -0.108952 -0.1089766 -0.1090109 -0.1090595 -0.109117 -0.109184
 -0.109251 -0.1093166 -0.1093772 -0.1094325 -0.1094846 -0.1095336 -0.1095802 -0.1096237 -0.1096596 -0.1096872
 -0.1097006 -0.1097018 -0.1096915 -0.1096752 -0.1096632 -0.1096601 -0.1096778 -0.1097144 -0.109774 -0.1098498
 -0.1099391 -0.1100355 -0.1101362 -0.110235 -0.1103306 -0.1104155 -0.1104883 -0.1105443 -0.1105823 -0.1106056
 -0.1106143 -0.1106163 -0.1106121 -0.110609 -0.1106073 -0.1106114 -0.1106209 -0.1106365 -0.1106574 -0.1106815
 -0.1107084 -0.110736 -0.1107654 -0.1107969 -0.110831 -0.1108686 -0.1109084 -0.1109502 -0.110991 -0.1110296
 -0.111063 -0.1110895 -0.1111105 -0.1111253 -0.111141 -0.1111585 -0.1111841 -0.1112186 -0.1112582 -0.1113024
 -0.111341 -0.111374 -0.1113972 -0.1114123 -0.1114252 -0.111437 -0.1114546 -0.1114766 -0.1115041 -0.1115346
 -0.1115648 -0.1115937 -0.1116187 -0.1116415 -0.1116621 -0.1116841 -0.1117092 -0.1117388 -0.1117743 -0.1118128
 -0.111854 -0.1118932 -0.1119296 -0.1119603 -0.111985 -0.1120044 -0.1120187 -0.1120333 -0.1120488 -0.1120736
 -0.1121074 -0.1121534 -0.1122083 -0.1122642 -0.1123173 -0.1123547 -0.112378 -0.1123823 -0.112376 -0.1123651
 -0.1123573 -0.1123612 -0.1123758 -0.1124042 -0.1124386 -0.1124774 -0.1125135 -0.1125449 -0.1125714 -0.1125926
 -0.1126121 -0.1126301 -0.112649 -0.1126685 -0.1126866 -0.1127032 -0.112715 -0.1127228 -0.112727 -0.1127291
 -0.1127336 -0.1127413 -0.1127561 -0.112776 -0.1128006 -0.1128276 -0.1128541 -0.1128801 -0.1129048 -0.1129296
 -0.1129555 -0.112982 -0.1130094 -0.1130352 -0.1130589 -0.113078 -0.1130922 -0.1130992 -0.1130986 -0.1130895
 -0.1130721 -0.1130519 -0.1130301 -0.113019 -0.1130184 -0.113036 -0.1130682 -0.113109 -0.1131536 -0.1131889
 -0.1132151 -0.1132255 -0.1132264 -0.1132216 -0.1132163 -0.1132168 -0.1132207 -0.1132297 -0.113236 -0.1132369
 -0.1132302 -0.1132137 -0.1131951 -0.1131747 -0.1131622 -0.1131588 -0.1131649 -0.1131803 -0.1131977 -0.1132168
 -0.1132319 -0.1132438 -0.1132531 -0.1132606 -0.1132687 -0.1132773 -0.1132866 -0.1132969 -0.1133085 -0.1133227
 -0.1133411 -0.1133634 -0.1133908 -0.1134184 -0.1134446 -0.1134652 -0.1134776 -0.1134842 -0.1134841 -0.1134848
 -0.1134871 -0.1134957 -0.1135113 -0.1135325 -0.1135592 -0.1135867 -0.1136147 -0.1136386 -0.1136582 -0.1136703
 -0.1136753 -0.1136727 -0.1136638 -0.1136512 -0.1136366 -0.1136238 -0.113614 -0.1136098 -0.1136109 -0.1136183
 -0.1136295 -0.1136441 -0.1136592 -0.1136736 -0.1136872 -0.1136994 -0.113713 -0.1137284 -0.1137469 -0.1137688
 -0.1137914 -0.1138144 -0.1138344 -0.1138513 -0.113864 -0.1138727 -0.1138782 -0.113881 -0.1138826 -0.1138845
 -0.1138903 -0.1139009 -0.1139207 -0.1139466 -0.1139783 -0.1140082 -0.1140303 -0.1140404 -0.1140331 -0.114015
 -0.113986 -0.1139578 -0.1139334 -0.1139174 -0.1139117 -0.1139109 -0.1139149 -0.1139175 -0.1139185 -0.113916
 -0.1139102 -0.1139016 -0.1138901 -0.113875 -0.1138564 -0.1138335 -0.1138076 -0.1137801 -0.1137536 -0.1137328
 -0.1137192 -0.1137173 -0.1137235 -0.1137381 -0.1137524 -0.113762 -0.113761 -0.1137449 -0.1137185 -0.1136808
 -0.1136447 -0.1136117 -0.113591 -0.1135838 -0.1135878 -0.1136029 -0.1136192 -0.1136364 -0.1136472 -0.1136524
 -0.113652 -0.1136468 -0.1136397 -0.1136303 -0.1136192 -0.1136058 -0.113589 -0.1135703 -0.1135503 -0.1135312
 -0.1135149 -0.1135012 -0.113491 -0.1134816 -0.1134725 -0.1134615 -0.1134481 -0.1134327 -0.1134153 -0.1133982
 -0.1133816 -0.1133666 -0.1133534 -0.1133411 -0.1133297 -0.1133197 -0.1133117 -0.1133097 -0.113315 -0.1133337
 -0.1133662 -0.1134168 -0.1134849 -0.1135716 -0.1136757 -0.1137962 -0.1139343 -0.1140888 -0.1142664 -0.1144681
 -0.1147067 -0.1149864 -0.1153174 -0.1157037 -0.1161441 -0.1166404 -0.117178 -0.1177571 -0.1183469 -0.1189455
 -0.1194951 -0.1199913 -0.1203646 -0.1206146 -0.1207011 -0.1206318 -0.1204075 -0.120042 -0.1195575 -0.1189854
 -0.1183785 -0.1177739 -0.1172356 -0.1167688 -0.1164009 -0.1161147 -0.1159074 -0.1157682 -0.1156913 -0.1156769
 -0.1157261 -0.1158293 -0.1159899 -0.1161616 -0.1163419 -0.1164741 -0.1165554 -0.1165742 -0.1165333 -0.116462
 -0.1163633 -0.1162707 -0.1161801 -0.1160976 -0.1160137 -0.1159076 -0.1157782 -0.1156106 -0.1154167 -0.1152032
 -0.1149805 -0.1147597 -0.1145413 -0.1143288 -0.1141194 -0.1139125 -0.1137067 -0.1135014 -0.1132973 -0.1130938
 -0.1128968 -0.1127062 -0.1125307 -0.1123706 -0.1122277 -0.1121015 -0.1119861 -0.1118814 -0.111783 -0.1116915
 -0.1116069 -0.1115289 -0.111457 -0.1113892 -0.1113225 -0.111256 -0.111187 -0.1111155 -0.1110404 -0.1109619
 -0.1108797 -0.1107958 -0.1107105 -0.1106282 -0.1105498 -0.1104783 -0.1104146 -0.1103577 -0.1103078 -0.1102617
 -0.1102191 -0.1101773 -0.1101362 -0.1100949 -0.1100537 -0.1100137 -0.109975 -0.1099389 -0.1099053 -0.1098744
 -0.1098458 -0.109819 -0.1097935 -0.1097689 -0.1097444 -0.1097191 -0.1096916 -0.1096612 -0.1096268 -0.109588
 -0.1095446 -0.1094965 -0.1094446 -0.1093885 -0.1093315 -0.1092736 -0.109219 -0.109168 -0.1091225 -0.1090826
 -0.1090466 -0.1090143 -0.1089826 -0.1089512 -0.1089169 -0.1088794 -0.1088363 -0.1087882 -0.108735 -0.1086785
 -0.1086209 -0.1085634 -0.1085077 -0.1084534 -0.1084008 -0.1083492 -0.1082985 -0.1082488 -0.1082003 -0.1081521
 -0.1081042 -0.1080551 -0.1080046 -0.1079529 -0.1079 -0.1078486 -0.1077987 -0.107753 -0.107711 -0.1076729
 -0.1076381 -0.1076044 -0.1075717 -0.1075381 -0.1075047 -0.107472 -0.1074417 -0.1074164 -0.1073961 -0.1073826
 -0.1073727 -0.1073659 -0.1073563 -0.1073418 -0.1073188 -0.1072853 -0.1072429 -0.1071912 -0.1071359 -0.1070774
 -0.1070213 -0.1069678 -0.1069187 -0.106874 -0.1068319 -0.1067922 -0.1067519 -0.1067114 -0.1066693 -0.1066273
 -0.1065877 -0.1065525 -0.1065262 -0.1065075 -0.1064982 -0.1064928 -0.1064877 -0.1064781 -0.1064593 -0.1064332
 -0.1063986 -0.1063618 -0.1063245 -0.1062899 -0.1062592 -0.1062301 -0.1062024 -0.1061738 -0.1061443 -0.1061149
 -0.1060857 -0.1060581 -0.1060318 -0.1060047 -0.1059765 -0.105944 -0.1059079 -0.1058683 -0.1058263 -0.1057844
 -0.1057427 -0.1057025 -0.1056634 -0.1056251 -0.1055882 -0.1055532 -0.1055208 -0.105492 -0.1054649 -0.1054394
 -0.1054116 -0.1053806 -0.1053452 -0.1053049 -0.1052629 -0.1052191 -0.1051772 -0.1051369 -0.1050986 -0.1050622
 -0.1050264 -0.1049912 -0.1049562 -0.1049215 -0.1048867 -0.1048516 -0.1048157 -0.1047793 -0.1047425 -0.1047064
 -0.104672 -0.1046396 -0.1046101 -0.1045826 -0.1045568 -0.1045319 -0.1045076 -0.1044828 -0.1044572 -0.1044294
 -0.1043991 -0.1043658 -0.1043294 -0.1042927 -0.1042557 -0.1042213 -0.104189 -0.1041575 -0.104126 -0.1040898
 -0.1040492 -0.1040013 -0.1039478 -0.1038901 -0.1038306 -0.1037725 -0.1037181 -0.1036703 -0.1036303 -0.1035999
 -0.1035777 -0.1035643 -0.1035552 -0.1035498 -0.1035421 -0.1035309 -0.1035135 -0.1034892 -0.1034603 -0.1034268
 -0.1033938 -0.1033614 -0.1033332 -0.1033092 -0.1032899 -0.1032743 -0.1032593 -0.1032428 -0.1032182 -0.1031843
 -0.1031347 -0.1030726 -0.1029978 -0.1029185 -0.102841 -0.1027715 -0.1027163 -0.1026735 -0.1026447 -0.1026232
 -0.1026075 -0.102594 -0.1025818 -0.1025711 -0.102562 -0.1025522 -0.1025418 -0.1025239 -0.1024982 -0.1024597
 -0.1024095 -0.1023514 -0.1022871 -0.1022261 -0.1021688 -0.1021211 -0.1020811 -0.1020479 -0.1020195 -0.101993
 -0.101967 -0.1019397 -0.1019099 -0.1018761 -0.1018393 -0.1017987 -0.1017592 -0.1017217 -0.1016904 -0.1016666
 -0.101648 -0.1016348 -0.1016206 -0.101605 -0.1015827 -0.1015537 -0.1015166 -0.1014721 -0.1014241 -0.1013741
 -0.1013306 -0.1012934 -0.101268 -0.1012505 -0.1012373 -0.1012238 -0.1012019 -0.101171 -0.1011268 -0.101074
 -0.1010132 -0.1009517 -0.100892 -0.1008404 -0.1007998 -0.1007691 -0.1007499 -0.1007323 -0.1007157 -0.10069
 -0.1006545 -0.100609 -0.1005538 -0.1004963 -0.1004369 -0.1003811 -0.1003286 -0.1002812 -0.1002388 -0.1002021
 -0.1001705 -0.1001439 -0.1001194 -0.100094 -0.1000643 -0.1000256 -0.0999784 -0.09992001 -0.09985757 -0.09979261
 -0.09973355 -0.09968387 -0.09964388 -0.09961536 -0.09958855 -0.09956277 -0.09952825 -0.09948421 -0.09942892 -0.09936263
 -0.09929008 -0.09921195 -0.0991351 -0.09906024 -0.09899426 -0.0989366 -0.09889024 -0.09885199 -0.09881797 -0.09878439
 -0.09874415 -0.09869751 -0.09864096 -0.09858002 -0.0985167 -0.09845626 -0.0984026 -0.09835328 -0.0983097 -0.09826203
 -0.09820853 -0.09814342 -0.09806506 -0.09797968 -0.09788745 -0.09779995 -0.0977175 -0.09764566 -0.09758385 -0.09753079
 -0.09748555 -0.09744403 -0.0974049 -0.09736259 -0.09731637 -0.09726126 -0.09720007 -0.0971337 -0.09706654 -0.09700383
 -0.09694479 -0.09689184 -0.0968384 -0.09678189 -0.09671926 -0.09664803 -0.09657279 -0.09649391 -0.0964159 -0.09633962
 -0.09626411 -0.09618939 -0.09611285 -0.0960346 -0.0959571 -0.09588116 -0.09581438 -0.09575671 -0.09571297 -0.09568029
 -0.09565416 -0.09563013 -0.09559753 -0.09555475 -0.09549419 -0.09541957 -0.09533053 -0.09523417 -0.09513422 -0.09503727
 -0.09494739 -0.09486634 -0.09479638 -0.09473269 -0.0946753 -0.09461615 -0.09455413 -0.09448569 -0.09441036 -0.09433212
 -0.09425125 -0.09417365 -0.09409913 -0.09402929 -0.09396299 -0.09389635 -0.09382845 -0.09375417 -0.09367488 -0.0935902
 -0.09350307 -0.09341799 -0.0933345 -0.09325527 -0.09317442 -0.09308891 -0.09299503 -0.0928885 -0.09277612 -0.09265772
 -0.09254557 -0.09244234 -0.09235372 -0.09228152 -0.09221924 -0.09216677 -0.09211104 -0.0920516 -0.09198078 -0.09189973
 -0.09181356 -0.0917239 -0.09164125 -0.09156434 -0.09149636 -0.09143246 -0.09136484 -0.09129041 -0.0912002 -0.09109824
 -0.090984 -0.09086505 -0.09074619 -0.09063163 -0.09052521 -0.09042499 -0.09033198 -0.09023979 -0.09014736 -0.09004999
 -0.08994646 -0.08983974 -0.0897298 -0.08962503 -0.08952575 -0.08943752 -0.08935954 -0.0892885 -0.08922227 -0.08914969
 -0.08907001 -0.08897388 -0.08886528 -0.08874658 -0.08862372 -0.08850648 -0.08839609 -0.08829817 -0.08820884 -0.08812813
 -0.08804947 -0.08797064 -0.08788468 -0.08778886 -0.08768016 -0.08755673 -0.087423 -0.08727891 -0.08713244 -0.08698425
 -0.08683725 -0.08669143 -0.08654439 -0.08639607 -0.08624451 -0.08609043 -0.08593541 -0.08578119 -0.08563342 -0.08549358
 -0.08536848 -0.08525516 -0.08515427 -0.08505743 -0.08495684 -0.08484745 -0.08472133 -0.08458523 -0.08443876 -0.0842941
 -0.08415532 -0.08402791 -0.08391462 -0.08381113 -0.08371799 -0.08362355 -0.08352709 -0.08341727 -0.08329372 -0.08315215
 -0.08299293 -0.08281709 -0.08262539 -0.08242096 -0.08220589 -0.08198732 -0.08176775 -0.08155631 -0.0813519 -0.08115784
 -0.08096938 -0.08078293 -0.08059578 -0.08040375 -0.0802106 -0.08001646 -0.07982682 -0.07964409 -0.07946824 -0.07930082
 -0.07913342 -0.07896601 -0.07878345 -0.07858448 -0.07836118 -0.07811385 -0.07785696 -0.07759182 -0.07733709 -0.07709071
 -0.07685361 -0.07662205 -0.07638497 -0.07614157 -0.07588381 -0.07561545 -0.07533732 -0.0750557 -0.07477676 -0.07450511
 -0.07424745 -0.07399908 -0.0737626 -0.07352066 -0.0732688 -0.07299297 -0.07268699 -0.0723602 -0.07201219 -0.07165994
 -0.07130501 -0.07095055 -0.07059675 -0.07024534 -0.06989712 -0.06956161 -0.06923714 -0.0689235 -0.06861293 -0.06828262
 -0.06792606 -0.0675149 -0.06705853 -0.06655462 -0.06602328 -0.06548531 -0.06494728 -0.06442162 -0.06390268 -0.06339025
 -0.06288132 -0.06237458 -0.06187027 -0.06137046 -0.06086178 -0.06034565 -0.05978215 -0.05916808 -0.05847756 -0.05771123
 -0.05691906 -0.056105 -0.05532988 -0.05458589 -0.05386761 -0.05316564 -0.05244737 -0.05171256 -0.05094556 -0.05014858
 -0.04932265 -0.04845705 -0.04754734 -0.04656711 -0.04549511 -0.04432198 -0.04302458 -0.04165718 -0.04022394 -0.03880709
 -0.03742807 -0.03611584 -0.03487995 -0.03370321 -0.03258578 -0.03149815 -0.03043814 -0.02935523 -0.02824409 -0.02702715
 -0.02571293 -0.02428745 -0.02279117 -0.02134955 -0.01996979 -0.0187412 -0.01761665 -0.01656392 -0.01554986 -0.01452366
 -0.01348797 -0.01242928 -0.01135694 -0.01027497 -0.009178759 -0.00806339 -0.006945958 -0.005825409 -0.004740468 -0.003698407
 -0.002703283 -0.001756662 -0.0008411122 4.338853E-05 0.0008778309 0.001659759 0.002354147 0.002966609 0.003503721 0.003978182
 0.004435083 0.004876327 0.005334986 0.005788045 0.006213904 0.006600507 0.006920262 0.007192838 0.007423909 0.007628773
 0.007820163 0.007990051 0.008141059 0.008252561 0.008321497 0.008327891 0.008268513 0.008130715 0.007911911 0.007630801
 0.007289017 0.006940858 0.006586954 0.006255724 0.00594173 0.005630976 0.005322176 0.00500097 0.004676378 0.004358674
 0.004060435 0.003807166 0.00359831 0.003444602 0.003336225 0.00326636 0.003238685 0.003250768 0.003316705 0.003443191
 0.003627106 0.003871105 0.004157003 0.004482135 0.004838585 0.005225277 0.005642449 0.006089998 0.006564105 0.007064362
 0.007585565 0.008127056 0.008683522 0.009253135 0.00982667 0.01040442 0.01098118 0.01156154 0.01215071 0.01275045
 0.01336608 0.013993 0.01462897 0.01527247 0.01592105 0.01657894 0.01724732 0.01792832 0.0186238 0.01932779
 0.020041 0.02074687 0.02144442 0.02211409 0.02275516 0.02336781 0.02395399 0.02453686 0.02511357 0.02568551
 0.02623971 0.02673294 0.027161 0.02749156 0.02773201 0.0278815 0.02794196 0.02791387 0.0278023 0.02761032
 0.02734406 0.02701802 0.0265929 0.02607358 0.02535619 0.02440984 0.02321152 0.02172923 0.02019011 0.01861221
 0.01713972 0.01577765 0.01442768 0.01308451 0.01165618 0.0101516 0.008571077 0.006924652 0.005252046 0.003540591
 0.001790819 -3.433351E-05 -0.00200822 -0.004105196 -0.006370216 -0.008632378 -0.01077008 -0.01270622 -0.01433382 -0.01577885
 -0.01706116 -0.01828554 -0.01948895 -0.02067254 -0.02184411 -0.02296724 -0.02403785 -0.02505802 -0.02602811 -0.02698423
 -0.02792715 -0.02887931 -0.029836 -0.03078461 -0.03171852 -0.03260771 -0.03345281 -0.03423794 -0.03497314 -0.03566528
 -0.03632727 -0.03697353 -0.03761798 -0.03827178 -0.03895466 -0.03968178 -0.04045542 -0.04129653 -0.04212183 -0.04292253
 -0.04359433 -0.04410924 -0.04450412 -0.04477661 -0.04501893 -0.04523549 -0.04546748 -0.04571282 -0.04596078 -0.04620857
 -0.04643412 -0.04664075 -0.04682913 -0.047001 -0.0471641 -0.04730953 -0.0474278 -0.04750896 -0.04753506 -0.04751224
 -0.04743673 -0.04732456 -0.04718311 -0.04702261 -0.04684958 -0.04666284 -0.04646589 -0.04624121 -0.04598959 -0.04567245
 -0.04528635 -0.04480171 -0.0442174 -0.04357813 -0.04289007 -0.04224286 -0.04163457 -0.04110126 -0.04063407 -0.0402205
 -0.03985797 -0.03953494 -0.03925149 -0.03900691 -0.0387901 -0.0385946 -0.03839367 -0.03816462 -0.03789253 -0.03755437
 -0.03718241 -0.03678159 -0.03638488 -0.03600581 -0.03563472 -0.03527355 -0.03489815 -0.03450584 -0.03409027 -0.03365112
 -0.03320576 -0.03275486 -0.03231376 -0.03187878 -0.03143927 -0.03098697 -0.03048806 -0.02993731 -0.02930229 -0.0285921
 -0.0278057 -0.02695566 -0.02605998 -0.02511261 -0.02411576 -0.02305909 -0.02193254 -0.02074996 -0.01951016 -0.01824313
 -0.01695799 -0.01566203 -0.01436069 -0.01302881 -0.0116637 -0.01025624 -0.008806073 -0.007378644 -0.00598035 -0.004711212
 -0.003570686 -0.002605911 -0.001812372 -0.00119522 -0.0007606507 -0.0005237181 -0.0004954969 -0.0007045211 -0.001145352 -0.001830275
 -0.002728586 -0.003825489 -0.005082216 -0.006474379 -0.007979995 -0.009585851 -0.01128369 -0.01307533 -0.01492375 -0.0168306
 -0.0187102 -0.02055489 -0.02229936 -0.02393978 -0.02548799 -0.02694694 -0.02836019 -0.02972519 -0.03105059 -0.03232737
 -0.03352607 -0.03464555 -0.03566512 -0.03659624 -0.03744761 -0.03823105 -0.03896406 -0.03965074 -0.04030015 -0.04091185
 -0.04148756 -0.04202739 -0.04253132 -0.04300109 -0.04343657 -0.04384203 -0.04421784 -0.0445697 -0.04489864 -0.0452025
 -0.04548123 -0.04571642 -0.04590706 -0.04603376 -0.04609898 -0.04610676 -0.04606184 -0.04598423 -0.04587427 -0.04574269
 -0.04558786 -0.0454098 -0.04521269 -0.04499908 -0.04477911 -0.04456047 -0.04435332 -0.04416447 -0.04400182 -0.04386918
 -0.04377305 -0.04371553 -0.04370137 -0.04373191 -0.04380763 -0.04392916 -0.04408952 -0.04428836 -0.04451457 -0.04476753
 -0.0450376 -0.04532331 -0.04561257 -0.04590094 -0.04616638 -0.04640489 -0.04659366 -0.04673716 -0.04683027 -0.0468847
 -0.04691257 -0.04692042 -0.04691931 -0.0469052 -0.04687889 -0.04683565 -0.04677201 -0.04669343 -0.04659897 -0.04650255
 -0.04640589 -0.04632176 -0.04625192 -0.04620017 -0.04616688 -0.04614619 -0.04613758 -0.04613233 -0.04613045 -0.04612708
 -0.0461235 -0.04612121 -0.04612274 -0.04613489 -0.04615974 -0.04620531 -0.04626834 -0.04635048 -0.04644125 -0.04653328
 -0.04661771 -0.04668592 -0.04674027 -0.04677857 -0.0468094 -0.04683528 -0.04685814 -0.04687948 -0.04689323 -0.04689888
 -0.04689233 -0.04687327 -0.04684556 -0.04680957 -0.04677201 -0.04673244 -0.04669195 -0.04664844 -0.04659494 -0.04652927
 -0.04644192 -0.04633356 -0.04619998 -0.04604541 -0.04587238 -0.04568664 -0.04549364 -0.0452969 -0.04510032 -0.04490344
 -0.04470707 -0.04450965 -0.04431035 -0.04411117 -0.0439121 -0.0437168 -0.04352595 -0.04333778 -0.04315225 -0.0429621
 -0.04276723 -0.04256486 -0.04235622 -0.04214798 -0.04194123 -0.04174456 -0.0415562 -0.04137695 -0.04120268 -0.04102653
 -0.04084608 -0.04065433 -0.04045482 -0.04024692 -0.04003816 -0.03983313 -0.0396351 -0.03944823 -0.03926543 -0.03908695
 -0.03889968 -0.03870133 -0.03848352 -0.03824443 -0.03798798 -0.03771415 -0.03743874 -0.03716285 -0.03690607 -0.03666885
 -0.03646413 -0.03629058 -0.03615033 -0.03604141 -0.03596002 -0.03590491 -0.03587255 -0.03586147 -0.03586941 -0.03589295
 -0.03592939 -0.03597356 -0.03602239 -0.03607069 -0.03611591 -0.03615446 -0.03618497 -0.03620537 -0.03621485 -0.03621391
 -0.03620199 -0.03618601 -0.03616624 -0.03615559 -0.03615449 -0.03617186 -0.03620664 -0.036256 -0.03631857 -0.03638691
 -0.03646189 -0.03654167 -0.03662829 -0.03672534 -0.03683187 -0.03694948 -0.03707282 -0.03719908 -0.03732058 -0.03743218
 -0.0375291 -0.0376075 -0.03766863 -0.03771189 -0.03774021 -0.03775433 -0.03775375 -0.03773842 -0.03770854 -0.03766402
 -0.0376118 -0.03755215 -0.03749069 -0.03742644 -0.03735519 -0.03727607 -0.03718272 -0.03707661 -0.03695858 -0.03682954
 -0.03669238 -0.03654508 -0.03638585 -0.03621426 -0.03602818 -0.03583151 -0.03562543 -0.0354148 -0.03520184 -0.03498956
 -0.03477937 -0.03457174 -0.03436734 -0.03416336 -0.03395955 -0.03375373 -0.03354568 -0.03333839 -0.03313185 -0.03292692
 -0.03272233 -0.03250908 -0.03228651 -0.03204587 -0.03179 -0.03152172 -0.03124416 -0.03096522 -0.03068387 -0.0304023
 -0.03011801 -0.02982895 -0.02953536 -0.02923591 -0.02893452 -0.02863167 -0.02833381 -0.02804302 -0.02776245 -0.0274942
 -0.02723093 -0.0269725 -0.02670764 -0.02643544 -0.02615677 -0.02587225 -0.02559454 -0.02532415 -0.02507105 -0.02483413
 -0.02461499 -0.02441069 -0.0242155 -0.02402443 -0.02382545 -0.02361653 -0.02338765 -0.02314677 -0.02289572 -0.02264685
 -0.02240892 -0.02218644 -0.02198479 -0.02179878 -0.02162923 -0.02146509 -0.02130552 -0.02113521 -0.02095222 -0.02074708
 -0.02051878 -0.02027298 -0.02001025 -0.01974211 -0.01946876 -0.01919659 -0.01892564 -0.01865915 -0.01839758 -0.01814386
 -0.01789819 -0.01766087 -0.01743568 -0.01722553 -0.01703931 -0.01688655 -0.01677074 -0.01669917 -0.01666337 -0.01666262
 -0.01668535 -0.01672868 -0.01678288 -0.01684685 -0.01690692 -0.01696168 -0.01699839 -0.01701598 -0.01701219 -0.01698696
 -0.01694053 -0.0168718 -0.01677275 -0.01664176 -0.01646767 -0.01624983 -0.01598066 -0.01566055 -0.01528454 -0.01485938
 -0.01438688 -0.01388721 -0.01337389 -0.01287751 -0.01241649 -0.01202434 -0.01171685 -0.01152378 -0.01145789 -0.01152928
 -0.01174579 -0.0120831 -0.01254163 -0.01307608 -0.01368369 -0.01432259 -0.01499073 -0.01565323 -0.0163084 -0.01692615
 -0.01750747 -0.01803924 -0.01852586 -0.01897301 -0.01938318 -0.0197638 -0.02011529 -0.02043927 -0.02074131 -0.02102475
 -0.02130074 -0.02157678 -0.02186109 -0.02215983 -0.02247332 -0.02280386 -0.02314508 -0.0234963 -0.02385132 -0.02420871
 -0.02457174 -0.02494041 -0.02532323 -0.02572017 -0.02612871 -0.02654715 -0.0269609 -0.02736914 -0.02776079 -0.02813612
 -0.02849082 -0.02882401 -0.02913119 -0.02941389 -0.02967075 -0.02990812 -0.03013203 -0.03034465 -0.03055087 -0.03074456
 -0.03092339 -0.03108615 -0.03122998 -0.03136563 -0.03149455 -0.03162606 -0.03176244 -0.03189877 -0.0320352 -0.0321569
 -0.03226322 -0.03234215 -0.03239451 -0.03242094 -0.03242395 -0.03241539 -0.03239581 -0.03237377 -0.03234622 -0.03231044
 -0.03226606 -0.03220931 -0.03214687 -0.03208297 -0.03202471 -0.03197905 -0.03194546 -0.03192689 -0.03191533 -0.03191034
 -0.03189905 -0.03187913 -0.03183996 -0.03177891 -0.03170033 -0.03160389 -0.03150775 -0.03141261 -0.0313305 -0.03126018
 -0.03119701 -0.03113904 -0.03107521 -0.03100483 -0.03092018 -0.03082194 -0.0307069 -0.03057844 -0.03043875 -0.03029364
 -0.03014952 -0.03000947 -0.02987815 -0.02975369 -0.02963698 -0.02952358 -0.02941316 -0.02929848 -0.02917881 -0.02904431
 -0.02889341 -0.0287221 -0.0285296 -0.02832419 -0.0281067 -0.02789588 -0.02769344 -0.0275222 -0.02738256 -0.02729062
 -0.02724137 -0.02723099 -0.02724932 -0.02727477 -0.02730006 -0.02730518 -0.02729067 -0.02724941 -0.02718576 -0.02709983
 -0.02699778 -0.02688102 -0.02675935 -0.02663535 -0.02651868 -0.0264124 -0.02631763 -0.02623579 -0.02615756 -0.02608263
 -0.02599645 -0.0258984 -0.02577781 -0.02563559 -0.02547468 -0.02529725 -0.02511568 -0.02492951 -0.02474425 -0.02455714
 -0.02436372 -0.02416611 -0.0239635 -0.02376355 -0.02357443 -0.02339774 -0.02323977 -0.02308997 -0.02294643 -0.02279564
 -0.0226321 -0.02245235 -0.02225306 -0.02204477 -0.02182746 -0.02161882 -0.0214202 -0.02124377 -0.02108976 -0.02095534
 -0.02083891 -0.02072564 -0.02061381 -0.02048699 -0.02034609 -0.02018366 -0.02000518 -0.01981692 -0.01962632 -0.01944753
 -0.01928155 -0.019137 -0.01900433 -0.01888156 -0.01875451 -0.01861643 -0.01845747 -0.01827228 -0.01806019 -0.01781845
 -0.01755911 -0.01728207 -0.01700976 -0.01674385 -0.01650171 -0.01628375 -0.01608818 -0.01591322 -0.01574175 -0.01557296
 -0.0153929 -0.01520466 -0.01500943 -0.0148121 -0.01462372 -0.01444582 -0.01428622 -0.01414186 -0.0140131 -0.01389519
 -0.01378606 -0.01367888 -0.01357151 -0.01345351 -0.01332103 -0.01316811 -0.01299102 -0.01279904 -0.01259202 -0.01238654
 -0.01218408 -0.0119914 -0.01180869 -0.01163317 -0.01146499 -0.01130454 -0.01115229 -0.01101199 -0.01088155 -0.01075756
 -0.01063543 -0.01050382 -0.01036029 -0.01019504 -0.01001201 -0.009810349 -0.009597919 -0.009380031 -0.009161252 -0.008945691
 -0.008732524 -0.008521784 -0.008314705 -0.008110773 -0.007916003 -0.007731241 -0.007559746 -0.00740203 -0.007256062 -0.007121646
 -0.006993102 -0.006869426 -0.006738606 -0.006600094 -0.006442488 -0.006270681 -0.006092066 -0.00591525 -0.005763985 -0.005637517
 -0.00554923 -0.005483098 -0.00543017 -0.005370572 -0.005287379 -0.005170527 -0.005008191 -0.00480834 -0.004566903 -0.004312268
 -0.004048091 -0.003805782 -0.003591678 -0.003410904 -0.003265426 -0.003133917 -0.003015397 -0.002892391 -0.002765837 -0.00263824
 -0.0025116 -0.00239765 -0.002296214 -0.002214827 -0.002147726 -0.002088532 -0.002026895 -0.001942987 -0.00183601 -0.001692859
 -0.001531703 -0.001361169 -0.001195502 -0.001049191 -0.0009072468 -0.0007698822 -0.0006133243 -0.0004289749 -0.0002227848 8.47212E-06
 0.0002304408 0.0004407906 0.0006092403 0.0007346321 0.0008148004 0.0008522894 0.0008719287 0.0008760197 0.0008906641 0.0009128191
 0.0009461517 0.0009876256 0.001029951 0.00107831 0.001137099 0.001211434 0.001310657 0.001429711 0.001568606 0.001720108
 0.001880671 0.002045962 0.002215264 0.002379129 0.002534526 0.002679818 0.002811776 0.002954707 0.003110176 0.003301374
 0.003529058 0.003783181 0.004061845 0.004341464 0.004621713 0.004890472 0.00514557 0.005374738 0.005573699 0.005724678
 0.005832012 0.005891799 0.005916913 0.005919821 0.005908077 0.005891658 0.005871139 0.005848303 0.005825913 0.005803959
 0.005790066 0.005784549 0.005800994 0.005840987 0.005918061 0.0060345 0.006180883 0.006356516 0.006531271 0.006705143
 0.006867229 0.007020478 0.007177634 0.007335389 0.007490379 0.00763627 0.007753525 0.007848806 0.007921805 0.00798513
 0.008052965 0.008130561 0.008222536 0.008343007 0.008496309 0.008707186 0.008993405 0.009329707 0.009720738 0.01009825
 0.01044852 0.01076619 0.01104855 0.0113176 0.01157402 0.01180618 0.01201274 0.01217353 0.01229087 0.01236784
 0.01240623 0.01241356 0.01238997 0.01233681 0.01226056 0.01217303 0.01207533 0.01197645 0.0118647 0.01172979
 0.01157862 0.01140496 0.01124378 0.011107 0.01101289 0.01097197 0.01096686 0.01099745 0.01104042 0.01109383
 0.01114105 0.01118106 0.01119333 0.01117715 0.01111676 0.01101396 0.01086916 0.01068663 0.01047733 0.01025183
 0.01003607 0.009844837 0.009718222 0.009647398 0.009646256 0.009677429 0.009712662 0.009742598 0.009747887 0.009757155
 0.009780413 0.009820287 0.009883993 0.00994046 0.009985205 0.01000278 0.009990558 0.009953607 0.009892162 0.009818262
 0.009734247 0.009671894 0.009632465 0.00964333 0.009696127 0.009776464 0.009877403 0.009971976 0.01006841 0.01016793
 0.0102787 0.01041283 0.01056669 0.0107409 0.01093301 0.01114192 0.01136627 0.01160835 0.01185329 0.01209952
 0.01232756 0.01253429 0.01270726 0.01284532 0.01293561 0.01297746 0.01296886 0.01291211 0.012835 0.01274014
 0.01265807 0.01258605 0.01252888 0.01248674 0.01246188 0.01245666 0.01248201 0.01252163 0.01256472 0.01258889
 0.01256604 0.0125095 0.01241308 0.01231353 0.01222531 0.01216066 0.01212769 0.01211511 0.0121232 0.01213515
 0.01215005 0.01214478 0.01211814 0.01207063 0.01200605 0.01197411 0.01197623 0.01205154 0.01218662 0.01235482
 0.01254499 0.01271435 0.01286867 0.01300211 0.01311187 0.01319729 0.01324157 0.01322604 0.01315883 0.01303198
 0.01288303 0.01272453 0.01257897 0.01245672 0.01235326 0.01226973 0.01219732 0.01213568 0.01207336 0.01200973
 0.01192951 0.01183278 0.01171646 0.01158228 0.01143913 0.01128755 0.01113426 0.01097831 0.01082185 0.01066095
 0.01049081 0.01030672 0.0100978 0.009873086 0.009631985 0.009396326 0.009178497 0.008989061 0.008834577 0.008718991
 0.008641676 0.008620923 0.008661597 0.008761463 0.008924518 0.009085332 0.009240375</values></Ydata></AB><ScSm><Ydata ylabel="Single channel"><values byteorder="INTEL" format="FLOAT32" numvalues="1814"> 0.0777131 0.07774338 0.07784082 0.07802325 0.07825729 0.07847804 0.07863394 0.07871926 0.07875514 0.07874807
 0.07870111 0.07866436 0.07872361 0.07891506 0.07917412 0.07938043 0.07945119 0.07941255 0.07938956 0.07948522
 0.07963894 0.07963806 0.07931882 0.07875617 0.07821637 0.07791214 0.07786925 0.07807708 0.07861739 0.0794227
 0.08000702 0.07981591 0.07892873 0.07807957 0.07784368 0.07808591 0.0783115 0.07823151 0.07784835 0.0773441
 0.07713182 0.07774377 0.07930969 0.08112705 0.08191139 0.08060301 0.07712294 0.07262287 0.06906733 0.06817922
 0.07021951 0.07363327 0.07621761 0.07688183 0.07617142 0.07515534 0.07428445 0.07352361 0.07307532 0.07341267
 0.07461146 0.07591234 0.07610758 0.07456203 0.07197584 0.06990707 0.06936105 0.07014999 0.07171062 0.07371653
 0.07523797 0.07426003 0.06966347 0.06373569 0.06114891 0.06451445 0.07159653 0.07751551 0.07909539 0.07661172
 0.07234427 0.06869376 0.06731115 0.06864707 0.0718359 0.07542221 0.07826044 0.07957644 0.07876838 0.07592538
 0.0723376 0.06986505 0.06979328 0.07233839 0.07660417 0.08065108 0.08237705 0.08107962 0.07792325 0.07469907
 0.07264408 0.07246239 0.0744985 0.07836334 0.08291283 0.0869306 0.08963703 0.09074236 0.09048098 0.08946586
 0.08823004 0.08715402 0.08680072 0.08755997 0.0887463 0.08886668 0.08725208 0.08495006 0.08364289 0.08390696
 0.08475469 0.08483751 0.08380973 0.08208871 0.07950999 0.07533854 0.069939 0.0651857 0.06258421 0.06214062
 0.06349534 0.0665033 0.06990285 0.07122871 0.06950445 0.06696552 0.06682463 0.06984999 0.07397784 0.07685761
 0.07802807 0.0787642 0.08042224 0.08304168 0.08515336 0.08487774 0.08178954 0.0779761 0.07656373 0.07865067
 0.08225811 0.08477535 0.08571637 0.08643332 0.08775172 0.08869212 0.08748394 0.08366109 0.07921168 0.07736319
 0.07977182 0.08486216 0.08896491 0.08903043 0.08468047 0.07830943 0.07322031 0.07133655 0.0726637 0.07652597
 0.0823141 0.08885659 0.09412755 0.0963743 0.09539283 0.09241951 0.08872437 0.08443895 0.07923383 0.07427739
 0.07246547 0.07567446 0.08235225 0.08881574 0.09254022 0.09341291 0.09228287 0.08938682 0.08459468 0.07893869
 0.07511938 0.07541034 0.07893125 0.08214886 0.08258611 0.08107837 0.07994734 0.08007906 0.08060125 0.0806971
 0.08076247 0.0817406 0.08379532 0.08596494 0.08710946 0.08695219 0.0861202 0.08540225 0.08502978 0.08451509
 0.08333948 0.08200046 0.08194166 0.08397339 0.08715659 0.08976761 0.09102029 0.09134389 0.09124059 0.09041861
 0.08823147 0.08490922 0.08206312 0.08149169 0.08343703 0.08643359 0.08883354 0.08999093 0.09009969 0.0895965
 0.08886808 0.08812302 0.08745252 0.08710138 0.08741043 0.08832435 0.08928096 0.08977983 0.08979261 0.08950419
 0.08895381 0.08811038 0.08713236 0.08637896 0.08615309 0.0864702 0.08709452 0.08775347 0.08823974 0.0883753
 0.08807451 0.08747585 0.08685526 0.08637588 0.0860419 0.08587413 0.08595713 0.08627915 0.0866612 0.08690707
 0.08695532 0.08685554 0.08666097 0.08638986 0.08606367 0.0857496 0.08555584 0.0855578 0.08570809 0.08586545
 0.0859555 0.08604385 0.08618753 0.08628913 0.08620048 0.08592757 0.08563463 0.08546509 0.08543131 0.08546109
 0.08547447 0.08539487 0.08514529 0.08471479 0.08424529 0.08398008 0.08407108 0.08446692 0.08500078 0.08551462
 0.08588655 0.08605018 0.08604553 0.08598028 0.08590339 0.08577003 0.08554599 0.08530124 0.08518321 0.08530369
 0.08563861 0.08604056 0.08636075 0.08654319 0.08661124 0.08662976 0.08668792 0.08683393 0.08699909 0.08705819
 0.08698875 0.08690861 0.08693521 0.08705454 0.08715137 0.08714756 0.08709139 0.08710426 0.087248 0.0874683
 0.0876722 0.08782957 0.08798184 0.08816663 0.08834708 0.08842748 0.08835848 0.08821216 0.08811377 0.08810973
 0.08815618 0.08822753 0.08836249 0.08858223 0.08882064 0.08897936 0.08903457 0.08905581 0.08911501 0.0892003
 0.08923802 0.08918754 0.08908881 0.08901867 0.08902344 0.08909439 0.0891868 0.0892534 0.08926925 0.08923636
 0.08917218 0.08909558 0.08902065 0.08896457 0.08896182 0.08905253 0.08923036 0.08940683 0.08946142 0.08934843
 0.08914641 0.08898839 0.08894077 0.08895408 0.08892888 0.08881763 0.08865626 0.08851153 0.08841963 0.08837339
 0.08834553 0.08831662 0.08829773 0.08833419 0.08846672 0.08867003 0.08884502 0.08889948 0.08883496 0.08873676
 0.08868752 0.08870971 0.08877827 0.08885963 0.08894306 0.0890501 0.08920073 0.08936459 0.08947685 0.08951747
 0.08954228 0.08962315 0.08979037 0.09003384 0.0903109 0.09054416 0.09066683 0.09069604 0.09072611 0.09083064
 0.09100001 0.09118479 0.09136387 0.09154795 0.09174491 0.09195448 0.09218927 0.09247443 0.09281983 0.09319992
 0.09356214 0.0938586 0.09408534 0.09429826 0.09457722 0.09495976 0.09540978 0.09585242 0.09623676 0.096568
 0.09688547 0.09721402 0.09754609 0.09787688 0.09823714 0.09866367 0.09914489 0.09962677 0.1000724 0.1004914
 0.1009115 0.1013443 0.1017871 0.1022435 0.1027301 0.1032563 0.1037964 0.1042928 0.1047035 0.1050423
 0.105367 0.1057384 0.1061862 0.1066847 0.107151 0.1075053 0.1077626 0.1080319 0.108396 0.1088179
 0.109206 0.1095447 0.1099115 0.1103666 0.1108724 0.1113377 0.1117171 0.1120462 0.1123883 0.1127598
 0.1131123 0.1133905 0.1136007 0.1138051 0.1140508 0.1143367 0.114658 0.1150438 0.1155118 0.1160143
 0.1164688 0.1168313 0.1171132 0.1173452 0.1175554 0.1177648 0.1179764 0.1181796 0.1183798 0.1185965
 0.1188215 0.1190177 0.11918 0.1193586 0.1195996 0.1198989 0.1202383 0.120625 0.1210588 0.121495
 0.1218888 0.1222668 0.1226997 0.1231931 0.1236514 0.1239797 0.1241844 0.1243404 0.1244968 0.1246661
 0.1248797 0.1251894 0.125606 0.1260775 0.1265432 0.1269818 0.1274046 0.12782 0.1282115 0.1285433
 0.1287858 0.1289429 0.1290565 0.1291884 0.129393 0.129689 0.1300429 0.1303867 0.1306645 0.130853
 0.1309413 0.1309227 0.1308287 0.1307406 0.1307247 0.1307542 0.1307208 0.1305271 0.1301481 0.1296093
 0.1289371 0.1281513 0.1272953 0.1264515 0.1257204 0.1251832 0.1248876 0.1248654 0.1251455 0.1257236
 0.1265201 0.1273905 0.1281904 0.1288138 0.129173 0.1291863 0.1288248 0.1281558 0.1273132 0.1264267
 0.1255828 0.1248182 0.1241247 0.1234901 0.122972 0.1227279 0.122948 0.1237512 0.1251333 0.126973
 0.12906 0.1311467 0.1330298 0.1346229 0.1359562 0.1371107 0.138156 0.1391409 0.1401065 0.1410678
 0.1419915 0.1428249 0.1435544 0.1442122 0.1448294 0.1454019 0.1459011 0.1463007 0.1465987 0.1468267
 0.1470262 0.1472068 0.1473449 0.1474323 0.1474979 0.1475646 0.1476027 0.147546 0.1473406 0.1469797
 0.146522 0.146109 0.1459605 0.1463087 0.1472825 0.1488231 0.150712 0.1526935 0.1545753 0.1562356
 0.1575959 0.1586332 0.1594051 0.1600212 0.1605757 0.1611141 0.161647 0.1621721 0.1626834 0.163176
 0.1636496 0.1641109 0.1645741 0.1650517 0.165536 0.165998 0.1664176 0.1668127 0.1672284 0.1676948
 0.1681966 0.1686891 0.1691481 0.1695935 0.1700526 0.1705127 0.1709315 0.1712925 0.1716254 0.1719734
 0.1723649 0.1728056 0.1732712 0.173709 0.1740758 0.1743799 0.1746708 0.1749895 0.1753411 0.1757088
 0.1760767 0.1764348 0.1767793 0.1771185 0.177474 0.1778566 0.1782413 0.1785802 0.1788528 0.179092
 0.179352 0.1796544 0.1799768 0.1802856 0.1805758 0.1808773 0.181225 0.1816193 0.1820185 0.182373
 0.1826645 0.1829124 0.183151 0.1834072 0.1836926 0.1840034 0.1843254 0.1846429 0.1849485 0.1852458
 0.1855436 0.1858494 0.1861641 0.1864816 0.1867936 0.1870967 0.1873942 0.1876905 0.1879893 0.1883007
 0.18864 0.1890082 0.1893776 0.1897102 0.1899913 0.1902394 0.1904812 0.1907291 0.1909836 0.1912472
 0.1915238 0.1918104 0.192097 0.1923755 0.1926456 0.1929136 0.1931869 0.1934711 0.1937673 0.1940717
 0.1943783 0.1946842 0.1949918 0.1953026 0.1956109 0.1959059 0.1961829 0.1964504 0.1967236 0.1970079
 0.1972913 0.197558 0.1978083 0.1980589 0.1983238 0.1986 0.198875 0.1991428 0.1994092 0.1996831
 0.1999678 0.2002592 0.2005499 0.2008324 0.2011026 0.2013643 0.2016279 0.2019006 0.2021804 0.2024625
 0.2027443 0.2030241 0.2032991 0.2035709 0.2038445 0.2041204 0.2043936 0.2046607 0.2049248 0.2051909
 0.2054616 0.2057351 0.2060078 0.2062799 0.2065552 0.2068341 0.2071109 0.2073804 0.2076445 0.2079103
 0.208185 0.2084681 0.2087507 0.2090253 0.2092967 0.2095744 0.2098581 0.2101393 0.2104156 0.2106929
 0.210977 0.211267 0.2115574 0.2118427 0.2121205 0.2123866 0.2126353 0.2128689 0.2131016 0.2133446
 0.2135946 0.2138436 0.2140911 0.2143402 0.2145929 0.2148514 0.2151143 0.2153757 0.2156328 0.2158904
 0.2161532 0.2164229 0.2167011 0.2169848 0.217264 0.2175336 0.2178 0.2180698 0.218342 0.218615
 0.21889 0.2191675 0.2194462 0.2197232 0.2199961 0.2202694 0.2205514 0.2208393 0.2211201 0.2213903
 0.2216581 0.2219284 0.2222016 0.2224806 0.2227616 0.2230315 0.2232858 0.2235336 0.2237832 0.224039
 0.2243077 0.2245862 0.2248585 0.2251164 0.2253672 0.2256191 0.225879 0.2261561 0.2264471 0.2267334
 0.2270041 0.2272634 0.2275162 0.227768 0.22803 0.2283032 0.2285755 0.2288424 0.2291045 0.2293407
 0.2294942 0.2294238 0.2287764 0.2268503 0.2225741 0.2147114 0.2023456 0.1854538 0.1651184 0.1431493
 0.1214178 0.1013645 0.08384588 0.069235 0.05760458 0.04885108 0.04277533 0.0392091 0.03814194 0.03985119
 0.04504973 0.05446767 0.06725404 0.07955939 0.08603793 0.08407371 0.07628085 0.0681154 0.06334224 0.06222759
 0.06317401 0.06482358 0.06674372 0.06916751 0.07250354 0.07686829 0.08206387 0.08808387 0.09535913 0.1042057
 0.1141645 0.1241919 0.1335541 0.1423976 0.1513939 0.1609208 0.170658 0.1798962 0.1880968 0.1951596
 0.201316 0.2068785 0.2120639 0.2169708 0.2216477 0.2260944 0.2301557 0.233476 0.2356698 0.2366143
 0.2365913 0.2361315 0.2357029 0.2355239 0.2356119 0.2359222 0.2364178 0.2370724 0.2378644 0.238769
 0.2397475 0.2407577 0.2417714 0.24277 0.2437311 0.2446311 0.2454515 0.2461828 0.2468303 0.2474146
 0.2479547 0.2484564 0.2489212 0.2493531 0.2497566 0.2501395 0.2505144 0.250885 0.251237 0.2515531
 0.2518303 0.2520791 0.2523141 0.2525468 0.252779 0.2530047 0.2532232 0.2534423 0.2536658 0.2538887
 0.2541056 0.2543172 0.2545269 0.2547388 0.2549576 0.2551835 0.2554098 0.2556286 0.255837 0.2560399
 0.2562465 0.2564616 0.2566766 0.2568797 0.2570724 0.2572705 0.2574866 0.2577204 0.2579595 0.2581864
 0.2583928 0.2585927 0.2588107 0.2590526 0.2593024 0.2595451 0.259779 0.2600074 0.2602347 0.2604637
 0.2606867 0.2608839 0.2610451 0.2611905 0.2613617 0.2615851 0.2618454 0.2621014 0.2623292 0.2625388
 0.2627489 0.262961 0.2631658 0.2633567 0.2635359 0.2637228 0.2639461 0.2642099 0.2644865 0.2647556
 0.2650239 0.2652978 0.265569 0.2658349 0.2660951 0.2663257 0.2664979 0.2666318 0.2668068 0.2670972
 0.2674953 0.2679061 0.2682367 0.2684823 0.2687083 0.2689727 0.2692894 0.269619 0.2698525 0.2698826
 0.2697654 0.2697448 0.2700322 0.2705995 0.2712409 0.2717819 0.272184 0.2724964 0.2727689 0.2730033
 0.2731552 0.2731881 0.2731542 0.2732168 0.2735342 0.274089 0.2746877 0.2751603 0.2754926 0.2757443
 0.2759492 0.2761235 0.2762322 0.2761233 0.2756868 0.2751495 0.2750198 0.2755954 0.2766269 0.2775831
 0.2781776 0.278519 0.2788109 0.2790997 0.2793304 0.2793956 0.2790244 0.2779397 0.276408 0.2753817
 0.2757093 0.2772812 0.2792013 0.280679 0.2815226 0.2819384 0.282183 0.2823907 0.2824723 0.2821322
 0.281199 0.2800536 0.2795269 0.2801316 0.2814854 0.2827219 0.2833755 0.2836214 0.2838059 0.2840609
 0.2842185 0.2837652 0.2821308 0.2795298 0.2773869 0.2773377 0.2796286 0.2828189 0.2852084 0.2863042
 0.2866849 0.2867452 0.2861194 0.2843407 0.2815244 0.2783124 0.2757058 0.2749587 0.2767404 0.2800718
 0.2828792 0.2840432 0.2843349 0.2850923 0.2866133 0.2881428 0.2888795 0.2886009 0.2875336 0.2859235
 0.2839227 0.282006 0.2812097 0.2823964 0.2852148 0.2882315 0.2902542 0.2912312 0.2916268 0.2910306
 0.2878872 0.2813736 0.273734 0.2696429 0.2720714 0.2791755 0.2862729 0.2904415 0.2921046 0.2928227
 0.293222 0.2928296 0.2903248 0.2842357 0.2752297 0.2675976 0.2663581 0.2722815 0.2810205 0.2871865
 0.2880498 0.2838326 0.2767105 0.270147 0.2674848 0.2699245 0.2760068 0.2830572 0.2887899 0.2919279
 0.2921908 0.2901622 0.2872228 0.2852128 0.2851155 0.2855971 0.2840086 0.2797424 0.2752586 0.2724495
 0.2696633 0.2647195 0.2597183 0.2596356 0.2658829 0.2739754 0.2785884 0.2789441 0.2778131 0.2764325
 0.2723472 0.2629349 0.2503964 0.2417901 0.2428536 0.2520573 0.2619892 0.2666156 0.2660578 0.264365
 0.2641137 0.263809 0.2600205 0.2518831 0.243305 0.2396549 0.2420166 0.2462032 0.2476746 0.2451428
 0.238893 0.2292976 0.2194613 0.2161312 0.2239449 0.2396911 0.2548707 0.2627138 0.2605758 0.2482981
 0.2291576 0.2119013 0.2064756 0.2150844 0.229507 0.2386908 0.2374999 0.2275249 0.2123514 0.1951847
 0.1803831 0.1737745 0.1791025 0.194276 0.211582 0.2215125 0.2179482 0.2029094 0.1869797 0.1816558
 0.1888664 0.1996947 0.2044215 0.2013594 0.195317 0.191372 0.1919609 0.1966338 0.2025388 0.2070443
 0.2098212 0.2098397 0.2025 0.185174 0.1645997 0.1524773 0.1533012 0.1619688 0.1731586 0.1861349
 0.1987922 0.2043399 0.1989844 0.1892022 0.1862903 0.1943648 0.206798 0.2143094 0.2141387 0.2105763
 0.2082534 0.2071619 0.2049973 0.2025677 0.2039636 0.2109606 0.2199506 0.2259705 0.2278604 0.2278344
 0.2277123 0.2275471 0.2268915 0.2255984 0.2237265 0.2216638 0.2200242 0.2189436 0.2179553 0.2167154
 0.2149622 0.2114106 0.2040412 0.1929597 0.1822238 0.1766626 0.1767794 0.1790275 0.181088 0.183235
 0.1833994 0.1757914 0.1585693 0.1401092 0.1329232 0.1415855 0.1593218 0.1756753 0.1844561 0.1842507
 0.1753259 0.1599752 0.1452546 0.1408123 0.1509939 0.170632 0.1905686 0.2055697 0.2149802 0.2183627
 0.2145358 0.204778 0.1941807 0.1887891 0.1918936 0.2025076 0.2157071 0.223943 0.2206914 0.2068906
 0.1939286 0.1953246 0.2125363 0.2325648 0.2425699 0.2429337 0.2422074 0.2438383 0.2443708 0.2426604
 0.2436736 0.251588 0.2635855 0.2726205 0.273608 0.2654167 0.2502241 0.2340744 0.2253397 0.2279973
 0.2370922 0.2441274 0.2453073 0.2410547 0.2309752 0.2159779 0.2036426 0.2036543 0.2165585 0.2324718
 0.242299 0.2459992 0.2485037 0.2512503 0.250501 0.2430843 0.2317249 0.2233685 0.2222867 0.2263054
 0.2304229 0.2320816 0.2312123 0.2272447 0.2194665 0.2102726 0.2051757 0.2080196 0.2170328 0.2265449
 0.2321098 0.2332944 0.2322471 0.230968 0.2299874 0.2285941 0.2262051 0.2241169 0.2252527 0.2309717
 0.238801 0.2449287 0.2485628 0.2521943 0.2576814 0.2636567 0.2671531 0.266821 0.2642149 0.2624556
 0.263738 0.2675894 0.2712208 0.271913 0.2696031 0.2671763 0.2678067 0.2719348 0.2771987 0.2811291
 0.2831752 0.2842035 0.2850432 0.2857851 0.285744 0.284002 0.2807423 0.27803 0.2783459 0.2821088
 0.2872534 0.2913283 0.2934447 0.2941537 0.2941347 0.2934785 0.2920512 0.2901345 0.2884649 0.2876664
 0.2878047 0.2885213 0.2894228 0.2902588 0.2909055 0.2913494 0.2916547 0.2918819 0.2920624 0.2922372
 0.2924305 0.2925808 0.2925992 0.2925275 0.2925459 0.2927675 0.29309 0.2933054 0.2932842 0.2929733
 0.2922867 0.2911384 0.28958 0.2877802 0.2858351 0.2837161 0.2815166 0.2797012 0.278959 0.2796936
 0.2816495 0.2840685 0.2862034 0.287688 0.2885221 0.288864 0.288884 0.2887228 0.2884752 0.2881727
 0.287794 0.2873048 0.2866931 0.2859782 0.2852054 0.2844415 0.2837607 0.2832091 0.2827752 0.2824001
 0.282019 0.2815939 0.2811208 0.280616 0.2800907 0.2795271 0.2788739 0.2780784 0.2771342 0.2761053
 0.2750949 0.2741853 0.2733955 0.2726826 0.2719827 0.271248 0.2704372 0.2694901 0.2683688 0.2671427
 0.2659791 0.2650074 0.2642128 0.2634784 0.2626861 0.2617632 0.2606828 0.2594625 0.2581495 0.2567874
 0.2553948 0.253965 0.2524733 0.2508913 0.2492076 0.2474303 0.2455742 0.2436551 0.2416935 0.2397045
 0.2376664 0.2354971 0.2330695 0.2302532 0.2269423 0.2230577 0.2185675 0.2135333 0.2081271 0.2025833
 0.1971268 0.1919367 0.1871471 0.1828648 0.1791786 0.1761514 0.1738164 0.172196 0.1713172 0.1711968
 0.171819 0.1731355 0.1750674 0.1774937 0.1802523 0.1831642 0.1860528 0.1887667 0.1912214 0.1934344
 0.1954987 0.1974991 0.199446 0.2012838 0.2029571 0.2044477 0.2057495 0.206843 0.2077175 0.2083954
 0.2089098 0.2092779 0.2095048 0.209594 0.2095482 0.2093849 0.2091565 0.2089504 0.2088708 0.2090144
 0.2094333 0.210105 0.2109552 0.2119094 0.2129171 0.2139418 0.2149522 0.2159273 0.2168633 0.2177761
 0.218695 0.2196533 0.2206926 0.2218653 0.2232151 0.224756 0.2264738 0.2283283 0.2302392 0.2320892
 0.2337596 0.2351661 0.2362716 0.237083 0.2376334 0.2379557 0.238076 0.2380268 0.2378487 0.2375757
 0.2372216 0.2367779 0.236226 0.2355664 0.2348309 0.2340539 0.2332502 0.2324353 0.2316414 0.2308905
 0.2301688 0.2294468 0.2287126 0.227979 0.2272674 0.2265886 0.2259321 0.2252728 0.2245906 0.2238803
 0.2231461 0.2223882 0.2215855 0.2206976 0.2196944 0.2185768 0.2173568 0.2160351 0.214611 0.2130971
 0.2115145 0.2098828 0.2082173 0.2065169 0.204759 0.202913 0.2009527 0.1988609 0.1966507 0.1943906
 0.1921856 0.1901185 0.188208 0.1864182 0.1847037 0.183053 0.1814852 0.1800054 0.1785863 0.1772091
 0.1758915 0.1746548 0.1734883 0.1723668 0.171289 0.1702842 0.1693904 0.168627 0.1679792 0.167408
 0.1668781 0.1663823 0.1659509 0.1656398 0.1654822 0.1654382 0.165408 0.1652992 0.1650768 0.1647652
 0.1644269 0.1641239 0.1638769 0.1636643 0.1634622 0.163254 0.1629923 0.1625821 0.1619172 0.1609275
 0.1595963 0.1579518 0.1560588 0.1540233 0.1519927 0.1501209 0.1485173 0.1472293 0.1462518 0.1455229
 0.1449347 0.1444014 0.1439241 0.1435771 0.1434343 0.1434953 0.1436515 0.1437446 0.1437055 0.1436313
 0.1436974 0.1440079 0.1445404 0.1451915 0.1458496 0.146439 0.1469142 0.1472323 0.1473693 0.1473576
 0.14726 0.1471076 0.1468982 0.1466354 0.1463292 0.1459789 0.1455772 0.1451109 0.1445561 0.1438987
 0.1431473 0.1423119 0.1413934 0.1403872 0.1392621 0.1379811 0.1366158 0.1354038 0.134629 0.1344553
 0.1348628 0.1356742 0.1366584 0.1376679 0.1386299 0.1393773 0.1396783 0.1396008 0.139714 0.1406766
 0.1425928 0.1448881 0.14683 0.1480563 0.1485947 0.1485684 0.1480494 0.147085 0.1456731 0.1437507
 0.1413196 0.1385115 0.1354761 0.1323405 0.1292919 0.1265372 0.1241839 0.1222527 0.1207378 0.1196816
 0.1192207 0.1189886 0.1171178 0.1112187 0.1020435 0.09512575 0.09612603 0.1044655 0.1137295 0.1184596
 0.1185079 0.1167825 0.115293 0.114353 0.1138649 0.1139565 0.1147447 0.1160903 0.117597 0.1188327
 0.1196118 0.1199765 0.1198935 0.1190194 0.1166661 0.1120421 0.1048915 0.09605794 0.08720255 0.07984379
 0.07468718 0.07163323 0.07008582 0.06930432 0.06878686 0.06849819 0.06873937 0.06979555 0.07170284 0.07430132
 0.07739386 0.08073574 0.08394008 0.08662097 0.08868429 0.09031473 0.09164766 0.09260699 0.09307213 0.09305067
 0.09266101 0.09204555 0.09131767 0.09052639 0.08963778 0.08857642 0.08735174 0.08616686 0.08531742 0.08492313
 0.08483568 0.08484279 0.08485168 0.08485159 0.0848351 0.08479938 0.08474697 0.08469877 0.08474541 0.08499789
 0.08543459 0.08588516 0.08619996 0.08636642 0.08645515 0.08648583 0.08633891 0.08586119 0.085133 0.08448778
 0.08408946 0.08364205 0.08276767 0.0815744 0.080604 0.0802581 0.0804572 0.08082514 0.08103772 0.08099069
 0.08079808 0.08072396 0.08100234 0.0815702</values></Ydata></ScSm><ScRf><Ydata ylabel="Single channel"><values byteorder="INTEL" format="FLOAT32" numvalues="1820"> 0.06042342 0.06057484 0.06067232 0.06071105 0.06071302 0.060724 0.06079189 0.06093565 0.06112992 0.06131882
 0.0614526 0.06151978 0.061538 0.06151932 0.0614709 0.0614309 0.06146416 0.06159933 0.06178745 0.0619355
 0.06198089 0.06194732 0.06193243 0.06201039 0.06212597 0.06211224 0.06184879 0.0614016 0.06097832 0.0607385
 0.06069724 0.06084732 0.06125946 0.06188904 0.06235757 0.06222074 0.06152552 0.06084292 0.06063665 0.0608163
 0.06099542 0.06093556 0.06062807 0.06021665 0.06003401 0.06050502 0.06173197 0.06315832 0.06377 0.06273349
 0.05999085 0.05645208 0.05366059 0.05296489 0.05456734 0.05724937 0.0592823 0.05980553 0.05924437 0.05844202
 0.05775642 0.05715539 0.05679025 0.05703367 0.0579558 0.05897012 0.05912955 0.05792948 0.05591103 0.05429032
 0.05385463 0.05445935 0.05566586 0.05722027 0.05839771 0.05762565 0.0540302 0.04939696 0.04737511 0.05000684
 0.05554883 0.06018706 0.06143185 0.05949229 0.05615443 0.05330416 0.0522319 0.0532774 0.05575418 0.05852963
 0.06072191 0.0617347 0.06109819 0.05887925 0.05608285 0.05415822 0.05410589 0.05609305 0.05942081 0.06257655
 0.06391852 0.06289411 0.0604107 0.05787462 0.05626521 0.05613662 0.05774777 0.06078333 0.06434959 0.06750192
 0.06962885 0.07049422 0.07027875 0.06947297 0.06850584 0.06767227 0.06739897 0.06798358 0.06889664 0.06898093
 0.0677162 0.06591762 0.06489639 0.06510223 0.06576378 0.06582576 0.06501599 0.06366141 0.06163775 0.05837381
 0.0541542 0.05044273 0.04841622 0.04807969 0.04915342 0.05152739 0.05421624 0.05528517 0.05395688 0.05196914
 0.05183576 0.05416988 0.05737214 0.05961163 0.06052659 0.06111126 0.06242523 0.06449626 0.0661663 0.06595622
 0.0635341 0.06054499 0.05944718 0.06110091 0.06394831 0.06593874 0.06669352 0.06727737 0.06833934 0.06911049
 0.06820226 0.0652501 0.0618099 0.0604023 0.06231727 0.06632332 0.06955506 0.06962533 0.0662329 0.06125628
 0.05729462 0.05586216 0.05696337 0.06007141 0.06471417 0.06997069 0.07423685 0.07611343 0.07541939 0.07312634
 0.07025534 0.06692644 0.06287324 0.05901219 0.05765279 0.06030828 0.06574959 0.07102856 0.0741159 0.07491556
 0.07410428 0.07186466 0.06808757 0.06361576 0.06065065 0.06103891 0.06405114 0.06679819 0.06725977 0.06612461
 0.06529873 0.06551378 0.06605558 0.06625243 0.06643523 0.06739034 0.06925464 0.07122357 0.07233821 0.07235432
 0.07178634 0.07130045 0.071108 0.07081121 0.06997541 0.06901856 0.06915514 0.0710589 0.07392201 0.07627951
 0.07747301 0.07788214 0.0779413 0.07739111 0.07566123 0.07294562 0.07064502 0.07032602 0.07219931 0.07498372
 0.07723726 0.07839958 0.07865273 0.07838553 0.07792953 0.07746003 0.07706054 0.07695018 0.07742238 0.07841863
 0.07944067 0.08004891 0.08021796 0.08010757 0.07975057 0.07912593 0.07838897 0.07787004 0.07783529 0.07828695
 0.07901092 0.07977057 0.08038301 0.08067529 0.08055155 0.08013467 0.07969461 0.07940137 0.07926093 0.07927845
 0.07951934 0.07996898 0.08046189 0.08081686 0.08097984 0.08100288 0.08094192 0.08081677 0.08064438 0.08048175
 0.08042651 0.08054686 0.08079457 0.08103663 0.08121286 0.08140136 0.08166546 0.08190504 0.08195722 0.081809
 0.08161803 0.08153518 0.08157828 0.08167383 0.08174707 0.08173586 0.0815724 0.08124114 0.08087176 0.08069685
 0.08086565 0.08133553 0.08195253 0.08256157 0.08303007 0.08327733 0.0833364 0.08331884 0.08328453 0.08319813
 0.08302735 0.08283808 0.08277341 0.08294286 0.08332275 0.08376734 0.08412641 0.08433849 0.08442666 0.08446796
 0.08456649 0.08476897 0.08498597 0.08507322 0.08501141 0.08493687 0.08497459 0.08509693 0.08517298 0.08512747
 0.08502667 0.08500776 0.08513627 0.08535133 0.08555105 0.08570435 0.08586332 0.08607496 0.0862927 0.08639219
 0.08629975 0.086091 0.08591858 0.08585268 0.08585219 0.08588506 0.08599097 0.08619311 0.08641572 0.08654785
 0.08656769 0.08655863 0.08660056 0.0866752 0.08669372 0.08659986 0.08642637 0.08626083 0.08617803 0.08619937
 0.0862879 0.08637066 0.0863818 0.08630408 0.08617493 0.08604933 0.08595963 0.08591959 0.0859589 0.08611686
 0.08637252 0.08660132 0.08664957 0.08647454 0.08619578 0.08598992 0.08593331 0.08595031 0.08590687 0.08573865
 0.08548748 0.08523688 0.08503871 0.08489693 0.0847929 0.08471347 0.08467056 0.0847021 0.08482975 0.08499689
 0.0850749 0.08497075 0.0847227 0.08446173 0.08428901 0.08421692 0.08420337 0.08420205 0.08419445 0.08420557
 0.08426982 0.08436167 0.08439706 0.08433124 0.08421872 0.08415666 0.08420649 0.08437354 0.0846027 0.08478063
 0.08480762 0.08469952 0.08457944 0.08455004 0.08460841 0.08469382 0.08477335 0.08485512 0.08494957 0.08505526
 0.08517958 0.08534634 0.08557056 0.08583105 0.08607365 0.08624668 0.08634509 0.08642679 0.08657621 0.08683559
 0.08716764 0.08748791 0.0877352 0.08791389 0.08807349 0.08825199 0.08844708 0.0886472 0.08887093 0.08914859
 0.08947265 0.08979803 0.09009413 0.09037113 0.09065262 0.09094463 0.09123974 0.09154163 0.0918774 0.09227349
 0.09270681 0.09309308 0.09335341 0.09349521 0.09361339 0.09381424 0.09413908 0.09453329 0.0948744 0.0950673
 0.09514333 0.09523834 0.09544472 0.09571806 0.09596545 0.09619051 0.0964914 0.09692004 0.09739593 0.09777961
 0.09800825 0.09814207 0.0982866 0.09848227 0.09867768 0.09880915 0.0988864 0.09897648 0.09911637 0.09928721
 0.09948201 0.09974549 0.1001102 0.1005276 0.1009044 0.1011903 0.101398 0.1015569 0.1016802 0.1017656
 0.1018056 0.1018076 0.101814 0.1018754 0.1019892 0.1020934 0.1021439 0.1021705 0.1022359 0.1023699
 0.1025694 0.1028289 0.1031312 0.1034297 0.1036903 0.1039504 0.1042806 0.1046713 0.1050049 0.1051788
 0.10522 0.1052344 0.1052768 0.1053318 0.1054016 0.1055384 0.1057759 0.1060818 0.1064009 0.106714
 0.1070385 0.1073835 0.1077171 0.1079729 0.1080978 0.1081012 0.1080581 0.1080631 0.1081795 0.1084156
 0.108728 0.1090475 0.1093179 0.1095122 0.1096149 0.1096188 0.1095608 0.109535 0.1096212 0.1097938
 0.1099312 0.1099186 0.1097223 0.1093654 0.1088724 0.1082644 0.1075911 0.1069364 0.1063825 0.1059761
 0.1057364 0.1056909 0.1058856 0.1063369 0.1069767 0.1076732 0.1083098 0.1088175 0.1091286 0.1091551
 0.1088528 0.108284 0.1075811 0.1068623 0.10619 0.1055754 0.1049897 0.1044046 0.1038674 0.1035314
 0.1035839 0.104137 0.1051731 0.1065586 0.1080853 0.1095328 0.1107507 0.1117169 0.1125135 0.113237
 0.1139323 0.1146059 0.1152704 0.115937 0.1165791 0.1171446 0.1176165 0.1180303 0.1184254 0.118805
 0.1191457 0.1194259 0.1196458 0.1198351 0.1200256 0.1202014 0.1202999 0.1202837 0.1201889 0.1200799
 0.1199734 0.1198255 0.1195801 0.1192173 0.1187807 0.1183878 0.1182122 0.1184181 0.1190748 0.1201124
 0.1213691 0.1226896 0.1239708 0.1251267 0.1260634 0.1267278 0.1271608 0.1274689 0.1277458 0.1280348
 0.1283425 0.1286619 0.12898 0.1292824 0.1295615 0.1298293 0.1301157 0.130441 0.1307837 0.1310912
 0.1313366 0.1315562 0.1318199 0.1321633 0.1325548 0.1329299 0.1332584 0.1335683 0.1338944 0.1342169
 0.1344804 0.1346678 0.1348261 0.1350209 0.1352883 0.1356259 0.1359951 0.1363301 0.1365791 0.1367508
 0.1369026 0.1370833 0.1372996 0.1375371 0.1377876 0.138048 0.1383103 0.1385719 0.1388468 0.139146
 0.1394444 0.1396888 0.1398539 0.1399775 0.1401256 0.1403297 0.140567 0.1407951 0.1409985 0.1412048
 0.1414569 0.1417643 0.1420833 0.1423516 0.1425416 0.1426769 0.1428036 0.1429554 0.1431413 0.143353
 0.143574 0.1437882 0.1439884 0.1441838 0.1443911 0.1446149 0.1448418 0.1450564 0.1452564 0.1454503
 0.1456457 0.1458441 0.1460482 0.1462714 0.1465321 0.1468273 0.1471187 0.147359 0.1475334 0.1476656
 0.1477878 0.1479193 0.148071 0.1482511 0.1484591 0.1486831 0.1489061 0.1491163 0.1493128 0.1495033
 0.149696 0.1498944 0.1500981 0.1503063 0.1505191 0.150739 0.1509668 0.1511947 0.1514104 0.15161
 0.151802 0.1519975 0.1522006 0.1524065 0.1526059 0.1527921 0.1529694 0.1531489 0.1533356 0.1535246
 0.1537095 0.1538922 0.1540812 0.1542824 0.1544911 0.1546941 0.1548826 0.1550638 0.1552525 0.1554556
 0.1556658 0.1558708 0.1560659 0.1562574 0.1564538 0.1566548 0.1568542 0.1570505 0.1572501 0.157457
 0.1576657 0.1578671 0.1580582 0.1582451 0.1584354 0.1586289 0.1588208 0.1590116 0.1592078 0.1594134
 0.1596275 0.1598468 0.1600647 0.1602709 0.1604625 0.1606499 0.1608464 0.1610543 0.1612672 0.1614799
 0.1616927 0.1619101 0.1621348 0.1623617 0.1625828 0.1627961 0.1630066 0.1632175 0.1634257 0.1636246
 0.1638089 0.1639795 0.1641439 0.1643111 0.1644858 0.1646696 0.1648597 0.1650489 0.165232 0.165412
 0.1655943 0.1657808 0.1659737 0.1661771 0.1663896 0.1666055 0.1668209 0.1670327 0.1672367 0.1674336
 0.1676293 0.1678251 0.1680185 0.1682117 0.1684106 0.1686171 0.1688288 0.1690404 0.1692438 0.1694367
 0.1696302 0.1698385 0.1700626 0.1702918 0.1705148 0.170727 0.1709348 0.171149 0.1713693 0.1715854
 0.1717945 0.1720043 0.1722169 0.1724268 0.172632 0.1728351 0.1730401 0.1732529 0.1734739 0.1736914
 0.1738968 0.1740998 0.1743113 0.174527 0.1747384 0.1749447 0.1751491 0.1753569 0.1755739 0.1757961
 0.1760135 0.1762267 0.1764393 0.1766347 0.1767658 0.176722 0.1762322 0.1747546 0.1714574 0.1653796
 0.1558124 0.1427441 0.1270191 0.110039 0.09324518 0.07774334 0.06419389 0.05289005 0.04389314 0.03712598
 0.03243753 0.02969807 0.02889405 0.03023206 0.03425772 0.04153129 0.05139581 0.06088992 0.0659021 0.0644148
 0.05842889 0.05213803 0.04844791 0.04757842 0.04830899 0.04959054 0.05108001 0.05295472 0.05553859 0.05892977
 0.06297389 0.06765953 0.07331666 0.08019193 0.08793578 0.09574523 0.1030492 0.1099509 0.116964 0.1243832
 0.1319641 0.1391571 0.1455454 0.1510551 0.1558688 0.1602301 0.1643066 0.1681713 0.171855 0.1753517
 0.1785412 0.1811516 0.1828873 0.1836538 0.1836677 0.1833387 0.1830298 0.182912 0.1830003 0.1832625
 0.1836735 0.1842149 0.1848703 0.1856194 0.1864274 0.1872551 0.1880774 0.1888821 0.1896566 0.1903878
 0.1910656 0.1916817 0.192235 0.1927373 0.1932029 0.1936372 0.1940412 0.1944195 0.1947779 0.1951219
 0.1954574 0.1957835 0.1960893 0.1963648 0.1966105 0.1968321 0.1970356 0.1972278 0.197416 0.1976072
 0.1978089 0.1980254 0.1982507 0.1984718 0.1986813 0.1988823 0.1990822 0.1992851 0.1994888 0.1996851
 0.1998686 0.2000459 0.200228 0.2004179 0.2006122 0.2008079 0.2010013 0.2011866 0.2013635 0.2015425
 0.2017371 0.2019517 0.202176 0.2023914 0.2025888 0.2027796 0.2029812 0.2031966 0.2034162 0.2036353
 0.203855 0.2040734 0.2042883 0.2045015 0.2047088 0.2048953 0.2050538 0.205201 0.2053688 0.2055749
 0.2058058 0.2060304 0.2062318 0.2064205 0.2066138 0.2068135 0.2070083 0.2071886 0.2073588 0.2075423
 0.2077655 0.2080275 0.2082974 0.2085505 0.2087873 0.2090145 0.2092341 0.209455 0.2096827 0.2098949
 0.2100604 0.2101888 0.2103423 0.2105865 0.2109292 0.2113065 0.2116399 0.2119034 0.2121296 0.2123636
 0.2126283 0.2129 0.2130933 0.213128 0.2130599 0.2130893 0.2133754 0.2138789 0.2144265 0.2148831
 0.2152261 0.2155002 0.2157492 0.215973 0.2161276 0.216176 0.2161626 0.2162281 0.2165069 0.2169876
 0.2175088 0.2179205 0.2182034 0.2184156 0.2186036 0.2187883 0.2189337 0.2189029 0.2185942 0.2181874
 0.2181026 0.2185937 0.2194642 0.22028 0.2208037 0.2211177 0.2213822 0.2216365 0.2218467 0.2219404
 0.2217044 0.2209043 0.2197332 0.2189457 0.2192331 0.2205266 0.2221178 0.2233694 0.2241151 0.2245058
 0.2247415 0.2249406 0.2250491 0.2248366 0.2241549 0.2232939 0.2229185 0.2234561 0.224614 0.2256913
 0.2262953 0.2265553 0.2267501 0.2269942 0.2271655 0.2268623 0.2256227 0.2236033 0.2219415 0.2219598
 0.2238647 0.2264976 0.2284887 0.229443 0.2298275 0.2299528 0.2295112 0.2281207 0.2258863 0.2233472
 0.2213222 0.2208131 0.2223415 0.2251051 0.227431 0.228426 0.2287247 0.2294101 0.2307159 0.2320241
 0.2326868 0.2325324 0.2317523 0.2305429 0.2290152 0.2275499 0.2269967 0.2280641 0.2304593 0.2330006
 0.2347108 0.2355579 0.235941 0.2355417 0.2330889 0.2278944 0.2217712 0.2185262 0.2205888 0.2264657
 0.232344 0.2358368 0.2372854 0.2379676 0.2384017 0.2381975 0.2362636 0.2313901 0.2241262 0.2179869
 0.2170779 0.2220249 0.2292667 0.2343949 0.235183 0.2318234 0.2261058 0.220865 0.2188278 0.2209686
 0.2260944 0.2320227 0.2368832 0.2396212 0.2399886 0.2384474 0.2361352 0.2345915 0.2346469 0.2351952
 0.2340281 0.2306273 0.2270262 0.2248077 0.222631 0.218702 0.2147498 0.2148837 0.2202683 0.2271814
 0.2312026 0.2316898 0.2309477 0.2299966 0.2267799 0.2191059 0.2088157 0.2018185 0.2029263 0.2108622
 0.2194122 0.2235183 0.2232901 0.2221299 0.2221951 0.2222106 0.2192668 0.21263 0.2056245 0.2028179
 0.2051321 0.2090091 0.2105885 0.2087579 0.2037311 0.1958195 0.1877098 0.185222 0.1923612 0.2063794
 0.2199597 0.227244 0.225902 0.2157392 0.1995739 0.1850542 0.1809228 0.1891414 0.2024974 0.2112631
 0.2108917 0.20274 0.1899325 0.17531 0.1628173 0.1577736 0.1636435 0.1785861 0.1955607 0.2057611
 0.2034138 0.1903193 0.1763915 0.1724939 0.1804572 0.1917927 0.1972334 0.19517 0.1902102 0.1872697
 0.1887784 0.1943305 0.2010895 0.2064294 0.2100197 0.2107705 0.2039656 0.1869222 0.1664838 0.1545349
 0.1556496 0.1646673 0.176216 0.1895764 0.2025936 0.2082988 0.202777 0.1926214 0.1893773 0.1972788
 0.2096024 0.216917 0.2164332 0.2125438 0.2099853 0.2087622 0.2065323 0.2041118 0.2056472 0.2129388
 0.2223365 0.2288156 0.2311868 0.2316713 0.2321005 0.2325159 0.23244 0.2317103 0.2303956 0.2289018
 0.2278545 0.2273926 0.2270425 0.2264503 0.2253282 0.222289 0.2151527 0.2040025 0.193147 0.1877156
 0.1882132 0.1908393 0.193122 0.1953527 0.195335 0.1869326 0.1681886 0.1479536 0.1394538 0.1475208
 0.1649885 0.1808324 0.1886165 0.1870481 0.1766495 0.159902 0.1438775 0.1380799 0.1467175 0.164649
 0.1828513 0.196196 0.2041209 0.2063512 0.2018576 0.191868 0.1811688 0.1754081 0.1776145 0.186812
 0.1983928 0.2053785 0.2017992 0.188557 0.1760908 0.176754 0.1919001 0.2097201 0.218525 0.2186163
 0.2177247 0.2189856 0.2192914 0.2176096 0.2184231 0.2255149 0.2363643 0.2446268 0.2457058 0.2385658
 0.225174 0.2110109 0.2036569 0.2066756 0.2155038 0.2223745 0.2238249 0.2202362 0.2112418 0.1976991
 0.186612 0.1869124 0.1991079 0.214098 0.2235107 0.227322 0.2300817 0.2330887 0.2328451 0.2264046
 0.2163393 0.2091708 0.2089192 0.213568 0.2184425 0.2211373 0.2215316 0.2189781 0.2127144 0.2050454
 0.2013579 0.2054114 0.2154139 0.2256865 0.231732 0.2330229 0.2316276 0.2295449 0.2273915 0.2245818
 0.2206313 0.2168541 0.216127 0.2198209 0.2256203 0.2299028 0.2318956 0.2339436 0.2378243 0.2423003
 0.2446288 0.2435556 0.2404992 0.238301 0.2389401 0.2419674 0.2448451 0.2451138 0.242734 0.2403443
 0.2408315 0.2445786 0.2494239 0.2531249 0.2551813 0.2563548 0.2573566 0.2582322 0.2583352 0.256815
 0.2538259 0.2512362 0.2513019 0.2544171 0.2587325 0.2620685 0.2636847 0.2641343 0.2640342 0.2634245
 0.2621511 0.260468 0.2590469 0.2584376 0.2586694 0.2593918 0.2602418 0.2610058 0.2615907 0.2619938
 0.2622676 0.2624482 0.2625456 0.2626016 0.2626715 0.2627327 0.2627068 0.2626128 0.2626063 0.2628002
 0.2631113 0.2633451 0.2633719 0.2631433 0.2625996 0.2616852 0.2604529 0.2590407 0.2575123 0.2558267
 0.2540652 0.2526502 0.2522017 0.2530803 0.2550614 0.2574748 0.2596487 0.2612349 0.2622143 0.2627304
 0.2629571 0.2630388 0.2630566 0.2630172 0.2628886 0.262653 0.262329 0.2619538 0.2615606 0.2611768
 0.2608278 0.2605288 0.2602658 0.2599949 0.2596672 0.2592574 0.2587759 0.2582555 0.2577228 0.257172
 0.2565619 0.2558429 0.2549942 0.254048 0.2530821 0.2521788 0.2513709 0.2506216 0.2498645 0.249056
 0.2481745 0.2471888 0.2460801 0.2449123 0.2438326 0.2429595 0.2422779 0.2416672 0.2410092 0.2402455
 0.239363 0.238375 0.2373194 0.2362408 0.2351588 0.2340582 0.2329032 0.2316594 0.2303138 0.2288788
 0.2273714 0.2258016 0.2241883 0.222562 0.2209163 0.2191668 0.2171777 0.2148232 0.212008 0.2086569
 0.2047303 0.2002711 0.1954333 0.1904475 0.185542 0.1808837 0.1765818 0.1727253 0.1694003 0.1666808
 0.1646211 0.1632568 0.1626043 0.1626576 0.1633917 0.1647673 0.1667263 0.1691767 0.17198 0.1749603
 0.1779342 0.180747 0.1833112 0.1856374 0.1878103 0.1898991 0.1918872 0.1937055 0.1953105 0.1967055
 0.1979035 0.1989097 0.1997359 0.2004093 0.2009637 0.2014301 0.2018335 0.2021913 0.2025113 0.2027916
 0.2030265 0.2032186 0.2033863 0.2035562 0.2037522 0.2039888 0.204268 0.2045902 0.2049682 0.2054181
 0.2059317 0.206478 0.2070386 0.2076219 0.2082389 0.2088923 0.2095982 0.2104007 0.2113507 0.2124714
 0.2137437 0.2151154 0.2165156 0.2178598 0.2190585 0.2200438 0.220791 0.2213069 0.2216053 0.2217075
 0.2216484 0.2214624 0.2211689 0.2207818 0.2203218 0.2198069 0.2192404 0.2186203 0.2179534 0.2172571
 0.2165505 0.2158513 0.2151727 0.2145144 0.2138597 0.2131957 0.2125362 0.2119131 0.2113395 0.2107958
 0.2102524 0.2096945 0.2091237 0.2085491 0.207979 0.207404 0.2067861 0.2060752 0.205244 0.2043014
 0.2032721 0.2021738 0.2010119 0.1997839 0.198477 0.1970721 0.1955606 0.1939562 0.1922836 0.1905544
 0.1887568 0.1868684 0.1848884 0.1828623 0.1808717 0.1789919 0.1772543 0.1756459 0.1741384 0.1727151
 0.1713764 0.1701199 0.1689257 0.1677729 0.1666612 0.1656033 0.164604 0.1636618 0.1627829 0.1619822
 0.1612724 0.1606563 0.1601244 0.1596603 0.1592524 0.1589014 0.158623 0.1584467 0.1583935 0.158439
 0.1585121 0.1585429 0.1585011 0.1583946 0.1582537 0.1581159 0.1580034 0.1579179 0.1578534 0.1577899
 0.1576644 0.1573733 0.1568157 0.1559323 0.1547187 0.1532182 0.1515024 0.1496626 0.1478213 0.1461198
 0.1446674 0.1435106 0.1426421 0.1420087 0.141522 0.1411108 0.1407736 0.1405704 0.1405646 0.1407554
 0.141035 0.1412411 0.1413015 0.1413137 0.1414576 0.1418502 0.1424809 0.1432352 0.1439714 0.144602
 0.145107 0.1454835 0.1457317 0.1458777 0.1459481 0.1459329 0.1458207 0.1456384 0.1454157 0.1451487
 0.1448162 0.1443984 0.143885 0.143292 0.14264 0.1419138 0.1410888 0.140174 0.1391666 0.1380253
 0.1367836 0.135646 0.1348965 0.1347278 0.1351485 0.1359852 0.1369995 0.1380527 0.1390845 0.1399239
 0.140327 0.1403535 0.1405631 0.141617 0.1436481 0.1461067 0.1482449 0.1496682 0.1503843 0.1504966
 0.1500534 0.1491027 0.1476686 0.1457081 0.1432296 0.1403714 0.1372951 0.1341446 0.1311223 0.1284259
 0.1261341 0.1242583 0.1228044 0.1218103 0.121397 0.1211969 0.1193297 0.1133713 0.1040984 0.09716998
 0.09835932 0.1070566 0.1166974 0.1216887 0.1218501 0.1201425 0.1186352 0.1176607 0.1171232 0.117169
 0.1179245 0.1192324 0.1206893 0.12189 0.1226701 0.1230604 0.1230027 0.1221259 0.1197029 0.1149095
 0.1074932 0.09834459 0.08919904 0.08163713 0.0763699 0.07325798 0.07167767 0.07088715 0.07037671 0.07009369
 0.07033642 0.07139847 0.07332376 0.07596724 0.07914408 0.08259602 0.08591068 0.08869609 0.09086682 0.09261207
 0.09406832 0.09515528 0.09573568 0.09579901 0.09545442 0.09483826 0.09406769 0.0932156 0.09227037 0.09115902
 0.08989367 0.08868756 0.08782673 0.08740653 0.08727887 0.08725472 0.08725243 0.08725496 0.08724216 0.08719536
 0.08711931 0.08706984 0.08716437 0.08749491 0.08800679 0.08851818 0.08886854 0.08902548 0.08906387 0.08903455
 0.08883654 0.08831247 0.08753885 0.08684992 0.08640368 0.08589406 0.08493981 0.08365758 0.08260395 0.08218451
 0.08230907 0.08259775 0.08273862 0.08263801 0.08241788 0.08235983 0.08270085 0.08333798 0.08382396 0.08379062
</values></Ydata></ScRf><Data_Parameters_AB><parameter name="DPF">1</parameter><parameter name="NPT">3497</parameter><parameter name="FXV">3996</parameter><parameter name="LXV">500</parameter><parameter name="CSF">1</parameter><parameter name="MXY">0.0279419589787722</parameter><parameter name="MNY">-0.120701119303703</parameter><parameter name="DAT">27/05/2022</parameter><parameter name="TIM">11:21:17.253 (GMT+2)</parameter><parameter name="DXU">WN</parameter></Data_Parameters_AB><AB__Qtest><MainReport name="Quality Test Report"><Header><Line><Legend>Test result ok/not ok [1/0]: </Legend><Value>0</Value></Line><Line><Legend>Method file: </Legend><Value>C:\Users\Public\Documents\Bruker\OPUS_8.2.28\QT\IRBT_v3_default.QT</Value></Line></Header><Matrix><Line><Legend></Legend><Legend>min</Legend><Legend>max</Legend><Legend>measured</Legend></Line><Line><Value>Absorption (X-Range 1):</Value><Value>0.400000</Value><Value>2.000000</Value><Value>0.114495</Value></Line><Line><Value>Noise (X-Range 4):</Value><Value></Value><Value>0.000300</Value><Value>0.000056</Value></Line><Line><Value>Signal/Noise (X-Range 2):</Value><Value>200.000000</Value><Value></Value><Value>30.217672</Value></Line><Line><Value>Signal/Noise (X-Range 3):</Value><Value>40.000000</Value><Value></Value><Value>19.678677</Value></Line><Line><Value>Water vapour (X-Range 5):</Value><Value></Value><Value>0.000300</Value><Value>0.000027</Value></Line><Line><Value>Signal/Water (X-Range 2):</Value><Value>100.000000</Value><Value></Value><Value>62.588074</Value></Line><Line><Value>Signal/Water (X-Range 3):</Value><Value>20.000000</Value><Value></Value><Value>40.759278</Value></Line><Line><Value>Fringes (X-Range 6):</Value><Value></Value><Value>0.000100</Value><Value>0.000057</Value></Line></Matrix></MainReport></AB__Qtest><Data_Parameters_ScSm><parameter name="DPF">1</parameter><parameter name="NPT">1814</parameter><parameter name="FXV">3996.33169228125</parameter><parameter name="LXV">499.541461535156</parameter><parameter name="CSF">1</parameter><parameter name="MXY">0.294153690338135</parameter><parameter name="MNY">0.0381419435143471</parameter><parameter name="DAT">27/05/2022</parameter><parameter name="TIM">11:21:17.253 (GMT+2)</parameter><parameter name="DXU">WN</parameter></Data_Parameters_ScSm><Data_Parameters_ScRf><parameter name="DPF">1</parameter><parameter name="NPT">1820</parameter><parameter name="FXV">4004.04661832813</parameter><parameter name="LXV">495.683998511719</parameter><parameter name="CSF">1</parameter><parameter name="MXY">0.264134347438812</parameter><parameter name="MNY">0.0288940519094467</parameter><parameter name="DAT">27/05/2022</parameter><parameter name="TIM">11:20:52.375 (GMT+2)</parameter><parameter name="DXU">WN</parameter></Data_Parameters_ScRf><Optic_Parameters_Rf><parameter name="APR">0</parameter><parameter name="APT">Open</parameter><parameter name="BMS">KBr</parameter><parameter name="DTC">RT-DLaTGS_IR-Biotyper [Microplate reader]</parameter><parameter name="HPF">0</parameter><parameter name="LPF">10.0</parameter><parameter name="LPV">4000</parameter><parameter name="PGR">0</parameter><parameter name="RCH">Module port</parameter><parameter name="RDX">0</parameter><parameter name="SRC">MIR</parameter><parameter name="VEL">10.0</parameter><parameter name="SON">Off</parameter></Optic_Parameters_Rf><Acquisition_Parameters_Rf><parameter name="ADT">1</parameter><parameter name="AQM">DD</parameter><parameter name="CFE">0</parameter><parameter name="COR">0</parameter><parameter name="DEL">0</parameter><parameter name="DLY">0</parameter><parameter name="HFW">8000</parameter><parameter name="LFW">0</parameter><parameter name="NSR">32</parameter><parameter name="PLF">AB</parameter><parameter name="RES">6</parameter><parameter name="RGN">-1</parameter><parameter name="STR">0</parameter><parameter name="TCL">MakeCompatibleScalar (0, {WSV=1.000000, ARV=0});</parameter><parameter name="TDL">37</parameter><parameter name="RPO">0</parameter></Acquisition_Parameters_Rf><FT_-_Parameters_Rf><parameter name="APF">B3</parameter><parameter name="HFQ">500</parameter><parameter name="LFQ">4000</parameter><parameter name="NLI">0</parameter><parameter name="PHR">24</parameter><parameter name="PHZ">ML</parameter><parameter name="SPZ">NO</parameter><parameter name="ZFF">1</parameter></FT_-_Parameters_Rf><Optic_Parameters_><parameter name="APR">0</parameter><parameter name="APT">Open</parameter><parameter name="BMS">KBr</parameter><parameter name="CHN">Module port</parameter><parameter name="DTC">RT-DLaTGS_IR-Biotyper [Microplate reader]</parameter><parameter name="HPF">0</parameter><parameter name="LPF">10.0</parameter><parameter name="LPV">4000</parameter><parameter name="PGN">0</parameter><parameter name="RDX">0</parameter><parameter name="SRC">MIR</parameter><parameter name="VEL">10.0</parameter><parameter name="SON">Off</parameter></Optic_Parameters_><FT_-_Parameters_><parameter name="APF">B3</parameter><parameter name="HFQ">500</parameter><parameter name="LFQ">4000</parameter><parameter name="NLI">0</parameter><parameter name="PHR">24</parameter><parameter name="PHZ">ML</parameter><parameter name="SPZ">NO</parameter><parameter name="ZFF">1</parameter></FT_-_Parameters_><Acquisition_Parameters_><parameter name="ADT">1</parameter><parameter name="AQM">DD</parameter><parameter name="CFE">0</parameter><parameter name="COR">0</parameter><parameter name="DEL">0</parameter><parameter name="DLY">0</parameter><parameter name="HFW">8000</parameter><parameter name="LFW">0</parameter><parameter name="NSS">32</parameter><parameter name="PLF">AB</parameter><parameter name="RES">6</parameter><parameter name="SOT">0</parameter><parameter name="TCL">MakeCompatibleScalar (0, {WSV=1.000000, ARV=0});</parameter><parameter name="TDL">37</parameter><parameter name="SPO">0</parameter><parameter name="SGN">-1</parameter></Acquisition_Parameters_><Instrument_Parameters_Rf><parameter name="HFL">15800.168544</parameter><parameter name="LFL">0</parameter><parameter name="LWN">15800.168544</parameter><parameter name="ABP">32197</parameter><parameter name="SSP">1</parameter><parameter name="ARG">2</parameter><parameter name="ASG">2</parameter><parameter name="ASS">32</parameter><parameter name="GFW">16</parameter><parameter name="GBW">16</parameter><parameter name="BFW">0</parameter><parameter name="BBW">0</parameter><parameter name="PKA">7271</parameter><parameter name="PKL">4996</parameter><parameter name="PRA">7448</parameter><parameter name="PRL">5001</parameter><parameter name="P2A">1</parameter><parameter name="P2L">1</parameter><parameter name="P2R">1</parameter><parameter name="P2K">1</parameter><parameter name="DAQ">0</parameter><parameter name="AG2">1</parameter><parameter name="SSM">1</parameter><parameter name="RSN">24832</parameter><parameter name="CRR">0</parameter><parameter name="SRT">1653650452.376</parameter><parameter name="DUR">19.635986328125</parameter><parameter name="TSC">27.2</parameter><parameter name="MVD">0.277405202388763</parameter><parameter name="AN1">0.225808617199276</parameter><parameter name="AN2">0</parameter><parameter name="VSN">2.485 Apr  4 2017</parameter><parameter name="SRN">0085</parameter><parameter name="CAM">0</parameter><parameter name="INS">IR-Biotyper</parameter><parameter name="FOC">69</parameter><parameter name="RDY">1</parameter><parameter name="ARS">32</parameter></Instrument_Parameters_Rf><Sample_Parameters_><parameter name="BLD"></parameter><parameter name="CNM">Admin</parameter><parameter name="CPY"></parameter><parameter name="DPM"></parameter><parameter name="EXP">IRBT_v3_32Scans.XPM</parameter><parameter name="LCT"></parameter><parameter name="SFM">Microplate, HTS-XT</parameter><parameter name="SNM">220527-1039(v.2)_CLA33F (D_3)_H2_428e950b-7f8d-4827-83c2-d11dc0f749f2.0</parameter><parameter name="XPP">C:\Users\Public\Documents\Bruker\OPUS_8.2.28\XPM</parameter><parameter name="IST">OK</parameter><parameter name="CPG">1252</parameter><parameter name="UID">631d5835-73da-41e2-9b42-3e8692cef179</parameter></Sample_Parameters_><Instrument_Parameters_><parameter name="HFL">15800.168544</parameter><parameter name="LFL">0</parameter><parameter name="LWN">15800.168544</parameter><parameter name="ABP">32197</parameter><parameter name="SSP">1</parameter><parameter name="ASG">2</parameter><parameter name="ARG">2</parameter><parameter name="ASS">32</parameter><parameter name="GFW">16</parameter><parameter name="GBW">16</parameter><parameter name="BFW">0</parameter><parameter name="BBW">0</parameter><parameter name="PKA">8494</parameter><parameter name="PKL">4988</parameter><parameter name="PRA">8768</parameter><parameter name="PRL">4993</parameter><parameter name="P2A">1</parameter><parameter name="P2L">1</parameter><parameter name="P2R">1</parameter><parameter name="P2K">1</parameter><parameter name="DAQ">0</parameter><parameter name="AG2">1</parameter><parameter name="SSM">1</parameter><parameter name="RSN">13042</parameter><parameter name="CRR">0</parameter><parameter name="SRT">1653650477.253</parameter><parameter name="DUR">19.635986328125</parameter><parameter name="TSC">27.2</parameter><parameter name="MVD">0.294863611459732</parameter><parameter name="AN1">0.225801093848317</parameter><parameter name="AN2">0</parameter><parameter name="VSN">2.485 Apr  4 2017</parameter><parameter name="SRN">0085</parameter><parameter name="CAM">0</parameter><parameter name="INS">IR-Biotyper</parameter><parameter name="FOC">69</parameter><parameter name="RDY">1</parameter></Instrument_Parameters_><History/></OPUSDataFile>
