<?xml version="1.0" encoding="UTF-8" ?>
<OPUSDataFile><AB><Ydata ylabel="Absorbance Units"><values byteorder="INTEL" format="FLOAT32" numvalues="3497"> -0.07884615 -0.07884461 -0.07884029 -0.07883327 -0.07882278 -0.07880876 -0.07878496 -0.07875116 -0.07870157 -0.07863845
 -0.07857127 -0.07850367 -0.07845472 -0.07842325 -0.07841737 -0.07843106 -0.07845736 -0.07849418 -0.07853576 -0.07858407
 -0.07864115 -0.07870086 -0.07876354 -0.07881264 -0.0788415 -0.07884239 -0.07880896 -0.07875696 -0.07868659 -0.07862207
 -0.07856616 -0.07852834 -0.07850925 -0.07850298 -0.07850933 -0.07852403 -0.07854798 -0.07858536 -0.07863529 -0.07869859
 -0.07877013 -0.07883841 -0.07889906 -0.07893778 -0.07895887 -0.07895924 -0.07895138 -0.07894415 -0.07894585 -0.07896645
 -0.07899742 -0.07904108 -0.07907458 -0.07909288 -0.07907905 -0.07902705 -0.07894792 -0.07884042 -0.07874013 -0.07864898
 -0.07859925 -0.07859056 -0.07862672 -0.07870322 -0.07879511 -0.078899 -0.07898854 -0.07906561 -0.07912159 -0.07915936
 -0.07918094 -0.07918538 -0.07917258 -0.07914083 -0.0790872 -0.079016 -0.07892624 -0.07883129 -0.0787344 -0.07865133
 -0.07858696 -0.07854873 -0.07853916 -0.07855672 -0.07860167 -0.07866987 -0.07876112 -0.07887014 -0.07899639 -0.07913259
 -0.07927683 -0.07941569 -0.07954413 -0.07963659 -0.07968971 -0.07967792 -0.07961272 -0.07949743 -0.07935493 -0.07921308
 -0.07908698 -0.07900161 -0.07895014 -0.07893958 -0.07894541 -0.07895953 -0.07896651 -0.07895797 -0.07894325 -0.07892188
 -0.0789092 -0.07890751 -0.07891603 -0.07893489 -0.0789509 -0.07896402 -0.07896978 -0.07897092 -0.07898197 -0.0790059
 -0.07906369 -0.07915097 -0.07927188 -0.07941062 -0.07954306 -0.07965625 -0.079721 -0.0797456 -0.07972609 -0.07967559
 -0.07960279 -0.07950694 -0.07938726 -0.07925215 -0.07909784 -0.0789628 -0.07885055 -0.07880712 -0.07883959 -0.07895479
 -0.07915429 -0.07934007 -0.07950513 -0.07951474 -0.07938519 -0.07915318 -0.07884352 -0.07857449 -0.07834385 -0.07820699
 -0.07814722 -0.07816555 -0.07823464 -0.07832555 -0.07841019 -0.07845169 -0.07844994 -0.07838729 -0.07829926 -0.07819541
 -0.07810292 -0.07803445 -0.07798314 -0.07795019 -0.07792325 -0.07790012 -0.07788693 -0.07788388 -0.07790352 -0.07794553
 -0.078008 -0.07808802 -0.0781665 -0.0782401 -0.07828551 -0.0783024 -0.07827684 -0.07821351 -0.07811236 -0.07798285
 -0.07783449 -0.07767946 -0.07752973 -0.07739637 -0.07728842 -0.07721312 -0.07717601 -0.07717723 -0.0772199 -0.07729174
 -0.07739321 -0.07749998 -0.07761081 -0.07769294 -0.07774442 -0.0777335 -0.07766026 -0.07752069 -0.07732012 -0.07709096
 -0.07683881 -0.0766028 -0.07638367 -0.07620309 -0.07605866 -0.07595705 -0.07589263 -0.07586423 -0.07585799 -0.07586445
 -0.07586572 -0.0758464 -0.07580612 -0.07573695 -0.07566099 -0.07558239 -0.07551906 -0.07547688 -0.07545 -0.07543897
 -0.0754303 -0.07542309 -0.07541358 -0.07540183 -0.07538941 -0.07537601 -0.07536046 -0.07534201 -0.0753166 -0.07528476
 -0.07524483 -0.07520005 -0.07515485 -0.07511329 -0.07508252 -0.07506369 -0.07505978 -0.07507206 -0.07510027 -0.07515194
 -0.07523108 -0.07533859 -0.07548171 -0.07562622 -0.0757718 -0.07585824 -0.07587764 -0.0758055 -0.07563919 -0.07540169
 -0.07509541 -0.07476194 -0.07440565 -0.07407719 -0.073778 -0.07354245 -0.07336579 -0.07325489 -0.07320031 -0.07319235
 -0.07321323 -0.07323868 -0.07325216 -0.07322714 -0.07316964 -0.07307275 -0.07295616 -0.0728272 -0.07269572 -0.0725681
 -0.07243633 -0.07230044 -0.07214905 -0.07197983 -0.07179826 -0.07160431 -0.07141563 -0.07123315 -0.07107386 -0.07093803
 -0.07083794 -0.0707691 -0.07072422 -0.07068986 -0.0706244 -0.0705252 -0.07036043 -0.07015441 -0.06992663 -0.06969188
 -0.0694766 -0.06926429 -0.06905497 -0.06882441 -0.06855899 -0.06825932 -0.06791852 -0.06756432 -0.06720002 -0.06685097
 -0.06652176 -0.06621288 -0.06592526 -0.06562784 -0.06531882 -0.06496167 -0.06456054 -0.06412703 -0.06366929 -0.06323046
 -0.06280718 -0.062413 -0.06204006 -0.06167975 -0.06132774 -0.06097764 -0.0606197 -0.06024631 -0.05984111 -0.05939072
 -0.05889092 -0.05833578 -0.05773006 -0.05707525 -0.056368 -0.05560562 -0.05480149 -0.05395493 -0.05309949 -0.05223763
 -0.05138089 -0.05052898 -0.04967196 -0.04881063 -0.04794594 -0.04708076 -0.04622835 -0.04538908 -0.04457111 -0.04377252
 -0.04299629 -0.04223289 -0.04148056 -0.04070378 -0.03987396 -0.03895522 -0.03789831 -0.03675663 -0.03552905 -0.03431283
 -0.03314683 -0.0320318 -0.03097991 -0.0299371 -0.02889756 -0.02783201 -0.02673742 -0.02562143 -0.02448546 -0.02336076
 -0.02224835 -0.02117556 -0.02013265 -0.01909917 -0.01805274 -0.01691314 -0.01568723 -0.01433358 -0.01291173 -0.01148944
 -0.01008994 -0.008771224 -0.007494168 -0.006251543 -0.005007564 -0.003739945 -0.00245077 -0.00113342 0.0001899976 0.001514817
 0.002835287 0.004148398 0.005472296 0.006807819 0.008178182 0.009583239 0.01101556 0.01247062 0.01390737 0.01532672
 0.01670802 0.01806121 0.01940447 0.02074258 0.02209383 0.02345687 0.02483574 0.02623297 0.02765423 0.02909431
 0.03055586 0.03201842 0.03347016 0.03491304 0.03633975 0.03778474 0.03925607 0.04076095 0.04230489 0.04384642
 0.04538253 0.04689827 0.04839455 0.04990218 0.05142144 0.05296966 0.05454152 0.05612344 0.05770987 0.05927895
 0.06082718 0.06233521 0.06380881 0.06524104 0.06665787 0.06807851 0.06952887 0.07103905 0.07259254 0.07419447
 0.0758061 0.07741205 0.0790128 0.08060423 0.08220416 0.08381613 0.08543222 0.08705242 0.08865987 0.09025422
 0.0918331 0.09339726 0.09495161 0.09649679 0.09803798 0.09957568 0.1011149 0.1026536 0.1041898 0.1057223
 0.1072468 0.1087684 0.110291 0.1118174 0.1133514 0.1148905 0.1164319 0.1179846 0.1195497 0.1211405
 0.122763 0.1244034 0.1260627 0.1277076 0.1293354 0.1309303 0.1324921 0.1340223 0.135522 0.136996
 0.138448 0.1398969 0.1413459 0.1428183 0.1443044 0.1457983 0.1472867 0.1487445 0.1501773 0.1515783
 0.1529652 0.1543488 0.1557375 0.1571391 0.1585516 0.1599783 0.1614051 0.1628324 0.164231 0.1655967
 0.1669164 0.1681877 0.1694393 0.1706727 0.1719206 0.1731819 0.1744594 0.1757529 0.1770622 0.1783893
 0.1797438 0.1811181 0.1825034 0.1838883 0.1852491 0.1865906 0.1879069 0.1892101 0.1905095 0.1918021
 0.1930905 0.1943644 0.1956205 0.1968554 0.198068 0.1992569 0.2004216 0.2015649 0.2026867 0.2037931
 0.204884 0.2059472 0.2069821 0.2079728 0.208928 0.2098767 0.2108335 0.2118612 0.2129543 0.2141385
 0.215384 0.2166606 0.2179435 0.2191942 0.2204114 0.2215809 0.2227147 0.2238145 0.2248921 0.2259527
 0.2269977 0.2280296 0.2290371 0.2300182 0.2309697 0.2318904 0.2328013 0.2337036 0.2346199 0.2355487
 0.2364876 0.237432 0.2383596 0.2392671 0.2401306 0.2409535 0.2417268 0.2424672 0.2431921 0.2439205
 0.2446814 0.2454722 0.2463036 0.247156 0.2480214 0.2488923 0.2497643 0.2506364 0.2515101 0.2523683
 0.253209 0.2540195 0.2547977 0.2555591 0.2563042 0.2570483 0.2577898 0.258518 0.2592315 0.2599154
 0.2605719 0.261199 0.2617989 0.2623732 0.2629275 0.2634684 0.2640067 0.2645575 0.2651198 0.2657022
 0.266284 0.2668579 0.2674087 0.2679269 0.2684208 0.2688886 0.2693501 0.2698078 0.2702753 0.2707543
 0.2712412 0.2717354 0.2722128 0.2726724 0.2730928 0.2734783 0.2738367 0.2741748 0.2745182 0.2748672
 0.2752362 0.27562 0.2760178 0.2764224 0.2768277 0.2772247 0.2776026 0.2779654 0.2783056 0.2786553
 0.2790219 0.2794363 0.2799129 0.2804296 0.2809905 0.281526 0.2820308 0.2824521 0.2827882 0.2830461
 0.2832302 0.283386 0.2835152 0.2836498 0.2837858 0.2839237 0.2840675 0.2842208 0.284402 0.284643
 0.2849451 0.2853346 0.285766 0.2862208 0.2866468 0.2870044 0.2873046 0.2875329 0.2877548 0.2879833
 0.2882585 0.2885927 0.2889592 0.2893586 0.2897293 0.2900684 0.2903287 0.2905125 0.2906196 0.2906613
 0.2906914 0.2907234 0.2908315 0.2910148 0.2913138 0.2917031 0.2921691 0.2926716 0.2931654 0.2936223
 0.2940018 0.2943148 0.2945479 0.2947488 0.2949278 0.2951315 0.2953728 0.2956738 0.2960384 0.296485
 0.2970149 0.2976562 0.2984099 0.2992746 0.3002428 0.3012408 0.302252 0.3031518 0.3039327 0.304496
 0.3048664 0.3050352 0.3050624 0.305028 0.3049896 0.3050464 0.3051951 0.3054812 0.3058266 0.3062139
 0.3065468 0.3067874 0.3068887 0.3068264 0.3066246 0.306278 0.3058585 0.3053707 0.3048834 0.3043997
 0.3039396 0.3035004 0.3030588 0.302614 0.3021486 0.3016695 0.3011924 0.3007199 0.3002734 0.2998318
 0.2993826 0.2988801 0.2982749 0.297527 0.2965828 0.295457 0.2941262 0.2926783 0.2911278 0.2895859
 0.2880815 0.2866741 0.2853809 0.2841895 0.2831022 0.2820722 0.2810971 0.2801277 0.2791628 0.2781685
 0.2771502 0.2761145 0.2750731 0.2740712 0.2731074 0.2722092 0.2713487 0.2704969 0.2696271 0.2686896
 0.2677033 0.2666538 0.2656057 0.2645834 0.2636479 0.2628309 0.2621407 0.2615945 0.2611324 0.2607543
 0.2603587 0.2599367 0.2594146 0.2587889 0.2580748 0.2572796 0.2564908 0.2557143 0.2550296 0.2544307
 0.2539412 0.2535486 0.2532384 0.2529976 0.2528039 0.2526396 0.2524807 0.2523078 0.2520976 0.2518445
 0.2515369 0.2511859 0.250795 0.250365 0.2499021 0.2493718 0.2487724 0.2480534 0.2472093 0.2462229
 0.2450934 0.2438558 0.242514 0.2411242 0.2396894 0.2382541 0.2368205 0.2354186 0.2340509 0.2327389
 0.23148 0.2302818 0.2291328 0.2280249 0.2269442 0.2258777 0.224818 0.2237566 0.2226958 0.2216335
 0.2205779 0.2195308 0.2184971 0.2174788 0.2164701 0.2154709 0.2144715 0.2134713 0.212467 0.2114585
 0.2104456 0.2094274 0.208399 0.2073612 0.2063122 0.2052576 0.2042093 0.2031726 0.2021634 0.201178
 0.2002196 0.1992793 0.1983481 0.1974313 0.196523 0.1956527 0.1948288 0.1940755 0.1934083 0.1927946
 0.1922399 0.1916479 0.1910113 0.1902438 0.1893409 0.1883114 0.1871639 0.1860038 0.1848419 0.183798
 0.1828652 0.1820929 0.1814478 0.1808849 0.1803589 0.1797743 0.1791149 0.1783117 0.1774108 0.176414
 0.1754006 0.1744169 0.1734966 0.1726718 0.1719075 0.1712011 0.1705197 0.1698519 0.1692273 0.1686459
 0.1681619 0.1677783 0.1674946 0.1673045 0.1671308 0.1669629 0.166697 0.1663336 0.1658121 0.165156
 0.1643835 0.1635316 0.1626701 0.1618153 0.1610205 0.160263 0.1595434 0.1588361 0.1581187 0.1574101
 0.1567073 0.1560506 0.1554551 0.1549129 0.1544302 0.1539511 0.1534696 0.1529639 0.1524324 0.1519244
 0.1514428 0.1510425 0.1507172 0.1504598 0.1502574 0.1500599 0.1498633 0.149632 0.1493727 0.1490817
 0.1487633 0.1484249 0.1480562 0.1476563 0.1472009 0.1466769 0.1460671 0.1453546 0.1445653 0.1436927
 0.1428146 0.1419398 0.1411472 0.1404486 0.139851 0.1393556 0.1388829 0.138427 0.137889 0.1372724
 0.1365425 0.1357188 0.134851 0.1339594 0.1331214 0.1323362 0.1316433 0.1310178 0.1304487 0.1299075
 0.1293665 0.1288134 0.1282313 0.1276282 0.1270006 0.1263705 0.1257423 0.1251353 0.1245563 0.1239937
 0.1234496 0.1228761 0.1222705 0.1215965 0.1208567 0.120079 0.1192714 0.1185013 0.1177647 0.1170883
 0.1164516 0.1158162 0.115172 0.1144761 0.1137511 0.1130018 0.1122634 0.1115694 0.1109302 0.1103649
 0.1098582 0.1094074 0.1090035 0.1086409 0.108331 0.1080753 0.1078808 0.1077507 0.1076558 0.107595
 0.1075043 0.1073806 0.1071632 0.1068556 0.106443 0.1059392 0.1053829 0.1047914 0.1042256 0.1036958
 0.1032478 0.1028809 0.1026139 0.1024365 0.1023486 0.102334 0.1023851 0.1024856 0.102628 0.1028015
 0.1030014 0.1032247 0.1034687 0.1037434 0.1040476 0.1044137 0.1048433 0.1053871 0.1060469 0.1068595
 0.10782 0.1089188 0.1101433 0.1114428 0.1128059 0.1141776 0.1155553 0.1169081 0.1182421 0.1195507
 0.1208463 0.1221343 0.1234334 0.1247543 0.126114 0.1275257 0.1289795 0.1304854 0.1319796 0.1334613
 0.1348222 0.1360527 0.1370566 0.1378272 0.1383393 0.138596 0.1386436 0.138489 0.1381973 0.1377725
 0.1372601 0.1366706 0.1360431 0.1354096 0.1348334 0.1343631 0.1340784 0.134018 0.134243 0.1347591
 0.1355927 0.1367127 0.1381225 0.1397554 0.1416053 0.1435701 0.1456368 0.1476984 0.1497413 0.1517109
 0.1536025 0.1554259 0.1571809 0.1588759 0.1605017 0.1620046 0.1633701 0.16451 0.1654242 0.1660648
 0.1664463 0.1665786 0.1664553 0.1660899 0.1654214 0.1644185 0.1629855 0.1610555 0.1585821 0.155507
 0.1519219 0.1478097 0.1434117 0.1387491 0.13412 0.1295566 0.1252803 0.1213081 0.1177098 0.1144824
 0.1115746 0.108977 0.1066037 0.1044497 0.1024528 0.1006086 0.09887774 0.0972495 0.0956881 0.09418471
 0.09271014 0.09127431 0.08987023 0.08852708 0.08725791 0.08609043 0.08504009 0.08411603 0.08332486 0.08266182
 0.08212702 0.08171577 0.0814273 0.08126261 0.08122188 0.08130091 0.08149716 0.08177126 0.08211143 0.08242095
 0.08268325 0.08277676 0.08270279 0.08239123 0.08188047 0.0811947 0.08039989 0.07958058 0.07880175 0.07814468
 0.0776528 0.0773747 0.07732461 0.07752355 0.07795394 0.07862148 0.07947616 0.08051793 0.08165806 0.0828957
 0.08407064 0.08517574 0.08594251 0.08635344 0.08608337 0.08513046 0.08329827 0.08064682 0.07728141 0.0733247
 0.06913856 0.06483471 0.06079144 0.05702743 0.05373653 0.05083855 0.04833871 0.04613028 0.0441489 0.04233294
 0.04063874 0.03905485 0.03756985 0.03618584 0.03490297 0.03371479 0.03262134 0.03160954 0.03067868 0.02981407
 0.02901481 0.02826573 0.02756521 0.02689462 0.02625228 0.02561992 0.02500019 0.02438841 0.02379366 0.02323139
 0.02270535 0.02223257 0.02179524 0.02138897 0.02098126 0.02054914 0.02007987 0.01955513 0.0190045 0.01842789
 0.0178753 0.01735739 0.0168973 0.01650215 0.01614599 0.01582811 0.01550206 0.01516675 0.01480415 0.01441809
 0.01402956 0.01364006 0.01327037 0.01291149 0.01255037 0.01217722 0.01176323 0.01131606 0.01082887 0.01032565
 0.009824873 0.009345267 0.008905875 0.00850716 0.008155549 0.007840232 0.00756118 0.007300851 0.007058094 0.006806302
 0.006542628 0.006244314 0.005909133 0.005540823 0.005140678 0.004737635 0.004333185 0.003953012 0.003594632 0.003261514
 0.002949874 0.002650491 0.002362865 0.002081401 0.001807886 0.00154283 0.001286537 0.001039533 0.0008016554 0.0005722638
 0.000353773 0.0001472775 -4.627932E-05 -0.000224189 -0.000397621 -0.0005662988 -0.0007525103 -0.0009591818 -0.001198528 -0.001472205
 -0.00176562 -0.002077514 -0.002380404 -0.002674646 -0.002949204 -0.003208379 -0.003465073 -0.003722112 -0.003996141 -0.004282178
 -0.004581168 -0.004880934 -0.005166037 -0.005427401 -0.005647575 -0.005835034 -0.005984377 -0.006124894 -0.006265375 -0.006436652
 -0.00665176 -0.006916767 -0.007238251 -0.007593475 -0.007981798 -0.00837143 -0.008760043 -0.009127571 -0.009473572 -0.009794679
 -0.01009202 -0.0103725 -0.01063744 -0.010896 -0.01114902 -0.01140344 -0.0116595 -0.01192126 -0.01218743 -0.01245891
 -0.01273162 -0.01300293 -0.01326711 -0.01351936 -0.01375788 -0.0139793 -0.01418958 -0.01438866 -0.01458726 -0.01478724
 -0.01499721 -0.01521866 -0.01545463 -0.01570564 -0.01596769 -0.01624024 -0.01651132 -0.01677943 -0.01702678 -0.01725295
 -0.0174447 -0.01760666 -0.01774273 -0.01786269 -0.01798735 -0.01812301 -0.01828927 -0.01848063 -0.01870067 -0.01893736
 -0.01918305 -0.01943305 -0.01968178 -0.01993502 -0.02019355 -0.02046164 -0.02074149 -0.02102721 -0.02131895 -0.02160552
 -0.02188611 -0.02215307 -0.02240621 -0.02264477 -0.02286954 -0.02308626 -0.02329629 -0.02350876 -0.02372455 -0.02395136
 -0.02418817 -0.02443738 -0.02469563 -0.02495993 -0.0252259 -0.02548836 -0.02574475 -0.02599146 -0.02622919 -0.02645716
 -0.02667748 -0.02689099 -0.02709734 -0.02729681 -0.02748733 -0.02766827 -0.02784203 -0.02800844 -0.02817774 -0.02835048
 -0.02853809 -0.02874005 -0.02895769 -0.02918851 -0.02942145 -0.02965542 -0.02987992 -0.03009881 -0.03031421 -0.03053122
 -0.03075963 -0.03099695 -0.03124672 -0.03149802 -0.0317447 -0.03197918 -0.03219458 -0.03239545 -0.03258059 -0.03276078
 -0.0329385 -0.03311804 -0.03330085 -0.03348261 -0.03366312 -0.03383803 -0.03400729 -0.03417297 -0.03433574 -0.03450252
 -0.03467332 -0.03485255 -0.0350382 -0.03522697 -0.03541638 -0.03559895 -0.03577593 -0.03594467 -0.03611055 -0.03627782
 -0.03645032 -0.03663317 -0.03682342 -0.03702176 -0.03722202 -0.03742206 -0.03761975 -0.03781407 -0.03800593 -0.03819562
 -0.03838117 -0.03856256 -0.03873515 -0.03889876 -0.03905156 -0.03919404 -0.0393295 -0.03945902 -0.0395891 -0.03972083
 -0.03986094 -0.04000939 -0.04016998 -0.04034019 -0.04051842 -0.04070153 -0.04088546 -0.0410697 -0.04125236 -0.041435
 -0.04161843 -0.04180166 -0.04198519 -0.04216496 -0.04234004 -0.04250852 -0.04266968 -0.04282613 -0.04297794 -0.04312906
 -0.04327964 -0.04343109 -0.04358326 -0.04373552 -0.04388751 -0.0440373 -0.04418447 -0.04432659 -0.04446388 -0.04459509
 -0.044722 -0.04484636 -0.0449704 -0.04509739 -0.0452273 -0.04536178 -0.0454978 -0.0456343 -0.04576916 -0.04590096
 -0.04603132 -0.04616009 -0.04629045 -0.04642302 -0.04655802 -0.04669568 -0.04683236 -0.04696783 -0.04709713 -0.04722023
 -0.04733459 -0.04744114 -0.04754238 -0.04764045 -0.04774286 -0.04785169 -0.04797549 -0.04811357 -0.0482699 -0.04843931
 -0.04861908 -0.04880208 -0.04898222 -0.04915654 -0.04932111 -0.04947936 -0.04963133 -0.04978143 -0.04993107 -0.05008007
 -0.05022873 -0.05037471 -0.05051766 -0.05065997 -0.05080183 -0.05094864 -0.05110021 -0.05125724 -0.05141823 -0.05157613
 -0.05172969 -0.05187052 -0.05200031 -0.05211749 -0.05222657 -0.05233347 -0.05244124 -0.05255613 -0.05267623 -0.0528027
 -0.05293139 -0.05305995 -0.05318831 -0.05331543 -0.05344445 -0.05357629 -0.0537106 -0.0538478 -0.05398374 -0.054118
 -0.0542495 -0.05437823 -0.05450677 -0.0546351 -0.05476381 -0.0548924 -0.05501844 -0.05514188 -0.05526108 -0.05537675
 -0.05548969 -0.05560021 -0.05570908 -0.05581649 -0.05592262 -0.0560285 -0.05613464 -0.0562427 -0.05635376 -0.0564682
 -0.05658677 -0.05670758 -0.05683083 -0.05695195 -0.05707038 -0.05718211 -0.05728656 -0.05738487 -0.05747718 -0.05757024
 -0.05766441 -0.05776615 -0.05787499 -0.05799225 -0.05811656 -0.05824462 -0.05837483 -0.05850256 -0.05862588 -0.05874006
 -0.05884374 -0.05893304 -0.05900997 -0.05907347 -0.05913004 -0.05918217 -0.05923596 -0.05929485 -0.05935794 -0.05942623
 -0.05949422 -0.05956082 -0.05962593 -0.0596891 -0.05975784 -0.05983249 -0.05991832 -0.06001463 -0.06011622 -0.06022167
 -0.06032059 -0.06041306 -0.06049339 -0.06056353 -0.06062476 -0.06067931 -0.06073123 -0.06078132 -0.06083211 -0.06088303
 -0.06093444 -0.06098562 -0.06103588 -0.06108641 -0.06113721 -0.06119046 -0.06124689 -0.06130646 -0.06136955 -0.06143336
 -0.06149768 -0.06156061 -0.06162211 -0.06168425 -0.06174732 -0.06181512 -0.06188765 -0.06196672 -0.06205238 -0.06214475
 -0.06224629 -0.06236098 -0.06249461 -0.0626568 -0.06285395 -0.0630962 -0.06338766 -0.06373377 -0.06413836 -0.0646037
 -0.06513559 -0.06573797 -0.06640736 -0.0671472 -0.06793263 -0.06876207 -0.0696035 -0.07045332 -0.0713039 -0.07215465
 -0.07299818 -0.07382736 -0.07456487 -0.07519403 -0.07557791 -0.07571893 -0.07554205 -0.07508387 -0.07438028 -0.07348467
 -0.0724863 -0.07144361 -0.07044941 -0.06954505 -0.06879019 -0.06819939 -0.06779486 -0.06757826 -0.06755853 -0.0677167
 -0.06806156 -0.06851015 -0.06906126 -0.06956849 -0.07001762 -0.07032518 -0.07048702 -0.07053582 -0.07047582 -0.07036506
 -0.0702054 -0.07003631 -0.0698569 -0.06968676 -0.06952046 -0.0693555 -0.06918693 -0.06900489 -0.06880973 -0.0685986
 -0.06837137 -0.0681273 -0.06786571 -0.06758332 -0.06729065 -0.06698808 -0.06669536 -0.06641719 -0.0661664 -0.0659465
 -0.06575643 -0.06559678 -0.06545959 -0.06534445 -0.06524328 -0.06515562 -0.06507415 -0.06499809 -0.06491914 -0.06483683
 -0.06474439 -0.06464367 -0.06453462 -0.06442145 -0.0643108 -0.06420536 -0.06411148 -0.06402728 -0.0639536 -0.06388755
 -0.06382716 -0.06377319 -0.06372529 -0.06368526 -0.06365415 -0.06362925 -0.0636106 -0.06359352 -0.06357746 -0.06356157
 -0.06354579 -0.06353287 -0.06352282 -0.06351639 -0.06351291 -0.06350879 -0.06350365 -0.06349368 -0.06348007 -0.06346336
 -0.06344555 -0.06343036 -0.06341823 -0.06341159 -0.06340865 -0.0634092 -0.06341031 -0.06341106 -0.06340698 -0.06339668
 -0.06337552 -0.06334171 -0.06329484 -0.06323382 -0.06316523 -0.0630893 -0.06301503 -0.06294289 -0.06287922 -0.06282407
 -0.06277999 -0.0627464 -0.06272194 -0.06270509 -0.06268992 -0.06267526 -0.062655 -0.06263017 -0.0625995 -0.06256489
 -0.06252842 -0.06249009 -0.06245083 -0.06240932 -0.06236482 -0.06231743 -0.06226686 -0.0622141 -0.06215922 -0.06210356
 -0.06204706 -0.06199287 -0.06194116 -0.06189623 -0.06185833 -0.06182857 -0.06180666 -0.06178883 -0.06177454 -0.06175834
 -0.06174047 -0.0617187 -0.0616943 -0.06166933 -0.06164434 -0.06162183 -0.06159998 -0.06157787 -0.06155334 -0.06152338
 -0.06149028 -0.0614535 -0.06141886 -0.06138881 -0.06136542 -0.06135063 -0.06133952 -0.06133188 -0.06132133 -0.06130713
 -0.0612863 -0.06125865 -0.06122402 -0.06118257 -0.06113597 -0.06108483 -0.06103345 -0.06098251 -0.06093715 -0.06089697
 -0.06086401 -0.06083658 -0.06081302 -0.06079164 -0.06076992 -0.06074668 -0.06072031 -0.06068977 -0.06065395 -0.06061277
 -0.06056528 -0.06051459 -0.06046071 -0.06040938 -0.06036161 -0.06032081 -0.06028767 -0.06026039 -0.06023889 -0.06021896
 -0.06020055 -0.06018225 -0.06016461 -0.06015033 -0.0601398 -0.06013627 -0.06013875 -0.06014732 -0.06015897 -0.06016945
 -0.0601747 -0.06016805 -0.06014809 -0.06010991 -0.06005892 -0.05999488 -0.05992961 -0.05986701 -0.05981706 -0.05978425
 -0.05976727 -0.05976785 -0.05977356 -0.05978364 -0.05978477 -0.0597761 -0.05975326 -0.05971663 -0.05967076 -0.05961674
 -0.05956339 -0.05951164 -0.05947011 -0.05943803 -0.05941911 -0.05940906 -0.05940315 -0.05939574 -0.05937735 -0.0593478
 -0.05930201 -0.05924741 -0.05918592 -0.05912637 -0.05907319 -0.0590288 -0.05899545 -0.0589691 -0.05894974 -0.05893146
 -0.05891355 -0.05889351 -0.05887111 -0.05884897 -0.05882726 -0.05880938 -0.05879469 -0.05878095 -0.05876699 -0.05874661
 -0.05872067 -0.05868739 -0.05865012 -0.05861393 -0.05858081 -0.0585562 -0.0585374 -0.0585247 -0.05851317 -0.0584996
 -0.05848272 -0.05846043 -0.05843652 -0.0584114 -0.05838911 -0.05837072 -0.05835617 -0.05834573 -0.05833668 -0.05832888
 -0.05831963 -0.05830874 -0.05829307 -0.05827234 -0.05824255 -0.05820447 -0.05815809 -0.0581061 -0.05805522 -0.05800742
 -0.05797011 -0.05794121 -0.05792173 -0.05790744 -0.05789496 -0.05788211 -0.05786639 -0.05784816 -0.05782734 -0.057803
 -0.05777526 -0.05774134 -0.05770054 -0.05765249 -0.05759671 -0.05753785 -0.05747612 -0.05741896 -0.05736667 -0.05732459
 -0.05729246 -0.05727132 -0.05726035 -0.05725732 -0.05726074 -0.05726625 -0.05727162 -0.05727113 -0.05726304 -0.05724216
 -0.05721034 -0.05716608 -0.05711592 -0.05706253 -0.05701321 -0.05697217 -0.05694045 -0.05692029 -0.05690477 -0.05689347
 -0.05687763 -0.05685602 -0.05682569 -0.05678631 -0.05674184 -0.05669264 -0.0566452 -0.05659978 -0.0565616 -0.05653025
 -0.05650739 -0.05649131 -0.05647898 -0.05646782 -0.0564515 -0.05642936 -0.05639711 -0.05635784 -0.05631218 -0.05626457
 -0.05621817 -0.05617427 -0.05613497 -0.05609686 -0.05605982 -0.05601893 -0.05597312 -0.05592031 -0.05585984 -0.05579409
 -0.0557231 -0.05565208 -0.05558127 -0.05551535 -0.05545408 -0.05539836 -0.0553471 -0.05529639 -0.05524526 -0.0551886
 -0.05512736 -0.05506039 -0.05499017 -0.0549197 -0.05484959 -0.05478182 -0.05471488 -0.05464801 -0.05458139 -0.05451451
 -0.05444946 -0.05438717 -0.05432666 -0.05426856 -0.05420702 -0.05414145 -0.05406746 -0.0539846 -0.05389522 -0.05379969
 -0.05370482 -0.05361084 -0.0535231 -0.0534405 -0.05336178 -0.05328517 -0.05320463 -0.05312113 -0.05303211 -0.05294316
 -0.0528603 -0.05278778 -0.05273357 -0.05269225 -0.05266557 -0.05263834 -0.05260552 -0.05255356 -0.05247606 -0.05237434
 -0.05224572 -0.05210702 -0.05195937 -0.0518207 -0.05169244 -0.05157989 -0.05148279 -0.05139504 -0.05131583 -0.05123645
 -0.05115652 -0.05106971 -0.05097637 -0.0508734 -0.05076328 -0.05064854 -0.05053277 -0.05042232 -0.05031714 -0.0502207
 -0.05012756 -0.05003572 -0.04993992 -0.04983656 -0.0497269 -0.04960969 -0.04949142 -0.0493728 -0.04926062 -0.04915593
 -0.049061 -0.04897621 -0.04889755 -0.04882469 -0.04875055 -0.0486749 -0.04859271 -0.04850411 -0.04840677 -0.04830138
 -0.04818788 -0.04806846 -0.0479467 -0.04782536 -0.0477099 -0.04760059 -0.04750004 -0.04740616 -0.04731866 -0.04723487
 -0.04715448 -0.04707211 -0.04698678 -0.04689164 -0.0467847 -0.04666538 -0.04653266 -0.04639501 -0.0462529 -0.04611466
 -0.04598046 -0.04585247 -0.04573014 -0.04561082 -0.04549343 -0.04537219 -0.04524623 -0.04510913 -0.04496331 -0.04480907
 -0.04465195 -0.04449965 -0.04435484 -0.04422414 -0.04410313 -0.04399229 -0.0438827 -0.04377103 -0.0436499 -0.0435155
 -0.04336911 -0.04320913 -0.04304631 -0.04288154 -0.04272526 -0.04257844 -0.0424418 -0.04231524 -0.04219553 -0.04208287
 -0.04197801 -0.04188063 -0.04179071 -0.04170562 -0.04161827 -0.04152608 -0.04142041 -0.04130143 -0.04116562 -0.04101442
 -0.04084761 -0.0406676 -0.04047476 -0.04027463 -0.0400687 -0.03986467 -0.03966486 -0.03947517 -0.03929742 -0.03913278
 -0.03898198 -0.03884114 -0.03871007 -0.03858458 -0.03846465 -0.038352 -0.03824629 -0.03814744 -0.03805162 -0.03794188
 -0.03781492 -0.03764869 -0.03745183 -0.03722849 -0.03699245 -0.03676641 -0.03655129 -0.03635773 -0.03617743 -0.03600827
 -0.03584309 -0.03567891 -0.03550879 -0.0353305 -0.03513761 -0.0349273 -0.03470404 -0.03446721 -0.03423022 -0.0339941
 -0.03376498 -0.03354292 -0.03332659 -0.033116 -0.03291118 -0.03271199 -0.03251795 -0.03232861 -0.03214217 -0.03195897
 -0.03177996 -0.03160261 -0.03142562 -0.03124174 -0.03104251 -0.03082719 -0.0305901 -0.03034228 -0.03008759 -0.02983274
 -0.02958219 -0.02933042 -0.02907673 -0.02881832 -0.02855397 -0.02829086 -0.02802951 -0.02777379 -0.02752345 -0.02726984
 -0.02701144 -0.02673147 -0.02642984 -0.02609474 -0.02573265 -0.02535525 -0.0249703 -0.02460201 -0.02424501 -0.02390478
 -0.02356663 -0.02321616 -0.02285095 -0.02246041 -0.02206275 -0.021663 -0.02127729 -0.02091455 -0.02056874 -0.02024336
 -0.0199109 -0.01957042 -0.01917971 -0.01873507 -0.01821827 -0.01763021 -0.01701385 -0.01637188 -0.01574976 -0.01513958
 -0.01453007 -0.01390962 -0.01323672 -0.01250977 -0.01170279 -0.01082718 -0.009884823 -0.008895078 -0.007875024 -0.006844462
 -0.005824799 -0.004814379 -0.003824821 -0.00282056 -0.001791585 -0.0007183604 0.000413309 0.001555056 0.002703472 0.003809544
 0.004867728 0.005889489 0.006875301 0.007839333 0.008778944 0.009672628 0.01052282 0.01132357 0.01209199 0.01287519
 0.01368765 0.01458823 0.01556264 0.01661973 0.0177314 0.01886803 0.02002819 0.02119835 0.02239593 0.02362732
 0.02489876 0.02621481 0.02757004 0.02895825 0.0304108 0.03192313 0.03360109 0.03545381 0.03753455 0.03984005
 0.04219257 0.04458218 0.04683154 0.04896937 0.05104047 0.05307489 0.05519002 0.05738671 0.05971935 0.06218652
 0.06479005 0.06758269 0.07058967 0.07393651 0.07771559 0.08200629 0.08692484 0.0922705 0.09805275 0.1038666
 0.1096208 0.1151021 0.1202558 0.1251159 0.1296758 0.1340808 0.1383418 0.1427214 0.1472449 0.1522904
 0.1578168 0.1638929 0.1703292 0.1765366 0.1824897 0.1877835 0.1926526 0.1972718 0.2018082 0.20652
 0.2113994 0.2165243 0.2218319 0.2273023 0.2329255 0.2387133 0.2445689 0.250487 0.2563078 0.261995
 0.2675843 0.2730743 0.2785503 0.2840095 0.2892376 0.2942112 0.2986043 0.3024386 0.3056499 0.3082739
 0.3103995 0.3120156 0.3131216 0.3137512 0.3139206 0.3137539 0.3133859 0.3128845 0.312335 0.3117702
 0.3112224 0.310717 0.310283 0.3098605 0.3094575 0.3089253 0.30825 0.3072724 0.305973 0.3043575
 0.3024305 0.3004384 0.2983862 0.2964289 0.2945336 0.2926153 0.2906478 0.2884947 0.2861755 0.2836452
 0.280984 0.2782823 0.2756213 0.2731282 0.2708079 0.2687037 0.2667944 0.2650647 0.2635585 0.262278
 0.261301 0.2606514 0.2603366 0.2603658 0.2606893 0.2613041 0.26217 0.2632851 0.2646271 0.2661953
 0.2679761 0.2699681 0.2721591 0.2745434 0.2770984 0.2798167 0.2826704 0.2856601 0.2887726 0.2920169
 0.2953963 0.2989222 0.302603 0.306449 0.3104676 0.314664 0.319042 0.3236013 0.3283465 0.3332548
 0.3383315 0.3434892 0.3487235 0.3539174 0.3590658 0.3641484 0.3691689 0.3741837 0.3791586 0.3839615
 0.3885224 0.3925122 0.3959709 0.3987986 0.4011244 0.4031171 0.4048182 0.40635 0.407666 0.4087642
 0.4096203 0.4102334 0.4105447 0.4105707 0.4100922 0.4090573 0.407338 0.4048564 0.4020397 0.3989174
 0.3958232 0.3927686 0.3895678 0.3862105 0.3825192 0.3785163 0.374234 0.3696913 0.3650016 0.3600899
 0.3549087 0.3492313 0.3426484 0.335139 0.3263016 0.3169041 0.3073845 0.2982822 0.2901499 0.2825463
 0.2754349 0.2684315 0.2613829 0.2544264 0.2475472 0.2410195 0.2348769 0.2291042 0.2236994 0.2184415
 0.2133254 0.2082147 0.2031311 0.1981194 0.193203 0.1884914 0.1839722 0.179678 0.1755719 0.1716101
 0.1677696 0.1640175 0.1603186 0.1566689 0.1529357 0.1490666 0.1449079 0.1403128 0.1355862 0.1307051
 0.1263403 0.1226389 0.1195907 0.1172303 0.11509 0.1131476 0.1111294 0.1090467 0.1069417 0.1048386
 0.1029019 0.1011122 0.09949134 0.09800712 0.09658024 0.09523831 0.09397442 0.09286181 0.09198609 0.09136785
 0.09106434 0.09102371 0.09123664 0.09165079 0.09224282 0.09299543 0.09389269 0.09497357 0.09623078 0.09779209
 0.0996681 0.1019699 0.1047015 0.1076677 0.1108406 0.1138192 0.11661 0.1190394 0.1211469 0.1229775
 0.1245527 0.1259368 0.1271513 0.1282402 0.1292661 0.1303014 0.1314253 0.1327439 0.1342151 0.1358783
 0.1375519 0.1391631 0.1406705 0.1420325 0.1433578 0.1446598 0.1459985 0.1473853 0.1487722 0.1501568
 0.1514576 0.1526763 0.1538022 0.1548516 0.1559041 0.1569854 0.1582259 0.1596379 0.161327 0.1632584
 0.1654255 0.1677882 0.1702823 0.1729374 0.1757502 0.1787681 0.1820308 0.185507 0.1892071 0.1930406
 0.1969822 0.2010025 0.2050839 0.2092995 0.2136566 0.2181853 0.2228864 0.2275448 0.2321388 0.236331
 0.2401247 0.2433696 0.2460847 0.2482718 0.2499093 0.2509568 0.2513676 0.2510391 0.2499709 0.2481039
 0.2455125 0.2422224 0.2383351 0.233909 0.2290122 0.2236782 0.217953 0.2118303 0.2054651 0.1988541
 0.1923261 0.1859109 0.1798585 0.1741837 0.1688395 0.1638139 0.1589277 0.1541886 0.1495444 0.1450293
 0.140746 0.136699 0.1329641 0.1294941 0.1262495 0.1231801 0.1202102 0.1173226 0.114475 0.1116812
 0.1089329 0.1062633 0.1036804 0.1012176 0.09888748 0.09669248 0.09463896 0.09269013 0.09084365 0.08906151
 0.08734147 0.08569438 0.08412459 0.08269386 0.08140511 0.08031052 0.079402 0.07867975 0.07813182 0.07773001
 0.07746735 0.07732054 0.07728581 0.07735293 0.07751213 0.07775957 0.07806538 0.07842132 0.07877415 0.07910793
 0.07936464 0.07952907 0.07955552 0.0794346 0.07913861 0.07866215 0.07801313 0.07719158 0.07625289 0.07520145
 0.07410841 0.07297742 0.07186428 0.07077374 0.0697514 0.06880278 0.06796545 0.0672373 0.06663382 0.06614441
 0.06576385 0.06548037 0.06528535 0.06516349 0.0651084 0.06509503 0.06511524 0.0651421 0.06516769 0.06517468
 0.06515919 0.06511161 0.0650306 0.06491031 0.06475029 0.06455036 0.06431083 0.06403601 0.0637262 0.06338511
 0.0630129 0.06261208 0.06218265 0.06172581 0.06124156 0.06072935 0.06019216 0.05963154 0.05905503 0.05846837
 0.05787919 0.05729294 0.05671473 0.0561465 0.0555959 0.05506422 0.05456201 0.05409126 0.05365835 0.05326444
 0.05290865 0.05259101 0.05230619 0.05205372 0.05182539 0.0516213 0.05143632 0.05127409 0.05114319 0.0510518
 0.05102348 0.05106555 0.05120305 0.05143337 0.05176784 0.05218762 0.05268536 0.05323254 0.05381192 0.05440373
 0.05499517 0.05558324 0.05616458 0.05674163 0.0573145 0.05788353 0.05844826 0.05901539 0.05958517 0.06017591
 0.06078953 0.0614569 0.06218167 0.06300711 0.06392775 0.064962 0.0660679 0.06716916 0.06818607 0.06894588
 0.06940372 0.06940946 0.06903996 0.06827803 0.06729912 0.06619091 0.0650959 0.06409997 0.06322801 0.06250999
 0.06189913 0.06139121 0.06095265 0.06057792 0.06026772 0.06002166 0.05985128 0.05975865 0.05977255 0.05990272
 0.06022689 0.06075466 0.06158218 0.06267341 0.06402239 0.06550379 0.06692271 0.06812033 0.06880569 0.06895861
 0.06840646 0.06737342 0.06590612 0.06430982 0.06273714 0.06127651 0.06001735 0.05877009 0.05752174 0.05606683
 0.05436755 0.05247352 0.05038212 0.04839317 0.04652495 0.04511305 0.0441522 0.04379657 0.04398147 0.04456665
 0.04543642 0.04622599 0.04686452 0.04702649 0.04679381 0.04610663 0.04514974 0.04406704 0.04296067 0.0419537
 0.04099548 0.04009349 0.03919197 0.03825819 0.0373611 0.03650008 0.03579114 0.03525114 0.03490297 0.0347503
 0.03472319 0.03481812 0.03496891 0.0351777 0.03542764 0.03572272 0.03606995 0.03646992 0.03692747 0.0374421
 0.03801514 0.03864582 0.0393348 0.04007803 0.04087409 0.0417142 0.04259512 0.04350273 0.04443312 0.04536679
 0.04629926 0.04721005 0.04809464 0.04894198 0.04974945 0.05052217 0.05126007 0.05198069 0.05268503 0.05339128
 0.05409957 0.0548191 0.0555499 0.05629515 0.05705923 0.05785253 0.05868524 0.05958012 0.06054436 0.06159913
 0.06273752 0.0639638 0.06526028 0.06661826 0.06802348 0.06946807 0.07094501 0.0724527 0.07397888 0.0755239
 0.07705998 0.07858565 0.08006268 0.08148851 0.08283422 0.08409982 0.08528613 0.08639705 0.08746072 0.08848042
 0.0894853 0.09047392 0.09145731 0.09243282 0.09339963 0.09435861 0.0953091 0.09625643 0.09720301 0.09815925
 0.09913053 0.100129 0.1011622 0.1022319 0.1033425 0.1044796 0.1056421 0.1068123 0.1079871 0.109164
 0.1103421 0.1115384 0.1127539 0.1140095 0.1153032 0.1166331 0.1179911 0.1193446 0.1206847 0.1219718
 0.1232006 0.1243463 0.1254001 0.1263443 0.1271642 0.12784 0.1283668 0.1287322 0.1289503 0.1290218
 0.1289674 0.1287906 0.1285154 0.1281427 0.1277153 0.1272357 0.1267621 0.1262984 0.1258922 0.1255453
 0.1252829 0.1251049 0.1250217 0.1250323 0.125137 0.1253375 0.1256336 0.1260409 0.1265789 0.1272867
 0.1282162 0.1294123 0.1309466 0.132797 0.1350194 0.1374071 0.139953 0.1422255 0.1441345 0.1452136
 0.1453411 0.1443669 0.142224 0.139247 0.135445 0.1314189 0.127196 0.1232636 0.119613 0.1164159
 0.1136299 0.1111734 0.1090074 0.1069814 0.1050839 0.1032226 0.1014035 0.09960099 0.0978153 0.09604319
 0.09426986 0.09249049 0.09067624 0.08881852 0.08687889 0.08484551 0.08268981 0.08040123 0.07798642 0.07544186
 0.07280926 0.07009058 0.06733903 0.06455731 0.06179183 0.05904401 0.05634651 0.0536989 0.05111674 0.04859933
 0.04615139 0.04377569 0.04147873 0.03926536 0.03714555 0.0351194 0.03319271 0.03135697 0.02961094 0.0279393
 0.02633681 0.02478675 0.0232835 0.02181562 0.02037966 0.01897216 0.0175921 0.01624047 0.01491716 0.01362667
 0.01236941 0.01115435 0.009981666 0.008857231 0.007779706 0.006745416 0.005754915 0.004806038 0.003904332 0.003060196
 0.002275794 0.00156238 0.0009079028 0.0003088334 -0.0002565883 -0.0008024205 -0.001345249 -0.001896324 -0.002460874 -0.003042815
 -0.003642183 -0.004258985 -0.00489651 -0.005554868 -0.006240112 -0.006952996 -0.007689591 -0.008448862 -0.009205488 -0.009956424
 -0.01066518 -0.01133078 -0.01192857 -0.01246158 -0.01292495 -0.01332358 -0.01366404 -0.0139515 -0.01419534 -0.01439938
 -0.01457093 -0.01471 -0.01481862 -0.01489603 -0.01494136 -0.01495827 -0.01494708 -0.01491348 -0.01485871 -0.01478582
 -0.01469492 -0.01459182 -0.01447662 -0.01436234 -0.01424968 -0.01415237 -0.01407072 -0.01401289 -0.01397967 -0.01397819
 -0.01401071 -0.01408766 -0.01420995 -0.01438605 -0.01461096 -0.01488378 -0.01519294 -0.01552853 -0.01587832 -0.01623148
 -0.01658129 -0.01692278 -0.01725106 -0.01756565 -0.01785448 -0.01811661 -0.01833384 -0.01850409 -0.01861201 -0.01865629
 -0.01862737 -0.01852493 -0.018346 -0.01809151 -0.01776797 -0.01737653 -0.01692626 -0.01641651 -0.01584725 -0.01522399
 -0.01454938 -0.01385033 -0.01315787 -0.01251294 -0.01196895 -0.01153997 -0.01126392 -0.01109521 -0.0110332 -0.01099626
 -0.01096014 -0.01086669 -0.01069509 -0.01044667 -0.01011501 -0.00974797 -0.009347867 -0.008971041 -0.008619748 -0.008324736
 -0.008083311 -0.007886685 -0.00772821 -0.007572212 -0.007415057 -0.00722519 -0.007008287 -0.006759039 -0.006488364 -0.006210118
 -0.005929602 -0.005658917 -0.005393396 -0.005134975 -0.004873569 -0.004605387 -0.004322025 -0.004018699 -0.003697568 -0.003356009
 -0.003011631 -0.002665567 -0.002339277 -0.002034936 -0.001757019 -0.001505229 -0.001262922 -0.001028236 -0.0007778395 -0.000510603
 -0.0002086161 0.0001274627 0.000506416 0.0009237218 0.001376168 0.001855292 0.002348603 0.002848054 0.003340915 0.00382423
 0.004291899 0.004744942 0.00518313 0.00560494 0.006011047 0.006394274 0.006752672 0.007084343 0.007386866 0.007678162
 0.007958796 0.008257776 0.00857625 0.008927681 0.009310486 0.009715538 0.01014063 0.01057092 0.01100487 0.01143088
 0.01184689 0.01224161 0.01261795 0.01297191 0.01331668 0.01366228 0.01402358 0.01441614 0.01483964 0.01530248
 0.0157824 0.01627786 0.01675343 0.01720135 0.01759806 0.01793648 0.01823071 0.0184798 0.01872946 0.01898191
 0.01927642 0.01961208 0.01999618 0.0204248 0.020883 0.02136777 0.02186198 0.02236542 0.02286939 0.02337497
 0.0238824 0.02438581 0.02488337 0.02535786 0.02579703 0.02618884 0.02651928 0.02680422 0.02704137 0.02726651
 0.02748676 0.02772742 0.02799446 0.02828738 0.02860737 0.02893569 0.02927137 0.02959518 0.02990768 0.03020602
 0.03049352 0.03078518 0.03108341 0.03140389 0.03174623 0.03211758 0.0325156 0.03294189 0.03338856 0.03384976
 0.03431487 0.03477209 0.03522445 0.03566749 0.03611748 0.03658066 0.03705955 0.03755802 0.03806121 0.03856681
 0.03907086 0.03957251 0.04007795 0.04058716 0.04108917 0.04158253 0.04204647 0.04248371 0.04289569 0.04328941
 0.04368747 0.04409529 0.04453568 0.04500949 0.04553067 0.04608932 0.04668488 0.04729445 0.04790301 0.04849079
 0.04904307 0.04955523 0.05002191 0.05044656 0.05082688 0.05117911 0.05150255 0.05183394 0.05217625 0.05255739
 0.05297838 0.05343021 0.05391108 0.0543984 0.05489267 0.05538609 0.05587855 0.05636751 0.05684822 0.05731026
 0.05774713 0.05814652 0.05849912 0.05879248 0.05901574 0.05915449 0.05921321 0.05918514 0.05909719 0.05895359
 0.05878909 0.05860961 0.05845228 0.05832146 0.0582567 0.05826266 0.05834972 0.05851791 0.05872976 0.05898286
 0.0592365 0.05949434 0.05975376 0.06002134 0.06031682 0.06064425 0.06102441 0.0614522 0.06193581 0.06244947
 0.06296874 0.06347601 0.06393174 0.06439546 0.06486533 0.06547511 0.06628957 0.06730374 0.06856339 0.06982209
 0.07104397 0.07210757 0.07299232 0.07375979 0.07441228 0.07499325 0.07550047 0.07592207 0.0762549 0.07647746
 0.07658718 0.07656441 0.07640819 0.07610141 0.07565849 0.0750879 0.07441945 0.07368451 0.07291406 0.07213775
 0.07138184 0.07066812 0.07000473 0.06940249 0.06884537 0.0683298 0.06785237 0.06740815 0.06703158 0.06672512
 0.06651798 0.0664115 0.0663972 0.06647431 0.06663238 0.06687061 0.06718915 0.06756937 0.06796263 0.06832201
 0.06851931 0.06852219 0.06820392 0.06761418 0.06673492 0.06569126 0.06456289 0.06346124 0.06247236 0.06161914
 0.06093492 0.06038224 0.05995208 0.05964842 0.05946495 0.05946157 0.05964718 0.06000169 0.06052328 0.06104577
 0.06155985 0.06189881 0.06207396 0.06205658 0.06187487 0.06160555 0.06127408 0.06097411 0.06071991 0.06057766
 0.0605415 0.06063568 0.06083152 0.06111963 0.06146234 0.0618408 0.0622205 0.06258589 0.06291488 0.06319571
 0.06343993 0.0636444 0.06384876 0.06405665 0.06429109 0.06455333 0.06483743 0.06514252 0.06545954 0.06578389
 0.06609011 0.06636421 0.06654235 0.06661961 0.06654347 0.06634122 0.06602648 0.06564216 0.06524055 0.06484991
 0.06450977 0.06422674 0.06401873 0.06386706 0.06377363 0.06370044 0.0636375 0.06356675 0.06348152 0.06339602
 0.06331219 0.06322325 0.06312881 0.06298328 0.0627859 0.06251151 0.06216752 0.06178245 0.06136621 0.06096829
 0.06059315 0.0602782 0.06001613 0.05981773 0.05965769 0.0595134 0.05936148 0.05916988 0.05894994 0.05869497
 0.05843488 0.05818488 0.05793862 0.05770458 0.05743201 0.05711653 0.05670236 0.05618314 0.05553138 0.05474531
 0.05384222 0.05282586 0.051748 0.05061345 0.04947435 0.04833623 0.04724276 0.04620408 0.04526755 0.0444336
 0.0437316 0.04313583 0.04263198 0.04218826 0.04177442 0.04137456 0.04097348 0.04056079 0.04012772 0.0396772
 0.0392005 0.0387475 0.03832174 0.03798729 0.03775411 0.03760822 0.03754927</values></Ydata></AB><ScSm><Ydata ylabel="Single channel"><values byteorder="INTEL" format="FLOAT32" numvalues="1814"> 0.07313304 0.07313845 0.07320431 0.07335803 0.07357406 0.07378619 0.0739353 0.07400857 0.07402501 0.07399428
 0.07392563 0.07387446 0.07392819 0.07411858 0.07437063 0.07455393 0.07458539 0.07450269 0.07444501 0.0745211
 0.07466479 0.07465181 0.07430913 0.07371231 0.07313737 0.07280491 0.07274035 0.0729326 0.0734704 0.07428874
 0.07488483 0.07467978 0.07374975 0.0728525 0.07258752 0.07282168 0.07304665 0.07296227 0.07256695 0.07204308
 0.07181005 0.07241333 0.07399116 0.07583174 0.07662882 0.0753087 0.07179826 0.06726675 0.06368972 0.06278679
 0.0648105 0.06820668 0.07078328 0.07145672 0.07076541 0.06976115 0.06887741 0.06806967 0.06754867 0.06781511
 0.06897204 0.07026339 0.07046708 0.0689424 0.06639232 0.06436074 0.0638224 0.06457472 0.0660685 0.06800339
 0.06948692 0.06855994 0.06412914 0.05840341 0.05590231 0.05915734 0.06601004 0.07172389 0.07319522 0.07068668
 0.06644806 0.0628548 0.06151647 0.06284258 0.06596544 0.06946064 0.07221182 0.07346532 0.07264006 0.06983274
 0.06631133 0.06389841 0.06385183 0.06637581 0.07057852 0.07454784 0.07622045 0.07491022 0.07176445 0.06854922
 0.06648721 0.06626911 0.06822781 0.07198846 0.07644529 0.08040373 0.08306861 0.08412614 0.08380952 0.08274884
 0.0814904 0.08041152 0.08005682 0.08079808 0.08195152 0.0820436 0.08041806 0.07811339 0.07679223 0.07702193
 0.07782375 0.07786217 0.07679585 0.07505525 0.07252121 0.06849924 0.0633194 0.05876016 0.0562662 0.05584777
 0.05714691 0.06000263 0.06319842 0.06438664 0.0626644 0.06021634 0.06014485 0.06315501 0.06719349 0.06995177
 0.07099874 0.07161096 0.07313029 0.07559668 0.07757711 0.07724985 0.07421605 0.0705118 0.06916376 0.07121764
 0.07473369 0.07716634 0.07804106 0.07867476 0.07987121 0.08067907 0.07939188 0.07558421 0.07119432 0.06932247
 0.07153112 0.07627954 0.0800437 0.07992895 0.07561722 0.06942144 0.06447769 0.06257974 0.06370361 0.06720363
 0.07251498 0.07853641 0.08334419 0.08527257 0.08413319 0.0811072 0.07741103 0.07319301 0.06815338 0.06335343
 0.06144402 0.06415291 0.07006268 0.07578915 0.0790039 0.07959548 0.07834911 0.07551237 0.07100414 0.06575951
 0.06216265 0.06219764 0.06505907 0.06761208 0.06767184 0.06598809 0.06462742 0.06439817 0.06456147 0.06440616
 0.06425191 0.06488678 0.06643675 0.06806634 0.06878883 0.06836603 0.06734477 0.06641564 0.06579626 0.06508821
 0.06384586 0.0624599 0.06211868 0.06349408 0.0658029 0.06761553 0.06829612 0.06822126 0.06781821 0.066852
 0.06479318 0.06182215 0.05923878 0.05849395 0.05977469 0.06188592 0.06349693 0.06410247 0.06387879 0.06318689
 0.06233459 0.06148338 0.06070382 0.06018441 0.06017782 0.06062344 0.06108074 0.06117123 0.0608769 0.06033918
 0.05960073 0.05866279 0.05766113 0.05686192 0.05647293 0.05648252 0.05670435 0.05694665 0.05707183 0.05694807
 0.05650004 0.05582406 0.05512974 0.05455058 0.05410041 0.05379011 0.0536628 0.05369591 0.05375847 0.05370927
 0.05350577 0.05319773 0.05284199 0.05245366 0.05203445 0.05162149 0.05128971 0.05109396 0.0510035 0.05092179
 0.05079943 0.05068909 0.0506363 0.05056302 0.05034252 0.04996639 0.04955915 0.04923811 0.04901992 0.04885376
 0.04868383 0.04846288 0.04814745 0.04773215 0.04729952 0.04699285 0.04690417 0.04700814 0.04721195 0.04741956
 0.04754074 0.04751539 0.04736458 0.04716532 0.04695738 0.04671948 0.04643834 0.04615875 0.04596175 0.04590781
 0.0459866 0.04611662 0.04620875 0.04622411 0.04617045 0.04608292 0.04601688 0.04600604 0.04600981 0.04595024
 0.04581307 0.04566988 0.04559149 0.04557121 0.04554168 0.0454526 0.04532686 0.04523633 0.04522233 0.04525687
 0.04528765 0.04529639 0.04530042 0.0453134 0.04531614 0.04526708 0.04514964 0.0450047 0.04489478 0.04483958
 0.04481254 0.04479428 0.04479571 0.0448254 0.04486166 0.04486886 0.04483383 0.04477857 0.04473219 0.04469366
 0.04463517 0.04454234 0.04443429 0.04434077 0.04427407 0.04422623 0.04418134 0.04412647 0.04405664 0.04397213
 0.04387343 0.04376052 0.0436337 0.04349595 0.04336178 0.04325877 0.04320338 0.043174 0.04312317 0.04302261
 0.04288918 0.04276493 0.04267577 0.04261129 0.04254462 0.04246823 0.04240244 0.04236874 0.0423677 0.04238679
 0.04241725 0.04245755 0.04251384 0.04260591 0.04275856 0.04297238 0.04320902 0.04341983 0.04358831 0.04373617
 0.0438925 0.04406867 0.04426 0.04445927 0.04466606 0.04488581 0.04511593 0.04533454 0.04551709 0.04566684
 0.04581445 0.04598513 0.04618098 0.04639255 0.04660583 0.04679687 0.04694357 0.04705086 0.04714803 0.0472552
 0.04736478 0.0474609 0.04754397 0.04762847 0.0477257 0.04784017 0.04798199 0.04817378 0.04843869 0.04877912
 0.04916725 0.04956122 0.04993748 0.05030875 0.05070657 0.05114551 0.0516056 0.05204774 0.05244553 0.05280566
 0.05315662 0.05351626 0.05387835 0.05423763 0.05461346 0.05503093 0.05548641 0.05595003 0.05639826 0.05682983
 0.05725422 0.05767876 0.05810663 0.05853897 0.0589766 0.05941885 0.05985851 0.06028234 0.06068285 0.06106731
 0.06145069 0.06184441 0.06225319 0.06267087 0.06307346 0.06343301 0.06375295 0.0640769 0.06444171 0.06482932
 0.06518885 0.06550434 0.06581491 0.0661622 0.06654178 0.06691968 0.06727929 0.06763393 0.06800036 0.06837285
 0.06872337 0.06902446 0.06927504 0.06950394 0.06974474 0.0700128 0.0703115 0.07064672 0.07101609 0.07139175
 0.07173469 0.07202644 0.07227492 0.07249822 0.07271808 0.07295899 0.07323301 0.07352848 0.07382299 0.07409884
 0.07434353 0.07455837 0.07477725 0.07505077 0.07539478 0.07577597 0.07616185 0.07655944 0.07698397 0.077417
 0.07783054 0.07823876 0.07868535 0.07917374 0.07964402 0.08003503 0.08034389 0.0806082 0.08085842 0.08111644
 0.08141769 0.08179379 0.08223376 0.08268968 0.08312149 0.08351909 0.08388444 0.08421292 0.08449649 0.08473416
 0.0849347 0.08511345 0.08528972 0.08548576 0.08572157 0.08599897 0.08628826 0.08653985 0.08671395 0.0867921
 0.08676281 0.08661842 0.08637864 0.08609726 0.08581812 0.08552468 0.08515035 0.08464075 0.08399183 0.08322778
 0.08236296 0.08140141 0.08036999 0.07934181 0.07842338 0.07771647 0.07728668 0.07716081 0.07734097 0.07780175
 0.07846758 0.07920838 0.07987095 0.0803128 0.08041255 0.08008581 0.07932954 0.07825051 0.07702533 0.07581477
 0.07470365 0.07370006 0.0727801 0.07194887 0.07128011 0.07090111 0.07093841 0.07147992 0.07257554 0.07423487
 0.0763904 0.0788651 0.08140666 0.08378474 0.08587585 0.08767168 0.08922848 0.09061834 0.0919047 0.09312287
 0.09426932 0.09532247 0.09627607 0.09714085 0.09791707 0.09858248 0.0991075 0.09947264 0.09968028 0.09976614
 0.09979571 0.09983764 0.09993932 0.1001225 0.1003781 0.1006477 0.100823 0.1007824 0.1004444 0.09980382
 0.09894837 0.09806849 0.09745762 0.09747328 0.09842227 0.1003934 0.1031584 0.1062576 0.1092244 0.11177
 0.1138134 0.1154081 0.116664 0.117697 0.1185985 0.1194242 0.120199 0.1209272 0.1216033 0.1222303
 0.1228266 0.1234128 0.1239965 0.1245744 0.1251412 0.1256935 0.1262313 0.1267618 0.1272995 0.1278543
 0.1284178 0.1289672 0.1294878 0.1299921 0.1305039 0.1310253 0.1315344 0.1320153 0.1324767 0.1329407
 0.1334241 0.1339293 0.1344388 0.1349231 0.1353645 0.1357734 0.1361734 0.1365755 0.1369771 0.1373763
 0.1377763 0.1381777 0.138578 0.1389809 0.1393966 0.1398267 0.1402514 0.1406415 0.1409867 0.1413084
 0.1416432 0.1420131 0.1424106 0.1428095 0.1431919 0.143566 0.1439562 0.1443755 0.1448098 0.1452304
 0.1456198 0.1459847 0.1463449 0.1467162 0.1471023 0.1474987 0.1478976 0.1482901 0.1486732 0.1490527
 0.1494367 0.1498232 0.1502019 0.1505668 0.1509242 0.1512868 0.1516636 0.1520538 0.152449 0.1528435
 0.1532415 0.1536476 0.154052 0.1544333 0.1547771 0.1550897 0.1553923 0.1557061 0.1560435 0.1564062
 0.1567875 0.157177 0.1575668 0.1579545 0.1583427 0.1587329 0.1591233 0.1595117 0.1598982 0.1602839
 0.16067 0.1610598 0.1614542 0.1618457 0.1622222 0.1625817 0.1629367 0.1632996 0.1636693 0.1640351
 0.1643914 0.1647435 0.1651006 0.1654643 0.1658278 0.1661849 0.1665378 0.1668904 0.1672416 0.1675883
 0.167931 0.1682741 0.1686209 0.1689701 0.1693183 0.1696665 0.1700204 0.1703817 0.1707433 0.1710975
 0.1714464 0.1717972 0.172152 0.1725063 0.1728565 0.1732026 0.1735473 0.1738924 0.1742369 0.1745777
 0.174915 0.1752518 0.1755897 0.1759281 0.1762668 0.1766057 0.1769444 0.177284 0.1776274 0.1779757
 0.1783275 0.1786802 0.1790331 0.1793885 0.1797482 0.1801064 0.1804512 0.1807782 0.1810988 0.1814288
 0.1817755 0.1821345 0.1824926 0.1828352 0.1831585 0.1834727 0.1837908 0.1841174 0.1844485 0.1847755
 0.1850951 0.1854134 0.1857378 0.1860656 0.1863907 0.1867172 0.1870538 0.1873993 0.1877461 0.1880886
 0.1884243 0.1887539 0.1890826 0.189414 0.1897466 0.1900818 0.1904252 0.1907744 0.19112 0.1914594
 0.1917978 0.192139 0.1924836 0.1928303 0.1931743 0.193512 0.1938466 0.1941808 0.1945142 0.1948507
 0.195196 0.1955434 0.1958797 0.1962035 0.1965238 0.1968484 0.1971831 0.1975291 0.1978755 0.1982076
 0.1985223 0.1988235 0.1991154 0.1994073 0.1997086 0.200017 0.2003272 0.2006441 0.2009703 0.2012961
 0.2016137 0.2019231 0.2022242 0.2025213 0.2028263 0.2031407 0.2034503 0.2037469 0.2040307 0.2042864
 0.2044681 0.2044549 0.2039343 0.2022744 0.19851 0.1915421 0.1805802 0.1656378 0.1476959 0.1283539
 0.1092459 0.09161687 0.07619691 0.06330119 0.05299998 0.04522488 0.03982338 0.03665758 0.03572006 0.03725998
 0.04191285 0.05031767 0.06170058 0.07263707 0.07839591 0.07667504 0.06980054 0.06260835 0.05843449 0.05751071
 0.05840335 0.05988342 0.06156012 0.06366415 0.06658944 0.07044464 0.075036 0.08034998 0.08678555 0.09464014
 0.1034984 0.1124105 0.1207125 0.1285454 0.1365298 0.1450189 0.1537265 0.1620079 0.1693747 0.1757385
 0.1813046 0.1863429 0.1910392 0.1954848 0.1997286 0.2037673 0.2074539 0.21047 0.2124813 0.2133876
 0.2134399 0.2131043 0.2127896 0.2126831 0.2127956 0.2130907 0.2135438 0.2141358 0.2148476 0.2156591
 0.2165388 0.2174475 0.2183557 0.2192452 0.2200968 0.2208916 0.2216208 0.2222851 0.2228898 0.2234423
 0.2239478 0.2244073 0.2248235 0.2252046 0.2255612 0.2259054 0.2262505 0.2265999 0.2269391 0.2272475
 0.2275161 0.227749 0.227957 0.2281533 0.2283512 0.2285604 0.2287829 0.2290133 0.229242 0.2294635
 0.2296806 0.2298949 0.2301007 0.2302938 0.2304801 0.2306676 0.2308568 0.2310432 0.2312244 0.231402
 0.2315843 0.2317817 0.2319936 0.2322059 0.2324061 0.2325959 0.2327857 0.2329842 0.2331921 0.2334017
 0.2336053 0.2338062 0.2340141 0.2342311 0.234453 0.2346801 0.2349124 0.2351407 0.2353562 0.2355607
 0.2357554 0.2359304 0.2360802 0.2362199 0.2363793 0.2365792 0.2368114 0.2370452 0.2372595 0.2374599
 0.2376586 0.2378531 0.238034 0.2381985 0.2383546 0.2385271 0.2387489 0.2390251 0.2393193 0.2395936
 0.2398433 0.2400824 0.2403228 0.2405751 0.240835 0.2410673 0.2412357 0.2413562 0.2415028 0.2417511
 0.2421084 0.2424994 0.2428323 0.2430828 0.2432953 0.2435209 0.2437813 0.2440501 0.2442305 0.2442216
 0.2440803 0.2440509 0.2443446 0.2449268 0.2455789 0.2461176 0.2465044 0.2467947 0.2470451 0.2472602
 0.2473903 0.2473898 0.2473087 0.2473191 0.2475922 0.2481173 0.2486974 0.2491552 0.2494739 0.2497143
 0.2499076 0.2500628 0.2501405 0.2499905 0.249505 0.2489147 0.2487357 0.249271 0.2502685 0.251194
 0.2517633 0.2520826 0.2523439 0.2525879 0.2527684 0.25279 0.2523816 0.2512557 0.2496706 0.2485806
 0.2488452 0.2503613 0.2522297 0.2536548 0.2544477 0.2548178 0.2550186 0.2551822 0.2552237 0.2548495
 0.2538803 0.2526836 0.2520829 0.2526017 0.253882 0.2550719 0.2556957 0.2559087 0.2560479 0.2562458
 0.2563352 0.2558078 0.2541045 0.2514446 0.2492444 0.2491263 0.2513349 0.2544438 0.2567717 0.2578282
 0.2581761 0.2581904 0.2574946 0.2556283 0.2527438 0.2495357 0.2470103 0.2463396 0.2480921 0.2512709
 0.2538742 0.2548633 0.2550407 0.2557321 0.2572071 0.2586865 0.2593559 0.258991 0.2578302 0.2561469
 0.2541149 0.2521942 0.2513706 0.2524658 0.255134 0.257987 0.2598766 0.2607592 0.2610856 0.2604604
 0.2573769 0.2510224 0.2435463 0.2394742 0.2417089 0.2484864 0.255275 0.2592394 0.2607884 0.2614338
 0.2617699 0.2613142 0.2587959 0.2528593 0.2442046 0.2369137 0.2356881 0.2412076 0.2493602 0.2550731
 0.2557673 0.2516364 0.2447329 0.2383565 0.2357099 0.237953 0.2436925 0.2503649 0.2557793 0.258705
 0.2588554 0.2567808 0.2538199 0.2517619 0.2515611 0.2519317 0.2503125 0.2460963 0.24164 0.2388069
 0.2360909 0.2314159 0.2266825 0.2265071 0.2322171 0.2396399 0.2437838 0.2438872 0.2425532 0.2410206
 0.2370781 0.2282772 0.2165729 0.2084118 0.2090771 0.2172098 0.2260202 0.2299135 0.2289252 0.2267544
 0.2258146 0.2248047 0.2206321 0.2124917 0.2038777 0.1996616 0.2009499 0.2041007 0.2050416 0.2025583
 0.1968877 0.1883317 0.1795014 0.1761861 0.1824349 0.1955355 0.208141 0.2143343 0.2118061 0.200504
 0.1833244 0.1676924 0.1619604 0.1679842 0.1788936 0.1854186 0.1832603 0.1738512 0.1603258 0.1453113
 0.1320774 0.1249378 0.1266237 0.1354773 0.1457434 0.1505921 0.1458774 0.1332096 0.1199271 0.1138218
 0.1162314 0.1212821 0.1225109 0.118689 0.1128725 0.1082944 0.1064228 0.1069447 0.1081855 0.1085944
 0.1079914 0.1060728 0.1007623 0.09086534 0.07981025 0.07343704 0.07387039 0.07842652 0.08442303 0.09148467
 0.09839812 0.1015392 0.09899462 0.09429043 0.09341009 0.09846501 0.1058727 0.1106862 0.1114788 0.1105963
 0.1104965 0.111043 0.1108583 0.1103758 0.1119063 0.1164179 0.1217868 0.1251486 0.1258766 0.1252978
 0.1244854 0.1234792 0.1220383 0.1201028 0.1177288 0.115153 0.1127249 0.1105141 0.108259 0.1057716
 0.1029372 0.09919558 0.09370247 0.08663923 0.07998025 0.07599477 0.07492344 0.07509552 0.07534491 0.07573068
 0.07539187 0.07186699 0.06437045 0.05649666 0.05359798 0.05763102 0.0657375 0.0734873 0.07819039 0.07908437
 0.07608803 0.07016139 0.06469743 0.06445445 0.07163352 0.08376834 0.09642525 0.1069943 0.1148494 0.119255
 0.1192459 0.115525 0.1111187 0.1096869 0.1133763 0.1218253 0.1321156 0.1393409 0.1390081 0.1316387
 0.1250227 0.1284363 0.1426886 0.1585276 0.1670129 0.1686369 0.1695247 0.1719348 0.173209 0.1726491
 0.1741734 0.1809351 0.1906084 0.1976371 0.198089 0.1911863 0.178716 0.165335 0.1573662 0.1578291
 0.1631528 0.167169 0.1671326 0.1633599 0.1555541 0.1442851 0.1348542 0.1341091 0.1424692 0.1529742
 0.1592103 0.1611672 0.1623558 0.163824 0.1629575 0.1574797 0.1491624 0.1427046 0.1410255 0.1426701
 0.1442405 0.1439862 0.141901 0.1377428 0.1311711 0.1237362 0.1188738 0.118983 0.1230536 0.1277164
 0.130345 0.1307582 0.13034 0.1303361 0.1310264 0.1318826 0.1324548 0.1335183 0.1369199 0.1434545
 0.1513463 0.1579694 0.1628345 0.1677113 0.1738504 0.1801867 0.184545 0.1859649 0.1856444 0.1859656
 0.1886079 0.1931776 0.1974642 0.199319 0.1987022 0.1979153 0.1994797 0.2037093 0.2086556 0.2123011
 0.2142095 0.2151055 0.2156896 0.2160867 0.2158158 0.2142059 0.2114863 0.2094429 0.2101834 0.214031
 0.2191614 0.223398 0.2258992 0.2270828 0.2275117 0.2272614 0.2262261 0.2246817 0.2233171 0.2227163
 0.2229602 0.223755 0.2247739 0.2258014 0.2267165 0.2274899 0.2281659 0.2287945 0.2294079 0.2300462
 0.2307276 0.231387 0.2319248 0.2323492 0.2328027 0.2333899 0.2340275 0.2345279 0.2347773 0.2347416
 0.234343 0.2334696 0.2321232 0.2304486 0.2285779 0.2265433 0.2244394 0.2226336 0.2216804 0.2219126
 0.2231159 0.2246414 0.2258192 0.2262719 0.2260023 0.225376 0.224972 0.2252278 0.2261167 0.2272139
 0.2280912 0.2286034 0.2288344 0.2288886 0.2287961 0.2285461 0.2280963 0.2273207 0.2260651 0.2244025
 0.2228319 0.2220458 0.2223532 0.2233755 0.2244322 0.2252136 0.2259655 0.2270287 0.2283285 0.22935
 0.2295217 0.2286499 0.2271307 0.2257533 0.2251277 0.2252227 0.2255268 0.2256312 0.225528 0.2253793
 0.2252099 0.2249123 0.2244178 0.2237481 0.2229362 0.2219681 0.2208081 0.2194474 0.2179138 0.2162418
 0.2144544 0.2125762 0.2106425 0.2086831 0.2067083 0.2047161 0.2027008 0.2006561 0.1985851 0.1964987
 0.1943781 0.1921332 0.1896171 0.1866889 0.1832589 0.1792892 0.1747921 0.1698533 0.1646466 0.1594013
 0.1543358 0.149607 0.1453026 0.1414673 0.1381317 0.1353226 0.1330619 0.1313647 0.1302341 0.129653
 0.1295882 0.1300054 0.1308652 0.1320964 0.1335791 0.1351596 0.1366863 0.1380495 0.1392148 0.1402319
 0.1412029 0.1422239 0.1433355 0.1445184 0.1457311 0.1469402 0.1481102 0.1491865 0.1501132 0.1508605
 0.1514221 0.1517997 0.1519988 0.1520182 0.1518165 0.151291 0.1503272 0.1489429 0.1474532 0.1464761
 0.1466534 0.1482354 0.1508899 0.1539271 0.1567423 0.1591025 0.1610996 0.1629217 0.164692 0.1664605
 0.1682574 0.1701249 0.172133 0.1743826 0.1769667 0.1799132 0.1831687 0.1866275 0.1901596 0.1936267
 0.196904 0.1999028 0.2025752 0.2049039 0.2068929 0.2085665 0.2099705 0.2111633 0.2121956 0.2131003
 0.2138963 0.2145881 0.2151647 0.2156163 0.2159462 0.2161544 0.2162264 0.2161644 0.2160167 0.2158514
 0.2157121 0.215614 0.2155696 0.2155961 0.2156954 0.2158376 0.2159661 0.2160217 0.2159635 0.2157764
 0.2154698 0.215062 0.2145493 0.2138973 0.2130765 0.2120964 0.2109859 0.2097561 0.2084067 0.2069556
 0.2054408 0.203898 0.2023523 0.2008216 0.1993126 0.1978056 0.1962477 0.1945815 0.1927974 0.1909522
 0.1891187 0.1873285 0.1855683 0.1838115 0.1820427 0.1802627 0.1784821 0.1767045 0.1749386 0.173242
 0.1717178 0.1704285 0.1693217 0.1682712 0.1671869 0.1660787 0.1650296 0.1641237 0.1633891 0.1627917
 0.1622729 0.1617907 0.161342 0.1609622 0.1606961 0.1605456 0.1604421 0.160285 0.1600172 0.159667
 0.1593156 0.159018 0.1587591 0.1584903 0.1581845 0.1578339 0.1574046 0.1568181 0.1559762 0.1548012
 0.1532762 0.1514608 0.1494631 0.1473985 0.1453778 0.1435047 0.1418559 0.1404673 0.1393408 0.1384465
 0.1377235 0.1371076 0.136571 0.1361355 0.1358509 0.13574 0.1357404 0.1357239 0.1356143 0.1354704
 0.135427 0.1355747 0.1359026 0.1363181 0.1367071 0.1370017 0.1372004 0.1373222 0.1373695 0.1373374
 0.137221 0.1370087 0.1366994 0.1363188 0.1358942 0.135433 0.1349304 0.1343693 0.1337178 0.1329575
 0.1321005 0.1311606 0.1301364 0.1290236 0.1278052 0.126459 0.1250456 0.1237699 0.1228882 0.1225477
 0.1227111 0.1231958 0.1237956 0.1244032 0.1249731 0.1253631 0.1253769 0.1250945 0.1250317 0.125764
 0.1273691 0.1293311 0.1309938 0.1320144 0.1323858 0.1322028 0.1315513 0.1305223 0.1291599 0.1274261
 0.1253142 0.1229217 0.1203599 0.1177112 0.1151047 0.1126992 0.1105966 0.1088449 0.10746 0.1064659
 0.1059437 0.1055519 0.1036792 0.09827369 0.08999813 0.08366349 0.08421075 0.09117177 0.09898891 0.1029129
 0.1028105 0.1012169 0.0998898 0.09911298 0.09881161 0.09909113 0.1000168 0.1014198 0.1029326 0.1041895
 0.1050414 0.1055168 0.1055689 0.1048847 0.1028368 0.09868643 0.09219798 0.08420046 0.07630622 0.06993793
 0.06566191 0.06326376 0.06213935 0.06163236 0.06130666 0.06110045 0.06124463 0.0620159 0.06354091 0.0657796
 0.06859077 0.07170814 0.07470298 0.07716586 0.07899339 0.08037656 0.08148364 0.08227932 0.08265717 0.08260745
 0.08221743 0.08159601 0.0808349 0.07999838 0.07910913 0.07815039 0.07713917 0.07622044 0.07560743 0.07537115
 0.07536757 0.07541687 0.07545518 0.07548264 0.0754889 0.07547812 0.07548719 0.0755682 0.07578833 0.07618918
 0.07670453 0.07718311 0.0775207 0.07772546 0.07785807 0.07792635 0.0778231 0.07743338 0.07687847 0.07650775
 0.07646486 0.07640744 0.07591063 0.0750595 0.07439308 0.07430093 0.0746742 0.07512422 0.07535912 0.07533063
 0.07518888 0.07519671 0.0755672 0.07622142</values></Ydata></ScSm><ScRf><Ydata ylabel="Single channel"><values byteorder="INTEL" format="FLOAT32" numvalues="1820"> 0.06070181 0.06085513 0.06095228 0.06099075 0.06099126 0.06099629 0.06105322 0.06118549 0.06137482 0.06156823
 0.06171084 0.06178196 0.06179389 0.06175938 0.06168979 0.06163115 0.06166016 0.06181322 0.06203339 0.06220485
 0.06224586 0.06218235 0.06213287 0.06219007 0.06229695 0.0622671 0.06196383 0.06145833 0.06098005 0.06070384
 0.06064352 0.060793 0.06123842 0.06193551 0.06246085 0.06231361 0.06154067 0.06077353 0.06052572 0.06069932
 0.06087486 0.06080133 0.06047785 0.06005754 0.0598876 0.0604155 0.06174789 0.06328556 0.06393771 0.06281105
 0.05985026 0.0560376 0.05302731 0.05226077 0.05395625 0.05681676 0.05899835 0.05957844 0.05900334 0.05816301
 0.05742859 0.05675985 0.05632567 0.05654361 0.05750497 0.05858079 0.05874477 0.05745357 0.05529596 0.05357494
 0.05311629 0.05375028 0.05501344 0.05665565 0.05792956 0.05718167 0.05347706 0.04866277 0.04654773 0.04928149
 0.05506005 0.05988961 0.06114177 0.05903375 0.05547202 0.05246691 0.05136608 0.05249662 0.05512124 0.05805037
 0.06035544 0.06140342 0.06070283 0.05833725 0.05537755 0.05335673 0.05332968 0.05546671 0.05901854 0.0623773
 0.06380406 0.06271451 0.06006803 0.05735141 0.05560051 0.05540682 0.0570621 0.06025786 0.064058 0.06744172
 0.06972557 0.07063834 0.07037772 0.06948563 0.06843707 0.06755215 0.06727633 0.0679114 0.06888468 0.06896451
 0.06760156 0.06566811 0.06456262 0.0647644 0.06545113 0.065496 0.06460614 0.06314094 0.06099917 0.05759387
 0.05320533 0.04934559 0.04724938 0.04693207 0.04808701 0.05056806 0.05333297 0.05438215 0.05294496 0.05087453
 0.05080963 0.05336188 0.05680038 0.05916603 0.06008597 0.06064155 0.0619748 0.06411934 0.06585184 0.06561416
 0.06305857 0.05992153 0.05879895 0.06059594 0.06365311 0.06578754 0.06659749 0.06722049 0.06834657 0.06914823
 0.06814404 0.06496018 0.06127245 0.05976606 0.06179363 0.06602065 0.06939566 0.06940562 0.06576483 0.06048023
 0.05629029 0.05477192 0.05592094 0.05919483 0.06411292 0.06970231 0.07425009 0.07625897 0.07552935 0.07308573
 0.07000496 0.0664168 0.06205394 0.05790652 0.05643338 0.05924196 0.06503169 0.07067721 0.07401802 0.07493544
 0.07413335 0.07180279 0.06783175 0.06311399 0.05997998 0.06038665 0.06356195 0.06643859 0.06686544 0.06557177
 0.06459662 0.06474698 0.0652917 0.06552328 0.06577468 0.06685318 0.06888351 0.07100104 0.07218301 0.07217341
 0.07153499 0.07099744 0.07079348 0.07048383 0.06957979 0.06851742 0.06861056 0.07060892 0.07366591 0.07620773
 0.07751216 0.07797386 0.07805027 0.0774482 0.0755391 0.07253563 0.0699774 0.06959157 0.07162388 0.07468041
 0.07717485 0.0784725 0.07875438 0.07844515 0.07792066 0.07738365 0.07692643 0.07678957 0.07730221 0.07840358
 0.07953571 0.08020201 0.08037522 0.08024205 0.07984442 0.07915686 0.0783473 0.07777911 0.0777487 0.07826424
 0.07909033 0.07995588 0.08064736 0.08097231 0.0808311 0.08036389 0.07986851 0.07952942 0.07935083 0.07934362
 0.07959253 0.08008872 0.08064294 0.08104387 0.08122869 0.08125937 0.08120157 0.08107515 0.0808917 0.08070848
 0.08063639 0.08076085 0.08103526 0.08130958 0.08150774 0.08170605 0.08197115 0.08220138 0.08223369 0.08206329
 0.08185874 0.08177593 0.08183245 0.08195187 0.08205099 0.08205193 0.08187264 0.08149996 0.08108679 0.0808935
 0.08107919 0.08158845 0.08224689 0.08288533 0.08336557 0.08360827 0.08365427 0.08362371 0.08357799 0.08347631
 0.08328266 0.08306836 0.08298896 0.08316471 0.08357237 0.0840558 0.08445171 0.08469091 0.0847954 0.08484392
 0.08494166 0.08513544 0.08533639 0.08540331 0.0853226 0.08523695 0.08527616 0.08541221 0.08550565 0.08546899
 0.08536425 0.08533694 0.08546284 0.08568081 0.08588085 0.08602873 0.08618172 0.08639118 0.08660787 0.08670399
 0.08660951 0.08640687 0.08624814 0.08619419 0.08619661 0.08622669 0.08633442 0.08654911 0.08679 0.08693473
 0.08695541 0.08694092 0.08698024 0.0870557 0.08707036 0.08696319 0.08677439 0.08660547 0.08653699 0.08657986
 0.08667922 0.08675528 0.08675385 0.08667336 0.08655092 0.0864259 0.08631972 0.08625335 0.08627413 0.08643262
 0.08670541 0.08695631 0.08701988 0.08684817 0.08656407 0.08635157 0.0862904 0.08630076 0.08624297 0.08605477
 0.08578895 0.08553904 0.08535466 0.08522511 0.08511775 0.085019 0.08495291 0.0849694 0.08509327 0.0852639
 0.08534676 0.08524352 0.08498984 0.08471915 0.08453942 0.08446849 0.08446522 0.084481 0.08449266 0.08451795
 0.08458428 0.08466467 0.08468117 0.08459796 0.08447681 0.08441877 0.08448403 0.0846699 0.08491153 0.08509408
 0.08512555 0.08502606 0.08491033 0.08487043 0.08490786 0.08497941 0.08506127 0.08515003 0.08523764 0.08531988
 0.0854203 0.08557954 0.08581367 0.08608954 0.08634335 0.08652435 0.08663193 0.08672278 0.08687554 0.0871314
 0.08745936 0.08778102 0.08803512 0.0882229 0.08839209 0.08857842 0.08877562 0.08897142 0.08919062 0.08947086
 0.08980459 0.0901394 0.09043779 0.09070952 0.09098362 0.09127264 0.09157269 0.09188817 0.09224518 0.09266526
 0.09311512 0.09350167 0.09374753 0.0938715 0.0939794 0.09418134 0.09451629 0.09492251 0.09526712 0.09544849
 0.0955029 0.09557919 0.09577858 0.09605426 0.0963046 0.09652659 0.09681854 0.09723973 0.09772007 0.09812439
 0.09838215 0.09854011 0.09869705 0.09889613 0.09908842 0.09920745 0.09926352 0.09933305 0.0994617 0.09962887
 0.09982148 0.1000851 0.1004579 0.1008918 0.1012873 0.1015867 0.1017985 0.1019529 0.1020702 0.1021566
 0.1022071 0.1022245 0.1022446 0.1023122 0.1024184 0.1025003 0.1025238 0.1025338 0.1026011 0.1027524
 0.102976 0.103259 0.1035802 0.1038905 0.1041548 0.104412 0.1047388 0.1051307 0.1054686 0.1056427
 0.1056755 0.1056743 0.1056972 0.1057329 0.1057901 0.1059278 0.1061808 0.1065116 0.1068599 0.1072039
 0.1075549 0.1079129 0.1082419 0.108484 0.1085978 0.1085938 0.1085392 0.1085271 0.1086325 0.1088766
 0.1092156 0.1095674 0.1098614 0.1100605 0.1101454 0.1101152 0.1100243 0.1099861 0.1100875 0.1102945
 0.1104686 0.1104801 0.1102885 0.1099188 0.1094029 0.1087686 0.1080713 0.1074013 0.1068454 0.1064484
 0.10622 0.1061788 0.1063701 0.1068172 0.107461 0.1081722 0.1088272 0.1093452 0.1096518 0.1096616
 0.1093386 0.1087499 0.1080288 0.1072937 0.1066132 0.1060061 0.1054432 0.1048835 0.1043595 0.1040224
 0.10407 0.1046236 0.1056678 0.1070671 0.1086112 0.1100773 0.1113131 0.1122926 0.1130907 0.1137977
 0.1144644 0.115115 0.1157741 0.1164447 0.1170813 0.1176268 0.1180789 0.1184895 0.1189004 0.1193037
 0.1196645 0.1199569 0.1201856 0.1203869 0.1205943 0.120786 0.1208924 0.1208766 0.1207819 0.1206764
 0.1205726 0.1204203 0.120159 0.1197679 0.119295 0.1188711 0.1186856 0.1189084 0.1195955 0.1206552
 0.1219141 0.1232247 0.124501 0.1256673 0.1266255 0.1273096 0.1277487 0.1280457 0.1283016 0.1285719
 0.1288714 0.1291893 0.1295033 0.1297963 0.1300689 0.1303416 0.1306438 0.1309883 0.131347 0.1316658
 0.1319172 0.1321377 0.1324 0.1327441 0.1331369 0.1335062 0.1338183 0.1341083 0.1344198 0.1347356
 0.1349989 0.1351943 0.1353709 0.1355893 0.1358765 0.136224 0.1365925 0.1369206 0.1371641 0.1373377
 0.1374968 0.1376812 0.1378914 0.1381142 0.1383462 0.1385888 0.1388405 0.1391049 0.1393955 0.1397154
 0.1400318 0.1402897 0.1404643 0.1405929 0.1407421 0.140945 0.1411778 0.141396 0.1415861 0.141784
 0.1420397 0.1423611 0.1426938 0.1429637 0.1431402 0.143254 0.1433623 0.143505 0.1436905 0.143906
 0.1441319 0.1443505 0.1445536 0.1447475 0.1449476 0.1451632 0.1453892 0.1456133 0.1458278 0.1460333
 0.1462342 0.1464345 0.1466414 0.1468714 0.1471428 0.1474504 0.1477524 0.1480001 0.1481795 0.1483158
 0.1484401 0.1485676 0.1487042 0.148858 0.1490361 0.1492383 0.1494576 0.1496844 0.1499088 0.1501224
 0.1503215 0.1505109 0.1507017 0.1509021 0.1511142 0.1513384 0.1515758 0.1518216 0.1520612 0.1522803
 0.152477 0.1526622 0.1528494 0.153041 0.1532261 0.1533953 0.1535568 0.1537298 0.1539232 0.1541285
 0.1543334 0.154535 0.1547367 0.1549406 0.1551445 0.1553439 0.155537 0.1557282 0.155925 0.1561298
 0.1563377 0.1565407 0.1567345 0.1569207 0.1571053 0.1572947 0.1574933 0.1577028 0.1579219 0.158146
 0.158368 0.1585802 0.1587769 0.1589597 0.1591367 0.1593138 0.1594911 0.159669 0.159853 0.160046
 0.1602445 0.1604445 0.1606467 0.1608533 0.1610655 0.1612847 0.161511 0.1617424 0.1619743 0.1621998
 0.1624122 0.1626116 0.1628064 0.1630069 0.163219 0.1634435 0.163675 0.1639036 0.1641211 0.1643245
 0.1645125 0.1646852 0.1648484 0.1650103 0.1651764 0.165349 0.1655284 0.1657115 0.1658954 0.1660808
 0.1662685 0.1664575 0.1666514 0.1668567 0.1670713 0.1672837 0.1674878 0.1676865 0.167885 0.1680863
 0.168291 0.1684974 0.1687022 0.1689049 0.169107 0.1693112 0.1695215 0.1697388 0.1699574 0.1701729
 0.1703869 0.1705997 0.1708075 0.1710125 0.1712224 0.1714379 0.1716531 0.1718655 0.1720736 0.1722753
 0.1724744 0.1726778 0.1728846 0.1730914 0.173302 0.1735182 0.1737322 0.1739405 0.1741509 0.1743683
 0.1745888 0.1748065 0.1750171 0.17522 0.1754234 0.1756355 0.1758528 0.1760713 0.1762967 0.1765297
 0.1767592 0.1769764 0.177178 0.1773506 0.1774578 0.1773977 0.1768961 0.1754002 0.1720715 0.1659588
 0.1563731 0.1433184 0.1276434 0.1107453 0.09405467 0.07866014 0.06520428 0.05397025 0.04501759 0.03826906
 0.0335758 0.03081969 0.03000576 0.0313511 0.03539532 0.04268699 0.05256556 0.06207212 0.06709474 0.06561412
 0.05963625 0.05336555 0.04971298 0.04889052 0.04965893 0.05095088 0.05241836 0.05425026 0.05678515 0.06012326
 0.0641042 0.06872065 0.07431902 0.08115302 0.08885606 0.09659998 0.1038078 0.1106011 0.1175178 0.1248678
 0.1324137 0.1396079 0.1460285 0.1515876 0.1564508 0.1608487 0.1649452 0.1688178 0.1725057 0.1760087
 0.179206 0.1818238 0.1835697 0.1843561 0.1844055 0.1841258 0.1838681 0.1837871 0.1838883 0.1841426
 0.1845349 0.1850576 0.1857028 0.186455 0.1872776 0.1881229 0.1889552 0.1897547 0.1905077 0.1912085
 0.1918594 0.1924627 0.1930183 0.1935313 0.1940083 0.1944505 0.1948587 0.1952375 0.1955906 0.195922
 0.1962413 0.1965577 0.1968673 0.1971555 0.1974104 0.197632 0.1978329 0.1980307 0.1982342 0.1984406
 0.1986464 0.1988541 0.199066 0.1992828 0.1995074 0.199738 0.1999618 0.2001666 0.2003547 0.2005375
 0.200722 0.2009092 0.2011004 0.201298 0.201504 0.2017174 0.2019314 0.202136 0.2023271 0.202508
 0.2026834 0.2028555 0.203027 0.2032027 0.2033919 0.2036062 0.2038456 0.2040877 0.2043078 0.2045056
 0.2047011 0.2049086 0.2051283 0.205354 0.2055707 0.205755 0.2058977 0.2060256 0.2061865 0.2064064
 0.2066647 0.2069152 0.2071318 0.207325 0.2075154 0.2077055 0.2078832 0.2080411 0.2081906 0.2083639
 0.2085908 0.2088642 0.2091413 0.2093922 0.2096242 0.2098543 0.2100871 0.2103243 0.2105614 0.2107724
 0.2109301 0.2110545 0.2112168 0.2114811 0.2118396 0.2122122 0.2125194 0.2127505 0.2129522 0.2131705
 0.2134261 0.2137012 0.2139118 0.2139615 0.2138869 0.2138928 0.2141628 0.2146718 0.2152382 0.215715
 0.2160794 0.2163789 0.2166484 0.2168739 0.2170068 0.2170187 0.2169694 0.217016 0.2173019 0.2178064
 0.2183473 0.2187668 0.219058 0.2192882 0.219493 0.2196747 0.2197874 0.2196937 0.2193042 0.2188311
 0.2187326 0.2192716 0.2202177 0.2210928 0.2216455 0.221977 0.222266 0.222549 0.2227776 0.2228634
 0.2225693 0.2216417 0.220304 0.2193998 0.2196985 0.2211182 0.2228616 0.2242139 0.2249984 0.2254031
 0.2256634 0.2258975 0.2260122 0.2257294 0.2248979 0.2238765 0.2234266 0.2240145 0.2252946 0.2264783
 0.2271317 0.227403 0.2276079 0.2278765 0.2280651 0.2277125 0.2263045 0.22403 0.2221618 0.2221603
 0.2242464 0.2271382 0.2293217 0.2303526 0.2307394 0.2308301 0.2302975 0.2287332 0.22627 0.2235186
 0.2213669 0.2208616 0.2225178 0.2254502 0.2278751 0.2288736 0.2291674 0.2299323 0.2313962 0.2328547
 0.2335798 0.2333807 0.2324822 0.2311244 0.2294422 0.2278357 0.2272031 0.2283093 0.2308628 0.2336098
 0.235491 0.2364445 0.2368744 0.2364264 0.23373 0.2280471 0.2213444 0.2177534 0.2199259 0.2262661
 0.2326497 0.2364781 0.2380993 0.2388747 0.2393414 0.2390644 0.2368868 0.2315625 0.2237338 0.217173
 0.2162288 0.2215198 0.2292313 0.2346782 0.2354922 0.2318599 0.2256814 0.2200085 0.2177932 0.2200953
 0.2256269 0.2320222 0.2372509 0.2401679 0.2405042 0.2387654 0.2362014 0.2345012 0.2345653 0.2351767
 0.2339258 0.2302459 0.2263413 0.2239467 0.2216475 0.2175092 0.2133428 0.2135137 0.219268 0.2266403
 0.2309066 0.2313711 0.2305078 0.2294535 0.2260604 0.2179868 0.2071322 0.199725 0.2008788 0.2092814
 0.2183639 0.2227373 0.2224803 0.2212026 0.221235 0.2212509 0.2181265 0.2110088 0.2033926 0.2001885
 0.2025017 0.2066454 0.2085117 0.2068484 0.2018253 0.1937236 0.1853012 0.1826441 0.190037 0.2047245
 0.2190682 0.2268368 0.2254851 0.2147872 0.1977328 0.1823779 0.1779307 0.1864984 0.2005245 0.2097386
 0.2093067 0.200701 0.1873225 0.1721811 0.1592906 0.1540984 0.1602321 0.1758201 0.1934966 0.2040395
 0.2014692 0.1877289 0.1731465 0.1690102 0.1772678 0.1891509 0.1949843 0.1929619 0.1877905 0.1846446
 0.1861879 0.1920588 0.1992492 0.2049453 0.2087796 0.2096408 0.2026459 0.1850045 0.1637842 0.151251
 0.1521328 0.1612056 0.1731035 0.1871388 0.2008928 0.206902 0.2010671 0.1904007 0.1870523 0.1954065
 0.208331 0.2159129 0.2152794 0.2111126 0.2084246 0.2072235 0.2050259 0.2026387 0.2043578 0.2120439
 0.2218804 0.2286338 0.2310947 0.2316149 0.2321198 0.2326452 0.2326697 0.2319865 0.2306397 0.2290751
 0.228008 0.2276213 0.2274018 0.2269374 0.2258917 0.2227823 0.2153098 0.2035768 0.1921233 0.1863189
 0.1866689 0.1892 0.1913783 0.1935828 0.1935746 0.1849426 0.1655657 0.1445595 0.1356402 0.1438677
 0.161876 0.178277 0.1863877 0.1848074 0.1740199 0.1566004 0.1399285 0.1338691 0.1427238 0.1611047
 0.1796931 0.1932658 0.2012739 0.2033866 0.1985126 0.1879732 0.1767663 0.1707075 0.1728993 0.1823698
 0.1943832 0.2016499 0.1979045 0.1841396 0.1713367 0.1723512 0.1884245 0.2071127 0.2162788 0.2163793
 0.2155083 0.216811 0.2169415 0.2149248 0.2156875 0.2233134 0.2350488 0.2440205 0.2452689 0.2377094
 0.2235002 0.2085294 0.200867 0.204257 0.2137914 0.2211874 0.2227697 0.2189803 0.2094934 0.1952474
 0.1836085 0.1839492 0.1967933 0.212585 0.2225447 0.2266659 0.2297333 0.2330751 0.2329455 0.2262002
 0.2155555 0.2079175 0.2075598 0.2123931 0.2175121 0.2203693 0.2208088 0.218137 0.2115516 0.2034704
 0.1995657 0.2038331 0.2144312 0.2253733 0.2318563 0.2332574 0.231745 0.2294608 0.2270764 0.2239496
 0.2195534 0.2153445 0.2144841 0.2184631 0.2247366 0.2293468 0.2314585 0.2336337 0.2378012 0.2425952
 0.2450172 0.2437123 0.2402591 0.2377846 0.2384495 0.2417426 0.2448753 0.2451562 0.2425394 0.2399024
 0.2404013 0.2444659 0.249736 0.2537459 0.2559322 0.2571318 0.2581421 0.2590244 0.2590557 0.257274
 0.2538406 0.2508452 0.2508264 0.2542485 0.2590519 0.2627821 0.2645838 0.2650653 0.2649316 0.2642503
 0.2628554 0.2610138 0.2594527 0.258778 0.2590372 0.2598629 0.2608608 0.2617786 0.2624844 0.262953
 0.2632415 0.2634111 0.2635005 0.2635671 0.2636585 0.2637279 0.263681 0.2635487 0.2635187 0.2637247
 0.2640714 0.2643355 0.2643724 0.2641369 0.2635693 0.2626071 0.2613138 0.2598642 0.2583499 0.2567149
 0.2549983 0.2535996 0.2531566 0.2540596 0.2560881 0.2585459 0.2607349 0.2623049 0.2632549 0.2637465
 0.2639615 0.2640456 0.2640793 0.2640646 0.263958 0.2637334 0.2634133 0.2630431 0.2626526 0.2622572
 0.261883 0.2615622 0.2612942 0.2610284 0.2606958 0.2602595 0.259738 0.2591852 0.2586395 0.2580837
 0.2574584 0.2567154 0.2558547 0.2549186 0.2539715 0.2530776 0.2522644 0.2515006 0.2507283 0.2499127
 0.2490356 0.2480584 0.2469529 0.2457822 0.2446963 0.2438077 0.2430966 0.2424556 0.2417892 0.2410454
 0.2401966 0.2392417 0.2382106 0.2371365 0.2360297 0.2348897 0.2337171 0.2324975 0.2311968 0.2297889
 0.2282762 0.2266851 0.2250531 0.2234108 0.2217463 0.2199845 0.2180073 0.2156896 0.2129124 0.2095767
 0.2056434 0.2011783 0.1963504 0.1913798 0.1864704 0.1817796 0.1774326 0.1735418 0.1701993 0.1674641
 0.1653715 0.1639515 0.1632282 0.1632097 0.1638864 0.1652308 0.1671842 0.1696399 0.172446 0.1754322
 0.1784319 0.1812951 0.1839183 0.1862917 0.1884933 0.1906001 0.1926105 0.1944678 0.1961293 0.1975829
 0.1988228 0.1998485 0.2006842 0.2013735 0.2019553 0.2024521 0.2028754 0.2032351 0.2035411 0.2037996
 0.2040138 0.2041949 0.2043632 0.2045362 0.2047244 0.2049403 0.2051997 0.205515 0.2058963 0.2063496
 0.2068629 0.2074054 0.2079562 0.2085217 0.2091201 0.2097644 0.2104719 0.2112771 0.2122207 0.2133267
 0.2145878 0.2159637 0.2173837 0.2187518 0.219965 0.2209479 0.2216781 0.2221737 0.2224599 0.2225551
 0.22248 0.2222627 0.2219338 0.221521 0.2210471 0.2205269 0.2199667 0.2193673 0.2187275 0.2180485
 0.2173393 0.2166198 0.2159117 0.2152252 0.2145564 0.2139011 0.2132684 0.2126689 0.2120945 0.2115244
 0.2109489 0.2103748 0.2098056 0.2092332 0.2086498 0.208049 0.2074087 0.2066897 0.2058632 0.2049311
 0.2039102 0.2028039 0.2016005 0.2002952 0.1989018 0.1974406 0.1959227 0.1943477 0.1927114 0.191006
 0.1892138 0.1873143 0.1853193 0.1832951 0.1813315 0.179486 0.1777675 0.1761628 0.1746578 0.1732409
 0.1719068 0.170653 0.1694658 0.1683212 0.1672049 0.1661222 0.1650844 0.1640991 0.1631759 0.1623319
 0.1615867 0.160948 0.1604043 0.1599372 0.1595397 0.159213 0.1589565 0.1587794 0.1587059 0.1587401
 0.1588304 0.1588918 0.1588665 0.1587594 0.1586231 0.1585063 0.1584159 0.1583344 0.1582593 0.1581928
 0.1580913 0.1578502 0.1573437 0.1564792 0.1552357 0.1536698 0.1518813 0.1499853 0.1481168 0.1464163
 0.1449776 0.1438266 0.1429474 0.1422945 0.1417926 0.1413772 0.1410446 0.1408478 0.1408457 0.1410365
 0.1413107 0.1415039 0.1415504 0.1415625 0.1417263 0.1421456 0.1427917 0.1435468 0.1442797 0.1449155
 0.14544 0.1458411 0.1460962 0.1462151 0.1462379 0.1461868 0.1460628 0.1458714 0.1456195 0.1453128
 0.1449648 0.1445774 0.1441245 0.1435837 0.1429521 0.1422223 0.1413912 0.1404735 0.1394553 0.1382961
 0.1370559 0.1359637 0.1352904 0.1351805 0.135601 0.1363819 0.1373269 0.1383334 0.1393396 0.1401476
 0.1404988 0.1404665 0.1406308 0.141661 0.1436909 0.146176 0.1483683 0.1498515 0.150602 0.1507168
 0.1502716 0.1493441 0.1479561 0.1460389 0.1435882 0.1407547 0.1377159 0.1346145 0.1316403 0.1289813
 0.1267124 0.1248477 0.1234053 0.1224366 0.1220581 0.1218774 0.1199887 0.113965 0.1046087 0.09762049
 0.09880303 0.1075367 0.1172167 0.1222217 0.1223785 0.1206664 0.1191556 0.118168 0.1176039 0.1176094
 0.1183117 0.1195627 0.1209714 0.1221278 0.1228489 0.1231682 0.1230665 0.1222097 0.1198595 0.1151369
 0.1077401 0.0985544 0.0893441 0.08171709 0.0763939 0.07323902 0.07163695 0.07084781 0.07034696 0.07006195
 0.0702869 0.07132804 0.07324265 0.07588975 0.07908386 0.08256447 0.08590938 0.08870892 0.09086799 0.09258691
 0.09402002 0.09508774 0.09564084 0.09567179 0.09531006 0.09469949 0.09394199 0.09310219 0.09218083 0.09110644
 0.08986532 0.08865526 0.0877872 0.0873899 0.08731249 0.08733496 0.08735378 0.08735281 0.08732691 0.08727516
 0.08720967 0.0871751 0.08727148 0.08758491 0.08806727 0.08854738 0.08887652 0.0890308 0.08908115 0.08906057
 0.08884566 0.0882695 0.08743037 0.08670706 0.08627421 0.08578144 0.08479514 0.08345319 0.08239291 0.0820567
 0.08229578 0.08264197 0.08275132 0.08255945 0.08223289 0.08209282 0.08241372 0.08310527 0.08367847 0.08369812
</values></Ydata></ScRf><Data_Parameters_AB><parameter name="DPF">1</parameter><parameter name="NPT">3497</parameter><parameter name="FXV">3996</parameter><parameter name="LXV">500</parameter><parameter name="CSF">1</parameter><parameter name="MXY">0.410570651292801</parameter><parameter name="MNY">-0.0797455981373787</parameter><parameter name="DAT">02/06/2022</parameter><parameter name="TIM">12:28:14.141 (GMT+2)</parameter><parameter name="DXU">WN</parameter></Data_Parameters_AB><AB__Qtest><MainReport name="Quality Test Report"><Header><Line><Legend>Test result ok/not ok [1/0]: </Legend><Value>0</Value></Line><Line><Legend>Method file: </Legend><Value>C:\Users\Public\Documents\Bruker\OPUS_8.2.28\QT\IRBT_v3_default.QT</Value></Line></Header><Matrix><Line><Legend></Legend><Legend>min</Legend><Legend>max</Legend><Legend>measured</Legend></Line><Line><Value>Absorption (X-Range 1):</Value><Value>0.400000</Value><Value>2.000000</Value><Value>0.372277</Value></Line><Line><Value>Noise (X-Range 4):</Value><Value></Value><Value>0.000300</Value><Value>0.000067</Value></Line><Line><Value>Signal/Noise (X-Range 2):</Value><Value>200.000000</Value><Value></Value><Value>124.283640</Value></Line><Line><Value>Signal/Noise (X-Range 3):</Value><Value>40.000000</Value><Value></Value><Value>86.460758</Value></Line><Line><Value>Water vapour (X-Range 5):</Value><Value></Value><Value>0.000300</Value><Value>0.000076</Value></Line><Line><Value>Signal/Water (X-Range 2):</Value><Value>100.000000</Value><Value></Value><Value>109.747804</Value></Line><Line><Value>Signal/Water (X-Range 3):</Value><Value>20.000000</Value><Value></Value><Value>76.348571</Value></Line><Line><Value>Fringes (X-Range 6):</Value><Value></Value><Value>0.000100</Value><Value>0.000082</Value></Line></Matrix></MainReport></AB__Qtest><Data_Parameters_ScSm><parameter name="DPF">1</parameter><parameter name="NPT">1814</parameter><parameter name="FXV">3996.33169228125</parameter><parameter name="LXV">499.541461535156</parameter><parameter name="CSF">1</parameter><parameter name="MXY">0.261769890785217</parameter><parameter name="MNY">0.035720057785511</parameter><parameter name="DAT">02/06/2022</parameter><parameter name="TIM">12:28:14.141 (GMT+2)</parameter><parameter name="DXU">WN</parameter></Data_Parameters_ScSm><Data_Parameters_ScRf><parameter name="DPF">1</parameter><parameter name="NPT">1820</parameter><parameter name="FXV">4004.04661832813</parameter><parameter name="LXV">495.683998511719</parameter><parameter name="CSF">1</parameter><parameter name="MXY">0.265065312385559</parameter><parameter name="MNY">0.0300057604908943</parameter><parameter name="DAT">02/06/2022</parameter><parameter name="TIM">12:27:46.512 (GMT+2)</parameter><parameter name="DXU">WN</parameter></Data_Parameters_ScRf><Optic_Parameters_Rf><parameter name="APR">0</parameter><parameter name="APT">Open</parameter><parameter name="BMS">KBr</parameter><parameter name="DTC">RT-DLaTGS_IR-Biotyper [Microplate reader]</parameter><parameter name="HPF">0</parameter><parameter name="LPF">10.0</parameter><parameter name="LPV">4000</parameter><parameter name="PGR">0</parameter><parameter name="RCH">Module port</parameter><parameter name="RDX">0</parameter><parameter name="SRC">MIR</parameter><parameter name="VEL">10.0</parameter><parameter name="SON">Off</parameter></Optic_Parameters_Rf><Acquisition_Parameters_Rf><parameter name="ADT">1</parameter><parameter name="AQM">DD</parameter><parameter name="CFE">0</parameter><parameter name="COR">0</parameter><parameter name="DEL">0</parameter><parameter name="DLY">0</parameter><parameter name="HFW">8000</parameter><parameter name="LFW">0</parameter><parameter name="NSR">32</parameter><parameter name="PLF">AB</parameter><parameter name="RES">6</parameter><parameter name="RGN">-1</parameter><parameter name="STR">0</parameter><parameter name="TCL">MakeCompatibleScalar (0, {WSV=1.000000, ARV=0});</parameter><parameter name="TDL">37</parameter><parameter name="RPO">0</parameter></Acquisition_Parameters_Rf><FT_-_Parameters_Rf><parameter name="APF">B3</parameter><parameter name="HFQ">500</parameter><parameter name="LFQ">4000</parameter><parameter name="NLI">0</parameter><parameter name="PHR">24</parameter><parameter name="PHZ">ML</parameter><parameter name="SPZ">NO</parameter><parameter name="ZFF">1</parameter></FT_-_Parameters_Rf><Optic_Parameters_><parameter name="APR">0</parameter><parameter name="APT">Open</parameter><parameter name="BMS">KBr</parameter><parameter name="CHN">Module port</parameter><parameter name="DTC">RT-DLaTGS_IR-Biotyper [Microplate reader]</parameter><parameter name="HPF">0</parameter><parameter name="LPF">10.0</parameter><parameter name="LPV">4000</parameter><parameter name="PGN">0</parameter><parameter name="RDX">0</parameter><parameter name="SRC">MIR</parameter><parameter name="VEL">10.0</parameter><parameter name="SON">Off</parameter></Optic_Parameters_><FT_-_Parameters_><parameter name="APF">B3</parameter><parameter name="HFQ">500</parameter><parameter name="LFQ">4000</parameter><parameter name="NLI">0</parameter><parameter name="PHR">24</parameter><parameter name="PHZ">ML</parameter><parameter name="SPZ">NO</parameter><parameter name="ZFF">1</parameter></FT_-_Parameters_><Acquisition_Parameters_><parameter name="ADT">1</parameter><parameter name="AQM">DD</parameter><parameter name="CFE">0</parameter><parameter name="COR">0</parameter><parameter name="DEL">0</parameter><parameter name="DLY">0</parameter><parameter name="HFW">8000</parameter><parameter name="LFW">0</parameter><parameter name="NSS">32</parameter><parameter name="PLF">AB</parameter><parameter name="RES">6</parameter><parameter name="SOT">0</parameter><parameter name="TCL">MakeCompatibleScalar (0, {WSV=1.000000, ARV=0});</parameter><parameter name="TDL">37</parameter><parameter name="SPO">0</parameter><parameter name="SGN">-1</parameter></Acquisition_Parameters_><Instrument_Parameters_Rf><parameter name="HFL">15800.168544</parameter><parameter name="LFL">0</parameter><parameter name="LWN">15800.168544</parameter><parameter name="ABP">32197</parameter><parameter name="SSP">1</parameter><parameter name="ARG">2</parameter><parameter name="ASG">2</parameter><parameter name="ASS">32</parameter><parameter name="GFW">16</parameter><parameter name="GBW">16</parameter><parameter name="BFW">0</parameter><parameter name="BBW">0</parameter><parameter name="PKA">7268</parameter><parameter name="PKL">4996</parameter><parameter name="PRA">7450</parameter><parameter name="PRL">5001</parameter><parameter name="P2A">1</parameter><parameter name="P2L">1</parameter><parameter name="P2R">1</parameter><parameter name="P2K">1</parameter><parameter name="DAQ">0</parameter><parameter name="AG2">1</parameter><parameter name="SSM">1</parameter><parameter name="RSN">26183</parameter><parameter name="CRR">0</parameter><parameter name="SRT">1654172866.512</parameter><parameter name="DUR">19.6379852294922</parameter><parameter name="TSC">28.9</parameter><parameter name="MVD">0.195917785167694</parameter><parameter name="AN1">0.225805709146914</parameter><parameter name="AN2">0</parameter><parameter name="VSN">2.485 Apr  4 2017</parameter><parameter name="SRN">0085</parameter><parameter name="CAM">0</parameter><parameter name="INS">IR-Biotyper</parameter><parameter name="FOC">69</parameter><parameter name="RDY">1</parameter><parameter name="ARS">32</parameter></Instrument_Parameters_Rf><Sample_Parameters_><parameter name="BLD"></parameter><parameter name="CNM">Admin</parameter><parameter name="CPY"></parameter><parameter name="DPM"></parameter><parameter name="EXP">IRBT_v3_32Scans.XPM</parameter><parameter name="LCT"></parameter><parameter name="SFM">Microplate, HTS-XT</parameter><parameter name="SNM">220602-1054_CLA33F (D_20)_E11_8e0e7afb-08c4-477a-b356-cd4fae70127f.0</parameter><parameter name="XPP">C:\Users\Public\Documents\Bruker\OPUS_8.2.28\XPM</parameter><parameter name="IST">OK</parameter><parameter name="CPG">1252</parameter><parameter name="UID">5b0f17e1-88dd-4b13-b12a-97ec9768d1e1</parameter></Sample_Parameters_><Instrument_Parameters_><parameter name="HFL">15800.168544</parameter><parameter name="LFL">0</parameter><parameter name="LWN">15800.168544</parameter><parameter name="ABP">32197</parameter><parameter name="SSP">1</parameter><parameter name="ASG">2</parameter><parameter name="ARG">2</parameter><parameter name="ASS">32</parameter><parameter name="GFW">16</parameter><parameter name="GBW">16</parameter><parameter name="BFW">0</parameter><parameter name="BBW">0</parameter><parameter name="PKA">6845</parameter><parameter name="PKL">4988</parameter><parameter name="PRA">7099</parameter><parameter name="PRL">4993</parameter><parameter name="P2A">1</parameter><parameter name="P2L">1</parameter><parameter name="P2R">1</parameter><parameter name="P2K">1</parameter><parameter name="DAQ">0</parameter><parameter name="AG2">1</parameter><parameter name="SSM">1</parameter><parameter name="RSN">13717</parameter><parameter name="CRR">0</parameter><parameter name="SRT">1654172894.141</parameter><parameter name="DUR">19.6379852294922</parameter><parameter name="TSC">28.9</parameter><parameter name="MVD">0.205562740564346</parameter><parameter name="AN1">0.225836167021515</parameter><parameter name="AN2">0</parameter><parameter name="VSN">2.485 Apr  4 2017</parameter><parameter name="SRN">0085</parameter><parameter name="CAM">0</parameter><parameter name="INS">IR-Biotyper</parameter><parameter name="FOC">69</parameter><parameter name="RDY">1</parameter></Instrument_Parameters_><History/></OPUSDataFile>
