<?xml version="1.0" encoding="UTF-8" ?>
<OPUSDataFile><AB><Ydata ylabel="Absorbance Units"><values byteorder="INTEL" format="FLOAT32" numvalues="3497"> -0.08145872 -0.08149061 -0.08150118 -0.08149009 -0.08146106 -0.0814143 -0.08136865 -0.08132506 -0.08130097 -0.08129498
 -0.08130933 -0.08133946 -0.08137096 -0.08140005 -0.08140903 -0.08140127 -0.08137225 -0.08133212 -0.08129114 -0.08125462
 -0.08123259 -0.0812179 -0.08120992 -0.08120017 -0.08118333 -0.08116409 -0.08114129 -0.08112753 -0.08112502 -0.08113918
 -0.08117124 -0.08121621 -0.08127385 -0.08133432 -0.08139694 -0.08145019 -0.08149393 -0.08152043 -0.0815319 -0.08153127
 -0.08152226 -0.08151531 -0.08151203 -0.08152076 -0.08153851 -0.08156629 -0.0815976 -0.0816284 -0.08165187 -0.0816628
 -0.08165932 -0.0816385 -0.08160532 -0.08155975 -0.0815098 -0.08145652 -0.08140676 -0.08136111 -0.08132616 -0.08130229
 -0.08129587 -0.0813068 -0.08133568 -0.08138087 -0.08143312 -0.08149048 -0.08154051 -0.08158363 -0.08161359 -0.08163431
 -0.0816485 -0.08166198 -0.0816832 -0.0817134 -0.08175894 -0.0818104 -0.08186622 -0.08191201 -0.08194081 -0.08194932
 -0.08193296 -0.08190558 -0.08186757 -0.08183872 -0.08182079 -0.0818303 -0.08186829 -0.08194237 -0.08205165 -0.08218691
 -0.08234384 -0.08249167 -0.08262641 -0.08271363 -0.08276004 -0.08276193 -0.08273362 -0.08269906 -0.08266294 -0.08264292
 -0.08263021 -0.08262504 -0.08261421 -0.0825894 -0.08254639 -0.08247852 -0.08239955 -0.08230982 -0.08223129 -0.0821682
 -0.0821308 -0.08212183 -0.08212842 -0.08215003 -0.08216257 -0.08216603 -0.08215461 -0.08213181 -0.08211733 -0.08211268
 -0.08213676 -0.0821824 -0.08224349 -0.08230869 -0.08235345 -0.08237847 -0.08237182 -0.0823467 -0.08231144 -0.08227079
 -0.08223051 -0.08218861 -0.08214202 -0.08210466 -0.08207688 -0.08208401 -0.08213148 -0.08222806 -0.08237828 -0.0825466
 -0.08273172 -0.0828385 -0.08286504 -0.08275907 -0.08253733 -0.08228537 -0.08201261 -0.08180252 -0.08164556 -0.08155923
 -0.08153283 -0.08155873 -0.08162209 -0.08170665 -0.08178956 -0.08184622 -0.08186518 -0.08182579 -0.08175378 -0.08165142
 -0.08155347 -0.08147315 -0.08141074 -0.08136947 -0.0813351 -0.08130506 -0.08128819 -0.08128475 -0.08131533 -0.0813795
 -0.08147475 -0.08159655 -0.08171445 -0.08182456 -0.08189471 -0.08192702 -0.08190922 -0.08184835 -0.08174879 -0.08162226
 -0.08148239 -0.08134346 -0.08122207 -0.0811251 -0.08106225 -0.08103032 -0.08103136 -0.08105661 -0.08110543 -0.0811649
 -0.08123426 -0.08129352 -0.08134108 -0.08135514 -0.08133417 -0.08127037 -0.0811647 -0.08103184 -0.08087429 -0.0807155
 -0.08055671 -0.08041475 -0.08028989 -0.08019144 -0.08011857 -0.08007542 -0.08005691 -0.08006079 -0.08007591 -0.0800934
 -0.08010201 -0.08009171 -0.08006101 -0.08000512 -0.07993343 -0.07984597 -0.07975845 -0.07967283 -0.07960543 -0.07955851
 -0.07953919 -0.07954828 -0.07957338 -0.07961282 -0.07963698 -0.07964499 -0.07961357 -0.07954907 -0.07946193 -0.07936276
 -0.07928566 -0.07923266 -0.07922684 -0.07925527 -0.07931425 -0.07938311 -0.07944045 -0.07948173 -0.07949219 -0.07949595
 -0.0794984 -0.07952224 -0.07957962 -0.07965652 -0.07975587 -0.07983769 -0.07989781 -0.07991148 -0.07987686 -0.07977989
 -0.07962061 -0.0793953 -0.07911038 -0.07880793 -0.07849561 -0.07822958 -0.07800536 -0.07784202 -0.07772657 -0.07764519
 -0.07758641 -0.07752862 -0.07747152 -0.07740618 -0.07733989 -0.0772755 -0.07721531 -0.07716344 -0.07710977 -0.07705424
 -0.07697856 -0.07687815 -0.07675006 -0.07659135 -0.07642813 -0.07626177 -0.07611927 -0.07600083 -0.07591013 -0.07584433
 -0.07578777 -0.07573407 -0.07564963 -0.0755296 -0.07533683 -0.0750885 -0.07479412 -0.07448138 -0.07419641 -0.07393355
 -0.07371095 -0.07349385 -0.07326561 -0.07300461 -0.07269062 -0.07234613 -0.07196917 -0.07160294 -0.07125692 -0.07094646
 -0.07067749 -0.07042026 -0.070174 -0.06987584 -0.06952372 -0.06907608 -0.06854222 -0.06796921 -0.06736869 -0.06681897
 -0.06631152 -0.06586424 -0.06546281 -0.06509016 -0.06473435 -0.06437857 -0.06400059 -0.0635776 -0.06308839 -0.06250671
 -0.06184909 -0.06111272 -0.06032934 -0.05951095 -0.05865793 -0.05777055 -0.05685699 -0.05591593 -0.05498131 -0.0540556
 -0.05314951 -0.05226252 -0.05138018 -0.05050269 -0.04962518 -0.04874916 -0.04787925 -0.04701462 -0.04615474 -0.04529984
 -0.04445336 -0.04360661 -0.0427616 -0.04187546 -0.04091333 -0.03983722 -0.03858747 -0.03724466 -0.035815 -0.03442243
 -0.03311909 -0.03189809 -0.03077297 -0.02967571 -0.02859831 -0.02751076 -0.02640979 -0.0253062 -0.02420108 -0.02311973
 -0.0220606 -0.02103098 -0.02001536 -0.01895654 -0.01783222 -0.01653244 -0.01509422 -0.01351334 -0.01188813 -0.01036504
 -0.008949728 -0.007721712 -0.006586196 -0.005508694 -0.00441036 -0.003238675 -0.001997002 -0.0006658536 0.000685635 0.002046525
 0.003371597 0.004649349 0.005908452 0.007148955 0.008439695 0.009782357 0.01120425 0.01269652 0.01420192 0.01571336
 0.017165 0.01856814 0.01991877 0.02123355 0.02254214 0.0238547 0.02519727 0.02657188 0.02799571 0.02944618
 0.03092057 0.03237725 0.03379061 0.03516446 0.036483 0.03781833 0.03918257 0.04062396 0.04215725 0.04372501
 0.04532516 0.04687752 0.04838087 0.04983179 0.05123548 0.05263192 0.05402271 0.0554375 0.05687036 0.05832251
 0.05978197 0.06122309 0.06264708 0.06403463 0.06542131 0.06682893 0.06829803 0.06987462 0.07152965 0.07327577
 0.07502335 0.07674368 0.07840089 0.07997641 0.08150434 0.08298564 0.08445913 0.08592769 0.0874159 0.08892449
 0.09046312 0.09202903 0.09360528 0.09518759 0.09674613 0.09828315 0.09978785 0.1012686 0.1027365 0.104198
 0.1056673 0.1071452 0.1086387 0.110142 0.1116531 0.1131674 0.1146802 0.1161976 0.1177207 0.1192535
 0.1207994 0.1223435 0.1238846 0.1254093 0.1269158 0.1284156 0.129909 0.1314078 0.1329107 0.1344106
 0.135909 0.1374082 0.1389118 0.1404364 0.1419733 0.1435166 0.1450495 0.1465436 0.1479974 0.1493961
 0.1507535 0.1520743 0.1533702 0.1546472 0.1559127 0.1571697 0.1584242 0.1596778 0.1609344 0.1621936
 0.1634696 0.1647632 0.1660935 0.1674602 0.1688483 0.1702533 0.1716287 0.172976 0.1742752 0.1755354
 0.1767756 0.1779972 0.1792136 0.1804198 0.1816121 0.1827937 0.1839666 0.1851339 0.1863007 0.18746
 0.1886086 0.1897472 0.1908726 0.1919991 0.1931296 0.194271 0.1954253 0.1965878 0.1977587 0.1989253
 0.2000862 0.2012075 0.2022875 0.2032928 0.2042329 0.2051311 0.206004 0.2069181 0.207871 0.2088961
 0.2099667 0.2110603 0.2121541 0.2132146 0.2142408 0.2152195 0.2161654 0.21708 0.2179832 0.2188826
 0.2197835 0.2206916 0.2215858 0.2224645 0.2233071 0.2241113 0.224885 0.2256286 0.2263586 0.2270741
 0.2277728 0.2284532 0.2291067 0.2297354 0.2303408 0.230928 0.2315056 0.2320831 0.2326759 0.2332935
 0.2339535 0.23465 0.2353883 0.2361466 0.2369171 0.2376807 0.2384313 0.2391524 0.2398414 0.2404765
 0.2410533 0.2415704 0.2420258 0.2424551 0.24286 0.2432756 0.2437003 0.2441353 0.244578 0.2450159
 0.2454494 0.2458741 0.2462887 0.2466891 0.2470722 0.2474308 0.2477661 0.2480757 0.2483644 0.2486338
 0.2488915 0.2491408 0.2493905 0.2496459 0.2499042 0.2501677 0.2504179 0.2506523 0.2508602 0.2510399
 0.2512005 0.2513424 0.2514711 0.2515857 0.2516795 0.2517541 0.2518124 0.2518581 0.2519059 0.2519549
 0.2520103 0.2520677 0.252122 0.2521718 0.252214 0.2522488 0.2522749 0.2522952 0.2523075 0.2523263
 0.2523547 0.252408 0.2524936 0.2525979 0.2527235 0.2528252 0.2529001 0.2529076 0.2528464 0.2527134
 0.2525118 0.2522736 0.2520019 0.2517305 0.251458 0.2511962 0.2509455 0.2507094 0.2504951 0.250318
 0.2501732 0.2500701 0.2499755 0.2498708 0.2497268 0.2495157 0.2492604 0.2489552 0.2486586 0.2483839
 0.24816 0.2479969 0.2478685 0.2477749 0.2476664 0.2475406 0.2473573 0.2471173 0.2468094 0.246441
 0.2460399 0.2456178 0.2452268 0.244871 0.2445889 0.2443671 0.2442074 0.2440814 0.2439626 0.2438254
 0.2436395 0.2434071 0.2431143 0.2427979 0.2424636 0.2421552 0.2418838 0.2416715 0.2415233 0.2414452
 0.2414377 0.2415066 0.2416521 0.2418665 0.2421453 0.242442 0.2427458 0.2429764 0.2431272 0.2431279
 0.2429948 0.2427168 0.2423414 0.2419288 0.2415305 0.2412307 0.2410303 0.2409732 0.2409873 0.2410583
 0.2410929 0.2410536 0.2408989 0.2406049 0.240205 0.239696 0.2391515 0.2385769 0.238036 0.2375316
 0.2370876 0.2367022 0.2363654 0.236074 0.2358072 0.2355643 0.2353323 0.2351118 0.2349011 0.2346939
 0.2344869 0.2342555 0.2339785 0.2336203 0.2331451 0.2325452 0.2317955 0.2309467 0.230002 0.2290414
 0.2280833 0.2271811 0.2263473 0.2255916 0.2249172 0.2243077 0.223762 0.2232413 0.2227427 0.2222175
 0.2216684 0.2210812 0.2204682 0.2198652 0.2192753 0.2187308 0.2182091 0.2176919 0.2171535 0.2165526
 0.2158975 0.2151715 0.2144216 0.2136616 0.2129454 0.2122963 0.211737 0.211285 0.2109004 0.2105872
 0.2102481 0.2098754 0.2093862 0.2087767 0.2080588 0.2072404 0.2064151 0.2055882 0.2048397 0.2041595
 0.2035572 0.2030187 0.202515 0.2020421 0.201581 0.2011318 0.2006901 0.2002489 0.1998027 0.199344
 0.1988657 0.1983719 0.1978624 0.1973438 0.1968213 0.1962789 0.1957182 0.1950959 0.1944086 0.1936205
 0.19273 0.1917456 0.1906713 0.1895551 0.1884019 0.1872629 0.1861381 0.1850557 0.1840112 0.1830096
 0.1820445 0.181109 0.180196 0.1792954 0.1784016 0.1775069 0.1766102 0.1757082 0.1748047 0.1739002
 0.1729985 0.1721013 0.1712071 0.1703163 0.1694239 0.1685292 0.167632 0.1667324 0.1658382 0.1649497
 0.1640745 0.1632119 0.1623614 0.1615216 0.1606877 0.1598595 0.1590349 0.1582143 0.1573982 0.1565835
 0.1557676 0.1549466 0.1541129 0.1532782 0.1524394 0.1516348 0.1508759 0.1501951 0.1496113 0.1490896
 0.1486364 0.1481441 0.1476042 0.1469247 0.1461007 0.1451451 0.1440663 0.1429714 0.14187 0.1408749
 0.1399798 0.1392308 0.1385982 0.138044 0.1375253 0.1369541 0.1363119 0.1355297 0.1346519 0.133678
 0.1326904 0.1317378 0.1308524 0.1300695 0.1293373 0.1286505 0.1279591 0.127246 0.1265501 0.1258699
 0.1252937 0.1248261 0.1244908 0.1242802 0.1241068 0.1239558 0.1236924 0.1233161 0.1227441 0.1220057
 0.1211194 0.1201322 0.11913 0.1181372 0.1172238 0.1163662 0.1155715 0.1148044 0.1140395 0.113286
 0.1125364 0.1118262 0.1111686 0.1105537 0.109987 0.109413 0.1088252 0.1082088 0.1075627 0.1069453
 0.1063593 0.1058584 0.1054344 0.1050664 0.1047414 0.1043987 0.1040398 0.1036349 0.1031992 0.1027462
 0.102284 0.1018331 0.1013778 0.1009192 0.1004201 0.0998626 0.09921551 0.09845587 0.09760096 0.0966394
 0.09565455 0.0946532 0.09373558 0.09291478 0.09221935 0.09165175 0.09113303 0.09065637 0.09010734 0.08948947
 0.08875941 0.0879394 0.08708452 0.08621604 0.08541686 0.0846834 0.08405257 0.08349761 0.08300409 0.08254389
 0.08208891 0.08162649 0.08113915 0.08063547 0.08011141 0.07959172 0.07908201 0.07859931 0.07815138 0.07771484
 0.07729065 0.07682244 0.07630701 0.07571699 0.07505615 0.07437151 0.07367115 0.07303347 0.072452 0.07195093
 0.07150578 0.07106788 0.07062344 0.0701188 0.06957518 0.06899052 0.06840359 0.06784654 0.067339 0.06690353
 0.06653509 0.06623595 0.06600215 0.06583153 0.06573058 0.06570166 0.06573857 0.06584375 0.06597422 0.06612792
 0.06623152 0.0662815 0.06621163 0.06602495 0.06570277 0.06525851 0.06472878 0.06413008 0.0635208 0.06290965
 0.06233768 0.06180545 0.06132839 0.06090697 0.06054561 0.06024627 0.06001268 0.05983997 0.05973025 0.05966557
 0.05964384 0.05964049 0.0596502 0.0596633 0.05967578 0.05971554 0.05978368 0.0599398 0.06018609 0.06056834
 0.06108017 0.06170791 0.06243615 0.06320046 0.06398986 0.06474249 0.06546193 0.06612475 0.06674295 0.06732164
 0.06787074 0.06839938 0.06891569 0.0694253 0.06993762 0.07045967 0.0709876 0.07152811 0.07204194 0.07252873
 0.07291956 0.07320756 0.07333997 0.07331275 0.07313357 0.07280629 0.07239337 0.07189992 0.07139055 0.07086442
 0.07035045 0.06984967 0.06937277 0.06893683 0.06857137 0.06830226 0.06817563 0.0681959 0.06839029 0.06872781
 0.06920273 0.06977345 0.0704229 0.071124 0.07186853 0.07263222 0.07341283 0.07417257 0.07490813 0.07558321
 0.07619542 0.07672329 0.07716478 0.07748833 0.07768729 0.07770078 0.07752509 0.07710635 0.07646046 0.07559266
 0.07453789 0.07335709 0.07208039 0.07077239 0.06943539 0.06809904 0.06673596 0.06534266 0.06388085 0.06233259
 0.0606822 0.05891445 0.05706475 0.05512991 0.05319037 0.05125269 0.04939469 0.0476219 0.04596391 0.04441984
 0.0429741 0.04162509 0.04035402 0.03916311 0.03805332 0.03702269 0.03607162 0.03518528 0.03433956 0.03351828
 0.03268729 0.0318525 0.03100035 0.03016323 0.0293535 0.02860494 0.02793604 0.0273567 0.02687623 0.02647952
 0.02616645 0.02591542 0.02572318 0.02558613 0.02550354 0.02549469 0.02555925 0.02569821 0.02590103 0.02609963
 0.0262752 0.02631202 0.0262099 0.0258974 0.02541365 0.02478564 0.02407438 0.02336403 0.0227011 0.02215648
 0.02174238 0.02149171 0.02137903 0.02140986 0.02152567 0.02171808 0.02191254 0.02209729 0.02220587 0.02223075
 0.02211937 0.02186827 0.02142564 0.02078901 0.01991102 0.01879506 0.01743365 0.01584711 0.01410334 0.01224006
 0.01038767 0.008576769 0.006930778 0.005437571 0.004143731 0.002991128 0.001948984 0.0009597928 -2.568877E-05 -0.00101606
 -0.00203306 -0.003042723 -0.004040977 -0.004994485 -0.005895186 -0.006732603 -0.007503753 -0.008214732 -0.008865533 -0.009471001
 -0.01003217 -0.0105681 -0.01107963 -0.01158278 -0.01207622 -0.01256456 -0.01304318 -0.01350313 -0.01393875 -0.01433369
 -0.01469001 -0.01499867 -0.01527851 -0.01553902 -0.01580732 -0.0161047 -0.01643913 -0.01682597 -0.0172355 -0.01766723
 -0.01807184 -0.01843907 -0.01874357 -0.01897785 -0.01916833 -0.01931554 -0.01947453 -0.01964693 -0.01986143 -0.02011351
 -0.02038282 -0.02066529 -0.02092972 -0.02118358 -0.02142937 -0.02167977 -0.02196289 -0.02227711 -0.0226371 -0.02302205
 -0.02342137 -0.02380968 -0.02416876 -0.02448266 -0.02473875 -0.02493708 -0.0250709 -0.02516568 -0.02522109 -0.02528464
 -0.02536151 -0.02548835 -0.02566876 -0.02589649 -0.02616986 -0.02645114 -0.02673871 -0.02700247 -0.02724499 -0.02746116
 -0.02765415 -0.02783022 -0.02799055 -0.02813986 -0.02827926 -0.02841195 -0.02853887 -0.02866296 -0.02878115 -0.02889293
 -0.02899373 -0.02907996 -0.02915521 -0.02921743 -0.02928232 -0.02935147 -0.02944328 -0.02956057 -0.02971022 -0.02989332
 -0.03009876 -0.03032549 -0.03055142 -0.03077561 -0.03097996 -0.03116599 -0.03132996 -0.03147519 -0.03160911 -0.03173331
 -0.03185521 -0.03197239 -0.03208508 -0.03218973 -0.03228178 -0.03236364 -0.03243267 -0.03250174 -0.03257357 -0.03266643
 -0.03278663 -0.03294337 -0.03314167 -0.03337038 -0.03363032 -0.0338947 -0.03416182 -0.03440851 -0.03463419 -0.03483285
 -0.03500582 -0.03516057 -0.03529875 -0.03543101 -0.03555864 -0.03569067 -0.03582764 -0.03597562 -0.03613215 -0.03629751
 -0.03646629 -0.0366335 -0.03679585 -0.03694886 -0.03709482 -0.03723346 -0.0373679 -0.03749968 -0.03762717 -0.03775046
 -0.03786669 -0.03797506 -0.03807854 -0.03817713 -0.03827813 -0.03838162 -0.0384878 -0.03859511 -0.03869098 -0.03877395
 -0.03882888 -0.03885963 -0.03886679 -0.03886054 -0.03886033 -0.03887455 -0.03892488 -0.03900801 -0.03913146 -0.03928038
 -0.03944884 -0.03962078 -0.03978727 -0.03994095 -0.04007662 -0.04019787 -0.04030371 -0.04040375 -0.04049891 -0.04059718
 -0.04069928 -0.04080813 -0.0409238 -0.04104625 -0.04117544 -0.0413111 -0.04145283 -0.04159891 -0.04174842 -0.0418979
 -0.04204648 -0.04219083 -0.04233033 -0.04246296 -0.04258777 -0.04270299 -0.04280864 -0.04290371 -0.04299039 -0.04306899
 -0.04314284 -0.04321293 -0.04328158 -0.04334927 -0.04341821 -0.04348864 -0.04356306 -0.04364169 -0.04372528 -0.04381376
 -0.04390457 -0.04399734 -0.04408763 -0.04417552 -0.04425866 -0.04433824 -0.04441626 -0.04449424 -0.04457679 -0.04466297
 -0.04475429 -0.04484707 -0.04493811 -0.04502558 -0.04510596 -0.04518363 -0.04525902 -0.04533859 -0.0454253 -0.04551883
 -0.04562078 -0.04572226 -0.04582253 -0.04591281 -0.04599217 -0.04606085 -0.04611909 -0.04617558 -0.04623075 -0.0462924
 -0.04635936 -0.04643056 -0.04650398 -0.04657272 -0.0466365 -0.04669092 -0.04673803 -0.04677886 -0.04681505 -0.04684877
 -0.04688016 -0.04690949 -0.0469381 -0.04696585 -0.04699699 -0.04703277 -0.04707628 -0.04712903 -0.04718846 -0.04725483
 -0.04732202 -0.04738955 -0.04745357 -0.04751398 -0.04757095 -0.04762462 -0.04767631 -0.04772588 -0.04777344 -0.04781847
 -0.04785983 -0.04789648 -0.04792541 -0.04794686 -0.04795841 -0.04796504 -0.04796919 -0.04797969 -0.04800367 -0.0480449
 -0.04810917 -0.04818802 -0.04828151 -0.0483752 -0.04846597 -0.0485452 -0.04861087 -0.04866325 -0.04870206 -0.04873203
 -0.04875346 -0.04877203 -0.04878787 -0.0488047 -0.04882178 -0.04883777 -0.04885145 -0.04885808 -0.04885801 -0.04884905
 -0.04883374 -0.04881469 -0.04879422 -0.04877575 -0.04875992 -0.04874793 -0.0487406 -0.04873831 -0.0487427 -0.04875486
 -0.04877352 -0.04879963 -0.04882551 -0.0488507 -0.04886517 -0.0488679 -0.04885641 -0.04883086 -0.04880122 -0.04876852
 -0.04874679 -0.04873562 -0.04874109 -0.04876062 -0.04878934 -0.0488254 -0.048862 -0.04890029 -0.04893914 -0.04897986
 -0.04902432 -0.04907032 -0.04911731 -0.04916218 -0.04920251 -0.04923984 -0.04927376 -0.04930792 -0.04934383 -0.04937868
 -0.0494128 -0.04943835 -0.04945447 -0.04946052 -0.04945668 -0.04945388 -0.04945276 -0.04946453 -0.04948793 -0.04952316
 -0.04956727 -0.04961125 -0.04965324 -0.04968439 -0.04970593 -0.04971502 -0.04971568 -0.04971024 -0.04970387 -0.04970076
 -0.04970437 -0.04971787 -0.04974104 -0.04977546 -0.04981563 -0.04986152 -0.04990352 -0.04994048 -0.04996425 -0.04997378
 -0.04996992 -0.04995286 -0.04993272 -0.04991018 -0.04989637 -0.04989076 -0.04989722 -0.04991357 -0.0499352 -0.04995981
 -0.04997993 -0.04999536 -0.05000181 -0.05000223 -0.04999786 -0.04999178 -0.04998707 -0.04998362 -0.04998227 -0.04998175
 -0.04998139 -0.04998242 -0.04998498 -0.04999049 -0.04999964 -0.05000912 -0.05001878 -0.05002512 -0.05002808 -0.0500308
 -0.05003364 -0.05004216 -0.05005555 -0.05007267 -0.05009198 -0.05010736 -0.05011921 -0.05012526 -0.05012701 -0.05012648
 -0.05012275 -0.0501161 -0.05010389 -0.05008359 -0.05005593 -0.05002008 -0.04997935 -0.04993493 -0.04988782 -0.04983832
 -0.04978727 -0.04973399 -0.04968678 -0.04964608 -0.04962266 -0.04961691 -0.04962738 -0.04965269 -0.04967734 -0.0497006
 -0.04970966 -0.04970691 -0.04969331 -0.0496716 -0.04964901 -0.04962504 -0.04960237 -0.04957888 -0.04955279 -0.04952414
 -0.04949177 -0.04945829 -0.04942454 -0.04939295 -0.0493647 -0.04934036 -0.04932057 -0.0493035 -0.04928925 -0.04927368
 -0.04925647 -0.04923413 -0.04920653 -0.04917565 -0.0491423 -0.04911574 -0.04909703 -0.04909718 -0.04911561 -0.04915671
 -0.04921811 -0.04929646 -0.04939071 -0.04949636 -0.04961736 -0.04975426 -0.04991654 -0.05010967 -0.05034551 -0.05063093
 -0.05097473 -0.051383 -0.05185259 -0.05238675 -0.05296469 -0.05358595 -0.05421696 -0.05485502 -0.05547274 -0.05606866
 -0.05662835 -0.05714979 -0.05761085 -0.05800154 -0.05825987 -0.05837008 -0.05824098 -0.05787828 -0.05722879 -0.05635946
 -0.0553344 -0.0542524 -0.05324977 -0.05236685 -0.05168402 -0.05118152 -0.05087152 -0.05072212 -0.05072853 -0.05085167
 -0.05109026 -0.05136872 -0.05168032 -0.05193191 -0.05211183 -0.05220487 -0.05221025 -0.05218251 -0.05212216 -0.05205251
 -0.05196818 -0.05184942 -0.05169577 -0.05149249 -0.05124897 -0.05097809 -0.05069056 -0.05041072 -0.05013867 -0.0498856
 -0.04964274 -0.04940649 -0.04917156 -0.04893245 -0.0486938 -0.04845571 -0.04822404 -0.04800088 -0.04778575 -0.04757916
 -0.04737753 -0.04718051 -0.04698682 -0.0467964 -0.04661113 -0.0464313 -0.0462608 -0.0460999 -0.04595236 -0.04581772
 -0.04569696 -0.04558809 -0.04548753 -0.04539265 -0.04529758 -0.04520144 -0.04510018 -0.04499663 -0.04489091 -0.04478789
 -0.04469037 -0.04460053 -0.0445206 -0.04444736 -0.04438088 -0.04431576 -0.04425106 -0.04418428 -0.04411501 -0.04404377
 -0.04397059 -0.04389692 -0.04382291 -0.04375056 -0.04368014 -0.04361418 -0.04355258 -0.04349643 -0.04344501 -0.04339737
 -0.04335249 -0.04330854 -0.04326427 -0.04321758 -0.04316771 -0.04311249 -0.04305472 -0.04299432 -0.04293742 -0.04288679
 -0.04284372 -0.04281062 -0.04277803 -0.0427453 -0.04270111 -0.04264385 -0.04257369 -0.04249058 -0.04240695 -0.04232351
 -0.04225294 -0.0421946 -0.04215204 -0.04212283 -0.04210098 -0.04208338 -0.0420597 -0.0420286 -0.04198233 -0.04192369
 -0.04185167 -0.04177271 -0.04169131 -0.04161254 -0.04154104 -0.04147622 -0.04141946 -0.04136673 -0.04131726 -0.04126818
 -0.04121878 -0.04116847 -0.04111708 -0.04106501 -0.0410123 -0.04096104 -0.0409114 -0.04086628 -0.04082542 -0.04078908
 -0.04075614 -0.04072281 -0.04068835 -0.04064879 -0.04060482 -0.0405553 -0.04050246 -0.04044793 -0.04039486 -0.04034622
 -0.04030407 -0.04027091 -0.04024523 -0.04022767 -0.04021386 -0.04020276 -0.04019191 -0.04018062 -0.04016883 -0.04015651
 -0.04014308 -0.0401285 -0.04011205 -0.04009387 -0.04007597 -0.04005837 -0.04004283 -0.04002812 -0.04001078 -0.03998956
 -0.03995885 -0.03992022 -0.03987307 -0.03982094 -0.03976774 -0.03971559 -0.03966763 -0.03962405 -0.03958526 -0.03955297
 -0.03952745 -0.03951193 -0.03950779 -0.0395143 -0.03953248 -0.03955382 -0.03957791 -0.03959373 -0.03960061 -0.03959486
 -0.03957697 -0.03955349 -0.03952541 -0.03950256 -0.03948444 -0.03947501 -0.039472 -0.03947204 -0.03947285 -0.03946859
 -0.03945957 -0.0394429 -0.03942257 -0.03940032 -0.03938091 -0.03936806 -0.03936201 -0.03936462 -0.03937085 -0.03937976
 -0.03938751 -0.03939281 -0.03939788 -0.03940272 -0.0394112 -0.03942357 -0.03943835 -0.03945515 -0.03946753 -0.03947548
 -0.03947512 -0.03946808 -0.03945817 -0.03944747 -0.03944375 -0.03944626 -0.03945825 -0.03947541 -0.03949408 -0.03951056
 -0.0395195 -0.03952283 -0.03951897 -0.03951471 -0.03951216 -0.03951661 -0.03953053 -0.03955291 -0.03958462 -0.03961912
 -0.03965599 -0.03968822 -0.03971534 -0.03973536 -0.03974861 -0.03975973 -0.03976931 -0.03978379 -0.03980268 -0.03982801
 -0.03985799 -0.03988916 -0.03992021 -0.03994691 -0.03996984 -0.03998777 -0.0400025 -0.04001498 -0.04002697 -0.04003961
 -0.04005423 -0.04007172 -0.04009221 -0.04011625 -0.04014175 -0.04016851 -0.0401944 -0.04021899 -0.0402438 -0.04026888
 -0.04029753 -0.04032962 -0.04036339 -0.04039819 -0.0404286 -0.04045512 -0.04047647 -0.04049426 -0.04051235 -0.04053077
 -0.04055187 -0.04057368 -0.04059458 -0.04061357 -0.04062886 -0.04064155 -0.04065137 -0.04066078 -0.04067009 -0.0406834
 -0.04070152 -0.04072894 -0.04076701 -0.040815 -0.04087339 -0.04093545 -0.04100079 -0.04106273 -0.04112114 -0.04117365
 -0.04122043 -0.04126147 -0.04129691 -0.04132717 -0.0413527 -0.04137475 -0.04139389 -0.04141165 -0.04142847 -0.04144522
 -0.04146287 -0.04148235 -0.04150477 -0.04153133 -0.04156154 -0.04159573 -0.04163218 -0.04167044 -0.04170954 -0.04174916
 -0.04178961 -0.04183099 -0.04187264 -0.04191454 -0.04195419 -0.04199151 -0.04202472 -0.04205415 -0.04208085 -0.04210547
 -0.04213126 -0.04215835 -0.04218897 -0.04222223 -0.04225765 -0.04229411 -0.04232989 -0.04236465 -0.04239721 -0.04242854
 -0.04245874 -0.04248916 -0.04252061 -0.04255292 -0.04258659 -0.04261919 -0.04265037 -0.04267822 -0.04270228 -0.04272417
 -0.04274393 -0.04276589 -0.04279026 -0.04282091 -0.04285771 -0.04290203 -0.04295284 -0.0430074 -0.04306349 -0.04311375
 -0.04315718 -0.0431871 -0.04320775 -0.04322055 -0.0432327 -0.04325162 -0.04327936 -0.04332111 -0.04336982 -0.04342504
 -0.04347583 -0.04351913 -0.04354769 -0.04355897 -0.04355456 -0.04353365 -0.04350663 -0.04347401 -0.04344743 -0.04342714
 -0.04341767 -0.0434185 -0.04342793 -0.04344571 -0.04347035 -0.04350127 -0.04353717 -0.04357548 -0.04361111 -0.04364188
 -0.04366198 -0.04367368 -0.04367604 -0.04367442 -0.04367223 -0.04367125 -0.0436739 -0.04367667 -0.04367904 -0.04367803
 -0.04367242 -0.04366472 -0.04365483 -0.04364789 -0.04364425 -0.04364551 -0.04365155 -0.04365951 -0.04366925 -0.04367806
 -0.04368653 -0.04369564 -0.04370601 -0.04372027 -0.04373759 -0.04375815 -0.04377967 -0.04379947 -0.04381562 -0.04382515
 -0.04382846 -0.04382437 -0.0438158 -0.04380324 -0.04379069 -0.04377911 -0.04377211 -0.04377054 -0.04377636 -0.04379021
 -0.04380957 -0.04383438 -0.04385902 -0.04388336 -0.04390582 -0.04392723 -0.04395327 -0.04398414 -0.04402455 -0.04407213
 -0.04412327 -0.04417502 -0.04421986 -0.04425722 -0.04428318 -0.04429863 -0.04430285 -0.04429753 -0.04428269 -0.04426252
 -0.04423809 -0.04421518 -0.04419589 -0.04418252 -0.04417631 -0.04417488 -0.0441783 -0.04418215 -0.04418613 -0.04418737
 -0.04418589 -0.04418194 -0.04417593 -0.04417102 -0.04416745 -0.04416811 -0.04417264 -0.0441816 -0.04419428 -0.04420974
 -0.04422704 -0.04424472 -0.04426175 -0.04427666 -0.04428911 -0.04429843 -0.04430479 -0.04430847 -0.04430817 -0.04430353
 -0.04429376 -0.04427818 -0.04425992 -0.04423912 -0.04422001 -0.04420294 -0.04418888 -0.04417794 -0.04417177 -0.04417095
 -0.04418124 -0.04420214 -0.04423591 -0.04427876 -0.04432194 -0.04436101 -0.04438202 -0.04438673 -0.04436972 -0.04433979
 -0.04430284 -0.04426632 -0.04423762 -0.04421693 -0.04420705 -0.04420266 -0.04420315 -0.04420239 -0.04419891 -0.04419003
 -0.044175 -0.04415533 -0.04413094 -0.04410807 -0.04408717 -0.04407806 -0.04408034 -0.04409708 -0.04412446 -0.04414779
 -0.0441631 -0.04414897 -0.04411022 -0.04404438 -0.04396142 -0.04387469 -0.04378787 -0.04370905 -0.04363893 -0.04357942
 -0.04353295 -0.04350223 -0.04348347 -0.04347814 -0.04347238 -0.04346388 -0.04344153 -0.04340276 -0.04335095 -0.04328597
 -0.04321748 -0.04314584 -0.04307667 -0.04300972 -0.04294558 -0.04288383 -0.04282262 -0.04276249 -0.04270357 -0.0426475
 -0.04259837 -0.04255502 -0.04251894 -0.04248464 -0.04244691 -0.04240384 -0.04235117 -0.04229424 -0.04223508 -0.04217496
 -0.04211627 -0.04205085 -0.04197731 -0.04189041 -0.04178813 -0.04168004 -0.04156641 -0.04146317 -0.04137067 -0.04129168
 -0.04122366 -0.04114706 -0.04105877 -0.04093114 -0.04076977 -0.04057422 -0.04035644 -0.04014257 -0.03993284 -0.03974129
 -0.03955659 -0.0393714 -0.03918179 -0.03897991 -0.03877585 -0.03857252 -0.03837677 -0.03819377 -0.03801468 -0.03784068
 -0.03765092 -0.03744429 -0.03719185 -0.0368911 -0.03652867 -0.03610509 -0.03564694 -0.03515585 -0.03465999 -0.03415373
 -0.03362682 -0.03307128 -0.03245671 -0.03178341 -0.03103413 -0.03022133 -0.02935156 -0.02844539 -0.02752349 -0.02660347
 -0.02570694 -0.02482804 -0.02397467 -0.0231163 -0.02224108 -0.02134718 -0.02042323 -0.01953295 -0.01868253 -0.01792534
 -0.01726768 -0.01669599 -0.01620922 -0.01577646 -0.01539744 -0.01506 -0.01476113 -0.01448422 -0.0142179 -0.01392101
 -0.01358279 -0.0131571 -0.01265289 -0.0120584 -0.01139899 -0.01069723 -0.009964183 -0.009216044 -0.008448812 -0.00766289
 -0.006860163 -0.006041019 -0.005209362 -0.004372372 -0.003493276 -0.00257588 -0.001513006 -0.0002958603 0.001140833 0.002795012
 0.004523463 0.006315852 0.008007993 0.009621594 0.01117519 0.01269283 0.01426067 0.01587727 0.0175804 0.01936132
 0.02121213 0.02315867 0.02520592 0.02743045 0.02988544 0.03262113 0.03570993 0.03902512 0.04257153 0.04609841
 0.04954779 0.0527966 0.05581156 0.05862451 0.06123227 0.06373136 0.06612906 0.06859609 0.07114976 0.07404258
 0.0772491 0.08082467 0.08464264 0.08831701 0.09182291 0.09487919 0.09763131 0.1001759 0.1026169 0.1051115
 0.1076546 0.1102932 0.1129908 0.1157355 0.1185251 0.1213666 0.1242105 0.1270548 0.1298122 0.1324628
 0.135027 0.1375037 0.1399516 0.1423704 0.1446759 0.1468586 0.1487807 0.1504601 0.151906 0.1531569
 0.154346 0.155473 0.1566194 0.1577222 0.1587087 0.1595772 0.1602774 0.1608905 0.1614667 0.1620323
 0.1626285 0.1631943 0.1637187 0.1641513 0.1644704 0.1647029 0.1648431 0.1649783 0.1651148 0.1653329
 0.1656348 0.1659905 0.1663926 0.1667533 0.1670772 0.1673393 0.167553 0.1677457 0.1679305 0.1681487
 0.1684051 0.1687258 0.1691055 0.1695387 0.1700489 0.1706326 0.1713711 0.1723013 0.1734819 0.1749601
 0.176664 0.1785915 0.1806443 0.1827988 0.1850841 0.1874982 0.1901269 0.1929734 0.1960584 0.1993774
 0.2028938 0.2066052 0.2104834 0.2145264 0.2187136 0.2230421 0.2274909 0.2320707 0.2367881 0.2416551
 0.2466941 0.2518873 0.2572348 0.2627001 0.2682649 0.2739071 0.2796165 0.2853798 0.2911987 0.2970287
 0.3028714 0.3086247 0.3142805 0.3197495 0.3250293 0.3301908 0.3352484 0.3404047 0.3456276 0.3508887
 0.3560818 0.3608215 0.365105 0.3687102 0.3717528 0.374339 0.3764818 0.378255 0.3795848 0.3804243
 0.3807768 0.3806477 0.3799872 0.378836 0.37688 0.3740436 0.3701637 0.365122 0.3596354 0.3537545
 0.3480356 0.3424989 0.3368814 0.3311683 0.3251049 0.3187241 0.3120744 0.305183 0.2981992 0.2910442
 0.2836661 0.2758672 0.2672448 0.257905 0.2475851 0.237133 0.2271373 0.2179951 0.2102334 0.2032679
 0.197008 0.1909859 0.1850326 0.1791673 0.1733587 0.1677809 0.162454 0.1573638 0.1525084 0.1477322
 0.1430331 0.1383301 0.1336437 0.1290395 0.1245408 0.1202642 0.1162051 0.112416 0.1088681 0.1055423
 0.1024083 0.09943476 0.09657788 0.09381767 0.09105244 0.08823506 0.08526269 0.08203755 0.07875305 0.07539672
 0.07237832 0.06979056 0.0676038 0.06583741 0.06418709 0.06263863 0.06103117 0.05937372 0.05771735 0.0560769
 0.05456804 0.05317448 0.05190201 0.05072919 0.04959953 0.04853073 0.04751888 0.04660256 0.04582953 0.04520163
 0.0447419 0.04442118 0.04422729 0.04415066 0.04418002 0.04433649 0.04461668 0.04507287 0.04570394 0.04662006
 0.04783053 0.04943427 0.051435 0.05368413 0.05615867 0.05853048 0.06080475 0.06283903 0.0646647 0.06631973
 0.06781095 0.0691684 0.07039744 0.07149647 0.07253394 0.07356169 0.07469863 0.07607257 0.07767738 0.07958953
 0.08159537 0.08362298 0.08558079 0.08740899 0.0892233 0.09103245 0.09293731 0.09495288 0.09706165 0.0992629
 0.101465 0.1036672 0.1058245 0.1079554 0.1101321 0.11239 0.1148935 0.1176527 0.1207972 0.1242543
 0.1279711 0.1318693 0.1358165 0.1398509 0.1439533 0.1481891 0.1526095 0.1571711 0.1618833 0.1666413
 0.1714106 0.1761855 0.1809474 0.1858177 0.1908098 0.1959661 0.2012882 0.2064844 0.2115259 0.2159634
 0.2198013 0.2228381 0.225098 0.2265768 0.2272504 0.2270669 0.2259843 0.2238902 0.2208229 0.2167481
 0.211813 0.2060987 0.1997794 0.192966 0.1857646 0.1782345 0.1704317 0.1623541 0.1541722 0.145885
 0.137839 0.1300676 0.1228063 0.1160692 0.1097722 0.103902 0.09825778 0.09284883 0.08762219 0.08261345
 0.07792941 0.07357353 0.0696221 0.06602453 0.06273823 0.05970511 0.05684233 0.05411878 0.05148248 0.04892806
 0.04643807 0.04402097 0.04167595 0.03941248 0.03723448 0.03513841 0.03312591 0.03117909 0.02929571 0.02747078
 0.02570388 0.02403501 0.02246856 0.02107397 0.01985135 0.01883886 0.01802817 0.01740896 0.01697602 0.01671151
 0.0166152 0.01668213 0.01690418 0.01727732 0.01777355 0.01838097 0.0190423 0.01973664 0.02037785 0.02093791
 0.02132699 0.02151949 0.02145332 0.02111248 0.02048059 0.01955056 0.0183713 0.01694504 0.01537991 0.01368232
 0.01196191 0.01022162 0.008532702 0.006898047 0.005365 0.003937349 0.00264985 0.001498551 0.0004950781 -0.0003733649
 -0.001116094 -0.001745863 -0.002274816 -0.002713608 -0.003069139 -0.003354636 -0.003574753 -0.003744768 -0.003867487 -0.003962
 -0.004029687 -0.004099109 -0.004172537 -0.004279606 -0.004422186 -0.004610594 -0.004843685 -0.005107141 -0.00539866 -0.005695951
 -0.006000093 -0.006300972 -0.00660588 -0.00692528 -0.007270392 -0.007665138 -0.008115014 -0.008638678 -0.009228125 -0.009886133
 -0.01059434 -0.01134603 -0.01211869 -0.01290502 -0.01367948 -0.01443537 -0.01515108 -0.01582099 -0.0164408 -0.01700852
 -0.01753684 -0.01802637 -0.01849055 -0.01892955 -0.01934815 -0.01974537 -0.02011846 -0.02046499 -0.02077583 -0.02104654
 -0.02126209 -0.0214188 -0.02150203 -0.02151516 -0.0214528 -0.0213302 -0.02115464 -0.02094847 -0.02072597 -0.02050116
 -0.0202844 -0.02007372 -0.01987065 -0.0196706 -0.01947208 -0.01927943 -0.01909307 -0.01891582 -0.01874807 -0.01857455
 -0.01839305 -0.01816886 -0.01789855 -0.01753997 -0.01709708 -0.01655189 -0.01593287 -0.01528953 -0.01467489 -0.01420264
 -0.01390433 -0.01388031 -0.01408401 -0.01453106 -0.0151067 -0.01575658 -0.01637987 -0.01691919 -0.01734784 -0.01764235
 -0.01783188 -0.0179169 -0.01793089 -0.017878 -0.01777251 -0.01761563 -0.01740594 -0.01714185 -0.01680108 -0.01637681
 -0.01581284 -0.0151043 -0.01418911 -0.01309639 -0.01184231 -0.01051813 -0.009272654 -0.008216237 -0.007557556 -0.007305505
 -0.007579301 -0.00821432 -0.009176476 -0.01023451 -0.01128012 -0.0122146 -0.01296793 -0.01363408 -0.01421097 -0.01484333
 -0.01555224 -0.01636223 -0.01727792 -0.01817207 -0.01903477 -0.01968599 -0.02012588 -0.02025306 -0.02010258 -0.01973972
 -0.01923135 -0.0187806 -0.0184287 -0.01836166 -0.01853013 -0.01896654 -0.01955933 -0.02022071 -0.02088847 -0.02148688
 -0.02204964 -0.02257199 -0.02309511 -0.02364084 -0.0241721 -0.02469125 -0.0251241 -0.02546069 -0.0256782 -0.02577388
 -0.02578299 -0.02570751 -0.0255845 -0.02541366 -0.02520953 -0.02497247 -0.02471113 -0.02442761 -0.02413299 -0.02382545
 -0.02350787 -0.02317495 -0.02282027 -0.02244305 -0.02203826 -0.02161372 -0.02117128 -0.0207219 -0.02027037 -0.01982362
 -0.0193852 -0.01895443 -0.01853244 -0.01811222 -0.01769301 -0.01727079 -0.01684512 -0.01642105 -0.01599873 -0.01558256
 -0.01517072 -0.01475335 -0.01432698 -0.01387192 -0.01338754 -0.01286146 -0.0122967 -0.01169349 -0.01105326 -0.01037945
 -0.009668015 -0.008917209 -0.008121945 -0.007276245 -0.006386296 -0.005448465 -0.004488759 -0.003510413 -0.002548721 -0.001610588
 -0.0007179807 0.0001248543 0.0009180704 0.001661232 0.002364991 0.003029912 0.003665979 0.004273758 0.004861792 0.005430797
 0.005987863 0.006534195 0.007075851 0.007615273 0.008159571 0.008710423 0.00927339 0.009847187 0.01043215 0.01102822
 0.01163481 0.01225432 0.01288876 0.01353472 0.01419329 0.01485293 0.01551192 0.01616102 0.0167988 0.01742175
 0.01802949 0.01862144 0.01919806 0.01976784 0.02033274 0.02091201 0.02150568 0.02212665 0.02276817 0.02342129
 0.02407393 0.02470134 0.02529166 0.02581995 0.02627976 0.02665587 0.02695027 0.02715931 0.02728881 0.02734031
 0.02731799 0.02722096 0.02706344 0.0268435 0.02660159 0.02633977 0.02611336 0.02592608 0.02582043 0.02579791
 0.02588182 0.0260727 0.02638554 0.02682088 0.02738938 0.02809077 0.02892945 0.0299057 0.03102151 0.03227849
 0.0336811 0.0352254 0.03692036 0.03872643 0.04065132 0.04255925 0.0444346 0.04601683 0.04724901 0.047854
 0.0477571 0.04688223 0.04518774 0.04291474 0.04007028 0.03708465 0.03397831 0.03111846 0.02850148 0.02627727
 0.02441672 0.0228804 0.02164017 0.02059785 0.01974484 0.01902163 0.01842474 0.01793504 0.01752516 0.01717545
 0.01683031 0.01645711 0.0159948 0.01541314 0.01466402 0.01372853 0.01257706 0.0111988 0.009593394 0.00775573
 0.005729123 0.00351467 0.001196765 -0.001219477 -0.003637877 -0.006055037 -0.008399999 -0.0106742 -0.01284582 -0.01491789
 -0.01688233 -0.01874167 -0.0204951 -0.02214916 -0.02371004 -0.02518868 -0.02659732 -0.02794223 -0.02923189 -0.03046462
 -0.03164089 -0.03276146 -0.033825 -0.03484064 -0.03580933 -0.03674167 -0.03763912 -0.03850756 -0.03934754 -0.04016086
 -0.04094756 -0.04170765 -0.04244108 -0.04314808 -0.04382794 -0.04447894 -0.04509779 -0.04567467 -0.04620638 -0.04667991
 -0.04710006 -0.04746556 -0.04778806 -0.0480792 -0.04834279 -0.04858707 -0.04880364 -0.0489899 -0.04914251 -0.04925688
 -0.04934737 -0.04941452 -0.04947959 -0.04954563 -0.04962311 -0.04971344 -0.04980993 -0.04991179 -0.05000066 -0.05007527
 -0.05011722 -0.05012618 -0.05009102 -0.05001177 -0.04988204 -0.04970375 -0.04947505 -0.04920483 -0.04890168 -0.04858007
 -0.04825718 -0.04793981 -0.04764076 -0.04734934 -0.04706674 -0.04677171 -0.04645869 -0.04611043 -0.04572164 -0.04528864
 -0.04480905 -0.04429489 -0.04374626 -0.04318816 -0.04262241 -0.04208518 -0.04158052 -0.0411572 -0.04081972 -0.04061702
 -0.04054563 -0.04062626 -0.04084068 -0.04116736 -0.04157996 -0.04203514 -0.04251194 -0.04297582 -0.04341545 -0.04381504
 -0.04416604 -0.04446333 -0.04469375 -0.04485342 -0.04492868 -0.04491476 -0.04481268 -0.04462015 -0.04435838 -0.04402843
 -0.04365513 -0.04323943 -0.04279322 -0.04231643 -0.04181297 -0.04128391 -0.04073612 -0.04017113 -0.03959643 -0.03901414
 -0.03842977 -0.03785051 -0.03728671 -0.03674891 -0.03625282 -0.03579825 -0.03539492 -0.03502147 -0.03467463 -0.03432197
 -0.03395302 -0.03354634 -0.03309332 -0.03259894 -0.03206038 -0.03150726 -0.0309409 -0.0304013 -0.02989022 -0.02943613
 -0.02903722 -0.02869199 -0.02839368 -0.02811057 -0.02783675 -0.027536 -0.02721193 -0.0268527 -0.0264688 -0.0260715
 -0.02566415 -0.02525683 -0.02484129 -0.02441483 -0.02397128 -0.02350486 -0.02302169 -0.02252143 -0.02201485 -0.02150484
 -0.02099396 -0.0204839 -0.01996564 -0.01943879 -0.01889139 -0.01832311 -0.01773301 -0.01712269 -0.01650651 -0.0158859
 -0.01527633 -0.01467565 -0.01408578 -0.01350342 -0.0129213 -0.01234112 -0.01176034 -0.01118648 -0.01062597 -0.01008431
 -0.009569668 -0.009075591 -0.0086039 -0.008137281 -0.007670788 -0.007191956 -0.006695825 -0.006185654 -0.005660722 -0.005130046
 -0.00459438 -0.004056934 -0.003517999 -0.002983559 -0.002454978 -0.001948314 -0.001463445 -0.001010484 -0.0005837435 -0.0001718038
 0.0002316343 0.000646729 0.001072041 0.001515203 0.001969728 0.002430209 0.002897087 0.003367067 0.003848461 0.004346216
 0.004858746 0.005390384 0.005919674 0.006442863 0.006943498 0.00741628 0.007876869 0.008325481 0.00878997 0.009271125
 0.009767344 0.01027589 0.01076833 0.01124508 0.01169093 0.01211353 0.01252773 0.01294182 0.01338171 0.01384746
 0.01435409 0.01488753 0.01544273 0.01599674 0.01653067 0.01703554 0.01749729 0.01793463 0.01834931 0.01876386
 0.0191859 0.01961367 0.02004928 0.02047548 0.0208909 0.02128631 0.02166142 0.02201904 0.02236004 0.02269357
 0.02302087 0.02335334 0.02369071 0.02403878 0.02439502 0.0247565 0.02512203 0.02548758 0.02585585 0.02622702
 0.02660697 0.0269994 0.02740998 0.02784492 0.02829693 0.02876917 0.02923426 0.02968671 0.03010713 0.03048888
 0.03085124 0.03119441 0.0315524 0.0319265 0.03232108 0.03273439 0.03314904 0.03356531 0.03397607 0.03438256
 0.03478533 0.03518461 0.03557886 0.03597404 0.03637715 0.03679613 0.03724491 0.03771788 0.03821821 0.03872989
 0.03924548 0.03975601 0.04025583 0.04074643 0.04122719 0.04170072 0.04216776 0.04262624 0.04307629 0.04351082
 0.04392961 0.04433327 0.04472352 0.04511963 0.04552186 0.04594507 0.04638115 0.04681207 0.04722996 0.04760523
 0.0479443 0.04824335 0.04851177 0.04876135 0.04898766 0.04919121 0.04936726 0.04951007 0.04963105 0.04973147
 0.04982627 0.04991881 0.05001932 0.05012893 0.05026075 0.05041604 0.05060243 0.05082025 0.05106811 0.05134717
 0.05166959 0.05203685 0.05246656 0.05295226 0.0534823 0.05404973 0.05463114 0.0552299 0.05584354 0.05646919
 0.05710272 0.05774263 0.05836996 0.05904276 0.05977026 0.06065555 0.06176275 0.06302764 0.06447643 0.06585982
 0.06713102 0.06824486 0.06918633 0.07007571 0.07091794 0.0717531 0.07257362 0.07330794 0.0739482 0.07441299
 0.07470813 0.0748104 0.07472821 0.0744698 0.07403792 0.07343891 0.07267743 0.07175326 0.07069328 0.06950366
 0.06824967 0.06695731 0.06570146 0.06451365 0.06343534 0.06248249 0.06166822 0.06099698 0.0604709 0.06009197
 0.0598364 0.05970277 0.05964687 0.05966811 0.05974636 0.05988257 0.06007891 0.06032154 0.06057424 0.06080373
 0.06091689 0.06089436 0.06065435 0.06022454 0.05959484 0.05882252 0.0579441 0.05700851 0.05605136 0.05509277
 0.05414703 0.05322004 0.05230793 0.05145689 0.05066751 0.05002533 0.04954065 0.04923179 0.04909935 0.0490501
 0.04907906 0.04909536 0.04910682 0.04910947 0.0491158 0.04916626 0.049266 0.04944823 0.04970785 0.05005743
 0.05047311 0.05093887 0.0514202 0.05188496 0.0523167 0.05269753 0.05302683 0.05330255 0.05351771 0.05366766
 0.05376286 0.05379903 0.05382959 0.05385831 0.0539372 0.05406899 0.05425347 0.05448743 0.05473333 0.0549861
 0.05519912 0.0553686 0.05545334 0.05546076 0.05538253 0.05523968 0.05506298 0.05486425 0.05467077 0.0544789
 0.05429114 0.0541135 0.05394837 0.05380524 0.05369338 0.05359308 0.05350326 0.05339615 0.05326452 0.05311432
 0.05294454 0.05277679 0.05261215 0.05245323 0.05229962 0.05214593 0.05199289 0.05184244 0.05169514 0.0515544
 0.05141912 0.05129081 0.05116232 0.05102656 0.05086764 0.05066249 0.05040915 0.05009007 0.04973724 0.04936042
 0.04899321 0.04865455 0.04834197 0.04805968 0.04779309 0.04753993 0.04729589 0.0470617 0.04681524 0.04655531
 0.04623984 0.04586856 0.04542644 0.04491781 0.04436039 0.04375782 0.04312865 0.04248133 0.04183976 0.04122233
 0.04067069 0.0401928 0.03981989 0.03953307 0.03933255 0.03918492 0.03907454 0.03897136 0.03885987 0.03872876
 0.03856941 0.03839627 0.03820987 0.03802719 0.03785059 0.03768036 0.03751663</values></Ydata></AB><ScSm><Ydata ylabel="Single channel"><values byteorder="INTEL" format="FLOAT32" numvalues="1814"> 0.07350598 0.07351553 0.07358697 0.07374869 0.07397492 0.0741992 0.07435987 0.0744395 0.0744531 0.07440954
 0.07432088 0.07424839 0.07428623 0.07447104 0.0747294 0.07492974 0.07498564 0.07492839 0.07488874 0.07496974
 0.07510718 0.07508563 0.07474043 0.07414891 0.07358259 0.073256 0.07319087 0.07337752 0.07391119 0.07473375
 0.07534212 0.07514815 0.07421812 0.073309 0.07302825 0.07325011 0.07346794 0.07338257 0.07299785 0.07250021
 0.07230288 0.07293667 0.07452817 0.07636474 0.07714766 0.07581212 0.07228972 0.0677486 0.06416172 0.06325147
 0.06527835 0.06869033 0.07128431 0.07196254 0.07126259 0.07024932 0.06936763 0.0685721 0.06806442 0.06833805
 0.06949581 0.07078742 0.07099412 0.0694674 0.06689868 0.06483588 0.0642761 0.06503367 0.06655389 0.06852055
 0.07003148 0.06911911 0.06467645 0.05890976 0.05636417 0.05960788 0.06649374 0.07226022 0.0737691 0.07126937
 0.06702045 0.06341314 0.06206561 0.06338973 0.06651649 0.07001807 0.07277737 0.07404424 0.07323688 0.07044125
 0.0669162 0.064491 0.06443943 0.0669727 0.0711932 0.07517958 0.07686113 0.07554701 0.07238673 0.06915714
 0.06709166 0.06688324 0.0688602 0.07264277 0.07712267 0.08110516 0.08379519 0.08487596 0.08457512 0.08351994
 0.08225893 0.08117308 0.0808105 0.08154843 0.08270826 0.08281446 0.08119962 0.07889077 0.07755018 0.07775839
 0.07855254 0.07860106 0.07755154 0.07581921 0.07327499 0.06922141 0.06399463 0.0593916 0.05687829 0.05647105
 0.05780031 0.06069084 0.06391679 0.06512028 0.06338952 0.06091633 0.06082745 0.06384761 0.06791988 0.07071573
 0.07178917 0.07241848 0.07395677 0.07644965 0.07845563 0.07813497 0.07507644 0.07132348 0.06992826 0.07195961
 0.0754789 0.07792336 0.07880393 0.07943808 0.08063856 0.08145769 0.08017999 0.07636231 0.07193337 0.07000676
 0.07217254 0.07690573 0.08067301 0.08055695 0.07622144 0.06997682 0.06497359 0.0630251 0.06411338 0.06758223
 0.07285742 0.07884234 0.08362501 0.08554541 0.08440963 0.08138593 0.07768091 0.07344411 0.06838009 0.06354482
 0.06158035 0.06422056 0.07006859 0.0757557 0.07895342 0.07954264 0.0783034 0.07548131 0.07098933 0.06574599
 0.06211973 0.06210541 0.06493565 0.0675008 0.06759754 0.06593756 0.06457519 0.06433892 0.06451087 0.06437752
 0.06423977 0.06487201 0.06640454 0.06801759 0.06873547 0.06831869 0.0673058 0.06638199 0.0657687 0.06507735
 0.06386419 0.06250465 0.06216872 0.06353083 0.0658301 0.06765187 0.06835277 0.06829431 0.06790242 0.06695445
 0.06492662 0.06198368 0.05940079 0.05862442 0.05986759 0.06196751 0.06360309 0.06425248 0.06406668 0.06339036
 0.06253289 0.06167098 0.06088762 0.06037062 0.06036717 0.060818 0.06128724 0.06139623 0.06112399 0.06061038
 0.05989465 0.05897094 0.0579713 0.05716626 0.05677009 0.05677182 0.05698093 0.057205 0.05731466 0.05719028
 0.05676154 0.05611915 0.05546317 0.05491891 0.05449135 0.05418267 0.0540362 0.05404246 0.05408831 0.05404341
 0.05386496 0.05359381 0.05327526 0.05291777 0.0525244 0.05213588 0.05182594 0.05164401 0.05155627 0.05146933
 0.05134132 0.0512321 0.05119035 0.0511363 0.0509393 0.05058862 0.0502097 0.04992252 0.04974389 0.04961775
 0.04948052 0.0492818 0.04898161 0.04858011 0.04816519 0.04788746 0.04784507 0.04800835 0.0482699 0.04852279
 0.04867869 0.04868463 0.04856341 0.04839033 0.04820752 0.04799977 0.04775771 0.04752616 0.04738495 0.04739286
 0.04753524 0.04772367 0.04786323 0.04791543 0.04789623 0.04785159 0.04784075 0.04788997 0.0479481 0.04793619
 0.04784996 0.04776987 0.04776444 0.04781751 0.04785493 0.0478263 0.04775872 0.04773028 0.0477873 0.04790127
 0.04801369 0.04810152 0.04818482 0.04828296 0.04837564 0.04841171 0.04836708 0.04828713 0.04824611 0.04826914
 0.04832586 0.04839513 0.04849448 0.04863783 0.04879637 0.04892046 0.04899137 0.0490379 0.04909658 0.049164
 0.04920342 0.04919697 0.04917104 0.0491672 0.04920489 0.04927559 0.04935693 0.04942697 0.04947332 0.0494951
 0.04949788 0.0494874 0.0494664 0.04943953 0.04942512 0.04945334 0.04953539 0.04963518 0.04968949 0.04966466
 0.04958705 0.04951475 0.04948284 0.04947842 0.04946627 0.04943242 0.04939483 0.04937601 0.04937834 0.04938892
 0.04939648 0.04940011 0.04941328 0.04946398 0.04957664 0.04974115 0.04990741 0.05002513 0.05008931 0.05013824
 0.05021013 0.05031236 0.05042926 0.05054694 0.05066895 0.05081245 0.05098426 0.05116025 0.05130399 0.05141062
 0.05151534 0.05165392 0.0518329 0.05203938 0.05225436 0.05245045 0.05260359 0.05272059 0.05283815 0.05298435
 0.05315295 0.05332179 0.05348196 0.05364002 0.05380308 0.05397549 0.05416822 0.05440182 0.05469482 0.0550475
 0.05543354 0.05581157 0.0561561 0.05648276 0.05683615 0.05724646 0.05769939 0.05814878 0.0585569 0.05892333
 0.05927634 0.05963746 0.06000299 0.06036712 0.06074864 0.06117365 0.06163758 0.06210619 0.06255393 0.06298378
 0.06341056 0.06384249 0.06428092 0.06472549 0.06517568 0.06563053 0.06608554 0.06653034 0.06695633 0.06736807
 0.06778052 0.06820627 0.06864876 0.0691008 0.06954063 0.06994121 0.07030037 0.07065497 0.07104455 0.07146379
 0.07187152 0.072247 0.07261424 0.07300389 0.07341413 0.07382479 0.07423362 0.07465784 0.07510439 0.07555301
 0.07596953 0.07632951 0.07663457 0.07691313 0.07720231 0.07752649 0.07789511 0.07831249 0.07877205 0.07924309
 0.07968229 0.08006314 0.08038556 0.08066528 0.08092983 0.08121489 0.08154214 0.08190152 0.08226403 0.08260274
 0.08289924 0.08315502 0.08340729 0.08370871 0.08407438 0.0844707 0.0848687 0.08528143 0.08572774 0.08618605
 0.08661962 0.08703641 0.08748334 0.08797275 0.08844817 0.08884193 0.08914147 0.08938006 0.0895917 0.08980797
 0.09007503 0.09042943 0.09085624 0.09129779 0.09170345 0.0920559 0.09235741 0.09261306 0.09282979 0.0930194
 0.09319718 0.09338018 0.09358747 0.09384207 0.09416555 0.09455656 0.09497236 0.09534584 0.09562895 0.09581161
 0.09589892 0.09589234 0.09580731 0.09568851 0.09557784 0.09546507 0.09528736 0.09498352 0.0945384 0.09397358
 0.09331158 0.09256551 0.0917637 0.09097549 0.09030347 0.08984473 0.08965595 0.08975105 0.09011797 0.09071849
 0.09146971 0.09224641 0.09291797 0.09337862 0.09354545 0.0933593 0.09281929 0.0920121 0.09108459 0.09017663
 0.08937253 0.0886959 0.08813842 0.08770902 0.08747548 0.08755697 0.08806673 0.08905549 0.09049588 0.09229325
 0.09429988 0.0963399 0.09825785 0.09996937 0.1014739 0.1028179 0.1040473 0.1051916 0.1062733 0.1073075
 0.1082913 0.1092106 0.1100596 0.1108397 0.1115424 0.1121468 0.1126359 0.1130034 0.1132538 0.113407
 0.113504 0.1135966 0.1137291 0.1139229 0.1141637 0.1143939 0.1145255 0.1144766 0.1142114 0.1137648
 0.1132508 0.1128566 0.112815 0.1133411 0.1145405 0.1163417 0.1185137 0.1207692 0.1228778 0.1247133
 0.1262379 0.1274738 0.1284823 0.1293394 0.1301079 0.130825 0.131508 0.1321635 0.1327922 0.1333931
 0.1339666 0.1345177 0.1350565 0.1355933 0.1361282 0.1366484 0.1371426 0.1376176 0.1380942 0.1385871
 0.139092 0.1395935 0.1400836 0.1405689 0.1410561 0.1415357 0.1419906 0.1424188 0.1428376 0.143265
 0.1437083 0.1441641 0.1446193 0.1450516 0.1454443 0.1458026 0.1461486 0.1465005 0.1468612 0.1472254
 0.1475892 0.1479513 0.1483096 0.1486639 0.1490222 0.1493921 0.1497624 0.1501052 0.1504069 0.1506889
 0.1509869 0.1513147 0.1516557 0.1519854 0.1522981 0.1526132 0.1529584 0.1533395 0.1537286 0.1540887
 0.1544072 0.1547013 0.1549942 0.1552979 0.1556149 0.1559455 0.1562874 0.1566326 0.1569712 0.157299
 0.1576196 0.1579376 0.158253 0.1585627 0.158869 0.1591811 0.1595053 0.159835 0.1601569 0.1604695
 0.1607881 0.1611245 0.1614664 0.1617882 0.1620776 0.1623438 0.1626013 0.1628563 0.163112 0.1633752
 0.1636541 0.1639513 0.1642631 0.164583 0.1649048 0.1652248 0.1655436 0.1658638 0.1661845 0.1665002
 0.1668067 0.1671087 0.167415 0.1677264 0.1680314 0.1683188 0.1685912 0.1688626 0.1691447 0.1694356
 0.1697227 0.1699954 0.1702572 0.1705226 0.1708012 0.1710886 0.1713707 0.1716376 0.171891 0.1721422
 0.172401 0.1726686 0.1729405 0.1732131 0.1734851 0.1737542 0.1740178 0.1742745 0.1745264 0.1747795
 0.1750399 0.1753076 0.1755767 0.175843 0.1761056 0.1763628 0.1766119 0.176852 0.1770841 0.177312
 0.1775448 0.1777927 0.1780564 0.1783264 0.1785908 0.1788444 0.1790908 0.1793388 0.179594 0.1798514
 0.1801037 0.18035 0.1805932 0.1808334 0.1810707 0.1813101 0.1815583 0.1818166 0.1820787 0.1823335
 0.1825728 0.1828002 0.183028 0.1832649 0.1835089 0.1837503 0.1839798 0.1841981 0.1844137 0.1846321
 0.1848524 0.1850759 0.1853061 0.1855394 0.1857677 0.1859924 0.1862233 0.1864648 0.1867134 0.1869617
 0.1872017 0.1874296 0.1876507 0.1878751 0.1881094 0.1883572 0.1886165 0.1888756 0.1891218 0.1893562
 0.1895881 0.1898232 0.1900643 0.1903115 0.1905578 0.190795 0.1910261 0.1912582 0.1914926 0.1917308
 0.1919771 0.1922266 0.192466 0.192692 0.192916 0.19315 0.1933972 0.1936517 0.1939017 0.1941407
 0.1943704 0.1945904 0.1947967 0.1949946 0.1951956 0.1954044 0.1956247 0.1958639 0.1961166 0.1963626
 0.1965934 0.196817 0.197036 0.1972465 0.1974524 0.1976581 0.1978627 0.198071 0.1982867 0.1984865
 0.1986098 0.1985279 0.1979417 0.1962563 0.1925568 0.1857888 0.1751787 0.1607172 0.1433336 0.1245721
 0.1060262 0.08891498 0.07395121 0.06143692 0.05143499 0.04387852 0.03862489 0.03554651 0.03463585 0.03612401
 0.04061054 0.04870621 0.05967376 0.0702232 0.07579079 0.07414098 0.06750365 0.06054041 0.05647248 0.05553064
 0.05634573 0.05774537 0.05935133 0.0613713 0.06417337 0.06786188 0.07225178 0.0773267 0.08346905 0.09097196
 0.099446 0.1079798 0.1159261 0.1234076 0.1310124 0.139083 0.1473585 0.1552358 0.1622496 0.1683047
 0.1735865 0.1783564 0.182804 0.1870194 0.1910385 0.1948479 0.1983086 0.2011238 0.2029785 0.2037797
 0.2037736 0.2034095 0.2030745 0.2029401 0.2030127 0.203258 0.2036582 0.2042033 0.2048773 0.2056499
 0.2064759 0.2073137 0.2081443 0.2089625 0.2097595 0.2105209 0.2112283 0.2118618 0.2124133 0.2128973
 0.2133361 0.2137422 0.2141219 0.2144841 0.2148349 0.2151747 0.2155035 0.2158188 0.2161102 0.2163672
 0.216591 0.2167929 0.2169876 0.2171861 0.217391 0.217596 0.2177974 0.2179993 0.2182049 0.2184118
 0.2186192 0.2188293 0.219038 0.2192362 0.2194222 0.2196043 0.2197886 0.2199746 0.220161 0.2203517
 0.2205529 0.2207652 0.2209769 0.2211723 0.2213487 0.2215213 0.2217103 0.2219227 0.2221471 0.222364
 0.222568 0.2227776 0.2230143 0.2232745 0.2235368 0.2237894 0.224037 0.2242831 0.224525 0.2247586
 0.2249771 0.2251716 0.225344 0.2255147 0.2257114 0.2259486 0.2262148 0.2264825 0.2267349 0.2269776
 0.2272197 0.2274562 0.2276756 0.2278745 0.228063 0.2282683 0.2285232 0.2288305 0.2291536 0.2294581
 0.2297421 0.2300184 0.2302933 0.2305725 0.2308545 0.2311125 0.2313142 0.2314725 0.2316597 0.2319548
 0.2323644 0.2328045 0.2331777 0.233463 0.2337114 0.2339797 0.2342959 0.2346391 0.2349099 0.2349953
 0.2349374 0.2349693 0.2352991 0.2359016 0.2365747 0.2371483 0.237587 0.2379402 0.2382559 0.2385335
 0.238728 0.2388031 0.2388084 0.2389017 0.2392409 0.2398194 0.2404545 0.2409742 0.2413552 0.2416558
 0.2419134 0.2421414 0.2422985 0.2422347 0.2418447 0.2413516 0.2412569 0.2418628 0.2429342 0.2439489
 0.244615 0.2450241 0.2453648 0.2456822 0.2459348 0.2460338 0.2457218 0.2447222 0.2432824 0.2423222
 0.2426712 0.2442334 0.2461489 0.2476536 0.2485538 0.2490331 0.2493286 0.2495741 0.2496962 0.2494146
 0.2485582 0.2474898 0.247019 0.2476578 0.2490449 0.2503281 0.2510315 0.2513156 0.2515303 0.2518224
 0.252033 0.2516551 0.2501255 0.2476497 0.2456171 0.2456245 0.2479172 0.2510962 0.2535059 0.2546572
 0.2551047 0.255233 0.2546914 0.2530302 0.2503789 0.2473899 0.2450342 0.244472 0.2462873 0.249521
 0.2522106 0.2533294 0.2536602 0.2545004 0.2561057 0.257696 0.2584691 0.2582269 0.2572316 0.2557518
 0.2539309 0.2522036 0.2515523 0.2528052 0.2556181 0.258602 0.2606148 0.2616268 0.2620984 0.2616294
 0.2586996 0.2524879 0.2451453 0.2412063 0.2435894 0.2505454 0.2575384 0.2617092 0.2634469 0.264263
 0.2647599 0.2644583 0.2620777 0.2562424 0.2476499 0.2404272 0.2393418 0.2450907 0.2535095 0.2594581
 0.2603286 0.2563216 0.2495132 0.2432362 0.2407302 0.2431792 0.2491831 0.2561388 0.2618056 0.2649288
 0.2652324 0.2632918 0.2604702 0.258582 0.2585884 0.2591631 0.2576852 0.2535418 0.2491516 0.2464234
 0.2438142 0.239198 0.2345273 0.2345457 0.2406198 0.2484574 0.2529214 0.2532327 0.2520728 0.2506984
 0.246796 0.237819 0.2258034 0.2174601 0.2182926 0.2268855 0.2361628 0.2402976 0.2393318 0.2371239
 0.2361992 0.2352202 0.2309731 0.2226156 0.213799 0.2096308 0.2112876 0.21497 0.2164072 0.2142863
 0.208787 0.2001786 0.1912279 0.1881074 0.1951582 0.2095314 0.2234181 0.2304975 0.2282672 0.2166129
 0.1985947 0.1822089 0.1765194 0.1835766 0.195942 0.2035404 0.2016839 0.1919189 0.1776621 0.1618164
 0.1480452 0.1412241 0.1445106 0.1561164 0.1694851 0.1766404 0.1725798 0.1590564 0.1447434 0.1390063
 0.1435053 0.1511417 0.1540506 0.1507364 0.1449677 0.1408041 0.1401958 0.1428002 0.146401 0.1489202
 0.1500774 0.1492339 0.1431673 0.1299885 0.1145435 0.105284 0.1054613 0.111403 0.1192927 0.1285905
 0.1376947 0.1416025 0.137532 0.130178 0.1277338 0.1331935 0.1417776 0.146791 0.1462547 0.1432806
 0.1412292 0.1401125 0.138228 0.1360104 0.136233 0.1401283 0.1452012 0.147995 0.1477012 0.1458807
 0.1438273 0.1416042 0.1389349 0.1357546 0.1321214 0.1282982 0.1247035 0.1214579 0.1182989 0.1150364
 0.111569 0.107304 0.101297 0.09364855 0.08637168 0.08186306 0.08043382 0.08036789 0.08046176 0.08082436
 0.08058401 0.07709906 0.06946295 0.0614998 0.05901799 0.06421493 0.074037 0.08362494 0.08992222 0.09192432
 0.08937034 0.08325035 0.07747342 0.07763587 0.08636452 0.1007385 0.1154676 0.1274826 0.1361887 0.1408943
 0.1405379 0.1359202 0.1305469 0.1286703 0.1327491 0.1422785 0.153784 0.1615735 0.1605349 0.1513317
 0.1428853 0.1458044 0.1611229 0.1784472 0.1876225 0.1890835 0.1896852 0.1920294 0.1931869 0.1923492
 0.1938646 0.2013067 0.2121906 0.220376 0.2214203 0.2143305 0.2009968 0.186591 0.1782142 0.1792666
 0.1856962 0.1904938 0.1905448 0.1862628 0.1773874 0.1645827 0.1538074 0.1527702 0.1619363 0.1734403
 0.1800301 0.1816735 0.1823078 0.1831365 0.1813083 0.1743507 0.1642317 0.1561179 0.1532343 0.1540357
 0.1548498 0.1537948 0.1509013 0.1459526 0.1385791 0.1303682 0.1249067 0.1247538 0.1289438 0.134032
 0.1373093 0.1385975 0.1393354 0.140768 0.143069 0.1455395 0.1476065 0.1500982 0.15507 0.1634275
 0.173196 0.1814219 0.187547 0.1935774 0.2009374 0.2084014 0.213467 0.2150362 0.2145081 0.214661
 0.2174848 0.2225923 0.2274726 0.2296268 0.2289476 0.228033 0.2297725 0.2345444 0.2401181 0.244152
 0.2461091 0.2468142 0.2471081 0.2472073 0.2466602 0.2447992 0.2419371 0.2400852 0.2415671 0.2466659
 0.2532368 0.258755 0.2622341 0.2641371 0.2651055 0.2652324 0.2644022 0.2629249 0.2615782 0.2610285
 0.2613835 0.2623315 0.263518 0.2646971 0.265714 0.2665197 0.2671722 0.2677667 0.2683952 0.2691458
 0.2700469 0.2709996 0.271855 0.2725942 0.2733613 0.2742689 0.2752307 0.276047 0.2765903 0.2768054
 0.2765869 0.2758123 0.2745092 0.2728649 0.2710317 0.2690353 0.2669768 0.2652782 0.264585 0.2652987
 0.2671894 0.2695068 0.2714598 0.2725956 0.2728817 0.2726395 0.2723917 0.2725597 0.273176 0.2739137
 0.2744099 0.274525 0.2743228 0.2739067 0.2733279 0.2726008 0.2717093 0.2705643 0.2690453 0.2672192
 0.2655166 0.2645283 0.2645078 0.2651157 0.2657384 0.2660287 0.2660861 0.2661645 0.2663149 0.2663119
 0.2658518 0.2648243 0.263472 0.2622749 0.2615868 0.2613469 0.2611907 0.2608279 0.2602519 0.2596166
 0.2590224 0.2584548 0.2578478 0.2571412 0.2562899 0.255263 0.254053 0.2526843 0.2512011 0.2496401
 0.2480179 0.2463428 0.2446207 0.242846 0.2410009 0.2390717 0.2370624 0.2349914 0.2328801 0.230737
 0.2285311 0.2261725 0.2235269 0.2204554 0.2168456 0.2126242 0.2077848 0.2024304 0.1967755 0.1910794
 0.1855596 0.1803572 0.175565 0.1712661 0.1675385 0.1644346 0.1619766 0.1601777 0.1590562 0.1586196
 0.1588509 0.159714 0.1611538 0.163079 0.1653542 0.167811 0.1702622 0.1725294 0.1745064 0.1762177
 0.1777946 0.1793673 0.1809717 0.1825597 0.1840818 0.1855267 0.1868762 0.1880624 0.1890034 0.1896624
 0.1900465 0.1901659 0.1900165 0.1895905 0.188881 0.1878816 0.1866106 0.1851766 0.1838668 0.1831551
 0.183517 0.1851203 0.1876565 0.1905038 0.1930954 0.19518 0.1968027 0.1981127 0.19922 0.2001919
 0.2011119 0.2021095 0.203349 0.2050021 0.2072043 0.2100025 0.2133231 0.2169836 0.2207474 0.2243914
 0.2277503 0.2307205 0.2332545 0.2353612 0.2370913 0.238505 0.2396513 0.2405673 0.2412828 0.241825
 0.242224 0.2425057 0.2426779 0.2427367 0.2426783 0.2424992 0.2421986 0.2417958 0.2413274 0.2408134
 0.2402478 0.2396318 0.2389975 0.2383847 0.2378039 0.2372287 0.236617 0.2359391 0.235186 0.2343583
 0.2334598 0.2324996 0.2314824 0.2303897 0.2291819 0.227819 0.2262754 0.2245493 0.2226725 0.2207083
 0.2187345 0.2168348 0.2150838 0.2135085 0.2120588 0.2106268 0.2090925 0.2073597 0.2053903 0.203228
 0.2009771 0.1987425 0.1965795 0.1944878 0.1924415 0.19043 0.1884685 0.1865713 0.1847396 0.182991
 0.1813719 0.1799088 0.1785636 0.1772595 0.1759485 0.1746493 0.1734301 0.1723617 0.1714724 0.1707368
 0.1700983 0.1695062 0.1689476 0.168456 0.1680714 0.167781 0.1675117 0.167185 0.1667672 0.1662723
 0.165738 0.1651994 0.1646764 0.1641769 0.1636993 0.1632123 0.1626418 0.1618972 0.160909 0.1596369
 0.1580626 0.1561967 0.1540926 0.151855 0.1496323 0.147576 0.1457897 0.1443132 0.1431377 0.1422105
 0.1414442 0.1407645 0.1401564 0.1396614 0.1393352 0.1391901 0.1391428 0.1390453 0.1388179 0.1385439
 0.1383981 0.1384969 0.1388271 0.1392755 0.1397038 0.1400217 0.1402072 0.1402681 0.1402131 0.1400596
 0.1398295 0.1395289 0.1391594 0.1387387 0.1382835 0.1377912 0.1372528 0.1366588 0.1359934 0.1352453
 0.1344131 0.1334894 0.1324688 0.1313637 0.1301709 0.128861 0.1274736 0.1261995 0.1253004 0.1249437
 0.1251157 0.1256489 0.12634 0.1270702 0.1277695 0.1282649 0.1283385 0.1280669 0.1279772 0.1286661
 0.1302374 0.1321949 0.13388 0.1349332 0.1353398 0.1351988 0.1345866 0.133562 0.1321439 0.1303037
 0.1280655 0.1255445 0.122847 0.120053 0.1173102 0.1148017 0.1126254 0.1107948 0.1093013 0.1081882
 0.1075774 0.1071342 0.1052008 0.09966874 0.09119998 0.08467546 0.08511454 0.09205534 0.09986696 0.1037276
 0.1035067 0.1018015 0.1004159 0.09962746 0.09933642 0.09965245 0.1006745 0.1022564 0.1040104 0.105517
 0.1065766 0.1071938 0.1073211 0.1066517 0.1045665 0.1003424 0.09376186 0.08565968 0.07763951 0.0711235
 0.06670752 0.06422454 0.06309814 0.06266177 0.06245298 0.06239893 0.06273426 0.06372431 0.06545191 0.0678215
 0.07066115 0.07371441 0.07659214 0.07893638 0.08068754 0.08205315 0.0831874 0.08403213 0.08446983 0.08448547
 0.08415492 0.0835795 0.08286016 0.08207132 0.08122157 0.08026387 0.07920285 0.07820409 0.07751523 0.07722849
 0.07719865 0.07723271 0.0772605 0.07728951 0.07731272 0.07731272 0.07729225 0.07729563 0.07742406 0.07776621
 0.07827736 0.0787923 0.07917543 0.07941154 0.07955999 0.07963802 0.07953158 0.07909645 0.07843012 0.07788742
 0.07763727 0.07736325 0.07666678 0.07565996 0.07489175 0.07473211 0.07504113 0.07541539 0.07556957 0.0754688
 0.07527307 0.0752516 0.07561961 0.07629012</values></Ydata></ScSm><ScRf><Ydata ylabel="Single channel"><values byteorder="INTEL" format="FLOAT32" numvalues="1820"> 0.0606565 0.0608138 0.06091104 0.06094459 0.06093673 0.06093678 0.0609991 0.06114499 0.06134389 0.0615322
 0.06165839 0.0617164 0.06172815 0.06170176 0.06163891 0.06158397 0.06161771 0.06177576 0.06199562 0.06216174
 0.06219921 0.0621363 0.06208661 0.06214149 0.06225128 0.06223514 0.06195027 0.06145619 0.06097877 0.06070063
 0.06064508 0.06080624 0.06126097 0.06195706 0.06247362 0.06231912 0.06154523 0.06078004 0.06053236 0.06070416
 0.06087817 0.06080375 0.06047811 0.06005298 0.05987565 0.06039434 0.06171703 0.06324765 0.06389999 0.06278288
 0.05983787 0.05604142 0.05304245 0.05227648 0.05395584 0.05678499 0.05893365 0.05949633 0.0589258 0.05810614
 0.05739876 0.05675523 0.05633742 0.05655944 0.05751678 0.05859081 0.05876337 0.05748963 0.05534819 0.05363356
 0.05317431 0.05381004 0.05507787 0.05671633 0.05797179 0.05720254 0.05349105 0.04868495 0.0465758 0.04929951
 0.05505878 0.05987903 0.06114231 0.05905794 0.05551622 0.05251861 0.0514142 0.05253442 0.05514438 0.05805794
 0.06035341 0.06140407 0.06071797 0.05837037 0.0554224 0.05340371 0.05337184 0.05549843 0.0590325 0.0623687
 0.06377834 0.06268574 0.06005009 0.05735414 0.05563076 0.05546347 0.0571285 0.06030727 0.06407124 0.06741844
 0.06967982 0.07058756 0.07033429 0.0694525 0.06840927 0.06752428 0.06724848 0.06788708 0.06886603 0.06895227
 0.06759736 0.06567296 0.06457332 0.06477389 0.06545317 0.06548946 0.06459648 0.06313936 0.06101842 0.05764049
 0.05327376 0.04942143 0.04731892 0.04698798 0.04812725 0.05059527 0.05335718 0.05441854 0.0530033 0.05095071
 0.05088931 0.05343165 0.05685546 0.05920972 0.06012481 0.06068012 0.062012 0.06414834 0.06586643 0.06561785
 0.06306519 0.05994238 0.05882966 0.06062082 0.06366293 0.06578888 0.06660336 0.06723554 0.06836452 0.06916305
 0.06816041 0.06498912 0.06131621 0.05981146 0.06182353 0.06602967 0.06939264 0.06940447 0.06577615 0.0605086
 0.05633472 0.05482757 0.05597927 0.05924184 0.06413222 0.06968565 0.07420548 0.07620636 0.07548771 0.07306407
 0.0700037 0.06643491 0.06209231 0.05796158 0.05649097 0.05928447 0.06505291 0.07068549 0.0740241 0.07494163
 0.07413594 0.07180183 0.06783626 0.06313656 0.0600241 0.06044048 0.06360823 0.06646991 0.06688678 0.06559086
 0.0646169 0.064768 0.0653111 0.06553942 0.06579059 0.06687564 0.06891474 0.0710339 0.07220796 0.07218915
 0.07154944 0.07101889 0.07082291 0.07051598 0.0696102 0.06854737 0.06864388 0.0706441 0.07369161 0.07620775
 0.0774755 0.0779018 0.07795748 0.07735917 0.07547949 0.07251875 0.06999438 0.06961684 0.07163289 0.07466424
 0.07714208 0.07844121 0.0787403 0.07845102 0.07793443 0.0773884 0.07691224 0.0767566 0.07725621 0.0783527
 0.07948934 0.08016805 0.08035513 0.08022833 0.07982433 0.07912132 0.07829832 0.07772774 0.07770462 0.07822742
 0.07905187 0.07990637 0.080585 0.08090429 0.08076672 0.08030558 0.0798111 0.07946947 0.07929417 0.07930054
 0.07956631 0.08007121 0.08062133 0.08101033 0.08118437 0.08121105 0.08115488 0.08103032 0.08084477 0.08065605
 0.08057862 0.08070079 0.08097786 0.08126192 0.08147708 0.08169509 0.08197504 0.08220997 0.08223629 0.08205295
 0.08183514 0.08174554 0.08180317 0.08192667 0.08202727 0.0820265 0.08184345 0.08146296 0.08103554 0.08082522
 0.08099903 0.08150499 0.08216523 0.08280779 0.08329763 0.08355863 0.08362725 0.08361384 0.08357296 0.08346358
 0.08325331 0.0830189 0.08292343 0.08309364 0.08350646 0.08399931 0.08440138 0.08463985 0.08473608 0.08476987
 0.08485037 0.08503184 0.08523189 0.08530907 0.08524276 0.08516814 0.08521266 0.08535109 0.08544759 0.08541523
 0.08531301 0.08528367 0.08540522 0.08562367 0.08583368 0.08599634 0.08615878 0.08636793 0.08657904 0.08666908
 0.08656621 0.08634984 0.08617575 0.08611306 0.08611704 0.08615524 0.08627094 0.08648816 0.0867238 0.08685748
 0.08686741 0.08684839 0.08688986 0.08696999 0.08698884 0.08688645 0.0867036 0.0865375 0.08646329 0.08649345
 0.08658212 0.08665621 0.08665876 0.08658151 0.08646131 0.08634391 0.08625403 0.08620593 0.08623509 0.08638653
 0.08664347 0.08688205 0.08694158 0.08676766 0.08647587 0.08625275 0.08618642 0.08620063 0.08615211 0.08597399
 0.08571605 0.08546921 0.0852832 0.08515318 0.08505256 0.08496466 0.08490271 0.08491117 0.08502152 0.08518447
 0.0852699 0.08517475 0.08492672 0.08465441 0.08446656 0.08438577 0.08437426 0.08438115 0.08437982 0.08439167
 0.08445428 0.08454649 0.0845854 0.08452556 0.08442134 0.08436906 0.08442701 0.08459708 0.08482338 0.08499429
 0.08501355 0.08490109 0.0847813 0.08475386 0.08481291 0.08489943 0.08498278 0.08506706 0.08515483 0.08524447
 0.0853546 0.08552197 0.08576406 0.08605003 0.08631264 0.08649293 0.08658639 0.0866556 0.08678992 0.08703735
 0.08736719 0.08769759 0.08796258 0.08815898 0.08833194 0.08851686 0.08870752 0.08889189 0.0890975 0.08936767
 0.08970034 0.09004478 0.09036026 0.0906496 0.09093403 0.09122135 0.09150818 0.09180347 0.09214011 0.09254688
 0.09299448 0.09338763 0.09364386 0.09377921 0.09389777 0.09410451 0.09443435 0.09483179 0.09517713 0.09537335
 0.09544657 0.09553301 0.09573156 0.09600161 0.09624667 0.09646524 0.09675542 0.09717451 0.09764811 0.09803907
 0.09828079 0.09842632 0.09857724 0.09877671 0.09897663 0.09911022 0.09918089 0.09925464 0.09937476 0.09953034
 0.0997211 0.09999661 0.1003883 0.1008371 0.1012361 0.1015283 0.1017299 0.1018788 0.1019974 0.1020892
 0.1021436 0.1021571 0.1021636 0.1022165 0.102319 0.1024097 0.1024416 0.1024485 0.102503 0.1026407
 0.1028557 0.1031375 0.1034667 0.1037924 0.104073 0.1043404 0.1046673 0.10505 0.1053744 0.1055386
 0.10557 0.1055746 0.1056074 0.1056544 0.1057208 0.1058606 0.1061072 0.1064281 0.1067679 0.1071042
 0.1074452 0.1077909 0.1081109 0.1083534 0.1084777 0.1084902 0.1084529 0.1084537 0.1085624 0.1087958
 0.1091119 0.109438 0.1097154 0.1099155 0.1100203 0.1100217 0.1099623 0.1099459 0.1100591 0.1102728
 0.1104494 0.1104551 0.1102489 0.1098648 0.1093447 0.1087167 0.1080257 0.1073511 0.1067789 0.1063637
 0.1061277 0.1060945 0.1063035 0.106765 0.1074085 0.1081043 0.1087413 0.1092547 0.1095748 0.1096044
 0.1092919 0.1087014 0.107976 0.1072448 0.1065757 0.1059767 0.1054087 0.10483 0.1042808 0.1039206
 0.103953 0.1045042 0.1055607 0.1069812 0.1085436 0.1100169 0.1112505 0.1122267 0.1130255 0.1137354
 0.1144004 0.11504 0.1156808 0.1163359 0.1169699 0.1175274 0.1179969 0.1184186 0.11883 0.1192288
 0.1195864 0.1198764 0.1200998 0.120294 0.1204969 0.1206874 0.1207923 0.1207702 0.1206618 0.1205363
 0.1204139 0.1202556 0.1200058 0.1196364 0.1191838 0.118772 0.11859 0.1188092 0.1194891 0.1205431
 0.1218023 0.1231194 0.1244061 0.1255821 0.1265443 0.1272241 0.1276546 0.1279446 0.1281974 0.1284658
 0.1287628 0.1290795 0.1293965 0.1296962 0.1299759 0.1302536 0.1305594 0.1309077 0.1312704 0.1315901
 0.1318358 0.1320444 0.132293 0.1326275 0.1330186 0.1333941 0.1337165 0.1340143 0.1343255 0.1346332
 0.1348852 0.1350678 0.1352276 0.1354264 0.1357015 0.1360556 0.1364483 0.136804 0.1370644 0.1372399
 0.1373925 0.1375729 0.1377896 0.1380296 0.1382826 0.1385421 0.1388027 0.1390678 0.1393516 0.1396579
 0.1399578 0.1402027 0.1403711 0.1404953 0.1406342 0.1408212 0.1410443 0.1412709 0.1414866 0.141711
 0.1419764 0.1422864 0.1425976 0.1428496 0.1430162 0.1431251 0.1432287 0.1433656 0.1435454 0.1437596
 0.1439921 0.1442233 0.1444369 0.144631 0.1448195 0.1450149 0.1452158 0.1454156 0.1456176 0.1458336
 0.1460659 0.1463007 0.1465265 0.1467575 0.1470247 0.1473332 0.1476405 0.1478903 0.1480658 0.1481972
 0.1483253 0.1484707 0.148634 0.1488101 0.1489961 0.1491902 0.1493887 0.1495864 0.14978 0.1499715
 0.1501665 0.1503711 0.1505877 0.1508123 0.1510382 0.1512646 0.151496 0.1517299 0.1519526 0.1521531
 0.152337 0.1525226 0.1527227 0.1529323 0.1531337 0.153317 0.1534922 0.1536772 0.1538758 0.1540743
 0.154259 0.1544318 0.1546056 0.1547904 0.1549844 0.1551796 0.1553738 0.1555737 0.1557833 0.1559985
 0.1562125 0.1564227 0.1566287 0.1568295 0.1570257 0.1572199 0.1574145 0.1576109 0.1578083 0.1580037
 0.1581949 0.1583832 0.1585739 0.1587717 0.1589753 0.1591755 0.159363 0.1595388 0.1597129 0.1598942
 0.1600866 0.1602923 0.1605085 0.1607265 0.160942 0.1611606 0.1613871 0.1616161 0.1618406 0.1620619
 0.1622837 0.1625047 0.1627207 0.1629317 0.1631442 0.1633646 0.1635905 0.1638113 0.1640179 0.1642091
 0.1643868 0.1645527 0.1647122 0.1648735 0.1650414 0.1652159 0.1653953 0.1655797 0.1657719 0.1659739
 0.16618 0.1663797 0.1665707 0.1667608 0.1669563 0.1671562 0.1673579 0.1675583 0.1677548 0.1679493
 0.1681474 0.1683525 0.1685652 0.1687855 0.1690079 0.1692225 0.1694271 0.1696298 0.1698363 0.1700454
 0.1702553 0.1704653 0.1706751 0.1708874 0.1711045 0.1713201 0.1715265 0.1717253 0.1719223 0.1721213
 0.1723274 0.1725443 0.1727646 0.1729792 0.173191 0.1734049 0.1736176 0.1738288 0.1740463 0.1742724
 0.1744987 0.174717 0.1749253 0.1751273 0.1753331 0.1755474 0.175761 0.1759668 0.1761718 0.1763811
 0.1765895 0.1767968 0.1770046 0.1771947 0.1773188 0.1772671 0.1767688 0.1752784 0.1719633 0.1658785
 0.1563442 0.1433649 0.1277736 0.1109451 0.09429996 0.0789323 0.06549098 0.05425905 0.04529818 0.03854157
 0.03384849 0.03109606 0.03028067 0.03162286 0.03567486 0.04298836 0.05289029 0.06240901 0.06743363 0.06595528
 0.05998665 0.05372852 0.0500799 0.04924152 0.0499764 0.0512368 0.05269599 0.0545454 0.0571071 0.06046342
 0.06444567 0.06904449 0.07460807 0.08139981 0.08906979 0.09680178 0.1040165 0.1108229 0.1177462 0.1250896
 0.1326135 0.1397723 0.1461504 0.1516691 0.1565 0.1608751 0.1649563 0.1688187 0.1724977 0.1759884
 0.1791693 0.1817717 0.1835079 0.18429 0.1843356 0.1840495 0.1837839 0.1836982 0.1838032 0.1840713
 0.1844822 0.1850158 0.1856542 0.1863836 0.1871804 0.1880076 0.1888295 0.1896221 0.1903729 0.1910802
 0.1917465 0.1923671 0.1929326 0.1934412 0.1938995 0.1943167 0.1947048 0.1950771 0.1954408 0.1957954
 0.1961377 0.1964608 0.1967557 0.1970197 0.1972605 0.1974896 0.1977142 0.1979355 0.1981491 0.1983507
 0.1985441 0.1987382 0.1989367 0.1991383 0.1993431 0.1995503 0.199754 0.1999528 0.2001542 0.2003648
 0.20058 0.2007909 0.2009936 0.2011878 0.2013733 0.2015513 0.2017247 0.2018975 0.202073 0.2022544
 0.2024439 0.2026423 0.2028467 0.2030511 0.2032541 0.2034647 0.2036902 0.2039248 0.2041566 0.2043825
 0.2046035 0.2048172 0.2050237 0.2052295 0.2054339 0.2056209 0.205778 0.2059202 0.2060836 0.2062941
 0.2065408 0.2067856 0.2070016 0.2071942 0.2073824 0.2075736 0.2077606 0.2079325 0.2080877 0.2082487
 0.2084525 0.20871 0.2089896 0.2092559 0.2095025 0.2097373 0.2099654 0.2101953 0.2104292 0.2106404
 0.2107947 0.2109069 0.211052 0.2113031 0.2116589 0.2120395 0.2123606 0.2126071 0.2128241 0.2130584
 0.2133269 0.213602 0.2137935 0.2138103 0.2137024 0.2136862 0.2139514 0.2144736 0.2150662 0.2155712
 0.2159535 0.2162547 0.2165147 0.2167335 0.2168733 0.2169032 0.2168682 0.216913 0.2171851 0.2176812
 0.2182332 0.2186788 0.2189931 0.2192307 0.2194301 0.2196056 0.2197186 0.2196298 0.2192438 0.2187671
 0.2186579 0.2191871 0.2201338 0.2210179 0.2215728 0.2218889 0.2221523 0.2224155 0.222632 0.2226992
 0.222373 0.2214158 0.2200745 0.2191972 0.2195324 0.2209758 0.2227286 0.2240908 0.2248893 0.2252939
 0.2255237 0.2257129 0.2258075 0.2255524 0.2247796 0.2238109 0.2233836 0.223967 0.2252305 0.2263943
 0.227025 0.2272726 0.2274581 0.2277119 0.2278859 0.2275229 0.2261218 0.223877 0.2220451 0.2220641
 0.2241471 0.2270215 0.2291859 0.2302023 0.230582 0.2306754 0.2301549 0.2286075 0.2261605 0.2234205
 0.2212729 0.2207653 0.2224212 0.2253654 0.2278126 0.2288288 0.2291247 0.2298801 0.2313314 0.2327735
 0.2334756 0.2332531 0.2323423 0.2309887 0.2293264 0.2277524 0.2271561 0.228285 0.230831 0.2335419
 0.2353808 0.2363124 0.2367497 0.236327 0.2336609 0.2280098 0.2213395 0.2177721 0.2199471 0.2262651
 0.2326069 0.2363826 0.2379524 0.2386944 0.2391594 0.2389118 0.2367818 0.2315085 0.2237214 0.2171806
 0.2162297 0.2214983 0.2291952 0.2346514 0.2354956 0.2318989 0.2257454 0.2200777 0.2178488 0.2201272
 0.2256328 0.2320002 0.2371986 0.2400926 0.2404286 0.2387179 0.2361963 0.2345259 0.2345883 0.2351717
 0.2338937 0.2302106 0.2263268 0.2239588 0.2216787 0.2175506 0.2133862 0.2135477 0.2192826 0.2266377
 0.2309021 0.2313785 0.2305262 0.2294739 0.2260851 0.2180342 0.2072158 0.1998293 0.2009666 0.2093275
 0.2183761 0.2227425 0.2224931 0.2212133 0.221223 0.2212095 0.2180754 0.2109846 0.2034217 0.2002663
 0.2025988 0.2067313 0.2085708 0.2068817 0.201848 0.1937589 0.1853633 0.1827223 0.1901022 0.2047537
 0.2190576 0.2267945 0.2254218 0.2147201 0.197687 0.1823721 0.1779582 0.1865317 0.2005408 0.2097383
 0.2093093 0.2007296 0.1873942 0.1723013 0.1594437 0.154246 0.1603291 0.1758424 0.1934568 0.203983
 0.2014549 0.1878018 0.1733126 0.1692313 0.177487 0.1893285 0.1951144 0.1930622 0.1878818 0.1847354
 0.1862714 0.1921247 0.1992945 0.2049708 0.2087838 0.2096306 0.2026527 0.1850675 0.1639122 0.1514132
 0.1522913 0.1613419 0.1732075 0.1871933 0.2008911 0.2068727 0.2010591 0.190436 0.1871057 0.1954395
 0.2083383 0.2159227 0.2153139 0.211162 0.2084651 0.2072481 0.2050476 0.2026681 0.204387 0.2120543
 0.221861 0.2285886 0.2310348 0.2315481 0.2320461 0.2325561 0.232555 0.231849 0.2305045 0.2289746
 0.2279561 0.2276042 0.2273903 0.2269057 0.2258295 0.2227012 0.2152367 0.2035331 0.1921097 0.1863272
 0.1867017 0.1892654 0.1914679 0.1936703 0.1936457 0.1850169 0.165677 0.1447156 0.1358111 0.144014
 0.1619833 0.178361 0.1864784 0.1849362 0.1742139 0.1568703 0.1402537 0.134203 0.1430256 0.1613637
 0.179921 0.1934723 0.2014601 0.2035577 0.1986872 0.1881763 0.1770166 0.1710069 0.1732263 0.1826854
 0.1946558 0.2018838 0.1981412 0.1844164 0.1716422 0.1726284 0.1886261 0.2072446 0.2163808 0.216475
 0.2155939 0.216887 0.2170306 0.2150443 0.2158167 0.2234027 0.235061 0.2439618 0.2451884 0.2376747
 0.2235618 0.2086884 0.2010714 0.2044406 0.2139237 0.2212846 0.2228644 0.219095 0.2096427 0.1954426
 0.1838421 0.184184 0.1969813 0.2126986 0.222583 0.226638 0.2296483 0.2329543 0.2328334 0.2261462
 0.2155783 0.2079919 0.2076434 0.2124608 0.2175635 0.2204121 0.2208477 0.2181787 0.2116073 0.2035432
 0.1996366 0.2038677 0.214404 0.2252841 0.231727 0.2331201 0.2316285 0.2293797 0.2270294 0.2239335
 0.219575 0.2154069 0.2145647 0.2185192 0.2247386 0.2292959 0.2313691 0.2335105 0.2376456 0.2424277
 0.2448793 0.2436387 0.2402486 0.2378029 0.2384593 0.241728 0.2448378 0.2451018 0.2424735 0.2398316
 0.2403292 0.2443902 0.2496565 0.2536732 0.2558826 0.2571117 0.25814 0.2590183 0.2590291 0.2572274
 0.2537881 0.2507965 0.2507726 0.2541706 0.2589447 0.262664 0.264479 0.2649822 0.2648616 0.2641821
 0.2627822 0.2609303 0.2593556 0.2586747 0.2589449 0.2597921 0.2607999 0.2617016 0.2623743 0.2628171
 0.2631049 0.2632971 0.2634163 0.2635008 0.2635862 0.263626 0.2635415 0.2633843 0.2633498 0.2635603
 0.2639076 0.2641718 0.2642221 0.264015 0.263477 0.2625321 0.2612418 0.2597842 0.2582555 0.2566076
 0.2548874 0.2534937 0.253053 0.2539447 0.2559482 0.2583812 0.2605634 0.2621489 0.2631197 0.2636153
 0.2638125 0.2638683 0.2638736 0.2638357 0.2637203 0.2635112 0.2632263 0.2628911 0.2625192 0.2621279
 0.2617566 0.2614441 0.2611819 0.260909 0.2605608 0.2601157 0.2595966 0.2590453 0.2584917 0.2579262
 0.2572978 0.2565523 0.2556791 0.2547236 0.2537661 0.2528845 0.2521077 0.2513905 0.250653 0.2498471
 0.2489607 0.2479691 0.2468472 0.2456545 0.2445491 0.2436624 0.2429821 0.2423864 0.2417584 0.2410354
 0.240188 0.2392157 0.2381565 0.2370618 0.2359543 0.2348242 0.2336489 0.2324041 0.2310714 0.2296495
 0.2281496 0.2265807 0.2249577 0.2233095 0.2216435 0.2198939 0.2179256 0.2155937 0.2127902 0.209448
 0.2055403 0.2011103 0.1963004 0.1913292 0.1864173 0.1817296 0.1773828 0.1734806 0.1701195 0.1673689
 0.1652688 0.1638466 0.1631261 0.1631207 0.1638219 0.1651941 0.1671701 0.1696456 0.1724771 0.1754903
 0.1785029 0.1813557 0.1839524 0.1862953 0.1884688 0.1905529 0.1925476 0.1943919 0.1960381 0.1974804
 0.198723 0.1997611 0.2006014 0.2012801 0.2018485 0.2023454 0.2027855 0.2031682 0.2034887 0.2037435
 0.2039397 0.2041032 0.2042657 0.2044435 0.2046384 0.2048575 0.2051168 0.2054308 0.205809 0.2062531
 0.2067498 0.2072792 0.2078386 0.2084381 0.209074 0.2097315 0.2104237 0.2112052 0.212136 0.2132418
 0.2145045 0.2158749 0.2172823 0.2186393 0.2198545 0.2208558 0.2216078 0.2221075 0.2223735 0.2224433
 0.2223648 0.2221737 0.221883 0.221499 0.2210387 0.2205226 0.2199586 0.2193438 0.2186815 0.2179905
 0.2172937 0.2166026 0.2159158 0.2152325 0.2145594 0.2139053 0.2132742 0.2126627 0.2120603 0.2114544
 0.2108397 0.2102225 0.209615 0.2090279 0.2084613 0.207893 0.2072784 0.2065715 0.2057506 0.2048202
 0.2037913 0.2026697 0.2014626 0.2001824 0.1988355 0.1974147 0.1959109 0.1943289 0.1926851 0.1909871
 0.1892146 0.1873296 0.1853234 0.1832597 0.1812534 0.1793952 0.1777011 0.1761323 0.1746453 0.1732223
 0.1718652 0.1705737 0.1693356 0.1681433 0.167009 0.1659502 0.1649652 0.1640365 0.1631563 0.1623379
 0.1616056 0.1609727 0.1604306 0.1599618 0.1595606 0.1592291 0.1589684 0.1587896 0.1587165 0.1587474
 0.158825 0.1588685 0.1588307 0.1587199 0.1585821 0.1584658 0.1583902 0.1583442 0.1583067 0.1582463
 0.1581005 0.1577806 0.1572025 0.1563109 0.1550931 0.1535826 0.1518495 0.1499936 0.1481497 0.1464632
 0.1450297 0.1438723 0.1429756 0.1423061 0.1418045 0.1414049 0.1410843 0.1408825 0.1408674 0.1410524
 0.1413292 0.1415271 0.1415802 0.1416026 0.1417706 0.1421735 0.1427843 0.1435095 0.1442426 0.1449059
 0.1454561 0.1458574 0.1460945 0.1462041 0.1462385 0.1462049 0.1460855 0.1458873 0.1456308 0.1453247
 0.1449734 0.1445729 0.1441017 0.1435428 0.1428973 0.1421674 0.1413567 0.1404698 0.1394697 0.1383004
 0.1370232 0.1358795 0.1351571 0.1350212 0.1354519 0.1362713 0.1372612 0.1383071 0.1393528 0.1402073
 0.1406082 0.1406208 0.1408219 0.1418732 0.143892 0.146327 0.1484517 0.149887 0.1506275 0.1507522
 0.1503048 0.1493476 0.1479184 0.1459832 0.1435623 0.1407985 0.1378314 0.1347647 0.1317781 0.1290848
 0.126794 0.1249333 0.1235078 0.1225519 0.1221809 0.1220133 0.1201506 0.1141593 0.1048225 0.09781978
 0.09894895 0.1076118 0.1172387 0.122231 0.1224123 0.1207428 0.1192756 0.1183254 0.1177878 0.1178015
 0.1184875 0.1197009 0.1210645 0.1221891 0.1229106 0.1232644 0.1232051 0.1223591 0.119973 0.1151911
 0.1077465 0.09853809 0.0893231 0.081701 0.07639042 0.0732528 0.07166275 0.07087073 0.07035403 0.07005561
 0.07028441 0.07134633 0.07328421 0.07594117 0.07912348 0.08257394 0.08588563 0.08866654 0.09082467 0.09254718
 0.09397787 0.09504144 0.09559593 0.09563102 0.0952732 0.09467694 0.09395598 0.09316371 0.09227153 0.09119573
 0.08994266 0.0887338 0.08787692 0.08748049 0.08738554 0.08738159 0.08737615 0.08735708 0.08731854 0.08725493
 0.08717197 0.08711657 0.08720405 0.08753618 0.0880613 0.0885822 0.08892262 0.08905581 0.08907455 0.08903079
 0.08880134 0.08821641 0.08738074 0.08667348 0.08625372 0.08575974 0.08476485 0.0834139 0.08233775 0.08197623
 0.08219457 0.08253928 0.0826683 0.08251502 0.08224204 0.08215132 0.0824886 0.08315952 0.08371076 0.0837474
</values></Ydata></ScRf><Data_Parameters_AB><parameter name="DPF">1</parameter><parameter name="NPT">3497</parameter><parameter name="FXV">3996</parameter><parameter name="LXV">500</parameter><parameter name="CSF">1</parameter><parameter name="MXY">0.380776792764664</parameter><parameter name="MNY">-0.0828650444746017</parameter><parameter name="DAT">02/06/2022</parameter><parameter name="TIM">12:02:30.538 (GMT+2)</parameter><parameter name="DXU">WN</parameter></Data_Parameters_AB><AB__Qtest><MainReport name="Quality Test Report"><Header><Line><Legend>Test result ok/not ok [1/0]: </Legend><Value>0</Value></Line><Line><Legend>Method file: </Legend><Value>C:\Users\Public\Documents\Bruker\OPUS_8.2.28\QT\IRBT_v3_default.QT</Value></Line></Header><Matrix><Line><Legend></Legend><Legend>min</Legend><Legend>max</Legend><Legend>measured</Legend></Line><Line><Value>Absorption (X-Range 1):</Value><Value>0.400000</Value><Value>2.000000</Value><Value>0.271878</Value></Line><Line><Value>Noise (X-Range 4):</Value><Value></Value><Value>0.000300</Value><Value>0.000046</Value></Line><Line><Value>Signal/Noise (X-Range 2):</Value><Value>200.000000</Value><Value></Value><Value>93.393639</Value></Line><Line><Value>Signal/Noise (X-Range 3):</Value><Value>40.000000</Value><Value></Value><Value>96.548924</Value></Line><Line><Value>Water vapour (X-Range 5):</Value><Value></Value><Value>0.000300</Value><Value>0.000077</Value></Line><Line><Value>Signal/Water (X-Range 2):</Value><Value>100.000000</Value><Value></Value><Value>55.901344</Value></Line><Line><Value>Signal/Water (X-Range 3):</Value><Value>20.000000</Value><Value></Value><Value>57.789960</Value></Line><Line><Value>Fringes (X-Range 6):</Value><Value></Value><Value>0.000100</Value><Value>0.000053</Value></Line></Matrix></MainReport></AB__Qtest><Data_Parameters_ScSm><parameter name="DPF">1</parameter><parameter name="NPT">1814</parameter><parameter name="FXV">3996.33169228125</parameter><parameter name="LXV">499.541461535156</parameter><parameter name="CSF">1</parameter><parameter name="MXY">0.276805371046066</parameter><parameter name="MNY">0.034635853022337</parameter><parameter name="DAT">02/06/2022</parameter><parameter name="TIM">12:02:30.538 (GMT+2)</parameter><parameter name="DXU">WN</parameter></Data_Parameters_ScSm><Data_Parameters_ScRf><parameter name="DPF">1</parameter><parameter name="NPT">1820</parameter><parameter name="FXV">4004.04661832813</parameter><parameter name="LXV">495.683998511719</parameter><parameter name="CSF">1</parameter><parameter name="MXY">0.264982163906097</parameter><parameter name="MNY">0.0302806682884693</parameter><parameter name="DAT">02/06/2022</parameter><parameter name="TIM">12:02:04.470 (GMT+2)</parameter><parameter name="DXU">WN</parameter></Data_Parameters_ScRf><Optic_Parameters_Rf><parameter name="APR">0</parameter><parameter name="APT">Open</parameter><parameter name="BMS">KBr</parameter><parameter name="DTC">RT-DLaTGS_IR-Biotyper [Microplate reader]</parameter><parameter name="HPF">0</parameter><parameter name="LPF">10.0</parameter><parameter name="LPV">4000</parameter><parameter name="PGR">0</parameter><parameter name="RCH">Module port</parameter><parameter name="RDX">0</parameter><parameter name="SRC">MIR</parameter><parameter name="VEL">10.0</parameter><parameter name="SON">Off</parameter></Optic_Parameters_Rf><Acquisition_Parameters_Rf><parameter name="ADT">1</parameter><parameter name="AQM">DD</parameter><parameter name="CFE">0</parameter><parameter name="COR">0</parameter><parameter name="DEL">0</parameter><parameter name="DLY">0</parameter><parameter name="HFW">8000</parameter><parameter name="LFW">0</parameter><parameter name="NSR">32</parameter><parameter name="PLF">AB</parameter><parameter name="RES">6</parameter><parameter name="RGN">-1</parameter><parameter name="STR">0</parameter><parameter name="TCL">MakeCompatibleScalar (0, {WSV=1.000000, ARV=0});</parameter><parameter name="TDL">37</parameter><parameter name="RPO">0</parameter></Acquisition_Parameters_Rf><FT_-_Parameters_Rf><parameter name="APF">B3</parameter><parameter name="HFQ">500</parameter><parameter name="LFQ">4000</parameter><parameter name="NLI">0</parameter><parameter name="PHR">24</parameter><parameter name="PHZ">ML</parameter><parameter name="SPZ">NO</parameter><parameter name="ZFF">1</parameter></FT_-_Parameters_Rf><Optic_Parameters_><parameter name="APR">0</parameter><parameter name="APT">Open</parameter><parameter name="BMS">KBr</parameter><parameter name="CHN">Module port</parameter><parameter name="DTC">RT-DLaTGS_IR-Biotyper [Microplate reader]</parameter><parameter name="HPF">0</parameter><parameter name="LPF">10.0</parameter><parameter name="LPV">4000</parameter><parameter name="PGN">0</parameter><parameter name="RDX">0</parameter><parameter name="SRC">MIR</parameter><parameter name="VEL">10.0</parameter><parameter name="SON">Off</parameter></Optic_Parameters_><FT_-_Parameters_><parameter name="APF">B3</parameter><parameter name="HFQ">500</parameter><parameter name="LFQ">4000</parameter><parameter name="NLI">0</parameter><parameter name="PHR">24</parameter><parameter name="PHZ">ML</parameter><parameter name="SPZ">NO</parameter><parameter name="ZFF">1</parameter></FT_-_Parameters_><Acquisition_Parameters_><parameter name="ADT">1</parameter><parameter name="AQM">DD</parameter><parameter name="CFE">0</parameter><parameter name="COR">0</parameter><parameter name="DEL">0</parameter><parameter name="DLY">0</parameter><parameter name="HFW">8000</parameter><parameter name="LFW">0</parameter><parameter name="NSS">32</parameter><parameter name="PLF">AB</parameter><parameter name="RES">6</parameter><parameter name="SOT">0</parameter><parameter name="TCL">MakeCompatibleScalar (0, {WSV=1.000000, ARV=0});</parameter><parameter name="TDL">37</parameter><parameter name="SPO">0</parameter><parameter name="SGN">-1</parameter></Acquisition_Parameters_><Instrument_Parameters_Rf><parameter name="HFL">15800.168544</parameter><parameter name="LFL">0</parameter><parameter name="LWN">15800.168544</parameter><parameter name="ABP">32197</parameter><parameter name="SSP">1</parameter><parameter name="ARG">2</parameter><parameter name="ASG">2</parameter><parameter name="ASS">32</parameter><parameter name="GFW">16</parameter><parameter name="GBW">16</parameter><parameter name="BFW">0</parameter><parameter name="BBW">0</parameter><parameter name="PKA">7270</parameter><parameter name="PKL">4996</parameter><parameter name="PRA">7449</parameter><parameter name="PRL">5001</parameter><parameter name="P2A">1</parameter><parameter name="P2L">1</parameter><parameter name="P2R">1</parameter><parameter name="P2K">1</parameter><parameter name="DAQ">0</parameter><parameter name="AG2">1</parameter><parameter name="SSM">1</parameter><parameter name="RSN">26127</parameter><parameter name="CRR">0</parameter><parameter name="SRT">1654171324.47</parameter><parameter name="DUR">19.6379852294922</parameter><parameter name="TSC">28.8</parameter><parameter name="MVD">0.24929390847683</parameter><parameter name="AN1">0.225825784018944</parameter><parameter name="AN2">0</parameter><parameter name="VSN">2.485 Apr  4 2017</parameter><parameter name="SRN">0085</parameter><parameter name="CAM">0</parameter><parameter name="INS">IR-Biotyper</parameter><parameter name="FOC">69</parameter><parameter name="RDY">1</parameter><parameter name="ARS">32</parameter></Instrument_Parameters_Rf><Sample_Parameters_><parameter name="BLD"></parameter><parameter name="CNM">Admin</parameter><parameter name="CPY"></parameter><parameter name="DPM"></parameter><parameter name="EXP">IRBT_v3_32Scans.XPM</parameter><parameter name="LCT"></parameter><parameter name="SFM">Microplate, HTS-XT</parameter><parameter name="SNM">220602-1054_CLA33F (D_18)_A8_2d4bcbdb-0d5f-4df2-9941-96e11a6048f8.0</parameter><parameter name="XPP">C:\Users\Public\Documents\Bruker\OPUS_8.2.28\XPM</parameter><parameter name="IST">OK</parameter><parameter name="CPG">1252</parameter><parameter name="UID">4d03c6bc-1431-4636-b975-124a2c9fe0f2</parameter></Sample_Parameters_><Instrument_Parameters_><parameter name="HFL">15800.168544</parameter><parameter name="LFL">0</parameter><parameter name="LWN">15800.168544</parameter><parameter name="ABP">32197</parameter><parameter name="SSP">1</parameter><parameter name="ASG">2</parameter><parameter name="ARG">2</parameter><parameter name="ASS">32</parameter><parameter name="GFW">16</parameter><parameter name="GBW">16</parameter><parameter name="BFW">0</parameter><parameter name="BBW">0</parameter><parameter name="PKA">7124</parameter><parameter name="PKL">4988</parameter><parameter name="PRA">7426</parameter><parameter name="PRL">4993</parameter><parameter name="P2A">1</parameter><parameter name="P2L">1</parameter><parameter name="P2R">1</parameter><parameter name="P2K">1</parameter><parameter name="DAQ">0</parameter><parameter name="AG2">1</parameter><parameter name="SSM">1</parameter><parameter name="RSN">13689</parameter><parameter name="CRR">0</parameter><parameter name="SRT">1654171350.538</parameter><parameter name="DUR">19.6369934082031</parameter><parameter name="TSC">28.8</parameter><parameter name="MVD">0.231992691755295</parameter><parameter name="AN1">0.225804039080026</parameter><parameter name="AN2">0</parameter><parameter name="VSN">2.485 Apr  4 2017</parameter><parameter name="SRN">0085</parameter><parameter name="CAM">0</parameter><parameter name="INS">IR-Biotyper</parameter><parameter name="FOC">69</parameter><parameter name="RDY">1</parameter></Instrument_Parameters_><History/></OPUSDataFile>
