<?xml version="1.0" encoding="UTF-8" ?>
<OPUSDataFile><AB><Ydata ylabel="Absorbance Units"><values byteorder="INTEL" format="FLOAT32" numvalues="3497"> -0.07172485 -0.07172119 -0.07173377 -0.0717637 -0.07179523 -0.07182751 -0.07183981 -0.0718323 -0.0718008 -0.07174845
 -0.07169106 -0.07163145 -0.07158843 -0.07156128 -0.07155767 -0.07157543 -0.07161411 -0.07167272 -0.07175111 -0.07184513
 -0.07195441 -0.0720662 -0.07217557 -0.07226684 -0.07233195 -0.07236768 -0.072369 -0.07235192 -0.07231659 -0.07228896
 -0.07227179 -0.07227948 -0.07231289 -0.07235719 -0.07241009 -0.07243685 -0.07243764 -0.07239239 -0.0723097 -0.07220764
 -0.07209735 -0.07201628 -0.07196438 -0.0719626 -0.07199465 -0.07205193 -0.07211527 -0.07216418 -0.07219667 -0.07220268
 -0.07219855 -0.07218825 -0.07218355 -0.07219055 -0.07220104 -0.07221518 -0.07222018 -0.07221384 -0.07220189 -0.07218453
 -0.07218163 -0.07219353 -0.0722304 -0.07228953 -0.07235982 -0.07243843 -0.07250851 -0.07257101 -0.07261949 -0.07265705
 -0.07268563 -0.07270847 -0.07272985 -0.07275216 -0.07277957 -0.07280998 -0.07284525 -0.07287586 -0.07289972 -0.07290544
 -0.07288855 -0.07284896 -0.07278398 -0.0727108 -0.07262977 -0.07256892 -0.07252987 -0.07253674 -0.07258926 -0.07269055
 -0.07283517 -0.07299362 -0.07315708 -0.07327509 -0.0733491 -0.07335208 -0.07330272 -0.07321885 -0.0731189 -0.07303303
 -0.07296573 -0.07293281 -0.07292493 -0.07294267 -0.0729717 -0.0730055 -0.07304054 -0.07307323 -0.07311182 -0.07315776
 -0.07321313 -0.07327928 -0.07334291 -0.07340334 -0.07344459 -0.07346684 -0.07346886 -0.07345325 -0.07343494 -0.07341687
 -0.0734188 -0.07343963 -0.07348972 -0.07355879 -0.07363617 -0.07370813 -0.07375143 -0.07376705 -0.07374504 -0.07369996
 -0.07363781 -0.07356723 -0.07349308 -0.07341836 -0.07334209 -0.07327964 -0.07323084 -0.07322699 -0.07327177 -0.0733835
 -0.07356408 -0.07375186 -0.07394025 -0.07400857 -0.07396729 -0.07382035 -0.07359177 -0.07337784 -0.07318327 -0.07306963
 -0.07302614 -0.07306743 -0.07316698 -0.0733048 -0.07344373 -0.07354398 -0.07359293 -0.07356234 -0.07349072 -0.07338375
 -0.07328507 -0.07321267 -0.07316135 -0.07313535 -0.07310569 -0.07306819 -0.07302333 -0.07297056 -0.07294402 -0.07294494
 -0.07299974 -0.07310369 -0.07324161 -0.07340331 -0.07354081 -0.0736505 -0.0736962 -0.07368714 -0.0736222 -0.07351258
 -0.07336994 -0.07320586 -0.07302972 -0.07286166 -0.07271248 -0.0726061 -0.07255605 -0.07256819 -0.0726526 -0.07277672
 -0.07294051 -0.07308821 -0.07321358 -0.07328311 -0.07329405 -0.07325374 -0.07316382 -0.0730521 -0.07291972 -0.07278769
 -0.07265522 -0.07252949 -0.07241143 -0.07230563 -0.07221637 -0.07215421 -0.07211891 -0.07211871 -0.0721387 -0.07217173
 -0.07219793 -0.07220022 -0.0721809 -0.07213271 -0.07208 -0.07202885 -0.07199159 -0.07197347 -0.07196339 -0.07196057
 -0.07195742 -0.0719533 -0.07195448 -0.07196101 -0.07197454 -0.07199339 -0.07200613 -0.07201247 -0.07200342 -0.07198383
 -0.07196071 -0.07194065 -0.07193945 -0.07195815 -0.07200713 -0.0720768 -0.07216395 -0.07225593 -0.07234143 -0.07242442
 -0.07250158 -0.07258847 -0.0726917 -0.07280571 -0.07293423 -0.07304333 -0.07312968 -0.07317054 -0.07316419 -0.07310344
 -0.07298794 -0.07280756 -0.07256672 -0.07228687 -0.07198041 -0.07170753 -0.07147729 -0.07134765 -0.07131062 -0.07139045
 -0.07154366 -0.07173166 -0.07190436 -0.07199404 -0.07201197 -0.07193796 -0.07182068 -0.0716764 -0.07153464 -0.07140991
 -0.07129902 -0.07120509 -0.07111058 -0.07101313 -0.07090931 -0.07079843 -0.07069517 -0.07060049 -0.07053214 -0.07049035
 -0.07048759 -0.07051915 -0.07057802 -0.07064857 -0.07068455 -0.07067889 -0.07058739 -0.07043811 -0.0702469 -0.07004296
 -0.06986389 -0.06970377 -0.06957519 -0.06944695 -0.06930815 -0.06914067 -0.06893267 -0.06870078 -0.06844454 -0.06819044
 -0.06794208 -0.06770962 -0.06749418 -0.06728911 -0.06709383 -0.06689657 -0.06669722 -0.06648973 -0.06627454 -0.06604995
 -0.06581683 -0.06557498 -0.06532907 -0.0650864 -0.06485339 -0.06464365 -0.06445306 -0.06428836 -0.06412593 -0.06395585
 -0.06375258 -0.06350095 -0.06319673 -0.0628355 -0.06241956 -0.06194865 -0.06142448 -0.06084599 -0.06022828 -0.05957199
 -0.05889979 -0.05821311 -0.05753669 -0.05687302 -0.05625318 -0.05567712 -0.05516562 -0.05470791 -0.05428782 -0.05389095
 -0.05348 -0.05305566 -0.05260246 -0.05212879 -0.05164187 -0.05113211 -0.05059863 -0.05002286 -0.04939191 -0.04871547
 -0.04799086 -0.0472432 -0.04647695 -0.04570766 -0.04493782 -0.04417452 -0.0434185 -0.04266954 -0.04192773 -0.04119384
 -0.04046943 -0.03976785 -0.03908874 -0.03844322 -0.03781799 -0.0371857 -0.03652729 -0.03578481 -0.03497424 -0.03408373
 -0.0331583 -0.03223535 -0.03134289 -0.03051327 -0.02974254 -0.02904446 -0.02837664 -0.02773299 -0.02706401 -0.02635511
 -0.02560621 -0.0248135 -0.02400723 -0.02318972 -0.02236549 -0.02153395 -0.02067678 -0.01979534 -0.018891 -0.01796862
 -0.01705061 -0.01613865 -0.0152489 -0.01438053 -0.01354021 -0.01272435 -0.01193444 -0.01115683 -0.0103812 -0.009592884
 -0.008776298 -0.007936444 -0.007068831 -0.006192397 -0.005312259 -0.004439109 -0.003577086 -0.002722807 -0.001876884 -0.001029555
 -0.0001800565 0.0006752371 0.001535886 0.002389556 0.003235206 0.004056592 0.004857795 0.005645834 0.006429686 0.007240932
 0.008078302 0.00895998 0.009865935 0.01078011 0.01167742 0.0125263 0.01332149 0.01404057 0.01472178 0.0153694
 0.01604255 0.01676426 0.01754727 0.01840356 0.01929419 0.02021633 0.02113487 0.02204664 0.02294584 0.02383225
 0.02470515 0.0255635 0.02639641 0.02720583 0.02799311 0.02876407 0.02953764 0.03031352 0.03110063 0.03189504
 0.0326926 0.03349758 0.03431322 0.03514072 0.03598656 0.03683328 0.03767609 0.03849669 0.03928574 0.0400479
 0.04078107 0.04150138 0.04221089 0.0429172 0.04362109 0.04432408 0.04502623 0.04572843 0.04643038 0.04712977
 0.04782685 0.04852078 0.04921343 0.04990968 0.05061104 0.05132314 0.05204542 0.05278084 0.0535242 0.05427456
 0.05501842 0.05574764 0.0564504 0.05711564 0.0577535 0.0583616 0.05896591 0.059572 0.06019213 0.06082956
 0.06147924 0.06214101 0.0628116 0.06349077 0.06417482 0.06486235 0.06553952 0.0662057 0.06684924 0.06747338
 0.0680812 0.06867658 0.06926896 0.06985955 0.07045448 0.07105202 0.07165436 0.07225425 0.07284902 0.07342826
 0.07398555 0.07451912 0.07502468 0.07551481 0.07598985 0.07646903 0.07695418 0.07746503 0.07800334 0.07857946
 0.0791932 0.07983081 0.080489 0.08113277 0.0817605 0.08234449 0.08288923 0.08339218 0.08386123 0.08431011
 0.08474618 0.08518598 0.08563156 0.0860929 0.08656265 0.08703943 0.08751501 0.08798319 0.08844801 0.08890858
 0.08937366 0.08984652 0.09032243 0.09080229 0.09127046 0.09172569 0.09215961 0.09257227 0.09297237 0.0933622
 0.09376572 0.09418475 0.0946435 0.09513588 0.09566049 0.09620128 0.09672515 0.09722108 0.09765441 0.09803664
 0.09836112 0.09865735 0.09894242 0.09923923 0.0995662 0.09991966 0.1003057 0.1007003 0.1010996 0.1014862
 0.101856 0.102213 0.102557 0.1028974 0.1032342 0.1035647 0.1038887 0.1042044 0.1045143 0.1048304
 0.1051525 0.105488 0.1058298 0.1061659 0.1064923 0.1067948 0.1070817 0.1073549 0.1076264 0.107907
 0.1081977 0.1085045 0.1088144 0.1091262 0.1094228 0.1096994 0.1099525 0.1101791 0.1103964 0.1106053
 0.1108228 0.1110493 0.111275 0.1114977 0.1116919 0.1118586 0.1119886 0.1120889 0.1121745 0.1122539
 0.1123507 0.1124709 0.1126346 0.1128386 0.1130908 0.1133755 0.1136849 0.1140061 0.1143272 0.1146563
 0.1149926 0.1153494 0.1157338 0.1161267 0.11653 0.1168921 0.117209 0.117446 0.1176023 0.1176979
 0.1177375 0.1177743 0.1178085 0.1178717 0.1179568 0.1180557 0.1181691 0.1182891 0.1184309 0.1186164
 0.1188496 0.1191533 0.1194928 0.1198565 0.1201979 0.1204852 0.1207174 0.1208782 0.1210202 0.1211502
 0.1213199 0.1215411 0.1218117 0.1221351 0.1224561 0.122772 0.1230209 0.1232039 0.1233031 0.1233287
 0.12332 0.1232899 0.1233007 0.1233568 0.1235008 0.1237215 0.124026 0.1243866 0.124782 0.1251775
 0.1255408 0.1258571 0.1261041 0.1263063 0.1264617 0.126616 0.1267778 0.1269831 0.1272382 0.1275639
 0.1279628 0.128445 0.1290107 0.1296401 0.1303271 0.1310043 0.1316613 0.1322074 0.1326419 0.1329066
 0.1330239 0.1330047 0.1328923 0.1327525 0.1326222 0.1325712 0.132593 0.1327172 0.132886 0.1330855
 0.1332453 0.133337 0.1333288 0.1332028 0.1329839 0.1326701 0.1323138 0.1319194 0.1315204 0.1311183
 0.1307128 0.1303036 0.129885 0.12946 0.1290407 0.1286303 0.1282472 0.1278876 0.1275554 0.1272383
 0.1269236 0.1265899 0.1262141 0.1257704 0.125231 0.1245892 0.123826 0.1229772 0.1220437 0.1210877
 0.1201224 0.1191938 0.118312 0.1174883 0.1167256 0.1160098 0.1153399 0.1146844 0.1140419 0.1133823
 0.11271 0.1120306 0.1113542 0.1107212 0.1101299 0.1096033 0.1091174 0.1086471 0.1081698 0.1076457
 0.1070835 0.1064697 0.1058428 0.1052153 0.104627 0.1040963 0.1036369 0.1032609 0.1029396 0.1026753
 0.1024031 0.1021183 0.1017636 0.1013363 0.1008334 0.1002595 0.09966254 0.0990473 0.09846595 0.09791625
 0.09741965 0.09696825 0.09655603 0.09617415 0.09580719 0.09544752 0.0950813 0.09470458 0.09430929 0.09389746
 0.09346634 0.09302541 0.09257562 0.09213194 0.09169761 0.09128454 0.09089609 0.09052939 0.09018546 0.08984444
 0.08950526 0.0891438 0.08875994 0.08834352 0.08789815 0.087437 0.08696604 0.08651323 0.0860792 0.08568259
 0.08531237 0.08496197 0.08461507 0.08425053 0.08386132 0.08343303 0.08297273 0.08247916 0.08196392 0.08143079
 0.0808873 0.08033574 0.07978082 0.07922313 0.07866873 0.07811814 0.07757661 0.07704443 0.07652088 0.07600549
 0.0754925 0.07498202 0.0744711 0.07396135 0.07345688 0.07295848 0.072471 0.07199161 0.07151823 0.0710476
 0.07057405 0.07009982 0.06962208 0.06915259 0.06869414 0.06826499 0.06787319 0.06752598 0.06723216 0.06696165
 0.06671584 0.06643096 0.06610119 0.06568111 0.06516828 0.0645826 0.0639294 0.06327922 0.06263707 0.06206951
 0.06157271 0.06117341 0.06085501 0.06059807 0.06037584 0.06013728 0.05986556 0.05951444 0.05910391 0.05862649
 0.05812962 0.05763813 0.05717631 0.05676476 0.05638307 0.05603016 0.0556859 0.05534303 0.05502226 0.05472359
 0.0544852 0.05430909 0.05419952 0.05415254 0.05412094 0.05409699 0.05401016 0.05386011 0.05360198 0.05325417
 0.05283161 0.05236479 0.05191192 0.05148507 0.0511282 0.05081711 0.05054964 0.05029524 0.05003132 0.04976171
 0.04947926 0.04920854 0.04895752 0.04872466 0.0485131 0.048299 0.04807879 0.04785858 0.04763855 0.04746226
 0.04733034 0.04726563 0.04726024 0.04727985 0.04731552 0.04731411 0.04727982 0.04719333 0.04706926 0.04692356
 0.04676546 0.04661503 0.04646545 0.04632209 0.04616309 0.04598014 0.0457502 0.04545934 0.04511062 0.04469522
 0.04425929 0.04380562 0.0433956 0.04303728 0.04274654 0.04252479 0.04231777 0.04212113 0.0418607 0.04153975
 0.04113596 0.04066532 0.04017229 0.03967151 0.0392241 0.03882531 0.03849968 0.03822382 0.03798202 0.03775068
 0.037504 0.03723553 0.03693167 0.0366051 0.0362552 0.03590368 0.03555581 0.0352266 0.03492137 0.03463211
 0.03436016 0.03407411 0.03377222 0.03343168 0.0330541 0.03265737 0.03224625 0.03186216 0.03150159 0.03117745
 0.03087526 0.03056455 0.03023957 0.02987006 0.02947553 0.02906321 0.02866128 0.02829783 0.02797948 0.02772097
 0.02750785 0.02733659 0.02720112 0.02709666 0.02703576 0.02702071 0.02705547 0.02714313 0.02725186 0.02738019
 0.02747107 0.02752231 0.02749046 0.02737917 0.02718673 0.02692267 0.02661962 0.02628698 0.0259633 0.02565401
 0.02538456 0.02515848 0.02498911 0.0248789 0.0248352 0.02485458 0.02493973 0.02507712 0.02526419 0.02548247
 0.0257266 0.02598563 0.02625492 0.02654401 0.02685145 0.02721172 0.02762663 0.02814089 0.02875535 0.0294919
 0.03034486 0.03129143 0.0323216 0.03338512 0.03447806 0.03556311 0.03664722 0.03772482 0.03880505 0.03989848
 0.04100572 0.04213234 0.0432719 0.0444215 0.0455792 0.04674261 0.04791595 0.04910171 0.05029358 0.05149477
 0.05267102 0.05382147 0.05489054 0.05587497 0.05672471 0.05743846 0.05799011 0.05838095 0.0586042 0.05866462
 0.05857009 0.05833841 0.05800747 0.05761649 0.05724291 0.05693256 0.05677325 0.0567822 0.05701143 0.05743212
 0.05804784 0.05880952 0.05969875 0.06068375 0.06175126 0.06289355 0.06410767 0.06539027 0.06674177 0.06814748
 0.0696068 0.07108971 0.07259376 0.07407666 0.07553619 0.07693488 0.07827595 0.07955025 0.0807653 0.08193994
 0.08306822 0.08416321 0.08517626 0.08607739 0.08675624 0.08713319 0.08706006 0.0864317 0.08515587 0.08314463
 0.08047945 0.07712692 0.0733711 0.06923357 0.06508183 0.06095523 0.05712524 0.05361245 0.05049743 0.04777641
 0.04538551 0.04331437 0.04146454 0.03983122 0.03834638 0.03700556 0.03576662 0.03461909 0.03352616 0.0324797
 0.03145193 0.03045031 0.02946829 0.02852624 0.02763332 0.02680716 0.02605719 0.02539145 0.02481374 0.02432788
 0.02393529 0.0236362 0.02343116 0.0233155 0.02328902 0.02334576 0.0234847 0.02369138 0.02395963 0.02424342
 0.02453029 0.02474477 0.02488212 0.02488434 0.02477152 0.02454416 0.0242455 0.02392369 0.02362629 0.02340786
 0.02330277 0.02334685 0.02355242 0.02393442 0.02448648 0.02521008 0.02609606 0.02714428 0.02834298 0.02969728
 0.03113141 0.03264454 0.03400217 0.03518357 0.03580595 0.0358533 0.03500284 0.03330371 0.03074581 0.02746056
 0.02376812 0.01980819 0.01598638 0.01235374 0.009154587 0.006331813 0.003927966 0.001845222 3.621789E-05 -0.001565165
 -0.002998734 -0.004289649 -0.005450931 -0.006497985 -0.007433715 -0.008278329 -0.009033698 -0.009720697 -0.01034067 -0.01091355
 -0.01144043 -0.01194026 -0.01241365 -0.01287437 -0.01332187 -0.013762 -0.01419247 -0.01461114 -0.01501402 -0.01539256
 -0.01574509 -0.01606347 -0.01635545 -0.016622 -0.01687966 -0.01713843 -0.01740986 -0.01770429 -0.01801333 -0.0183397
 -0.01865896 -0.01896722 -0.01924566 -0.01949016 -0.01970717 -0.01989644 -0.02008244 -0.02026588 -0.02046006 -0.02066257
 -0.02086096 -0.0210539 -0.02122592 -0.02138481 -0.02154176 -0.02170875 -0.02191653 -0.02216278 -0.02246362 -0.02279386
 -0.02314012 -0.02347184 -0.02376424 -0.02400819 -0.0241893 -0.02432683 -0.02442013 -0.02450266 -0.02457968 -0.02467992
 -0.02480832 -0.02497178 -0.0251717 -0.02538761 -0.02561794 -0.02583074 -0.02602622 -0.02618965 -0.02632578 -0.02644642
 -0.0265562 -0.02667502 -0.02680153 -0.02694366 -0.02709541 -0.02725231 -0.02740924 -0.02755968 -0.02770191 -0.02783291
 -0.02795304 -0.02806152 -0.02816 -0.02824776 -0.0283314 -0.02841086 -0.02849907 -0.02859747 -0.02871617 -0.02885628
 -0.02901379 -0.02918799 -0.02936225 -0.02953574 -0.02969379 -0.0298379 -0.02996616 -0.03008167 -0.03019222 -0.03029933
 -0.03041065 -0.03052329 -0.03063755 -0.03074766 -0.03084761 -0.03093641 -0.03100882 -0.03107586 -0.03113866 -0.03121549
 -0.03131237 -0.03143858 -0.0315988 -0.03178436 -0.03199597 -0.03221298 -0.03243407 -0.03264113 -0.03283367 -0.0330059
 -0.03315886 -0.03329799 -0.03342445 -0.03354637 -0.03366348 -0.03377917 -0.03389275 -0.03400414 -0.0341138 -0.0342221
 -0.03433006 -0.03443888 -0.03454878 -0.03466027 -0.03477317 -0.03488768 -0.0350029 -0.03511912 -0.03523305 -0.03534433
 -0.03544896 -0.03554606 -0.03563662 -0.0357204 -0.0358056 -0.03589255 -0.03598788 -0.03609058 -0.03619586 -0.03630158
 -0.03639459 -0.03647602 -0.03654059 -0.03659438 -0.03664653 -0.03670215 -0.03677362 -0.03685815 -0.03695835 -0.03706789
 -0.03718251 -0.03730134 -0.0374224 -0.03754857 -0.03768102 -0.03781845 -0.03796133 -0.03810478 -0.03824809 -0.03838941
 -0.03852849 -0.03866662 -0.03880382 -0.03894028 -0.03907597 -0.03921061 -0.03934408 -0.03947587 -0.03960541 -0.03973075
 -0.03985135 -0.03996469 -0.04007176 -0.04017287 -0.04026881 -0.04036098 -0.04044798 -0.04052924 -0.04060392 -0.04067041
 -0.04073304 -0.04079204 -0.04085458 -0.04092226 -0.04099889 -0.04108541 -0.041181 -0.04128574 -0.04139641 -0.04151279
 -0.04163094 -0.04175051 -0.04186691 -0.04197981 -0.04208502 -0.04218285 -0.04227135 -0.04235245 -0.04242836 -0.04250246
 -0.04258053 -0.04266408 -0.04275797 -0.04285806 -0.04296398 -0.04306889 -0.04316888 -0.04326271 -0.04334813 -0.04343068
 -0.04351121 -0.04359335 -0.0436781 -0.04376289 -0.04384757 -0.04392992 -0.04401002 -0.0440926 -0.04417822 -0.0442744
 -0.04438045 -0.04449791 -0.04462409 -0.04475261 -0.04487976 -0.04499509 -0.04509652 -0.04517553 -0.0452354 -0.04527399
 -0.04530202 -0.04532458 -0.04535421 -0.04539903 -0.04546155 -0.04554651 -0.04564212 -0.0457476 -0.04584797 -0.04594046
 -0.04602244 -0.04609308 -0.04616298 -0.04623261 -0.04631054 -0.04639588 -0.04648418 -0.04657399 -0.04665529 -0.0467293
 -0.04679355 -0.04685178 -0.04691043 -0.04697198 -0.04704344 -0.0471234 -0.04721411 -0.04731018 -0.04740959 -0.04750518
 -0.04759307 -0.04766936 -0.04773099 -0.04778153 -0.04782039 -0.04785609 -0.04788955 -0.04792789 -0.0479718 -0.04802398
 -0.04808452 -0.04815363 -0.04823098 -0.04831403 -0.04840187 -0.04848888 -0.04857402 -0.04865094 -0.04871978 -0.04877702
 -0.04882522 -0.04886586 -0.04890309 -0.04894154 -0.04898386 -0.04903412 -0.04909021 -0.04915275 -0.04921716 -0.04928187
 -0.04934513 -0.04940604 -0.04946586 -0.04952465 -0.04958361 -0.04964286 -0.04970304 -0.04976416 -0.04982615 -0.04988868
 -0.04994845 -0.0500052 -0.05005494 -0.05009979 -0.05014346 -0.05018964 -0.05024907 -0.0503206 -0.05040956 -0.05050671
 -0.05060517 -0.05069654 -0.05077072 -0.05083124 -0.05087515 -0.05091519 -0.05095494 -0.05100282 -0.05106225 -0.0511312
 -0.05121017 -0.05129352 -0.0513808 -0.05146883 -0.05155743 -0.05164408 -0.05172851 -0.0518067 -0.05187889 -0.05194371
 -0.05200239 -0.05205832 -0.05211179 -0.05216559 -0.05221816 -0.0522683 -0.05231493 -0.05235548 -0.05239278 -0.05242723
 -0.05246382 -0.05250516 -0.05255384 -0.0526121 -0.05267678 -0.05274831 -0.05281935 -0.05288905 -0.05295112 -0.05300473
 -0.05305045 -0.05308838 -0.05312412 -0.05315787 -0.05319355 -0.05323103 -0.05327147 -0.05331524 -0.05336416 -0.05341848
 -0.05348032 -0.05354776 -0.05361929 -0.05369207 -0.05376231 -0.05382938 -0.05389139 -0.05394964 -0.05400472 -0.05405603
 -0.05410395 -0.05414559 -0.05418027 -0.05420664 -0.05422397 -0.05423572 -0.05424187 -0.05425039 -0.0542617 -0.05428319
 -0.05431465 -0.05435683 -0.05440829 -0.05446209 -0.05451712 -0.05456555 -0.05460882 -0.05464578 -0.05467926 -0.05471341
 -0.05474897 -0.05478909 -0.05483108 -0.05487427 -0.05491536 -0.05495203 -0.05498441 -0.05501164 -0.05503626 -0.05505861
 -0.05508099 -0.05510385 -0.05512799 -0.05515353 -0.05518094 -0.05521027 -0.05524267 -0.05527827 -0.05531876 -0.05536411
 -0.05541522 -0.05547151 -0.05553201 -0.05559539 -0.05565877 -0.05572007 -0.05577529 -0.05582204 -0.05585606 -0.05587695
 -0.05588165 -0.05587553 -0.055859 -0.05584214 -0.05582847 -0.05582438 -0.0558329 -0.05585129 -0.05588002 -0.05591214
 -0.05594701 -0.05598128 -0.05601477 -0.05604778 -0.05608038 -0.05611327 -0.05614655 -0.05618089 -0.05621687 -0.05625629
 -0.05630074 -0.05635356 -0.0564184 -0.05650111 -0.05660744 -0.05674513 -0.05691935 -0.05713709 -0.05739768 -0.05770364
 -0.05804891 -0.05843133 -0.05884927 -0.05929977 -0.05979596 -0.06033894 -0.06094399 -0.06161431 -0.06233184 -0.06309515
 -0.06383197 -0.06453665 -0.06512046 -0.06558402 -0.06588303 -0.06602544 -0.06601661 -0.0658576 -0.06554952 -0.06510054
 -0.06450969 -0.06382386 -0.06308531 -0.06235154 -0.06167804 -0.06109754 -0.06063991 -0.06032085 -0.06015377 -0.06013654
 -0.06028042 -0.06052566 -0.06087421 -0.06119986 -0.06149065 -0.06167142 -0.06173857 -0.06173189 -0.06165561 -0.06157166
 -0.06147893 -0.06140348 -0.06133989 -0.06128498 -0.06123208 -0.06116455 -0.06107908 -0.06096168 -0.06081638 -0.06064069
 -0.06044392 -0.0602313 -0.06001243 -0.05979364 -0.05958001 -0.05937529 -0.05917841 -0.05898927 -0.05880914 -0.05863728
 -0.0584827 -0.05834632 -0.05823253 -0.0581415 -0.058059 -0.05798365 -0.05789357 -0.05778983 -0.05766614 -0.05752695
 -0.0573842 -0.05724106 -0.05711139 -0.05699433 -0.05689495 -0.05681047 -0.05673954 -0.0566805 -0.05663139 -0.0565923
 -0.05656301 -0.05654312 -0.05653353 -0.05652899 -0.05652935 -0.05652519 -0.05651485 -0.05649336 -0.05645954 -0.05641963
 -0.05637395 -0.05633577 -0.05630546 -0.05629175 -0.05629326 -0.05630732 -0.05633128 -0.05635462 -0.05637585 -0.0563857
 -0.05638583 -0.05637424 -0.05635444 -0.05632938 -0.05630216 -0.05627608 -0.05625289 -0.05623447 -0.05622105 -0.0562137
 -0.05620949 -0.05620828 -0.05620557 -0.05620046 -0.05619164 -0.05617865 -0.05616513 -0.05615125 -0.05614053 -0.05613272
 -0.05612596 -0.05611945 -0.05610747 -0.05609002 -0.05606365 -0.05603002 -0.05599124 -0.0559488 -0.05590651 -0.05586376
 -0.05582114 -0.05577834 -0.05573381 -0.05569257 -0.05565574 -0.05563137 -0.05562348 -0.05563317 -0.05566323 -0.05570292
 -0.05575173 -0.055795 -0.05583114 -0.05585251 -0.05585862 -0.0558502 -0.05582753 -0.05579454 -0.05575167 -0.05570279
 -0.0556491 -0.05559639 -0.05554675 -0.05550852 -0.0554816 -0.05547123 -0.05547179 -0.05547981 -0.05548799 -0.05548809
 -0.05548052 -0.05546132 -0.05544009 -0.0554195 -0.05540663 -0.05540514 -0.05541078 -0.05542408 -0.0554354 -0.0554437
 -0.05544464 -0.05543791 -0.05542616 -0.05540968 -0.05539312 -0.0553766 -0.05536312 -0.05535263 -0.0553466 -0.05534469
 -0.05534725 -0.05535288 -0.05535986 -0.05536594 -0.0553677 -0.05536435 -0.05535321 -0.05533747 -0.05531755 -0.0552984
 -0.05528243 -0.05527059 -0.05526429 -0.05525919 -0.05525485 -0.05524724 -0.05523557 -0.0552218 -0.05520597 -0.05519442
 -0.05518729 -0.05518829 -0.05519656 -0.05520866 -0.05522346 -0.05523451 -0.05524239 -0.05524486 -0.0552441 -0.05524335
 -0.05524269 -0.05524454 -0.05524512 -0.05524224 -0.05523285 -0.05521322 -0.0551874 -0.05515474 -0.05512485 -0.05510006
 -0.05508684 -0.05508729 -0.0550995 -0.05512377 -0.05515428 -0.05519072 -0.05522891 -0.05526863 -0.05530623 -0.05534113
 -0.05536757 -0.05538544 -0.0553905 -0.05538468 -0.05537039 -0.05535011 -0.05532968 -0.05530909 -0.05529086 -0.0552735
 -0.05525587 -0.05523929 -0.05522352 -0.0552123 -0.05520712 -0.05520997 -0.05522215 -0.05524175 -0.05526895 -0.05530002
 -0.05533478 -0.05536829 -0.05540026 -0.05542504 -0.05544259 -0.05545102 -0.05545139 -0.05544953 -0.05544654 -0.05545057
 -0.05545993 -0.05547545 -0.05549298 -0.05550526 -0.05551102 -0.0555043 -0.05549007 -0.05546966 -0.05544983 -0.05543554
 -0.05542787 -0.05542921 -0.05543533 -0.05544562 -0.05545641 -0.05546667 -0.05547661 -0.05548601 -0.0554971 -0.05551003
 -0.0555254 -0.05554306 -0.0555604 -0.05557714 -0.05558986 -0.05559919 -0.05560527 -0.05560978 -0.05561717 -0.05562824
 -0.05564718 -0.05567179 -0.05570177 -0.05573299 -0.055762 -0.05578588 -0.05580131 -0.05580966 -0.05580994 -0.05580722
 -0.05580238 -0.05580047 -0.05580267 -0.05581094 -0.05582584 -0.0558456 -0.05587018 -0.05589574 -0.05592207 -0.0559453
 -0.05596571 -0.055983 -0.05599813 -0.05601487 -0.0560334 -0.05605684 -0.05608321 -0.05611051 -0.05613696 -0.05615892
 -0.05617759 -0.0561925 -0.0562058 -0.05621914 -0.05623194 -0.05624447 -0.05625544 -0.05626409 -0.05627199 -0.05627908
 -0.05628824 -0.05629981 -0.05631507 -0.05633412 -0.05635694 -0.05638351 -0.05641377 -0.05644732 -0.05648179 -0.05651613
 -0.05654488 -0.05656765 -0.05657981 -0.0565836 -0.05658 -0.05657336 -0.05656952 -0.05657102 -0.05658315 -0.05660295
 -0.05663129 -0.05666123 -0.05669032 -0.05671325 -0.05672719 -0.05673414 -0.05673305 -0.05673334 -0.05673575 -0.05674955
 -0.05677551 -0.05681148 -0.05685672 -0.05689712 -0.05693212 -0.05694988 -0.05695278 -0.05694332 -0.05692536 -0.05691098
 -0.05690047 -0.05690112 -0.05690857 -0.05692039 -0.05693267 -0.05694012 -0.05694431 -0.05694359 -0.056944 -0.05694798
 -0.05695817 -0.05697696 -0.05699897 -0.05702408 -0.05704433 -0.05705856 -0.05706467 -0.05706238 -0.05705523 -0.05704335
 -0.05702911 -0.05701234 -0.05699277 -0.05697052 -0.05694571 -0.05691915 -0.0568929 -0.05686801 -0.05684748 -0.05683149
 -0.05682218 -0.05681733 -0.05681613 -0.05681549 -0.05681279 -0.05680826 -0.05680079 -0.05679365 -0.056788 -0.05678359
 -0.05678111 -0.056776 -0.05676774 -0.056754 -0.05673449 -0.05671227 -0.05668752 -0.05666402 -0.05664183 -0.05662319
 -0.05660795 -0.05659693 -0.05658951 -0.05658455 -0.0565812 -0.05657721 -0.05657242 -0.05656561 -0.05655716 -0.05654707
 -0.0565354 -0.05652203 -0.0565076 -0.0564922 -0.05647691 -0.0564622 -0.05644801 -0.05643446 -0.05642078 -0.05640686
 -0.05639254 -0.05637785 -0.05636173 -0.0563441 -0.05632269 -0.05629761 -0.05626842 -0.0562357 -0.05620145 -0.05616641
 -0.05613302 -0.05610293 -0.05608018 -0.05606636 -0.05606668 -0.05607716 -0.05609819 -0.0561192 -0.05613352 -0.05613535
 -0.05611864 -0.05608982 -0.05604879 -0.05600528 -0.0559616 -0.05592056 -0.05588316 -0.05584564 -0.05580785 -0.05576573
 -0.05571926 -0.0556687 -0.0556147 -0.05556213 -0.05551162 -0.05546871 -0.05543289 -0.05540597 -0.05538629 -0.05537187
 -0.05536055 -0.05534914 -0.05533492 -0.05531435 -0.05528596 -0.05524683 -0.05520018 -0.05514589 -0.05509012 -0.05503483
 -0.05498303 -0.05493608 -0.05489206 -0.05485111 -0.05480895 -0.0547653 -0.05471686 -0.05466374 -0.05460877 -0.054553
 -0.05450626 -0.05446897 -0.05444955 -0.05444477 -0.05445158 -0.05446295 -0.0544641 -0.0544504 -0.05440713 -0.05434052
 -0.05424853 -0.05414568 -0.05404012 -0.05394289 -0.05386226 -0.05379709 -0.05375018 -0.05371105 -0.05367816 -0.05364358
 -0.05360569 -0.05356503 -0.05352143 -0.05347816 -0.05343534 -0.05339549 -0.05335839 -0.05332433 -0.05329173 -0.05325423
 -0.05320978 -0.05314791 -0.05307122 -0.05297839 -0.05287598 -0.05277243 -0.05267157 -0.05258017 -0.05249881 -0.05243013
 -0.0523724 -0.05232706 -0.05228581 -0.05224762 -0.05220074 -0.05214201 -0.05206881 -0.05197968 -0.05188268 -0.05177831
 -0.05167225 -0.05156465 -0.05145572 -0.05134549 -0.05123433 -0.05112205 -0.05100786 -0.05089157 -0.05077136 -0.05064925
 -0.05052804 -0.05041025 -0.05030151 -0.05020006 -0.05010692 -0.05001798 -0.04993068 -0.04984299 -0.04975377 -0.04966058
 -0.04956297 -0.04945674 -0.04934048 -0.04921484 -0.04907927 -0.04893973 -0.04879665 -0.04865396 -0.04851167 -0.04836878
 -0.04822453 -0.04807268 -0.04791207 -0.04773263 -0.04753681 -0.04732469 -0.04710318 -0.04688741 -0.04667785 -0.04648411
 -0.04629675 -0.04610996 -0.04591699 -0.04570898 -0.04549267 -0.04526807 -0.04504492 -0.04482757 -0.04461515 -0.04440977
 -0.04419966 -0.04398493 -0.04374291 -0.04347198 -0.04315331 -0.04278693 -0.04238677 -0.04195519 -0.04152054 -0.04108014
 -0.04063776 -0.04018682 -0.03970978 -0.03920314 -0.03865085 -0.03805465 -0.03740876 -0.03672048 -0.03599303 -0.03523779
 -0.03446538 -0.03367503 -0.03287491 -0.03203737 -0.03115509 -0.03020959 -0.02918818 -0.02813272 -0.02704468 -0.02598112
 -0.02494758 -0.02395225 -0.0229952 -0.02206602 -0.02116593 -0.02030341 -0.01947825 -0.01869716 -0.01795214 -0.01722425
 -0.01650381 -0.0157609 -0.01499467 -0.01418991 -0.01335336 -0.01248728 -0.01159388 -0.01067691 -0.009731656 -0.008756854
 -0.00774889 -0.006706272 -0.005628258 -0.004517771 -0.003354199 -0.002139479 -0.0008134911 0.0006293264 0.002211889 0.003931672
 0.005669951 0.007420656 0.009071019 0.01063935 0.01215375 0.01363418 0.01515707 0.01672501 0.0183779 0.02011512
 0.02194221 0.02388691 0.02596262 0.02823984 0.03076725 0.03360019 0.03680536 0.04028932 0.04406572 0.04790996
 0.05177623 0.05552192 0.05911517 0.06254715 0.06581211 0.06896866 0.07202163 0.0750945 0.07820015 0.08152423
 0.0850486 0.08881509 0.0927342 0.09653253 0.1001974 0.1035383 0.1066658 0.1096626 0.1126071 0.1156202
 0.1186994 0.1218783 0.1251418 0.1284836 0.13192 0.135468 0.1390742 0.1427419 0.1463529 0.1498862
 0.1533195 0.1566481 0.1598995 0.1630719 0.1660706 0.1688832 0.1713544 0.1734827 0.1751872 0.1764608
 0.1772323 0.1775137 0.1772508 0.1765764 0.1756578 0.1745978 0.1735928 0.1725861 0.1715818 0.1705735
 0.1695411 0.1685582 0.1676639 0.1668177 0.1660448 0.165134 0.1640699 0.1625981 0.160688 0.1583422
 0.1555678 0.1527642 0.1499412 0.1473649 0.1449871 0.1427012 0.1404712 0.1381171 0.1356641 0.1330587
 0.1303868 0.1277497 0.1252159 0.1229133 0.1208079 0.1189256 0.117187 0.1155465 0.1140058 0.1125396
 0.111241 0.110131 0.1092454 0.1086012 0.1081278 0.1078215 0.1076112 0.1074942 0.1074673 0.1075335
 0.107725 0.1080396 0.1084839 0.109051 0.1097209 0.1104926 0.1113533 0.1123059 0.1133501 0.1144869
 0.1157157 0.1170411 0.1184632 0.1199955 0.121643 0.1234206 0.1253335 0.1273944 0.1296083 0.1319743
 0.1344983 0.1371291 0.1398663 0.1426088 0.1453514 0.1480031 0.1505606 0.1529621 0.1551997 0.157198
 0.1589538 0.1604052 0.1615814 0.1625077 0.1632294 0.163822 0.1643241 0.1648015 0.1652786 0.1657984
 0.1663486 0.1669468 0.1675254 0.1680784 0.1684937 0.1687366 0.1687825 0.168602 0.1683924 0.1681703
 0.168039 0.1680015 0.1679425 0.1678561 0.1676394 0.1672988 0.166816 0.1661975 0.1654698 0.1645978
 0.1635543 0.1622139 0.1603711 0.1579515 0.1546879 0.1509157 0.1467701 0.1425979 0.1386895 0.1349013
 0.1312468 0.1275654 0.1237867 0.1200317 0.1162993 0.1127801 0.1094981 0.1064444 0.1036177 0.1008631
 0.09817668 0.09545879 0.09272518 0.09000747 0.08732349 0.0847552 0.08229346 0.07996292 0.07773646 0.07558218
 0.07348315 0.07141598 0.0693522 0.06728778 0.06512184 0.06281277 0.06025053 0.05732434 0.05427725 0.05109494
 0.04829272 0.04598469 0.04415747 0.04283762 0.04165412 0.04058946 0.03941847 0.03815064 0.03681939 0.03544781
 0.03418865 0.03302898 0.03200778 0.03109607 0.03023326 0.02943836 0.02870069 0.02808159 0.02764982 0.02742673
 0.02746255 0.02771645 0.02818293 0.02881794 0.02960216 0.03052153 0.03156373 0.03275746 0.03409962 0.03566584
 0.03746491 0.03952321 0.04184076 0.04422257 0.04665032 0.04883964 0.05079951 0.05243101 0.05376248 0.05483589
 0.05567292 0.05633788 0.05685221 0.05727213 0.05762302 0.057947 0.05827734 0.05865038 0.0590894 0.05962693
 0.06022728 0.06089036 0.06156018 0.0622205 0.06285389 0.06345433 0.06402488 0.06456487 0.06508434 0.06558386
 0.06608043 0.06657459 0.06707808 0.06759025 0.06811255 0.06864585 0.06919251 0.06975685 0.07034912 0.07097437
 0.07164373 0.07236377 0.07314266 0.07399431 0.0749301 0.07596438 0.07711093 0.0783641 0.07973023 0.08117782
 0.08270328 0.08426846 0.08586822 0.0874695 0.0890701 0.09062903 0.09214391 0.0935575 0.09486692 0.09602129
 0.09701926 0.0978296 0.09844737 0.09884163 0.09900215 0.09888832 0.09849841 0.0978047 0.0968297 0.09558099
 0.094099 0.09241603 0.09056187 0.0885644 0.0864225 0.08414087 0.08171575 0.07913361 0.07646763 0.07371402
 0.07103831 0.06845606 0.06608043 0.06391811 0.06193354 0.06012029 0.0583831 0.05672375 0.05510163 0.05353047
 0.05204014 0.05063463 0.04934523 0.04815168 0.0470402 0.04597864 0.04492656 0.04386018 0.04274418 0.0415815
 0.04035672 0.03910761 0.03784014 0.03660256 0.03541032 0.03427881 0.03321676 0.0321958 0.03121474 0.03023916
 0.02926705 0.02830743 0.02736442 0.02649598 0.02570526 0.02504347 0.02450358 0.02408833 0.02378826 0.02358157
 0.02346486 0.02342347 0.02345572 0.02355607 0.02371823 0.02393893 0.02420278 0.02450525 0.02481895 0.0251367
 0.02542373 0.02567163 0.0258506 0.02595407 0.02596894 0.02589189 0.02573592 0.02550156 0.02522301 0.02490225
 0.0245728 0.02423598 0.02391494 0.02361282 0.02335258 0.02313817 0.02299251 0.02291218 0.02290537 0.02295732
 0.02305667 0.0231846 0.02332337 0.02345901 0.02357883 0.02367795 0.02375063 0.02380126 0.02382921 0.02384288
 0.0238437 0.02383605 0.02382077 0.02379654 0.02376335 0.02371982 0.02366596 0.02360197 0.02352789 0.02344405
 0.02335064 0.02324825 0.02313767 0.02302069 0.02289888 0.02277508 0.02265202 0.02253367 0.02242259 0.02232286
 0.02223306 0.0221542 0.02208187 0.02201396 0.02195038 0.02188955 0.02183855 0.02179787 0.02177636 0.02177495
 0.02179983 0.02185144 0.02193312 0.02204486 0.02218684 0.02235865 0.02255771 0.02278383 0.0230344 0.02331045
 0.02361242 0.02394301 0.02430651 0.02470612 0.02514796 0.02563169 0.02616103 0.02672812 0.02733134 0.02795816
 0.02860395 0.02925852 0.02991846 0.03057794 0.03123557 0.03188777 0.03253414 0.0331712 0.03379877 0.03441065
 0.03500623 0.0355757 0.03611833 0.0366249 0.03709472 0.03752118 0.03790224 0.03823005 0.03850194 0.03870891
 0.03885205 0.03892825 0.03894206 0.03889676 0.03879391 0.03863583 0.03842073 0.03814723 0.03781912 0.03743528
 0.03700883 0.03654084 0.03604797 0.03553192 0.0350055 0.03446962 0.03393101 0.03338962 0.03284518 0.03229669
 0.03173799 0.03116757 0.03057653 0.02996387 0.02932193 0.0286521 0.02795213 0.02722694 0.02648045 0.02571967
 0.02495074 0.0241812 0.02341578 0.02266306 0.02192672 0.02121476 0.0205305 0.01987555 0.01925143 0.01865261
 0.01807882 0.01752367 0.01698669 0.01646756 0.01596673 0.01549192 0.01504421 0.01463497 0.01426414 0.01393806
 0.01365479 0.01341209 0.01320958 0.01304412 0.01291988 0.01284033 0.01280994 0.01283436 0.01291363 0.01304963
 0.01324028 0.01348476 0.01378324 0.01413553 0.01454247 0.01500488 0.01551845 0.01608387 0.01668511 0.01732149
 0.01796352 0.01860963 0.01923007 0.01982595 0.02038876 0.02092396 0.02144825 0.02196638 0.02250046 0.02304861
 0.02361913 0.02420446 0.02479925 0.02539551 0.02598458 0.02656212 0.0271234 0.02766621 0.02818933 0.02868895
 0.02916411 0.02961088 0.03002782 0.0304169 0.0307775 0.03111957 0.03144353 0.03176557 0.03208701 0.03243097
 0.03279973 0.0332205 0.03369447 0.03424143 0.03485987 0.03555644 0.03632782 0.03717274 0.03808435 0.03905655
 0.04007564 0.0411296 0.04220365 0.04328538 0.0443682 0.04544707 0.04651804 0.04758119 0.04862368 0.04964453
 0.05062546 0.05156412 0.05245073 0.0532843 0.0540688 0.0548049 0.05550588 0.05617228 0.05681527 0.05743307
 0.05802425 0.05858727 0.05911478 0.05961271 0.06008621 0.06054651 0.06101094 0.06148361 0.06197634 0.06248185
 0.06300037 0.06352056 0.06403828 0.06454405 0.06503365 0.06550572 0.06595707 0.06640431 0.06684761 0.06731577
 0.06781072 0.06835206 0.06893966 0.06957018 0.07023995 0.0709229 0.07161252 0.07226922 0.07288727 0.07343066
 0.0738988 0.07427365 0.0745583 0.0747489 0.07485048 0.07486355 0.07480057 0.07466607 0.07448005 0.07425095
 0.07399479 0.07371774 0.07342785 0.07312676 0.07282346 0.07251865 0.07222391 0.07194 0.07167711 0.07143576
 0.07122579 0.07104699 0.07090428 0.07079408 0.07070505 0.07063158 0.07055202 0.07046495 0.07035706 0.07023074
 0.07008456 0.06991851 0.06973262 0.06952521 0.06929543 0.06904151 0.06876368 0.06845585 0.06811741 0.06773855
 0.06731778 0.06684583 0.06632181 0.06573547 0.06508598 0.06436673 0.06357829 0.06273448 0.06183854 0.06092227
 0.0599866 0.05905366 0.05811948 0.05718446 0.05624479 0.05529347 0.0543285 0.05334508 0.05234054 0.05131087
 0.05025475 0.04917038 0.04805692 0.04691492 0.04573829 0.04452557 0.04327112 0.04197178 0.04063693 0.03926579
 0.03788222 0.03648749 0.03510882 0.03374769 0.03243061 0.03115852 0.02995192 0.02880914 0.0277348 0.02672517
 0.02577237 0.02487361 0.02402085 0.02321039 0.02243572 0.02168983 0.02096418 0.02025412 0.01955329 0.01886359
 0.0181843 0.01751793 0.01686577 0.01622594 0.01559897 0.01497865 0.01436493 0.0137462 0.01312157 0.01248308
 0.01183128 0.01118158 0.01053777 0.009937358 0.009382229 0.008902434 0.008493075 0.008157198 0.007886348 0.007666609
 0.007489996 0.007341835 0.0072128 0.007092108 0.006965234 0.006822945 0.006645827 0.006424131 0.006142878 0.005793415
 0.005379731 0.004898407 0.004373594 0.003806901 0.003225306 0.002630774 0.002043341 0.001464057 0.0009108775 0.0003843126
 -0.0001025404 -0.0005511999 -0.0009617094 -0.001335178 -0.001676327 -0.001981676 -0.00224657 -0.002468194 -0.002638268 -0.002763098
 -0.002844121 -0.002891783 -0.002914443 -0.002914222 -0.002895734 -0.002851646 -0.002780598 -0.002676997 -0.00253793 -0.002370559
 -0.002174111 -0.001968158 -0.001753936 -0.001549679 -0.001355879 -0.001176172 -0.001009508 -0.0008486076 -0.0006928478 -0.0005355578
 -0.0003771166 -0.000214487 -4.993848E-05 0.0001154809 0.0002746329 0.0004186362 0.0005385744 0.0006215691 0.0006668436 0.0006681819
 0.0006340967 0.0005666584 0.0004733662 0.0003565982 0.0002219418 6.907701E-05 -8.716771E-05 -0.0002465531 -0.000382708 -0.000493915
 -0.0005547053 -0.0005641248 -0.0005099822 -0.0003935511 -0.000219634 8.902703E-06 0.0002767381 0.0005816001 0.0009091169 0.001258295
 0.001621567 0.001995859 0.002375051 0.002753566 0.003123331 0.003482989 0.003827283 0.004163762 0.004494282 0.004826024
 0.005163901 0.005500467 0.00583716 0.006153238 0.006446136 0.006701612 0.006917637 0.007104255 0.007262444 0.007419249
 0.007575411 0.00774978 0.007939745 0.008142837 0.008356784 0.008571479 0.00879127 0.009018868 0.009261859 0.009534872
 0.009834191 0.01016652 0.01051087 0.01085668 0.01118395 0.011478 0.01174013 0.01196586 0.01216916 0.01235278
 0.01252283 0.01268064 0.01282674 0.01296093 0.01309177 0.01321982 0.01335743 0.01350491 0.01366954 0.01385186
 0.01405872 0.01428996 0.01455101 0.01483606 0.01513751 0.01544628 0.0157442 0.01603199 0.01630025 0.01656338
 0.01682781 0.01710618 0.01740956 0.01772991 0.01807091 0.01840492 0.01872687 0.01901607 0.01926638 0.01949208
 0.01969264 0.01990818 0.02014034 0.02041151 0.02071913 0.02104818 0.02139538 0.02173588 0.02207137 0.02239447
 0.02270746 0.02301325 0.02330874 0.02359144 0.02385649 0.02409675 0.02431391 0.02450417 0.02467969 0.02484367
 0.02501118 0.02518886 0.02538004 0.02558799 0.0258036 0.02602581 0.02625028 0.02647634 0.02670798 0.02694524
 0.02718498 0.02742674 0.02766271 0.02789613 0.02813751 0.02839331 0.02869132 0.02902982 0.02942355 0.02985522
 0.0303099 0.03076277 0.03118348 0.03155683 0.0318601 0.03209842 0.03226595 0.03238061 0.03244541 0.03248029
 0.0324869 0.03249667 0.03251128 0.03257896 0.03270425 0.03291317 0.0332059 0.03354427 0.03392252 0.03426716
 0.0345793 0.03482205 0.03500897 0.03516198 0.03529465 0.03544883 0.03562383 0.03584053 0.03608244 0.036341
 0.03660086 0.03684327 0.0370786 0.03730233 0.03754456 0.03781725 0.03812645 0.03848128 0.03884588 0.03921803
 0.039556 0.03985536 0.04010378 0.04030107 0.04046678 0.04060479 0.04076006 0.04093757 0.04118893 0.04151065
 0.04192321 0.04241066 0.04295003 0.04352612 0.04410485 0.0446835 0.04524549 0.04579687 0.04633804 0.04687105
 0.04740161 0.0479123 0.04840331 0.04883837 0.04920864 0.04949453 0.04968764 0.04981874 0.049888 0.04995283
 0.05001609 0.05012061 0.050267 0.05047816 0.05075188 0.05109192 0.05149041 0.05192516 0.05238809 0.05285005
 0.05330984 0.05375609 0.05418204 0.05458205 0.05493437 0.05522142 0.0554304 0.05554439 0.0555832 0.05554521
 0.0554694 0.0553619 0.05526249 0.05517682 0.05513797 0.05515023 0.05521739 0.05533931 0.05548165 0.0556427
 0.05579042 0.05592822 0.05605689 0.05618186 0.05631998 0.05647666 0.0566715 0.05690784 0.05720433 0.05754669
 0.05793057 0.05833185 0.05872607 0.05911787 0.05949743 0.05989665 0.06033203 0.06078912 0.06127466 0.06172816
 0.06213652 0.0625053 0.06283219 0.06315842 0.06348572 0.06382266 0.06416664 0.06449373 0.06479863 0.06504212
 0.06521881 0.06528655 0.0652522 0.0651032 0.06486613 0.06457684 0.06425326 0.06393407 0.06360736 0.06327438
 0.06292938 0.06256174 0.06220007 0.06184904 0.06154332 0.0612926 0.0611131 0.06101004 0.06097956 0.06102375
 0.06110545 0.06122244 0.06130819 0.06136042 0.06133016 0.06122169 0.06103099 0.06076666 0.06045193 0.06009929
 0.05974612 0.05940427 0.05911472 0.05886421 0.05866053 0.05846856 0.05825977 0.05802749 0.05775776 0.05746436
 0.05715304 0.05681549 0.05644564 0.05606541 0.05566791 0.0553531 0.05512963 0.05506861 0.05517329 0.05538414
 0.05569363 0.05599219 0.05628106 0.05650938 0.05668805 0.05682501 0.05693334 0.05704663 0.05717149 0.05733865
 0.05753276 0.05775199 0.05797184 0.0581683 0.05834327 0.0584894 0.05862095 0.05874741 0.0588505 0.05892948
 0.05895713 0.05892459 0.05885318 0.05874166 0.05864774 0.05857441 0.05855894 0.05859955 0.05868801 0.05881643
 0.0589372 0.05904284 0.05907822 0.05905107 0.05894733 0.05878868 0.05860437 0.05840715 0.05822183 0.05805486
 0.05791458 0.05781773 0.05777963 0.0577926 0.05786771 0.05794658 0.05801632 0.05803977 0.05800183 0.05794668
 0.05787567 0.0578475 0.05786523 0.05792546 0.05802528 0.05812641 0.05822768 0.05830324 0.05835465 0.05837221
 0.05836102 0.05832779 0.05827689 0.05822327 0.05815483 0.05806701 0.05793949 0.05775022 0.05750372 0.05719096
 0.05684081 0.05646151 0.05607417 0.05568516 0.05530677 0.05494045 0.05460465 0.05430174 0.05403852 0.05381544
 0.05360432 0.05340176 0.05315609 0.05286577 0.05249059 0.05204114 0.05152668 0.05097271 0.0504454 0.04995736
 0.04956908 0.04925207 0.0490008 0.04877831 0.04854811 0.04830739 0.04804328 0.04776685 0.04748087 0.04718705
 0.04688252 0.04658918 0.04630684 0.04607932 0.04591242 0.04580986 0.04577212</values></Ydata></AB><ScSm><Ydata ylabel="Single channel"><values byteorder="INTEL" format="FLOAT32" numvalues="1814"> 0.07192081 0.07192546 0.07200152 0.07217038 0.07239531 0.07260402 0.07274181 0.07280754 0.07282919 0.07281526
 0.0727651 0.07272385 0.07277581 0.07295837 0.0732066 0.07339768 0.07344928 0.07339229 0.07335322 0.07342906
 0.07355364 0.07351924 0.07317398 0.0725989 0.07205461 0.07174191 0.07167966 0.07186241 0.07238473 0.07318598
 0.07377349 0.07357978 0.07267751 0.07180422 0.07154349 0.07176685 0.0719818 0.07189846 0.07151873 0.07102515
 0.0708269 0.07144491 0.07299684 0.07478082 0.07553285 0.07422443 0.07079598 0.06638555 0.06291002 0.06204038
 0.06402399 0.06734566 0.06986249 0.07051388 0.06983097 0.0688511 0.06800248 0.0672376 0.06675421 0.06703477
 0.06817695 0.06944247 0.06963943 0.0681437 0.06564422 0.06365169 0.06312014 0.06385411 0.06532174 0.06723036
 0.06869597 0.06778602 0.06342994 0.05780946 0.05536832 0.05858237 0.06531981 0.07093201 0.07238609 0.06994838
 0.0658205 0.06232042 0.06102049 0.06232465 0.06538723 0.0688141 0.07151037 0.07273754 0.07192876 0.069181
 0.06573636 0.06338038 0.06334687 0.0658339 0.06995933 0.07384373 0.07547188 0.07418577 0.07111762 0.06799416
 0.06600434 0.06581791 0.06775755 0.07145488 0.0758281 0.07971121 0.08233011 0.08337936 0.08308582 0.08206374
 0.08084679 0.07980543 0.07947459 0.08021758 0.08136125 0.08145966 0.07987011 0.07761142 0.07631501 0.07654119
 0.07733554 0.07739145 0.07637334 0.07469544 0.0722238 0.0682631 0.06314399 0.05863599 0.05617639 0.05577991
 0.05709257 0.05994773 0.06313224 0.06432394 0.06263942 0.06024275 0.06019296 0.06317909 0.06717515 0.06991021
 0.0709657 0.07160273 0.07314022 0.07560878 0.07758802 0.0772789 0.07429157 0.07064421 0.06933124 0.07138078
 0.07486819 0.07728232 0.07817018 0.07884222 0.08008423 0.08093771 0.07970279 0.0759619 0.07165219 0.06986076
 0.07213277 0.07692166 0.08071576 0.08063934 0.07638466 0.07026313 0.06540279 0.06359008 0.06480132 0.06839709
 0.07381395 0.07994331 0.08485439 0.08688164 0.08584129 0.08291611 0.07931121 0.07515221 0.07013616 0.06537183
 0.06357984 0.06650822 0.07268571 0.07865375 0.08204871 0.08276568 0.08160073 0.07879069 0.0742452 0.06894526
 0.06537831 0.06559424 0.06872897 0.0715186 0.07172019 0.07014088 0.06892337 0.06887795 0.06921557 0.06920492
 0.06920562 0.07005444 0.07187189 0.07376289 0.07468539 0.07439779 0.07348916 0.07269283 0.07222423 0.07163628
 0.07045455 0.06913255 0.06897807 0.07071085 0.07346316 0.07567671 0.07666118 0.07681821 0.0765914 0.07570051
 0.07356912 0.0704399 0.06779511 0.06724289 0.068955 0.07157686 0.07362749 0.07454712 0.07452588 0.07396246
 0.07320495 0.07243815 0.07174625 0.07135807 0.07157955 0.07234251 0.07312469 0.0734791 0.07339182 0.07303171
 0.07243297 0.07157657 0.07061934 0.06988739 0.06963989 0.06987366 0.07037108 0.07089425 0.07126525 0.07132506
 0.07099327 0.07039326 0.0697752 0.06928806 0.06893438 0.06872693 0.06873566 0.06895041 0.06921636 0.06936169
 0.06933309 0.06917874 0.06895049 0.06866324 0.06833017 0.0680072 0.06778967 0.0677415 0.06781425 0.06787768
 0.06786792 0.06785342 0.06789897 0.0679272 0.06780286 0.06751716 0.06720349 0.06698824 0.06688991 0.06685039
 0.06679913 0.06666762 0.06639095 0.06596519 0.06551576 0.06524521 0.06526802 0.0655299 0.06589775 0.06625876
 0.06652053 0.0666164 0.06656118 0.06643695 0.06629248 0.06610466 0.06585257 0.06559093 0.06543579 0.06547797
 0.0656976 0.06597061 0.06617293 0.06625994 0.06625122 0.06619798 0.06617263 0.06621666 0.06627731 0.06625748
 0.06614275 0.0660267 0.06599873 0.06604487 0.06607158 0.06601249 0.06590298 0.06584186 0.06588034 0.0659733
 0.06604585 0.0660772 0.06610292 0.0661533 0.06620192 0.06617917 0.06604968 0.06586829 0.0657286 0.0656631
 0.0656347 0.06561847 0.06563802 0.06570952 0.06579302 0.06582607 0.06579188 0.06573317 0.06569425 0.06566457
 0.06559651 0.06547102 0.06532331 0.06520355 0.06513222 0.06509411 0.06505866 0.06500107 0.06491292 0.06479891
 0.06466752 0.06452498 0.06437344 0.06421732 0.06407958 0.06400205 0.06400491 0.06404454 0.06403568 0.06392847
 0.06375609 0.06359948 0.06350931 0.06346729 0.06342066 0.06334311 0.0632539 0.06318779 0.06316346 0.06317849
 0.06321703 0.0632621 0.06331641 0.06341271 0.06358419 0.06381527 0.06403691 0.06418673 0.06426802 0.06433859
 0.06444959 0.06460859 0.06479311 0.06498152 0.06517201 0.06538093 0.06561485 0.06584236 0.06601566 0.06612837
 0.0662291 0.06637031 0.06656754 0.06680773 0.0670608 0.06727783 0.06741944 0.06750321 0.06759487 0.06773888
 0.06792077 0.0681048 0.06828086 0.06846045 0.06864971 0.06884909 0.0690698 0.06933086 0.06963775 0.06997037
 0.07029095 0.0705654 0.07078964 0.07100183 0.07125948 0.07159311 0.07198137 0.07237183 0.07272558 0.07304485
 0.07336032 0.07369208 0.07403125 0.074367 0.07471751 0.07511176 0.07554723 0.07599003 0.0764156 0.07682812
 0.0772405 0.07765455 0.07806642 0.07848042 0.07891137 0.07937065 0.07984579 0.08029829 0.08069314 0.08103281
 0.08135684 0.0817104 0.08211266 0.08254077 0.0829373 0.08325388 0.08350627 0.08377048 0.08410208 0.08447291
 0.0848151 0.08511677 0.08543669 0.08582056 0.08623947 0.08662872 0.08696237 0.08726808 0.08758043 0.08789773
 0.0881834 0.08840379 0.08856697 0.08872049 0.08890702 0.08913386 0.08939525 0.08970317 0.09006794 0.09046008
 0.09082206 0.0911165 0.09134516 0.09153036 0.0916996 0.09187841 0.09207615 0.09228224 0.092485 0.0926809
 0.09286138 0.09301756 0.09316987 0.09336474 0.09362496 0.09392879 0.09425448 0.09461403 0.09501751 0.09543286
 0.09582198 0.09620242 0.09662715 0.09709655 0.09753336 0.09786375 0.09809079 0.09826686 0.09842932 0.09859997
 0.09881888 0.09912749 0.09951863 0.0999373 0.1003332 0.1006912 0.1010149 0.1013039 0.1015522 0.1017533
 0.1019055 0.102019 0.1021241 0.102264 0.1024742 0.102755 0.1030613 0.1033266 0.1035051 0.1035834
 0.1035529 0.1033997 0.103138 0.1028319 0.1025455 0.1022708 0.1019266 0.1014324 0.1007642 0.09994091
 0.09898589 0.09792264 0.09679738 0.09568733 0.09468038 0.09384932 0.09324744 0.09292518 0.09293431 0.0932925
 0.0939339 0.09470512 0.09541956 0.09591384 0.09606684 0.0958084 0.09514585 0.0941733 0.09302828 0.09183109
 0.09065887 0.08954714 0.08849543 0.08749365 0.08657697 0.08585882 0.08550146 0.08566038 0.08645419 0.08794457
 0.09008752 0.09268701 0.09542885 0.09800619 0.1002419 0.1021122 0.1036845 0.1050511 0.1062969 0.1074741
 0.1085851 0.1096024 0.110513 0.1113307 0.1120656 0.1127024 0.1132135 0.1135827 0.1138179 0.1139514
 0.1140231 0.1140611 0.1140818 0.114106 0.1141524 0.1142013 0.1141771 0.1139782 0.1135275 0.1128047
 0.1118571 0.1108161 0.1099302 0.109573 0.1101448 0.1118596 0.1145684 0.1177978 0.120994 0.1237647
 0.1259577 0.127603 0.1288256 0.1297756 0.1305773 0.1313055 0.1319912 0.1326409 0.1332514 0.1338221
 0.1343615 0.1348857 0.1354105 0.1359399 0.1364594 0.1369435 0.1373828 0.1378018 0.138245 0.1387382
 0.1392643 0.1397787 0.1402547 0.1407061 0.1411575 0.1416045 0.1420214 0.1424023 0.1427705 0.1431518
 0.1435592 0.1439959 0.144448 0.1448791 0.1452557 0.1455802 0.1458852 0.1462001 0.1465348 0.1468866
 0.1472479 0.1476068 0.1479547 0.1482969 0.1486517 0.1490279 0.1494056 0.149748 0.1500378 0.1502969
 0.1505655 0.1508644 0.1511807 0.1514882 0.15178 0.1520812 0.1524253 0.1528146 0.1532085 0.1535576
 0.1538471 0.1541048 0.15437 0.1546614 0.154974 0.1552971 0.1556235 0.1559474 0.1562639 0.1565748
 0.156886 0.1571986 0.1575058 0.1578018 0.158089 0.1583758 0.1586674 0.1589637 0.1592656 0.1595829
 0.1599276 0.1602936 0.1606511 0.1609691 0.161242 0.1614888 0.1617306 0.1619789 0.1622387 0.1625148
 0.1628092 0.1631186 0.1634362 0.1637547 0.1640694 0.16438 0.1646897 0.165001 0.1653101 0.1656097
 0.1658997 0.1661919 0.1664985 0.1668179 0.167135 0.1674372 0.167726 0.1680126 0.1683048 0.1685978
 0.1688792 0.1691437 0.1694016 0.1696684 0.1699481 0.1702321 0.1705117 0.1707853 0.1710567 0.1713319
 0.1716165 0.1719104 0.1722077 0.1725018 0.1727899 0.1730729 0.173353 0.1736326 0.1739126 0.1741917
 0.1744668 0.1747357 0.1750017 0.1752733 0.1755555 0.1758431 0.1761277 0.1764079 0.1766889 0.1769749
 0.1772647 0.1775517 0.1778284 0.1780941 0.1783555 0.1786196 0.1788892 0.1791647 0.1794461 0.1797317
 0.1800211 0.180314 0.1806046 0.180885 0.1811555 0.1814258 0.1817034 0.181989 0.1822802 0.1825726
 0.1828625 0.1831524 0.1834469 0.1837416 0.1840251 0.1842927 0.1845514 0.1848108 0.1850716 0.1853252
 0.1855655 0.1858012 0.1860493 0.1863182 0.186603 0.1868945 0.187183 0.187461 0.1877292 0.1879961
 0.1882669 0.1885412 0.1888177 0.189094 0.1893667 0.189638 0.1899144 0.190195 0.1904715 0.1907428
 0.1910144 0.1912892 0.1915699 0.1918614 0.1921632 0.1924662 0.1927617 0.1930453 0.1933176 0.1935857
 0.1938569 0.194128 0.1943912 0.1946477 0.1949042 0.1951635 0.1954273 0.1956967 0.1959671 0.196234
 0.1964988 0.196762 0.1970214 0.1972832 0.1975572 0.1978392 0.1981193 0.1983981 0.198679 0.1989588
 0.199237 0.1995191 0.1998052 0.2000916 0.2003746 0.2006432 0.2008863 0.2011143 0.2013455 0.2015698
 0.2017314 0.2016948 0.2011428 0.1994616 0.1957208 0.1888487 0.1780564 0.1633395 0.1456563 0.1265839
 0.1077305 0.09031957 0.07507862 0.06233581 0.05217019 0.04450577 0.03917746 0.03604655 0.03511687 0.03664547
 0.04126054 0.04958514 0.06084453 0.07164869 0.07732508 0.07560871 0.06880543 0.0616911 0.05755465 0.05662346
 0.05748738 0.0589393 0.06059469 0.06267703 0.06556962 0.06937659 0.0739051 0.07913831 0.08546632 0.0931845
 0.1018918 0.1106611 0.1188425 0.1265699 0.134439 0.1427818 0.1513175 0.1594293 0.1666519 0.1728976
 0.1783601 0.1833033 0.1879135 0.1922793 0.1964423 0.2003955 0.203998 0.206944 0.2089119 0.2098074
 0.209875 0.2095612 0.2092549 0.2091391 0.209237 0.2095245 0.2099782 0.2105745 0.2112915 0.2121087
 0.2129969 0.2139206 0.21485 0.2157582 0.2166176 0.2174123 0.218141 0.2188038 0.2193975 0.2199282
 0.2204157 0.2208829 0.2213432 0.221794 0.2222199 0.2226104 0.2229686 0.2233007 0.2236047 0.2238801
 0.2241365 0.2243825 0.2246189 0.2248459 0.2250703 0.2253007 0.2255402 0.2257843 0.2260228 0.2262486
 0.2264659 0.226685 0.2269106 0.2271399 0.2273681 0.2275902 0.2278027 0.2280085 0.2282148 0.2284248
 0.2286387 0.2288571 0.2290787 0.2292984 0.2295141 0.2297305 0.2299532 0.2301826 0.2304144 0.2306426
 0.2308644 0.2310856 0.2313139 0.2315487 0.2317864 0.2320291 0.2322786 0.2325304 0.2327835 0.2330421
 0.2332972 0.2335225 0.2337036 0.2338604 0.2340335 0.2342508 0.2345061 0.2347693 0.2350188 0.2352601
 0.235507 0.2357548 0.2359855 0.2361892 0.2363799 0.2365942 0.2368636 0.2371762 0.2374866 0.2377702
 0.2380419 0.238317 0.2385928 0.2388674 0.239137 0.2393739 0.2395502 0.2396905 0.2398754 0.2401774
 0.2405926 0.2410355 0.2414138 0.2417087 0.2419685 0.2422457 0.2425615 0.2428897 0.2431356 0.2431999
 0.2431328 0.2431611 0.2434841 0.2440755 0.2447381 0.2453029 0.2457336 0.2460824 0.2463989 0.2466766
 0.2468611 0.2469129 0.2468877 0.2469534 0.2472778 0.2478579 0.2485048 0.2490323 0.249405 0.2496804
 0.2499076 0.2501148 0.2502636 0.2501908 0.2497787 0.2492598 0.2491615 0.2497976 0.2509109 0.2519413
 0.2525803 0.2529384 0.2532368 0.2535364 0.2537865 0.2538817 0.2535541 0.2525249 0.2510463 0.2500524
 0.2503895 0.251965 0.253903 0.2554181 0.2563092 0.2567674 0.2570414 0.2572728 0.2573861 0.2570893
 0.2562027 0.2551002 0.2546133 0.2552569 0.2566482 0.2579201 0.2586093 0.2588931 0.2591183 0.2594162
 0.2596166 0.2592043 0.2576098 0.2550497 0.2529484 0.2529361 0.2552565 0.2584772 0.2609099 0.2620589
 0.2624862 0.2625764 0.26197 0.2602143 0.2574463 0.254337 0.2518901 0.251302 0.2531616 0.256465
 0.25919 0.2602879 0.260566 0.2613568 0.2629326 0.264513 0.2652859 0.2650355 0.2640043 0.2624525
 0.2605332 0.2587031 0.2579702 0.2591816 0.2619955 0.2650028 0.2670319 0.2680359 0.2684748 0.267945
 0.2649115 0.2585532 0.2510644 0.2470444 0.2494352 0.2564417 0.263464 0.2676235 0.2693304 0.2701125
 0.2705718 0.2702251 0.2677779 0.2618281 0.2530762 0.2457122 0.2445781 0.2503764 0.2588754 0.2648627
 0.2656994 0.2615918 0.2546433 0.2482336 0.2456501 0.2480899 0.2541251 0.2611143 0.2667971 0.269911
 0.2701685 0.2681367 0.2651945 0.2631952 0.263128 0.263657 0.2621282 0.2579169 0.2534638 0.2506874
 0.2480162 0.2433025 0.2385364 0.2385202 0.2446224 0.2524936 0.2569529 0.2572305 0.2560351 0.2546247
 0.2506589 0.2415775 0.2294553 0.2210769 0.2219865 0.2307334 0.240174 0.2444526 0.2436378 0.241625
 0.2409305 0.2401439 0.2359637 0.2275292 0.2185606 0.2142321 0.2156999 0.2190886 0.2200913 0.2174325
 0.2113666 0.2022441 0.1929002 0.1895237 0.1963968 0.2105888 0.2242607 0.2311121 0.2286603 0.2168073
 0.1986513 0.1822149 0.1765183 0.1835346 0.1958177 0.2033688 0.2015599 0.1919069 0.1777469 0.161939
 0.1481549 0.1412659 0.1443661 0.1555954 0.1684148 0.1749856 0.1704943 0.1568096 0.142537 0.1368087
 0.1410881 0.1483101 0.1508114 0.1472235 0.1412652 0.1368601 0.1358434 0.1378408 0.1407295 0.1425811
 0.143194 0.1419943 0.1359721 0.1234664 0.1092024 0.1011553 0.1022151 0.1087735 0.1172732 0.1272616
 0.1370445 0.1415981 0.1383232 0.1321696 0.1314318 0.1389554 0.1496647 0.156632 0.1578718 0.156669
 0.1564639 0.1570889 0.1566875 0.155978 0.1582804 0.164963 0.1730384 0.1785072 0.180503 0.1808517
 0.1810015 0.1809646 0.1803677 0.1790901 0.1771939 0.1750283 0.1731109 0.1715309 0.1698681 0.1678066
 0.1651271 0.1608749 0.1536268 0.1436767 0.1343127 0.1292599 0.1288013 0.1301049 0.1313085 0.1325482
 0.1322309 0.1260419 0.1126845 0.09843986 0.09252468 0.0981962 0.1104104 0.1215573 0.1272287 0.1264939
 0.1196228 0.1083566 0.09786861 0.09513088 0.103216 0.118376 0.1340829 0.1465742 0.1551409 0.1590832
 0.1573263 0.1508847 0.1437266 0.1405311 0.1439117 0.1532427 0.1647585 0.1724039 0.1708052 0.1607297
 0.1516193 0.1545696 0.1704989 0.188377 0.197608 0.1987916 0.199165 0.2014008 0.2023912 0.2012895
 0.2026014 0.2099607 0.2207095 0.228496 0.228834 0.2208332 0.2065352 0.1913086 0.1824707 0.1835087
 0.190257 0.1955406 0.1961479 0.1923794 0.1838252 0.1711906 0.1607845 0.1606617 0.1712457 0.1843116
 0.1923504 0.195395 0.1975479 0.1999317 0.199365 0.1932097 0.1837838 0.1768907 0.1760591 0.1794506
 0.1828973 0.1842615 0.1834592 0.1800124 0.1733819 0.1656369 0.1614018 0.1638638 0.1715302 0.1796817
 0.1846156 0.1859506 0.1854493 0.1847614 0.1843144 0.1834959 0.1818284 0.1804677 0.1819434 0.1873739
 0.1945401 0.2001149 0.2034635 0.2068163 0.2118046 0.2172104 0.2204402 0.2203634 0.2184132 0.2173692
 0.2191421 0.2232444 0.2271354 0.228376 0.2269401 0.2254448 0.226725 0.2311075 0.2363852 0.2402926
 0.2423443 0.2433507 0.2440787 0.2446161 0.2443465 0.2424521 0.239153 0.2364261 0.2366183 0.2401175
 0.2449601 0.2488096 0.2507909 0.2513852 0.2512215 0.2504211 0.2489273 0.2470659 0.2455437 0.2449116
 0.245178 0.2459735 0.2469268 0.2478148 0.2485286 0.2490556 0.2494522 0.2497647 0.2500049 0.2501986
 0.2503766 0.2505072 0.2505253 0.2504647 0.2504796 0.2506695 0.2509337 0.2510628 0.2509235 0.2504745
 0.2496582 0.2484083 0.2467675 0.2448827 0.2428442 0.240632 0.2383221 0.2363085 0.2351892 0.2353309
 0.2365379 0.2381802 0.2396348 0.2405988 0.2410793 0.2412288 0.24123 0.2412366 0.2413295 0.2415051
 0.2417175 0.2419326 0.242146 0.2423626 0.2425775 0.2427918 0.243036 0.2433557 0.2437656 0.2442298
 0.24469 0.2451084 0.2454821 0.2458235 0.2461255 0.2463444 0.2464208 0.2463198 0.2460544 0.2456757
 0.2452468 0.2448152 0.2443866 0.2439167 0.2433404 0.2426115 0.2417018 0.2405731 0.2392024 0.2376568
 0.2360935 0.2346449 0.233328 0.2320802 0.2308371 0.2295505 0.2281797 0.226712 0.2251759 0.22361
 0.2220305 0.2204367 0.2188283 0.2172059 0.2155628 0.2138871 0.2121658 0.2103845 0.2085244 0.2065619
 0.2044617 0.2021608 0.1995657 0.1965784 0.1931274 0.189177 0.1847374 0.1798913 0.1748036 0.1696831
 0.1647225 0.1600612 0.1557849 0.1519539 0.1486328 0.1458856 0.1437483 0.1422225 0.141301 0.1409854
 0.1412765 0.1421542 0.1435563 0.1453658 0.1474243 0.1495679 0.1516577 0.1536006 0.1553725 0.1570285
 0.1586657 0.1603475 0.1620544 0.1637101 0.1652507 0.1666556 0.1679192 0.1690256 0.1699639 0.1707411
 0.1713688 0.1718604 0.172251 0.1725941 0.1729297 0.17327 0.1736167 0.1739763 0.1743645 0.1748047
 0.175319 0.1759234 0.1766371 0.1774855 0.1784803 0.1796025 0.1808119 0.1820704 0.183362 0.1846999
 0.1861101 0.1876094 0.1892155 0.1909736 0.1929416 0.1951382 0.1975154 0.1999762 0.2024082 0.2047064
 0.2067832 0.208573 0.2100447 0.2112161 0.2121402 0.2128692 0.213438 0.2138734 0.2141976 0.2144285
 0.2145885 0.2146959 0.2147351 0.2146573 0.2144224 0.214031 0.2135178 0.2129372 0.212352 0.2118207
 0.2113861 0.2110723 0.210881 0.2107888 0.2107549 0.21073 0.2106652 0.21053 0.2103204 0.2100385
 0.2096723 0.2092051 0.208627 0.2079261 0.2070831 0.2060862 0.2049418 0.2036684 0.2022912 0.2008375
 0.1993249 0.1977535 0.1961123 0.1943927 0.192603 0.1907682 0.1889044 0.1870016 0.1850564 0.1831144
 0.1812516 0.179509 0.1778664 0.1762731 0.1746894 0.1731059 0.1715391 0.1700092 0.1685247 0.1670917
 0.165724 0.1644309 0.1632049 0.1620379 0.1609418 0.1599473 0.159083 0.1583499 0.1577142 0.1571308
 0.1565767 0.1560554 0.155582 0.1551813 0.1548857 0.1547037 0.1545912 0.1544752 0.1543099 0.1541021
 0.153885 0.153679 0.1534815 0.1532834 0.1530764 0.1528371 0.1525132 0.1520307 0.1513061 0.1502662
 0.1488873 0.1472211 0.1453701 0.1434434 0.1415422 0.139763 0.1381871 0.1368691 0.1358291 0.1350374
 0.1344163 0.1338913 0.1334489 0.133138 0.1330173 0.1330814 0.1332173 0.1332631 0.1331538 0.1329978
 0.1329839 0.1332234 0.1336841 0.1342326 0.1347259 0.135093 0.1353456 0.1355201 0.1356368 0.1357069
 0.135726 0.1356533 0.1354433 0.1351003 0.1346783 0.1342342 0.1337897 0.1333182 0.1327672 0.1321119
 0.1313687 0.1305521 0.1296536 0.1286617 0.1275571 0.1263222 0.1250255 0.123872 0.1231037 0.1228488
 0.1230626 0.123571 0.1241853 0.1248159 0.1254258 0.1258653 0.1259223 0.1256727 0.1256512 0.126462
 0.1281943 0.1303107 0.1321139 0.1332361 0.1336805 0.1335608 0.1329521 0.1319145 0.1304856 0.1286592
 0.1264621 0.1239965 0.1213639 0.118654 0.1160205 0.1136374 0.1115914 0.1098959 0.1085454 0.1075748
 0.1070944 0.1067686 0.1049477 0.09953902 0.09124075 0.08498075 0.08578423 0.09312923 0.1013113 0.1054796
 0.1055017 0.1039586 0.1026339 0.1018124 0.101412 0.1015395 0.1022839 0.1035175 0.104899 0.1060524
 0.1067979 0.1071446 0.1070546 0.1062525 0.1041611 0.1000729 0.09372224 0.08583361 0.07789615 0.07129446
 0.06668748 0.06400378 0.06271061 0.06212693 0.06177364 0.06158867 0.0618205 0.0627239 0.0643561 0.06661369
 0.0693527 0.07235983 0.07526509 0.07769249 0.0795507 0.08102287 0.08224253 0.0831309 0.08356497 0.08355188
 0.08320647 0.08266003 0.0820166 0.08132873 0.08057369 0.0796786 0.07863641 0.0776193 0.07689361 0.07656515
 0.07648903 0.07647233 0.07645398 0.07644746 0.07643984 0.07640754 0.07635389 0.0763199 0.07639828 0.07667838
 0.07712498 0.07757419 0.077885 0.07805082 0.0781579 0.07824868 0.07821369 0.0778833 0.07729877 0.07675551
 0.07641272 0.07601367 0.07523467 0.07420682 0.07344161 0.07327782 0.07358634 0.07398605 0.07418663 0.07412891
 0.07395886 0.07394254 0.07428703 0.07490295</values></Ydata></ScSm><ScRf><Ydata ylabel="Single channel"><values byteorder="INTEL" format="FLOAT32" numvalues="1820"> 0.06067412 0.06083265 0.06093137 0.06097044 0.06097125 0.06097564 0.06103256 0.06116781 0.0613602 0.06155015
 0.06168283 0.06174721 0.06176283 0.06173733 0.0616712 0.06160601 0.06162186 0.06176084 0.06197134 0.06214185
 0.06218933 0.06213257 0.06208628 0.06214967 0.06227538 0.06227576 0.06200045 0.06150837 0.06103074 0.06075452
 0.06070109 0.06085812 0.06129847 0.06197376 0.06247291 0.06231281 0.06154542 0.06079108 0.06054997 0.06072163
 0.06089228 0.06081495 0.06048792 0.06006282 0.05988626 0.06040388 0.06172189 0.0632484 0.06390597 0.06280876
 0.05989448 0.05612944 0.05315327 0.05239855 0.05408122 0.05691066 0.0590577 0.05961423 0.0590312 0.05819407
 0.05746803 0.0568097 0.05638518 0.05660761 0.05756612 0.05863771 0.05880842 0.0575413 0.05541538 0.05371553
 0.05325996 0.05388695 0.05514142 0.05677125 0.05802743 0.05726881 0.0535764 0.04879216 0.04669575 0.04941201
 0.05514507 0.05993562 0.06118277 0.05910259 0.05558033 0.05260641 0.0515194 0.05264463 0.05524822 0.05815116
 0.06043981 0.06148992 0.06080558 0.05845793 0.05550934 0.05349231 0.05346163 0.05558299 0.05910642 0.06243617
 0.06385066 0.06277148 0.06015109 0.05746941 0.0557587 0.05559834 0.05725793 0.06041648 0.06415162 0.06747272
 0.06971891 0.07062207 0.0703702 0.06949516 0.06846625 0.06759902 0.06733295 0.06796777 0.06893793 0.06902231
 0.06767357 0.0657548 0.06465439 0.06485075 0.06552987 0.06557424 0.06469444 0.06324798 0.06113215 0.05775908
 0.05340273 0.0495632 0.0474674 0.04713414 0.04826758 0.05073327 0.05349875 0.05456663 0.05315384 0.05109211
 0.0510087 0.05352533 0.05693348 0.05928908 0.06021673 0.06078302 0.0621153 0.06424271 0.06595156 0.06570166
 0.06315518 0.06003708 0.05891914 0.06069475 0.06371626 0.06582072 0.06661493 0.06723175 0.06835537 0.06916171
 0.0681808 0.06504313 0.06140671 0.05992458 0.06193222 0.06611162 0.06944788 0.06945522 0.06584905 0.06061582
 0.05646856 0.05496879 0.05610889 0.05934846 0.06421389 0.06974798 0.07425734 0.07625525 0.07553756 0.07311685
 0.07006398 0.06651349 0.06220207 0.05810481 0.05665006 0.05942912 0.06515959 0.0707497 0.07405573 0.07495401
 0.07414289 0.07182032 0.06788255 0.06321394 0.0601169 0.06052556 0.06367481 0.06652762 0.06695484 0.06568143
 0.06472854 0.06489182 0.06543933 0.06566706 0.0659112 0.06698037 0.06899859 0.07110162 0.07227126 0.07225744
 0.07162362 0.07109366 0.07089476 0.07058981 0.06969654 0.06865075 0.06875554 0.07074931 0.07378396 0.07629298
 0.07756248 0.07799321 0.07804976 0.07744962 0.07557248 0.07262361 0.07011595 0.06974801 0.07175843 0.07477163
 0.07722786 0.07850914 0.07879643 0.07849964 0.07797705 0.07742662 0.07695158 0.07680476 0.07731782 0.07842738
 0.07957381 0.08025671 0.08044052 0.08030654 0.07989976 0.07920239 0.07838729 0.07781698 0.07778196 0.07828369
 0.07908638 0.07992889 0.08061156 0.08094754 0.08082871 0.08037972 0.07988957 0.07954688 0.0793655 0.07935946
 0.07960891 0.08010116 0.08064878 0.08104424 0.08122684 0.08125912 0.08120579 0.08108373 0.08090167 0.08071611
 0.08063766 0.0807514 0.0810143 0.08128513 0.08149397 0.08171283 0.08199619 0.0822325 0.08225724 0.08207124
 0.08185074 0.08175734 0.08181023 0.08193172 0.08203705 0.08204769 0.08188044 0.08151931 0.08111319 0.08091958
 0.08109832 0.08159886 0.08225208 0.08288908 0.08336668 0.08360214 0.08364031 0.08360865 0.08357038 0.08348015
 0.08329807 0.08309437 0.08302189 0.08319525 0.08358997 0.08405706 0.08444209 0.08467719 0.08477667 0.08481097
 0.08488569 0.08505825 0.08525237 0.08532992 0.08526821 0.0851986 0.08524756 0.08539066 0.08549002 0.08545466
 0.08534394 0.0853069 0.08542709 0.08564939 0.08586332 0.08602773 0.08619198 0.08640502 0.08661957 0.0867086
 0.08660107 0.08638291 0.08621404 0.08615862 0.08616295 0.08619267 0.08629925 0.08651655 0.08676325 0.08691072
 0.08692665 0.08690359 0.08693959 0.08702212 0.08705041 0.08695623 0.08677601 0.08660865 0.08653048 0.08655342
 0.08663536 0.08671118 0.08672623 0.08666341 0.08654813 0.08642375 0.08632269 0.08626798 0.08629729 0.08645087
 0.0867056 0.08693588 0.08698687 0.08681156 0.08652529 0.08630633 0.08623847 0.08625228 0.08621341 0.08605368
 0.08581299 0.08557507 0.08538969 0.08525491 0.08514684 0.08505197 0.08498645 0.08499377 0.08510087 0.0852557
 0.08533143 0.08523105 0.08498475 0.08471817 0.08453588 0.08445801 0.08444539 0.0844479 0.08444392 0.08446104
 0.08453636 0.08464091 0.08468542 0.08462594 0.08452204 0.08447172 0.08453064 0.08469726 0.08491536 0.08507809
 0.08509582 0.08498923 0.08487531 0.08484651 0.08489878 0.08498026 0.08506282 0.08514611 0.08522917 0.08531201
 0.08541559 0.08557512 0.08580667 0.08608393 0.0863467 0.08653649 0.08664217 0.08672179 0.08686692 0.08712648
 0.08746368 0.08779132 0.08804763 0.08823769 0.08840824 0.0885907 0.08877872 0.08896405 0.08917226 0.08943729
 0.08975186 0.09007374 0.09037724 0.09067069 0.09096659 0.09126194 0.09155291 0.09185544 0.0922043 0.09262097
 0.09306896 0.0934547 0.09370238 0.09383026 0.0939393 0.09413368 0.09445311 0.09484643 0.09519354 0.09539564
 0.09547853 0.09557623 0.0957826 0.09605457 0.09629905 0.09651713 0.09680408 0.09721391 0.09767468 0.09805513
 0.09829256 0.098441 0.09860104 0.09881157 0.09901761 0.09914797 0.09920821 0.09927104 0.09938534 0.09954196
 0.09973933 0.1000239 0.1004229 0.100873 0.1012652 0.1015437 0.1017294 0.1018678 0.1019883 0.1020966
 0.102177 0.1022165 0.1022403 0.1022969 0.1023911 0.1024692 0.1024939 0.1025017 0.102561 0.1027039
 0.1029242 0.1032086 0.1035311 0.1038398 0.1041015 0.1043557 0.1046751 0.1050543 0.1053839 0.1055661
 0.1056207 0.1056389 0.1056683 0.1057011 0.1057553 0.1058935 0.1061489 0.1064807 0.106826 0.1071622
 0.1075029 0.1078511 0.1081724 0.10841 0.1085237 0.1085258 0.1084819 0.1084792 0.108584 0.108814
 0.1091302 0.1094615 0.1097459 0.1099492 0.1100504 0.1100418 0.1099695 0.1099406 0.1100414 0.1102396
 0.1103983 0.1103933 0.1101928 0.1098278 0.1093267 0.1087074 0.1080162 0.1073416 0.1067767 0.1063752
 0.1061518 0.1061233 0.1063283 0.1067833 0.1074262 0.1081308 0.1087831 0.10931 0.1096363 0.1096664
 0.1093519 0.1087561 0.1080192 0.107272 0.1065888 0.1059839 0.1054199 0.1048544 0.1043251 0.1039869
 0.1040374 0.1045978 0.105653 0.1070625 0.1086051 0.110053 0.1112622 0.1122221 0.1130145 0.113724
 0.1143908 0.1150354 0.1156869 0.1163568 0.1170046 0.1175699 0.1180399 0.1184556 0.1188544 0.1192345
 0.1195742 0.1198585 0.1200925 0.1203035 0.1205156 0.1207062 0.1208118 0.1207981 0.1207026 0.1205878
 0.1204715 0.120317 0.1200718 0.1197106 0.1192702 0.1188702 0.1186927 0.1189064 0.1195741 0.1206139
 0.1218596 0.1231638 0.124437 0.1255987 0.1265475 0.1272182 0.1276456 0.1279396 0.1282031 0.128488
 0.1288023 0.1291307 0.1294498 0.1297443 0.130017 0.1302879 0.1305839 0.1309173 0.1312646 0.1315762
 0.1318234 0.1320357 0.1322829 0.1326118 0.1330006 0.1333821 0.1337173 0.1340325 0.1343654 0.1346927
 0.134951 0.1351228 0.1352676 0.1354637 0.1357477 0.1361046 0.1364813 0.1368081 0.1370438 0.1372126
 0.1373804 0.1375901 0.1378356 0.1380904 0.1383391 0.1385796 0.1388157 0.1390584 0.1393258 0.1396243
 0.1399271 0.1401847 0.1403687 0.1405043 0.1406479 0.1408354 0.1410561 0.141275 0.1414766 0.1416868
 0.1419474 0.1422654 0.1425893 0.142848 0.1430133 0.1431196 0.1432272 0.143375 0.1435655 0.1437821
 0.1440085 0.1442349 0.1444569 0.1446748 0.144892 0.1451085 0.1453181 0.1455165 0.1457103 0.1459119
 0.1461254 0.1463413 0.1465532 0.1467769 0.1470389 0.1473379 0.147631 0.1478717 0.1480537 0.1482037
 0.1483448 0.1484844 0.1486284 0.1487869 0.1489643 0.1491565 0.1493568 0.1495591 0.14976 0.1499621
 0.1501716 0.1503898 0.1506114 0.1508316 0.1510519 0.1512774 0.1515098 0.1517415 0.1519594 0.1521561
 0.1523381 0.1525218 0.1527194 0.1529285 0.1531329 0.1533176 0.1534854 0.1536551 0.1538414 0.1540403
 0.1542378 0.1544273 0.1546147 0.154808 0.1550058 0.1551993 0.1553824 0.1555597 0.1557456 0.155953
 0.1561822 0.1564165 0.1566336 0.1568243 0.1569999 0.1571783 0.1573672 0.1575619 0.1577566 0.1579527
 0.1581552 0.1583645 0.1585742 0.1587772 0.1589714 0.1591595 0.159348 0.1595443 0.1597508 0.1599626
 0.1601722 0.160376 0.1605735 0.1607673 0.1609652 0.1611761 0.1613988 0.1616216 0.1618344 0.1620381
 0.1622405 0.1624492 0.1626652 0.1628835 0.1630991 0.1633134 0.1635309 0.1637522 0.1639711 0.1641763
 0.1643579 0.1645206 0.164683 0.1648582 0.1650406 0.1652192 0.165395 0.165576 0.1657652 0.1659591
 0.1661532 0.166346 0.1665393 0.1667358 0.1669367 0.1671441 0.1673602 0.1675789 0.1677879 0.1679837
 0.1681756 0.1683731 0.168578 0.1687889 0.1690034 0.1692185 0.1694343 0.1696525 0.1698701 0.1700833
 0.1702924 0.1704972 0.1706969 0.1708985 0.1711128 0.1713392 0.1715658 0.1717828 0.1719858 0.1721768
 0.172368 0.1725712 0.172783 0.1729915 0.1731933 0.1733927 0.1735941 0.1738043 0.1740282 0.1742588
 0.1744856 0.1747082 0.174928 0.1751396 0.1753416 0.1755413 0.1757445 0.1759569 0.176184 0.17642
 0.1766466 0.1768556 0.1770509 0.1772257 0.1773408 0.1772822 0.1767714 0.1752679 0.1719535 0.1658843
 0.1563624 0.1433777 0.1277676 0.1109216 0.0942672 0.07889472 0.0654477 0.05420647 0.04523183 0.03845829
 0.03374942 0.03098639 0.0301633 0.03149212 0.03552064 0.04280955 0.05270283 0.06223672 0.0672899 0.06583344
 0.05986746 0.05359805 0.04994337 0.04911912 0.04988245 0.05116245 0.05261491 0.05443608 0.05696829 0.06031147
 0.06430139 0.06892043 0.07450316 0.0813044 0.08897555 0.09670568 0.1039174 0.1107204 0.1176451 0.1250025
 0.1325548 0.1397492 0.1461591 0.1516982 0.1565362 0.1609066 0.1649726 0.1688118 0.1724676 0.1759479
 0.1791375 0.1817595 0.1835123 0.1842997 0.1843418 0.1840487 0.1837767 0.1836882 0.1837956 0.1840685
 0.1844808 0.1850101 0.1856415 0.1863643 0.1871551 0.1879779 0.1888016 0.1896055 0.1903747 0.1910998
 0.1917753 0.1923943 0.192953 0.1934568 0.1939135 0.1943272 0.194705 0.1950612 0.1954062 0.1957441
 0.1960775 0.1964052 0.1967182 0.1970045 0.1972572 0.1974773 0.197678 0.1978805 0.1980954 0.1983142
 0.1985253 0.1987295 0.198933 0.1991374 0.1993424 0.1995496 0.199758 0.1999625 0.2001594 0.2003491
 0.2005368 0.2007298 0.2009288 0.201127 0.2013209 0.2015179 0.2017233 0.2019301 0.2021263 0.2023107
 0.2024943 0.2026885 0.2028923 0.2030938 0.203288 0.2034878 0.2037086 0.203944 0.2041731 0.2043851
 0.2045831 0.2047725 0.2049598 0.2051559 0.2053627 0.2055634 0.2057393 0.2058962 0.2060649 0.2062719
 0.2065097 0.206744 0.2069512 0.2071385 0.2073246 0.2075142 0.2077008 0.2078781 0.208048 0.2082294
 0.2084509 0.2087181 0.2090011 0.2092695 0.2095197 0.2097594 0.2099927 0.2102249 0.2104529 0.2106493
 0.2107883 0.2108964 0.2110496 0.2113105 0.2116666 0.2120353 0.2123391 0.2125732 0.2127895 0.2130336
 0.213315 0.2136005 0.2138024 0.2138363 0.2137528 0.213758 0.2140268 0.2145294 0.2150876 0.2155583
 0.2159173 0.2162101 0.2164756 0.216708 0.2168618 0.2169 0.2168662 0.2169055 0.2171651 0.2176428
 0.2181779 0.2186175 0.2189382 0.2191852 0.2193859 0.2195526 0.219655 0.2195647 0.2191909 0.2187355
 0.2186449 0.2191782 0.2201131 0.2209832 0.2215377 0.2218667 0.2221401 0.2223983 0.2226056 0.2226831
 0.222396 0.2214875 0.2201719 0.2192772 0.2195599 0.2209433 0.2226537 0.2239987 0.2248019 0.2252297
 0.2254955 0.2257163 0.2258227 0.2255632 0.2247887 0.2238286 0.2234068 0.2239747 0.2252046 0.2263399
 0.2269689 0.2272403 0.227454 0.227724 0.2279039 0.2275465 0.2261544 0.2239176 0.2220864 0.2220907
 0.2241427 0.2269845 0.2291351 0.2301594 0.2305529 0.2306574 0.2301574 0.22865 0.2262491 0.223534
 0.2213779 0.2208402 0.2224648 0.225388 0.2278243 0.228833 0.229116 0.2298506 0.2312839 0.2327289
 0.2334613 0.2332799 0.2323951 0.231042 0.2293653 0.2277786 0.2271756 0.2282977 0.2308319 0.2335299
 0.2353615 0.2362928 0.2367348 0.236325 0.2336895 0.2280895 0.2214735 0.2179347 0.2200981 0.2263782
 0.232683 0.2364363 0.2379924 0.2387194 0.2391659 0.2389052 0.2367862 0.2315636 0.2238565 0.2173843
 0.21645 0.2216785 0.2293075 0.2347015 0.2355104 0.2319152 0.2257959 0.2201724 0.2179671 0.2202332
 0.2256984 0.2320192 0.2371869 0.2400785 0.2404373 0.2387554 0.2362456 0.2345594 0.2345907 0.2351569
 0.233897 0.2302598 0.2264202 0.2240818 0.2218343 0.2177583 0.213644 0.2138114 0.2194941 0.2267701
 0.2309701 0.2314142 0.230555 0.2295131 0.2261555 0.2181626 0.207418 0.2000886 0.2012356 0.2095601
 0.2185602 0.2228983 0.2226465 0.2213755 0.2213956 0.2213998 0.2183003 0.2112582 0.2037423 0.2006177
 0.2029625 0.2070967 0.2089331 0.207238 0.2022019 0.1941248 0.1857519 0.1831152 0.1904497 0.2050105
 0.219222 0.2269104 0.2255542 0.2149306 0.1980131 0.1828029 0.1784284 0.1869575 0.2008782 0.2100119
 0.209586 0.2010647 0.1877983 0.1727517 0.1599164 0.1547265 0.1608009 0.1762834 0.1938595 0.2043695
 0.201863 0.188253 0.1737921 0.1696989 0.1779086 0.1897001 0.1954573 0.1934037 0.1882429 0.1851251
 0.1866777 0.192517 0.1996472 0.2052849 0.2090812 0.2099364 0.202988 0.1854478 0.1643408 0.1518822
 0.1527943 0.1618733 0.1737445 0.1876943 0.20133 0.2072677 0.2014541 0.1908522 0.1875207 0.1958132
 0.2086519 0.2161916 0.21557 0.2114276 0.2087425 0.2075298 0.2053293 0.2029458 0.2046475 0.2122809
 0.2220491 0.2287497 0.2311835 0.2316923 0.2321875 0.2326941 0.2326896 0.2319846 0.230647 0.2291214
 0.2280922 0.227714 0.22747 0.2269583 0.2258583 0.222719 0.2152767 0.2036336 0.1922806 0.1865408
 0.1869235 0.1894869 0.1917005 0.19392 0.1939134 0.1853225 0.1660601 0.1451999 0.136375 0.1446036
 0.1625501 0.1788846 0.1869625 0.1853995 0.1746842 0.1573716 0.1407839 0.1347272 0.1435014 0.1617745
 0.1802802 0.1938065 0.2018014 0.2039454 0.1991527 0.188718 0.1775996 0.1715906 0.1737834 0.1831987
 0.1951171 0.2023076 0.1985663 0.1848764 0.1721299 0.1730997 0.1890424 0.2076067 0.216716 0.2168005
 0.2159066 0.2171893 0.2173425 0.2153732 0.2161297 0.2236505 0.2352315 0.2440971 0.2453502 0.2379046
 0.223867 0.2090408 0.2014151 0.2047216 0.2141299 0.2214509 0.2230383 0.2193083 0.2099112 0.1957668
 0.1841938 0.1845102 0.1972449 0.2129114 0.2227871 0.2268571 0.2298692 0.2331559 0.2330234 0.2263621
 0.2158545 0.208325 0.2079889 0.2127632 0.2177923 0.2205729 0.2209695 0.2182968 0.2117518 0.2037279
 0.1998508 0.2040841 0.2146007 0.2254576 0.2318834 0.2332609 0.2317534 0.2294991 0.2271663 0.2241102
 0.2197966 0.2156536 0.2148003 0.2187165 0.2249046 0.2294684 0.231579 0.2337479 0.2378708 0.2426147
 0.2450413 0.2438074 0.2404342 0.2379785 0.2385835 0.241781 0.2448408 0.2451037 0.2425151 0.2399167
 0.2404261 0.2444579 0.2496695 0.2536281 0.255794 0.257006 0.2580487 0.2589686 0.2590369 0.2572927
 0.253893 0.2509081 0.2508577 0.2542138 0.2589573 0.2626712 0.2644963 0.2650009 0.26486 0.26415
 0.2627349 0.2609005 0.2593698 0.2587313 0.2590129 0.2598348 0.2608031 0.2616793 0.2623484 0.2627982
 0.2630903 0.2632794 0.2633882 0.2634579 0.2635336 0.2635814 0.2635224 0.2633906 0.2633629 0.2635642
 0.2639031 0.2641675 0.2642173 0.2640024 0.2634565 0.2625108 0.261222 0.2597602 0.2582228 0.2565664
 0.2548358 0.2534237 0.2529597 0.2538383 0.255851 0.2583095 0.2605172 0.2621199 0.2631028 0.2636071
 0.2638078 0.2638674 0.2638867 0.2638693 0.2637624 0.2635376 0.2632201 0.2628535 0.2624626 0.2620638
 0.2616891 0.2613724 0.261108 0.2608395 0.2605029 0.260076 0.2595841 0.2590684 0.2585484 0.2580007
 0.2573701 0.2566107 0.2557238 0.2547628 0.25381 0.252938 0.2521644 0.2514377 0.2506858 0.2498741
 0.2489908 0.2479998 0.246872 0.2456742 0.2445677 0.2436789 0.242992 0.2423823 0.2417254 0.2409573
 0.2400729 0.2391051 0.2380968 0.2370674 0.2360043 0.2348879 0.233709 0.2324595 0.2311244 0.2296951
 0.2281774 0.2265884 0.2249529 0.2232961 0.2216148 0.2198476 0.2178791 0.2155698 0.2127876 0.2094392
 0.2055041 0.2010553 0.1962498 0.191292 0.1863884 0.1817108 0.1773846 0.1735017 0.1701401 0.1673727
 0.165262 0.1638483 0.1631474 0.1631587 0.1638692 0.1652432 0.1672085 0.1696541 0.1724381 0.1754001
 0.1783745 0.1812103 0.1838115 0.1861781 0.1883882 0.1905073 0.1925173 0.1943514 0.1959742 0.1973953
 0.1986267 0.1996671 0.2005243 0.2012258 0.2018021 0.2022755 0.2026645 0.2029917 0.2032791 0.2035376
 0.2037679 0.2039734 0.204168 0.2043669 0.204577 0.2047987 0.2050352 0.205305 0.2056448 0.2060846
 0.2066138 0.2071869 0.2077695 0.2083633 0.2089853 0.2096465 0.2103615 0.2111662 0.2121101 0.2132244
 0.2144937 0.2158603 0.2172517 0.2185947 0.2198077 0.2208093 0.2215515 0.222037 0.2222981 0.222373
 0.2222996 0.2221116 0.2218303 0.2214631 0.2210131 0.2204874 0.2199014 0.2192744 0.2186192 0.2179367
 0.217227 0.2165038 0.2157908 0.2151021 0.2144314 0.2137666 0.2131118 0.212485 0.211894 0.2113269
 0.2107669 0.2102059 0.2096395 0.2090639 0.2084781 0.2078786 0.2072439 0.206535 0.205722 0.2048037
 0.203796 0.2027053 0.2015235 0.2002474 0.1988883 0.1974583 0.1959572 0.1943804 0.1927292 0.1910047
 0.1891938 0.1872779 0.1852677 0.1832252 0.1812389 0.1793739 0.1776491 0.1760503 0.174553 0.1731379
 0.1717955 0.170522 0.169311 0.1681541 0.1670484 0.1659963 0.165001 0.1640666 0.1631968 0.1623956
 0.1616734 0.161045 0.1605114 0.1600506 0.1596356 0.1592584 0.1589424 0.1587353 0.1586711 0.1587232
 0.1588079 0.1588443 0.1588024 0.158699 0.1585708 0.15845 0.15835 0.1582719 0.1582165 0.1581637
 0.1580431 0.157748 0.1571814 0.1562884 0.1550666 0.1535615 0.1518427 0.1499962 0.1481441 0.1464346
 0.144978 0.1438135 0.1429341 0.1423006 0.1418346 0.1414523 0.1411286 0.1409152 0.1408909 0.1410723
 0.1413473 0.1415354 0.1415617 0.1415446 0.1416813 0.1420845 0.1427366 0.14353 0.1443245 0.1450101
 0.1455389 0.1459062 0.1461295 0.1462429 0.14627 0.1462086 0.146068 0.1458823 0.1456631 0.1453857
 0.145034 0.1446128 0.1441221 0.1435577 0.1429148 0.1421776 0.1413437 0.1404382 0.1394515 0.1383247
 0.1370845 0.1359414 0.135186 0.1350129 0.1354319 0.1362717 0.1372914 0.1383438 0.139364 0.1401868
 0.1405767 0.1405942 0.1407906 0.1418182 0.1438102 0.1462301 0.1483494 0.1497847 0.1505404 0.1507087
 0.1503291 0.1494445 0.1480739 0.1461671 0.143728 0.1408969 0.1378427 0.1347191 0.1317381 0.1290985
 0.1268617 0.1250115 0.1235447 0.1225225 0.122095 0.1218977 0.120028 0.1140412 0.1047135 0.09772006
 0.09885253 0.1075091 0.1171271 0.1221242 0.1223347 0.1207086 0.119271 0.1183144 0.1177424 0.1177288
 0.118422 0.1196705 0.1210711 0.1222191 0.1229497 0.123297 0.1232157 0.12235 0.1199679 0.1152098
 0.1077808 0.09855996 0.08930834 0.08164233 0.07629983 0.07315835 0.07159184 0.07082528 0.07030704 0.06997929
 0.07017873 0.07123379 0.07318089 0.07584409 0.07902937 0.08249925 0.08585764 0.08869849 0.09090877 0.09266832
 0.09412226 0.09518941 0.09571497 0.09568498 0.09524593 0.09459201 0.09387022 0.09313165 0.0923104 0.09128124
 0.09003192 0.08879171 0.08789256 0.08746956 0.08737454 0.08738416 0.08738574 0.08736426 0.08733192 0.08730162
 0.08727599 0.08727537 0.08738679 0.08770618 0.08819963 0.08868903 0.08900216 0.08910725 0.08910063 0.08905347
 0.08886132 0.08834445 0.08756475 0.08686129 0.08639282 0.0858321 0.08478956 0.08343072 0.08238657 0.08207601
 0.08233519 0.08269629 0.08282171 0.08265153 0.08235197 0.08223485 0.08255868 0.08322909 0.08377844 0.08379765
</values></Ydata></ScRf><Data_Parameters_AB><parameter name="DPF">1</parameter><parameter name="NPT">3497</parameter><parameter name="FXV">3996</parameter><parameter name="LXV">500</parameter><parameter name="CSF">1</parameter><parameter name="MXY">0.177513659000397</parameter><parameter name="MNY">-0.0740085691213608</parameter><parameter name="DAT">31/05/2022</parameter><parameter name="TIM">11:16:34.802 (GMT+2)</parameter><parameter name="DXU">WN</parameter></Data_Parameters_AB><AB__Qtest><MainReport name="Quality Test Report"><Header><Line><Legend>Test result ok/not ok [1/0]: </Legend><Value>0</Value></Line><Line><Legend>Method file: </Legend><Value>C:\Users\Public\Documents\Bruker\OPUS_8.2.28\QT\IRBT_v3_default.QT</Value></Line></Header><Matrix><Line><Legend></Legend><Legend>min</Legend><Legend>max</Legend><Legend>measured</Legend></Line><Line><Value>Absorption (X-Range 1):</Value><Value>0.400000</Value><Value>2.000000</Value><Value>0.234578</Value></Line><Line><Value>Noise (X-Range 4):</Value><Value></Value><Value>0.000300</Value><Value>0.000037</Value></Line><Line><Value>Signal/Noise (X-Range 2):</Value><Value>200.000000</Value><Value></Value><Value>167.117119</Value></Line><Line><Value>Signal/Noise (X-Range 3):</Value><Value>40.000000</Value><Value></Value><Value>65.113795</Value></Line><Line><Value>Water vapour (X-Range 5):</Value><Value></Value><Value>0.000300</Value><Value>0.000044</Value></Line><Line><Value>Signal/Water (X-Range 2):</Value><Value>100.000000</Value><Value></Value><Value>142.976148</Value></Line><Line><Value>Signal/Water (X-Range 3):</Value><Value>20.000000</Value><Value></Value><Value>55.707756</Value></Line><Line><Value>Fringes (X-Range 6):</Value><Value></Value><Value>0.000100</Value><Value>0.000083</Value></Line></Matrix></MainReport></AB__Qtest><Data_Parameters_ScSm><parameter name="DPF">1</parameter><parameter name="NPT">1814</parameter><parameter name="FXV">3996.33169228125</parameter><parameter name="LXV">499.541461535156</parameter><parameter name="CSF">1</parameter><parameter name="MXY">0.270571827888489</parameter><parameter name="MNY">0.0351168736815453</parameter><parameter name="DAT">31/05/2022</parameter><parameter name="TIM">11:16:34.802 (GMT+2)</parameter><parameter name="DXU">WN</parameter></Data_Parameters_ScSm><Data_Parameters_ScRf><parameter name="DPF">1</parameter><parameter name="NPT">1820</parameter><parameter name="FXV">4004.04661832813</parameter><parameter name="LXV">495.683998511719</parameter><parameter name="CSF">1</parameter><parameter name="MXY">0.265000939369202</parameter><parameter name="MNY">0.030163299292326</parameter><parameter name="DAT">31/05/2022</parameter><parameter name="TIM">11:16:07.719 (GMT+2)</parameter><parameter name="DXU">WN</parameter></Data_Parameters_ScRf><Optic_Parameters_Rf><parameter name="APR">0</parameter><parameter name="APT">Open</parameter><parameter name="BMS">KBr</parameter><parameter name="DTC">RT-DLaTGS_IR-Biotyper [Microplate reader]</parameter><parameter name="HPF">0</parameter><parameter name="LPF">10.0</parameter><parameter name="LPV">4000</parameter><parameter name="PGR">0</parameter><parameter name="RCH">Module port</parameter><parameter name="RDX">0</parameter><parameter name="SRC">MIR</parameter><parameter name="VEL">10.0</parameter><parameter name="SON">Off</parameter></Optic_Parameters_Rf><Acquisition_Parameters_Rf><parameter name="ADT">1</parameter><parameter name="AQM">DD</parameter><parameter name="CFE">0</parameter><parameter name="COR">0</parameter><parameter name="DEL">0</parameter><parameter name="DLY">0</parameter><parameter name="HFW">8000</parameter><parameter name="LFW">0</parameter><parameter name="NSR">32</parameter><parameter name="PLF">AB</parameter><parameter name="RES">6</parameter><parameter name="RGN">-1</parameter><parameter name="STR">0</parameter><parameter name="TCL">MakeCompatibleScalar (0, {WSV=1.000000, ARV=0});</parameter><parameter name="TDL">37</parameter><parameter name="RPO">0</parameter></Acquisition_Parameters_Rf><FT_-_Parameters_Rf><parameter name="APF">B3</parameter><parameter name="HFQ">500</parameter><parameter name="LFQ">4000</parameter><parameter name="NLI">0</parameter><parameter name="PHR">24</parameter><parameter name="PHZ">ML</parameter><parameter name="SPZ">NO</parameter><parameter name="ZFF">1</parameter></FT_-_Parameters_Rf><Optic_Parameters_><parameter name="APR">0</parameter><parameter name="APT">Open</parameter><parameter name="BMS">KBr</parameter><parameter name="CHN">Module port</parameter><parameter name="DTC">RT-DLaTGS_IR-Biotyper [Microplate reader]</parameter><parameter name="HPF">0</parameter><parameter name="LPF">10.0</parameter><parameter name="LPV">4000</parameter><parameter name="PGN">0</parameter><parameter name="RDX">0</parameter><parameter name="SRC">MIR</parameter><parameter name="VEL">10.0</parameter><parameter name="SON">Off</parameter></Optic_Parameters_><FT_-_Parameters_><parameter name="APF">B3</parameter><parameter name="HFQ">500</parameter><parameter name="LFQ">4000</parameter><parameter name="NLI">0</parameter><parameter name="PHR">24</parameter><parameter name="PHZ">ML</parameter><parameter name="SPZ">NO</parameter><parameter name="ZFF">1</parameter></FT_-_Parameters_><Acquisition_Parameters_><parameter name="ADT">1</parameter><parameter name="AQM">DD</parameter><parameter name="CFE">0</parameter><parameter name="COR">0</parameter><parameter name="DEL">0</parameter><parameter name="DLY">0</parameter><parameter name="HFW">8000</parameter><parameter name="LFW">0</parameter><parameter name="NSS">32</parameter><parameter name="PLF">AB</parameter><parameter name="RES">6</parameter><parameter name="SOT">0</parameter><parameter name="TCL">MakeCompatibleScalar (0, {WSV=1.000000, ARV=0});</parameter><parameter name="TDL">37</parameter><parameter name="SPO">0</parameter><parameter name="SGN">-1</parameter></Acquisition_Parameters_><Instrument_Parameters_Rf><parameter name="HFL">15800.168544</parameter><parameter name="LFL">0</parameter><parameter name="LWN">15800.168544</parameter><parameter name="ABP">32197</parameter><parameter name="SSP">1</parameter><parameter name="ARG">2</parameter><parameter name="ASG">2</parameter><parameter name="ASS">32</parameter><parameter name="GFW">16</parameter><parameter name="GBW">16</parameter><parameter name="BFW">0</parameter><parameter name="BBW">0</parameter><parameter name="PKA">7270</parameter><parameter name="PKL">4996</parameter><parameter name="PRA">7448</parameter><parameter name="PRL">5001</parameter><parameter name="P2A">1</parameter><parameter name="P2L">1</parameter><parameter name="P2R">1</parameter><parameter name="P2K">1</parameter><parameter name="DAQ">0</parameter><parameter name="AG2">1</parameter><parameter name="SSM">1</parameter><parameter name="RSN">25431</parameter><parameter name="CRR">0</parameter><parameter name="SRT">1653995767.719</parameter><parameter name="DUR">19.6379852294922</parameter><parameter name="TSC">28.9</parameter><parameter name="MVD">1.06301236152649</parameter><parameter name="AN1">0.225839561869536</parameter><parameter name="AN2">0</parameter><parameter name="VSN">2.485 Apr  4 2017</parameter><parameter name="SRN">0085</parameter><parameter name="CAM">0</parameter><parameter name="INS">IR-Biotyper</parameter><parameter name="FOC">69</parameter><parameter name="RDY">1</parameter><parameter name="ARS">32</parameter></Instrument_Parameters_Rf><Sample_Parameters_><parameter name="BLD"></parameter><parameter name="CNM">Admin</parameter><parameter name="CPY"></parameter><parameter name="DPM"></parameter><parameter name="EXP">IRBT_v3_32Scans.XPM</parameter><parameter name="LCT"></parameter><parameter name="SFM">Microplate, HTS-XT</parameter><parameter name="SNM">220531-1021(v.3)_CLA33F (D_13)_A6_659a8601-da7c-4f3d-b16a-5ce046f6a02c.0</parameter><parameter name="XPP">C:\Users\Public\Documents\Bruker\OPUS_8.2.28\XPM</parameter><parameter name="IST">OK</parameter><parameter name="CPG">1252</parameter><parameter name="UID">e1ce46e0-76e0-4038-a3cc-a26b862ed5ac</parameter></Sample_Parameters_><Instrument_Parameters_><parameter name="HFL">15800.168544</parameter><parameter name="LFL">0</parameter><parameter name="LWN">15800.168544</parameter><parameter name="ABP">32197</parameter><parameter name="SSP">1</parameter><parameter name="ASG">2</parameter><parameter name="ARG">2</parameter><parameter name="ASS">32</parameter><parameter name="GFW">16</parameter><parameter name="GBW">16</parameter><parameter name="BFW">0</parameter><parameter name="BBW">0</parameter><parameter name="PKA">7287</parameter><parameter name="PKL">4988</parameter><parameter name="PRA">7552</parameter><parameter name="PRL">4993</parameter><parameter name="P2A">1</parameter><parameter name="P2L">1</parameter><parameter name="P2R">1</parameter><parameter name="P2K">1</parameter><parameter name="DAQ">0</parameter><parameter name="AG2">1</parameter><parameter name="SSM">1</parameter><parameter name="RSN">13341</parameter><parameter name="CRR">0</parameter><parameter name="SRT">1653995794.803</parameter><parameter name="DUR">19.6379852294922</parameter><parameter name="TSC">28.8</parameter><parameter name="MVD">2.36591053009033</parameter><parameter name="AN1">0.225789653983881</parameter><parameter name="AN2">0</parameter><parameter name="VSN">2.485 Apr  4 2017</parameter><parameter name="SRN">0085</parameter><parameter name="CAM">0</parameter><parameter name="INS">IR-Biotyper</parameter><parameter name="FOC">69</parameter><parameter name="RDY">1</parameter></Instrument_Parameters_><History/></OPUSDataFile>
