<?xml version="1.0" encoding="UTF-8" ?>
<OPUSDataFile><AB><Ydata ylabel="Absorbance Units"><values byteorder="INTEL" format="FLOAT32" numvalues="3497"> 0.01267731 0.01259797 0.01255084 0.01253607 0.01255261 0.01260036 0.01265997 0.01273027 0.0127912 0.01284274
 0.01287372 0.01288626 0.01288099 0.01286173 0.01283765 0.01281111 0.01279091 0.01277497 0.01276493 0.01275653
 0.01274674 0.01273349 0.01271479 0.01269017 0.0126589 0.01262143 0.01257696 0.0125304 0.01248169 0.01244047
 0.01240784 0.01238811 0.01238158 0.01237952 0.01238104 0.0123715 0.01235137 0.01231489 0.01226531 0.01221052
 0.01215418 0.01210919 0.01207621 0.01206325 0.01206619 0.01208468 0.01211115 0.01213952 0.01216494 0.01218113
 0.01219394 0.01220202 0.01222045 0.01225359 0.01230693 0.01238469 0.01246701 0.01255346 0.01261249 0.0126423
 0.01262934 0.01257495 0.01249367 0.0123886 0.01228593 0.01218624 0.01210554 0.01204227 0.01200074 0.01197884
 0.01197608 0.01198772 0.01200837 0.01203402 0.01205801 0.01208441 0.01211266 0.01215039 0.01220214 0.01226457
 0.01233993 0.01241194 0.01247917 0.01252341 0.01254301 0.01252183 0.01245885 0.01234351 0.0121772 0.01197337
 0.01173962 0.01152866 0.01134768 0.01125765 0.01124518 0.0113136 0.01143538 0.0115628 0.01168694 0.01177468
 0.01183887 0.01187765 0.01190832 0.0119412 0.01198251 0.01204037 0.01210073 0.01216377 0.01220525 0.0122203
 0.01219942 0.01213921 0.01206273 0.01197101 0.01190121 0.01185319 0.01183348 0.0118365 0.01182962 0.01181027
 0.01174711 0.01165141 0.01153074 0.01140649 0.01132145 0.01127988 0.01131204 0.01138917 0.01150013 0.01161447
 0.01170956 0.01177829 0.011813 0.0118132 0.01177898 0.01170209 0.01158002 0.01141407 0.01120046 0.01098832
 0.01077976 0.0106868 0.01071014 0.01088798 0.01119898 0.01151994 0.01184185 0.01206314 0.01219561 0.0122173
 0.01214297 0.01198093 0.01176083 0.01151297 0.01128228 0.01111899 0.01103744 0.01107455 0.01117243 0.01132258
 0.01145481 0.01154227 0.01158171 0.01156452 0.01152909 0.01147923 0.01143311 0.01139225 0.01134623 0.01129491
 0.01123278 0.01116278 0.01110187 0.01105252 0.01103478 0.01104515 0.01108558 0.01115066 0.01123251 0.01132598
 0.01142427 0.01151698 0.01159441 0.01164641 0.01166275 0.01164539 0.01159004 0.01151221 0.01141332 0.0113145
 0.01121891 0.01114477 0.01109411 0.01108103 0.01110658 0.01117371 0.01128146 0.01141476 0.0115715 0.01173087
 0.01189129 0.01203686 0.01216481 0.01226003 0.01232134 0.01233665 0.01231506 0.01225891 0.01218785 0.01211878
 0.01206555 0.01204413 0.01204793 0.01208057 0.01212315 0.01217161 0.01221136 0.01223886 0.0122489 0.01224025
 0.01221388 0.01216969 0.01211355 0.01204608 0.01197791 0.01190956 0.01185055 0.01179945 0.01175626 0.01171832
 0.01167772 0.01163554 0.01158907 0.01154281 0.01150322 0.01146744 0.0114395 0.01140202 0.0113457 0.01125955
 0.01113028 0.01098273 0.01081595 0.01067855 0.01058171 0.01053729 0.01055047 0.01058877 0.01065 0.01073837
 0.01085511 0.01102961 0.01125479 0.01149672 0.01174369 0.01192646 0.01204945 0.01208459 0.01205194 0.01197239
 0.01186704 0.01177481 0.01169421 0.01164021 0.01159631 0.01155386 0.01151151 0.01146387 0.01142459 0.01139596
 0.01139066 0.01141241 0.01146121 0.0115387 0.01162893 0.01173125 0.01181922 0.01189135 0.01192001 0.0119059
 0.01183622 0.01172037 0.01158437 0.01144698 0.01137609 0.01136981 0.01146671 0.01162895 0.01182339 0.01202356
 0.0121891 0.01232763 0.01242928 0.01251718 0.01260011 0.01268795 0.0127893 0.01288562 0.01297599 0.01303661
 0.01306269 0.0130616 0.01303266 0.01302363 0.0130365 0.01311281 0.01324522 0.01340088 0.01356945 0.01368607
 0.01375779 0.01377 0.01373424 0.01366577 0.01356991 0.01345654 0.01333674 0.01321929 0.01312516 0.01307082
 0.01306349 0.01311317 0.01320695 0.01334146 0.01351543 0.01372819 0.01398046 0.01427435 0.01458542 0.01491246
 0.01522594 0.01552487 0.01579391 0.01603239 0.01622767 0.01637964 0.01647806 0.01652936 0.01654368 0.01653126
 0.01651708 0.01650331 0.01650205 0.01651456 0.01654096 0.01659812 0.01669734 0.01684614 0.0170581 0.01730156
 0.01757074 0.01783875 0.01809716 0.01834873 0.01859248 0.01883754 0.01908476 0.0193295 0.01957078 0.01978765
 0.01997933 0.02012635 0.02023596 0.02032224 0.02040527 0.02055044 0.02076292 0.02109851 0.02151122 0.02196622
 0.02241912 0.02280893 0.0231409 0.02339639 0.02360499 0.02377305 0.02393067 0.02408757 0.02426255 0.02446121
 0.02468934 0.02494825 0.02524042 0.02556618 0.02592586 0.0263188 0.02673112 0.0271602 0.02757832 0.0279853
 0.02836448 0.02871987 0.02905455 0.02937066 0.02967374 0.02996438 0.03024346 0.03051752 0.03079223 0.03107385
 0.0313707 0.03167553 0.03198647 0.03230006 0.03261031 0.03294022 0.0332933 0.03368778 0.03413086 0.03458247
 0.03504122 0.03544228 0.0357844 0.03605641 0.03626426 0.03644948 0.03661731 0.0368143 0.03703678 0.03730132
 0.037595 0.03790138 0.03820971 0.03849571 0.03876384 0.03900516 0.03924078 0.03948046 0.03974311 0.04004426
 0.04037298 0.04073299 0.04109311 0.0414473 0.04177782 0.04207997 0.04236327 0.04262751 0.04289957 0.0431805
 0.0434883 0.04382101 0.04417043 0.04453456 0.04489849 0.04526571 0.04563985 0.04602133 0.04641766 0.04681459
 0.04719714 0.04755124 0.04785265 0.04811331 0.04832934 0.0485287 0.04872449 0.04892795 0.04914828 0.04937283
 0.0496009 0.04981923 0.05002468 0.05022339 0.05041506 0.05062063 0.05084098 0.05109222 0.05137259 0.05167582
 0.05199736 0.05231228 0.05262018 0.05290403 0.05317266 0.05343505 0.05369919 0.05398426 0.05428068 0.05459112
 0.05489043 0.05516158 0.05539338 0.05556932 0.05571664 0.05583524 0.05597253 0.05613936 0.05635785 0.05663506
 0.05695115 0.05730582 0.05766431 0.05802527 0.05836956 0.05869767 0.05900623 0.05929475 0.05955897 0.0597983
 0.06000653 0.06018897 0.06035112 0.06050304 0.06066177 0.06083105 0.0610224 0.06122997 0.06145209 0.06168776
 0.06193429 0.06219957 0.06248791 0.06279317 0.06311853 0.06343327 0.06373348 0.06399976 0.06422889 0.06444855
 0.06466074 0.06491588 0.06521234 0.06556133 0.06595133 0.06633492 0.0667029 0.06699874 0.06723204 0.06739078
 0.06749848 0.06758437 0.06766074 0.06775437 0.06785521 0.06796429 0.06807201 0.0681697 0.06827032 0.06837418
 0.06850182 0.06865921 0.06884843 0.06907195 0.06931452 0.06957538 0.06983777 0.07010103 0.07035539 0.07060191
 0.07084446 0.07108719 0.07135206 0.07164126 0.07197692 0.07234886 0.07275138 0.07316351 0.07355306 0.07390694
 0.07419658 0.07443072 0.0746042 0.07473587 0.07483466 0.07490713 0.07495791 0.07498482 0.07498549 0.07497422
 0.0749502 0.07494774 0.07496946 0.07503876 0.07515619 0.07531627 0.07551765 0.07574599 0.076001 0.07627604
 0.07656739 0.07686263 0.07715335 0.07741427 0.0776457 0.07783143 0.0779922 0.07813912 0.07829967 0.07850001
 0.07874166 0.07904016 0.07935712 0.07968721 0.07998332 0.0802311 0.08042357 0.08055414 0.08066121 0.08074727
 0.08084291 0.08094861 0.08104447 0.08112758 0.08115894 0.08114354 0.08108211 0.08098827 0.08090457 0.08083897
 0.08083143 0.08087512 0.08098006 0.08112921 0.08131094 0.08150703 0.08170066 0.08188435 0.08204612 0.08220182
 0.08235089 0.08252243 0.08272516 0.08296246 0.08324057 0.08351447 0.08378217 0.08398482 0.0841203 0.08417514
 0.08415411 0.08409828 0.08401223 0.08394172 0.08388348 0.08385001 0.08383892 0.0838481 0.08388442 0.08395897
 0.08407155 0.0842329 0.08441902 0.08461907 0.08480624 0.08495959 0.08508613 0.08517867 0.08527199 0.08537327
 0.08550214 0.08566515 0.08584549 0.08604327 0.08622496 0.08638896 0.08651129 0.08659261 0.0866289 0.0866245
 0.08659694 0.08655385 0.08652812 0.08652436 0.08657157 0.08666135 0.08679863 0.08696051 0.0871269 0.08727689
 0.08738548 0.08745661 0.08748037 0.08748627 0.08748045 0.08749139 0.0875277 0.08759757 0.08770339 0.08784631
 0.08802608 0.08825456 0.08853222 0.08886595 0.08925207 0.08965929 0.09007736 0.09043714 0.09073249 0.09090179
 0.09095887 0.090895 0.090747 0.09056126 0.09037739 0.0902579 0.09021007 0.09026952 0.09039229 0.09057461
 0.09074635 0.09088292 0.09094153 0.09090227 0.09078164 0.09057501 0.09033919 0.0900782 0.08984052 0.08962837
 0.08945528 0.08932008 0.08921466 0.08913848 0.08908445 0.08905368 0.08904655 0.08906303 0.08910592 0.08916765
 0.08924372 0.08931163 0.08935076 0.08933119 0.08922192 0.08901686 0.08869544 0.08829827 0.08782805 0.08734761
 0.08687159 0.08644006 0.08606251 0.08574484 0.08548915 0.08528304 0.08512569 0.08498921 0.08487126 0.08473475
 0.08458184 0.08440131 0.08420356 0.08401889 0.08385038 0.08372673 0.08362785 0.08353858 0.08343346 0.08327406
 0.08306371 0.08278384 0.0824739 0.0821438 0.08184259 0.08158981 0.08141219 0.0813248 0.08130722 0.08136436
 0.08142639 0.08148888 0.08147744 0.08138857 0.0812071 0.08093858 0.08063892 0.08031584 0.08004173 0.07981454
 0.07966816 0.0795904 0.07957233 0.07959983 0.079648 0.07970646 0.0797549 0.07978875 0.07979754 0.0797836
 0.07974451 0.07968736 0.07961415 0.0795297 0.07943663 0.07933055 0.07921182 0.07907046 0.07890521 0.07871521
 0.07850046 0.07827567 0.0780417 0.07781436 0.07759238 0.07737723 0.0771663 0.07695086 0.07673116 0.07650225
 0.07626861 0.07603429 0.07580495 0.07558864 0.07538734 0.07520697 0.07504104 0.07488997 0.07473983 0.07458643
 0.07441784 0.07422996 0.07401946 0.07378456 0.07353038 0.07325678 0.07297447 0.07268401 0.0723989 0.07211964
 0.0718566 0.0716095 0.0713823 0.07117437 0.07098646 0.07081664 0.07066294 0.07051868 0.07037403 0.07021992
 0.07004094 0.0698375 0.06959928 0.0693486 0.06908858 0.06885851 0.06867345 0.06855697 0.06852488 0.06854509
 0.0686217 0.06867038 0.06868429 0.06859312 0.06839307 0.06809318 0.06769988 0.06729417 0.06688333 0.06655312
 0.06629843 0.06615271 0.06609441 0.06609528 0.06612651 0.0661279 0.06608793 0.06596211 0.06577715 0.0655323
 0.06527553 0.06503484 0.06482925 0.06467842 0.06455661 0.06446137 0.06436896 0.06427129 0.06418765 0.0641177
 0.06410085 0.06413919 0.06423968 0.06439843 0.06456966 0.06474565 0.06485673 0.06490228 0.06483772 0.06467939
 0.06443832 0.06414139 0.06383858 0.06354192 0.06329001 0.06306645 0.06287146 0.06268708 0.06249729 0.06231647
 0.0621434 0.06200529 0.06191367 0.06185686 0.06183864 0.0618132 0.06177532 0.06170986 0.06161576 0.06153337
 0.06146469 0.06144921 0.0614813 0.06154856 0.0616419 0.06171995 0.061784 0.06181408 0.0618214 0.0618164
 0.06180537 0.06180359 0.06180084 0.06179858 0.06177231 0.06170978 0.06159269 0.06140582 0.06116626 0.06086795
 0.06056966 0.06027766 0.06005248 0.05990297 0.05983467 0.05984842 0.05988457 0.05993903 0.05994074 0.05989241
 0.05977116 0.05958932 0.05937815 0.05914881 0.05894506 0.05876698 0.05863591 0.05854319 0.05848824 0.05845961
 0.05844951 0.05844554 0.05843872 0.05842277 0.05839067 0.05835256 0.05830815 0.05827543 0.05825929 0.05825619
 0.05826811 0.05826285 0.05823867 0.05817404 0.05807107 0.05795468 0.05783011 0.05774547 0.05769674 0.05769875
 0.05773579 0.05777548 0.05781094 0.05780864 0.0577892 0.0577581 0.05775044 0.05779746 0.05791702 0.05813064
 0.05843171 0.05882211 0.05929523 0.05984797 0.06048641 0.06121225 0.062023 0.06292128 0.06386865 0.06486332
 0.06583136 0.06676787 0.06758978 0.06829447 0.06882167 0.06917614 0.06934005 0.06932633 0.06915487 0.06884172
 0.06842069 0.06790686 0.06732742 0.06670094 0.06604555 0.06539012 0.06475118 0.06416168 0.06363777 0.06319809
 0.06285299 0.06259581 0.06242784 0.06233377 0.06231073 0.06236703 0.06250276 0.06275716 0.06313208 0.06366385
 0.0643483 0.06517995 0.06614791 0.0672086 0.06835462 0.0695435 0.07077967 0.07204898 0.07336523 0.07473708
 0.07618199 0.07771432 0.07935413 0.08111428 0.08301446 0.08506664 0.08727487 0.08964841 0.09215453 0.09479564
 0.09749807 0.1002578 0.1029812 0.1056629 0.1082118 0.1106226 0.1128056 0.1147535 0.1163714 0.1176584
 0.118547 0.1190706 0.1192557 0.1191892 0.119014 0.1188435 0.1188668 0.119159 0.1198539 0.1209482
 0.1224847 0.1244083 0.1267094 0.1293344 0.1322691 0.1354726 0.13894 0.1426176 0.146503 0.1505144
 0.1546472 0.1587981 0.1629606 0.167024 0.1709815 0.1747352 0.1782808 0.1815519 0.1845432 0.1872141
 0.1895476 0.1915047 0.1930485 0.1941278 0.1946923 0.1946863 0.1940708 0.1928001 0.1908864 0.1883049
 0.1851556 0.1814382 0.1773443 0.1728919 0.1683186 0.1636472 0.159089 0.1546585 0.1504823 0.1465619
 0.1429272 0.1395706 0.1364593 0.133584 0.1308933 0.1283782 0.1259918 0.1237232 0.1215333 0.1194133
 0.1173351 0.1153024 0.1133048 0.1113615 0.1094782 0.1076801 0.1059776 0.10439 0.1029235 0.1015929
 0.1003993 0.09936769 0.09849855 0.09783889 0.09739145 0.09720546 0.09728026 0.09761193 0.0981858 0.09890484
 0.09974457 0.1005529 0.1013238 0.1019499 0.1024744 0.1029059 0.1033372 0.1038738 0.1046203 0.1057008
 0.1071762 0.1091281 0.1115349 0.1144237 0.1176904 0.121328 0.1251759 0.1292176 0.1332575 0.1372829
 0.1410454 0.1445318 0.1473934 0.1496064 0.1507392 0.1507787 0.1493929 0.1466415 0.1425393 0.1372512
 0.1311804 0.1245322 0.1178541 0.1112787 0.1052051 0.09963475 0.09471965 0.09036306 0.08655845 0.08318745
 0.08020311 0.07751816 0.07510082 0.07289852 0.07089814 0.06906512 0.06739488 0.0658597 0.06445762 0.06316492
 0.06198046 0.06088459 0.05987645 0.05894057 0.05807613 0.05727153 0.0565264 0.05583391 0.05519391 0.05460411
 0.05406143 0.05356381 0.05310074 0.05266461 0.05224077 0.05181726 0.05138928 0.05094842 0.05050965 0.05007337
 0.04966317 0.04928446 0.04894585 0.04865048 0.04838399 0.04814582 0.04791556 0.04769273 0.04746989 0.04724802
 0.04703175 0.04682036 0.04661455 0.04641 0.04619539 0.04596752 0.04571297 0.04543683 0.04513748 0.04482828
 0.04451963 0.044224 0.04395268 0.04370951 0.0435 0.04331911 0.04316811 0.04303398 0.04291591 0.0427947
 0.04266796 0.04252303 0.04235852 0.04218144 0.04199268 0.04181173 0.0416387 0.04148386 0.04134503 0.04121805
 0.04110179 0.04099059 0.04088552 0.0407866 0.04069334 0.04060588 0.04052148 0.04043694 0.04035295 0.04026746
 0.04018723 0.04011444 0.04005479 0.04001221 0.03998033 0.03996037 0.03993395 0.03989905 0.03984236 0.03976237
 0.03966755 0.03955891 0.03945968 0.03936998 0.0393026 0.03925404 0.03921594 0.03918536 0.03914848 0.03910775
 0.03906064 0.03901226 0.03896943 0.03893229 0.03890556 0.03888102 0.0388561 0.03882012 0.03876713 0.03869383
 0.0385963 0.03848311 0.0383545 0.03822269 0.03808951 0.03795927 0.03783253 0.03770612 0.03758007 0.03745566
 0.03733419 0.03722718 0.03713495 0.03706678 0.03701827 0.03698275 0.03695413 0.03691604 0.03686931 0.03680618
 0.03673539 0.03666274 0.03659347 0.03653488 0.03648093 0.0364313 0.03637817 0.03631761 0.03625279 0.03618258
 0.03611811 0.03606083 0.0360161 0.03598462 0.03596186 0.03594755 0.03593628 0.03592858 0.03592653 0.03593101
 0.03594807 0.03597586 0.03601368 0.03605593 0.0360916 0.03611636 0.03611827 0.03610005 0.03605862 0.03600194
 0.03593424 0.03586101 0.03578609 0.03571059 0.03563535 0.03556148 0.0354891 0.03542046 0.03535607 0.03529518
 0.03523792 0.03517925 0.03511899 0.03505368 0.03498396 0.03491341 0.03484339 0.03478244 0.03473028 0.03469144
 0.03466282 0.03464097 0.03462216 0.0345995 0.03457202 0.03453571 0.03449287 0.03444344 0.03439098 0.03433701
 0.03428404 0.03423351 0.03418472 0.03413823 0.03408984 0.03403913 0.03398232 0.03391901 0.03384896 0.03377227
 0.03369175 0.03360797 0.03352655 0.03344859 0.03338246 0.03332811 0.03329123 0.03326755 0.03325255 0.0332394
 0.03321613 0.03318041 0.03312416 0.03305256 0.03296567 0.03287147 0.03277344 0.03267713 0.03258494 0.03249971
 0.03242256 0.03235365 0.0322934 0.03223864 0.03218921 0.03214151 0.03209546 0.03205108 0.0320086 0.03197035
 0.03193591 0.03190496 0.03187604 0.03184439 0.03180955 0.03176748 0.03172041 0.03166923 0.03161731 0.03156881
 0.03152402 0.03148551 0.03144872 0.03141269 0.03137194 0.03132415 0.03126808 0.03120241 0.0311313 0.03105478
 0.03097953 0.03090602 0.03083992 0.03078143 0.03073248 0.03069276 0.03066042 0.03063475 0.03061144 0.03058992
 0.03056612 0.03054029 0.03051069 0.03047867 0.03044535 0.03041198 0.03038075 0.03035055 0.03032217 0.03029137
 0.03025682 0.03021381 0.03015998 0.0300955 0.03001894 0.0299381 0.02985333 0.0297754 0.02970534 0.02964734
 0.02960139 0.02956175 0.02952801 0.0294936 0.02945961 0.02942757 0.02939907 0.02938058 0.02937073 0.02937059
 0.02937645 0.02938333 0.02938898 0.02938887 0.02938371 0.02937262 0.02935669 0.02933621 0.0293119 0.02928373
 0.02925353 0.02922155 0.02918993 0.02915914 0.02912887 0.02909917 0.02906885 0.02903789 0.02900647 0.02897452
 0.02894197 0.02890811 0.02886929 0.02882513 0.02877169 0.0287109 0.02864418 0.02857513 0.02850958 0.02844963
 0.02840028 0.02835975 0.0283292 0.02830372 0.02828184 0.02825796 0.02822982 0.02819473 0.02815105 0.0281019
 0.02804705 0.02799349 0.02794176 0.02789701 0.02785942 0.02782946 0.02780673 0.02778788 0.02777209 0.02775384
 0.0277322 0.02770115 0.02766105 0.02760889 0.02754774 0.02748021 0.02741045 0.02734406 0.02728224 0.02722848
 0.02717942 0.02713459 0.02708998 0.02704365 0.02699569 0.02694543 0.02689592 0.02684767 0.02680119 0.02675665
 0.02671198 0.02666709 0.02662189 0.02657663 0.02653399 0.02649383 0.02645705 0.02642274 0.02638843 0.02635369
 0.02631619 0.02627653 0.0262345 0.02619093 0.02614637 0.02610216 0.02605932 0.02601918 0.02598313 0.02594988
 0.0259197 0.02588951 0.02585837 0.02582619 0.02579252 0.02576078 0.02573127 0.02570526 0.02568275 0.0256606
 0.0256387 0.02561462 0.02558884 0.02556265 0.02553638 0.02551218 0.0254892 0.0254671 0.02544388 0.02541648
 0.02538339 0.02534126 0.02529156 0.02523318 0.0251715 0.02510832 0.02504948 0.02499761 0.02495461 0.02492191
 0.02489666 0.02487898 0.02486376 0.02485063 0.0248348 0.02481605 0.02479276 0.0247651 0.02473466 0.02470145
 0.02466638 0.02462921 0.02458911 0.02454684 0.0245032 0.02445996 0.02442036 0.02438494 0.02435595 0.02433188
 0.02431227 0.02429611 0.02428265 0.02427197 0.02426419 0.02425822 0.02425397 0.02424989 0.02424563 0.0242412
 0.02423665 0.02423117 0.02422466 0.02421187 0.0241923 0.02415871 0.02411105 0.02404538 0.02396207 0.02386059
 0.02374058 0.02360111 0.02344132 0.02325887 0.02305507 0.02282936 0.02258635 0.02232944 0.02206106 0.02178608
 0.02149431 0.02118624 0.02083995 0.02045016 0.02000389 0.0194956 0.01894349 0.01834704 0.01774902 0.01715174
 0.01659834 0.01609124 0.01566916 0.01533636 0.01513594 0.01507126 0.01517991 0.0154544 0.01590801 0.01650266
 0.01719844 0.01792905 0.01860804 0.01919539 0.01962865 0.0199138 0.02003399 0.02001858 0.01986841 0.01963206
 0.01931326 0.01898992 0.01867217 0.01842995 0.01827349 0.01819399 0.018191 0.01821017 0.01825052 0.01828464
 0.01831518 0.01834248 0.01836909 0.018403 0.01844648 0.01850789 0.01858969 0.01869884 0.01883783 0.01901303
 0.01922217 0.01946993 0.01973872 0.02002547 0.0202989 0.02054751 0.02075074 0.02089856 0.02099922 0.02105016
 0.02108042 0.02109179 0.02111494 0.02115152 0.02121648 0.02130868 0.02141985 0.02154711 0.02167005 0.02178787
 0.02188653 0.02196821 0.02203094 0.02207695 0.02210897 0.02212811 0.02213617 0.02213491 0.02212554 0.02211141
 0.02209405 0.02207742 0.02206301 0.02205421 0.02205216 0.02205835 0.0220737 0.02209436 0.02212041 0.02214278
 0.02216097 0.02216724 0.02216177 0.0221444 0.02211622 0.02208322 0.02204611 0.02201052 0.0219763 0.02194578
 0.02191872 0.02189563 0.02187675 0.02186279 0.02185314 0.02184799 0.02184521 0.02184381 0.0218421 0.02183904
 0.02183474 0.02182912 0.02182215 0.02181394 0.02180338 0.02179031 0.02177458 0.02175615 0.02173622 0.02171469
 0.02169073 0.02166411 0.02163245 0.02159681 0.02155891 0.02152138 0.02149143 0.02147017 0.02146368 0.02146896
 0.02148565 0.02150877 0.02153408 0.02155922 0.02158146 0.02160142 0.02161895 0.0216339 0.02164663 0.02165463
 0.02165742 0.02165434 0.02164499 0.02163344 0.02161988 0.02160906 0.02160084 0.02159481 0.02159032 0.02158294
 0.02157292 0.02155852 0.02154101 0.02152262 0.02150404 0.02148771 0.02147312 0.02146066 0.0214498 0.02144035
 0.02143152 0.02142325 0.02141351 0.02140165 0.0213858 0.02136507 0.02134009 0.02131052 0.02127951 0.02124721
 0.02121778 0.02119144 0.02117168 0.02115848 0.0211524 0.02115277 0.02115601 0.02116136 0.02116393 0.02116397
 0.02115948 0.02115153 0.02114123 0.02112876 0.02111488 0.02109918 0.02108113 0.02106194 0.02104181 0.02102283
 0.02100612 0.02099175 0.02098014 0.02096995 0.02096094 0.02095285 0.02094569 0.0209389 0.02093247 0.02092211
 0.0209076 0.02088464 0.02085407 0.02081861 0.02078001 0.02074642 0.02071832 0.02070135 0.02069407 0.02069693
 0.02070753 0.02072379 0.02074239 0.02076039 0.0207744 0.02078119 0.02078127 0.02077324 0.02076207 0.02074892
 0.02073642 0.02072574 0.02071377 0.02070035 0.02068246 0.02065989 0.02063575 0.02061035 0.02058937 0.02057244
 0.02056032 0.02055169 0.02054179 0.02053029 0.02051311 0.02049289 0.02047171 0.02045354 0.02044462 0.0204451
 0.02045891 0.02047929 0.02050434 0.02052583 0.02053934 0.02054373 0.02053667 0.0205254 0.02051043 0.02049996
 0.02049508 0.02049815 0.02050939 0.02052573 0.02054691 0.02056862 0.02059067 0.02060981 0.02062588 0.02063644
 0.02064159 0.02063991 0.02063263 0.02062064 0.02060643 0.02059332 0.02058296 0.02057845 0.02057832 0.02058314
 0.02058935 0.02059568 0.02059972 0.02060039 0.0205976 0.02059113 0.02058184 0.02056976 0.02055584 0.02054013
 0.02052451 0.02050909 0.0204959 0.02048463 0.02047445 0.02046468 0.02045181 0.0204365 0.02041805 0.02039875
 0.02038264 0.0203703 0.02036505 0.02036346 0.0203639 0.02036324 0.02035816 0.02035108 0.0203417 0.0203346
 0.02033151 0.02033231 0.02033769 0.02034341 0.02034897 0.02035283 0.0203548 0.02035793 0.02036235 0.02037073
 0.02038259 0.02039626 0.02041067 0.02042061 0.02042575 0.02042193 0.02041106 0.02039402 0.02037405 0.02035568
 0.02034025 0.02033096 0.02032617 0.02032577 0.0203284 0.02033313 0.02034082 0.02035177 0.02036552 0.02038259
 0.02039837 0.02041244 0.02042078 0.02042302 0.02042124 0.02041576 0.02041266 0.02041198 0.02041707 0.02042705
 0.02044042 0.02045606 0.02047054 0.02048272 0.02048924 0.02048913 0.02047954 0.02046116 0.02043268 0.02039821
 0.02035895 0.02032107 0.02028737 0.02026141 0.02024546 0.02023694 0.02023643 0.0202362 0.02023554 0.02022785
 0.02021259 0.02019065 0.02016235 0.02013414 0.0201062 0.02008295 0.02006379 0.0200485 0.02003677 0.02002752
 0.0200213 0.02001876 0.02001995 0.02002557 0.02003437 0.02004579 0.02005809 0.02007028 0.02008055 0.02008799
 0.02009132 0.02008959 0.0200844 0.02007543 0.02006746 0.02006092 0.02006013 0.02006543 0.02007787 0.02009727
 0.02012065 0.02014727 0.02017044 0.02018953 0.02019768 0.02019626 0.02018467 0.02016621 0.02014706 0.02012824
 0.02011465 0.02010283 0.02009116 0.02007773 0.02005925 0.02004116 0.0200243 0.02001576 0.02001908 0.02003118
 0.02005327 0.02007323 0.02008962 0.02009605 0.02009177 0.0200835 0.0200717 0.02006601 0.02006585 0.02007158
 0.02008175 0.02009015 0.02009684 0.02009873 0.02009691 0.02009255 0.02008498 0.02007387 0.02005834 0.02003619
 0.0200111 0.01998347 0.01996058 0.01994618 0.01994227 0.01995173 0.01996637 0.01998568 0.01999925 0.02000543
 0.0200022 0.01998917 0.01997244 0.01995224 0.0199328 0.01991361 0.0198921 0.01986848 0.01984143 0.01981337
 0.0197905 0.01977407 0.01977088 0.0197767 0.01978963 0.01980365 0.01981165 0.01981366 0.01980647 0.01979585
 0.01978372 0.01977346 0.01976739 0.01976205 0.0197576 0.01974794 0.01973214 0.01970871 0.01967733 0.01964341
 0.01960723 0.01957467 0.01954537 0.01951931 0.01949599 0.01947299 0.01945093 0.0194304 0.0194118 0.0193967
 0.01938363 0.01937118 0.01935863 0.01934397 0.01932977 0.01931669 0.01930804 0.01930585 0.01931003 0.01932152
 0.01933694 0.0193563 0.01937357 0.0193883 0.0193935 0.01938858 0.01937129 0.01934178 0.01930472 0.01926041
 0.0192134 0.019163 0.01910795 0.0190487 0.01898419 0.0189192 0.01886166 0.01881687 0.01879727 0.01879903
 0.01882545 0.01886426 0.01890893 0.01895021 0.01898146 0.01900263 0.01901164 0.01901399 0.01901069 0.01900398
 0.01899468 0.01897898 0.01895668 0.01892382 0.01888047 0.01882891 0.0187704 0.01871541 0.01866606 0.01863811
 0.01863069 0.01865193 0.01869394 0.01874593 0.01880045 0.01884109 0.0188702 0.01888322 0.01888694 0.01888491
 0.01888012 0.01887509 0.01886943 0.01886299 0.01885772 0.01885362 0.01885457 0.01886114 0.01887486 0.01889593
 0.01892358 0.01895769 0.01899576 0.01903721 0.01907627 0.0191124 0.01913969 0.01915925 0.01917044 0.01917645
 0.01918281 0.01919285 0.01921413 0.01924605 0.01929295 0.01934605 0.01940258 0.01945017 0.01948126 0.01949433
 0.01948466 0.01946726 0.01944316 0.01943189 0.01943679 0.0194626 0.01951045 0.01956587 0.01962814 0.01968257
 0.01973032 0.01977431 0.01981758 0.0198769 0.01995081 0.02004571 0.02015424 0.0202639 0.02037194 0.02046716
 0.02055598 0.02064019 0.02072658 0.02082224 0.02092352 0.02103199 0.02113753 0.02123629 0.02132648 0.02140442
 0.02148744 0.02157529 0.02170186 0.02186983 0.02209963 0.02239108 0.02272278 0.0230934 0.02347863 0.02388552
 0.02433066 0.02482748 0.02542316 0.0261272 0.02698362 0.02798743 0.02915378 0.03046404 0.03190546 0.03346495
 0.03512571 0.03689745 0.03878275 0.04078304 0.04291875 0.04509299 0.04730769 0.04936991 0.05125391 0.05284178
 0.0541192 0.05510516 0.05580173 0.056273 0.05652351 0.05661618 0.05655726 0.0564077 0.0561741 0.05590435
 0.05560866 0.05532603 0.05507274 0.05489021 0.05477983 0.05476219 0.05481898 0.05494453 0.05512247 0.05534398
 0.05559954 0.05588434 0.05619395 0.05652413 0.05688931 0.0572882 0.05776064 0.05831078 0.05894332 0.05965581
 0.06035139 0.06102438 0.06157909 0.06202422 0.06235126 0.06257048 0.06270714 0.06276781 0.06277465 0.0627379
 0.06267795 0.06261044 0.06255364 0.06253035 0.06255596 0.06266247 0.06287184 0.06318853 0.06363072 0.06413449
 0.06469366 0.06523407 0.06574254 0.06619727 0.06659408 0.06695484 0.06728131 0.06762098 0.06797843 0.06841914
 0.06893969 0.06956845 0.07027873 0.07099947 0.07172073 0.07237746 0.07299899 0.07360008 0.07420621 0.07485252
 0.0755391 0.07627792 0.07705895 0.07787953 0.07873546 0.07962884 0.08053786 0.08146074 0.08236537 0.08324476
 0.084103 0.08493957 0.08577 0.08659386 0.08737542 0.08811062 0.08874315 0.08927748 0.08970415 0.09003425
 0.09029775 0.09049971 0.09066668 0.09079465 0.09088631 0.09094477 0.09096942 0.09097768 0.09098071 0.09099249
 0.09102628 0.09107316 0.09113608 0.09119086 0.09123246 0.09124643 0.09122885 0.09118392 0.09111109 0.09102768
 0.09093437 0.09083882 0.09073931 0.09062242 0.09048563 0.09031033 0.09009405 0.08981926 0.08948565 0.08908023
 0.08861426 0.08809532 0.08754225 0.08697923 0.08641059 0.08584907 0.08528539 0.08471502 0.08414306 0.08356604
 0.08300913 0.08247799 0.081985 0.08153395 0.08111736 0.08073451 0.08038688 0.08007489 0.07981858 0.07961898
 0.07949462 0.0794438 0.07946776 0.07956393 0.07972436 0.07994924 0.08023386 0.08058248 0.08099738 0.08148784
 0.08206134 0.08273327 0.08351284 0.084423 0.08547064 0.08669525 0.08810341 0.08975807 0.09167346 0.0938964
 0.0964436 0.0992691 0.1023761 0.105619 0.1089891 0.1123053 0.1155501 0.1184915 0.1210947 0.1230459
 0.1243461 0.1248042 0.1245074 0.1235353 0.1220015 0.1200879 0.1179291 0.1157143 0.1135733 0.1116729
 0.1100167 0.1086674 0.1075204 0.1065532 0.1056868 0.1048847 0.1041934 0.1036075 0.1032374 0.1030964
 0.1031717 0.1034625 0.1039173 0.1045387 0.1053388 0.106323 0.1075264 0.1089511 0.1106183 0.112536
 0.1147414 0.1172144 0.1200205 0.1229066 0.1257281 0.1279892 0.1292248 0.129348 0.1281221 0.1258761
 0.122648 0.1188037 0.1143981 0.1098704 0.1052833 0.100992 0.09704205 0.09348375 0.09031937 0.08741324
 0.0847614 0.08227418 0.07996206 0.07783815 0.0759069 0.07419745 0.0726899 0.07135998 0.07017569 0.06907904
 0.06804579 0.06703113 0.06601635 0.06498075 0.06389329 0.06273159 0.06148325 0.06011254 0.0587446 0.05738976
 0.05621944 0.0552783 0.05451361 0.05392921 0.05338978 0.05288914 0.05238959 0.0518962 0.05145677 0.05107368
 0.05078629 0.05058685 0.05046353 0.0504236 0.05046806 0.05062991 0.05096017 0.05148363 0.05225279 0.05325736
 0.05450773 0.05598458 0.05768408 0.0595793 0.06166702 0.06389614 0.06624819 0.06872291 0.07130176 0.07413451
 0.07723404 0.08071746 0.08458795 0.08850383 0.09242509 0.09575768 0.09851267 0.1004378 0.1015943 0.1020421
 0.1018553 0.1012129 0.100199 0.09902375 0.09772919 0.09644205 0.09516378 0.09392291 0.09274803 0.091659
 0.09067953 0.08983593 0.08907382 0.08838795 0.08771808 0.08705047 0.08638044 0.08570414 0.08505927 0.08444773
 0.08390801 0.08344039 0.08305939 0.0827636 0.08255413 0.08242772 0.08238021 0.08239511 0.08244121 0.08248446
 0.08245526 0.08233807 0.08207692 0.08170859 0.08123038 0.08071875 0.08020538 0.07976955 0.0794488 0.07927655
 0.07927425 0.07941454 0.0797006 0.0800724 0.08052679 0.08098911 0.08145517 0.08185156 0.08217692 0.08239322
 0.08250374 0.08250768 0.08240747 0.08221051 0.08191804 0.08153504 0.08106554 0.08051603 0.07989527 0.07921351
 0.07848252 0.07771435 0.07691631 0.07609685 0.07525295 0.07438435 0.07349148 0.07256973 0.07164676 0.07072347
 0.06984362 0.06901227 0.06824551 0.06754442 0.06689778 0.06630623 0.06577303 0.06530336 0.06492992 0.06465581
 0.06451438 0.0644939 0.06459156 0.06477533 0.06500051 0.06522086 0.06537022 0.06541149 0.06528606 0.06500739
 0.06455162 0.06399831 0.0633641 0.06273876 0.06215157 0.06163206 0.06119418 0.06080623 0.06046763 0.06013491
 0.05980562 0.0594644 0.05911278 0.05876764 0.05843157 0.05812876 0.05785897 0.05763431 0.05745283 0.05731701
 0.05722238 0.05716496 0.05713511 0.05712152 0.05711424 0.05710107 0.05707952 0.05704408 0.05699887 0.05694412
 0.05688401 0.05681954 0.05675386 0.05668737 0.05662405 0.05656436 0.05651055 0.05646277 0.05641704 0.056373
 0.05632383 0.05627067 0.05621548 0.05616271 0.05612874 0.05611864 0.05615399 0.05623389 0.05636896 0.0565496
 0.05677125 0.05701878 0.05728133 0.05754045 0.05778527 0.05799754 0.0581673 0.05828799 0.05835332 0.05837756
 0.05836022 0.05832795 0.05828318 0.05824681 0.0582202 0.05820923 0.05821339 0.05822672 0.05824838 0.05827017
 0.05829206 0.05831002 0.05832364 0.05833042 0.05832874 0.05831388 0.05828736 0.05824722 0.05820112 0.05815405
 0.05811325 0.05808494 0.05806953 0.0580682 0.05808143 0.05810837 0.0581561 0.05822583 0.05832147 0.05844438
 0.05858535 0.05874397 0.05890429 0.05906544 0.05921237 0.05934422 0.05944718 0.05952225 0.05956319 0.059577
 0.05957578 0.05957 0.05958406 0.05962065 0.05969552 0.05979843 0.05992739 0.06006962 0.06021648 0.06036381
 0.06050756 0.06064926 0.06078928 0.06092549 0.06105798 0.06118218 0.06129733 0.06140409 0.06150237 0.06160228
 0.06170504 0.06183013 0.06197954 0.06217747 0.06242204 0.06272441 0.06307007 0.06343465 0.06379148 0.06408426
 0.06429542 0.06437452 0.06433839 0.0641752 0.06393319 0.06363302 0.06332067 0.06302016 0.06274989 0.06252065
 0.06233006 0.06217948 0.06206337 0.06198159 0.06192665 0.06189819 0.06188177 0.06187699 0.0618741 0.06187649
 0.06189998 0.06195164 0.06206987 0.0622527 0.06252339 0.06285501 0.06321968 0.06357297 0.06384834 0.0640239
 0.06404696 0.06395342 0.06373914 0.06347529 0.06319065 0.06292395 0.06269827 0.06249006 0.06230105 0.06208989
 0.06184999 0.06158252 0.06128647 0.06101514 0.06077221 0.06062465 0.06057191 0.06064816 0.0608407 0.06112419
 0.06147548 0.0618233 0.06215225 0.06239687 0.0625696 0.06265384 0.06268274 0.06267899 0.06266557 0.06266533
 0.0626768 0.06270468 0.06274319 0.06278905 0.06285198 0.06293214 0.06304537 0.06319435 0.06337819 0.06359734
 0.06382914 0.06407203 0.06429702 0.06450424 0.06467904 0.06482558 0.06495189 0.06506274 0.06517635 0.06529024
 0.06541129 0.06552794 0.06562902 0.06570473 0.06573977 0.06573965 0.06569985 0.0656397 0.06556498 0.06549335
 0.06543146 0.06538507 0.06535674 0.06534437 0.06534794 0.06536611 0.06539873 0.06544954 0.06551893 0.06561433
 0.06573569 0.06588725 0.06606701 0.06626917 0.06649216 0.06672689 0.06697789 0.06724738 0.06754434 0.06788277
 0.06826288 0.06869459 0.06915939 0.06965215 0.07014745 0.070632 0.07109799 0.07153705 0.07196731 0.07238933
 0.07282799 0.07328662 0.07377522 0.07429481 0.07484327 0.07542051 0.07602616 0.07665868 0.07731117 0.07797495
 0.07861377 0.07921483 0.07972235 0.08013804 0.08043139 0.08063032 0.0807535 0.08083648 0.08091968 0.0810143
 0.08114418 0.08128843 0.08144618 0.08158981 0.08170985 0.08179747 0.08184803 0.08186983 0.08186302 0.0818378
 0.08179481 0.08174171 0.0816789 0.08161368 0.08154599 0.08147939 0.08141275 0.08134317 0.08127031 0.08119138
 0.08110772 0.08102109 0.08093099 0.0808382 0.08074005 0.08063389 0.08051966 0.08039655 0.08026516 0.08012754
 0.07997569 0.07980914 0.0796144 0.07938796 0.07912759 0.07883127 0.07851445 0.07817774 0.07784449 0.07751562
 0.07720828 0.07692128 0.07665493 0.07640574 0.07615845 0.07591273 0.07565631 0.07539941 0.07515151 0.07493132
 0.07476538 0.07467029 0.07467182 0.07477202 0.07498705 0.07528648 0.07567445 0.07607184 0.07646699 0.07675332
 0.07690852 0.07686717 0.07661291 0.07617681 0.07555774 0.07486358 0.07410014 0.07337657 0.07269223 0.07209613
 0.07157742 0.07111894 0.07070659 0.07029349 0.06987127 0.06940175 0.06888507 0.06830473 0.06766767 0.06697188
 0.0662323 0.06545377 0.06466072 0.06386176 0.06308453 0.06233852 0.06164087 0.060998 0.06040715 0.05987011
 0.05936772 0.05889893 0.05844409 0.05800272 0.05756879 0.05714359 0.05673444 0.05634225 0.05597548 0.0556326
 0.05531474 0.05501765 0.0547348 0.05446037 0.05418449 0.05390232 0.05360598 0.0532934 0.05296107 0.05260859
 0.05223418 0.05184144 0.05142862 0.05101106 0.05058958 0.05018795 0.04980976 0.04946456 0.04915407 0.04885758
 0.04857355 0.04826853 0.04794284 0.04758204 0.04719208 0.04678934 0.04638308 0.04600701 0.04566806 0.04539636
 0.04519127 0.0450669 0.04501241 0.0450261 0.04508786 0.04518881 0.04530011 0.04541201 0.04548655 0.04551357
 0.04545477 0.0453002 0.0450324 0.04464517 0.04415962 0.04357561 0.04294553 0.04227233 0.04161174 0.04096527
 0.04037008 0.03982512 0.03934681 0.03893129 0.03857924 0.03828021 0.03801752 0.03777499 0.03752301 0.03725437
 0.03694664 0.0366158 0.03626189 0.03591243 0.03558129 0.035279 0.0350147 0.03477526 0.03455983 0.03435498
 0.03415775 0.0339725 0.03379912 0.0336486 0.03352102 0.03341358 0.03332485 0.0332402 0.03316109 0.03308441
 0.03301661 0.03297557 0.03296398 0.03299943 0.03307145 0.03317572 0.03329523 0.03341176 0.03351628 0.03359683
 0.03365298 0.03368222 0.03368387 0.03365682 0.03360297 0.0335209 0.03342293 0.03330974 0.03319754 0.03308768
 0.03298842 0.03290017 0.0328276 0.03277237 0.03274948 0.03276291 0.03283991 0.03298137 0.03320917 0.03351
 0.03387567 0.03427352 0.03465936 0.03499782 0.03523582 0.03536593 0.03535946 0.03524899 0.03503663 0.03477225
 0.03446998 0.03416979 0.0338821 0.03362935 0.03341639 0.03324853 0.03312712 0.03303975 0.0329855 0.03294219
 0.03290932 0.03287283 0.03283443 0.0327949 0.03275551 0.03272114 0.03269022 0.03266154 0.03263441 0.03260563
 0.03258011 0.03256069 0.03255369 0.03256527 0.03259515 0.03264578 0.03271129 0.03279024 0.03287893 0.03297636
 0.03308082 0.03319238 0.03330602 0.03342143 0.03353315 0.03364105 0.03374504 0.03384515 0.03394224 0.03403486
 0.0341168 0.03418578 0.03423144 0.03425326 0.03424473 0.03420774 0.03414138 0.03405015 0.03393621 0.03380904
 0.03367401 0.03354324 0.03342478 0.03332108 0.03323759 0.03315903 0.03308446 0.03299332 0.0328818 0.03274579
 0.03258391 0.0324121 0.03223132 0.03206212 0.03190519 0.03177491 0.03167143 0.03160399 0.03157107 0.03157508
 0.03160964 0.03166416 0.03173012 0.03178941 0.03184152 0.03187637 0.03190549 0.03193289 0.03197046 0.03202705
 0.03210015 0.0321928 0.03229126 0.03239309 0.03248882 0.03257646 0.03265489 0.03272391 0.03278223 0.03282982
 0.03286668 0.03289409 0.03292392 0.03295839 0.0330162 0.03309526 0.03320038 0.03332499 0.03345747 0.03359366
 0.03372202 0.03384269 0.03395198 0.03404989 0.0341348 0.03420886 0.03427117 0.0343297 0.03438707 0.03444754
 0.03451367 0.0345794 0.03464382 0.03470524 0.03476273 0.03483147 0.0349122 0.03501948 0.03515172 0.03529934
 0.03545859 0.03560407 0.03573694 0.03584525 0.03593743 0.03602501 0.03611591 0.03622832 0.03636144 0.03652276
 0.03670444 0.03690401 0.03711265 0.03732644 0.03753634 0.03773858 0.03792759 0.03809893 0.03826587 0.03842729
 0.03861614 0.03883518 0.03910587 0.03942883 0.03979174 0.04019357 0.04061603 0.04106465 0.04155604 0.04210043
 0.04274128 0.04347882 0.04434048 0.04530678 0.04636586 0.04748628 0.04863237 0.04978072 0.05090442 0.05199122
 0.0530376 0.05400369 0.05489089 0.05559909 0.05611113 0.05632809 0.05622405 0.05582389 0.05512029 0.05428027
 0.0533128 0.05240286 0.05155238 0.05085035 0.05028546 0.04984713 0.04952428 0.04927463 0.04909804 0.04897515
 0.04890615 0.04888959 0.04890747 0.04894585 0.04897488 0.04896653 0.0489113 0.04879118 0.04863022 0.04842972
 0.04822344 0.04801965 0.0478368 0.04767983 0.04754784 0.0474419 0.04734584 0.04725881 0.04716256 0.04705825
 0.04695028 0.04684376 0.04676878 0.04672705 0.04674364 0.04680871 0.04691681 0.04704905 0.04717472 0.04728072
 0.04733716 0.04735371 0.04732266 0.04727384 0.04722222 0.0471805 0.04716744 0.04713291 0.0470701 0.0469313
 0.04670136 0.04641732 0.0460799 0.04574083 0.04540256 0.04508544 0.0447889 0.04451372 0.04425893 0.04401957
 0.04379629 0.04358694 0.04339645 0.04323353 0.04310483 0.04302686 0.04299598 0.04301821 0.04307721 0.0431632
 0.04326339 0.04336811 0.04347388 0.04357899 0.04367571 0.04376252 0.04383081 0.04387743 0.04391192 0.04393411
 0.04396546 0.04400695 0.044066 0.04414131 0.04422107 0.04430252 0.04436589 0.04440733 0.044404 0.0443528
 0.04423364 0.04405083 0.04379891 0.04349256 0.04314047 0.04276952 0.0423951 0.04205931 0.0417852 0.04160709
 0.04154669 0.04159866 0.04176987 0.04202574 0.04236447 0.04274207 0.04315657 0.04354232 0.04389571 0.04414919
 0.04430471 0.04436135 0.04433032 0.04427558 0.04420051 0.04415296 0.04412309 0.04410962 0.04410911 0.04411206
 0.04412763 0.04416275 0.0442231 0.0443191 0.04443962 0.0445868 0.04473117 0.04486596 0.04495626 0.04498976
 0.04496139 0.04486287 0.04474355 0.04460531 0.0445175 0.04448374 0.04452991 0.04465207 0.04481221 0.04500145
 0.04514955 0.04525351 0.04526021 0.045185 0.04503006 0.04482741 0.04462903 0.04445557 0.04435673 0.04431785
 0.04434853 0.04441536 0.0445045 0.04458886 0.04465771 0.04468739 0.0446706 0.04459206 0.04444496 0.04424951
 0.04400491 0.04376058 0.04351914 0.04331149 0.04313594 0.04297936 0.04283844 0.04268479 0.04252318 0.04235247
 0.04218512 0.04205236 0.04195514 0.04191693 0.04191126 0.04192093 0.04191431 0.04185475 0.04174742 0.04157836
 0.04138514 0.04118001 0.04098195 0.0408015 0.04062531 0.04045288 0.04027171 0.04008051 0.03987353 0.03965039
 0.03939047 0.03909313 0.03874115 0.03834067 0.03791666 0.03748023 0.03708596 0.03673518 0.03646172 0.03625248
 0.03610215 0.03599634 0.0359179 0.0358544 0.03579555 0.03571839 0.03560916 0.03544921 0.03522009 0.0349518
 0.03463857 0.0343624 0.03413521 0.034017 0.03401883 0.0341095 0.03428772</values></Ydata></AB><ScSm><Ydata ylabel="Single channel"><values byteorder="INTEL" format="FLOAT32" numvalues="1814"> 0.05908016 0.05910499 0.05917332 0.05930109 0.05947037 0.05963663 0.05975831 0.05982421 0.05984485 0.05982439
 0.05976946 0.0597259 0.05976656 0.05992038 0.06012977 0.06029001 0.06033173 0.06028178 0.06024913 0.06031904
 0.06043778 0.06042784 0.06015518 0.05968215 0.05922648 0.05896133 0.05890798 0.0590592 0.05948387 0.06012932
 0.06060022 0.06044171 0.05971348 0.05901249 0.05881175 0.05900487 0.05918764 0.05912224 0.05881083 0.05840094
 0.05822279 0.05870243 0.05994565 0.06139155 0.06201288 0.0609649 0.05818878 0.05460347 0.05176803 0.05104874
 0.0526573 0.05536634 0.05742688 0.05796429 0.057404 0.05659319 0.05588853 0.0552575 0.05486153 0.05508977
 0.05602004 0.05705549 0.05722982 0.05602819 0.05399705 0.05236173 0.05191218 0.05250448 0.05370635 0.05527273
 0.05648414 0.0557679 0.05223738 0.04764773 0.04561879 0.04819582 0.05366974 0.05825601 0.05946904 0.05751237
 0.05417086 0.05132658 0.05026187 0.05131712 0.05381394 0.05661709 0.05882933 0.05984492 0.05919752 0.05695944
 0.05414045 0.0522029 0.05216267 0.05418624 0.0575561 0.06074107 0.06209281 0.06106056 0.05855651 0.05599251
 0.05435111 0.0541881 0.05576954 0.05879287 0.06236967 0.06554429 0.06768753 0.06855409 0.06832662 0.06750095
 0.06651095 0.06565958 0.06538501 0.06599019 0.06693356 0.0670343 0.06575911 0.06393303 0.06288739 0.06308253
 0.06374291 0.063801 0.06297573 0.0616017 0.05957644 0.05633808 0.05215124 0.04845667 0.04643627 0.04611097
 0.04719115 0.04954081 0.05217352 0.0531854 0.05183228 0.04986956 0.04981422 0.0522617 0.05556992 0.05786451
 0.05877233 0.05930912 0.06056149 0.06257142 0.06418757 0.06393888 0.06150096 0.05852115 0.05745495 0.05915412
 0.06204407 0.06405631 0.06480858 0.06537759 0.06642184 0.06716615 0.06620806 0.06317934 0.05965209 0.05817608
 0.06005879 0.06405447 0.06726672 0.06729779 0.06386472 0.05886292 0.05488585 0.05343068 0.05449236 0.05754685
 0.06213258 0.06733701 0.07155505 0.07338487 0.07265135 0.07032976 0.06742824 0.06405045 0.05993135 0.05599919
 0.05456717 0.05714955 0.06252996 0.06777559 0.07085484 0.0716529 0.07083406 0.06859019 0.06482793 0.06037772
 0.05739428 0.05768767 0.06054722 0.06313932 0.06347507 0.06222671 0.06127365 0.06135324 0.06178407 0.06191324
 0.06205124 0.06294472 0.0647103 0.06655554 0.06754771 0.06746186 0.06681486 0.06625844 0.06598747 0.06560282
 0.06467198 0.06359273 0.06355068 0.06522998 0.06788056 0.07008829 0.07119217 0.07153156 0.07151221 0.0708835
 0.06910129 0.06635953 0.06401528 0.0635867 0.06528601 0.0678851 0.06999263 0.0710534 0.07121962 0.07085364
 0.07028328 0.0696906 0.0691593 0.06890733 0.06924024 0.07011905 0.07105045 0.07158241 0.07167959 0.07150498
 0.07109679 0.07042893 0.06964155 0.06904996 0.06891921 0.06926659 0.06989079 0.07054979 0.07105333 0.07124457
 0.07105654 0.07061566 0.07015745 0.06981032 0.06956676 0.06945024 0.0695536 0.06987885 0.07026693 0.07054231
 0.07065265 0.07063672 0.07052843 0.07033835 0.0700914 0.06984963 0.069703 0.06971806 0.06986594 0.07003215
 0.07014112 0.0702298 0.07034556 0.07042749 0.07037072 0.07017814 0.06997219 0.06986603 0.06987393 0.06993628
 0.06997808 0.0699255 0.06971001 0.06932726 0.0689096 0.06867512 0.06875351 0.06908982 0.06953131 0.06994542
 0.07024141 0.07037266 0.07037066 0.07031963 0.07026198 0.07016512 0.0699961 0.06980056 0.06969562 0.06978059
 0.07004207 0.07035711 0.07060067 0.07072827 0.07075998 0.07074416 0.07074687 0.070807 0.07087888 0.07087576
 0.07078557 0.07069641 0.07069522 0.07077338 0.07084186 0.0708286 0.07075779 0.07072507 0.07079055 0.07091836
 0.07103376 0.07111181 0.07118598 0.07128251 0.07136643 0.07136385 0.071247 0.07108355 0.07097328 0.07094459
 0.07095204 0.07096731 0.07101878 0.07112856 0.07125449 0.07132496 0.07131746 0.07127884 0.07126331 0.07126572
 0.07123163 0.07112832 0.07098629 0.07086779 0.07081056 0.0708072 0.07082412 0.07082847 0.07080177 0.07074067
 0.07065316 0.07055195 0.07044686 0.07034869 0.07028444 0.07029168 0.07037464 0.07046975 0.07048218 0.07037084
 0.07018974 0.07003526 0.06995432 0.06991056 0.06983763 0.06971197 0.06956597 0.06944338 0.06935969 0.06930189
 0.06924915 0.06919132 0.06914186 0.06913792 0.06921106 0.06934297 0.06945994 0.06949157 0.06943627 0.06935712
 0.06931747 0.06933386 0.06938274 0.06943433 0.06948247 0.06954977 0.06965314 0.06976379 0.06982764 0.06983276
 0.06982878 0.06987251 0.06998233 0.07014351 0.07031928 0.070453 0.07050274 0.07048973 0.07048354 0.07052781
 0.07060409 0.07067429 0.07073118 0.0707929 0.07086985 0.07096009 0.0710714 0.07122804 0.07144857 0.07172026
 0.0719969 0.07222631 0.07239248 0.07253684 0.07272962 0.07300965 0.07335034 0.07368374 0.07395771 0.07417385
 0.07437438 0.07459415 0.0748339 0.07508466 0.07536052 0.0756832 0.076042 0.07639528 0.07671358 0.07700409
 0.07729349 0.07760104 0.07793002 0.07827497 0.07863288 0.07900366 0.07937542 0.07971798 0.08000538 0.0802446
 0.08047384 0.08073442 0.08104479 0.08138426 0.08169467 0.08192167 0.08207603 0.08223599 0.08246444 0.08273871
 0.082991 0.08320551 0.08343755 0.08373339 0.08406741 0.08437532 0.08462829 0.0848542 0.08509441 0.08535411
 0.08559632 0.08578122 0.0859092 0.08602006 0.08615112 0.08631222 0.08650868 0.08676235 0.08708327 0.08743387
 0.08774997 0.08799262 0.08816309 0.08828279 0.08838131 0.08848989 0.0886208 0.08875994 0.08889084 0.08900844
 0.08910343 0.08916401 0.08920883 0.08928803 0.08943246 0.08962688 0.08984788 0.09009762 0.09037796 0.09065975
 0.09091379 0.09116049 0.09144919 0.09177995 0.09207936 0.09227462 0.09236673 0.09240633 0.09242726 0.09244417
 0.09249278 0.09261607 0.09280569 0.09299616 0.09312481 0.09317358 0.09315392 0.09307791 0.09295166 0.09278399
 0.09259927 0.0924471 0.09239435 0.09249932 0.09278624 0.09323179 0.09376507 0.09428991 0.09472486 0.09502586
 0.09517583 0.09517501 0.09505534 0.09488116 0.09469989 0.09448747 0.09416094 0.09364842 0.09293376 0.09203558
 0.09096614 0.08972776 0.08834313 0.08687623 0.0854203 0.08406889 0.08290209 0.08199839 0.08144446 0.08130439
 0.08155823 0.08206794 0.08260946 0.08294235 0.0828708 0.08228601 0.08119191 0.07969444 0.07794753 0.07609542
 0.07424814 0.07247961 0.07083063 0.06933099 0.06804359 0.06708755 0.06660728 0.06671703 0.06746539 0.0688223
 0.0706744 0.07283948 0.07511529 0.07733979 0.0794204 0.08132154 0.08304286 0.08461291 0.08608071 0.08748349
 0.08881898 0.09006237 0.09120709 0.09227073 0.0932624 0.09416088 0.09492381 0.09550391 0.09586388 0.09599681
 0.09593762 0.09575033 0.09550537 0.09525591 0.09499973 0.09464531 0.09403654 0.09303941 0.09161948 0.08985972
 0.08793963 0.08611283 0.08469274 0.08403083 0.08445303 0.08613275 0.08895964 0.09252565 0.09627479 0.09971867
 0.1025812 0.1048193 0.1065486 0.1079344 0.109109 0.1101494 0.1110929 0.1119547 0.112736 0.113435
 0.1140587 0.1146282 0.1151729 0.1157143 0.1162484 0.1167499 0.1172013 0.1176175 0.1180394 0.1184976
 0.1189822 0.1194509 0.1198751 0.1202694 0.1206635 0.1210552 0.1214149 0.1217325 0.1220344 0.122356
 0.1227153 0.1231109 0.1235198 0.1238989 0.1242132 0.1244681 0.1247045 0.1249588 0.1252366 0.1255228
 0.1258045 0.1260805 0.1263562 0.1266381 0.1269313 0.1272322 0.1275198 0.1277664 0.1279652 0.1281435
 0.1283393 0.1285664 0.1288058 0.1290295 0.1292318 0.1294391 0.1296884 0.1299887 0.1303063 0.1305918
 0.1308223 0.1310169 0.1312124 0.1314321 0.1316746 0.1319232 0.1321626 0.132388 0.132605 0.1328219
 0.1330437 0.1332708 0.1335011 0.1337303 0.1339522 0.1341651 0.134375 0.1345893 0.1348099 0.1350369
 0.1352736 0.1355196 0.1357604 0.1359759 0.1361601 0.1363273 0.1364973 0.1366808 0.1368775 0.1370833
 0.1372958 0.1375152 0.1377401 0.137964 0.1381794 0.1383853 0.1385883 0.1387965 0.1390132 0.1392363
 0.1394632 0.1396954 0.1399359 0.1401808 0.1404191 0.1406425 0.140854 0.1410632 0.1412756 0.1414883
 0.1416956 0.1418983 0.1421055 0.1423264 0.1425597 0.1427938 0.1430178 0.1432312 0.1434415 0.1436545
 0.1438681 0.144077 0.1442812 0.1444862 0.1446953 0.1449064 0.1451187 0.1453341 0.1455532 0.1457744
 0.145997 0.1462213 0.1464459 0.1466683 0.1468863 0.1470991 0.1473078 0.1475144 0.1477198 0.1479229
 0.1481235 0.1483252 0.1485331 0.1487507 0.1489762 0.1492012 0.1494191 0.1496324 0.1498479 0.1500666
 0.1502839 0.1504969 0.1507059 0.1509111 0.1511127 0.1513129 0.1515165 0.1517305 0.1519584 0.1521953
 0.1524316 0.1526627 0.1528904 0.153116 0.1533376 0.1535528 0.1537583 0.1539528 0.1541397 0.1543235
 0.1545077 0.1546979 0.1548997 0.155111 0.1553235 0.1555317 0.1557349 0.1559348 0.1561377 0.156352
 0.1565792 0.1568131 0.1570477 0.1572777 0.1574981 0.1577103 0.1579223 0.1581395 0.1583626 0.1585923
 0.1588266 0.1590587 0.1592855 0.1595104 0.1597345 0.1599552 0.1601738 0.1603934 0.160613 0.1608331
 0.1610575 0.1612854 0.1615125 0.1617378 0.1619614 0.1621816 0.1624011 0.1626263 0.1628563 0.1630863
 0.1633162 0.1635441 0.1637625 0.1639705 0.164176 0.1643838 0.1645952 0.1648153 0.1650452 0.165278
 0.165512 0.1657502 0.1659873 0.1662152 0.1664361 0.1666549 0.1668705 0.1670823 0.1672881 0.1674705
 0.1675904 0.1675544 0.1671178 0.1657818 0.1627804 0.1572323 0.1484846 0.136513 0.12207 0.1064232
 0.09089144 0.07649955 0.06386688 0.05327306 0.04478795 0.03836165 0.0338775 0.03123399 0.03043617 0.03169634
 0.03553853 0.04248374 0.05189 0.06093713 0.06572663 0.06435122 0.058713 0.05279071 0.04933773 0.04855444
 0.04927101 0.05048564 0.0518792 0.05363348 0.05605964 0.0592355 0.0629929 0.06731634 0.0725386 0.07891906
 0.08613555 0.09341973 0.1002214 0.1066334 0.1131378 0.120012 0.1270339 0.1337025 0.1396385 0.1447735
 0.1492687 0.1533405 0.157141 0.1607401 0.1641669 0.1674113 0.1703604 0.1727726 0.1743915 0.1751392
 0.1752104 0.1749698 0.1747413 0.1746783 0.1747949 0.175064 0.1754649 0.1759808 0.1765938 0.1772842
 0.1780259 0.178791 0.1795589 0.1803145 0.1810419 0.1817263 0.1823561 0.1829239 0.1834336 0.1839003
 0.1843361 0.1847428 0.1851231 0.1854863 0.1858368 0.1861702 0.1864834 0.1867792 0.1870608 0.187327
 0.1875757 0.1878057 0.1880208 0.188231 0.1884458 0.188666 0.1888859 0.1891 0.1893069 0.1895093
 0.1897132 0.1899211 0.1901297 0.1903343 0.1905333 0.1907266 0.1909169 0.1911093 0.191306 0.1915033
 0.1916983 0.1918926 0.1920865 0.1922767 0.1924642 0.1926549 0.1928518 0.193052 0.1932499 0.19344
 0.1936234 0.1938134 0.1940224 0.1942444 0.1944628 0.1946722 0.1948795 0.1950879 0.195297 0.1955106
 0.1957283 0.1959356 0.196115 0.1962681 0.1964193 0.1965968 0.1968062 0.1970263 0.1972342 0.1974277
 0.1976165 0.1978034 0.1979818 0.1981465 0.1983027 0.1984733 0.1986868 0.1989441 0.1992113 0.1994575
 0.1996814 0.1998943 0.200104 0.2003186 0.2005387 0.200739 0.2008891 0.2010028 0.2011495 0.2013978
 0.2017449 0.2021105 0.202414 0.2026496 0.2028666 0.2031024 0.2033623 0.2036224 0.2038106 0.203849
 0.2037801 0.2037941 0.2040572 0.2045449 0.2050902 0.205553 0.2059018 0.2061757 0.2064165 0.206626
 0.206764 0.2067973 0.2067696 0.2068165 0.2070712 0.2075278 0.2080339 0.2084443 0.2087357 0.2089566
 0.2091471 0.2093277 0.2094598 0.2094016 0.2090568 0.2086248 0.2085434 0.209064 0.2099697 0.2108094
 0.2113434 0.2116619 0.2119297 0.2121838 0.2123869 0.2124646 0.2121998 0.2113551 0.2101316 0.2093036
 0.2095797 0.2108872 0.2124952 0.2137475 0.2144805 0.2148637 0.2151095 0.2153282 0.2154459 0.2152179
 0.2144985 0.2135944 0.21319 0.2137206 0.2148854 0.2159677 0.2165668 0.2168168 0.2170082 0.217258
 0.2174305 0.2171035 0.2158102 0.21373 0.2120333 0.2120582 0.2140015 0.216682 0.2187119 0.219685
 0.2200632 0.2201593 0.2196732 0.2182322 0.2159528 0.2133899 0.211374 0.2109015 0.2124694 0.2152466
 0.2175498 0.2185087 0.2188016 0.2195373 0.2209284 0.2223088 0.2229999 0.2228323 0.222018 0.2207743
 0.2192247 0.2177492 0.2171912 0.2182575 0.2206595 0.2232177 0.2249556 0.2258411 0.2262645 0.2258848
 0.2234087 0.2181449 0.2119317 0.2086218 0.2106811 0.2166117 0.2225611 0.2261104 0.2275996 0.2283151
 0.2287669 0.2285486 0.2265719 0.2216541 0.2143711 0.2082352 0.207325 0.2122519 0.2194715 0.2245948
 0.2253839 0.2219975 0.2162078 0.2108701 0.2087549 0.2108688 0.2160146 0.2219755 0.2268483 0.2295664
 0.229886 0.2282777 0.2258928 0.2242914 0.2243187 0.2248594 0.2236739 0.2202217 0.2165484 0.2142739
 0.2120826 0.2081678 0.2042144 0.2042923 0.2095694 0.2163617 0.2202733 0.2206492 0.2197812 0.2187198
 0.2154612 0.2078234 0.1975717 0.1904908 0.1913192 0.1988255 0.2068987 0.2105057 0.2096555 0.2076174
 0.2065052 0.2051345 0.2007477 0.1926709 0.1841217 0.179578 0.1801573 0.1827289 0.1837244 0.1820064
 0.1776356 0.170751 0.1636509 0.1615425 0.168082 0.1808345 0.1931642 0.1996905 0.198248 0.1886859
 0.173615 0.1599802 0.1556955 0.1625878 0.1742295 0.1818872 0.181454 0.1741487 0.162787 0.1498637
 0.1387794 0.1341746 0.1391251 0.1520422 0.1667136 0.1753713 0.1729678 0.1611213 0.1485114 0.1446244
 0.1510962 0.1605697 0.1649401 0.1627188 0.157872 0.1547059 0.155376 0.1595552 0.1647978 0.1688157
 0.1713055 0.1714269 0.1653474 0.1508764 0.1336739 0.123551 0.124275 0.131612 0.1411878 0.1524015
 0.1633383 0.1680918 0.1634239 0.1549315 0.1523048 0.1590571 0.1695203 0.1757906 0.1755654 0.1725723
 0.1708 0.1702255 0.1688402 0.1673077 0.1691132 0.1757585 0.1841325 0.1899682 0.1922556 0.1928672
 0.1933308 0.1936623 0.1934567 0.1925777 0.1910772 0.1892952 0.187752 0.1865183 0.185096 0.1830625
 0.1801051 0.1751857 0.1668623 0.1556441 0.1453279 0.140151 0.1405116 0.1432874 0.1462899 0.1494203
 0.1506134 0.1447928 0.1303639 0.1144758 0.1078253 0.1143497 0.1282834 0.1407081 0.1463921 0.1442874
 0.1348962 0.1203516 0.1064123 0.1007301 0.1068817 0.1212538 0.1371005 0.1502546 0.1595961 0.1641122
 0.1625526 0.1559204 0.1483177 0.1445992 0.1474698 0.1562731 0.1671673 0.1740819 0.1716998 0.1607955
 0.1506882 0.1523758 0.1669344 0.1836642 0.1920964 0.1926069 0.192178 0.1935258 0.1937346 0.1919052
 0.1922142 0.1980816 0.2070174 0.2130659 0.2121117 0.2035274 0.1893567 0.1744514 0.1653135 0.1651566
 0.1705278 0.1752546 0.1764759 0.1742106 0.1677237 0.1574109 0.1489946 0.1499579 0.1608097 0.1740073
 0.1825549 0.1864097 0.189355 0.1924146 0.1925381 0.1871724 0.178543 0.1723326 0.1721269 0.176307
 0.180857 0.1835684 0.1841466 0.181927 0.1762811 0.169306 0.165765 0.1689983 0.1775345 0.1865068
 0.1920086 0.1935245 0.1927959 0.1915321 0.1902415 0.1883734 0.1854901 0.1827834 0.1828342 0.1868439
 0.1926865 0.1970638 0.199255 0.2013536 0.2049341 0.2088673 0.2107466 0.2096084 0.2069089 0.2052706
 0.2063856 0.2096803 0.2127306 0.2132824 0.2113588 0.2094386 0.2101926 0.2139503 0.2186706 0.2222392
 0.2241885 0.2252663 0.2261841 0.2270005 0.2270869 0.2256124 0.2227166 0.2201923 0.2202163 0.2231926
 0.2273664 0.2306311 0.2322185 0.2325968 0.2323408 0.2315254 0.2300598 0.2282382 0.2267414 0.2261108
 0.2263575 0.2271087 0.2279805 0.228745 0.2293052 0.2296655 0.2298958 0.2300576 0.2301806 0.2302968
 0.2304197 0.2304895 0.2304254 0.2302605 0.2301496 0.2301979 0.2303316 0.2303879 0.2302811 0.230003
 0.2295023 0.2286838 0.2275427 0.226196 0.2247358 0.2231483 0.221493 0.2201262 0.2196058 0.2202719
 0.2219245 0.2239405 0.2256892 0.2268367 0.2273667 0.2274661 0.2274109 0.2274402 0.2276323 0.227892
 0.2280736 0.2281038 0.2279921 0.2277729 0.2274782 0.2271499 0.2268279 0.2265007 0.2260912 0.2255343
 0.2248807 0.2242912 0.2238978 0.2236818 0.2235081 0.223263 0.2229269 0.222525 0.2220512 0.221457
 0.2206939 0.2197638 0.2187422 0.2177514 0.216881 0.2161196 0.2153662 0.2145119 0.2135223 0.2124615
 0.2114434 0.2105451 0.2097559 0.2090094 0.208248 0.2074417 0.2065704 0.2056293 0.2046517 0.2036902
 0.2027662 0.2018505 0.2008927 0.1998539 0.1987167 0.1974792 0.1961452 0.1947196 0.193214 0.191649
 0.1900318 0.1883165 0.1863909 0.1841138 0.1813742 0.1781306 0.1744098 0.1702881 0.1658811 0.1613392
 0.1568262 0.152484 0.1484249 0.1447579 0.1416045 0.1390673 0.1371867 0.1359386 0.135281 0.1351985
 0.1357026 0.136791 0.1384113 0.1404605 0.1428086 0.1453141 0.1478299 0.1502233 0.1524173 0.1544196
 0.1562979 0.1581067 0.1598346 0.1614298 0.1628669 0.1641684 0.1653617 0.1664435 0.1673938 0.1682102
 0.1689159 0.1695436 0.1701145 0.170626 0.1710517 0.1713506 0.1714847 0.1714467 0.1712984 0.1711846
 0.171279 0.1716812 0.1723532 0.1731615 0.1739815 0.1747662 0.1755341 0.176327 0.1771903 0.1781652
 0.1792663 0.1804679 0.1817252 0.1830156 0.1843518 0.1857611 0.187254 0.1888086 0.1903725 0.1918726
 0.1932307 0.1943829 0.1953017 0.196001 0.1965211 0.1969072 0.1971948 0.1973959 0.1974943 0.197469
 0.1973301 0.1971236 0.1968996 0.1966768 0.1964338 0.1961221 0.1956949 0.1951368 0.1944727 0.1937553
 0.1930537 0.1924517 0.1920314 0.1918301 0.1918061 0.1918556 0.1918732 0.1918 0.1916267 0.1913728
 0.1910754 0.1907734 0.1904683 0.1901034 0.1896073 0.188959 0.1881908 0.1873302 0.186368 0.1852881
 0.1841023 0.1828363 0.1814948 0.1800567 0.178505 0.1768438 0.1750864 0.1732458 0.1713551 0.1694813
 0.1677002 0.1660556 0.1645493 0.163156 0.1618334 0.1605297 0.1591984 0.1578183 0.1564191 0.1550912
 0.1539428 0.1530204 0.1522753 0.1516133 0.1509645 0.1503118 0.149681 0.1491135 0.1486343 0.1482368
 0.1479006 0.1476173 0.1473976 0.1472616 0.1472164 0.1472357 0.1472641 0.147245 0.1471449 0.1469644
 0.1467412 0.1465283 0.1463565 0.1462266 0.1461309 0.1460536 0.1459478 0.1457319 0.1453125 0.1446075
 0.143575 0.1422402 0.1406888 0.1390367 0.1374129 0.1359384 0.1346889 0.1336808 0.1328923 0.1322796
 0.131784 0.131363 0.1310209 0.1308002 0.1307469 0.130863 0.1310619 0.1312017 0.1312155 0.1311903
 0.1312868 0.1316047 0.1321329 0.1327775 0.1334176 0.1339687 0.1344066 0.1347277 0.1349251 0.1350119
 0.1350193 0.1349554 0.1348012 0.1345475 0.1342149 0.1338435 0.133462 0.1330503 0.1325539 0.131947
 0.1312456 0.1304583 0.1295826 0.1286327 0.1276025 0.1264437 0.1251726 0.1239713 0.1231059 0.1227457
 0.1228591 0.1232413 0.1236628 0.1240273 0.1243271 0.1244483 0.1242147 0.1237568 0.1236859 0.1246688
 0.1267921 0.1294342 0.1317832 0.1334018 0.1342833 0.1345466 0.1342658 0.1335066 0.1323152 0.1306834
 0.1286343 0.1262766 0.1237169 0.121048 0.1184401 0.1160934 0.1141118 0.1125132 0.1112823 0.1104309
 0.1100593 0.1098484 0.1081432 0.1027928 0.09447154 0.08821389 0.08921289 0.09699374 0.1057146 0.1103357
 0.1106467 0.1092746 0.1080631 0.107299 0.106882 0.1069278 0.1075442 0.1086048 0.109774 0.1107103
 0.1112799 0.1115174 0.1113744 0.1105242 0.1083183 0.1040003 0.09731083 0.08903654 0.08075979 0.07393505
 0.06921584 0.06646324 0.06508278 0.06437515 0.06387313 0.06354368 0.06367578 0.06455319 0.06623213 0.06858724
 0.0714478 0.07457913 0.07760426 0.08014556 0.08209436 0.08361212 0.08484392 0.08575431 0.08624959 0.08632237
 0.08603974 0.08548702 0.08476345 0.08396628 0.08312506 0.08218476 0.08112513 0.08009392 0.07933325 0.07894682
 0.07882127 0.0787939 0.0787988 0.07883127 0.07887503 0.07890424 0.07891113 0.07893646 0.07908299 0.07943399
 0.07993318 0.08040896 0.08073339 0.08091456 0.08103499 0.0811108 0.08100525 0.08055526 0.07984872 0.07923263
 0.07888307 0.07851081 0.07773242 0.07664818 0.07580124 0.07557823 0.0758483 0.0761975 0.07633738 0.0762433
 0.07607216 0.07606533 0.0764053 0.07699533</values></Ydata></ScSm><ScRf><Ydata ylabel="Single channel"><values byteorder="INTEL" format="FLOAT32" numvalues="1820"> 0.06056652 0.06072818 0.06081933 0.06084445 0.06083484 0.06084011 0.06090687 0.0610504 0.06124285 0.0614282
 0.0615581 0.06162192 0.06163618 0.06161024 0.06155117 0.06150325 0.06153944 0.0616888 0.06189214 0.06204418
 0.06207849 0.06202488 0.06199113 0.06205781 0.0621672 0.06214168 0.06185104 0.06136361 0.06090122 0.06063591
 0.06058511 0.06074373 0.06119073 0.06187569 0.06238256 0.06222706 0.06146383 0.06071558 0.06048238 0.06066264
 0.06084272 0.06077697 0.06046309 0.06004836 0.05987359 0.06038146 0.06168038 0.06318554 0.06382916 0.06273254
 0.0598333 0.05609078 0.05313472 0.05238841 0.05406374 0.05687694 0.05901359 0.05957513 0.05900868 0.0581902
 0.05748018 0.05683349 0.05641161 0.05662471 0.05756842 0.05863167 0.05880596 0.05754922 0.05543273 0.05373952
 0.05329119 0.05392625 0.05518164 0.05679726 0.05803079 0.05726245 0.05358817 0.04883847 0.04676285 0.04946623
 0.0551615 0.05991682 0.0611535 0.05908996 0.05559736 0.05264809 0.05156935 0.05268545 0.05526762 0.05814219
 0.06040136 0.06143258 0.06075412 0.05843972 0.05553501 0.05354818 0.0535203 0.05561844 0.0591025 0.06239149
 0.06378116 0.06270376 0.0601063 0.05745135 0.05575582 0.05559507 0.05724377 0.0603876 0.06410664 0.06740925
 0.06963605 0.07052562 0.07027157 0.06940313 0.06838149 0.06751665 0.06724793 0.06787767 0.06884497 0.06893533
 0.06760438 0.06570739 0.0646176 0.06480671 0.06547301 0.06551917 0.06466088 0.06324112 0.06114373 0.05778582
 0.053454 0.0496478 0.04758026 0.04725997 0.04839243 0.05085042 0.05361016 0.05468344 0.05329006 0.05125052
 0.05117398 0.05367649 0.05706354 0.059408 0.06033396 0.06089202 0.06219894 0.06429112 0.06597197 0.06571355
 0.06317866 0.06008168 0.05897975 0.06076062 0.0637852 0.0658989 0.06670141 0.06731232 0.06841761 0.06921004
 0.06823033 0.06510295 0.06147289 0.05998433 0.06197005 0.06611723 0.06942697 0.06943293 0.0658567 0.06066993
 0.05656151 0.05507727 0.05620747 0.05941579 0.06423381 0.06971388 0.07417867 0.076157 0.07544932 0.0730592
 0.07004414 0.06653118 0.06225413 0.05817987 0.05672173 0.05946434 0.06513999 0.0706853 0.07397711 0.07489222
 0.07411484 0.0718286 0.06792438 0.06328594 0.06020975 0.06062025 0.06375395 0.06659093 0.0670158 0.06574617
 0.06478591 0.06492893 0.06546109 0.0656931 0.06595342 0.06702921 0.06903428 0.07111695 0.07228054 0.07228354
 0.07167818 0.07116897 0.07097237 0.07065645 0.06975174 0.06869779 0.06878638 0.07074459 0.07373156 0.07620391
 0.07746418 0.07790841 0.07798557 0.07740564 0.07555222 0.07263136 0.07014288 0.06976907 0.07174773 0.07471968
 0.07714258 0.07840513 0.0786874 0.07839754 0.07789101 0.07735996 0.07689955 0.07675454 0.07725152 0.07833032
 0.07944471 0.08011009 0.08029754 0.08018218 0.07979725 0.07911621 0.07830885 0.07773899 0.07770085 0.0781997
 0.07900037 0.07983859 0.08051249 0.0808389 0.08071731 0.08027624 0.07979983 0.07946765 0.07928859 0.0792788
 0.07952306 0.08001184 0.08056054 0.08096446 0.0811599 0.0811978 0.08113244 0.08098528 0.08078249 0.0805942
 0.08052938 0.08066173 0.0809387 0.0812152 0.08142091 0.08162999 0.08190226 0.08213222 0.08215831 0.08197993
 0.0817685 0.08167963 0.08172828 0.08183715 0.08192635 0.08192416 0.08175293 0.0813974 0.08100114 0.08081445
 0.08099457 0.08149351 0.08214556 0.08278486 0.08327225 0.08352567 0.08358154 0.08355449 0.08350265 0.08338749
 0.08318004 0.0829576 0.08287527 0.08304836 0.08345197 0.08393407 0.08433378 0.08457738 0.0846799 0.08471836
 0.0848031 0.08498971 0.08519672 0.08528274 0.08522412 0.08515103 0.08518843 0.08531305 0.08539291 0.08534516
 0.08523321 0.08520286 0.08533069 0.08555652 0.08576801 0.08592334 0.08607258 0.08626938 0.08647559 0.08657108
 0.08648133 0.08627954 0.08611624 0.08605841 0.08606055 0.08608894 0.08618778 0.08638754 0.08661552 0.08675693
 0.08678412 0.08677867 0.08682269 0.08689979 0.08692025 0.08682692 0.08665512 0.08649606 0.08642241 0.08644657
 0.08652531 0.08659184 0.08659521 0.08652754 0.08642045 0.08631334 0.08622712 0.0861772 0.08620447 0.0863578
 0.08661737 0.08685291 0.08690356 0.08672156 0.086427 0.08620384 0.08613677 0.0861508 0.08610459 0.08592917
 0.08567151 0.08542459 0.085242 0.08511822 0.08502263 0.08493792 0.08488067 0.08489642 0.08501346 0.08518
 0.08526763 0.08517545 0.08493017 0.08465867 0.08447163 0.08439597 0.0843944 0.08441063 0.08441247 0.08442213
 0.08448276 0.08457636 0.08461718 0.08455439 0.08443987 0.08437294 0.08441867 0.08458474 0.08481564 0.08499515
 0.08502123 0.0849097 0.08478435 0.08474877 0.08480327 0.0848915 0.08498029 0.08507019 0.08516245 0.0852538
 0.08535869 0.08551038 0.08572847 0.08599079 0.08624121 0.0864272 0.08654043 0.08663128 0.08677724 0.0870217
 0.08733786 0.08765338 0.08791119 0.08810902 0.08828523 0.08847037 0.08866141 0.0888509 0.0890633 0.08933413
 0.08965839 0.08999005 0.09029465 0.09057713 0.09085711 0.09114138 0.09142884 0.09173197 0.09208368 0.09250802
 0.09296986 0.09337036 0.0936249 0.09374839 0.09384848 0.09403974 0.09436563 0.09476922 0.09512167 0.0953203
 0.09539379 0.09548281 0.095687 0.09596433 0.0962168 0.09643906 0.09672461 0.09713145 0.09759201 0.09797443
 0.09821124 0.09835266 0.09849985 0.09869616 0.09889264 0.09902422 0.09910038 0.09919068 0.09933148 0.0994989
 0.09968652 0.09994996 0.1003303 0.1007724 0.101167 0.1014537 0.1016464 0.1017835 0.1018915 0.1019797
 0.1020395 0.1020663 0.1020911 0.1021611 0.1022718 0.1023614 0.1023932 0.1024082 0.1024725 0.10261
 0.1028131 0.1030799 0.1033972 0.103715 0.1039902 0.1042534 0.1045767 0.1049581 0.1052877 0.1054655
 0.105515 0.1055342 0.1055703 0.1056068 0.1056566 0.1057878 0.106041 0.1063741 0.1067172 0.1070443
 0.1073727 0.107713 0.108037 0.1082871 0.1084154 0.1084249 0.1083812 0.108378 0.1084853 0.1087144
 0.1090182 0.1093266 0.1095877 0.1097767 0.1098726 0.1098639 0.1097951 0.1097747 0.1098878 0.1100981
 0.1102648 0.11026 0.1100502 0.1096703 0.1091584 0.1085417 0.1078668 0.1072123 0.10666 0.1062597
 0.1060324 0.1060036 0.106213 0.106669 0.1073007 0.1079826 0.1086107 0.1091238 0.1094505 0.1094903
 0.109189 0.1086081 0.107888 0.1071568 0.1064838 0.105879 0.1053065 0.1047305 0.1041954 0.1038558
 0.1039023 0.1044531 0.1054978 0.1069028 0.1084499 0.1099077 0.1111253 0.1120857 0.1128706 0.1135721
 0.1142396 0.1148959 0.1155646 0.116249 0.1169025 0.1174622 0.1179169 0.118315 0.1187041 0.1190864
 0.1194313 0.1197106 0.1199288 0.1201259 0.1203355 0.1205304 0.1206375 0.1206217 0.1205271 0.1204195
 0.1203125 0.1201624 0.1199145 0.1195462 0.1190997 0.1186992 0.1185275 0.1187501 0.1194247 0.1204686
 0.1217181 0.1230269 0.1243028 0.1254654 0.1264193 0.1271038 0.1275489 0.1278539 0.1281151 0.1283852
 0.1286798 0.1289925 0.129305 0.1295995 0.1298721 0.1301397 0.1304322 0.1307665 0.1311192 0.1314366
 0.1316873 0.1319034 0.1321582 0.132498 0.1328973 0.133288 0.1336296 0.1339428 0.1342592 0.1345614
 0.1348011 0.1349708 0.1351236 0.1353228 0.1355992 0.135947 0.1363256 0.1366652 0.1369123 0.1370803
 0.1372353 0.1374283 0.1376609 0.1379098 0.1381607 0.138411 0.1386618 0.1389196 0.1391988 0.1395037
 0.139805 0.1400514 0.1402201 0.1403502 0.1405088 0.1407245 0.1409658 0.1411858 0.1413771 0.1415788
 0.1418353 0.1421454 0.1424552 0.1427033 0.1428739 0.1430024 0.143135 0.1432946 0.143482 0.1436927
 0.143919 0.1441445 0.144353 0.1445459 0.1447414 0.1449519 0.1451697 0.1453792 0.1455762 0.1457717
 0.1459792 0.1462019 0.1464364 0.1466853 0.1469588 0.1472526 0.1475334 0.1477618 0.1479301 0.1480658
 0.148201 0.1483509 0.1485173 0.1486982 0.1488903 0.1490881 0.1492863 0.1494828 0.1496801 0.1498819
 0.1500885 0.1502972 0.1505055 0.1507131 0.1509228 0.1511405 0.1513689 0.151599 0.1518139 0.1520041
 0.1521767 0.15235 0.1525408 0.1527514 0.1529658 0.1531644 0.1533448 0.153522 0.1537073 0.1538979
 0.1540876 0.1542763 0.1544686 0.1546663 0.154867 0.1550677 0.155267 0.1554643 0.1556579 0.1558494
 0.1560453 0.1562506 0.1564599 0.156663 0.156856 0.1570442 0.157235 0.1574328 0.1576382 0.1578475
 0.1580558 0.1582598 0.1584583 0.1586526 0.1588462 0.1590417 0.1592382 0.1594315 0.1596188 0.1598011
 0.1599854 0.1601803 0.1603861 0.1605959 0.1608076 0.1610265 0.1612527 0.1614768 0.1616908 0.1618956
 0.1620979 0.1623061 0.1625271 0.1627582 0.1629892 0.1632139 0.1634342 0.1636506 0.1638563 0.1640436
 0.1642134 0.1643755 0.164542 0.1647173 0.1648973 0.1650783 0.165261 0.1654468 0.1656362 0.1658304
 0.1660295 0.1662302 0.1664308 0.1666317 0.1668311 0.1670292 0.1672313 0.1674376 0.1676389 0.1678298
 0.1680182 0.1682135 0.1684173 0.1686279 0.1688433 0.1690597 0.1692744 0.1694873 0.1696962 0.1698983
 0.1700969 0.1702984 0.170505 0.1707157 0.1709301 0.1711468 0.1713656 0.1715871 0.1718073 0.1720214
 0.1722344 0.1724553 0.1726817 0.1729022 0.1731107 0.1733063 0.1734902 0.1736725 0.1738659 0.174072
 0.1742851 0.1745034 0.1747258 0.1749469 0.175166 0.1753857 0.1756027 0.1758147 0.1760275 0.1762448
 0.1764629 0.1766811 0.1768954 0.1770848 0.1772078 0.177164 0.1766868 0.1752387 0.1720055 0.1660586
 0.1567139 0.1439545 0.1285905 0.1119777 0.09551607 0.08027803 0.06690196 0.05567802 0.04668728 0.03988382
 0.0351427 0.03235115 0.03151165 0.03284908 0.03691975 0.04427561 0.05423164 0.06379248 0.06882919 0.06733772
 0.06135231 0.0550901 0.05145176 0.05063214 0.05138733 0.05266135 0.05412152 0.05596178 0.05851255 0.0618619
 0.06584191 0.0704411 0.07600081 0.08277231 0.09039691 0.0980638 0.1052112 0.1119618 0.1188381 0.1261275
 0.1335773 0.1406434 0.1469216 0.1523412 0.1570738 0.1613504 0.1653369 0.1691142 0.1727192 0.1761449
 0.1792675 0.1818194 0.1835194 0.184285 0.1843306 0.1840492 0.1837858 0.1837025 0.1838156 0.1840952
 0.1845155 0.1850552 0.185695 0.1864138 0.1871826 0.1879719 0.1887612 0.1895332 0.1902686 0.1909562
 0.1915972 0.1921939 0.1927466 0.1932587 0.1937351 0.194177 0.1945867 0.1949702 0.1953309 0.1956702
 0.1959919 0.1962985 0.196586 0.1968514 0.1970965 0.1973247 0.1975405 0.1977533 0.1979712 0.198191
 0.198403 0.198602 0.1987914 0.1989812 0.1991831 0.1994006 0.1996237 0.1998392 0.2000421 0.2002348
 0.2004215 0.2006069 0.2007958 0.2009885 0.2011831 0.201379 0.201576 0.2017692 0.2019527 0.2021266
 0.2022996 0.2024831 0.202681 0.202887 0.2030952 0.2033093 0.2035325 0.2037575 0.2039748 0.2041844
 0.2043891 0.2045876 0.2047845 0.2049926 0.2052121 0.2054192 0.2055898 0.2057324 0.2058871 0.2060884
 0.2063296 0.2065703 0.2067814 0.2069719 0.2071662 0.207372 0.2075777 0.2077704 0.2079494 0.2081345
 0.2083534 0.2086109 0.2088801 0.2091359 0.2093755 0.209604 0.2098237 0.2100424 0.2102619 0.2104576
 0.2106007 0.2107091 0.2108534 0.2110999 0.211446 0.211816 0.2121309 0.2123779 0.2125999 0.2128388
 0.2131091 0.2133865 0.2135886 0.2136312 0.2135634 0.2135887 0.2138777 0.2143949 0.2149584 0.2154255
 0.2157748 0.2160548 0.2163079 0.2165327 0.2166884 0.2167392 0.2167228 0.2167744 0.2170371 0.217515
 0.218054 0.2184986 0.2188167 0.2190509 0.2192369 0.2193958 0.2194965 0.2194051 0.2190298 0.218576
 0.2184887 0.2190193 0.2199418 0.2207942 0.221334 0.221655 0.2219283 0.222194 0.2224139 0.2225069
 0.2222409 0.2213624 0.2200786 0.2192032 0.219487 0.2208617 0.2225642 0.2239011 0.2246884 0.225091
 0.2253324 0.2255424 0.2256531 0.225402 0.2246303 0.2236693 0.2232509 0.2238271 0.2250618 0.226192
 0.226809 0.2270701 0.2272795 0.2275482 0.2277283 0.2273795 0.2260116 0.2238096 0.2220074 0.2220225
 0.2240672 0.2268915 0.2290221 0.2300286 0.2304048 0.2304855 0.2299529 0.2284165 0.2260121 0.223332
 0.2212356 0.2207464 0.2223791 0.2252743 0.2276786 0.2286763 0.2289659 0.2297046 0.2311238 0.2325374
 0.2332353 0.233037 0.2321656 0.2308508 0.2292177 0.2276604 0.2270655 0.2281801 0.2307037 0.2333975
 0.2352282 0.2361484 0.2365613 0.2361193 0.2334794 0.2279194 0.2213643 0.2178586 0.2200009 0.2262263
 0.2324845 0.2362215 0.2377854 0.2385291 0.2389901 0.2387376 0.2366281 0.2314339 0.2237807 0.2173635
 0.216447 0.2216434 0.2292177 0.2345776 0.2353984 0.2318562 0.2258034 0.2202259 0.2180241 0.2202525
 0.2256608 0.2319296 0.237059 0.2399224 0.2402647 0.2385929 0.2361283 0.2345063 0.2345902 0.2351823
 0.2339312 0.2302999 0.226466 0.2241332 0.2219001 0.2178514 0.2137564 0.2139048 0.2195315 0.2267561
 0.2309497 0.2314312 0.230621 0.2296166 0.2262928 0.218349 0.2076663 0.2003773 0.2015047 0.2097495
 0.2186585 0.2229512 0.2227123 0.2214753 0.2215087 0.2215053 0.2184152 0.2114238 0.2039714 0.2008662
 0.2031666 0.2072315 0.2090249 0.2073301 0.2023277 0.1943052 0.1859891 0.183377 0.1906782 0.2051607
 0.2192913 0.2269342 0.2255861 0.2150277 0.1982142 0.1830965 0.178744 0.1872084 0.2010261 0.2100921
 0.2096714 0.2012126 0.1880313 0.1730718 0.1603118 0.1551604 0.1612104 0.1766087 0.194081 0.2045216
 0.202019 0.1884865 0.1741275 0.1700883 0.1782684 0.1899804 0.1956748 0.1936103 0.1884748 0.1853786
 0.186924 0.1927353 0.1998451 0.2054805 0.2092706 0.2101024 0.2031474 0.1856607 0.1646545 0.1522822
 0.1532247 0.1622828 0.1740951 0.187954 0.2014956 0.2073921 0.2016146 0.1910775 0.1877613 0.1959978
 0.2087659 0.2162886 0.215709 0.2116151 0.208942 0.2077165 0.2055121 0.2031313 0.2048036 0.2123575
 0.2220336 0.2286833 0.2311186 0.231645 0.2321367 0.2326159 0.2325802 0.231857 0.2305166 0.2289963
 0.2279705 0.227589 0.2273383 0.2268234 0.2257251 0.2225951 0.2151841 0.2036088 0.1923487 0.1866906
 0.1871194 0.1897006 0.1919186 0.1941331 0.1941234 0.1855608 0.1663705 0.1455905 0.1367982 0.1449913
 0.1628603 0.1791163 0.1871454 0.1855838 0.1749296 0.1577213 0.1412337 0.1352243 0.1439836 0.1622141
 0.1806867 0.194196 0.2021778 0.2043109 0.1995215 0.1891115 0.1780303 0.1720512 0.1742477 0.1836362
 0.1955148 0.2026871 0.1989777 0.1853584 0.1726577 0.1735805 0.189387 0.2078128 0.2168641 0.2169687
 0.2161122 0.2174155 0.2175873 0.2156457 0.2164122 0.2238944 0.2353954 0.2441802 0.2453905 0.2379587
 0.2239874 0.2092466 0.2016692 0.2049515 0.2142844 0.2215332 0.2230864 0.2193688 0.2100372 0.1960021
 0.184525 0.1848528 0.1975062 0.2130647 0.2228681 0.2268984 0.2298642 0.2330897 0.2329196 0.2262819
 0.2158447 0.2083776 0.2080569 0.2128127 0.2178276 0.220617 0.2210383 0.2183981 0.2118939 0.2039114
 0.2000494 0.2042469 0.2146839 0.2254572 0.2318359 0.2332125 0.2317268 0.2294868 0.2271514 0.2240954
 0.2198095 0.2157188 0.2149055 0.2188154 0.2249545 0.2294575 0.2315186 0.2336514 0.237747 0.2424737
 0.2448985 0.2436814 0.2403404 0.2379203 0.2385462 0.2417406 0.2447852 0.2450456 0.2424779 0.2399031
 0.2404086 0.2444065 0.2495838 0.2535334 0.2557099 0.2569278 0.2579555 0.2588419 0.2588759 0.2571214
 0.2537472 0.2508054 0.2507789 0.2541174 0.2588094 0.2624648 0.2642522 0.264758 0.2646559 0.2640024
 0.2626359 0.2608261 0.2592948 0.2586398 0.2589028 0.2597142 0.2606816 0.2615586 0.262222 0.2626592
 0.2629398 0.2631263 0.2632419 0.2633241 0.2634126 0.2634646 0.2633948 0.2632434 0.2632028 0.263402
 0.2637374 0.2639881 0.2640213 0.2637969 0.2632483 0.2623049 0.2610271 0.259585 0.2580637 0.2564082
 0.254668 0.2532527 0.2528009 0.253697 0.2557139 0.2581576 0.260345 0.2619421 0.2629421 0.2634768
 0.2637011 0.2637597 0.2637507 0.263695 0.2635643 0.263341 0.2630415 0.2626942 0.2623185 0.2619323
 0.2615649 0.2612435 0.2609629 0.2606787 0.2603379 0.2599161 0.2594283 0.2589113 0.2583908 0.257852
 0.2572401 0.2565008 0.2556284 0.2546776 0.25373 0.2528477 0.252041 0.2512726 0.2504937 0.2496757
 0.248796 0.2478135 0.2467043 0.2455334 0.2444507 0.2435761 0.2428956 0.2422873 0.2416278 0.2408557
 0.2399673 0.238995 0.2379842 0.2369592 0.2359048 0.2347902 0.2336001 0.2323325 0.2309839 0.2295501
 0.2280334 0.2264457 0.2248129 0.223164 0.2214942 0.2197343 0.2177632 0.2154467 0.2126623 0.2093175
 0.2053815 0.2009184 0.19609 0.1911132 0.1861967 0.1815046 0.1771663 0.1732954 0.1699794 0.1672653
 0.1651775 0.1637485 0.1630199 0.1630183 0.1637371 0.1651325 0.1671231 0.169592 0.1723951 0.1753719
 0.178355 0.181189 0.1837764 0.1861228 0.1883125 0.1904111 0.1923982 0.1942095 0.1958148 0.1972272
 0.1984562 0.1994918 0.2003344 0.2010196 0.2016037 0.202125 0.2025837 0.2029615 0.2032584 0.2034963
 0.2036968 0.2038747 0.2040499 0.2042437 0.2044629 0.2046999 0.204951 0.2052327 0.2055796 0.206017
 0.2065306 0.2070769 0.2076316 0.2082091 0.2088311 0.2095001 0.2102196 0.2110237 0.2119663 0.2130788
 0.2143419 0.2156967 0.2170726 0.2183999 0.219605 0.2206163 0.2213858 0.2219034 0.2221925 0.222293
 0.2222425 0.2220615 0.2217619 0.2213655 0.2209022 0.2203878 0.21982 0.219198 0.218535 0.2178487
 0.2171504 0.2164471 0.2157449 0.2150492 0.2143648 0.2137003 0.2130676 0.2124718 0.2119015 0.2113331
 0.2107492 0.2101522 0.2095602 0.2089882 0.2084315 0.2078616 0.2072359 0.2065156 0.2056824 0.2047437
 0.2037171 0.2026094 0.2014154 0.2001337 0.1987714 0.1973342 0.195826 0.1942564 0.1926315 0.1909346
 0.1891306 0.1872015 0.1851752 0.1831232 0.1811313 0.1792664 0.1775551 0.1759831 0.1745136 0.1731147
 0.1717752 0.1704956 0.1692736 0.1681064 0.1670015 0.1659663 0.1649912 0.1640555 0.163151 0.162296
 0.1615272 0.1608728 0.1603305 0.1598746 0.1594842 0.159156 0.1588997 0.1587339 0.1586754 0.1587094
 0.158779 0.1588157 0.1587771 0.1586607 0.1585003 0.1583462 0.1582312 0.158156 0.1581027 0.1580397
 0.157907 0.1576175 0.1570799 0.1562253 0.1550315 0.1535337 0.1518057 0.1499467 0.1480902 0.1463858
 0.1449396 0.1437862 0.1429119 0.1422685 0.1417742 0.1413562 0.1410081 0.1407902 0.1407715 0.140955
 0.1412319 0.1414368 0.1414946 0.1414977 0.1416205 0.1419856 0.1426023 0.1433734 0.1441507 0.1448261
 0.1453666 0.145766 0.1460192 0.1461511 0.1462018 0.1461741 0.1460461 0.1458245 0.1455472 0.1452446
 0.1449176 0.1445331 0.1440511 0.1434704 0.1428161 0.1420876 0.1412671 0.1403553 0.1393374 0.1381752
 0.1369225 0.1358013 0.1350909 0.1349625 0.1354079 0.136257 0.1372867 0.1383616 0.1394049 0.1402298
 0.140601 0.1406035 0.1408034 0.1418367 0.1438134 0.1462016 0.1482976 0.1497277 0.1504814 0.1506426
 0.1502685 0.1494206 0.14811 0.1462657 0.1438871 0.1411241 0.1381418 0.1350693 0.1320962 0.1294272
 0.1271599 0.1253205 0.1239229 0.1230022 0.1226553 0.122483 0.1206016 0.1146152 0.1053143 0.09832935
 0.09940733 0.1079654 0.1175003 0.1224544 0.122637 0.1209773 0.1195155 0.1185672 0.1180322 0.1180556
 0.1187573 0.1199775 0.1213257 0.1224163 0.1230912 0.1233792 0.123235 0.1223174 0.1199146 0.1151749
 0.1077882 0.09860665 0.08937709 0.08172154 0.07638247 0.07322806 0.07163042 0.07084209 0.07034757 0.07009001
 0.07036163 0.07144003 0.07335143 0.0759557 0.07909986 0.08255377 0.08590034 0.08871718 0.09089345 0.09261756
 0.09404287 0.09510319 0.09566134 0.09570121 0.09533453 0.09470934 0.09395404 0.09314414 0.09225634 0.09119214
 0.08994247 0.08872622 0.08785643 0.08744636 0.08734106 0.08733283 0.08732651 0.0873038 0.08725998 0.08720065
 0.08713876 0.08711037 0.08721013 0.08753206 0.0880391 0.08855549 0.08891381 0.08908191 0.08914436 0.08914756
 0.08896032 0.08839746 0.08754693 0.08678418 0.08628774 0.08573164 0.08471959 0.08340357 0.08239686 0.0821089
 0.08237646 0.08273137 0.08283649 0.08264677 0.08235145 0.08226858 0.08263807 0.08334197 0.08390374 0.08391997
</values></Ydata></ScRf><Data_Parameters_AB><parameter name="DPF">1</parameter><parameter name="NPT">3497</parameter><parameter name="FXV">3996</parameter><parameter name="LXV">500</parameter><parameter name="CSF">1</parameter><parameter name="MXY">0.194692268967628</parameter><parameter name="MNY">0.010537289083004</parameter><parameter name="DAT">30/05/2022</parameter><parameter name="TIM">12:17:19.568 (GMT+2)</parameter><parameter name="DXU">WN</parameter></Data_Parameters_AB><AB__Qtest><MainReport name="Quality Test Report"><Header><Line><Legend>Test result ok/not ok [1/0]: </Legend><Value>0</Value></Line><Line><Legend>Method file: </Legend><Value>C:\Users\Public\Documents\Bruker\OPUS_8.2.28\QT\IRBT_v3_default.QT</Value></Line></Header><Matrix><Line><Legend></Legend><Legend>min</Legend><Legend>max</Legend><Legend>measured</Legend></Line><Line><Value>Absorption (X-Range 1):</Value><Value>0.400000</Value><Value>2.000000</Value><Value>0.072616</Value></Line><Line><Value>Noise (X-Range 4):</Value><Value></Value><Value>0.000300</Value><Value>0.000044</Value></Line><Line><Value>Signal/Noise (X-Range 2):</Value><Value>200.000000</Value><Value></Value><Value>32.911420</Value></Line><Line><Value>Signal/Noise (X-Range 3):</Value><Value>40.000000</Value><Value></Value><Value>31.346579</Value></Line><Line><Value>Water vapour (X-Range 5):</Value><Value></Value><Value>0.000300</Value><Value>0.000048</Value></Line><Line><Value>Signal/Water (X-Range 2):</Value><Value>100.000000</Value><Value></Value><Value>30.076284</Value></Line><Line><Value>Signal/Water (X-Range 3):</Value><Value>20.000000</Value><Value></Value><Value>28.646245</Value></Line><Line><Value>Fringes (X-Range 6):</Value><Value></Value><Value>0.000100</Value><Value>0.000051</Value></Line></Matrix></MainReport></AB__Qtest><Data_Parameters_ScSm><parameter name="DPF">1</parameter><parameter name="NPT">1814</parameter><parameter name="FXV">3996.33169228125</parameter><parameter name="LXV">499.541461535156</parameter><parameter name="CSF">1</parameter><parameter name="MXY">0.232596814632416</parameter><parameter name="MNY">0.0304361712187529</parameter><parameter name="DAT">30/05/2022</parameter><parameter name="TIM">12:17:19.568 (GMT+2)</parameter><parameter name="DXU">WN</parameter></Data_Parameters_ScSm><Data_Parameters_ScRf><parameter name="DPF">1</parameter><parameter name="NPT">1820</parameter><parameter name="FXV">4004.04661832813</parameter><parameter name="LXV">495.683998511719</parameter><parameter name="CSF">1</parameter><parameter name="MXY">0.264757961034775</parameter><parameter name="MNY">0.0315116494894028</parameter><parameter name="DAT">30/05/2022</parameter><parameter name="TIM">12:16:52.286 (GMT+2)</parameter><parameter name="DXU">WN</parameter></Data_Parameters_ScRf><Optic_Parameters_Rf><parameter name="APR">0</parameter><parameter name="APT">Open</parameter><parameter name="BMS">KBr</parameter><parameter name="DTC">RT-DLaTGS_IR-Biotyper [Microplate reader]</parameter><parameter name="HPF">0</parameter><parameter name="LPF">10.0</parameter><parameter name="LPV">4000</parameter><parameter name="PGR">0</parameter><parameter name="RCH">Module port</parameter><parameter name="RDX">0</parameter><parameter name="SRC">MIR</parameter><parameter name="VEL">10.0</parameter><parameter name="SON">Off</parameter></Optic_Parameters_Rf><Acquisition_Parameters_Rf><parameter name="ADT">1</parameter><parameter name="AQM">DD</parameter><parameter name="CFE">0</parameter><parameter name="COR">0</parameter><parameter name="DEL">0</parameter><parameter name="DLY">0</parameter><parameter name="HFW">8000</parameter><parameter name="LFW">0</parameter><parameter name="NSR">32</parameter><parameter name="PLF">AB</parameter><parameter name="RES">6</parameter><parameter name="RGN">-1</parameter><parameter name="STR">0</parameter><parameter name="TCL">MakeCompatibleScalar (0, {WSV=1.000000, ARV=0});</parameter><parameter name="TDL">37</parameter><parameter name="RPO">0</parameter></Acquisition_Parameters_Rf><FT_-_Parameters_Rf><parameter name="APF">B3</parameter><parameter name="HFQ">500</parameter><parameter name="LFQ">4000</parameter><parameter name="NLI">0</parameter><parameter name="PHR">24</parameter><parameter name="PHZ">ML</parameter><parameter name="SPZ">NO</parameter><parameter name="ZFF">1</parameter></FT_-_Parameters_Rf><Optic_Parameters_><parameter name="APR">0</parameter><parameter name="APT">Open</parameter><parameter name="BMS">KBr</parameter><parameter name="CHN">Module port</parameter><parameter name="DTC">RT-DLaTGS_IR-Biotyper [Microplate reader]</parameter><parameter name="HPF">0</parameter><parameter name="LPF">10.0</parameter><parameter name="LPV">4000</parameter><parameter name="PGN">0</parameter><parameter name="RDX">0</parameter><parameter name="SRC">MIR</parameter><parameter name="VEL">10.0</parameter><parameter name="SON">Off</parameter></Optic_Parameters_><FT_-_Parameters_><parameter name="APF">B3</parameter><parameter name="HFQ">500</parameter><parameter name="LFQ">4000</parameter><parameter name="NLI">0</parameter><parameter name="PHR">24</parameter><parameter name="PHZ">ML</parameter><parameter name="SPZ">NO</parameter><parameter name="ZFF">1</parameter></FT_-_Parameters_><Acquisition_Parameters_><parameter name="ADT">1</parameter><parameter name="AQM">DD</parameter><parameter name="CFE">0</parameter><parameter name="COR">0</parameter><parameter name="DEL">0</parameter><parameter name="DLY">0</parameter><parameter name="HFW">8000</parameter><parameter name="LFW">0</parameter><parameter name="NSS">32</parameter><parameter name="PLF">AB</parameter><parameter name="RES">6</parameter><parameter name="SOT">0</parameter><parameter name="TCL">MakeCompatibleScalar (0, {WSV=1.000000, ARV=0});</parameter><parameter name="TDL">37</parameter><parameter name="SPO">0</parameter><parameter name="SGN">-1</parameter></Acquisition_Parameters_><Instrument_Parameters_Rf><parameter name="HFL">15800.168544</parameter><parameter name="LFL">0</parameter><parameter name="LWN">15800.168544</parameter><parameter name="ABP">32197</parameter><parameter name="SSP">1</parameter><parameter name="ARG">2</parameter><parameter name="ASG">2</parameter><parameter name="ASS">32</parameter><parameter name="GFW">16</parameter><parameter name="GBW">16</parameter><parameter name="BFW">0</parameter><parameter name="BBW">0</parameter><parameter name="PKA">7285</parameter><parameter name="PKL">4996</parameter><parameter name="PRA">7457</parameter><parameter name="PRL">5001</parameter><parameter name="P2A">1</parameter><parameter name="P2L">1</parameter><parameter name="P2R">1</parameter><parameter name="P2K">1</parameter><parameter name="DAQ">0</parameter><parameter name="AG2">1</parameter><parameter name="SSM">1</parameter><parameter name="RSN">25316</parameter><parameter name="CRR">0</parameter><parameter name="SRT">1653913012.287</parameter><parameter name="DUR">19.6369934082031</parameter><parameter name="TSC">28.2</parameter><parameter name="MVD">0.647956728935242</parameter><parameter name="AN1">0.225811371923759</parameter><parameter name="AN2">0</parameter><parameter name="VSN">2.485 Apr  4 2017</parameter><parameter name="SRN">0085</parameter><parameter name="CAM">0</parameter><parameter name="INS">IR-Biotyper</parameter><parameter name="FOC">69</parameter><parameter name="RDY">1</parameter><parameter name="ARS">32</parameter></Instrument_Parameters_Rf><Sample_Parameters_><parameter name="BLD"></parameter><parameter name="CNM">Admin</parameter><parameter name="CPY"></parameter><parameter name="DPM"></parameter><parameter name="EXP">IRBT_v3_32Scans.XPM</parameter><parameter name="LCT"></parameter><parameter name="SFM">Microplate, HTS-XT</parameter><parameter name="SNM">220530-1021_CLA33F (D_10)_A11_e288338e-e08f-4c94-b255-b329f299fd08.0</parameter><parameter name="XPP">C:\Users\Public\Documents\Bruker\OPUS_8.2.28\XPM</parameter><parameter name="IST">OK</parameter><parameter name="CPG">1252</parameter><parameter name="UID">bb266d0b-0d27-41b0-bc20-4cb18b2dcbe9</parameter></Sample_Parameters_><Instrument_Parameters_><parameter name="HFL">15800.168544</parameter><parameter name="LFL">0</parameter><parameter name="LWN">15800.168544</parameter><parameter name="ABP">32197</parameter><parameter name="SSP">1</parameter><parameter name="ASG">2</parameter><parameter name="ARG">2</parameter><parameter name="ASS">32</parameter><parameter name="GFW">16</parameter><parameter name="GBW">16</parameter><parameter name="BFW">0</parameter><parameter name="BBW">0</parameter><parameter name="PKA">6517</parameter><parameter name="PKL">4988</parameter><parameter name="PRA">6754</parameter><parameter name="PRL">5002</parameter><parameter name="P2A">1</parameter><parameter name="P2L">1</parameter><parameter name="P2R">1</parameter><parameter name="P2K">1</parameter><parameter name="DAQ">0</parameter><parameter name="AG2">1</parameter><parameter name="SSM">1</parameter><parameter name="RSN">13284</parameter><parameter name="CRR">0</parameter><parameter name="SRT">1653913039.568</parameter><parameter name="DUR">19.6379852294922</parameter><parameter name="TSC">28.2</parameter><parameter name="MVD">4.06773614883423</parameter><parameter name="AN1">0.225831387499239</parameter><parameter name="AN2">0</parameter><parameter name="VSN">2.485 Apr  4 2017</parameter><parameter name="SRN">0085</parameter><parameter name="CAM">0</parameter><parameter name="INS">IR-Biotyper</parameter><parameter name="FOC">69</parameter><parameter name="RDY">1</parameter></Instrument_Parameters_><History/></OPUSDataFile>
