<?xml version="1.0" encoding="UTF-8" ?>
<OPUSDataFile><AB><Ydata ylabel="Absorbance Units"><values byteorder="INTEL" format="FLOAT32" numvalues="3497"> -0.04420926 -0.0442456 -0.04426046 -0.0442541 -0.04422157 -0.04416265 -0.04408806 -0.0439993 -0.04391765 -0.04384466
 -0.04380178 -0.0437866 -0.04380393 -0.04384664 -0.0439005 -0.04396043 -0.04401036 -0.0440528 -0.04408382 -0.04410873
 -0.04413122 -0.0441522 -0.04417384 -0.04419324 -0.04420982 -0.04422143 -0.04422758 -0.04422619 -0.04421685 -0.04419832
 -0.04417015 -0.04413575 -0.04409529 -0.04405872 -0.04402689 -0.04401315 -0.04401784 -0.04405099 -0.04410961 -0.04419067
 -0.04428638 -0.04437793 -0.0444576 -0.04450222 -0.04451479 -0.04448565 -0.04443251 -0.04436425 -0.04430019 -0.04425598
 -0.04423094 -0.04423264 -0.04423691 -0.04423983 -0.04421945 -0.04416886 -0.04409768 -0.0440045 -0.043924 -0.04385806
 -0.04383352 -0.0438498 -0.04390563 -0.04399743 -0.04410378 -0.04422121 -0.0443264 -0.04441738 -0.04447709 -0.04450753
 -0.04450149 -0.04446975 -0.04442009 -0.04436624 -0.04432374 -0.04429318 -0.04428229 -0.04427586 -0.04426971 -0.04425333
 -0.04422053 -0.04418147 -0.04413513 -0.04410415 -0.04409018 -0.04411547 -0.04418137 -0.04430068 -0.04447204 -0.04468285
 -0.04492523 -0.04514612 -0.04533634 -0.04542721 -0.04543072 -0.04533406 -0.04516997 -0.04498947 -0.04480937 -0.04467433
 -0.04457304 -0.04451385 -0.04447377 -0.04444155 -0.0444044 -0.04435139 -0.04429314 -0.04422849 -0.04417762 -0.0441443
 -0.04413727 -0.04415871 -0.04420026 -0.0442616 -0.04432699 -0.04439608 -0.04446035 -0.04452112 -0.04458252 -0.04464547
 -0.04471718 -0.04479391 -0.04487167 -0.04494318 -0.04499281 -0.04502044 -0.04501705 -0.04499308 -0.04495426 -0.04490763
 -0.04485837 -0.04481095 -0.04476426 -0.04473831 -0.04473577 -0.04478343 -0.04488864 -0.04505099 -0.04527581 -0.04549928
 -0.04571853 -0.04580517 -0.04575909 -0.04554859 -0.04519749 -0.04485034 -0.04451315 -0.04428827 -0.04415764 -0.04412787
 -0.04418088 -0.04429257 -0.04444171 -0.04459676 -0.04473612 -0.04482874 -0.04487444 -0.04485787 -0.04481038 -0.04473928
 -0.04467404 -0.04462706 -0.04459619 -0.04458408 -0.0445759 -0.0445697 -0.04456433 -0.04455954 -0.04456544 -0.04458208
 -0.04461245 -0.04465465 -0.04469816 -0.04474043 -0.04476581 -0.04477382 -0.04475435 -0.0447107 -0.0446419 -0.04455697
 -0.04446455 -0.04437659 -0.04430639 -0.04425898 -0.04424275 -0.0442514 -0.04428597 -0.04433374 -0.04439236 -0.04444924
 -0.0445024 -0.0445406 -0.04456276 -0.04455698 -0.04452233 -0.04445777 -0.04436447 -0.04426173 -0.04415138 -0.04405596
 -0.04397383 -0.0439107 -0.04386366 -0.04382752 -0.04380218 -0.04378494 -0.04377707 -0.04378021 -0.04379179 -0.04381197
 -0.04383281 -0.04385022 -0.04385733 -0.04384936 -0.04382769 -0.04378965 -0.04374887 -0.04370578 -0.04368186 -0.04367959
 -0.04371237 -0.04378144 -0.04387824 -0.04400096 -0.04411782 -0.04422671 -0.04429525 -0.04432847 -0.0443266 -0.04430024
 -0.04427851 -0.04426374 -0.04427569 -0.0443062 -0.04435253 -0.04440902 -0.04446677 -0.04453337 -0.04460978 -0.04470633
 -0.04483158 -0.04497366 -0.04513677 -0.04527914 -0.04539464 -0.0454493 -0.04543623 -0.04536739 -0.04524285 -0.04508869
 -0.04490593 -0.04471068 -0.04450568 -0.04431751 -0.04414961 -0.04403166 -0.04396115 -0.04394964 -0.04398585 -0.0440587
 -0.04414934 -0.04422833 -0.04428872 -0.04430993 -0.04430679 -0.04428242 -0.04424934 -0.04421539 -0.04417878 -0.04414121
 -0.0440956 -0.04404016 -0.043975 -0.0438989 -0.04382481 -0.04375329 -0.04370321 -0.0436753 -0.04368329 -0.04372567
 -0.04380143 -0.04390331 -0.04400405 -0.04409281 -0.044122 -0.04409871 -0.04400666 -0.04387532 -0.04373786 -0.04360761
 -0.04351378 -0.04343942 -0.04338566 -0.04332529 -0.04324387 -0.04313916 -0.04300198 -0.04286594 -0.04273479 -0.04264079
 -0.04259016 -0.04257815 -0.04260562 -0.04262966 -0.04264801 -0.04261554 -0.0425366 -0.04241902 -0.04227365 -0.04215108
 -0.04205345 -0.04201324 -0.04202456 -0.04209353 -0.04220879 -0.04236399 -0.04253374 -0.04269872 -0.04282542 -0.04288445
 -0.04287114 -0.04277018 -0.04261317 -0.0424057 -0.04217293 -0.04192015 -0.04166307 -0.04140329 -0.0411597 -0.04093385
 -0.04072908 -0.04054487 -0.04036875 -0.04020149 -0.04004183 -0.03989399 -0.03977609 -0.03968881 -0.0396463 -0.03963981
 -0.03966124 -0.03969926 -0.03973779 -0.03976462 -0.03976714 -0.03972651 -0.03962376 -0.039463 -0.03923194 -0.03897887
 -0.03871465 -0.03847603 -0.0382749 -0.03810817 -0.03797825 -0.03786286 -0.03776065 -0.03765526 -0.03754682 -0.03744079
 -0.03733871 -0.03725765 -0.03719319 -0.03714083 -0.03708479 -0.03697756 -0.03681307 -0.03654511 -0.03620926 -0.03582937
 -0.03544592 -0.03510959 -0.03482404 -0.03461057 -0.03444669 -0.03433196 -0.03423039 -0.03413255 -0.03400972 -0.03385296
 -0.03366049 -0.03343016 -0.0331739 -0.03289235 -0.03259531 -0.03228346 -0.03196873 -0.03165234 -0.03135037 -0.03106169
 -0.03079084 -0.03053413 -0.03028265 -0.03003638 -0.02978993 -0.0295477 -0.02931468 -0.0290902 -0.02887714 -0.02866852
 -0.02845992 -0.0282497 -0.02803562 -0.02781989 -0.02760499 -0.02738094 -0.02714694 -0.02688965 -0.02660535 -0.02630751
 -0.0259962 -0.02570389 -0.02543145 -0.02519114 -0.02498054 -0.02478633 -0.0246059 -0.02442036 -0.02423042 -0.02402692
 -0.02381502 -0.02359971 -0.02338656 -0.02318717 -0.0229982 -0.02282507 -0.02264937 -0.02246269 -0.02224598 -0.02198409
 -0.02168721 -0.02135113 -0.02100805 -0.02066405 -0.020338 -0.02003402 -0.01975052 -0.01948784 -0.01923866 -0.01900264
 -0.01877489 -0.01855461 -0.01833444 -0.01811144 -0.01786847 -0.01760389 -0.01730089 -0.01696751 -0.01660704 -0.01623836
 -0.01588823 -0.01556925 -0.0153072 -0.01509187 -0.01492776 -0.01479121 -0.01467211 -0.01455793 -0.01444091 -0.01432614
 -0.01421369 -0.01410742 -0.01400968 -0.01390351 -0.01378833 -0.01363641 -0.0134471 -0.01321395 -0.01294065 -0.0126549
 -0.01236012 -0.01208898 -0.01183645 -0.01160622 -0.01138937 -0.01116775 -0.0109422 -0.01070274 -0.01046306 -0.01023246
 -0.01002168 -0.009844141 -0.009691646 -0.009567469 -0.009448209 -0.009328163 -0.009187762 -0.009021015 -0.008824474 -0.008596105
 -0.008344332 -0.008069322 -0.007785553 -0.00749392 -0.007211929 -0.00694037 -0.006694079 -0.006472213 -0.006279928 -0.006113764
 -0.005967619 -0.005835898 -0.005704872 -0.005570628 -0.005420765 -0.005257819 -0.005079026 -0.004890098 -0.00469551 -0.004493707
 -0.004286111 -0.004066283 -0.003830477 -0.003584606 -0.003327246 -0.00307743 -0.002838408 -0.002613951 -0.002405585 -0.002187649
 -0.001958832 -0.001691516 -0.001388184 -0.001056277 -0.0007039927 -0.000373391 -6.959616E-05 0.0001669207 0.0003444699 0.000456247
 0.0005225721 0.0005685501 0.0006094972 0.0006732907 0.0007535718 0.0008571255 0.0009655838 0.001069929 0.001166738 0.00124937
 0.001336881 0.001431521 0.001551729 0.001701673 0.001878027 0.002081554 0.002290528 0.00250397 0.002704051 0.002892598
 0.003077296 0.00326289 0.003477508 0.003720417 0.004008263 0.004327973 0.004663439 0.004997686 0.005297839 0.0055606
 0.005766873 0.005931683 0.006057915 0.006163621 0.00625928 0.006349778 0.006439646 0.006525088 0.006604921 0.006682833
 0.006758207 0.006843701 0.006940338 0.007055223 0.007188461 0.007335515 0.007496043 0.007665213 0.007843163 0.00802966
 0.008221806 0.008412179 0.008594761 0.008752019 0.008884697 0.008981912 0.009059521 0.009126638 0.009203849 0.009310955
 0.009448994 0.00962952 0.009823912 0.01002773 0.01020809 0.01035415 0.01046591 0.0105389 0.01060767 0.0106747
 0.01076482 0.01087832 0.01099559 0.01111342 0.01119172 0.01123271 0.01122352 0.01117414 0.0111076 0.0110334
 0.01098296 0.01095854 0.01097818 0.01103618 0.01113517 0.01126356 0.01141443 0.0115789 0.01174894 0.01192912
 0.01211844 0.01232632 0.01255787 0.01279926 0.01305256 0.0132749 0.01346313 0.01358274 0.01363281 0.0136237
 0.0135591 0.01347957 0.01338609 0.01330533 0.0132339 0.01317288 0.01312442 0.01309126 0.01308188 0.01311283
 0.01318105 0.01329532 0.01343268 0.01358144 0.01371965 0.01383038 0.01391617 0.01397139 0.01401593 0.01405319
 0.01409738 0.01415197 0.01421526 0.01428797 0.01435635 0.01441958 0.01445825 0.0144719 0.0144467 0.01438587
 0.01429563 0.0141843 0.01408018 0.0139912 0.01395039 0.01395428 0.01401728 0.01411812 0.01424394 0.01436703
 0.01446223 0.01451943 0.01452238 0.0144896 0.01442079 0.0143461 0.01427164 0.01421954 0.01419338 0.0142084
 0.01426607 0.0143786 0.01454633 0.01476446 0.01502909 0.01530119 0.01557308 0.01578397 0.01593155 0.01597139
 0.01591766 0.01577234 0.01556653 0.01534409 0.01513572 0.0149938 0.01491993 0.01494068 0.01501667 0.01514197
 0.01525974 0.0153491 0.01537766 0.01532982 0.01521955 0.01504346 0.01484608 0.01463065 0.01443418 0.01425833
 0.01411093 0.01399084 0.01388816 0.01380319 0.01373201 0.01367724 0.01364616 0.0136388 0.01366164 0.01370628
 0.01376697 0.01382495 0.01386114 0.01385455 0.01378202 0.01363994 0.01341406 0.0131326 0.01279682 0.01245341
 0.01211253 0.01180799 0.01154765 0.01133646 0.01117658 0.01105005 0.01095582 0.01086442 0.01077453 0.01065999
 0.01052364 0.01036462 0.01019113 0.01003076 0.009886204 0.009781796 0.009703535 0.009643577 0.009581258 0.009488709
 0.009362711 0.009185685 0.008982555 0.008756808 0.008545669 0.008363076 0.00823042 0.008159511 0.008133896 0.00815695
 0.008177094 0.008190803 0.008147974 0.008046244 0.007877539 0.007645459 0.007386623 0.007106117 0.006850797 0.00662084
 0.006443067 0.006311285 0.006227342 0.006179173 0.006151204 0.006128799 0.006090026 0.006027943 0.005927532 0.00579789
 0.005637035 0.005464309 0.005285374 0.005116024 0.004961855 0.004826166 0.004711601 0.004606763 0.00451152 0.004405625
 0.004288059 0.004147066 0.003983913 0.003808897 0.003625011 0.003455123 0.003298512 0.003166418 0.003052832 0.002950106
 0.00285252 0.002747136 0.002632962 0.002503636 0.002361221 0.002204543 0.002038233 0.001862523 0.001687937 0.001517473
 0.001361596 0.001224874 0.001104066 0.001000972 0.0008974828 0.0007921536 0.0006709264 0.0005331007 0.0003833653 0.0002228312
 6.684213E-05 -8.497132E-05 -0.0002259801 -0.0003592833 -0.0004920558 -0.00062649 -0.0007722398 -0.0009269909 -0.001092156 -0.001262799
 -0.001433845 -0.001602467 -0.001765922 -0.001919624 -0.002063474 -0.002183012 -0.002273408 -0.002323138 -0.002323455 -0.002297996
 -0.002244391 -0.00222216 -0.002236625 -0.002330509 -0.002506084 -0.002741574 -0.003032121 -0.003311322 -0.003576442 -0.003775352
 -0.003915022 -0.003988701 -0.004011207 -0.004011024 -0.004003834 -0.004028564 -0.004089244 -0.004211155 -0.004373799 -0.004574471
 -0.004779135 -0.004966826 -0.005125519 -0.005241069 -0.005335186 -0.00541059 -0.00548555 -0.00556683 -0.005635677 -0.005692073
 -0.005701798 -0.005663047 -0.005573873 -0.005437805 -0.005298244 -0.005160727 -0.005081104 -0.005057955 -0.005119933 -0.005253527
 -0.005444669 -0.005674114 -0.005903303 -0.006124452 -0.006309737 -0.006471874 -0.006611123 -0.006741852 -0.006875943 -0.007005946
 -0.007133235 -0.007243093 -0.007328377 -0.007401522 -0.007461351 -0.007537339 -0.007633753 -0.007747981 -0.00788007 -0.007986662
 -0.008066351 -0.008087364 -0.008055315 -0.007986349 -0.007888548 -0.007800519 -0.007722709 -0.007676469 -0.007655819 -0.00766015
 -0.007684872 -0.007723331 -0.007776553 -0.007841336 -0.007925713 -0.00803245 -0.008170208 -0.008345958 -0.008550459 -0.008787828
 -0.009020505 -0.009244811 -0.009419498 -0.009538527 -0.009598825 -0.009599844 -0.009584832 -0.009556648 -0.009565382 -0.009609088
 -0.009703457 -0.009840422 -0.009999603 -0.01017462 -0.01033914 -0.01049364 -0.01062688 -0.01074228 -0.01083986 -0.01092144
 -0.01098784 -0.01104243 -0.01108638 -0.01112531 -0.01116275 -0.01119673 -0.01122865 -0.01124875 -0.01125424 -0.01124892
 -0.0112312 -0.01122993 -0.01124668 -0.01130437 -0.01140119 -0.01151739 -0.01164735 -0.01174395 -0.01180936 -0.01182285
 -0.01179801 -0.01175835 -0.01171183 -0.01168783 -0.01167307 -0.01166723 -0.01164639 -0.01159005 -0.01148669 -0.01132221
 -0.01110151 -0.01082405 -0.0104925 -0.01010905 -0.009665723 -0.009160666 -0.008593466 -0.007961575 -0.007296423 -0.006599433
 -0.005933939 -0.005303685 -0.004774956 -0.004347699 -0.00405729 -0.003896611 -0.003860419 -0.003937827 -0.004100745 -0.004340043
 -0.004628762 -0.004960145 -0.005318028 -0.005693145 -0.006075729 -0.006451157 -0.006810667 -0.007138598 -0.007426748 -0.007667916
 -0.007857404 -0.008000297 -0.008096833 -0.008151987 -0.008167691 -0.008128811 -0.008034773 -0.007848562 -0.00756877 -0.007166039
 -0.006644553 -0.006013782 -0.00528361 -0.00449643 -0.003657725 -0.002804795 -0.00193169 -0.001046742 -0.0001381501 0.0008050295
 0.001790855 0.002829027 0.003925154 0.005082848 0.006312588 0.007618478 0.009010427 0.01049521 0.01206 0.01370909
 0.01539105 0.01710413 0.01877079 0.02038648 0.0218794 0.02324705 0.0244431 0.0254676 0.02629569 0.02693123
 0.02736872 0.02762629 0.02773494 0.02773747 0.02771198 0.027714 0.02783925 0.0281239 0.02863381 0.02936703
 0.03034364 0.03153954 0.03295043 0.03455482 0.03634737 0.03830979 0.04044089 0.04271052 0.04511793 0.04761199
 0.05019004 0.05277906 0.0553739 0.05788676 0.06031177 0.06256695 0.0646494 0.06650504 0.06813248 0.06950445
 0.07061285 0.07143724 0.07195549 0.07213853 0.07195416 0.07136671 0.0703547 0.06888716 0.06698892 0.0646451
 0.06195493 0.05892389 0.05571865 0.05235861 0.0490293 0.04575108 0.04266307 0.03977568 0.03714082 0.03475698
 0.03259958 0.03066248 0.02889392 0.02728971 0.02580859 0.02444503 0.02316787 0.02196485 0.0208011 0.01966673
 0.01853179 0.01740484 0.01627837 0.01517769 0.01411451 0.01310996 0.01217621 0.01131978 0.01054413 0.009853679
 0.009247958 0.00874165 0.00833515 0.008052727 0.007895831 0.007889033 0.008032149 0.008326458 0.008764058 0.009295426
 0.009904963 0.0105028 0.01108292 0.01157495 0.01200369 0.01236946 0.01272793 0.01314092 0.0136699 0.01438814
 0.01533055 0.01654568 0.01801642 0.01976014 0.02169964 0.02383013 0.02602855 0.02828157 0.03044388 0.0325041
 0.03429943 0.03582043 0.03687371 0.03744841 0.03734465 0.0365639 0.03500064 0.03269845 0.02975118 0.02625133
 0.02247353 0.01851638 0.01468468 0.01102326 0.007720613 0.004748837 0.002155403 -0.0001264175 -0.002120088 -0.003887394
 -0.005457335 -0.006872401 -0.008148563 -0.009313851 -0.01037549 -0.01134962 -0.01223887 -0.01305123 -0.01378727 -0.01445706
 -0.01506154 -0.01561801 -0.01612797 -0.01661075 -0.0170666 -0.01750772 -0.0179315 -0.01833791 -0.01872281 -0.01907765
 -0.01940265 -0.01969219 -0.01995482 -0.02019507 -0.02042307 -0.02064758 -0.02086941 -0.02109275 -0.02130839 -0.02151467
 -0.02170382 -0.0218731 -0.02202509 -0.02215906 -0.02228609 -0.02240687 -0.02253019 -0.02265602 -0.02278265 -0.02290913
 -0.02302674 -0.02313636 -0.02323586 -0.02332922 -0.0234262 -0.02352952 -0.02365043 -0.02378514 -0.0239349 -0.02409118
 -0.02424733 -0.02439595 -0.02453047 -0.02464764 -0.02474347 -0.02482146 -0.02487958 -0.02493282 -0.02498232 -0.02504829
 -0.02513397 -0.02524439 -0.02538065 -0.02552276 -0.02566949 -0.02579643 -0.02590461 -0.02599004 -0.02605614 -0.02611604
 -0.02617015 -0.02622704 -0.0262837 -0.02633773 -0.02638838 -0.02643274 -0.02647355 -0.02651301 -0.02655085 -0.02658889
 -0.02662149 -0.02664643 -0.02666061 -0.02666071 -0.02665582 -0.02664579 -0.02664725 -0.02666255 -0.02669913 -0.02675811
 -0.02682798 -0.0269079 -0.02697992 -0.0270444 -0.0270954 -0.02713524 -0.02717119 -0.02720379 -0.02723907 -0.02727448
 -0.02730805 -0.02733738 -0.02735767 -0.02737021 -0.02737359 -0.02737226 -0.02736799 -0.02736611 -0.02736918 -0.02738089
 -0.02740303 -0.02743639 -0.02748164 -0.02753719 -0.02760321 -0.02767588 -0.02775511 -0.02783288 -0.02790882 -0.02797552
 -0.02803352 -0.02808343 -0.02812684 -0.02817168 -0.0282178 -0.0282697 -0.02832434 -0.028378 -0.02842841 -0.02846997
 -0.02850476 -0.02853213 -0.02855613 -0.02857959 -0.02860345 -0.02862935 -0.02865494 -0.0286798 -0.02870231 -0.02872175
 -0.02873954 -0.02875566 -0.02877249 -0.02879023 -0.02880984 -0.02883128 -0.02885341 -0.02887569 -0.02889352 -0.02890592
 -0.02890564 -0.02889337 -0.02886563 -0.02882761 -0.02878655 -0.02874941 -0.02872945 -0.02872808 -0.02875314 -0.02879776
 -0.02886071 -0.02893294 -0.02900984 -0.02908723 -0.02916266 -0.02923606 -0.02930722 -0.0293755 -0.02944096 -0.02950135
 -0.02955643 -0.0296064 -0.02965145 -0.02969741 -0.02974479 -0.02980108 -0.02986511 -0.02993636 -0.03001144 -0.03007989
 -0.03014034 -0.03018355 -0.030214 -0.03023292 -0.03024749 -0.03026554 -0.03028968 -0.03032538 -0.03036771 -0.03041662
 -0.03046434 -0.03050834 -0.03054439 -0.03057054 -0.0305892 -0.03059998 -0.03060994 -0.03061953 -0.03063489 -0.03065619
 -0.03068455 -0.03071949 -0.03075721 -0.03079741 -0.0308364 -0.03087489 -0.03091279 -0.0309514 -0.03099364 -0.03103926
 -0.03108958 -0.03114275 -0.03119729 -0.03125247 -0.031307 -0.03136203 -0.03141813 -0.03147481 -0.03153255 -0.03158827
 -0.03164142 -0.03168992 -0.03173327 -0.03177227 -0.03180698 -0.03183728 -0.0318631 -0.03188251 -0.03189563 -0.03190238
 -0.03190343 -0.03190157 -0.0318979 -0.03189671 -0.03189957 -0.0319116 -0.03193392 -0.03197135 -0.03202067 -0.03208219
 -0.03214751 -0.03221149 -0.03226734 -0.03230947 -0.03233967 -0.03235645 -0.03236695 -0.03237249 -0.03237742 -0.03238266
 -0.03238868 -0.03239555 -0.03240461 -0.03241599 -0.03243244 -0.03245376 -0.03247921 -0.03250797 -0.03253535 -0.0325616
 -0.03258425 -0.03260562 -0.03262919 -0.03265689 -0.03269383 -0.03273822 -0.03279119 -0.03284757 -0.03290465 -0.03295739
 -0.03300263 -0.0330384 -0.03306289 -0.03307819 -0.03308386 -0.03308541 -0.03308321 -0.03308418 -0.0330889 -0.03310214
 -0.03312402 -0.03315381 -0.03319079 -0.03322845 -0.03326582 -0.03329442 -0.03331463 -0.03332243 -0.03332056 -0.03331204
 -0.03330082 -0.03329396 -0.03329339 -0.03330465 -0.03332464 -0.03335416 -0.03338586 -0.03341685 -0.03344078 -0.03345417
 -0.0334578 -0.03345018 -0.03343968 -0.03342711 -0.03341996 -0.03341913 -0.03342378 -0.03343377 -0.03344257 -0.03345023
 -0.03345433 -0.03345624 -0.03346143 -0.03347091 -0.03349132 -0.03352091 -0.03356001 -0.03360477 -0.03364971 -0.03369241
 -0.03372796 -0.03375705 -0.03377821 -0.03379421 -0.03380576 -0.03381593 -0.03382555 -0.03383796 -0.03385399 -0.03387589
 -0.03390439 -0.03393761 -0.03397569 -0.03401206 -0.03404637 -0.0340713 -0.03408686 -0.0340901 -0.0340821 -0.03406618
 -0.03404414 -0.03402304 -0.0340046 -0.03399594 -0.03399742 -0.03401343 -0.03404114 -0.03408038 -0.03412527 -0.03417203
 -0.03421549 -0.03425179 -0.03428015 -0.03429926 -0.03431091 -0.03431536 -0.03431349 -0.03430517 -0.03429309 -0.03427721
 -0.03426473 -0.03425604 -0.03425786 -0.03426988 -0.0342916 -0.03432209 -0.03435645 -0.03439416 -0.03443136 -0.03446716
 -0.03449828 -0.03452305 -0.03453682 -0.0345409 -0.03453338 -0.03452078 -0.03450681 -0.0344972 -0.03449671 -0.03450406
 -0.03452063 -0.0345406 -0.03456291 -0.03458375 -0.03460237 -0.03461736 -0.03462852 -0.03463504 -0.03463693 -0.03463653
 -0.03463436 -0.03463697 -0.03464441 -0.03466113 -0.03468535 -0.03471391 -0.0347448 -0.03477151 -0.03479474 -0.0348124
 -0.03482661 -0.03483941 -0.03485048 -0.03486066 -0.03486786 -0.03487067 -0.03487002 -0.03486537 -0.0348605 -0.0348563
 -0.03485455 -0.03485584 -0.03485902 -0.03486401 -0.03487055 -0.03487862 -0.03488889 -0.03490121 -0.03491418 -0.03492733
 -0.03493717 -0.03494382 -0.03494537 -0.03494316 -0.03493909 -0.03493451 -0.0349327 -0.03493315 -0.03493721 -0.03494203
 -0.03494597 -0.03494697 -0.03494276 -0.0349357 -0.03492565 -0.0349169 -0.03491074 -0.03490797 -0.03490929 -0.03491105
 -0.03491303 -0.03491201 -0.03490791 -0.0349027 -0.03489693 -0.03489714 -0.03490373 -0.03492264 -0.03495293 -0.03499477
 -0.03504671 -0.03510479 -0.03517056 -0.03524275 -0.03532875 -0.03543434 -0.03556994 -0.03574467 -0.03596556 -0.0362393
 -0.03656551 -0.03694675 -0.03737547 -0.03785225 -0.03836092 -0.0389018 -0.03944218 -0.03998066 -0.04046888 -0.04090434
 -0.04125061 -0.04150996 -0.04169555 -0.04181208 -0.04189859 -0.04194361 -0.04193397 -0.04184678 -0.0416112 -0.0412476
 -0.04073963 -0.04015895 -0.03957788 -0.03904239 -0.03861582 -0.0382946 -0.03809529 -0.03799678 -0.03799779 -0.03807026
 -0.03821241 -0.03837656 -0.03855768 -0.03870307 -0.03880591 -0.03885987 -0.03886466 -0.03885511 -0.03883253 -0.03882367
 -0.03882597 -0.03884095 -0.03886205 -0.03886834 -0.03885487 -0.03879656 -0.03870142 -0.038568 -0.03841301 -0.03825651
 -0.03810203 -0.03796272 -0.03782341 -0.03767983 -0.0375193 -0.03733318 -0.03712958 -0.03690642 -0.03668616 -0.03647168
 -0.03628064 -0.0361155 -0.03597781 -0.03586768 -0.03577319 -0.03569372 -0.03561811 -0.03554709 -0.03547906 -0.03541513
 -0.03535847 -0.03530893 -0.03526809 -0.03523448 -0.03520732 -0.03518308 -0.03515812 -0.03512834 -0.03508829 -0.03503988
 -0.03498054 -0.03492101 -0.03486417 -0.03481932 -0.03479045 -0.03477525 -0.03477477 -0.03477895 -0.03478701 -0.03479093
 -0.03479026 -0.03478277 -0.03476878 -0.03475104 -0.03473037 -0.03471301 -0.0346991 -0.03469299 -0.03469319 -0.03469853
 -0.03470736 -0.03471636 -0.034725 -0.0347317 -0.03473542 -0.03473515 -0.03472936 -0.03471621 -0.03469797 -0.03467407
 -0.03465102 -0.03463038 -0.03461614 -0.03460993 -0.03460745 -0.0346088 -0.03460446 -0.03459394 -0.03457222 -0.03453992
 -0.03450323 -0.03446371 -0.03443418 -0.03441432 -0.03441096 -0.03442043 -0.03443793 -0.03445943 -0.03447567 -0.03448629
 -0.03448658 -0.03447978 -0.03446658 -0.0344508 -0.03443472 -0.03442031 -0.03440901 -0.03440046 -0.03439498 -0.03439096
 -0.03438825 -0.03438511 -0.03438136 -0.03437593 -0.03436876 -0.03436105 -0.03435305 -0.03434866 -0.03434796 -0.03435393
 -0.03436518 -0.03437857 -0.03439214 -0.0343993 -0.03440035 -0.03439214 -0.03437767 -0.03435903 -0.03433898 -0.03432045
 -0.03430476 -0.03429363 -0.03428662 -0.03428455 -0.03428407 -0.03428489 -0.03428224 -0.03427491 -0.03426309 -0.0342463
 -0.03423112 -0.03421791 -0.03421189 -0.03421279 -0.03421822 -0.03422737 -0.03423391 -0.03423807 -0.03423711 -0.03423234
 -0.03422571 -0.03421797 -0.03421149 -0.03420594 -0.0342016 -0.03419877 -0.03419745 -0.03419899 -0.0342045 -0.0342135
 -0.03422682 -0.0342405 -0.03425391 -0.03426298 -0.0342667 -0.03426487 -0.0342572 -0.03424621 -0.03423201 -0.03421792
 -0.03420413 -0.03419409 -0.0341876 -0.03418561 -0.03418703 -0.03418826 -0.03418876 -0.03418482 -0.03417819 -0.03416992
 -0.03416209 -0.03415811 -0.03415729 -0.03416019 -0.03416585 -0.03417338 -0.03418421 -0.03419889 -0.03421762 -0.03424152
 -0.03426502 -0.03428771 -0.03430265 -0.03430886 -0.03430527 -0.03429173 -0.03427313 -0.03424978 -0.03422744 -0.03420605
 -0.03418837 -0.03417373 -0.03416128 -0.03415016 -0.03413771 -0.03412371 -0.03410605 -0.03408647 -0.03406562 -0.03404674
 -0.03403254 -0.03402563 -0.03402891 -0.03404086 -0.03406265 -0.03408771 -0.03411512 -0.034137 -0.03415161 -0.03415614
 -0.0341497 -0.03413685 -0.03411781 -0.03409921 -0.0340812 -0.03406661 -0.0340551 -0.03404564 -0.03403836 -0.03403295
 -0.0340304 -0.03403329 -0.03404167 -0.03405778 -0.03407862 -0.03410221 -0.03412398 -0.03413913 -0.03414631 -0.03414219
 -0.03413147 -0.03411445 -0.03409826 -0.0340852 -0.03407757 -0.03407689 -0.03407773 -0.03407989 -0.03407644 -0.03406689
 -0.03405104 -0.03402935 -0.03400921 -0.03399102 -0.03398166 -0.03398 -0.0339856 -0.03399666 -0.03400819 -0.03401962
 -0.03402748 -0.03403266 -0.03403503 -0.03403504 -0.03403303 -0.03402925 -0.03402352 -0.0340176 -0.03401196 -0.03400874
 -0.03400918 -0.0340113 -0.03401553 -0.03401553 -0.03401057 -0.03399699 -0.03397442 -0.03394729 -0.03391608 -0.03388933
 -0.03386692 -0.03385266 -0.03384506 -0.03384013 -0.03383692 -0.03383002 -0.03382153 -0.0338122 -0.03380532 -0.03380637
 -0.03381402 -0.03383062 -0.03384896 -0.03386548 -0.03387532 -0.0338744 -0.03386638 -0.03385098 -0.03383432 -0.03381788
 -0.03380217 -0.03378753 -0.03377191 -0.03375517 -0.03373915 -0.03372406 -0.03371385 -0.03370845 -0.03370949 -0.03371657
 -0.03372921 -0.03374673 -0.03376764 -0.03379026 -0.03381101 -0.03382834 -0.03383839 -0.03384212 -0.03383857 -0.03383053
 -0.03381956 -0.03380689 -0.03379385 -0.03377877 -0.03376134 -0.03374061 -0.03371565 -0.03369102 -0.03366675 -0.03365128
 -0.03364522 -0.03365134 -0.03366917 -0.03368982 -0.0337124 -0.03372553 -0.03373052 -0.03372604 -0.03371476 -0.03370352
 -0.0336925 -0.03368562 -0.03368095 -0.03367703 -0.03367406 -0.03367108 -0.0336706 -0.03367433 -0.03368227 -0.0336956
 -0.03371065 -0.03372677 -0.03374059 -0.03375115 -0.03375829 -0.03376184 -0.03376298 -0.03376179 -0.03375745 -0.03374986
 -0.0337366 -0.03371789 -0.03369379 -0.03366523 -0.03363596 -0.03360676 -0.03358166 -0.03356078 -0.03354614 -0.03353766
 -0.03353637 -0.03354096 -0.03355168 -0.03356396 -0.03357572 -0.03358167 -0.0335787 -0.03356578 -0.03354124 -0.03350927
 -0.03346985 -0.03343001 -0.03339031 -0.03335817 -0.03333415 -0.03332178 -0.0333208 -0.03332554 -0.03333488 -0.03333735
 -0.03333341 -0.03331794 -0.03329419 -0.03326814 -0.03324253 -0.03322618 -0.03321739 -0.03321854 -0.03322455 -0.0332315
 -0.03323657 -0.03323608 -0.03323216 -0.03322474 -0.03321645 -0.03320875 -0.03319934 -0.03318807 -0.0331725 -0.0331518
 -0.03313066 -0.03310926 -0.03309515 -0.0330884 -0.03308973 -0.03309824 -0.03310763 -0.03311744 -0.03312223 -0.03312275
 -0.03311812 -0.03310952 -0.03309873 -0.03308643 -0.03307445 -0.03306226 -0.03304991 -0.03303724 -0.03302343 -0.03301112
 -0.03300108 -0.03299586 -0.0329974 -0.03300145 -0.03300831 -0.03300883 -0.03300165 -0.03298406 -0.03295556 -0.03292369
 -0.03288891 -0.03286016 -0.03283719 -0.0328224 -0.03281458 -0.03281011 -0.03280761 -0.03280118 -0.03279063 -0.03277223
 -0.03274792 -0.03271851 -0.03268639 -0.03265439 -0.03262273 -0.03259269 -0.03256267 -0.03253216 -0.03250048 -0.03246707
 -0.03243286 -0.03239753 -0.03236473 -0.03233464 -0.0323124 -0.03229847 -0.03229408 -0.03229911 -0.0323095 -0.03232532
 -0.03234509 -0.03236927 -0.03240078 -0.03243664 -0.03247201 -0.03249955 -0.0325014 -0.03247727 -0.03241458 -0.03232994
 -0.03223254 -0.03214051 -0.03207035 -0.03202317 -0.03200615 -0.0320049 -0.03201738 -0.03202859 -0.03203452 -0.03203146
 -0.03201786 -0.03199942 -0.03197637 -0.03195464 -0.03193443 -0.03191891 -0.03190784 -0.03190133 -0.03189809 -0.0318928
 -0.03188364 -0.03186165 -0.0318285 -0.03178203 -0.03172733 -0.03167068 -0.03161462 -0.03156372 -0.03151879 -0.0314806
 -0.03145303 -0.03143818 -0.03143776 -0.03145524 -0.031478 -0.03150601 -0.03151659 -0.0315062 -0.03146711 -0.0313978
 -0.03131634 -0.03122379 -0.0311432 -0.0310741 -0.03102371 -0.03098918 -0.03096186 -0.0309395 -0.03091033 -0.03087593
 -0.03083308 -0.03078597 -0.03073978 -0.030695 -0.03065537 -0.03061564 -0.03057319 -0.03052532 -0.03046868 -0.03040858
 -0.03034551 -0.03028612 -0.03023235 -0.03018473 -0.03014397 -0.03010552 -0.03006911 -0.03003174 -0.02999331 -0.02995293
 -0.02991021 -0.02986174 -0.02980674 -0.02973891 -0.02965968 -0.02956904 -0.02947084 -0.02937336 -0.02927724 -0.02918839
 -0.02910163 -0.02901479 -0.02892154 -0.02881595 -0.02869865 -0.02856691 -0.02842891 -0.02828689 -0.02814548 -0.02800778
 -0.02786434 -0.02771591 -0.02753846 -0.02733021 -0.02707415 -0.02677014 -0.02642768 -0.02604685 -0.02563552 -0.0251872
 -0.02467841 -0.0240984 -0.0234031 -0.02258783 -0.02161803 -0.02050602 -0.01924913 -0.01787499 -0.01640716 -0.01487085
 -0.01329032 -0.01167553 -0.0100325 -0.008380524 -0.006712673 -0.005110879 -0.003580705 -0.002245683 -0.001124598 -0.000275384
 0.0002939547 0.0006075657 0.0006674447 0.0005250581 0.0001852008 -0.0002897236 -0.0008955193 -0.001578307 -0.002339624 -0.003161647
 -0.004034625 -0.004942207 -0.005845435 -0.006680846 -0.007428532 -0.008034253 -0.008532347 -0.008926742 -0.009258088 -0.009547913
 -0.009812982 -0.01006321 -0.01030287 -0.01053409 -0.0107602 -0.01098304 -0.01119397 -0.01139342 -0.01155079 -0.01166493
 -0.01171904 -0.01171618 -0.01167819 -0.01160731 -0.01152606 -0.01143263 -0.01133311 -0.01122535 -0.01110861 -0.01097955
 -0.01083548 -0.01066728 -0.01046943 -0.01022162 -0.009911856 -0.009515233 -0.009010445 -0.008411488 -0.007707008 -0.00696857
 -0.006207757 -0.005484449 -0.004810933 -0.004194449 -0.003637641 -0.003116311 -0.002628803 -0.00213553 -0.001633398 -0.001074062
 -0.0004619439 0.0002139324 0.0009336913 0.001636793 0.002322262 0.002951375 0.003550983 0.004145318 0.004749911 0.005394205
 0.006068226 0.006775179 0.007500046 0.008234386 0.008977558 0.009730092 0.01048123 0.01123108 0.01195664 0.01265309
 0.01332285 0.01396541 0.01459406 0.01520866 0.0157881 0.01632979 0.01679824 0.0171969 0.01752248 0.01778345
 0.01800452 0.01819016 0.01836361 0.0185197 0.0186596 0.01878116 0.01887891 0.01896375 0.01904137 0.01912045
 0.01920974 0.0193004 0.01939294 0.01947174 0.01953213 0.01957254 0.01959057 0.01960221 0.01960837 0.01962646
 0.0196569 0.01969249 0.01973161 0.01975451 0.0197625 0.01975132 0.01972463 0.01969109 0.01965448 0.01962745
 0.01961034 0.01961094 0.01962261 0.01964069 0.01966213 0.01967895 0.01970558 0.01974442 0.01981663 0.01993277
 0.02009048 0.02029384 0.02052015 0.02076587 0.02102317 0.02129038 0.02157831 0.02188748 0.02222971 0.02260493
 0.02301726 0.0234657 0.0239478 0.02446231 0.0250033 0.02557182 0.0261655 0.02679044 0.02745361 0.0281627
 0.02892856 0.02975446 0.03064638 0.03160364 0.0326261 0.03371748 0.03487645 0.03611795 0.03744483 0.03886978
 0.04039834 0.04200823 0.04370029 0.04541357 0.0471447 0.04882888 0.05046085 0.05197011 0.053343 0.05446903
 0.05534352 0.05588009 0.05611306 0.05606739 0.05579237 0.05536942 0.05483795 0.05426713 0.0536807 0.05312122
 0.05257974 0.05206933 0.05154961 0.05101192 0.0504157 0.04974112 0.04902032 0.04824705 0.04752878 0.04687746
 0.04630381 0.04580793 0.04533125 0.04487459 0.04442656 0.04399356 0.04360408 0.04326082 0.04299075 0.0427851
 0.0426493 0.04254511 0.04243805 0.04223903 0.04184155 0.04118798 0.04018112 0.03887808 0.03728259 0.0354467
 0.03338223 0.03115055 0.02874838 0.02633175 0.02391771 0.02165995 0.01957762 0.01768975 0.01599701 0.01442942
 0.01298511 0.01161919 0.0103377 0.009150978 0.008062673 0.007094332 0.006235938 0.005479617 0.00480614 0.004183627
 0.003596827 0.003017882 0.002439064 0.001848438 0.001236098 0.000592818 -8.189622E-05 -0.0008030246 -0.001507162 -0.002187546
 -0.002764137 -0.003214959 -0.003572716 -0.003836 -0.004077837 -0.004301642 -0.004533207 -0.004770134 -0.004993208 -0.00519988
 -0.005366325 -0.005493634 -0.00557686 -0.005609425 -0.005578577 -0.005467512 -0.005242529 -0.004898974 -0.004414481 -0.003804769
 -0.003075617 -0.002236276 -0.00129325 -0.0002499782 0.0008938083 0.002122731 0.003429549 0.004823854 0.006296386 0.007942286
 0.009769022 0.01186409 0.01423046 0.01669846 0.01924518 0.02153914 0.02358402 0.02522782 0.02649863 0.02740873
 0.02798423 0.02828025 0.02833414 0.02822173 0.02798395 0.02769076 0.0273726 0.0270742 0.02680719 0.02659676
 0.02641239 0.02625184 0.02607516 0.02586796 0.02563219 0.02536276 0.02509465 0.02483025 0.02460168 0.02441059
 0.02425598 0.02413611 0.02402885 0.02393421 0.0238403 0.02375045 0.02367021 0.02360162 0.02355514 0.02352331
 0.02350111 0.02347578 0.02342755 0.02336033 0.02326449 0.0231675 0.02307864 0.0230273 0.02302873 0.02308692
 0.02320852 0.02337464 0.02358416 0.02381634 0.0240698 0.02432193 0.0245714 0.02478249 0.02495301 0.02504579
 0.0250605 0.02497609 0.02479394 0.02450681 0.02411796 0.0236293 0.02304837 0.02238564 0.02165318 0.02086622
 0.02003898 0.01918698 0.01831845 0.0174443 0.01655724 0.01565746 0.0147353 0.01378337 0.0128246 0.011857
 0.01093661 0.01006881 0.009288716 0.008598443 0.007992821 0.007471297 0.007024754 0.006654711 0.00636682 0.006160852
 0.006042141 0.006002466 0.006030312 0.006106002 0.006198426 0.00627786 0.00630071 0.006243865 0.006068567 0.005788716
 0.005390814 0.004932261 0.004427184 0.003933534 0.003471679 0.003054733 0.002691235 0.002354104 0.002042111 0.001724943
 0.001400842 0.001067946 0.0007283923 0.0004106592 0.0001167254 -0.0001255872 -0.0003199732 -0.0004640292 -0.0005640537 -0.0006333363
 -0.0006768662 -0.0007086355 -0.000730989 -0.0007527041 -0.0007717155 -0.0007893638 -0.0008026754 -0.000808164 -0.0008124218 -0.000815073
 -0.0008306729 -0.0008633164 -0.0009195558 -0.001002419 -0.001103695 -0.001223291 -0.001348511 -0.001478626 -0.001606663 -0.001732424
 -0.001852645 -0.001966213 -0.002065505 -0.002147784 -0.002199266 -0.002217762 -0.002189799 -0.002118221 -0.001999307 -0.00184309
 -0.001657575 -0.00145673 -0.001252497 -0.001059151 -0.0008870371 -0.0007459559 -0.0006431628 -0.0005771085 -0.0005507446 -0.0005497043
 -0.000572624 -0.0006046034 -0.0006436263 -0.0006860125 -0.0007314286 -0.0007829488 -0.0008404409 -0.0009028845 -0.0009693476 -0.001033309
 -0.001094431 -0.001147592 -0.001194025 -0.00123371 -0.001268995 -0.001303772 -0.001339681 -0.001380845 -0.001425777 -0.001475694
 -0.001525433 -0.001573392 -0.001612475 -0.001639933 -0.001650159 -0.00164079 -0.001611192 -0.001560258 -0.001493383 -0.001410743
 -0.001320004 -0.001221631 -0.001119946 -0.001014957 -0.0009070983 -0.00079658 -0.0006846022 -0.0005722297 -0.000464309 -0.0003611694
 -0.0002673206 -0.0001793664 -9.497114E-05 -7.369348E-06 9.279219E-05 0.0002084991 0.0003478369 0.0005027521 0.0006732779 0.0008437852
 0.001008033 0.001157035 0.001285459 0.001399412 0.001497959 0.00159596 0.001694901 0.00180452 0.001925556 0.002055744
 0.002194652 0.002334768 0.002476316 0.002616967 0.002757676 0.002901771 0.00304784 0.003195529 0.003339545 0.003470957
 0.003585187 0.00367186 0.003733169 0.003765791 0.003778307 0.003774391 0.003761217 0.003743449 0.003720225 0.003693017
 0.003655368 0.003606134 0.003542508 0.003463585 0.003374445 0.0032753 0.003173649 0.003069882 0.002970324 0.002875901
 0.002795455 0.00273046 0.00269231 0.00267959 0.002696627 0.002736166 0.002789227 0.002845768 0.002889703 0.002916347
 0.002914043 0.002889857 0.002842029 0.002786996 0.002730174 0.002685365 0.002658244 0.002650859 0.002665173 0.002695046
 0.002740099 0.002794666 0.002858326 0.002930665 0.003012036 0.003108141 0.003219853 0.003356506 0.003517272 0.003705414
 0.003916348 0.004140353 0.004373164 0.004601021 0.004827162 0.005048188 0.005273698 0.005511 0.005765713 0.006045004
 0.006344062 0.006663611 0.006994586 0.007333733 0.007680234 0.008032408 0.008398923 0.008780845 0.009181333 0.009600902
 0.01002577 0.01045483 0.01086777 0.01126454 0.01163502 0.01198015 0.01229888 0.01259058 0.01285283 0.01308526
 0.01328493 0.01345495 0.01359743 0.01371653 0.01381662 0.0138999 0.01396873 0.01402437 0.0140676 0.01409999
 0.0141219 0.01413522 0.01413992 0.01414008 0.01413587 0.01413355 0.01413351 0.01414063 0.01415501 0.01417859
 0.01421093 0.0142504 0.01429608 0.01434286 0.0143916 0.01444016 0.01449395 0.01456102 0.01464731 0.01476461
 0.01491258 0.0150954 0.0153097 0.01555352 0.01582823 0.01613338 0.01647273 0.01684747 0.01725874 0.01770705
 0.01819231 0.01871524 0.0192688 0.01985299 0.02044364 0.0210391 0.02160826 0.02215097 0.02265092 0.0231103
 0.02352931 0.02390982 0.02425643 0.02457102 0.02485883 0.02512149 0.0253633 0.02558439 0.02578487 0.02596915
 0.026138 0.02630147 0.02646511 0.02662982 0.02679914 0.02696013 0.02711049 0.02724402 0.0273587 0.02746394
 0.02756022 0.02765522 0.02774879 0.02783654 0.02791747 0.02798197 0.02802986 0.02805415 0.02805747 0.028042
 0.02801325 0.02798407 0.02795331 0.02792898 0.02789563 0.02784327 0.02775734 0.02762192 0.02744503 0.02722263
 0.02697893 0.0267194 0.02646351 0.02621558 0.02598757 0.02578114 0.02560611 0.0254634 0.02535364 0.02527618
 0.02521717 0.02517503 0.02513118 0.02508568 0.02502816 0.02496139 0.02488707 0.02480892 0.02473492 0.02466646
 0.02460851 0.02456132 0.0245255 0.02450513 0.02450296 0.02452157 0.02456634 0.02462279 0.02469154 0.02474219
 0.0247697 0.02474974 0.02467797 0.02455023 0.02436564 0.0241339 0.02385562 0.02354283 0.02319564 0.02282045
 0.02241656 0.02198344 0.02152224 0.02103479 0.02052488 0.0200012 0.01946439 0.01891978 0.01836391 0.01779338
 0.01721241 0.01661954 0.01602974 0.01544904 0.01488737 0.0143504 0.01383446 0.01334009 0.01286078 0.01239558
 0.01194295 0.01150267 0.01107495 0.01065978 0.01025713 0.009866974 0.009489231 0.009123765 0.008769725 0.008427451
 0.008097951 0.007780365 0.007475666 0.007177237 0.006877814 0.006569271 0.006238842 0.005891216 0.005522077 0.005149776
 0.004781118 0.004429125 0.004100515 0.003793856 0.003510408 0.003244277 0.002995079 0.00275696 0.002529645 0.00230383
 0.002079062 0.001847023 0.001608062 0.001360875 0.001106742 0.0008500164 0.0005926737 0.0003422352 0.0001004475 -0.0001250795
 -0.0003356807 -0.0005298276 -0.0007097172 -0.0008787006 -0.001032243 -0.001168941 -0.001283283 -0.001369029 -0.00143769 -0.001487985
 -0.001546978 -0.001619875 -0.001724353 -0.001864805 -0.002034384 -0.002233449 -0.00243942 -0.002651132 -0.002846526 -0.00302594
 -0.003181026 -0.003315288 -0.003439313 -0.003557092 -0.003686441 -0.003826735 -0.003986486 -0.004160062 -0.004344083 -0.004531772
 -0.004715922 -0.004891317 -0.005052338 -0.005197249 -0.005323444 -0.005432912 -0.005525514 -0.005604207 -0.005669507 -0.005723537
 -0.005766381 -0.005801824 -0.0058301 -0.005855328 -0.00587764 -0.005898172 -0.005917088 -0.005936166 -0.005955863 -0.005980257
 -0.006007544 -0.006035837 -0.006060447 -0.006070617 -0.006064942 -0.006035007 -0.005987064 -0.005922368 -0.005851713 -0.005781821
 -0.005722046 -0.005679111 -0.005654127 -0.005651413 -0.005656854 -0.005670011 -0.005668701 -0.00564942 -0.005603602 -0.005529638
 -0.005442243 -0.005342363 -0.005251679 -0.005169933 -0.00510523 -0.005054281 -0.00500672 -0.00495899 -0.004893639 -0.004813257
 -0.004712029 -0.004600664 -0.00449156 -0.004392644 -0.004319357 -0.004264269 -0.004229174 -0.004199071 -0.004165964 -0.004126788
 -0.004077175 -0.004026318 -0.003975593 -0.00393077 -0.003893337 -0.003860519 -0.003832197 -0.003806455 -0.003783283 -0.003764573
 -0.00374988 -0.003736818 -0.003723446 -0.003699054 -0.003662861 -0.003605518 -0.003530829 -0.003441194 -0.003342225 -0.003243505
 -0.003146414 -0.003056228 -0.002971066 -0.00289112 -0.002814916 -0.002743399 -0.002669155 -0.002592409 -0.002496067 -0.002376181
 -0.002223727 -0.00203467 -0.001827647 -0.001603053 -0.001393703 -0.001200883 -0.001040898 -0.0009122189 -0.0008075207 -0.0007252178
 -0.0006534015 -0.0005933321 -0.0005430107 -0.0005034053 -0.0004772227 -0.0004604292 -0.00044945 -0.0004380603 -0.000417914 -0.0003882949
 -0.0003448499 -0.0002933362 -0.000235513 -0.0001751591 -0.0001141195 -5.279981E-05 9.0354E-06 6.751632E-05 0.0001224426 0.0001680977
 0.0002038347 0.0002303622 0.0002477055 0.0002574549 0.0002589983 0.0002463184 0.0002199817 0.0001771499 0.0001237636 7.575328E-05
 3.954584E-05 3.876432E-05 6.90941E-05 0.0001373115 0.0002292413 0.000332034 0.000439323 0.0005389673 0.0006429237 0.0007534673
 0.0008821432 0.001037633 0.001204448 0.001383894 0.001542694 0.001675645 0.0017682 0.001817634 0.001841142 0.001839858
 0.001843415 0.001853336 0.001895643 0.001970465 0.002094404 0.002262413 0.002470552 0.002707534 0.002948036 0.003184382
 0.003392505 0.003576111 0.003729705 0.003859992 0.003970717 0.004064159 0.004141402 0.004206944 0.004260478 0.00431453
 0.004371122 0.004442737 0.004532073 0.004640188 0.004767955 0.004903182 0.005045185 0.005178413 0.005302973 0.005413658
 0.005512009 0.005603173 0.005687902 0.005770486 0.005852446 0.005937349 0.006030613 0.006142423 0.006274247 0.006435024
 0.006612467 0.006801707 0.00698972 0.007165666 0.007335854 0.007497871 0.007669346 0.007854867 0.008059446 0.008285919
 0.008521575 0.008765818 0.009003784 0.009234984 0.009460803 0.009683473 0.009925889 0.01019044 0.01050265 0.01086012
 0.01126915 0.01172523 0.01222199 0.01275579 0.0133217 0.0139086 0.01450703 0.01509745 0.01566392 0.0161921
 0.01667381 0.01709159 0.01744386 0.01769153 0.01782483 0.01782155 0.0176696 0.01742667 0.01709351 0.01677584
 0.01647856 0.01626049 0.01611828 0.01603858 0.01601503 0.01600806 0.01601589 0.01601136 0.01599801 0.01596956
 0.01593195 0.01589248 0.015852 0.01581576 0.01577799 0.01573522 0.01568619 0.015628 0.01556622 0.01550272
 0.01543849 0.01537357 0.01531065 0.01524854 0.01520412 0.01517894 0.01518299 0.01521646 0.01526016 0.01531244
 0.01534827 0.01536898 0.01536866 0.01535 0.01531728 0.01527513 0.01523377 0.01520113 0.0151962 0.0152161
 0.01526873 0.01533746 0.01541035 0.01548361 0.01554846 0.0156206 0.01570812 0.01580104 0.01590413 0.01597258
 0.01599843 0.01596963 0.01588323 0.01575574 0.01558805 0.01540393 0.01520631 0.0150362 0.01489456 0.01481296
 0.01478046 0.0147781 0.01479458 0.01479055 0.01477415 0.0147391 0.01469998 0.01467299 0.01465869 0.01466252
 0.01468267 0.01471847 0.0147728 0.01484901 0.01493705 0.01503631 0.01513176 0.01521919 0.01530604 0.01539227
 0.01549167 0.01560471 0.01571711 0.01582642 0.01590001 0.01593664 0.0159117 0.01582811 0.0156776 0.01547471
 0.0152406 0.01500519 0.01482649 0.01471656 0.01472286 0.0148066 0.01496032 0.01512939 0.01528224 0.01539225
 0.01544078 0.01542893 0.01534807 0.01523639 0.01509385 0.01498987 0.01493201 0.01494749 0.01503753 0.01515387
 0.01529371 0.01540745 0.0154993 0.01556694 0.01561706 0.01566975 0.01573102 0.01582514 0.01595228 0.0161299
 0.01633702 0.0165622 0.01677353 0.0169398 0.01705413 0.01710043 0.01709732 0.01704691 0.01696851 0.01686408
 0.01676291 0.01666726 0.0166187 0.01662282 0.01668327 0.0168002 0.01692357 0.01705082 0.01713558 0.01718052
 0.01717691 0.01712906 0.01704464 0.01693091 0.01680449 0.01667946 0.01658618 0.01653125 0.01653655 0.01659354
 0.01670382 0.01685498 0.01704466 0.01725031 0.01746918 0.01765952 0.01781056 0.01789678 0.0179089 0.01786583
 0.01776715 0.01764963 0.01751523 0.01739241 0.01728185 0.01720143 0.01714798 0.01711405 0.01709342 0.01705738
 0.01700925 0.01694092 0.01686177 0.01678761 0.01671297 0.01663798 0.01655611 0.01645534 0.01635595 0.01626568
 0.01619938 0.01617302 0.01615242 0.01613482 0.0160772 0.01596843 0.01581434 0.01561252 0.01540091 0.01518148
 0.01498124 0.01480009 0.01464399 0.01451054 0.01438854 0.01427687 0.01416204 0.01405239 0.01396018 0.01389422
 0.01388159 0.0139057 0.01396452 0.01402327 0.01405257 0.01403547 0.01395084 0.01380955 0.01360633 0.01337333
 0.0131129 0.01287421 0.01266549 0.01251898 0.01244098 0.01241099 0.01242812</values></Ydata></AB><ScSm><Ydata ylabel="Single channel"><values byteorder="INTEL" format="FLOAT32" numvalues="1814"> 0.06722155 0.06723598 0.06730586 0.06745182 0.06764902 0.06784025 0.06797581 0.06804545 0.06806573 0.06804456
 0.06798796 0.0679421 0.06798504 0.06815047 0.06837664 0.0685467 0.06858355 0.06852008 0.06848043 0.06855923
 0.06869547 0.06869061 0.06839205 0.06786466 0.067351 0.06704976 0.06698993 0.06716403 0.06764643 0.06837516
 0.06890559 0.06872807 0.06791054 0.06712253 0.06689364 0.0671037 0.06729881 0.06721265 0.06685071 0.066384
 0.06618802 0.06674221 0.06816161 0.06980808 0.07051755 0.069334 0.06619253 0.06213555 0.05892826 0.05811471
 0.05993133 0.0629886 0.06530999 0.0659097 0.06527197 0.06435651 0.06356526 0.06285685 0.06241083 0.06267009
 0.06372694 0.0649039 0.06509969 0.0637293 0.06141945 0.0595667 0.05906378 0.05973695 0.06109061 0.06285336
 0.06421974 0.0634089 0.05941034 0.05421099 0.0519181 0.0548536 0.06107687 0.06628862 0.06766148 0.06542328
 0.06160709 0.05836353 0.05715489 0.05835918 0.06119413 0.0643685 0.06686911 0.06801254 0.06727159 0.06473115
 0.06153737 0.05934304 0.05929297 0.06157551 0.06538326 0.06898643 0.07051912 0.06935723 0.06653214 0.06363866
 0.06178515 0.0615994 0.06338397 0.06680064 0.0708505 0.07445546 0.07689729 0.07788664 0.07762583 0.07668402
 0.07556257 0.07460509 0.07429871 0.07497852 0.07603343 0.07613541 0.07468615 0.07261838 0.07143727 0.07166404
 0.07241771 0.07248394 0.07154404 0.06998296 0.06768875 0.06402394 0.05928725 0.05510864 0.05282055 0.05244362
 0.05365898 0.05632441 0.05932077 0.0604798 0.05895463 0.05674004 0.05668934 0.05946782 0.06320536 0.06578106
 0.06678637 0.06738424 0.06880476 0.07108569 0.07291716 0.07263566 0.06987776 0.0665084 0.06530588 0.06723484
 0.07051422 0.07280192 0.07366197 0.07430992 0.07549036 0.07632744 0.07523695 0.07180715 0.06782107 0.06616106
 0.06829837 0.07282074 0.07645652 0.07649514 0.07260964 0.06693886 0.0624213 0.06075975 0.06195441 0.06541547
 0.07062128 0.07653458 0.0813299 0.08341302 0.08258362 0.07994986 0.07666077 0.07283992 0.06818849 0.06375526
 0.06215636 0.06510367 0.07121764 0.07717595 0.08067845 0.0815987 0.08069283 0.07817487 0.07392944 0.06889635
 0.06553158 0.0658987 0.06918406 0.07215697 0.07255624 0.07115301 0.07008702 0.07019399 0.07069712 0.07085629
 0.07103015 0.07207291 0.07411732 0.07625518 0.07741476 0.07733352 0.07660472 0.07598446 0.07570361 0.07530175
 0.07427652 0.07308321 0.07308151 0.07504789 0.07810993 0.08064248 0.08189759 0.08227986 0.08226405 0.0815634
 0.07955084 0.07644492 0.07379367 0.07332616 0.07527988 0.07825258 0.08066085 0.08187896 0.08208948 0.08170862
 0.08110142 0.08046224 0.07988246 0.07961603 0.08001558 0.08103593 0.08211498 0.08274089 0.08287583 0.08270493
 0.08226792 0.08152895 0.08064425 0.07997857 0.07984447 0.08026537 0.08100551 0.08178346 0.08238317 0.08262499
 0.08242339 0.08191562 0.08138024 0.08098496 0.08073194 0.0806379 0.08079189 0.08118966 0.08165239 0.08198072
 0.08211361 0.08209875 0.08198246 0.08177955 0.08151431 0.08125468 0.08110644 0.08114775 0.08133896 0.08153948
 0.08166322 0.08176447 0.08190774 0.08202061 0.08197297 0.08176286 0.08153257 0.08141534 0.08143 0.08151062
 0.08157192 0.081526 0.08129153 0.08086662 0.08040802 0.0801643 0.08027633 0.0806779 0.08120091 0.08170222
 0.08207679 0.08226077 0.08228008 0.08222684 0.08214863 0.08201025 0.08178342 0.08153631 0.08141547 0.08153547
 0.08187257 0.08227562 0.08259296 0.08276854 0.08282632 0.08283064 0.08286905 0.08298872 0.08312398 0.08315615
 0.08306453 0.08295967 0.08295244 0.08303378 0.08309882 0.0830701 0.08298628 0.08296268 0.08306417 0.08324011
 0.08339495 0.08349467 0.08358209 0.08370084 0.08382118 0.08385344 0.08374892 0.08357347 0.08344488 0.08340769
 0.08341856 0.08344837 0.08353171 0.08369286 0.08387379 0.08397952 0.08398291 0.08395107 0.08395864 0.08399659
 0.08398916 0.08389131 0.08374178 0.08362021 0.083576 0.08360206 0.08365455 0.08368608 0.08367017 0.08360931
 0.08352514 0.08343844 0.08335553 0.08328073 0.0832449 0.08329885 0.08345073 0.08361712 0.08367157 0.08355936
 0.08335257 0.08317972 0.08310451 0.08308007 0.08301631 0.08287524 0.08269375 0.0825303 0.08241181 0.0823286
 0.08225867 0.08219022 0.08213764 0.08214225 0.08223663 0.08239064 0.08250809 0.08250515 0.0823907 0.08225168
 0.08216728 0.08215551 0.0821888 0.08223284 0.08227708 0.08234435 0.08245619 0.08258156 0.08265267 0.08264661
 0.08261819 0.08263995 0.08274381 0.08292125 0.08313093 0.08329876 0.08336421 0.08334778 0.08333609 0.0833874
 0.08348344 0.08358131 0.08367512 0.08378643 0.08392227 0.08407259 0.08424065 0.08445041 0.08471744 0.08502193
 0.08531418 0.08554664 0.08571054 0.08585192 0.08604586 0.08633929 0.08671127 0.08708981 0.08741126 0.08766751
 0.08789667 0.08813195 0.08837365 0.08861866 0.08889367 0.08922987 0.08961482 0.09000102 0.0903596 0.09070005
 0.09104014 0.09138264 0.0917254 0.09207778 0.09245928 0.09288101 0.0933226 0.09373163 0.09406101 0.09431212
 0.09453684 0.09480081 0.09514095 0.09553495 0.09590234 0.09616496 0.09633139 0.09649988 0.09675072 0.09705746
 0.0973382 0.09757683 0.0978457 0.09820487 0.09862056 0.09900405 0.09930778 0.09956078 0.0998183 0.1000939
 0.1003463 0.10053 0.1006535 0.1007759 0.1009461 0.1011666 0.1014272 0.1017426 0.1021244 0.1025332
 0.1028972 0.1031747 0.1033757 0.1035316 0.103671 0.1038138 0.1039623 0.1041033 0.1042314 0.104354
 0.1044655 0.1045463 0.1046045 0.1046895 0.1048422 0.1050587 0.1053199 0.1056251 0.1059651 0.1062963
 0.1065841 0.106861 0.1071932 0.1075792 0.1079261 0.1081476 0.1082511 0.1083019 0.1083381 0.1083683
 0.1084246 0.1085584 0.1087768 0.1090261 0.1092438 0.1094018 0.1094973 0.1095311 0.1095058 0.1094328
 0.1093347 0.1092489 0.1092277 0.1093284 0.1095913 0.1100104 0.1105205 0.1110238 0.1114414 0.1117348
 0.1118844 0.1118794 0.1117497 0.1115772 0.1114323 0.1112949 0.1110623 0.1106381 0.109995 0.1091548
 0.1081394 0.1069624 0.1056598 0.1043092 0.1030124 0.1018637 0.1009373 0.1003019 0.1000255 0.1001389
 0.1005839 0.1012078 0.1018138 0.1022126 0.1022425 0.1017917 0.1008431 0.09949004 0.09788771 0.09618491
 0.09449476 0.09289196 0.09141245 0.09007901 0.08896071 0.08820511 0.08799325 0.08845928 0.08964255 0.09147717
 0.09379265 0.09633802 0.09885313 0.1011563 0.1031822 0.1049485 0.1065038 0.1079047 0.1092091 0.110454
 0.1116347 0.112727 0.1137261 0.1146502 0.1155069 0.1162756 0.1169184 0.1173986 0.1176975 0.1178269
 0.1178206 0.1177099 0.1175186 0.1172744 0.1169931 0.1166351 0.1160971 0.11527 0.1141132 0.1126907
 0.1111697 0.1098071 0.1089236 0.108847 0.1098113 0.1118377 0.1146852 0.1179314 0.121136 0.123972
 0.1262729 0.1280269 0.1293413 0.1303728 0.1312511 0.1320475 0.1327892 0.1334823 0.1341257 0.1347211
 0.1352772 0.1358061 0.1363196 0.1368241 0.1373106 0.1377556 0.1381482 0.1385148 0.138907 0.1393561
 0.1398421 0.1403127 0.1407371 0.1411329 0.1415318 0.1419267 0.1422795 0.1425761 0.1428502 0.143151
 0.1435065 0.143915 0.1443458 0.1447468 0.145077 0.1453409 0.1455815 0.1458384 0.1461217 0.1464214
 0.1467262 0.1470286 0.1473239 0.1476169 0.1479228 0.1482487 0.1485709 0.1488481 0.1490644 0.1492505
 0.1494544 0.1496969 0.1499594 0.1502102 0.15044 0.1506742 0.1509484 0.1512678 0.1515938 0.1518764
 0.1520986 0.1522873 0.1524833 0.1527058 0.1529473 0.1531951 0.1534453 0.1536974 0.1539469 0.1541917
 0.1544378 0.1546921 0.1549511 0.1552041 0.1554431 0.1556696 0.1558918 0.1561166 0.1563487 0.1565963
 0.1568704 0.1571681 0.1574638 0.1577253 0.1579411 0.1581265 0.158308 0.1585069 0.1587316 0.1589779
 0.1592333 0.1594867 0.1597352 0.1599813 0.1602269 0.1604704 0.1607112 0.1609532 0.1612022 0.1614602
 0.1617248 0.1619942 0.1622662 0.1625342 0.1627877 0.1630228 0.1632465 0.1634715 0.1637059 0.1639484
 0.1641895 0.1644222 0.1646506 0.1648871 0.1651374 0.1653951 0.1656485 0.1658912 0.1661238 0.1663497
 0.1665717 0.1667921 0.1670136 0.1672392 0.16747 0.167705 0.1679417 0.1681757 0.1684024 0.1686226
 0.1688425 0.1690662 0.1692929 0.1695221 0.1697543 0.1699864 0.1702131 0.1704358 0.1706632 0.170902
 0.1711501 0.1713987 0.1716405 0.171875 0.1721053 0.1723324 0.1725567 0.1727818 0.1730125 0.1732492
 0.1734894 0.1737316 0.1739745 0.1742153 0.1744538 0.1746913 0.1749293 0.1751677 0.1754054 0.1756399
 0.1758713 0.1761048 0.1763444 0.176587 0.1768267 0.1770605 0.1772876 0.1775086 0.1777274 0.1779461
 0.1781615 0.1783714 0.1785799 0.1787917 0.1790073 0.1792246 0.1794403 0.1796521 0.1798643 0.1800843
 0.1803122 0.180544 0.1807784 0.1810137 0.1812469 0.1814803 0.181718 0.1819542 0.1821807 0.1824042
 0.1826394 0.1828885 0.1831419 0.183391 0.1836306 0.1838587 0.1840815 0.1843074 0.1845386 0.1847738
 0.1850119 0.1852484 0.1854801 0.1857106 0.1859443 0.1861799 0.1864173 0.1866571 0.1868939 0.1871228
 0.1873492 0.1875803 0.1878159 0.1880556 0.1882989 0.188538 0.1887681 0.1889974 0.1892329 0.1894697
 0.1897048 0.1899404 0.1901727 0.1903985 0.190625 0.1908572 0.1910903 0.1913243 0.1915586 0.1917703
 0.191906 0.1918504 0.1913262 0.1897767 0.1863397 0.1800081 0.1700257 0.1563597 0.1398763 0.1220285
 0.1043156 0.08789392 0.07346231 0.06134395 0.05162713 0.04425938 0.03911018 0.03607295 0.03516632 0.03663559
 0.04106867 0.04904731 0.05982713 0.07017335 0.07562259 0.0740036 0.06751306 0.06071702 0.05676665 0.05588498
 0.05672438 0.05812745 0.0597209 0.06171271 0.06446666 0.06808285 0.07237689 0.07732968 0.08331059 0.09060171
 0.09882386 0.1070975 0.1148054 0.1220719 0.1294561 0.1372682 0.1452448 0.152814 0.1595494 0.1653724
 0.1704573 0.1750423 0.1793048 0.1833406 0.1871965 0.1908617 0.1941963 0.1969137 0.1987191 0.1995314
 0.1995852 0.199301 0.1990388 0.1989602 0.1990771 0.1993613 0.1997922 0.200353 0.201028 0.2017966
 0.202623 0.2034668 0.2043035 0.2051235 0.2059176 0.2066732 0.207377 0.2080192 0.2085992 0.2091271
 0.2096121 0.2100595 0.2104782 0.2108791 0.2112638 0.2116272 0.2119716 0.2123037 0.2126203 0.2129099
 0.2131683 0.2134045 0.2136341 0.2138682 0.2141078 0.2143459 0.2145763 0.2147996 0.2150201 0.2152392
 0.2154549 0.2156654 0.2158728 0.2160815 0.2162934 0.2165054 0.2167158 0.2169297 0.2171512 0.2173738
 0.2175879 0.2177925 0.2179935 0.2181933 0.2183902 0.2185849 0.2187814 0.2189826 0.219188 0.2193956
 0.2196069 0.2198287 0.2200657 0.2203127 0.2205601 0.220803 0.221038 0.2212608 0.2214749 0.221692
 0.2219125 0.222117 0.2222897 0.2224432 0.2226146 0.2228331 0.2230925 0.2233568 0.223597 0.2238138
 0.2240213 0.2242229 0.2244119 0.224586 0.2247567 0.2249523 0.2251995 0.2254885 0.225776 0.2260341
 0.2262743 0.2265154 0.2267608 0.2270108 0.2272603 0.2274816 0.2276457 0.2277715 0.2279314 0.2281946
 0.2285632 0.2289637 0.2293131 0.2295897 0.2298293 0.2300744 0.2303479 0.2306329 0.2308432 0.2308817
 0.2307946 0.2308009 0.2310899 0.2316288 0.2322239 0.2327227 0.2331054 0.2334252 0.2337188 0.2339693
 0.2341225 0.2341433 0.2340877 0.2341197 0.2343989 0.2349176 0.2354959 0.2359679 0.2363119 0.2365787
 0.2367993 0.2369881 0.2371095 0.2370183 0.2366126 0.2361129 0.236007 0.2365806 0.2375932 0.2385329
 0.2391226 0.2394659 0.2397591 0.2400485 0.2402845 0.2403726 0.2400633 0.2390928 0.2376999 0.2367702
 0.2371019 0.2385973 0.2404172 0.2418182 0.242623 0.2430303 0.2432866 0.2435225 0.2436557 0.2434017
 0.2425848 0.2415499 0.2410756 0.2416537 0.2429408 0.2441349 0.2447993 0.2450876 0.2453108 0.2455878
 0.2457682 0.2453826 0.2439044 0.2415335 0.239594 0.2396032 0.2417847 0.2447958 0.2470573 0.2481145
 0.2485082 0.248604 0.2480561 0.2464311 0.2438582 0.2409653 0.2386842 0.2381306 0.2398662 0.2429679
 0.2455494 0.2466216 0.2469271 0.2477054 0.249211 0.2507147 0.2514571 0.2512381 0.2502855 0.2488412
 0.2470509 0.2453521 0.2446953 0.2458679 0.2485405 0.2513893 0.2533177 0.2542856 0.2547289 0.2542703
 0.2514673 0.2455474 0.238564 0.2348203 0.2370715 0.2436495 0.2502599 0.254206 0.2558616 0.2566495
 0.25713 0.2568501 0.2545969 0.2490504 0.2408606 0.233967 0.2329367 0.2384442 0.2465092 0.2522154
 0.2530673 0.2492592 0.2427833 0.2368229 0.2344528 0.2367844 0.2424875 0.2491031 0.2545142 0.2575262
 0.2578594 0.2560394 0.2533603 0.2515655 0.2515813 0.2521436 0.2507593 0.2468554 0.2427362 0.2402017
 0.2377605 0.2333841 0.2289606 0.2290452 0.2349411 0.2425228 0.2468778 0.2472842 0.2463091 0.2451167
 0.2414526 0.2328742 0.2213654 0.2134068 0.214301 0.2226625 0.2316437 0.2356071 0.234563 0.2321786
 0.2308495 0.2293058 0.2245256 0.2157977 0.2067244 0.2022682 0.2035945 0.2071212 0.2088202 0.2074115
 0.2029449 0.1955737 0.1879584 0.1860906 0.194158 0.2093554 0.2240704 0.2321247 0.2309904 0.2204328
 0.2034601 0.1881827 0.1838482 0.192544 0.2066527 0.2158604 0.2153345 0.2065565 0.1929144 0.1774194
 0.1641271 0.1585127 0.1641688 0.1791859 0.1962446 0.2062401 0.2032853 0.1893059 0.1744823 0.1699142
 0.1774875 0.1885659 0.1936685 0.1910808 0.1854623 0.1818468 0.1827432 0.1877588 0.1940285 0.1988817
 0.2019694 0.2022772 0.1952505 0.1782869 0.158061 0.146147 0.146989 0.1555948 0.1668098 0.1799403
 0.1927619 0.1983413 0.1928519 0.1828378 0.1796662 0.1874652 0.1995846 0.2067416 0.2062125 0.2023409
 0.199804 0.1986237 0.1964923 0.1941606 0.1956334 0.202647 0.2116336 0.2176951 0.2196911 0.2198077
 0.2198276 0.2197772 0.2191889 0.2179037 0.2159767 0.2137978 0.2119824 0.2106579 0.2093261 0.207588
 0.2051485 0.2007841 0.1926526 0.1810424 0.1700476 0.1644009 0.1645417 0.1669421 0.1692498 0.1716304
 0.1720233 0.164806 0.1481596 0.1301181 0.122739 0.1304683 0.1468206 0.1617466 0.169304 0.1681819
 0.1587433 0.143275 0.1284604 0.1233191 0.1319438 0.1496876 0.1682162 0.1826514 0.1921265 0.1959307
 0.1928237 0.1840185 0.1743096 0.1693399 0.1721861 0.1819841 0.1942013 0.2017934 0.1986434 0.185662
 0.1735663 0.1749912 0.1911954 0.2099422 0.2192543 0.2195658 0.2188749 0.2203069 0.2205373 0.2185197
 0.2190141 0.2259831 0.2366944 0.2444082 0.2443453 0.2356023 0.2203818 0.2042868 0.1949042 0.1958629
 0.2028499 0.2084146 0.2092362 0.2056193 0.1970404 0.1841454 0.173605 0.1740551 0.1860398 0.2007995
 0.2102241 0.2142454 0.2172318 0.2204151 0.2203674 0.2141978 0.2044111 0.1973954 0.1971298 0.2017049
 0.2065623 0.2092798 0.2096509 0.2070197 0.2006819 0.1929372 0.1890921 0.1928867 0.2026581 0.212914
 0.2192459 0.2210755 0.2203641 0.2190288 0.2176345 0.2155592 0.2123198 0.2092872 0.2094015 0.2140137
 0.2206784 0.2256253 0.2280455 0.2303648 0.2344303 0.2389857 0.2412648 0.2400969 0.2370681 0.2351443
 0.2362962 0.2399391 0.2433526 0.2439619 0.2417615 0.2395469 0.2403475 0.2445429 0.2498283 0.2538204
 0.2559993 0.2572074 0.258235 0.2591429 0.2592357 0.2575958 0.254385 0.2516187 0.2517455 0.2552106
 0.2600144 0.2637607 0.2655801 0.2660142 0.2657314 0.2648373 0.2632413 0.2612652 0.2596493 0.2589829
 0.2592801 0.260139 0.2611454 0.2620515 0.2627462 0.2632262 0.2635587 0.2637988 0.2639688 0.2641078
 0.2642495 0.2643455 0.264308 0.2641673 0.2640926 0.2641982 0.264393 0.2644842 0.2643635 0.2640077
 0.2633576 0.2623294 0.2609488 0.2593551 0.2576381 0.2557824 0.2538766 0.252336 0.2517759 0.2525583
 0.2544516 0.2567639 0.2588042 0.2602224 0.2610126 0.2613389 0.2614021 0.2613731 0.2613456 0.2613187
 0.2612424 0.2610871 0.2608669 0.2606081 0.2603228 0.260024 0.2597424 0.2594988 0.2592645 0.2589774
 0.258602 0.2581598 0.2576961 0.2572314 0.2567464 0.2561986 0.255542 0.2547446 0.2538077 0.252773
 0.2517044 0.2506562 0.2496521 0.2486795 0.2476992 0.2466605 0.2455107 0.2442025 0.242735 0.2412002
 0.2397507 0.2384852 0.2373817 0.2363485 0.2353066 0.2342118 0.2330481 0.2318378 0.2306304 0.2294582
 0.2283108 0.2271572 0.2259748 0.2247505 0.2234681 0.2221063 0.2206511 0.2191072 0.2174987 0.2158553
 0.2141782 0.2124045 0.2104074 0.2080395 0.2051767 0.2017314 0.1976692 0.1930496 0.1880371 0.1828519
 0.1777099 0.1727982 0.1682707 0.1642453 0.1608055 0.1580042 0.1558648 0.1543907 0.1535812 0.1534368
 0.1539511 0.1551032 0.1568418 0.1590672 0.1616367 0.1643892 0.16716 0.1697992 0.1722169 0.1744196
 0.1764815 0.1784697 0.1803952 0.182228 0.183935 0.1854905 0.1868572 0.1879915 0.188885 0.1895891
 0.1901782 0.1906987 0.1911602 0.191561 0.1919051 0.1921978 0.1924347 0.192606 0.1927211 0.192828
 0.1929927 0.1932614 0.1936542 0.1941831 0.194856 0.195662 0.1965645 0.1975169 0.1984934 0.1995067
 0.2005858 0.2017407 0.2029651 0.2042656 0.205666 0.2071826 0.2088096 0.2105159 0.2122397 0.2138952
 0.2153983 0.2166881 0.2177366 0.2185527 0.219168 0.2196085 0.2198834 0.2199993 0.2199714 0.2198237
 0.2195879 0.219294 0.2189574 0.2185838 0.2181809 0.2177506 0.2172799 0.2167582 0.2161923 0.2155943
 0.2149749 0.2143623 0.2138037 0.2133307 0.2129315 0.2125609 0.2121711 0.2117386 0.2112707 0.2107921
 0.2103245 0.2098686 0.2093895 0.2088265 0.208134 0.2073091 0.2063671 0.205308 0.2041267 0.202838
 0.2014691 0.200036 0.1985367 0.1969583 0.1952845 0.1935029 0.1916084 0.1896088 0.1875397 0.185467
 0.1834581 0.1815529 0.1797665 0.1781037 0.1765572 0.1751056 0.1737193 0.1723695 0.1710432 0.169762
 0.1685675 0.167474 0.1664524 0.1654725 0.1645398 0.163684 0.1629295 0.1622826 0.1617312 0.1612511
 0.1608169 0.1604181 0.1600724 0.1598195 0.1596875 0.1596553 0.1596547 0.1596084 0.1594689 0.1592406
 0.1589798 0.1587542 0.158588 0.1584582 0.1583386 0.1582138 0.1580442 0.1577415 0.1571951 0.1563209
 0.1550939 0.1535504 0.1517709 0.1498717 0.147999 0.1462941 0.1448479 0.1436915 0.1428117 0.1421516
 0.1416233 0.141166 0.1407889 0.1405464 0.1404833 0.1405888 0.1407696 0.1408901 0.140891 0.1408615
 0.1409619 0.14129 0.1418272 0.1424739 0.1431156 0.1436775 0.1441292 0.1444517 0.1446344 0.1446982
 0.1446783 0.1445827 0.1444034 0.1441481 0.1438335 0.143469 0.1430604 0.1426016 0.1420661 0.1414329
 0.1407049 0.1398868 0.1389795 0.1379869 0.1368861 0.1356331 0.1342746 0.133023 0.1321546 0.1318391
 0.1320567 0.1326192 0.1332924 0.1339546 0.134582 0.1350559 0.1351756 0.1350215 0.1351601 0.1362359
 0.138329 0.1408334 0.142985 0.1444042 0.145119 0.1452567 0.1448877 0.1440596 0.1427821 0.1410061
 0.1387391 0.1361159 0.133295 0.1304042 0.1276101 0.1250911 0.1229447 0.1212034 0.1198687 0.1189639
 0.1185904 0.1183786 0.1165267 0.1107329 0.1017484 0.09498604 0.09599715 0.1042469 0.113475 0.1183175
 0.1185814 0.1170668 0.115709 0.1148036 0.114268 0.114254 0.1148893 0.1160354 0.117313 0.1183333
 0.1189478 0.1192027 0.1190492 0.1181356 0.1157692 0.1111456 0.1039958 0.09516814 0.08633791 0.07902056
 0.07389713 0.07085021 0.06929284 0.0685037 0.06798126 0.06767073 0.06785823 0.06883596 0.07066365 0.0732047
 0.0762724 0.07961567 0.08282708 0.08549716 0.08752388 0.08911216 0.09043556 0.09144385 0.09200281 0.0920679
 0.09170509 0.09105427 0.09028381 0.08950199 0.0886827 0.0877133 0.08656704 0.08543116 0.08459216 0.08416282
 0.0840036 0.08393161 0.08388913 0.08388245 0.08388925 0.08387303 0.08382016 0.08377118 0.08384758 0.08416773
 0.08469039 0.08521863 0.08558226 0.08575962 0.08583079 0.08584134 0.08569266 0.08522929 0.08451438 0.08386771
 0.0834448 0.08294258 0.08199196 0.08073722 0.07975599 0.07944329 0.07967417 0.08003575 0.08020534 0.08010463
 0.07987617 0.07980733 0.08013968 0.08078451</values></Ydata></ScSm><ScRf><Ydata ylabel="Single channel"><values byteorder="INTEL" format="FLOAT32" numvalues="1820"> 0.06043566 0.06059624 0.06069273 0.06072443 0.06071781 0.06072182 0.0607872 0.0609344 0.06113558 0.06132809
 0.06145639 0.06150984 0.06151243 0.06148081 0.06142206 0.06137468 0.06140779 0.06155308 0.06175614 0.06191267
 0.06195367 0.06190698 0.06187953 0.06194996 0.06205853 0.06202912 0.06173653 0.06125324 0.06080079 0.06054679
 0.06050286 0.06065969 0.06109626 0.06176881 0.06227228 0.06212885 0.06138626 0.06065121 0.06041394 0.06057824
 0.06074334 0.06067117 0.06035843 0.05994705 0.05977258 0.06027555 0.06156656 0.06306547 0.06370874 0.06262062
 0.05973943 0.05602009 0.05308302 0.05234363 0.05401333 0.0568143 0.05893909 0.05949371 0.05892697 0.05811447
 0.05741538 0.05678275 0.05637437 0.05659378 0.05753087 0.05857737 0.05873764 0.057482 0.05538047 0.05370104
 0.05325093 0.05386796 0.05510048 0.05670045 0.05793053 0.05717044 0.05351397 0.04878754 0.04673238 0.04944454
 0.05513544 0.05988181 0.06111561 0.05905888 0.0555774 0.05263432 0.05155061 0.05265282 0.05522122 0.05808903
 0.06034739 0.06138019 0.06070712 0.05840433 0.05551249 0.05353003 0.05349322 0.0555718 0.05903203 0.06230192
 0.06368816 0.06262825 0.06006195 0.05743718 0.05575971 0.05560068 0.05723405 0.0603479 0.06403055 0.06730394
 0.06952024 0.07041838 0.07018024 0.06932244 0.06830451 0.06744256 0.06717685 0.067803 0.06875628 0.06882778
 0.06748262 0.06558316 0.06450489 0.06471498 0.06540049 0.06545366 0.0645901 0.06316348 0.06107011 0.05773039
 0.05342231 0.04963431 0.04757699 0.0472628 0.04839641 0.05084575 0.05359108 0.05465832 0.05327532 0.05125505
 0.05119336 0.0537 0.05708202 0.05941735 0.06033605 0.06089155 0.0621957 0.06427701 0.06594107 0.06567553
 0.06315538 0.06008608 0.05900114 0.06077503 0.06377738 0.06587142 0.06666625 0.06727905 0.0683888 0.06918478
 0.06821087 0.06509538 0.06147838 0.05999286 0.06196845 0.06610186 0.06940405 0.06940942 0.06583603 0.06065421
 0.05655271 0.055076 0.05621173 0.05941837 0.06421991 0.06966674 0.07409319 0.07604782 0.07534148 0.07296944
 0.06997335 0.06647654 0.06222237 0.05818125 0.05675347 0.05950705 0.06516953 0.0706832 0.07393409 0.0748122
 0.07401705 0.07173961 0.06786425 0.06326008 0.06020957 0.06062992 0.06376096 0.0665936 0.06702007 0.06575653
 0.06480171 0.06494761 0.0654804 0.06570953 0.0659613 0.06702319 0.06901345 0.07108636 0.0722469 0.07224934
 0.07164113 0.07112767 0.07093064 0.0706214 0.06972726 0.06867982 0.06876488 0.07071117 0.07368509 0.07614699
 0.07739551 0.07782215 0.07787947 0.07728962 0.07544746 0.07255779 0.07010299 0.06974319 0.07170841 0.07465248
 0.07705321 0.07830839 0.07859258 0.07830516 0.07780053 0.07727644 0.07682985 0.07669803 0.07719744 0.07826547
 0.07936172 0.08000851 0.08018042 0.08005464 0.07966723 0.0789938 0.07820205 0.07764812 0.07761806 0.07811633
 0.07891424 0.0797514 0.08042184 0.08073739 0.08060049 0.08014778 0.07966855 0.07934228 0.07917514 0.07917884
 0.0794318 0.07991901 0.08045517 0.08084082 0.08102103 0.08105422 0.08099578 0.08086121 0.08066966 0.08048829
 0.08042638 0.08055839 0.08083333 0.08110908 0.08131596 0.08152476 0.08179294 0.08201797 0.08204185 0.08186212
 0.08164705 0.0815555 0.08160843 0.08172621 0.08181846 0.08180894 0.08162887 0.08127458 0.08088935 0.08071248
 0.08089264 0.08138274 0.08202288 0.08265208 0.08313446 0.08338997 0.0834533 0.08343416 0.08338765 0.08327672
 0.0830751 0.08286027 0.08278601 0.08296642 0.08337466 0.08385594 0.08424845 0.0844809 0.08457229 0.08460349
 0.08468755 0.08487933 0.08509186 0.08517767 0.08511258 0.08503207 0.08506618 0.08519249 0.0852768 0.08523279
 0.08511995 0.08508272 0.0852021 0.08542544 0.0856438 0.08581227 0.08597627 0.08618721 0.08640511 0.08650769
 0.08642043 0.08621854 0.08605197 0.08598562 0.08597685 0.08600047 0.08610593 0.08632018 0.08656241 0.08671103
 0.08673507 0.08671745 0.08674663 0.086813 0.0868286 0.08673306 0.08655766 0.08639183 0.08631055 0.08633242
 0.08641889 0.08649956 0.08651389 0.08644769 0.08633423 0.08621845 0.08612536 0.08607173 0.08609786 0.08625136
 0.08651099 0.08674519 0.08679214 0.0866054 0.08630835 0.08608732 0.08602597 0.0860472 0.08600864 0.08584006
 0.08558594 0.08533748 0.08514883 0.08501618 0.08491069 0.08481806 0.08475833 0.08477679 0.0848967 0.08506186
 0.08514506 0.08504983 0.08480532 0.0845378 0.08435598 0.08428371 0.08428058 0.08429086 0.08428647 0.08429222
 0.08435096 0.08444621 0.08449613 0.08444929 0.08434989 0.08428963 0.08433245 0.08448952 0.08470964 0.08488207
 0.0849103 0.08480991 0.08469535 0.08465943 0.08470215 0.08477826 0.08486418 0.08495833 0.08505359 0.08514368
 0.08524735 0.08540261 0.08562908 0.08589922 0.08614889 0.08632227 0.08641835 0.0864998 0.08664928 0.08690634
 0.08723806 0.08756612 0.08782663 0.08801561 0.08818059 0.08836411 0.08856516 0.08876806 0.08898941 0.08926338
 0.08958803 0.08992002 0.09022449 0.09050352 0.090775 0.09104775 0.09132458 0.09162036 0.09196767 0.09238839
 0.09284557 0.09324223 0.09349879 0.09363282 0.09374661 0.09394474 0.09426567 0.0946579 0.09500307 0.0952031
 0.09528205 0.09537345 0.09557453 0.09584504 0.09608907 0.09630357 0.09658541 0.09699453 0.09746248 0.09785621
 0.09810755 0.09826352 0.09841929 0.09861489 0.09880406 0.09892668 0.09899458 0.09907817 0.09921698 0.09939083
 0.09959146 0.09986661 0.1002515 0.1006927 0.101086 0.1013721 0.1015623 0.1016948 0.1017988 0.1018857
 0.1019484 0.1019808 0.1020095 0.1020774 0.1021827 0.1022712 0.1023099 0.1023355 0.1024077 0.1025471
 0.102746 0.1030027 0.1033062 0.1036096 0.1038733 0.1041298 0.1044514 0.1048335 0.1051622 0.1053352
 0.1053782 0.1053944 0.1054359 0.1054858 0.1055493 0.1056855 0.105934 0.1062637 0.1066144 0.1069569
 0.1072947 0.1076284 0.107932 0.1081592 0.1082727 0.1082785 0.1082363 0.1082343 0.1083436 0.1085809
 0.1089006 0.1092276 0.1095049 0.1097057 0.1098082 0.1097987 0.1097202 0.1096857 0.1097887 0.1099978
 0.1101697 0.1101716 0.1099691 0.1095975 0.1090918 0.1084732 0.1077875 0.1071214 0.106567 0.1061768
 0.1059628 0.1059381 0.1061378 0.1065775 0.1071984 0.1078829 0.1085236 0.1090475 0.1093736 0.1094033
 0.1090918 0.1085057 0.1077816 0.1070448 0.1063688 0.1057705 0.1052143 0.1046575 0.1041367 0.1038041
 0.103853 0.104402 0.1054364 0.1068209 0.1083436 0.1097825 0.1109916 0.1119529 0.1127458 0.1134588
 0.1141363 0.1147977 0.1154666 0.1161469 0.1167924 0.1173443 0.1177993 0.1182084 0.1186111 0.1190003
 0.1193455 0.1196266 0.1198506 0.1200537 0.1202677 0.1204686 0.1205841 0.1205744 0.120478 0.1203605
 0.1202402 0.1200797 0.1198284 0.1194634 0.1190208 0.1186189 0.1184413 0.1186604 0.1193383 0.1203876
 0.1216364 0.1229366 0.124201 0.1253524 0.1262945 0.1269674 0.1274052 0.1277087 0.1279711 0.1282432
 0.1285422 0.1288632 0.1291868 0.1294942 0.1297816 0.1300623 0.1303586 0.1306811 0.1310091 0.1313034
 0.1315485 0.1317794 0.1320547 0.1324024 0.1327921 0.1331648 0.133493 0.1338024 0.1341237 0.1344375
 0.1346944 0.1348833 0.1350508 0.1352583 0.1355397 0.1358906 0.1362647 0.1365896 0.1368201 0.1369819
 0.1371416 0.1373405 0.1375731 0.1378205 0.1380755 0.1383339 0.138588 0.1388414 0.1391158 0.1394226
 0.1397298 0.1399793 0.1401469 0.1402739 0.1404252 0.1406266 0.1408521 0.1410654 0.1412618 0.1414714
 0.1417281 0.1420301 0.1423326 0.1425822 0.1427611 0.1428962 0.1430306 0.1431916 0.1433805 0.1435839
 0.1437891 0.143991 0.1441916 0.1443964 0.1446104 0.1448333 0.1450592 0.1452804 0.1454917 0.1456931
 0.1458894 0.1460861 0.1462891 0.1465124 0.1467749 0.147076 0.1473781 0.1476296 0.1478092 0.147939
 0.1480582 0.1481949 0.1483585 0.148546 0.1487483 0.1489545 0.1491548 0.1493432 0.1495235 0.1497089
 0.1499099 0.1501247 0.1503431 0.1505582 0.1507726 0.1509956 0.1512324 0.1514744 0.1517034 0.1519081
 0.1520938 0.1522767 0.1524689 0.1526687 0.1528632 0.1530445 0.1532198 0.1534026 0.1535971 0.1537977
 0.1539977 0.154194 0.1543865 0.1545787 0.1547756 0.1549788 0.1551866 0.1553951 0.1555969 0.1557849
 0.1559609 0.156136 0.1563198 0.1565134 0.1567135 0.1569173 0.1571227 0.1573273 0.1575283 0.1577241
 0.157916 0.1581073 0.1582999 0.1584926 0.1586842 0.1588755 0.1590699 0.1592714 0.159481 0.1596922
 0.159896 0.1600893 0.1602778 0.1604709 0.1606776 0.1609011 0.1611333 0.1613589 0.1615687 0.1617669
 0.1619667 0.1621796 0.162405 0.1626302 0.162845 0.1630547 0.1632711 0.1634938 0.1637093 0.1639064
 0.1640855 0.1642581 0.1644368 0.1646252 0.1648163 0.1650028 0.165183 0.1653577 0.1655298 0.1657064
 0.1658939 0.1660939 0.1663051 0.1665225 0.1667351 0.1669329 0.1671183 0.167302 0.1674925 0.1676954
 0.1679125 0.1681371 0.1683573 0.1685697 0.1687788 0.1689875 0.1691941 0.1693971 0.1695979 0.1698022
 0.1700156 0.1702335 0.1704454 0.1706497 0.1708531 0.1710578 0.1712634 0.1714745 0.1716913 0.1719035
 0.1721056 0.172304 0.1725038 0.172703 0.1729028 0.1731092 0.1733253 0.17355 0.1737773 0.1739969
 0.1742053 0.1744106 0.1746187 0.1748272 0.1750385 0.1752567 0.1754744 0.1756832 0.1758887 0.1761008
 0.1763199 0.1765433 0.1767637 0.1769583 0.1770824 0.1770341 0.1765542 0.1751196 0.1719269 0.1660491
 0.156797 0.1441433 0.1288792 0.112338 0.09590751 0.08066832 0.06727906 0.05604687 0.04705844 0.04026559
 0.03553864 0.03275978 0.03192879 0.03327245 0.03735094 0.04471638 0.05468033 0.06424579 0.06928557 0.0677966
 0.06181125 0.05554692 0.05191009 0.05110142 0.05187315 0.05315606 0.05460874 0.05643211 0.05897176 0.06232007
 0.06629649 0.070877 0.07640955 0.08316705 0.09080358 0.0984974 0.105663 0.1124068 0.1192499 0.1264865
 0.133875 0.140884 0.1471173 0.1525038 0.1572119 0.1614719 0.1654475 0.1692113 0.1727902 0.176174
 0.1792467 0.1817557 0.1834328 0.1841987 0.1842602 0.1839991 0.1837509 0.1836712 0.1837748 0.1840392
 0.1844492 0.1849862 0.1856252 0.1863399 0.1871032 0.1878918 0.1886902 0.1894794 0.1902312 0.1909245
 0.1915577 0.1921396 0.1926782 0.193178 0.1936394 0.1940618 0.1944531 0.194826 0.1951849 0.1955267
 0.1958515 0.1961591 0.196443 0.196699 0.1969348 0.1971635 0.1973926 0.1976241 0.1978541 0.1980757
 0.1982887 0.1985021 0.1987198 0.1989333 0.1991325 0.19932 0.1995076 0.1997037 0.1999061 0.2001073
 0.200305 0.2005028 0.2007015 0.2008954 0.2010823 0.2012689 0.2014614 0.2016582 0.2018521 0.2020383
 0.2022195 0.2024049 0.2025999 0.2027991 0.2029966 0.2031979 0.2034091 0.2036231 0.2038306 0.2040361
 0.2042483 0.2044658 0.2046839 0.2049039 0.2051216 0.2053212 0.2054932 0.2056522 0.2058289 0.2060411
 0.2062751 0.2064989 0.2066974 0.206886 0.2070836 0.2072864 0.2074775 0.2076495 0.2078145 0.2079984
 0.2082209 0.2084707 0.2087153 0.208943 0.209171 0.2094093 0.2096471 0.2098792 0.210109 0.2103225
 0.2104932 0.2106262 0.2107772 0.2110118 0.2113419 0.2117063 0.2120283 0.2122867 0.2125137 0.2127449
 0.2129971 0.2132578 0.213458 0.2135144 0.2134621 0.2134894 0.2137654 0.2142677 0.2148258 0.2152947
 0.2156446 0.2159237 0.2161818 0.2164163 0.2165728 0.2166076 0.2165706 0.216616 0.2168884 0.217374
 0.2179034 0.2183246 0.2186215 0.2188501 0.2190475 0.2192276 0.2193511 0.2192801 0.2189225 0.2184838
 0.2184078 0.2189439 0.2198655 0.2207143 0.2212535 0.2215802 0.2218623 0.2221356 0.2223574 0.2224408
 0.2221494 0.2212379 0.2199339 0.219064 0.2193675 0.2207524 0.2224438 0.223758 0.2245299 0.2249359
 0.2251954 0.2254248 0.2255464 0.2252997 0.224534 0.2235821 0.2231688 0.2237425 0.2249722 0.2261015
 0.2267193 0.2269786 0.2271883 0.2274664 0.2276594 0.2273142 0.2259411 0.2237386 0.2219437 0.2219598
 0.2239888 0.2267905 0.2289062 0.2299062 0.2302782 0.2303599 0.2298427 0.2283354 0.2259587 0.2232897
 0.2211879 0.220687 0.2223086 0.2251918 0.2275825 0.2285711 0.2288628 0.2296122 0.231042 0.2324602
 0.2331584 0.2329587 0.2320849 0.2307681 0.2291393 0.2275959 0.2270169 0.2281361 0.2306503 0.2333299
 0.2351498 0.2360624 0.2364696 0.2360282 0.233402 0.2278726 0.2213624 0.2179019 0.2200637 0.2262656
 0.2324678 0.2361465 0.2376724 0.2384001 0.2388607 0.2386241 0.2365515 0.2314101 0.2238047 0.2174075
 0.2164785 0.2216475 0.2292018 0.2345576 0.2353855 0.2318542 0.2258124 0.220246 0.2180554 0.2202894
 0.2256842 0.231913 0.2369908 0.2398212 0.2401664 0.2385195 0.2360713 0.2344402 0.2345013 0.2350856
 0.2338592 0.2302722 0.2264709 0.224143 0.2219031 0.2178601 0.2137823 0.2139338 0.2195338 0.2267157
 0.2308766 0.2313488 0.2305492 0.2295692 0.2262799 0.2183758 0.2077257 0.2004464 0.2015555 0.2097698
 0.2186613 0.2229605 0.2227398 0.2215118 0.2215387 0.2215282 0.218451 0.2114986 0.2040932 0.2010157
 0.2033115 0.2073518 0.2091245 0.2074272 0.2024403 0.1944473 0.1861668 0.1835774 0.1908655 0.205298
 0.2193676 0.2269681 0.2256103 0.2150783 0.1983237 0.1832744 0.1789628 0.1874231 0.2012129 0.2102622
 0.209848 0.2014046 0.1882338 0.1732845 0.1605469 0.1554236 0.1614776 0.1768358 0.1942445 0.2046456
 0.2021574 0.1886796 0.1743718 0.17034 0.1784784 0.1901338 0.1957994 0.1937487 0.1886491 0.1855779
 0.1871162 0.192888 0.1999438 0.2055314 0.2092903 0.2101141 0.2031852 0.1857614 0.164832 0.1525179
 0.1534852 0.1625374 0.1743133 0.1881092 0.2015919 0.2074791 0.2017538 0.1912851 0.1879913 0.1961836
 0.208876 0.2163445 0.215757 0.2116866 0.2090388 0.2078222 0.2056111 0.2032163 0.2048732 0.2124124
 0.2220747 0.2287089 0.2311243 0.2316299 0.2321061 0.2325754 0.2325304 0.231797 0.2304502 0.2289314
 0.227915 0.2275451 0.2272957 0.2267601 0.2256285 0.2224862 0.2151126 0.2036149 0.1924299 0.1868098
 0.1872416 0.1898149 0.1920257 0.1942263 0.194194 0.1856222 0.1664628 0.1457512 0.1370246 0.1452365
 0.1630732 0.1792848 0.187301 0.1857683 0.1751673 0.1580171 0.1415804 0.1356017 0.1443607 0.1625603
 0.1809825 0.1944359 0.2023734 0.2044931 0.1997309 0.1893775 0.1783573 0.1724199 0.1746247 0.1839847
 0.1958118 0.2029448 0.1992457 0.1856852 0.1730386 0.1739525 0.1896878 0.2080355 0.2170427 0.2171249
 0.2162427 0.2175263 0.217708 0.2157939 0.2165615 0.2239941 0.2354198 0.2441492 0.2453538 0.2379717
 0.22409 0.2094389 0.2019024 0.2051607 0.2144406 0.2216538 0.2231985 0.2194808 0.2101522 0.1961319
 0.1846709 0.1849837 0.1975749 0.2130482 0.2227846 0.2267862 0.2297518 0.2329888 0.2328374 0.2262277
 0.2158225 0.2083807 0.2080785 0.2128534 0.2178858 0.2206782 0.2210864 0.2184372 0.2119476 0.2039944
 0.2001451 0.2043148 0.2146886 0.2253922 0.2317259 0.2330927 0.2316191 0.2293919 0.2270636 0.2240224
 0.2197697 0.2157172 0.2149208 0.2188199 0.2249425 0.2294451 0.231514 0.233636 0.2376923 0.2423736
 0.2447783 0.2435766 0.2402699 0.2378777 0.2385131 0.2417051 0.2447495 0.245018 0.2424586 0.2398799
 0.2403666 0.2443401 0.2494957 0.2534228 0.2555683 0.2567512 0.2577589 0.2586591 0.2587439 0.2570637
 0.2537642 0.2508728 0.2508556 0.254167 0.2588204 0.2624503 0.2642284 0.264726 0.2646094 0.2639458
 0.2625881 0.2608034 0.2592968 0.2586565 0.2589272 0.2597403 0.2606921 0.2615306 0.2621479 0.2625552
 0.2628305 0.2630268 0.263155 0.2632431 0.2633261 0.2633694 0.263306 0.2631819 0.263169 0.2633704
 0.2636788 0.2638924 0.2639008 0.2636767 0.2631494 0.2622269 0.2609466 0.259477 0.2579265 0.2562626
 0.2545336 0.2531301 0.2526804 0.2535793 0.2556173 0.2580976 0.2603116 0.2619018 0.2628668 0.2633653
 0.2635713 0.2636286 0.2636288 0.2635931 0.2634935 0.263302 0.2630196 0.2626664 0.2622648 0.2618444
 0.2614515 0.261128 0.2608695 0.2606171 0.2603032 0.259899 0.2594185 0.2588929 0.2583441 0.2577671
 0.2571249 0.2563739 0.2555032 0.2545538 0.2536021 0.252721 0.251937 0.2512115 0.2504734 0.2496704
 0.2487767 0.2477662 0.2466304 0.2454422 0.2443521 0.2434769 0.2427999 0.2422009 0.2415597 0.2408098
 0.2399318 0.2389432 0.2378914 0.2368194 0.2357322 0.2346078 0.2334281 0.2321842 0.2308639 0.2294537
 0.2279513 0.2263706 0.2247397 0.2230853 0.2213994 0.2196167 0.2176273 0.2153052 0.2125281 0.2091963
 0.2052712 0.2008154 0.195996 0.1910357 0.1861427 0.1814735 0.1771463 0.1732679 0.1699341 0.1672154
 0.1651514 0.1637574 0.1630387 0.1630061 0.1636717 0.1650187 0.1669775 0.1694331 0.1722446 0.1752502
 0.178268 0.1811233 0.1837097 0.1860394 0.1882136 0.1903097 0.1923058 0.1941295 0.1957495 0.1971793
 0.1984175 0.1994426 0.2002642 0.2009383 0.2015213 0.2020316 0.2024627 0.2028181 0.2031185 0.203381
 0.2036055 0.2037918 0.2039569 0.2041269 0.2043171 0.2045311 0.2047793 0.2050887 0.2054869 0.2059722
 0.2065058 0.207044 0.2075771 0.2081273 0.2087191 0.20937 0.2101039 0.2109511 0.2119334 0.2130564
 0.2143104 0.215663 0.2170511 0.2183871 0.2195847 0.2205843 0.2213557 0.2218857 0.2221764 0.2222571
 0.2221767 0.2219748 0.2216698 0.2212763 0.2208144 0.2202976 0.2197268 0.219106 0.2184529 0.2177855
 0.2171057 0.216405 0.2156849 0.2149659 0.2142713 0.2136097 0.2129776 0.2123719 0.2117903 0.2112262
 0.2106701 0.210111 0.2095348 0.2089331 0.208314 0.2076906 0.2070507 0.2063521 0.2055573 0.2046613
 0.2036738 0.2025903 0.2013988 0.2001072 0.1987396 0.1973086 0.1958068 0.194228 0.1925768 0.1908535
 0.1890417 0.1871238 0.1851125 0.1830678 0.1810777 0.1792155 0.1775091 0.1759424 0.1744781 0.1730852
 0.1717519 0.1704746 0.1692437 0.1680535 0.1669191 0.1658606 0.1648746 0.1639401 0.1630516 0.1622303
 0.161503 0.1608782 0.1603427 0.1598768 0.1594701 0.1591235 0.1588477 0.1586658 0.1585966 0.15862
 0.1586705 0.1586826 0.1586328 0.1585387 0.1584332 0.1583426 0.15827 0.1582018 0.1581266 0.1580322
 0.1578772 0.1575825 0.1570537 0.1562126 0.1550268 0.1535255 0.1517874 0.1499235 0.1480734 0.1463792
 0.1449334 0.1437609 0.142849 0.1421638 0.141647 0.1412407 0.1409292 0.1407498 0.1407594 0.1409637
 0.1412536 0.1414541 0.141487 0.1414599 0.1415686 0.1419425 0.1425816 0.1433764 0.1441744 0.1448658
 0.1454132 0.1458059 0.1460379 0.1461376 0.1461567 0.1461196 0.1460202 0.1458523 0.1456147 0.1453107
 0.1449526 0.1445406 0.1440553 0.1434915 0.1428599 0.1421485 0.1413358 0.1404293 0.1394264 0.138289
 0.137051 0.1359134 0.1351615 0.1349963 0.1354277 0.1362715 0.1372797 0.1383161 0.1393316 0.1401649
 0.140576 0.1406174 0.1408281 0.1418506 0.1438269 0.1462434 0.1483784 0.1498271 0.1505705 0.1507061
 0.1503004 0.1494148 0.1480656 0.1461945 0.1438061 0.1410474 0.1380849 0.1350552 0.1321483 0.1295569
 0.1273614 0.12557 0.1241795 0.1232209 0.1228144 0.1225998 0.1207144 0.1147497 0.1054709 0.09849969
 0.0995895 0.1081564 0.1176855 0.122619 0.1227881 0.1211425 0.1197136 0.118782 0.1182216 0.1181873
 0.1188334 0.1200244 0.1213686 0.1224671 0.1231565 0.1234686 0.1233581 0.1224715 0.1200746 0.1152996
 0.1078489 0.09861252 0.08936946 0.08174396 0.07645902 0.07335876 0.07179018 0.07098278 0.07041516 0.07005286
 0.07023133 0.07126915 0.0732043 0.07586864 0.07906739 0.08255497 0.08592881 0.08877553 0.09096852 0.09267896
 0.09406766 0.09509236 0.09563054 0.09566189 0.0952882 0.09465756 0.0939071 0.09311458 0.0922469 0.09119627
 0.08995438 0.08874564 0.08788604 0.08748947 0.08739951 0.08740584 0.08741443 0.08741003 0.0873803 0.08731323
 0.08721585 0.08714233 0.08721206 0.0875276 0.08804172 0.08856161 0.08890863 0.08905318 0.08909465 0.08909529
 0.08892971 0.0884039 0.08758549 0.08683243 0.08632485 0.0857528 0.08472683 0.08338919 0.08234815 0.08202834
 0.08228853 0.08266568 0.08280248 0.08262138 0.08229341 0.08215056 0.08246455 0.08313431 0.08367908 0.08369449
</values></Ydata></ScRf><Data_Parameters_AB><parameter name="DPF">1</parameter><parameter name="NPT">3497</parameter><parameter name="FXV">3996</parameter><parameter name="LXV">500</parameter><parameter name="CSF">1</parameter><parameter name="MXY">0.0721385255455971</parameter><parameter name="MNY">-0.0458051711320877</parameter><parameter name="DAT">30/05/2022</parameter><parameter name="TIM">11:44:33.963 (GMT+2)</parameter><parameter name="DXU">WN</parameter></Data_Parameters_AB><AB__Qtest><MainReport name="Quality Test Report"><Header><Line><Legend>Test result ok/not ok [1/0]: </Legend><Value>0</Value></Line><Line><Legend>Method file: </Legend><Value>C:\Users\Public\Documents\Bruker\OPUS_8.2.28\QT\IRBT_v3_default.QT</Value></Line></Header><Matrix><Line><Legend></Legend><Legend>min</Legend><Legend>max</Legend><Legend>measured</Legend></Line><Line><Value>Absorption (X-Range 1):</Value><Value>0.400000</Value><Value>2.000000</Value><Value>0.060245</Value></Line><Line><Value>Noise (X-Range 4):</Value><Value></Value><Value>0.000300</Value><Value>0.000040</Value></Line><Line><Value>Signal/Noise (X-Range 2):</Value><Value>200.000000</Value><Value></Value><Value>18.848551</Value></Line><Line><Value>Signal/Noise (X-Range 3):</Value><Value>40.000000</Value><Value></Value><Value>28.269922</Value></Line><Line><Value>Water vapour (X-Range 5):</Value><Value></Value><Value>0.000300</Value><Value>0.000035</Value></Line><Line><Value>Signal/Water (X-Range 2):</Value><Value>100.000000</Value><Value></Value><Value>21.535919</Value></Line><Line><Value>Signal/Water (X-Range 3):</Value><Value>20.000000</Value><Value></Value><Value>32.300561</Value></Line><Line><Value>Fringes (X-Range 6):</Value><Value></Value><Value>0.000100</Value><Value>0.000047</Value></Line></Matrix></MainReport></AB__Qtest><Data_Parameters_ScSm><parameter name="DPF">1</parameter><parameter name="NPT">1814</parameter><parameter name="FXV">3996.33169228125</parameter><parameter name="LXV">499.541461535156</parameter><parameter name="CSF">1</parameter><parameter name="MXY">0.266014248132706</parameter><parameter name="MNY">0.0351663157343864</parameter><parameter name="DAT">30/05/2022</parameter><parameter name="TIM">11:44:33.963 (GMT+2)</parameter><parameter name="DXU">WN</parameter></Data_Parameters_ScSm><Data_Parameters_ScRf><parameter name="DPF">1</parameter><parameter name="NPT">1820</parameter><parameter name="FXV">4004.04661832813</parameter><parameter name="LXV">495.683998511719</parameter><parameter name="CSF">1</parameter><parameter name="MXY">0.264726042747498</parameter><parameter name="MNY">0.0319287851452827</parameter><parameter name="DAT">30/05/2022</parameter><parameter name="TIM">11:44:06.881 (GMT+2)</parameter><parameter name="DXU">WN</parameter></Data_Parameters_ScRf><Optic_Parameters_Rf><parameter name="APR">0</parameter><parameter name="APT">Open</parameter><parameter name="BMS">KBr</parameter><parameter name="DTC">RT-DLaTGS_IR-Biotyper [Microplate reader]</parameter><parameter name="HPF">0</parameter><parameter name="LPF">10.0</parameter><parameter name="LPV">4000</parameter><parameter name="PGR">0</parameter><parameter name="RCH">Module port</parameter><parameter name="RDX">0</parameter><parameter name="SRC">MIR</parameter><parameter name="VEL">10.0</parameter><parameter name="SON">Off</parameter></Optic_Parameters_Rf><Acquisition_Parameters_Rf><parameter name="ADT">1</parameter><parameter name="AQM">DD</parameter><parameter name="CFE">0</parameter><parameter name="COR">0</parameter><parameter name="DEL">0</parameter><parameter name="DLY">0</parameter><parameter name="HFW">8000</parameter><parameter name="LFW">0</parameter><parameter name="NSR">32</parameter><parameter name="PLF">AB</parameter><parameter name="RES">6</parameter><parameter name="RGN">-1</parameter><parameter name="STR">0</parameter><parameter name="TCL">MakeCompatibleScalar (0, {WSV=1.000000, ARV=0});</parameter><parameter name="TDL">37</parameter><parameter name="RPO">0</parameter></Acquisition_Parameters_Rf><FT_-_Parameters_Rf><parameter name="APF">B3</parameter><parameter name="HFQ">500</parameter><parameter name="LFQ">4000</parameter><parameter name="NLI">0</parameter><parameter name="PHR">24</parameter><parameter name="PHZ">ML</parameter><parameter name="SPZ">NO</parameter><parameter name="ZFF">1</parameter></FT_-_Parameters_Rf><Optic_Parameters_><parameter name="APR">0</parameter><parameter name="APT">Open</parameter><parameter name="BMS">KBr</parameter><parameter name="CHN">Module port</parameter><parameter name="DTC">RT-DLaTGS_IR-Biotyper [Microplate reader]</parameter><parameter name="HPF">0</parameter><parameter name="LPF">10.0</parameter><parameter name="LPV">4000</parameter><parameter name="PGN">0</parameter><parameter name="RDX">0</parameter><parameter name="SRC">MIR</parameter><parameter name="VEL">10.0</parameter><parameter name="SON">Off</parameter></Optic_Parameters_><FT_-_Parameters_><parameter name="APF">B3</parameter><parameter name="HFQ">500</parameter><parameter name="LFQ">4000</parameter><parameter name="NLI">0</parameter><parameter name="PHR">24</parameter><parameter name="PHZ">ML</parameter><parameter name="SPZ">NO</parameter><parameter name="ZFF">1</parameter></FT_-_Parameters_><Acquisition_Parameters_><parameter name="ADT">1</parameter><parameter name="AQM">DD</parameter><parameter name="CFE">0</parameter><parameter name="COR">0</parameter><parameter name="DEL">0</parameter><parameter name="DLY">0</parameter><parameter name="HFW">8000</parameter><parameter name="LFW">0</parameter><parameter name="NSS">32</parameter><parameter name="PLF">AB</parameter><parameter name="RES">6</parameter><parameter name="SOT">0</parameter><parameter name="TCL">MakeCompatibleScalar (0, {WSV=1.000000, ARV=0});</parameter><parameter name="TDL">37</parameter><parameter name="SPO">0</parameter><parameter name="SGN">-1</parameter></Acquisition_Parameters_><Instrument_Parameters_Rf><parameter name="HFL">15800.168544</parameter><parameter name="LFL">0</parameter><parameter name="LWN">15800.168544</parameter><parameter name="ABP">32197</parameter><parameter name="SSP">1</parameter><parameter name="ARG">2</parameter><parameter name="ASG">2</parameter><parameter name="ASS">32</parameter><parameter name="GFW">16</parameter><parameter name="GBW">16</parameter><parameter name="BFW">0</parameter><parameter name="BBW">0</parameter><parameter name="PKA">7301</parameter><parameter name="PKL">4996</parameter><parameter name="PRA">7464</parameter><parameter name="PRL">5001</parameter><parameter name="P2A">1</parameter><parameter name="P2L">1</parameter><parameter name="P2R">1</parameter><parameter name="P2K">1</parameter><parameter name="DAQ">0</parameter><parameter name="AG2">1</parameter><parameter name="SSM">1</parameter><parameter name="RSN">25244</parameter><parameter name="CRR">0</parameter><parameter name="SRT">1653911046.881</parameter><parameter name="DUR">19.6379852294922</parameter><parameter name="TSC">28.1</parameter><parameter name="MVD">0.728101134300232</parameter><parameter name="AN1">0.22582130635442</parameter><parameter name="AN2">0</parameter><parameter name="VSN">2.485 Apr  4 2017</parameter><parameter name="SRN">0085</parameter><parameter name="CAM">0</parameter><parameter name="INS">IR-Biotyper</parameter><parameter name="FOC">69</parameter><parameter name="RDY">1</parameter><parameter name="ARS">32</parameter></Instrument_Parameters_Rf><Sample_Parameters_><parameter name="BLD"></parameter><parameter name="CNM">Admin</parameter><parameter name="CPY"></parameter><parameter name="DPM"></parameter><parameter name="EXP">IRBT_v3_32Scans.XPM</parameter><parameter name="LCT"></parameter><parameter name="SFM">Microplate, HTS-XT</parameter><parameter name="SNM">220530-1021_CLA33F (D_9)_E6_cdb94be3-ecdb-4836-b5cf-1cdf2ad0b99a.0</parameter><parameter name="XPP">C:\Users\Public\Documents\Bruker\OPUS_8.2.28\XPM</parameter><parameter name="IST">OK</parameter><parameter name="CPG">1252</parameter><parameter name="UID">76199d0c-8f79-42d5-ac3b-b0cccd0aa99b</parameter></Sample_Parameters_><Instrument_Parameters_><parameter name="HFL">15800.168544</parameter><parameter name="LFL">0</parameter><parameter name="LWN">15800.168544</parameter><parameter name="ABP">32197</parameter><parameter name="SSP">1</parameter><parameter name="ASG">2</parameter><parameter name="ARG">2</parameter><parameter name="ASS">32</parameter><parameter name="GFW">16</parameter><parameter name="GBW">16</parameter><parameter name="BFW">0</parameter><parameter name="BBW">0</parameter><parameter name="PKA">7493</parameter><parameter name="PKL">4988</parameter><parameter name="PRA">7726</parameter><parameter name="PRL">4993</parameter><parameter name="P2A">1</parameter><parameter name="P2L">1</parameter><parameter name="P2R">1</parameter><parameter name="P2K">1</parameter><parameter name="DAQ">0</parameter><parameter name="AG2">1</parameter><parameter name="SSM">1</parameter><parameter name="RSN">13248</parameter><parameter name="CRR">0</parameter><parameter name="SRT">1653911073.964</parameter><parameter name="DUR">19.6369934082031</parameter><parameter name="TSC">28.1</parameter><parameter name="MVD">0.308528780937195</parameter><parameter name="AN1">0.225804085993777</parameter><parameter name="AN2">0</parameter><parameter name="VSN">2.485 Apr  4 2017</parameter><parameter name="SRN">0085</parameter><parameter name="CAM">0</parameter><parameter name="INS">IR-Biotyper</parameter><parameter name="FOC">69</parameter><parameter name="RDY">1</parameter></Instrument_Parameters_><History/></OPUSDataFile>
