<?xml version="1.0" encoding="UTF-8" ?>
<OPUSDataFile><AB><Ydata ylabel="Absorbance Units"><values byteorder="INTEL" format="FLOAT32" numvalues="3497"> 0.05085662 0.05077915 0.05069956 0.05061692 0.0505451 0.0504848 0.05044758 0.05043274 0.0504353 0.05045264
 0.05046671 0.05047675 0.05046965 0.05044851 0.05041439 0.05036942 0.05031833 0.05025975 0.05019279 0.05011968
 0.05003956 0.0499621 0.04989327 0.04983526 0.04979329 0.04975268 0.04971071 0.0496565 0.0495855 0.04951191
 0.0494362 0.04937821 0.04933903 0.04931083 0.04929166 0.04925269 0.04919427 0.04910249 0.04898244 0.04884499
 0.048694 0.04854417 0.04839632 0.04825765 0.04812939 0.04801641 0.04791674 0.04783266 0.04775441 0.04767675
 0.04759518 0.0475033 0.04741634 0.04733675 0.0472776 0.04724474 0.04721801 0.04719732 0.04714642 0.04706326
 0.04694186 0.04678474 0.04662567 0.04646669 0.04633985 0.04623892 0.04615958 0.04609271 0.04601372 0.04591938
 0.04579192 0.04563605 0.04544646 0.04524038 0.04502426 0.04482909 0.04467312 0.04457666 0.04455874 0.04459483
 0.04468946 0.04478049 0.04486012 0.04487333 0.04481298 0.04465711 0.04440399 0.04407101 0.04366333 0.04325112
 0.04284717 0.04256964 0.04241829 0.0424721 0.04268521 0.04299289 0.04334046 0.04359581 0.04376327 0.04378556
 0.0437151 0.04357096 0.04340941 0.04326924 0.04317274 0.04314368 0.04315761 0.04321617 0.04327767 0.04333492
 0.04336458 0.0433623 0.04333338 0.04327784 0.04321314 0.0431388 0.04305208 0.04294952 0.04280496 0.04262158
 0.04239129 0.04213246 0.04188498 0.041665 0.04152654 0.04145136 0.04144238 0.04147078 0.04150508 0.04155769
 0.04163039 0.04172441 0.04186029 0.04194821 0.04197549 0.04183816 0.04150385 0.04100471 0.04032513 0.03970903
 0.0391687 0.03906026 0.03937578 0.04006864 0.0410731 0.04191468 0.04260482 0.0429301 0.04295561 0.04273719
 0.04232126 0.04180002 0.04122872 0.04069556 0.04027181 0.04005478 0.04004761 0.04031263 0.04070388 0.04119123
 0.04161233 0.0419035 0.04205801 0.04205681 0.04198234 0.04184286 0.04167549 0.04148318 0.04125721 0.04099919
 0.04072997 0.04045753 0.04024599 0.04009865 0.04006613 0.04013761 0.04031587 0.0405791 0.04089945 0.04123838
 0.04154379 0.04177592 0.04187601 0.04185322 0.04168315 0.04143336 0.04111889 0.04081411 0.04054503 0.04033539
 0.04019597 0.04011118 0.04007881 0.04010809 0.04019932 0.04037496 0.04063316 0.04094701 0.04130932 0.04165915
 0.0419924 0.04226138 0.04246591 0.04257897 0.04260879 0.04255114 0.04243117 0.04227275 0.04210902 0.0419759
 0.04189172 0.04188031 0.04193498 0.04206421 0.0422344 0.04244597 0.04263207 0.04278316 0.04283779 0.04278429
 0.04263482 0.04238842 0.04212864 0.04186015 0.04167067 0.0415564 0.04153977 0.04160357 0.04169225 0.04179369
 0.04184341 0.04185211 0.0418071 0.04172751 0.0416387 0.04153291 0.04142185 0.04126353 0.04103182 0.04071574
 0.04028542 0.03982557 0.03934196 0.038962 0.03871751 0.03862688 0.03870129 0.03886393 0.03910955 0.03945104
 0.03988828 0.04043674 0.04107432 0.04164886 0.04214619 0.04241153 0.04248504 0.0423806 0.04216808 0.04198399
 0.04185741 0.04190515 0.04205121 0.04227548 0.04249359 0.04263354 0.04270787 0.04269394 0.04266302 0.04262767
 0.04265431 0.0427623 0.04295253 0.04323367 0.04352104 0.04381043 0.04399978 0.04408709 0.04403274 0.04384885
 0.04359067 0.04328887 0.04309738 0.04303395 0.0432529 0.04368239 0.04427704 0.04493576 0.04548751 0.04594887
 0.04625742 0.04650947 0.04674886 0.04703313 0.04741316 0.04784156 0.04832424 0.04876676 0.04914699 0.04944185
 0.04963706 0.04983279 0.05003268 0.05041625 0.05098658 0.0518112 0.05285539 0.0538965 0.0549055 0.05562415
 0.0560965 0.05630517 0.05630859 0.0562028 0.05603093 0.05587415 0.05578957 0.05585264 0.05610039 0.0565983
 0.05727601 0.05812876 0.05905778 0.06002206 0.06102881 0.06207527 0.06316417 0.06430261 0.06540556 0.06646761
 0.06743411 0.06830579 0.06910868 0.0698458 0.07055219 0.07122483 0.07186956 0.07248202 0.07305287 0.0735811
 0.07405129 0.07448941 0.07489875 0.07537235 0.07598598 0.07682938 0.07802896 0.07944333 0.08107749 0.08266223
 0.08409557 0.08534619 0.08637635 0.08731121 0.08816253 0.08900776 0.0898544 0.09069172 0.09151768 0.09228092
 0.09298567 0.09362542 0.09423406 0.09494213 0.09579691 0.0970345 0.09858055 0.100457 0.1024478 0.1042458
 0.1058078 0.1069375 0.1078191 0.1085001 0.109168 0.1099318 0.1108232 0.1118952 0.113021 0.1141843
 0.1152883 0.1163095 0.1173034 0.1182703 0.1193373 0.120507 0.1218179 0.1232535 0.1247007 0.1261459
 0.1274613 0.1286645 0.129736 0.1307045 0.131615 0.1324864 0.1333612 0.1342488 0.1351776 0.1361328
 0.1371177 0.1381013 0.1390572 0.140023 0.1409863 0.1420763 0.1433243 0.1447652 0.1464276 0.1480881
 0.1497352 0.1511234 0.1522505 0.1531357 0.1538009 0.1544309 0.1550328 0.1557436 0.1565378 0.1574201
 0.1583506 0.1592485 0.1601077 0.1608678 0.1615924 0.1623049 0.163103 0.1640726 0.1652108 0.166571
 0.1679877 0.1694276 0.1707454 0.1718945 0.1728799 0.1736907 0.174411 0.175045 0.1756807 0.1763217
 0.1770271 0.1777945 0.178631 0.1795308 0.1804688 0.1814484 0.1824672 0.183528 0.1846472 0.1857935
 0.186941 0.1880362 0.1890118 0.1898617 0.1905481 0.1911309 0.1916251 0.1920869 0.1925423 0.1929906
 0.1934373 0.1938629 0.1942609 0.1946659 0.1950783 0.1955803 0.1961747 0.1968998 0.1977452 0.1986454
 0.1995844 0.2004508 0.2012489 0.2019266 0.2025127 0.2030382 0.2035286 0.2040383 0.2045607 0.2051154
 0.2056701 0.2062067 0.2067114 0.2071626 0.2076019 0.2080305 0.2085173 0.2090793 0.2097427 0.2105187
 0.2113603 0.2122667 0.213155 0.2140217 0.2148102 0.215523 0.2161578 0.2167198 0.2172324 0.2176963
 0.218123 0.2185162 0.2188826 0.2192409 0.2196175 0.220031 0.2205129 0.2210568 0.2216699 0.2223344
 0.2230432 0.2237885 0.2245722 0.2253629 0.2261621 0.2268957 0.2275517 0.2281033 0.228543 0.2289742
 0.2294035 0.2299764 0.2306859 0.2315437 0.2325153 0.2334468 0.234315 0.2349568 0.2354066 0.2356409
 0.2357369 0.2357952 0.2358607 0.2360283 0.2362632 0.236577 0.2369091 0.2372264 0.2375233 0.237785
 0.2380474 0.238317 0.2386097 0.2389294 0.239273 0.2396399 0.240038 0.2404674 0.2409333 0.2414348
 0.2419655 0.242529 0.243139 0.2437991 0.2445357 0.2453286 0.2461575 0.2469824 0.2477349 0.2484002
 0.2489302 0.2493541 0.249675 0.249926 0.2501263 0.2502818 0.2503964 0.2504779 0.2505227 0.2505731
 0.2506323 0.2507508 0.2509339 0.2511906 0.2515204 0.2518921 0.252305 0.252737 0.2531913 0.2536743
 0.2541822 0.254712 0.2552469 0.2557495 0.2562123 0.2565984 0.2569368 0.2572353 0.2575435 0.2579046
 0.258325 0.2588355 0.2593606 0.2598901 0.2603292 0.2606469 0.2608439 0.2609065 0.260946 0.2609701
 0.2610675 0.2612394 0.2614368 0.2616508 0.2617685 0.2617993 0.2617208 0.2615653 0.2614214 0.2613086
 0.2613186 0.2614324 0.2616691 0.261984 0.2623417 0.2627033 0.2630255 0.2633086 0.2635309 0.2637466
 0.263965 0.2642465 0.2646148 0.2650502 0.2655626 0.2660395 0.2664732 0.266764 0.2669086 0.2669231
 0.2668173 0.2666952 0.2665599 0.2664849 0.2664563 0.2664659 0.2665084 0.2665609 0.2666441 0.2667811
 0.2669797 0.2672719 0.2676085 0.2679735 0.2682988 0.2685376 0.2686908 0.2687353 0.2687504 0.2687476
 0.2687963 0.2689133 0.2690879 0.2693235 0.2695493 0.2697619 0.2698922 0.2699411 0.2698863 0.2697381
 0.2695329 0.2692874 0.2690739 0.2689005 0.2688268 0.2688325 0.2689238 0.2690498 0.2691644 0.2692203
 0.2691605 0.268996 0.2687019 0.2683604 0.267987 0.2676725 0.2674434 0.26733 0.2673434 0.2674606
 0.2676807 0.267984 0.2683696 0.2688318 0.2693659 0.2699294 0.270506 0.2709906 0.2713698 0.2715352
 0.2715095 0.2712712 0.2708918 0.2704596 0.270053 0.2697969 0.2696993 0.2698286 0.2700857 0.2704568
 0.2707951 0.2710474 0.2711269 0.2709924 0.2706805 0.2701809 0.2696218 0.2690119 0.2684684 0.2679962
 0.2676212 0.267338 0.2670986 0.2669004 0.2667027 0.2665156 0.2663505 0.2662173 0.266151 0.2661357
 0.2661753 0.2662168 0.266214 0.2661047 0.2658224 0.2653586 0.2646735 0.2638488 0.2628904 0.2619236
 0.260977 0.2601337 0.2594136 0.2588255 0.2583739 0.2580186 0.2577571 0.2575234 0.2573138 0.257062
 0.256772 0.256426 0.2560397 0.2556571 0.2552842 0.2549642 0.2546719 0.2543921 0.2540899 0.2537147
 0.2532684 0.2527221 0.2521349 0.2515182 0.2509589 0.2504911 0.2501604 0.2499963 0.24994 0.2499975
 0.2500239 0.2500074 0.2498366 0.2495067 0.2490394 0.2484442 0.2478368 0.2472219 0.2466891 0.2462271
 0.2458462 0.2455322 0.2452574 0.2450173 0.2447928 0.2445839 0.2443855 0.2441935 0.244005 0.2438113
 0.2436073 0.2433879 0.2431487 0.2428961 0.2426299 0.242362 0.2420953 0.2418295 0.2415656 0.2412885
 0.2409977 0.2406825 0.2403439 0.239988 0.2396165 0.2392424 0.238867 0.2385007 0.238145 0.2378094
 0.2374932 0.2372022 0.2369268 0.2366619 0.2363898 0.2360957 0.2357696 0.2353985 0.2349949 0.234556
 0.2341125 0.2336702 0.2332564 0.2328773 0.2325382 0.2322415 0.2319692 0.2317204 0.2314656 0.2312034
 0.2309093 0.2305849 0.2302249 0.229835 0.229431 0.2290194 0.2286233 0.2282447 0.2278978 0.2275776
 0.227285 0.227012 0.2267516 0.2265032 0.2262608 0.2260415 0.2258487 0.2257013 0.2256104 0.2255523
 0.2255317 0.225469 0.2253579 0.225126 0.2247696 0.2243015 0.2237292 0.2231473 0.2225641 0.2220784
 0.2216837 0.2214168 0.2212513 0.2211506 0.2210789 0.2209608 0.2207815 0.2204834 0.2201031 0.2196396
 0.2191609 0.2187065 0.2183047 0.2179844 0.2177069 0.2174684 0.2172327 0.2169869 0.2167672 0.2165732
 0.2164793 0.2164892 0.2166152 0.2168496 0.2171018 0.2173587 0.2174923 0.2175065 0.2173376 0.2170191
 0.2165911 0.2160955 0.2156232 0.2151832 0.21483 0.2145301 0.2142751 0.2140353 0.2137837 0.2135379
 0.2132951 0.2130878 0.2129297 0.212805 0.2127171 0.2126166 0.2124971 0.2123533 0.2121845 0.2120475
 0.2119443 0.2119185 0.2119628 0.2120551 0.2121855 0.2123034 0.2124119 0.2124906 0.2125528 0.2126132
 0.212677 0.2127617 0.2128508 0.2129437 0.2130036 0.2130119 0.2129384 0.2127595 0.2124974 0.2121418
 0.2117805 0.2114226 0.2111593 0.211004 0.2109622 0.211035 0.2111277 0.211234 0.2112434 0.2111605
 0.2109506 0.2106345 0.2102659 0.2098659 0.2095142 0.2092121 0.2090024 0.208864 0.208792 0.2087585
 0.2087391 0.208719 0.2086791 0.2086299 0.2085658 0.2085216 0.2085038 0.2085438 0.2086525 0.2088105
 0.209021 0.2092081 0.2093676 0.2094432 0.2094389 0.2093964 0.2093285 0.2093401 0.2094291 0.2096498
 0.2099788 0.2103823 0.2108523 0.211347 0.2119044 0.2125435 0.2133238 0.2142993 0.2155058 0.2169795
 0.2187262 0.2207558 0.2230671 0.2256637 0.2285332 0.2316812 0.235046 0.2386294 0.2422869 0.2460112
 0.2495795 0.2529776 0.255962 0.258525 0.2604915 0.2618747 0.2626224 0.2627684 0.2623611 0.2614445
 0.2601043 0.258396 0.2564031 0.2542024 0.251867 0.2494939 0.2471453 0.244917 0.242856 0.2410271
 0.2394581 0.2381657 0.2371583 0.236424 0.2359609 0.2357784 0.2358769 0.2363083 0.237075 0.2382232
 0.2397444 0.241613 0.2438068 0.246231 0.2488661 0.2516136 0.2544729 0.2573949 0.2603963 0.2634756
 0.2666562 0.2699561 0.2733928 0.2769846 0.280726 0.2846288 0.2886427 0.2927694 0.2969038 0.3010374
 0.3050317 0.3088738 0.3124412 0.3157257 0.3186646 0.3212579 0.3235026 0.3254023 0.326976 0.3282296
 0.3291861 0.3298713 0.3303435 0.3306662 0.3309622 0.3313107 0.3318577 0.3326374 0.3337401 0.3351249
 0.3368014 0.3386976 0.3407869 0.3430251 0.3453955 0.347878 0.3504705 0.3531387 0.3558814 0.3586438
 0.3614229 0.3641547 0.3668346 0.3693839 0.3717951 0.373978 0.3759305 0.3775917 0.3789734 0.3800745
 0.3809072 0.3815013 0.3818382 0.3819219 0.3816908 0.3811034 0.3800887 0.3785872 0.3765877 0.3740512
 0.3710755 0.3676579 0.3639891 0.3600905 0.3561726 0.3522588 0.3485012 0.3449112 0.3415436 0.3383968
 0.3354444 0.3326803 0.330051 0.3275541 0.3251542 0.3228483 0.320617 0.3184461 0.3163048 0.3141742
 0.3120142 0.3098288 0.3075982 0.3053623 0.3031322 0.3009625 0.2988747 0.2969133 0.2950915 0.2934485
 0.2919891 0.2907647 0.2897783 0.2891024 0.2887414 0.2887718 0.2891939 0.2900255 0.2912469 0.2927428
 0.2944722 0.2962086 0.2979316 0.2994529 0.3008274 0.3020416 0.3032197 0.3045018 0.3060006 0.3078727
 0.3101343 0.3128632 0.3159543 0.3194079 0.3230332 0.3267975 0.3304741 0.3340306 0.3372351 0.3400661
 0.34229 0.3438924 0.3446312 0.3444944 0.3432577 0.3409244 0.3373848 0.3326918 0.3269652 0.320326
 0.3131243 0.3055095 0.2979038 0.2904072 0.2833229 0.2766553 0.2705216 0.264854 0.2596507 0.2548276
 0.2503527 0.2461607 0.2422285 0.238515 0.2350089 0.2316913 0.2285586 0.2256043 0.2228277 0.2202152
 0.2177652 0.2154492 0.2132649 0.2111819 0.2092001 0.2073019 0.2054899 0.2037624 0.2021223 0.2005761
 0.1991198 0.1977555 0.1964663 0.195241 0.1940574 0.1928973 0.1917538 0.1906148 0.1895013 0.1884137
 0.1873854 0.1864238 0.1855407 0.1847411 0.1839946 0.1833004 0.1826066 0.1819119 0.1811937 0.180457
 0.179729 0.1790139 0.1783486 0.1777224 0.1771295 0.1765501 0.1759417 0.1753 0.1745948 0.1738496
 0.17307 0.1722918 0.1715381 0.1708332 0.1701959 0.1696245 0.1691275 0.1686725 0.168258 0.1678361
 0.1674002 0.1669276 0.1664153 0.1658925 0.1653615 0.1648714 0.1644208 0.1640242 0.1636735 0.1633415
 0.1630253 0.1627 0.162375 0.1620557 0.1617518 0.1614811 0.1612411 0.1610373 0.1608619 0.1607102
 0.160582 0.1604768 0.1603929 0.1603341 0.1602766 0.1602193 0.1601246 0.1599866 0.159794 0.1595445
 0.1592728 0.1589815 0.1587217 0.1584935 0.1583218 0.1582013 0.1581233 0.1580812 0.1580529 0.1580344
 0.1580079 0.1579741 0.1579257 0.1578675 0.1578021 0.1577305 0.1576577 0.1575704 0.1574665 0.1573252
 0.1571381 0.1569017 0.1566101 0.1562903 0.1559433 0.1556084 0.1552886 0.1550045 0.154756 0.1545325
 0.1543314 0.154128 0.1539226 0.1537023 0.153472 0.1532389 0.1530074 0.1527904 0.1525873 0.152403
 0.1522347 0.1520814 0.1519423 0.1518168 0.1517048 0.1516067 0.1515211 0.1514474 0.1513863 0.1513375
 0.1513044 0.1512879 0.151287 0.151302 0.1513267 0.1513609 0.1514028 0.1514533 0.1515205 0.1516046
 0.1517127 0.1518394 0.1519757 0.1521112 0.1522216 0.1522996 0.1523229 0.1522958 0.1522118 0.1520858
 0.1519244 0.1517422 0.1515476 0.1513476 0.1511462 0.1509456 0.1507468 0.1505501 0.150356 0.1501606
 0.1499637 0.1497583 0.1495443 0.1493185 0.1490816 0.1488384 0.1485899 0.1483436 0.1480997 0.1478625
 0.1476321 0.1474103 0.1471976 0.146995 0.1468036 0.1466248 0.1464592 0.1463081 0.1461705 0.1460471
 0.145934 0.1458305 0.1457311 0.1456346 0.1455369 0.1454373 0.1453334 0.1452249 0.1451087 0.1449846
 0.1448497 0.1447045 0.1445505 0.1443882 0.1442213 0.1440484 0.1438682 0.1436784 0.1434728 0.1432527
 0.1430151 0.1427673 0.1425139 0.1422641 0.1420253 0.1418013 0.1415967 0.141407 0.1412321 0.1410656
 0.1409055 0.1407502 0.140599 0.1404548 0.1403179 0.1401878 0.1400643 0.1399406 0.1398166 0.1396874
 0.1395542 0.1394196 0.1392843 0.1391523 0.1390215 0.1388896 0.1387549 0.1386126 0.1384655 0.138314
 0.1381624 0.1380149 0.1378701 0.1377297 0.1375874 0.1374405 0.13729 0.1371338 0.1369852 0.1368455
 0.1367278 0.1366335 0.1365578 0.1365 0.1364394 0.1363755 0.1362921 0.1361911 0.1360724 0.1359388
 0.1357986 0.1356529 0.1355077 0.1353636 0.1352235 0.1350895 0.1349643 0.1348497 0.1347486 0.1346588
 0.1345811 0.1345083 0.1344387 0.1343641 0.1342819 0.1341911 0.1340906 0.133989 0.1338869 0.133793
 0.1337077 0.1336299 0.1335592 0.1334893 0.1334208 0.1333534 0.1332884 0.1332307 0.1331794 0.1331357
 0.1330964 0.1330568 0.1330164 0.1329718 0.1329261 0.1328808 0.1328366 0.1327958 0.132752 0.1327042
 0.1326448 0.1325708 0.1324852 0.1323869 0.1322903 0.1321965 0.132118 0.1320551 0.1320041 0.1319632
 0.1319144 0.1318566 0.1317742 0.1316697 0.1315422 0.1313961 0.1312412 0.131079 0.1309168 0.1307521
 0.1305846 0.1304125 0.1302335 0.1300512 0.129866 0.1296836 0.1295066 0.1293362 0.1291737 0.1290156
 0.1288618 0.1287087 0.1285558 0.1284017 0.1282462 0.1280891 0.1279304 0.1277692 0.1276056 0.1274385
 0.1272685 0.1270962 0.1269229 0.1267518 0.1265839 0.1264223 0.1262659 0.1261153 0.1259682 0.1258234
 0.1256792 0.125535 0.1253885 0.1252391 0.1250831 0.1249193 0.124746 0.1245622 0.1243724 0.1241766
 0.1239839 0.1237949 0.1236177 0.1234521 0.1233002 0.1231602 0.1230259 0.1228951 0.1227576 0.1226133
 0.1224562 0.1222894 0.1221143 0.1219346 0.1217544 0.1215765 0.1214037 0.1212385 0.1210829 0.1209374
 0.1208035 0.1206753 0.1205528 0.1204263 0.1202942 0.1201532 0.1200025 0.1198489 0.1196927 0.1195417
 0.1193952 0.1192514 0.119109 0.1189594 0.1188036 0.1186391 0.1184705 0.1183063 0.1181496 0.1180106
 0.1178851 0.1177742 0.1176683 0.1175608 0.1174461 0.1173178 0.117181 0.1170346 0.1168898 0.1167492
 0.1166198 0.1165041 0.1163978 0.1163013 0.1162031 0.1161025 0.1159918 0.1158714 0.1157436 0.1156096
 0.1154772 0.1153467 0.1152238 0.1151069 0.1149959 0.1148875 0.1147764 0.1146608 0.1145356 0.114405
 0.1142695 0.1141373 0.1140139 0.1139001 0.1137991 0.1137008 0.1136036 0.1134987 0.113384 0.1132616
 0.1131314 0.1129988 0.112864 0.1127241 0.1125782 0.1124156 0.1122351 0.1120247 0.1117832 0.1115007
 0.111176 0.1108017 0.1103777 0.1099007 0.1093714 0.1087894 0.1081544 0.1074668 0.1067235 0.1059241
 0.1050634 0.1041401 0.1031494 0.1020899 0.1009585 0.09975254 0.09848574 0.09715579 0.09582677 0.09450283
 0.09331883 0.09228319 0.09153829 0.09107995 0.09095993 0.09116741 0.09169138 0.0925309 0.09370761 0.09514851
 0.09679165 0.09846109 0.09993884 0.1011292 0.1018682 0.1022105 0.1021264 0.101739 0.1010684 0.1002743
 0.09938197 0.09858431 0.09791482 0.09748764 0.09732465 0.0973411 0.09753275 0.09775222 0.09799801 0.09820822
 0.09839027 0.09855113 0.09869929 0.09886836 0.09905819 0.09928951 0.09954692 0.09981435 0.1000822 0.1003272
 0.100567 0.1008056 0.1010643 0.1013615 0.1016839 0.102036 0.1023789 0.1027037 0.1029867 0.1032209
 0.1034127 0.1035612 0.1036869 0.1037907 0.1038878 0.1039777 0.104061 0.1041367 0.1041983 0.1042457
 0.1042757 0.1042885 0.1042833 0.1042595 0.1042148 0.1041521 0.1040713 0.1039824 0.1038922 0.1038109
 0.1037475 0.1036994 0.10367 0.1036451 0.1036221 0.1035891 0.1035432 0.1034833 0.1034089 0.1033243
 0.1032299 0.1031264 0.1030139 0.1028897 0.1027545 0.1026108 0.1024616 0.1023178 0.1021818 0.1020652
 0.1019659 0.1018862 0.1018213 0.1017668 0.1017191 0.1016747 0.1016312 0.1015869 0.1015386 0.1014845
 0.1014244 0.101357 0.101289 0.101221 0.10116 0.1011071 0.1010619 0.1010245 0.1009879 0.1009518
 0.10091 0.1008624 0.1008067 0.1007434 0.1006731 0.1005975 0.1005198 0.1004422 0.1003699 0.100305
 0.1002522 0.1002118 0.1001861 0.1001717 0.1001685 0.1001696 0.1001733 0.1001717 0.1001625 0.1001402
 0.1001029 0.1000513 0.0999848 0.09991162 0.09983221 0.09975748 0.09968758 0.09962762 0.09957701 0.09953457
 0.09950022 0.09947304 0.09945334 0.09944231 0.09943801 0.09943888 0.0994404 0.09943675 0.09942505 0.09940009
 0.09936436 0.09931681 0.09926397 0.09920747 0.09915429 0.09910646 0.09906826 0.09904104 0.09902428 0.09901839
 0.09901758 0.0990215 0.09902317 0.09902259 0.09901805 0.09901072 0.09900671 0.09900717 0.09902041 0.09904479
 0.09908189 0.09912661 0.09917168 0.09921217 0.09923863 0.09925157 0.09924682 0.09923107 0.09920623 0.09917972
 0.09915508 0.09913513 0.09912159 0.09911317 0.09910977 0.099111 0.09911668 0.09912862 0.09914692 0.09917232
 0.09920454 0.09924006 0.09927825 0.09931335 0.09934504 0.09936882 0.09938528 0.09939318 0.09939422 0.09939022
 0.09938365 0.09937797 0.09937522 0.09937831 0.09938759 0.09940452 0.09942698 0.09945516 0.09948448 0.09951434
 0.09953864 0.09955653 0.09956203 0.09955437 0.09953073 0.0994909 0.09943756 0.09937127 0.0993004 0.09922577
 0.09915698 0.09909371 0.09904049 0.0989954 0.09895613 0.09892102 0.09888588 0.09885094 0.09881433 0.09877834
 0.09874347 0.09871393 0.09869177 0.09868132 0.09868551 0.09870305 0.0987355 0.09877358 0.09881633 0.09885442
 0.09888636 0.09891208 0.09893144 0.09895081 0.09897037 0.09899379 0.09902072 0.09905052 0.09908316 0.0991182
 0.09915585 0.09919665 0.09924009 0.09928566 0.0993325 0.09937903 0.09942567 0.09947179 0.09951929 0.09956932
 0.09962225 0.09967931 0.09973685 0.09979448 0.0998475 0.09989462 0.09993609 0.09997146 0.1000061 0.1000405
 0.1000777 0.1001176 0.1001582 0.1001994 0.1002391 0.1002783 0.1003194 0.1003629 0.1004119 0.1004658
 0.1005246 0.1005881 0.1006555 0.1007281 0.1008069 0.1008915 0.100983 0.1010767 0.1011714 0.1012621
 0.1013465 0.1014256 0.1014988 0.1015716 0.1016449 0.1017217 0.1018022 0.1018846 0.1019687 0.1020533
 0.1021386 0.1022263 0.1023164 0.1024097 0.1025048 0.1025992 0.1026916 0.1027788 0.1028612 0.1029377
 0.1030098 0.1030781 0.1031444 0.1032101 0.103276 0.1033429 0.1034096 0.1034757 0.1035413 0.1036056
 0.1036746 0.1037485 0.1038353 0.1039356 0.1040488 0.1041743 0.1043018 0.1044309 0.1045516 0.1046646
 0.1047667 0.104858 0.1049381 0.1050063 0.1050611 0.1051031 0.1051321 0.1051509 0.1051617 0.1051656
 0.1051647 0.1051564 0.10514 0.105114 0.1050771 0.1050337 0.1049839 0.1049356 0.1048899 0.1048516
 0.1048213 0.1048012 0.1047914 0.1047952 0.1048124 0.1048433 0.1048856 0.1049309 0.1049763 0.1050088
 0.1050295 0.105033 0.1050256 0.1050128 0.1050002 0.1049952 0.1049981 0.1050111 0.1050323 0.1050608
 0.1050984 0.1051452 0.1052047 0.1052784 0.1053631 0.1054591 0.1055567 0.1056551 0.1057465 0.1058307
 0.1059059 0.1059721 0.1060295 0.1060785 0.1061205 0.1061568 0.1061924 0.1062279 0.1062681 0.1063099
 0.1063519 0.1063894 0.1064164 0.106435 0.1064421 0.1064496 0.1064607 0.1064881 0.1065373 0.1066104
 0.1067103 0.106826 0.1069572 0.1070877 0.1072164 0.1073317 0.1074334 0.1075195 0.1075913 0.1076566
 0.1077173 0.1077853 0.1078597 0.1079455 0.1080372 0.1081269 0.1082096 0.1082734 0.1083233 0.108357
 0.1083885 0.1084263 0.1084763 0.1085466 0.108623 0.1087046 0.1087727 0.1088222 0.1088515 0.1088589
 0.1088583 0.1088506 0.1088452 0.1088417 0.1088325 0.1088161 0.1087782 0.10872 0.1086386 0.1085392
 0.1084334 0.1083271 0.1082365 0.1081646 0.1081236 0.1081088 0.1081246 0.1081526 0.1081857 0.1082005
 0.1081831 0.1081315 0.108038 0.1079288 0.1078064 0.1076977 0.1076075 0.1075373 0.1074879 0.1074436
 0.1074037 0.1073595 0.1073117 0.107263 0.107214 0.107169 0.1071272 0.1070884 0.1070506 0.1070094
 0.1069648 0.1069134 0.1068617 0.1068134 0.1067766 0.1067597 0.1067585 0.1067756 0.1067948 0.1068115
 0.1068164 0.1068053 0.1067844 0.1067537 0.1067218 0.1066897 0.106655 0.1066172 0.106561 0.1064854
 0.1063746 0.106232 0.1060606 0.1058718 0.1056972 0.1055472 0.1054618 0.1054295 0.1054578 0.1055159
 0.1055764 0.1056246 0.1056384 0.1056309 0.1056011 0.1055679 0.1055377 0.1055162 0.1055066 0.1055031
 0.1055059 0.1055057 0.1055022 0.1054835 0.1054494 0.1053939 0.1053206 0.1052507 0.1051922 0.1051949
 0.1052572 0.1054085 0.105624 0.1058708 0.1061267 0.1063424 0.1065248 0.1066605 0.1067678 0.1068549
 0.1069325 0.1070055 0.1070865 0.1071772 0.1073004 0.1074614 0.1076725 0.1079382 0.1082405 0.1085791
 0.1089233 0.1092719 0.1096061 0.1099262 0.1102275 0.110512 0.110786 0.1110524 0.1113224 0.1115976
 0.1118853 0.1121876 0.1125098 0.1128541 0.1132284 0.1136202 0.1140282 0.1144266 0.1147994 0.1151483
 0.1154625 0.1157891 0.1161353 0.1165389 0.1170104 0.1175195 0.1180654 0.1185948 0.1191074 0.1196214
 0.1201451 0.120761 0.1214653 0.1222951 0.1232199 0.1241682 0.1251222 0.1259997 0.126831 0.1276172
 0.1284056 0.1292467 0.1301532 0.1311591 0.1322237 0.1333379 0.1344644 0.1355757 0.1367203 0.1378855
 0.1392315 0.1407699 0.1426911 0.1450143 0.1477499 0.1508925 0.1542463 0.1578153 0.161532 0.1654498
 0.1697737 0.1745607 0.1801016 0.1863758 0.1935251 0.2013894 0.2098475 0.2186525 0.2275317 0.236311
 0.2447787 0.2529235 0.2606925 0.2681058 0.2752079 0.2817754 0.2878053 0.2928954 0.2969784 0.2999426
 0.3017635 0.3026726 0.3026824 0.3020507 0.3007846 0.2990519 0.2968568 0.2943043 0.2914038 0.2882183
 0.2847993 0.2812535 0.2776879 0.2743073 0.2711456 0.2683342 0.2657885 0.2634916 0.2613686 0.2593758
 0.2574919 0.2557002 0.2540019 0.25239 0.2508952 0.2495139 0.2483364 0.2473702 0.2466712 0.2462369
 0.245916 0.2456943 0.2453693 0.2449553 0.2444136 0.2437665 0.2430626 0.2423112 0.2415524 0.2407924
 0.2400499 0.2393468 0.2386997 0.2381597 0.237762 0.237554 0.2375866 0.2378006 0.2382105 0.2386499
 0.2390856 0.2394104 0.2395995 0.239654 0.2395696 0.2394081 0.2391748 0.2390018 0.2389056 0.2391064
 0.2395938 0.2404737 0.2416468 0.2428528 0.2440462 0.2449707 0.2457243 0.2463372 0.2469065 0.2475485
 0.2482932 0.2491989 0.2502589 0.251486 0.2528602 0.2543904 0.2559982 0.257672 0.2593313 0.260955
 0.2625827 0.2642159 0.2658982 0.2676273 0.2692549 0.2707679 0.2719668 0.2728766 0.2735052 0.2739069
 0.2742669 0.2745849 0.2749797 0.2753498 0.2755767 0.2756442 0.2754575 0.2751374 0.2747518 0.2743453
 0.2739786 0.2735737 0.2731141 0.2725532 0.2718621 0.2711154 0.2703106 0.269594 0.2689789 0.2685378
 0.2682705 0.2680342 0.2678181 0.2674507 0.2669475 0.2662972 0.2655211 0.2646816 0.2637848 0.2628749
 0.2619454 0.2610035 0.2600474 0.25907 0.2580954 0.2571316 0.2562204 0.2553869 0.2546449 0.254014
 0.2534485 0.2529432 0.2524524 0.2519641 0.251498 0.251053 0.2506846 0.2503953 0.2502183 0.250152
 0.2501931 0.2503407 0.2505876 0.2509361 0.2513919 0.2519529 0.2526179 0.2533811 0.2542306 0.2551708
 0.256198 0.2573297 0.2585766 0.2599525 0.2614688 0.2631239 0.2649241 0.2668443 0.2688897 0.2709836
 0.2731246 0.2751794 0.2771373 0.2788925 0.280441 0.2817929 0.2829558 0.2840156 0.2849656 0.2858199
 0.2865571 0.2870964 0.2874674 0.2876763 0.2878032 0.2879831 0.2882347 0.2886572 0.2891507 0.2896737
 0.2901474 0.2904869 0.2907932 0.2910456 0.2915094 0.2922533 0.2933901 0.2950007 0.2966153 0.2982025
 0.2993656 0.3000901 0.3005321 0.3007067 0.3008295 0.3008868 0.3009198 0.3008995 0.3007538 0.3004669
 0.2999715 0.2992598 0.2982964 0.297065 0.2955238 0.2937013 0.2915923 0.2892678 0.2867665 0.2841138
 0.2813197 0.2784231 0.2754218 0.2724184 0.2694263 0.2665259 0.2637283 0.2610247 0.2584148 0.2558687
 0.2533893 0.250999 0.2487038 0.2465529 0.2445377 0.2426627 0.2409003 0.2391948 0.2375193 0.2358054
 0.234048 0.2322124 0.2303145 0.2283526 0.2263502 0.2243084 0.2222826 0.2202768 0.2184031 0.2166973
 0.2151758 0.2138598 0.2126206 0.211447 0.2102775 0.2091096 0.2079976 0.2069457 0.2060248 0.2052272
 0.2045442 0.2039733 0.2034882 0.2031231 0.2029387 0.2029706 0.2033193 0.2039473 0.2048653 0.205994
 0.2072651 0.20867 0.210176 0.2118317 0.213642 0.2156639 0.2178846 0.2204893 0.2234615 0.2273013
 0.2320488 0.2381693 0.2456807 0.2539849 0.2629819 0.2712715 0.2788583 0.2850336 0.2899212 0.2935674
 0.2960671 0.297628 0.2983613 0.2985008 0.2981964 0.2976934 0.2970902 0.296568 0.2960534 0.2955802
 0.2949701 0.2941399 0.2930985 0.2918077 0.2904489 0.2890398 0.2877516 0.2866056 0.2856475 0.2848799
 0.2841989 0.2835972 0.2829541 0.2822753 0.2815295 0.2807304 0.2799096 0.2790711 0.2782456 0.277416
 0.2765688 0.2756884 0.2747383 0.2737548 0.272736 0.2717718 0.2709037 0.2702088 0.269732 0.2694743
 0.269449 0.2696162 0.2699708 0.2704925 0.2711822 0.2719858 0.2728999 0.273752 0.2745323 0.2750602
 0.2753482 0.2753684 0.2751514 0.2747858 0.2742982 0.2737939 0.2732824 0.2728317 0.2724199 0.272058
 0.2716952 0.2713008 0.2708226 0.270223 0.269481 0.2685741 0.2675286 0.2663393 0.2650722 0.263733
 0.2623974 0.2610721 0.2598184 0.2586401 0.2576051 0.2567192 0.2560755 0.2556779 0.2556034 0.2558372
 0.2563782 0.2571865 0.2581819 0.2593011 0.2604229 0.2614604 0.2622748 0.2627995 0.262917 0.2626733
 0.2620297 0.2611627 0.2601184 0.2590644 0.258061 0.2571415 0.2563272 0.2555604 0.2548374 0.2541184
 0.2534011 0.252704 0.2520292 0.251413 0.2508532 0.2503546 0.2499129 0.2495133 0.2491576 0.2488441
 0.2485719 0.2483433 0.248145 0.2479643 0.2477874 0.2475974 0.2473934 0.24717 0.2469317 0.2466789
 0.2464154 0.2461401 0.2458668 0.2455961 0.2453501 0.2451317 0.2449464 0.2447948 0.2446621 0.2445488
 0.2444554 0.2443876 0.244381 0.2444428 0.2446203 0.2449121 0.2453429 0.2458963 0.2465612 0.2473102
 0.2481113 0.2489336 0.2497468 0.2505181 0.251225 0.2518386 0.252342 0.2527271 0.2529849 0.2531371
 0.2531838 0.2531608 0.2530707 0.2529472 0.2527921 0.2526408 0.2524955 0.2523923 0.25233 0.2523227
 0.252362 0.2524259 0.2525045 0.2525609 0.2525959 0.2525906 0.2525609 0.2525153 0.2524745 0.2524574
 0.2524776 0.2525468 0.252674 0.2528623 0.2531301 0.2534811 0.2539375 0.2545063 0.2551799 0.2559622
 0.2567928 0.2576686 0.2584978 0.2592762 0.2599276 0.2604544 0.2608294 0.2610646 0.2611854 0.2612108
 0.2611974 0.2611629 0.2611639 0.2612056 0.2613201 0.2614939 0.2617298 0.2620038 0.262303 0.2626125
 0.2629212 0.2632332 0.2635467 0.2638725 0.264213 0.2645697 0.2649431 0.2653311 0.2657335 0.2661629
 0.2666212 0.2671371 0.2677114 0.2683665 0.2690948 0.2698858 0.2707195 0.2715465 0.2723405 0.2730346
 0.2736119 0.2740222 0.2742724 0.2743457 0.2742728 0.2740619 0.273753 0.273361 0.2729217 0.2724465
 0.2719595 0.2714673 0.2709793 0.2704979 0.270021 0.2695485 0.2690802 0.268617 0.2681762 0.267762
 0.2674102 0.2671239 0.2669374 0.2668448 0.2668539 0.2669446 0.2670898 0.2672625 0.2674181 0.2675458
 0.2676136 0.2676474 0.2676466 0.267659 0.2677054 0.2678081 0.2679834 0.2682048 0.2684727 0.2687458
 0.2690182 0.2692815 0.2695344 0.269809 0.2701077 0.2704754 0.2709124 0.2714467 0.2720713 0.2727783
 0.273553 0.2743545 0.2751729 0.2759673 0.2767476 0.2775054 0.2782653 0.2790462 0.2798621 0.2807306
 0.2816412 0.282596 0.2835751 0.2845721 0.2855814 0.2865992 0.2876379 0.2886983 0.2897926 0.2909217
 0.2920772 0.2932575 0.2944337 0.2956032 0.2967347 0.2978258 0.2988537 0.2998133 0.3006839 0.3014534
 0.302094 0.3025886 0.3029048 0.3030342 0.302953 0.3026785 0.3022069 0.3015811 0.3008132 0.2999504
 0.299006 0.2980177 0.2969919 0.2959646 0.2949393 0.2939541 0.2930118 0.2921376 0.2913317 0.2905962
 0.2899282 0.2893116 0.2887405 0.2881845 0.2876357 0.2870562 0.2864465 0.2857831 0.2850865 0.2843648
 0.2836576 0.2829947 0.2824247 0.2819798 0.281706 0.2816288 0.2817756 0.2821637 0.2827789 0.2836287
 0.2846445 0.2858248 0.2870581 0.2883379 0.2895462 0.2906788 0.291657 0.2924846 0.2931466 0.2936544
 0.2940421 0.294324 0.2945524 0.294741 0.2949388 0.2951519 0.2954108 0.2957058 0.2960413 0.2963979
 0.2967648 0.2971296 0.2974847 0.2978254 0.2981514 0.2984487 0.2987178 0.298926 0.2990709 0.2991155
 0.2990569 0.2988797 0.2985849 0.2981965 0.29772 0.2972063 0.2966593 0.2961222 0.2955918 0.2950823
 0.2945869 0.2940989 0.2936172 0.2931344 0.2926609 0.2922 0.2917713 0.2913863 0.2910621 0.2908089
 0.2906327 0.2905369 0.2905232 0.2905924 0.2907459 0.2909856 0.2912956 0.2916761 0.2920825 0.2925119
 0.292909 0.2932711 0.2935534 0.2937547 0.2938445 0.2938248 0.2936822 0.2934276 0.2930711 0.2926317
 0.2921359 0.2916026 0.2910567 0.2905112 0.2899812 0.28947 0.2889837 0.2885159 0.2880665 0.287627
 0.2871958 0.2867664 0.2863387 0.2858998 0.2854495 0.2849639 0.2844414 0.2838534 0.2831972 0.2824401
 0.2815798 0.2805849 0.2794625 0.2782099 0.2768495 0.2754197 0.2739436 0.2724688 0.2710024 0.2695669
 0.2681626 0.2667932 0.265466 0.2641841 0.2629548 0.2617818 0.2606629 0.2595983 0.2585841 0.2576198
 0.2567049 0.2558394 0.2550215 0.2542509 0.2535233 0.252838 0.2521896 0.2515757 0.2509845 0.250412
 0.2498406 0.2492667 0.2486752 0.2480636 0.2474227 0.2467517 0.2460454 0.2453085 0.2445415 0.2437534
 0.2429485 0.2421321 0.2413068 0.2404721 0.2396284 0.2387743 0.2379099 0.2370327 0.2361428 0.2352344
 0.2343072 0.2333573 0.2323856 0.2313953 0.2303889 0.2293777 0.2283671 0.2273772 0.2264138 0.2254993
 0.2246325 0.2238237 0.2230632 0.2223472 0.2216622 0.2210014 0.2203466 0.2196915 0.2190112 0.2182969
 0.2175341 0.2167149 0.2158563 0.2149572 0.2140566 0.2131571 0.2122898 0.2114556 0.2106647 0.2099163
 0.2092074 0.2085377 0.2079033 0.2073045 0.2067414 0.2062106 0.2057086 0.2052232 0.2047376 0.20424
 0.2037092 0.2031532 0.2025662 0.2019745 0.2013887 0.2008262 0.2002972 0.1997951 0.1993213 0.1988615
 0.1984132 0.1979748 0.1975456 0.1971404 0.1967605 0.1964324 0.1961584 0.1959689 0.1958649 0.1958696
 0.1959799 0.1962023 0.1965249 0.1969331 0.1974038 0.1979039 0.1984048 0.198869 0.1992749 0.1995962
 0.199828 0.1999591 0.2000031 0.1999588 0.1998536 0.1996908 0.1995002 0.1992858 0.1990673 0.1988467
 0.1986331 0.1984272 0.1982354 0.1980587 0.1979066 0.1977814 0.1976993 0.1976622 0.1976888 0.1977703
 0.1979058 0.1980673 0.1982191 0.1983309 0.1983554 0.1982953 0.198129 0.1978994 0.1976167 0.1973299
 0.1970574 0.1968222 0.1966339 0.1964891 0.1963892 0.1963216 0.1962853 0.1962731 0.196285 0.1963236
 0.1963887 0.1964801 0.1965947 0.1967172 0.196844 0.1969544 0.1970512 0.1971285 0.197195 0.1972603
 0.1973316 0.197419 0.1975269 0.1976602 0.1978242 0.1980234 0.1982559 0.1985255 0.1988123 0.1991147
 0.1994064 0.1996828 0.199937 0.2001676 0.2003878 0.200598 0.2008053 0.2010082 0.2011961 0.2013673
 0.2015082 0.2016188 0.2016933 0.2017298 0.2017227 0.2016699 0.2015637 0.2014109 0.2012115 0.2009843
 0.2007402 0.2004991 0.2002744 0.2000698 0.1998925 0.1997254 0.1995681 0.1993944 0.1992007 0.1989705
 0.1987018 0.1983983 0.1980606 0.1977102 0.1973497 0.1970107 0.1966958 0.1964347 0.1962263 0.1960847
 0.196003 0.195975 0.1959913 0.1960357 0.1961023 0.1961768 0.1962648 0.1963613 0.1964885 0.1966541
 0.1968798 0.1971792 0.1975406 0.1979695 0.1984184 0.1988826 0.1993169 0.1997163 0.2000679 0.2003715
 0.2006473 0.200899 0.20117 0.2014639 0.2018249 0.2022473 0.2027406 0.2032875 0.2038567 0.2044345
 0.2049851 0.2055097 0.2059945 0.2064501 0.2068778 0.2072926 0.2076997 0.2081163 0.20855 0.2090059
 0.2094885 0.2099841 0.2104919 0.2109973 0.211499 0.2119945 0.2124837 0.2129654 0.2134393 0.213899
 0.2143453 0.2147765 0.2151963 0.2156127 0.2160335 0.2164765 0.216953 0.2174869 0.2180844 0.2187625
 0.2195154 0.2203447 0.2212427 0.2222069 0.2232293 0.2243103 0.2254285 0.2265798 0.2277452 0.2289175
 0.230122 0.2313582 0.2326838 0.2341013 0.2356383 0.2372918 0.2390413 0.2408827 0.2427851 0.2447487
 0.2467569 0.2488117 0.2509103 0.253052 0.255242 0.2574586 0.2596959 0.2618909 0.2640114 0.2659673
 0.267715 0.26917 0.2702976 0.2710394 0.27137 0.2712986 0.2708109 0.2700314 0.268964 0.2678062
 0.2665682 0.2654024 0.2643085 0.2633365 0.2624792 0.2617249 0.2610702 0.2604995 0.2600095 0.2595911
 0.2592282 0.2588975 0.258573 0.2582171 0.25782 0.2573575 0.2568492 0.2562975 0.255724 0.255138
 0.254545 0.2539448 0.253358 0.2527842 0.2522695 0.251819 0.2514467 0.2511528 0.25089 0.2506556
 0.2504001 0.2501269 0.2498277 0.2495058 0.2491663 0.2488111 0.2484437 0.2480716 0.2477092 0.2473571
 0.2470236 0.2466992 0.2463725 0.2460613 0.2457632 0.2455268 0.2453824 0.245294 0.2452767 0.2451851
 0.2449934 0.2446589 0.2441707 0.2435958 0.2429373 0.2422646 0.2415797 0.2409287 0.2403098 0.2397388
 0.2392099 0.2387108 0.2382418 0.2377932 0.2373771 0.2370076 0.2366944 0.2364562 0.2362875 0.2361914
 0.236157 0.23618 0.236251 0.2363673 0.236516 0.2366934 0.236893 0.2371127 0.2373562 0.237625
 0.2378993 0.2381777 0.2384074 0.2385869 0.2386825 0.2387007 0.2386587 0.2385636 0.2384485 0.2383159
 0.2381845 0.2380613 0.2379646 0.2378992 0.2378845 0.2378983 0.2379341 0.2379604 0.2379537 0.2379172
 0.237841 0.2377602 0.2376789 0.2376367 0.23764 0.2377138 0.2378626 0.2380777 0.2383587 0.2386678
 0.2390032 0.2393316 0.2396539 0.2399562 0.2402419 0.2405128 0.2407748 0.2410443 0.2413206 0.2416143
 0.2419097 0.2421926 0.2424549 0.2426804 0.2428854 0.2430771 0.243257 0.2434343 0.2435735 0.2436648
 0.2436996 0.243668 0.2436299 0.2435891 0.2436051 0.243681 0.2438125 0.2439965 0.2441948 0.2444048
 0.244594 0.2447604 0.2448795 0.244953 0.244972 0.2449416 0.2448678 0.2447491 0.2445824 0.2443768
 0.2441281 0.243878 0.2436486 0.2434618 0.2433445 0.2432381 0.2431384 0.2429677 0.2427063 0.2423642
 0.2419358 0.2415138 0.2411033 0.2407925 0.2405807 0.2404874 0.2404988 0.2405479 0.2406165 0.2405987
 0.2405013 0.2402786 0.2399684 0.2396121 0.2392367 0.2388942 0.23858 0.2383067 0.2380664 0.2378561
 0.2376775 0.2375323 0.2374124 0.2373177 0.2372319 0.2371534 0.2370645 0.2369649 0.2368189 0.2366245
 0.2363375 0.235958 0.2354748 0.2348936 0.2342388 0.233522 0.2327893 0.2320652 0.231428 0.2308976
 0.2305547 0.2303667 0.2303446 0.2304052 0.2304905 0.2305327 0.2304722 0.2303055 0.230008 0.2296359
 0.2291931 0.2287558 0.2283393 0.227971 0.2276591 0.2273495 0.2270399</values></Ydata></AB><ScSm><Ydata ylabel="Single channel"><values byteorder="INTEL" format="FLOAT32" numvalues="1814"> 0.05420427 0.05422536 0.05429887 0.05443748 0.05461215 0.05477327 0.0548856 0.05494726 0.05497258 0.05496471
 0.05492669 0.05489743 0.05494192 0.05508821 0.05528751 0.05544593 0.05549784 0.05546524 0.05544834 0.05552687
 0.05565168 0.05566005 0.0554308 0.0550221 0.05463089 0.05441158 0.05438232 0.05453942 0.05495058 0.05557023
 0.05603356 0.0559156 0.055263 0.05462277 0.05443683 0.05461709 0.05479776 0.05476152 0.05450764 0.05416413
 0.05402625 0.05448588 0.05565019 0.05701229 0.05762487 0.05669729 0.05415859 0.05084305 0.04818862 0.04747494
 0.04892837 0.05143666 0.05337716 0.0539136 0.05341663 0.05266863 0.05201102 0.05142188 0.05105357 0.05126984
 0.05214696 0.0531333 0.05332862 0.05224362 0.05037221 0.04885206 0.04843114 0.04898248 0.05009385 0.05153739
 0.05267433 0.05206454 0.04884666 0.04458068 0.04261172 0.04490782 0.04996551 0.05428471 0.05550264 0.05374779
 0.05065182 0.04796737 0.04691128 0.04783935 0.0501496 0.05278173 0.05487846 0.05586402 0.05529992 0.05323902
 0.05060656 0.04876772 0.04868467 0.05052954 0.05365665 0.05665988 0.05799143 0.05709273 0.05478047 0.05237821
 0.05082509 0.05064645 0.05208813 0.05487522 0.05819316 0.06115891 0.06318398 0.06402849 0.06384622 0.06308755
 0.0621544 0.0613313 0.06103589 0.06157432 0.0624658 0.06260256 0.06144767 0.05973857 0.058726 0.05887559
 0.05948681 0.05955462 0.05879657 0.05752596 0.05566604 0.05269083 0.04881397 0.04535659 0.04343553 0.04308716
 0.04403199 0.04614258 0.0485369 0.04947109 0.04822616 0.04638842 0.04629385 0.04853023 0.05159393 0.05373123
 0.05457013 0.05504435 0.05617788 0.05803759 0.05957263 0.05940399 0.05718193 0.05438335 0.05328494 0.05473711
 0.05734029 0.0591737 0.05983282 0.06028453 0.06115505 0.06176185 0.0608201 0.05795973 0.05458302 0.05302978
 0.05455666 0.05808812 0.06098972 0.0610324 0.05789909 0.05327275 0.04951265 0.04801591 0.04880206 0.05138077
 0.05531576 0.05979605 0.06340066 0.06487885 0.06407122 0.06185148 0.05913341 0.05603116 0.05230145 0.04870187
 0.04720768 0.04916137 0.05356551 0.0578985 0.06037834 0.06088747 0.06001456 0.05795671 0.05463611 0.05070379
 0.04792058 0.04783101 0.04993647 0.05192601 0.05209298 0.05091469 0.04993384 0.04980638 0.05000342 0.04996506
 0.04989503 0.05038464 0.05156337 0.0528355 0.0534614 0.05324488 0.05258264 0.05198714 0.05161895 0.05117252
 0.05029288 0.04925255 0.04896867 0.05002559 0.05189718 0.05348346 0.05422329 0.0543454 0.05417586 0.0535595
 0.05209449 0.04989712 0.04795277 0.04740669 0.04846194 0.05023558 0.05168912 0.05238797 0.05242366 0.05205102
 0.05151123 0.0509451 0.05041439 0.05007477 0.0501604 0.05066799 0.05125056 0.05156538 0.0515681 0.05137628
 0.0510252 0.05048779 0.04984311 0.04931024 0.0490995 0.04925143 0.04963107 0.05005197 0.05035964 0.05043451
 0.05023245 0.04984771 0.04944559 0.04911148 0.04883722 0.04864423 0.04861142 0.04875428 0.04896231 0.04910044
 0.04912295 0.04905774 0.04892751 0.04873084 0.0484787 0.04821554 0.04800845 0.04791524 0.04793599 0.04799879
 0.04802617 0.04800778 0.04797401 0.0479225 0.04782263 0.04767849 0.0475398 0.04745318 0.04742825 0.0474406
 0.0474448 0.04738409 0.04720758 0.04691133 0.04658207 0.04636676 0.04635546 0.04650822 0.04671808 0.04690725
 0.0470378 0.04708806 0.0470676 0.04701938 0.04696887 0.04689263 0.04675992 0.04659416 0.04647885 0.04649249
 0.04662969 0.04679915 0.04690975 0.04693914 0.04691491 0.04687139 0.04684019 0.04683916 0.04684955 0.04683331
 0.04678299 0.04673269 0.04671976 0.04674904 0.04678854 0.04679758 0.04677051 0.04674579 0.04675861 0.04680015
 0.04684013 0.04686888 0.04689701 0.04692683 0.04693913 0.04690775 0.04682913 0.04673696 0.04667433 0.04665141
 0.04664758 0.04665187 0.04667661 0.04672839 0.04678679 0.04682172 0.04682431 0.04681311 0.04680747 0.04679985
 0.04676524 0.04669867 0.04662933 0.04659175 0.04659345 0.04661565 0.04663778 0.04665503 0.04667374 0.04669432
 0.04670407 0.04668793 0.04664168 0.04657521 0.04651121 0.04647806 0.04648912 0.04652389 0.04653993 0.04650965
 0.04644234 0.04636861 0.04630776 0.04625414 0.04619526 0.04613542 0.04609172 0.04607025 0.04605935 0.04604714
 0.04603303 0.04602085 0.04601621 0.0460349 0.04609815 0.04620698 0.04632992 0.04642783 0.04648834 0.04652869
 0.04657006 0.04661905 0.04667169 0.04672625 0.04679123 0.04688076 0.04699478 0.0471058 0.04718202 0.04722748
 0.04728154 0.04737308 0.04749356 0.04761932 0.04773732 0.04784049 0.04792096 0.04798349 0.04805067 0.04813983
 0.04824386 0.04834489 0.04843802 0.04853102 0.04862893 0.04873274 0.04885062 0.04899793 0.0491823 0.04939179
 0.04959823 0.04977372 0.04991307 0.05004483 0.05021217 0.05043514 0.05069277 0.05094405 0.05116406 0.05135959
 0.05155269 0.05175206 0.05194671 0.0521313 0.05232687 0.05256157 0.05283496 0.0531175 0.05338443 0.05363555
 0.05388149 0.05412545 0.05436477 0.05460249 0.05484958 0.05511375 0.0553871 0.055649 0.05588426 0.05609693
 0.05630524 0.05652807 0.05677482 0.05703705 0.05728512 0.05748814 0.05764972 0.05781364 0.05801811 0.05825087
 0.0584668 0.058646 0.05881482 0.05900759 0.0592277 0.0594546 0.05967363 0.05988628 0.06009783 0.0603042
 0.06048934 0.06063554 0.06074193 0.0608318 0.06093509 0.06106698 0.06123031 0.06142826 0.06165763 0.06189404
 0.06210198 0.06226017 0.06236842 0.06243822 0.06249034 0.06255221 0.06264015 0.06274602 0.06284888 0.06293105
 0.06298155 0.0630049 0.06303511 0.06311859 0.0632683 0.06345238 0.0636388 0.06382959 0.06403576 0.06424187
 0.06442241 0.06458153 0.06474764 0.06492749 0.06508894 0.06519515 0.06523612 0.06521927 0.0651506 0.06504151
 0.06491607 0.06478682 0.06462563 0.0643741 0.06398374 0.06344031 0.06275938 0.06197773 0.06115593 0.06038091
 0.0597527 0.05935803 0.05924876 0.05943862 0.05990799 0.06060051 0.06141835 0.06223975 0.06295644 0.06349941
 0.06383637 0.06396089 0.06389086 0.06366301 0.06330855 0.06283018 0.0622098 0.06143771 0.06052469 0.0594864
 0.05832893 0.05706026 0.05571527 0.05436597 0.05310538 0.05201767 0.05115759 0.05055204 0.05021171 0.05012862
 0.05025606 0.05049723 0.05072428 0.05081625 0.05068966 0.05031124 0.04969851 0.0489101 0.04802449 0.04711612
 0.04624097 0.04543319 0.04470953 0.04408374 0.04358625 0.04327215 0.04320778 0.0434501 0.04403205 0.04494809
 0.04613631 0.04747935 0.04884261 0.05012745 0.05129551 0.05235216 0.05331934 0.0542236 0.05509221 0.05594382
 0.05678203 0.05760317 0.05840586 0.05918667 0.05992894 0.06060084 0.06116164 0.061567 0.06177616 0.0617672
 0.06155545 0.06120167 0.06079562 0.06040905 0.06004248 0.05961484 0.05901821 0.05819514 0.0571761 0.05606426
 0.05500358 0.05416021 0.05371433 0.05384316 0.05468106 0.05626256 0.05848052 0.06109952 0.06382863 0.06641221
 0.06869255 0.07062717 0.07226526 0.07369622 0.07499658 0.07620495 0.07733085 0.07837503 0.07934062 0.08023423
 0.08106412 0.08183983 0.08257224 0.08327042 0.08393576 0.08456202 0.08514577 0.08569635 0.08623164 0.08676454
 0.08729517 0.08781548 0.08831908 0.08880562 0.08927611 0.08972812 0.09016058 0.0905815 0.09100357 0.0914322
 0.09186389 0.09229425 0.09271868 0.09312546 0.09349814 0.09382927 0.09412879 0.0944173 0.09471162 0.09501415
 0.0953134 0.09559467 0.09585224 0.09609309 0.09633002 0.0965708 0.09681262 0.09704676 0.09726807 0.0974787
 0.09768222 0.09787682 0.09805596 0.09821707 0.09837066 0.09853958 0.09874526 0.09899146 0.09926251 0.09953691
 0.09979967 0.1000433 0.1002662 0.1004772 0.1006957 0.1009383 0.1012005 0.1014586 0.101693 0.1019058
 0.102112 0.1023196 0.1025241 0.1027163 0.1028894 0.1030403 0.1031724 0.1032945 0.1034171 0.1035492
 0.1036962 0.1038577 0.1040261 0.1041933 0.1043578 0.1045233 0.1046937 0.1048728 0.105066 0.1052772
 0.105506 0.1057503 0.1060076 0.1062746 0.1065446 0.1068092 0.1070622 0.1073027 0.1075331 0.1077552
 0.1079707 0.1081843 0.1084008 0.1086173 0.1088256 0.1090244 0.1092222 0.1094286 0.1096473 0.1098784
 0.1101192 0.1103644 0.1106086 0.1108496 0.1110875 0.1113207 0.1115462 0.111762 0.1119696 0.1121747
 0.1123838 0.1125994 0.1128188 0.1130378 0.113255 0.1134704 0.1136827 0.1138892 0.1140908 0.1142941
 0.1145048 0.1147183 0.1149249 0.1151223 0.1153182 0.1155198 0.1157268 0.1159348 0.1161416 0.1163476
 0.1165529 0.1167555 0.1169521 0.1171421 0.1173292 0.117517 0.1177057 0.1178946 0.1180849 0.1182779
 0.1184734 0.118669 0.1188607 0.1190448 0.1192204 0.1193888 0.1195544 0.1197269 0.1199165 0.1201225
 0.1203324 0.1205359 0.1207336 0.1209336 0.1211436 0.1213636 0.1215859 0.1218044 0.1220221 0.1222446
 0.1224696 0.1226913 0.1229102 0.1231308 0.123355 0.1235823 0.1238122 0.1240458 0.1242855 0.1245324
 0.1247809 0.1250232 0.1252578 0.1254892 0.1257216 0.1259591 0.1262055 0.1264603 0.1267195 0.1269806
 0.127239 0.1274875 0.1277258 0.1279643 0.1282106 0.1284629 0.128717 0.1289691 0.1292137 0.129448
 0.1296776 0.1299114 0.1301544 0.1304051 0.1306561 0.130902 0.1311466 0.131395 0.1316415 0.131877
 0.1321041 0.132333 0.132569 0.1328123 0.1330581 0.1332972 0.1335272 0.1337585 0.1339976 0.1342373
 0.1344704 0.1346998 0.1349301 0.1351649 0.1354064 0.1356476 0.1358761 0.1360939 0.1363147 0.1365353
 0.1367178 0.1367669 0.1364678 0.1354118 0.1329795 0.1284519 0.1212894 0.1114682 0.09961033 0.08676664
 0.07402606 0.06222902 0.05188122 0.04321254 0.03627958 0.03103397 0.02736825 0.02519376 0.02451853 0.02551663
 0.02860585 0.03421307 0.04185375 0.04927734 0.05329921 0.05228959 0.04772757 0.04285757 0.03997938 0.03929887
 0.0398659 0.04085086 0.04198425 0.04340995 0.04538584 0.0479904 0.05109846 0.05469223 0.05902999 0.0643194
 0.0703005 0.07634136 0.08198076 0.08729379 0.09269374 0.09843215 0.1043324 0.109963 0.114986 0.1193352
 0.1231513 0.126619 0.1298595 0.1329279 0.1358574 0.1386518 0.1412164 0.1433351 0.1447803 0.1454846
 0.1456141 0.1454732 0.1453283 0.145308 0.1454298 0.1456771 0.1460376 0.1465032 0.1470626 0.1476939
 0.1483622 0.1490351 0.1497 0.1503563 0.1509979 0.151611 0.1521823 0.1527036 0.1531723 0.1535913
 0.1539671 0.1543104 0.1546378 0.1549642 0.1552916 0.1556119 0.1559194 0.1562121 0.1564845 0.1567281
 0.1569409 0.1571314 0.1573141 0.1575004 0.1576925 0.157886 0.1580753 0.158257 0.1584291 0.1585949
 0.1587622 0.1589345 0.1591038 0.1592596 0.1594001 0.159533 0.1596685 0.1598144 0.1599721 0.1601345
 0.1602931 0.160445 0.160591 0.1607294 0.1608587 0.1609831 0.1611129 0.1612579 0.1614182 0.1615824
 0.1617387 0.1618891 0.1620459 0.1622149 0.1623908 0.1625679 0.162747 0.162933 0.1631313 0.1633417
 0.1635514 0.1637405 0.1638995 0.1640394 0.1641844 0.1643536 0.1645443 0.1647326 0.1648985 0.1650439
 0.1651816 0.1653158 0.1654426 0.1655606 0.1656741 0.1657959 0.1659409 0.1661084 0.1662793 0.1664399
 0.166593 0.1667415 0.1668839 0.1670274 0.1671779 0.1673168 0.1674166 0.1674851 0.1675733 0.1677315
 0.1679592 0.1682003 0.1683934 0.1685257 0.1686319 0.1687524 0.1689059 0.1690723 0.1691788 0.1691512
 0.1690253 0.1689645 0.1691123 0.1694517 0.1698432 0.1701674 0.1703981 0.1705698 0.1707159 0.1708343
 0.1708922 0.1708636 0.1707803 0.1707481 0.170877 0.1711707 0.1715123 0.1717866 0.1719751 0.1721152
 0.1722354 0.1723503 0.1724353 0.1723863 0.1721271 0.1718082 0.1717694 0.1722076 0.1729473 0.1736223
 0.1740378 0.1742735 0.1744746 0.1746745 0.1748339 0.1748793 0.1746266 0.1738822 0.1728157 0.1720694
 0.1722336 0.1732554 0.1745374 0.1755404 0.1761269 0.1764267 0.1766018 0.1767389 0.1767874 0.1765583
 0.1759323 0.1751527 0.1747733 0.1751476 0.1760297 0.1768392 0.1772596 0.1774069 0.1775122 0.1776611
 0.1777413 0.1774136 0.1762978 0.1745332 0.1730739 0.1730275 0.1745734 0.1767473 0.1783963 0.1791752
 0.1794717 0.1795624 0.1792083 0.1780913 0.1762873 0.1742333 0.1725941 0.1721858 0.1734458 0.1757362
 0.1776877 0.1785519 0.1788444 0.1794696 0.180626 0.1817856 0.1823874 0.1822785 0.1816266 0.1806163
 0.1793542 0.1781439 0.1776681 0.1785197 0.1804901 0.1826218 0.1840909 0.1848436 0.1852019 0.1849166
 0.1829476 0.1787054 0.1736504 0.1709266 0.1725959 0.1774775 0.1824122 0.1853776 0.186625 0.1872139
 0.1875782 0.187393 0.1857673 0.1817229 0.1757064 0.1705737 0.1696838 0.1735878 0.1794125 0.1835488
 0.1841345 0.1812842 0.1764349 0.1719059 0.169963 0.1714529 0.1754226 0.1800725 0.1838477 0.1858679
 0.1859206 0.1843835 0.1821913 0.1806062 0.180321 0.1804606 0.1792244 0.1761428 0.1728387 0.1706475
 0.1685504 0.1650613 0.1614439 0.1609263 0.1645084 0.1693261 0.1718704 0.1715488 0.1701434 0.1685397
 0.1652448 0.1585417 0.1496556 0.1428643 0.1417114 0.1452768 0.1489335 0.1487855 0.1447003 0.1391108
 0.1338692 0.1287058 0.1222812 0.1143796 0.106952 0.1026122 0.101996 0.1032274 0.1041025 0.1038007
 0.102232 0.09938491 0.09652642 0.09668021 0.1020281 0.1111482 0.1200289 0.1253133 0.1255383 0.1204728
 0.1116669 0.1035346 0.1012663 0.1062199 0.1143308 0.1198665 0.120028 0.1155488 0.1082828 0.09988956
 0.09262397 0.08959804 0.09293901 0.1016746 0.111692 0.1177625 0.1164116 0.1085945 0.1000541 0.09722777
 0.101395 0.1077255 0.1107131 0.1092266 0.1058661 0.1035263 0.1036729 0.1061204 0.1092597 0.11154
 0.112753 0.1124582 0.1082658 0.09870628 0.0873529 0.08060459 0.08103365 0.08592829 0.09237619 0.09995514
 0.1074506 0.110968 0.1082373 0.1028207 0.1011588 0.1057399 0.112912 0.1173821 0.1175075 0.1157235
 0.1147327 0.1145593 0.1138243 0.1129114 0.1141696 0.1186851 0.1244029 0.1283999 0.1299327 0.1302646
 0.1304642 0.1305532 0.1302401 0.1294284 0.1281708 0.1267129 0.1254125 0.1243349 0.1231951 0.1218048
 0.1200823 0.1174058 0.1127092 0.1060598 0.09972626 0.09643388 0.09646202 0.09772781 0.09878255 0.09972374
 0.0994866 0.09492339 0.08492325 0.07397655 0.0689965 0.07266909 0.08141574 0.08951168 0.09353264 0.09276737
 0.08750963 0.07905877 0.07107237 0.06852283 0.07370581 0.08404309 0.09483853 0.1033182 0.1090074 0.1115352
 0.1101784 0.1055544 0.1003532 0.09784462 0.09989743 0.1061111 0.1138933 0.1190692 0.1178964 0.1107741
 0.1040576 0.1054254 0.1157918 0.1278079 0.1340923 0.1347648 0.1346869 0.1358334 0.1361641 0.1349671
 0.1351564 0.1392411 0.14559 0.1500218 0.1495312 0.1435086 0.1331799 0.1217022 0.1134815 0.1109423
 0.1121759 0.1133687 0.1127382 0.1103362 0.1056645 0.09880158 0.09319261 0.09357734 0.100421 0.1089979
 0.1147276 0.117393 0.1193628 0.1214109 0.1217168 0.1186572 0.1135685 0.1100074 0.1102561 0.1132904
 0.1165104 0.1184448 0.1188875 0.1174429 0.1137253 0.1090693 0.106558 0.1084325 0.1138459 0.119678
 0.123324 0.1243343 0.1237698 0.1227617 0.121732 0.1204234 0.1185948 0.1169907 0.1172341 0.1200775
 0.1241137 0.1271218 0.1285245 0.1296263 0.1314872 0.1334768 0.134174 0.1331017 0.1312841 0.1303704
 0.1313246 0.1336803 0.1358625 0.1364392 0.1354162 0.134359 0.1349816 0.1375222 0.1406842 0.1430969
 0.1444519 0.1452469 0.1459596 0.1466275 0.1468317 0.14602 0.1442644 0.1427154 0.142795 0.1447808
 0.1475202 0.1495968 0.1504645 0.1504176 0.1498665 0.1489278 0.1476108 0.146148 0.1449887 0.1444721
 0.1445932 0.1451056 0.145749 0.1463392 0.14676 0.1469867 0.1470885 0.1471545 0.1472268 0.1473066
 0.1473684 0.1473511 0.147185 0.1468633 0.1464601 0.1460565 0.1456776 0.1453199 0.1450003 0.1447193
 0.1443953 0.1439018 0.1431839 0.1422908 0.1412831 0.1401755 0.1390266 0.1380593 0.1376056 0.1378653
 0.1387114 0.1397508 0.1405798 0.1409927 0.1410083 0.140782 0.1405096 0.1403487 0.14036 0.1405033
 0.1406955 0.140874 0.1410166 0.1411262 0.1412137 0.1412884 0.1413458 0.141357 0.1412775 0.1410808
 0.1407882 0.1404612 0.1401532 0.1398641 0.1395444 0.1391425 0.1386452 0.1380696 0.1374319 0.1367307
 0.1359582 0.1351187 0.1342374 0.1333487 0.132472 0.1315938 0.1306709 0.1296554 0.1285341 0.1273572
 0.1262141 0.1251633 0.1241917 0.1232471 0.1222941 0.121328 0.1203638 0.1194379 0.1186131 0.117956
 0.1174988 0.1172195 0.1170556 0.116935 0.1167983 0.1166018 0.1163141 0.115919 0.1154261 0.114869
 0.1142856 0.1136837 0.1130148 0.112177 0.1110432 0.1094946 0.1074536 0.1049208 0.1020009 0.09888607
 0.09579798 0.09292337 0.09037644 0.08820072 0.08639529 0.08493982 0.08381015 0.08299306 0.0824976 0.08234757
 0.08255947 0.08312781 0.08402628 0.08521416 0.08663872 0.08823139 0.08990203 0.09154795 0.09308887 0.09450421
 0.09582874 0.09709919 0.09830478 0.09939519 0.1003281 0.1010912 0.1016828 0.1020998 0.1023602 0.1025186
 0.1026452 0.1027966 0.1030074 0.1032896 0.1036311 0.104002 0.1043709 0.1047175 0.1050381 0.1053442
 0.1056533 0.1059807 0.1063413 0.1067557 0.1072552 0.107879 0.108655 0.1095715 0.1105763 0.111615
 0.1126595 0.1137006 0.1147357 0.1157749 0.1168417 0.1179548 0.1191115 0.1202856 0.1214353 0.1225183
 0.1235058 0.1243835 0.125146 0.1257983 0.1263568 0.1268397 0.1272575 0.1276158 0.1279218 0.1281861
 0.1284225 0.1286453 0.128864 0.12908 0.1292817 0.129443 0.1295385 0.1295673 0.1295531 0.1295227
 0.1295 0.1295146 0.1295912 0.1297243 0.1298767 0.1300064 0.1300907 0.130127 0.1301203 0.1300752
 0.1300023 0.1299211 0.1298408 0.1297361 0.1295616 0.12929 0.1289238 0.1284744 0.127945 0.1273302
 0.1266149 0.125772 0.1247734 0.1236139 0.1223283 0.1209789 0.119618 0.1182673 0.1169396 0.1156673
 0.1144912 0.1134297 0.1124686 0.1115756 0.1107186 0.1098758 0.1090381 0.108202 0.1073767 0.1065969
 0.1059078 0.1053234 0.1048103 0.1043192 0.1038228 0.1033253 0.1028509 0.1024212 0.102039 0.1016977
 0.1013999 0.1011548 0.1009651 0.100831 0.1007516 0.1007051 0.1006424 0.1005221 0.1003463 0.1001518
 0.09997203 0.09981562 0.09967524 0.0995506 0.09945436 0.09938973 0.09932686 0.09920478 0.09895071 0.09850162
 0.0978289 0.09695438 0.09593908 0.09486265 0.09381422 0.09287657 0.0920971 0.09148097 0.09101084 0.09065396
 0.09035975 0.09008598 0.08983545 0.08965043 0.08956736 0.08957407 0.08959975 0.08955865 0.08942954 0.089288
 0.08924225 0.08934468 0.08956856 0.08984402 0.09010245 0.0903042 0.09043761 0.09049793 0.09048121 0.09039451
 0.09024774 0.09003742 0.08976044 0.08943456 0.08908623 0.08872792 0.08835362 0.08793961 0.08745252 0.0868741
 0.08620787 0.08545536 0.08461055 0.08367766 0.08266059 0.08154892 0.0803622 0.0792001 0.07820956 0.07749803
 0.0770752 0.07685058 0.07669465 0.07652874 0.07633518 0.07607967 0.0757237 0.07538807 0.07541938 0.07615369
 0.0775815 0.07930228 0.08083402 0.08192995 0.08258931 0.08286889 0.08279631 0.08241107 0.08175632 0.08083717
 0.07966468 0.07830274 0.07682135 0.07527465 0.07375278 0.07237106 0.07120209 0.07027081 0.06957943 0.06914683
 0.06903821 0.06903638 0.06807412 0.06477822 0.05956932 0.05564209 0.05631533 0.0613182 0.06694551 0.0699751
 0.07025789 0.06946456 0.06877202 0.0683625 0.06816833 0.06826024 0.0687114 0.06945015 0.07026111 0.07091139
 0.07130016 0.07144315 0.07131365 0.07072277 0.06928432 0.06652682 0.06226919 0.05699025 0.05168519 0.04727681
 0.04418936 0.0423596 0.04143845 0.04099145 0.04070746 0.04054071 0.04065292 0.04120958 0.04224154 0.04368049
 0.04544063 0.0473841 0.04925994 0.05081923 0.05200961 0.05295465 0.05374061 0.05432224 0.05462683 0.05464759
 0.05442994 0.05404149 0.05356381 0.0530627 0.05254197 0.05194715 0.05125693 0.05058032 0.0501046 0.049912
 0.04990622 0.04994939 0.04999573 0.05005971 0.05013396 0.05018169 0.05017353 0.05013157 0.05015168 0.05033424
 0.05066814 0.05103086 0.05131066 0.0514852 0.05158955 0.05163577 0.05155464 0.05125344 0.05078584 0.05037662
 0.05015441 0.04994886 0.04951675 0.04890495 0.04842188 0.04828107 0.04841069 0.0485957 0.04868612 0.04866082
 0.04859955 0.04864895 0.04893513 0.0494083</values></Ydata></ScSm><ScRf><Ydata ylabel="Single channel"><values byteorder="INTEL" format="FLOAT32" numvalues="1820"> 0.06065166 0.06081105 0.06091036 0.06094622 0.06094184 0.06094452 0.06100542 0.06114523 0.06133671 0.06152135
 0.06165028 0.06171487 0.06173207 0.06170808 0.06164622 0.06159173 0.06162383 0.06177636 0.06198744 0.06214573
 0.06218397 0.06213624 0.06211087 0.06218315 0.06229158 0.06226043 0.06196312 0.06146998 0.06100409 0.0607372
 0.06068324 0.06083423 0.06127252 0.0619541 0.0624631 0.06230839 0.06154009 0.06078499 0.06054936 0.06073064
 0.06090746 0.06082838 0.06049311 0.06005647 0.05986771 0.06037604 0.06169078 0.06321889 0.06387831 0.06278048
 0.05986501 0.05610191 0.05313181 0.05238336 0.05406679 0.05689043 0.05903017 0.05958308 0.0590012 0.05817045
 0.05745856 0.05682057 0.05641267 0.05663832 0.05758834 0.0586509 0.05882069 0.05756018 0.05544183 0.05374432
 0.05328371 0.05390038 0.05514289 0.05676189 0.05801045 0.05724894 0.05355766 0.04877517 0.04667874 0.04939494
 0.05513068 0.05992593 0.06117667 0.05909756 0.05557467 0.05259956 0.05151213 0.05263937 0.05524523 0.05814349
 0.06041659 0.06144899 0.0607603 0.05842692 0.05549913 0.0534926 0.05345678 0.05556432 0.05907376 0.06239325
 0.06380332 0.06272836 0.06011995 0.05744985 0.0557398 0.05556724 0.05721224 0.06036714 0.06411191 0.06744558
 0.06969702 0.07059906 0.07034741 0.06947684 0.06845298 0.06758845 0.06732314 0.06795657 0.06892225 0.06900169
 0.06765173 0.06573443 0.06463277 0.06482488 0.06550443 0.06556005 0.06469756 0.06326257 0.06114591 0.05776582
 0.05340797 0.04957701 0.04749274 0.04716364 0.04829024 0.0507424 0.05349474 0.05455495 0.05314107 0.05108172
 0.05100004 0.05351678 0.05692461 0.05927829 0.06019913 0.06075479 0.06208064 0.06421325 0.06593741 0.06570387
 0.06316699 0.0600508 0.05893132 0.06070801 0.06373826 0.06585875 0.06666807 0.06728876 0.06840259 0.06919344
 0.06820135 0.06506027 0.06142443 0.05994052 0.0619402 0.06610704 0.06943218 0.06943594 0.06583564 0.06061389
 0.05647706 0.05498265 0.05612499 0.05936743 0.06423435 0.06976215 0.07425708 0.07624152 0.07552014 0.07310503
 0.07006104 0.06651857 0.06221226 0.05811456 0.05665249 0.05942108 0.0651447 0.07073537 0.07404737 0.07495268
 0.07414775 0.07183228 0.06790488 0.06324881 0.06016123 0.0605703 0.06370965 0.06654759 0.06696233 0.06568171
 0.06472568 0.06488984 0.06544372 0.06568098 0.06593046 0.06699534 0.06900139 0.07109144 0.0722549 0.07224631
 0.07162744 0.07111274 0.07091853 0.07060573 0.0697008 0.06864856 0.06875071 0.0707369 0.07375617 0.07625077
 0.07751794 0.07795976 0.07803243 0.077445 0.07557467 0.07262815 0.07011908 0.06974477 0.07174286 0.07473974
 0.07717998 0.07844891 0.07872916 0.0784343 0.07792705 0.07740283 0.07695349 0.07682161 0.07733721 0.07843927
 0.07956933 0.08023084 0.08039702 0.08025543 0.07984982 0.07915877 0.07835492 0.0778016 0.07778741 0.07831035
 0.07913032 0.07998027 0.0806566 0.08097596 0.0808396 0.08038041 0.07989017 0.07955556 0.07938483 0.07938545
 0.07963516 0.0801252 0.08067354 0.08107273 0.08125569 0.08127813 0.0812049 0.08106201 0.08086967 0.08068824
 0.08062167 0.08074506 0.08101102 0.08128111 0.08149002 0.08171079 0.08199459 0.08222595 0.08224101 0.08204772
 0.08183098 0.08175404 0.08182772 0.08196205 0.08206522 0.08206041 0.08187182 0.08149152 0.08107388 0.08087759
 0.08105874 0.0815604 0.08221067 0.08284719 0.08333885 0.08360608 0.08367866 0.08366208 0.08361197 0.08349452
 0.08328457 0.08305841 0.08297182 0.08314594 0.08355831 0.08404888 0.08444698 0.08467957 0.08477125 0.08480624
 0.08489449 0.08508649 0.08529545 0.08537802 0.08531345 0.08523659 0.08527464 0.08540401 0.08549294 0.08545922
 0.0853641 0.08534697 0.08547659 0.08568966 0.08587985 0.08601703 0.08615927 0.08635922 0.08657242 0.08667363
 0.08658648 0.08638455 0.08622025 0.08616273 0.08616784 0.08620299 0.08631388 0.08653022 0.08677301 0.08691914
 0.08693957 0.08692338 0.08696026 0.08703308 0.08704688 0.08694393 0.08676507 0.08660594 0.08653821 0.08657003
 0.08665401 0.08672002 0.08671565 0.08663523 0.08651721 0.08640882 0.08633232 0.08629396 0.08632158 0.08645995
 0.08669782 0.08691637 0.08695906 0.08677682 0.08648953 0.08628254 0.08623867 0.08627571 0.08624364 0.08606853
 0.08579895 0.08553461 0.08533637 0.08520135 0.08509645 0.08500247 0.0849402 0.08496168 0.08509424 0.08527547
 0.08536742 0.0852708 0.0850206 0.08474743 0.08455855 0.0844776 0.08447012 0.08448633 0.08449666 0.08451758
 0.08458224 0.08466822 0.08469557 0.08462335 0.08450857 0.08444836 0.08450179 0.08467002 0.08489431 0.08506267
 0.08508325 0.08497888 0.08486933 0.08484675 0.08490372 0.0849859 0.08506806 0.08515754 0.08525716 0.0853598
 0.08547413 0.08563076 0.08585124 0.0861149 0.08636267 0.08653906 0.08663972 0.0867241 0.08687565 0.08713618
 0.08747163 0.08780067 0.08805965 0.08824635 0.08840568 0.08857645 0.0887623 0.08895996 0.08919308 0.08948788
 0.08982554 0.09015273 0.09044152 0.09071174 0.09099345 0.0912907 0.09159043 0.09189529 0.09223744 0.09264614
 0.09309149 0.09347858 0.09372683 0.09385319 0.09396197 0.09416103 0.0944895 0.09489104 0.09523952 0.09543334
 0.0955018 0.09558809 0.09579429 0.09607621 0.09633013 0.09654886 0.09683124 0.09724103 0.09770973 0.0981001
 0.09834202 0.0984865 0.09863505 0.09883033 0.09902455 0.09915404 0.09922571 0.09930532 0.09943242 0.09959385
 0.09978935 0.1000672 0.1004551 0.1008936 0.1012822 0.101571 0.1017756 0.101929 0.1020501 0.1021418
 0.1021941 0.1022074 0.1022223 0.1022891 0.1023971 0.1024765 0.1024926 0.1024964 0.1025625 0.1027151
 0.1029396 0.1032243 0.1035488 0.1038623 0.1041277 0.1043831 0.1047044 0.1050881 0.1054201 0.1055953
 0.1056361 0.1056444 0.1056726 0.1057047 0.1057493 0.1058711 0.1061123 0.1064393 0.1067898 0.1071379
 0.1074914 0.107848 0.1081741 0.108417 0.1085375 0.1085432 0.1084972 0.1084906 0.1085962 0.108832
 0.1091541 0.1094876 0.109773 0.1099808 0.11009 0.1100889 0.1100209 0.1099937 0.1100957 0.1102966
 0.1104619 0.1104652 0.1102672 0.1098924 0.1093734 0.1087408 0.1080484 0.107379 0.1068161 0.1064112
 0.1061836 0.1061526 0.1063547 0.1068045 0.1074401 0.1081365 0.1087793 0.1092977 0.1096203 0.1096536
 0.1093481 0.1087632 0.1080341 0.1072867 0.106596 0.105984 0.1054231 0.1048729 0.1043636 0.1040388
 0.1040899 0.104639 0.1056774 0.1070727 0.1086117 0.1100686 0.1112944 0.1122704 0.1130753 0.1137944
 0.1144671 0.1151094 0.1157478 0.1163981 0.1170274 0.1175797 0.1180416 0.1184526 0.1188518 0.1192388
 0.1195868 0.1198719 0.1200952 0.1202912 0.1204964 0.1206935 0.1208115 0.1208051 0.1207089 0.1205908
 0.1204717 0.1203109 0.1200549 0.1196861 0.1192494 0.1188625 0.1186981 0.1189206 0.1195961 0.1206464
 0.1219017 0.1232071 0.1244696 0.1256148 0.1265526 0.1272241 0.1276602 0.1279612 0.1282228 0.1284968
 0.1287972 0.1291161 0.1294335 0.129732 0.1300098 0.1302841 0.1305812 0.1309126 0.1312536 0.131557
 0.1318017 0.1320239 0.1322904 0.1326367 0.1330323 0.1334112 0.1337409 0.1340512 0.1343808 0.134711
 0.1349833 0.1351767 0.1353372 0.1355313 0.1357984 0.1361385 0.1365098 0.1368399 0.1370778 0.1372435
 0.1374044 0.1376046 0.1378366 0.1380774 0.1383215 0.1385728 0.1388284 0.139089 0.1393708 0.1396819
 0.1399903 0.140239 0.1404061 0.1405333 0.1406834 0.1408818 0.1411068 0.1413247 0.1415263 0.1417356
 0.1419884 0.1422929 0.1426091 0.142877 0.1430673 0.1431994 0.1433174 0.1434586 0.1436389 0.1438533
 0.1440814 0.1443002 0.1444996 0.144689 0.1448872 0.1451042 0.1453333 0.1455601 0.1457756 0.1459797
 0.1461761 0.146371 0.1465775 0.1468177 0.1471055 0.1474232 0.1477219 0.1479571 0.1481227 0.1482461
 0.1483585 0.1484797 0.1486222 0.1487921 0.1489844 0.1491874 0.1493944 0.1496065 0.149824 0.150041
 0.1502519 0.150458 0.1506654 0.1508788 0.1510998 0.1513297 0.1515672 0.1518021 0.1520195 0.1522132
 0.152392 0.1525711 0.1527598 0.1529548 0.1531442 0.1533195 0.1534868 0.1536622 0.1538552 0.1540598
 0.1542625 0.1544579 0.1546508 0.1548482 0.1550512 0.1552574 0.1554667 0.1556778 0.1558843 0.1560804
 0.1562671 0.1564492 0.1566279 0.1568042 0.1569859 0.1571838 0.1574009 0.1576281 0.1578504 0.1580577
 0.1582498 0.1584331 0.158614 0.1587987 0.1589938 0.1592019 0.159416 0.1596244 0.1598198 0.1600049
 0.1601902 0.1603862 0.1605936 0.160807 0.161026 0.1612537 0.1614847 0.1617062 0.1619123 0.1621087
 0.1623033 0.1625006 0.1627032 0.1629127 0.1631312 0.1633607 0.1635966 0.1638258 0.164038 0.1642337
 0.1644182 0.1645941 0.1647642 0.1649324 0.1651009 0.165271 0.1654468 0.1656304 0.1658192 0.16601
 0.1662017 0.1663946 0.1665909 0.1667937 0.167001 0.1672073 0.1674103 0.167612 0.1678142 0.1680183
 0.1682232 0.1684252 0.1686249 0.1688314 0.1690499 0.1692728 0.1694898 0.1696989 0.1699024 0.1701024
 0.1703033 0.1705083 0.1707161 0.1709249 0.1711339 0.1713408 0.1715471 0.1717592 0.1719774 0.1721915
 0.1723949 0.1725933 0.1727946 0.1730026 0.1732172 0.1734323 0.1736406 0.1738469 0.174062 0.1742857
 0.1745104 0.1747336 0.1749534 0.1751633 0.1753657 0.1755722 0.175787 0.1760041 0.1762185 0.1764272
 0.1766302 0.1768343 0.1770429 0.1772385 0.1773733 0.1773304 0.1768273 0.1753199 0.1719912 0.1659052
 0.1563727 0.1433881 0.1277894 0.1109617 0.09432416 0.07896148 0.06551817 0.05427812 0.04530349 0.03852966
 0.03382331 0.03106706 0.03025208 0.03158774 0.03562367 0.04292215 0.05282187 0.06235015 0.06738354 0.0659031
 0.05992433 0.05366018 0.05002016 0.04920505 0.04996713 0.05124411 0.05270163 0.05453586 0.05708095 0.06042853
 0.06441137 0.06901701 0.07459205 0.08140165 0.08909568 0.09685011 0.1040738 0.1108711 0.1177769 0.1251106
 0.1326397 0.1398091 0.1461844 0.1516768 0.156468 0.1608119 0.1648849 0.1687594 0.1724587 0.1759685
 0.1791641 0.181776 0.1835175 0.1843012 0.1843446 0.1840534 0.1837839 0.1837 0.1838123 0.1840889
 0.184507 0.1850494 0.1857007 0.1864429 0.1872429 0.1880599 0.1888679 0.1896564 0.1904137 0.1911241
 0.1917782 0.1923768 0.1929271 0.193437 0.1939087 0.1943427 0.1947445 0.1951216 0.1954766 0.1958123
 0.1961387 0.1964615 0.1967724 0.1970596 0.1973212 0.197562 0.1977851 0.1979933 0.1981914 0.1983859
 0.1985836 0.198789 0.1989997 0.1992104 0.19942 0.1996307 0.1998434 0.2000579 0.2002718 0.2004766
 0.2006645 0.2008395 0.201015 0.2011984 0.2013864 0.2015748 0.2017639 0.2019542 0.2021447 0.2023345
 0.2025266 0.2027254 0.2029301 0.2031316 0.2033242 0.2035185 0.2037327 0.2039708 0.2042175 0.2044543
 0.2046713 0.2048694 0.2050602 0.205258 0.2054631 0.2056572 0.2058234 0.205967 0.2061158 0.2062984
 0.2065213 0.2067649 0.2070035 0.207224 0.2074258 0.2076131 0.2077909 0.2079635 0.2081357 0.2083228
 0.2085443 0.2087978 0.2090559 0.2093012 0.2095413 0.2097812 0.2100129 0.2102367 0.2104598 0.2106672
 0.2108299 0.2109545 0.2111026 0.2113422 0.2116781 0.2120399 0.2123493 0.2125929 0.212814 0.2130545
 0.2133272 0.2136071 0.2138118 0.2138533 0.2137737 0.2137778 0.21405 0.2145697 0.2151543 0.2156458
 0.2160093 0.2162918 0.2165403 0.2167547 0.2168918 0.2169187 0.2168861 0.2169417 0.2172245 0.2177213
 0.2182667 0.2187073 0.2190175 0.2192422 0.2194183 0.2195722 0.219677 0.2195958 0.2192285 0.2187749
 0.2186823 0.2192112 0.2201431 0.2210173 0.2215849 0.2219294 0.2222097 0.2224615 0.2226517 0.222708
 0.222402 0.2214847 0.2201749 0.2192972 0.2195992 0.2209971 0.2227158 0.2240627 0.2248621 0.2252829
 0.2255421 0.2257585 0.2258604 0.2255909 0.2247985 0.2238187 0.2233881 0.2239674 0.2252245 0.2263874
 0.2270286 0.2272923 0.2274903 0.2277549 0.2279484 0.2276146 0.22624 0.2240078 0.2221767 0.2221879
 0.2242501 0.2270891 0.2292161 0.2302104 0.2305867 0.2306859 0.2301755 0.2286451 0.2262227 0.2235078
 0.2213781 0.2208756 0.2225178 0.2254282 0.2278347 0.228823 0.2291082 0.2298566 0.2312952 0.2327312
 0.2334513 0.2332677 0.232394 0.231057 0.2293897 0.227798 0.2271784 0.2282849 0.2308184 0.2335317
 0.2353791 0.2363073 0.2367234 0.2362803 0.2336232 0.2280207 0.2214157 0.2178908 0.2200623 0.2263421
 0.2326414 0.2363915 0.2379528 0.2386941 0.23916 0.2389179 0.2368094 0.2315832 0.2238592 0.2173662
 0.2164184 0.221646 0.2292852 0.2346989 0.2355352 0.2319674 0.2258624 0.2202312 0.2180007 0.2202382
 0.2256835 0.2319963 0.2371634 0.2400559 0.240416 0.2387424 0.236254 0.2345966 0.2346472 0.2352104
 0.2339309 0.2302753 0.22643 0.2240945 0.2218483 0.2177688 0.2136505 0.2138161 0.2195002 0.2267821
 0.2309949 0.2314557 0.2306105 0.2295736 0.2262106 0.2182043 0.207442 0.2000951 0.2012323 0.2095634
 0.2185889 0.2229612 0.2227337 0.2214637 0.2214653 0.2214473 0.2183343 0.2112873 0.203766 0.2006281
 0.2029546 0.2070743 0.2089067 0.2072163 0.2021886 0.1941217 0.1857618 0.1831405 0.1904882 0.2050537
 0.2192568 0.2269273 0.2255564 0.2149341 0.1980331 0.1828379 0.1784627 0.1869809 0.2008992 0.2100483
 0.2096457 0.2011425 0.1878907 0.1728669 0.1600631 0.1548956 0.1609638 0.1764115 0.1939419 0.2044125
 0.2018798 0.1882568 0.1737937 0.169703 0.1779157 0.1897124 0.1954825 0.1934484 0.1883034 0.1851867
 0.1867266 0.1925537 0.1996878 0.2053448 0.2091563 0.2100065 0.2030417 0.1854971 0.1644046 0.1519604
 0.1528654 0.161918 0.1737632 0.1877021 0.2013416 0.2072913 0.201492 0.1909006 0.1875708 0.1958586
 0.208696 0.2162438 0.2156327 0.2114915 0.2087982 0.2075805 0.2053868 0.2030139 0.2047154 0.2123346
 0.2220866 0.2287808 0.2312179 0.2317292 0.2322174 0.2327107 0.2326978 0.231994 0.2306588 0.2291279
 0.2280882 0.2277028 0.2274564 0.2269443 0.2258473 0.2227175 0.2152891 0.2036613 0.1923257 0.1866065
 0.1870123 0.1895992 0.1918312 0.1940532 0.1940257 0.1853984 0.1661018 0.1452215 0.1363896 0.1446177
 0.162567 0.1789106 0.1870079 0.1854686 0.1747661 0.1574476 0.1408462 0.1347865 0.1435736 0.1618653
 0.1803848 0.1939178 0.2019128 0.2040484 0.1992383 0.1887833 0.1776518 0.1716436 0.1738508 0.183286
 0.1952161 0.2024036 0.1986566 0.1849762 0.1722501 0.1732257 0.1891479 0.2076835 0.2167756 0.2168501
 0.2159396 0.2172006 0.2173432 0.215386 0.2161715 0.2237176 0.2353007 0.2441465 0.245379 0.2379288
 0.2239003 0.2090856 0.2014692 0.2047831 0.2141941 0.2215089 0.2230831 0.2193429 0.2099511 0.1958307
 0.1842878 0.1846203 0.1973434 0.2129728 0.2228027 0.2268393 0.2298421 0.2331398 0.2330256 0.2263769
 0.2158691 0.2083329 0.2080028 0.2128113 0.2178931 0.2207179 0.2211337 0.2184577 0.2118938 0.2038399
 0.1999305 0.2041389 0.2146366 0.2254732 0.2318804 0.233253 0.2317525 0.2294963 0.2271385 0.2240497
 0.2197244 0.2156 0.2147758 0.2187074 0.2248906 0.2294372 0.2315287 0.2336847 0.2378058 0.2425575
 0.2449929 0.243764 0.2403986 0.2379638 0.2386003 0.2418225 0.2448848 0.2451306 0.2425216 0.239911
 0.240416 0.2444467 0.2496581 0.253616 0.2557774 0.2569816 0.258018 0.2589356 0.2590021 0.2572573
 0.2538651 0.2508992 0.2508677 0.2542275 0.2589593 0.2626629 0.2644912 0.2650074 0.2648742 0.264167
 0.262758 0.2609332 0.2594038 0.2587516 0.2590152 0.259832 0.2608119 0.2617041 0.2623788 0.2628164
 0.263084 0.2632515 0.2633581 0.2634495 0.2635586 0.2636329 0.2635835 0.2634457 0.263403 0.2635858
 0.2639082 0.2641639 0.2642177 0.2640182 0.2634912 0.2625599 0.2612781 0.2598148 0.2582644 0.2565845
 0.2548317 0.253415 0.2529674 0.2538666 0.2558842 0.2583289 0.2605177 0.2621103 0.2630954 0.2636136
 0.2638377 0.263922 0.2639547 0.2639357 0.2638226 0.2635995 0.2632921 0.2629342 0.2625461 0.2621478
 0.2617725 0.2614472 0.2611626 0.2608705 0.2605165 0.2600754 0.259566 0.2590356 0.2585163 0.2579826
 0.2573632 0.2566031 0.2557109 0.2547491 0.2537945 0.2529064 0.2520999 0.2513357 0.2505565 0.2497351
 0.2488617 0.2478987 0.2468063 0.2456344 0.244537 0.2436502 0.2429728 0.2423862 0.2417615 0.2410235
 0.2401482 0.2391535 0.2380891 0.2370029 0.2359101 0.2347981 0.233644 0.232419 0.2310957 0.2296675
 0.228149 0.2265581 0.2249158 0.2232519 0.2215738 0.2198206 0.2178653 0.2155643 0.2127962 0.2094734
 0.2055601 0.2011064 0.1962657 0.1912636 0.1863298 0.1816443 0.1773299 0.1734772 0.1701626 0.1674468
 0.1653715 0.1639612 0.1632324 0.1632007 0.1638755 0.1652371 0.1672132 0.1696762 0.1724646 0.175413
 0.1783696 0.1812024 0.1838181 0.1861988 0.1884029 0.1904956 0.1924784 0.1943007 0.1959244 0.1973476
 0.1985754 0.1996057 0.2004471 0.2011323 0.2017038 0.202194 0.2026167 0.2029765 0.2032808 0.2035414
 0.2037687 0.203971 0.2041591 0.2043475 0.2045546 0.2047965 0.2050784 0.2053983 0.205763 0.2061866
 0.2066681 0.2071897 0.2077407 0.2083267 0.2089529 0.2096202 0.210343 0.2111573 0.2121054 0.2132152
 0.2144809 0.2158523 0.2172477 0.218581 0.2197775 0.2207764 0.2215355 0.2220416 0.2223153 0.2223981
 0.222331 0.2221392 0.2218372 0.2214423 0.2209743 0.2204483 0.2198752 0.2192655 0.2186255 0.2179556
 0.2172599 0.2165537 0.2158563 0.2151753 0.2145046 0.2138376 0.2131821 0.2125549 0.2119615 0.2113889
 0.2108192 0.2102447 0.2096669 0.2090909 0.2085176 0.207933 0.2073045 0.2065964 0.2057896 0.2048821
 0.2038735 0.2027596 0.2015423 0.2002385 0.1988692 0.1974418 0.1959469 0.1943758 0.1927358 0.1910346
 0.1892535 0.1873548 0.1853371 0.1832736 0.1812772 0.1794273 0.1777341 0.1761625 0.1746719 0.1732433
 0.171886 0.1706161 0.1694288 0.1682966 0.1671981 0.1661345 0.1651175 0.1641529 0.1632406 0.1623879
 0.1616161 0.1609488 0.1603924 0.1599335 0.1595536 0.1592392 0.1589905 0.1588275 0.1587706 0.1587998
 0.1588489 0.1588513 0.1587838 0.1586684 0.1585468 0.1584475 0.1583668 0.1582904 0.1582201 0.1581513
 0.1580268 0.1577405 0.1571879 0.1563057 0.1550879 0.1535817 0.1518639 0.1500269 0.1481913 0.1464932
 0.1450346 0.1438619 0.1429824 0.142358 0.1418954 0.1415011 0.1411582 0.1409355 0.1409209 0.1411285
 0.141438 0.1416596 0.141704 0.1416735 0.1417641 0.142112 0.1427264 0.1435023 0.1442827 0.1449509
 0.1454689 0.1458393 0.1460785 0.1462238 0.1463005 0.1462879 0.1461626 0.1459486 0.1456865 0.1453899
 0.1450488 0.1446386 0.1441339 0.1435424 0.1428936 0.1421864 0.1413968 0.1405161 0.1395206 0.1383668
 0.1371113 0.135983 0.1352639 0.135123 0.1355533 0.1363885 0.1374025 0.1384545 0.1394718 0.1402791
 0.1406487 0.1406636 0.1408817 0.1419328 0.1439257 0.1463285 0.1484322 0.14986 0.150611 0.1507754
 0.1503866 0.14947 0.1480357 0.1460589 0.1435838 0.1407615 0.1377336 0.1346241 0.1316419 0.1290022
 0.1267816 0.1249726 0.1235693 0.1226102 0.1222164 0.1220197 0.1201433 0.1141638 0.1048547 0.0978847
 0.09905081 0.1077477 0.1173832 0.1223441 0.1224693 0.1207522 0.1192624 0.1183006 0.1177404 0.1177219
 0.1183923 0.1196277 0.1210456 0.1222334 0.1230025 0.1233711 0.123293 0.1224182 0.1200242 0.1152635
 0.1078481 0.09864967 0.08941655 0.08176106 0.07642142 0.0732675 0.07166893 0.07087189 0.07035886 0.07007529
 0.07031649 0.07136615 0.0732602 0.07586414 0.07902271 0.08249953 0.08586989 0.08870417 0.09089217 0.0926329
 0.09408608 0.0951744 0.09574195 0.09576704 0.09537308 0.0947239 0.09395962 0.09316532 0.09232073 0.09131072
 0.09009258 0.08886428 0.08795585 0.08752064 0.08742713 0.08745745 0.08749232 0.08749892 0.08746706 0.08739631
 0.08729772 0.08722051 0.08727795 0.08756629 0.08803833 0.08852386 0.08887934 0.08907897 0.08918055 0.08920555
 0.08902818 0.08847577 0.0876267 0.08684303 0.08631663 0.08574785 0.08474234 0.08342667 0.08239426 0.08206163
 0.0822895 0.08262902 0.08274691 0.08258785 0.08232407 0.08225887 0.08262612 0.08331038 0.08384351 0.08383562
</values></Ydata></ScRf><Data_Parameters_AB><parameter name="DPF">1</parameter><parameter name="NPT">3497</parameter><parameter name="FXV">3996</parameter><parameter name="LXV">500</parameter><parameter name="CSF">1</parameter><parameter name="MXY">0.381921887397766</parameter><parameter name="MNY">0.0386268794536591</parameter><parameter name="DAT">31/05/2022</parameter><parameter name="TIM">11:12:04.089 (GMT+2)</parameter><parameter name="DXU">WN</parameter></Data_Parameters_AB><AB__Qtest><MainReport name="Quality Test Report"><Header><Line><Legend>Test result ok/not ok [1/0]: </Legend><Value>0</Value></Line><Line><Legend>Method file: </Legend><Value>C:\Users\Public\Documents\Bruker\OPUS_8.2.28\QT\IRBT_v3_default.QT</Value></Line></Header><Matrix><Line><Legend></Legend><Legend>min</Legend><Legend>max</Legend><Legend>measured</Legend></Line><Line><Value>Absorption (X-Range 1):</Value><Value>0.400000</Value><Value>2.000000</Value><Value>0.202746</Value></Line><Line><Value>Noise (X-Range 4):</Value><Value></Value><Value>0.000300</Value><Value>0.000162</Value></Line><Line><Value>Signal/Noise (X-Range 2):</Value><Value>200.000000</Value><Value></Value><Value>16.108680</Value></Line><Line><Value>Signal/Noise (X-Range 3):</Value><Value>40.000000</Value><Value></Value><Value>16.007968</Value></Line><Line><Value>Water vapour (X-Range 5):</Value><Value></Value><Value>0.000300</Value><Value>0.000148</Value></Line><Line><Value>Signal/Water (X-Range 2):</Value><Value>100.000000</Value><Value></Value><Value>17.627192</Value></Line><Line><Value>Signal/Water (X-Range 3):</Value><Value>20.000000</Value><Value></Value><Value>17.516985</Value></Line><Line><Value>Fringes (X-Range 6):</Value><Value></Value><Value>0.000100</Value><Value>0.000116</Value></Line></Matrix></MainReport></AB__Qtest><Data_Parameters_ScSm><parameter name="DPF">1</parameter><parameter name="NPT">1814</parameter><parameter name="FXV">3996.33169228125</parameter><parameter name="LXV">499.541461535156</parameter><parameter name="CSF">1</parameter><parameter name="MXY">0.187578216195107</parameter><parameter name="MNY">0.0245185270905495</parameter><parameter name="DAT">31/05/2022</parameter><parameter name="TIM">11:12:04.089 (GMT+2)</parameter><parameter name="DXU">WN</parameter></Data_Parameters_ScSm><Data_Parameters_ScRf><parameter name="DPF">1</parameter><parameter name="NPT">1820</parameter><parameter name="FXV">4004.04661832813</parameter><parameter name="LXV">495.683998511719</parameter><parameter name="CSF">1</parameter><parameter name="MXY">0.265007376670837</parameter><parameter name="MNY">0.0302520804107189</parameter><parameter name="DAT">31/05/2022</parameter><parameter name="TIM">11:11:38.237 (GMT+2)</parameter><parameter name="DXU">WN</parameter></Data_Parameters_ScRf><Optic_Parameters_Rf><parameter name="APR">0</parameter><parameter name="APT">Open</parameter><parameter name="BMS">KBr</parameter><parameter name="DTC">RT-DLaTGS_IR-Biotyper [Microplate reader]</parameter><parameter name="HPF">0</parameter><parameter name="LPF">10.0</parameter><parameter name="LPV">4000</parameter><parameter name="PGR">0</parameter><parameter name="RCH">Module port</parameter><parameter name="RDX">0</parameter><parameter name="SRC">MIR</parameter><parameter name="VEL">10.0</parameter><parameter name="SON">Off</parameter></Optic_Parameters_Rf><Acquisition_Parameters_Rf><parameter name="ADT">1</parameter><parameter name="AQM">DD</parameter><parameter name="CFE">0</parameter><parameter name="COR">0</parameter><parameter name="DEL">0</parameter><parameter name="DLY">0</parameter><parameter name="HFW">8000</parameter><parameter name="LFW">0</parameter><parameter name="NSR">32</parameter><parameter name="PLF">AB</parameter><parameter name="RES">6</parameter><parameter name="RGN">-1</parameter><parameter name="STR">0</parameter><parameter name="TCL">MakeCompatibleScalar (0, {WSV=1.000000, ARV=0});</parameter><parameter name="TDL">37</parameter><parameter name="RPO">0</parameter></Acquisition_Parameters_Rf><FT_-_Parameters_Rf><parameter name="APF">B3</parameter><parameter name="HFQ">500</parameter><parameter name="LFQ">4000</parameter><parameter name="NLI">0</parameter><parameter name="PHR">24</parameter><parameter name="PHZ">ML</parameter><parameter name="SPZ">NO</parameter><parameter name="ZFF">1</parameter></FT_-_Parameters_Rf><Optic_Parameters_><parameter name="APR">0</parameter><parameter name="APT">Open</parameter><parameter name="BMS">KBr</parameter><parameter name="CHN">Module port</parameter><parameter name="DTC">RT-DLaTGS_IR-Biotyper [Microplate reader]</parameter><parameter name="HPF">0</parameter><parameter name="LPF">10.0</parameter><parameter name="LPV">4000</parameter><parameter name="PGN">0</parameter><parameter name="RDX">0</parameter><parameter name="SRC">MIR</parameter><parameter name="VEL">10.0</parameter><parameter name="SON">Off</parameter></Optic_Parameters_><FT_-_Parameters_><parameter name="APF">B3</parameter><parameter name="HFQ">500</parameter><parameter name="LFQ">4000</parameter><parameter name="NLI">0</parameter><parameter name="PHR">24</parameter><parameter name="PHZ">ML</parameter><parameter name="SPZ">NO</parameter><parameter name="ZFF">1</parameter></FT_-_Parameters_><Acquisition_Parameters_><parameter name="ADT">1</parameter><parameter name="AQM">DD</parameter><parameter name="CFE">0</parameter><parameter name="COR">0</parameter><parameter name="DEL">0</parameter><parameter name="DLY">0</parameter><parameter name="HFW">8000</parameter><parameter name="LFW">0</parameter><parameter name="NSS">32</parameter><parameter name="PLF">AB</parameter><parameter name="RES">6</parameter><parameter name="SOT">0</parameter><parameter name="TCL">MakeCompatibleScalar (0, {WSV=1.000000, ARV=0});</parameter><parameter name="TDL">37</parameter><parameter name="SPO">0</parameter><parameter name="SGN">-1</parameter></Acquisition_Parameters_><Instrument_Parameters_Rf><parameter name="HFL">15800.168544</parameter><parameter name="LFL">0</parameter><parameter name="LWN">15800.168544</parameter><parameter name="ABP">32197</parameter><parameter name="SSP">1</parameter><parameter name="ARG">2</parameter><parameter name="ASG">2</parameter><parameter name="ASS">32</parameter><parameter name="GFW">16</parameter><parameter name="GBW">16</parameter><parameter name="BFW">0</parameter><parameter name="BBW">0</parameter><parameter name="PKA">7269</parameter><parameter name="PKL">4996</parameter><parameter name="PRA">7450</parameter><parameter name="PRL">5001</parameter><parameter name="P2A">1</parameter><parameter name="P2L">1</parameter><parameter name="P2R">1</parameter><parameter name="P2K">1</parameter><parameter name="DAQ">0</parameter><parameter name="AG2">1</parameter><parameter name="SSM">1</parameter><parameter name="RSN">25421</parameter><parameter name="CRR">0</parameter><parameter name="SRT">1653995498.238</parameter><parameter name="DUR">19.6369934082031</parameter><parameter name="TSC">28.8</parameter><parameter name="MVD">0.231195524334908</parameter><parameter name="AN1">0.225792709871188</parameter><parameter name="AN2">0</parameter><parameter name="VSN">2.485 Apr  4 2017</parameter><parameter name="SRN">0085</parameter><parameter name="CAM">0</parameter><parameter name="INS">IR-Biotyper</parameter><parameter name="FOC">69</parameter><parameter name="RDY">1</parameter><parameter name="ARS">32</parameter></Instrument_Parameters_Rf><Sample_Parameters_><parameter name="BLD"></parameter><parameter name="CNM">Admin</parameter><parameter name="CPY"></parameter><parameter name="DPM"></parameter><parameter name="EXP">IRBT_v3_32Scans.XPM</parameter><parameter name="LCT"></parameter><parameter name="SFM">Microplate, HTS-XT</parameter><parameter name="SNM">220531-1021(v.3)_CLA33F (D_16)_D5_e0b8a8c2-fe34-4460-a59b-c86a231744a6.0</parameter><parameter name="XPP">C:\Users\Public\Documents\Bruker\OPUS_8.2.28\XPM</parameter><parameter name="IST">OK</parameter><parameter name="CPG">1252</parameter><parameter name="UID">73fdc3b7-877b-45ae-8d9f-75de2c1d19ed</parameter></Sample_Parameters_><Instrument_Parameters_><parameter name="HFL">15800.168544</parameter><parameter name="LFL">0</parameter><parameter name="LWN">15800.168544</parameter><parameter name="ABP">32197</parameter><parameter name="SSP">1</parameter><parameter name="ASG">4</parameter><parameter name="ARG">2</parameter><parameter name="ASS">32</parameter><parameter name="GFW">16</parameter><parameter name="GBW">16</parameter><parameter name="BFW">0</parameter><parameter name="BBW">0</parameter><parameter name="PKA">4918</parameter><parameter name="PKL">4988</parameter><parameter name="PRA">5083</parameter><parameter name="PRL">4993</parameter><parameter name="P2A">1</parameter><parameter name="P2L">1</parameter><parameter name="P2R">1</parameter><parameter name="P2K">1</parameter><parameter name="DAQ">0</parameter><parameter name="AG2">1</parameter><parameter name="SSM">1</parameter><parameter name="RSN">13336</parameter><parameter name="CRR">0</parameter><parameter name="SRT">1653995524.09</parameter><parameter name="DUR">19.6379852294922</parameter><parameter name="TSC">28.8</parameter><parameter name="MVD">0.410926848649979</parameter><parameter name="AN1">0.225823440974142</parameter><parameter name="AN2">0</parameter><parameter name="VSN">2.485 Apr  4 2017</parameter><parameter name="SRN">0085</parameter><parameter name="CAM">0</parameter><parameter name="INS">IR-Biotyper</parameter><parameter name="FOC">69</parameter><parameter name="RDY">1</parameter></Instrument_Parameters_><History/></OPUSDataFile>
