<?xml version="1.0" encoding="UTF-8" ?>
<OPUSDataFile><AB><Ydata ylabel="Absorbance Units"><values byteorder="INTEL" format="FLOAT32" numvalues="3497"> -0.0262181 -0.02622235 -0.02622901 -0.02623872 -0.02624169 -0.02623744 -0.02622177 -0.02619552 -0.02616789 -0.02614032
 -0.02612682 -0.02612566 -0.02613867 -0.02616227 -0.02618746 -0.02621584 -0.02624482 -0.02628016 -0.02633014 -0.02639008
 -0.02646356 -0.02653054 -0.02658134 -0.02660232 -0.0265815 -0.02653492 -0.02646061 -0.02639419 -0.0263414 -0.02632342
 -0.02634445 -0.02639167 -0.02646454 -0.02652959 -0.02658595 -0.02661253 -0.02661275 -0.02659568 -0.02656576 -0.02654493
 -0.02653188 -0.02653564 -0.02655002 -0.0265686 -0.02658753 -0.02659898 -0.02660443 -0.02660214 -0.02659561 -0.02658653
 -0.02657651 -0.02656749 -0.02655573 -0.02654157 -0.02651647 -0.02647831 -0.02642739 -0.02636224 -0.02630281 -0.02625012
 -0.02623143 -0.02624681 -0.02630514 -0.02640229 -0.02651879 -0.0266498 -0.02676672 -0.02687005 -0.02694505 -0.02699839
 -0.02703324 -0.02705876 -0.02708788 -0.02712251 -0.02717261 -0.02722305 -0.0272707 -0.02729454 -0.02728273 -0.0272374
 -0.02715209 -0.02705894 -0.02696068 -0.02689291 -0.0268599 -0.02687826 -0.02694923 -0.02706532 -0.02722402 -0.02739122
 -0.0275611 -0.0276791 -0.02774518 -0.02772342 -0.02763209 -0.02749473 -0.02733336 -0.02719914 -0.0270932 -0.02704043
 -0.02702427 -0.0270423 -0.02707111 -0.0270978 -0.02710535 -0.02708085 -0.02703255 -0.02695636 -0.0268829 -0.02681633
 -0.02678074 -0.02678036 -0.02680996 -0.02686957 -0.02693505 -0.02700603 -0.02707206 -0.02713561 -0.02720796 -0.02728952
 -0.0273901 -0.02750326 -0.02761931 -0.02772983 -0.02781419 -0.02787358 -0.02790075 -0.02790074 -0.02787873 -0.02782694
 -0.02774023 -0.02762084 -0.02745798 -0.02730183 -0.02715758 -0.02709373 -0.0271259 -0.02727352 -0.02754678 -0.0278677
 -0.02823325 -0.02845187 -0.02852033 -0.02834358 -0.02795479 -0.02752764 -0.02707854 -0.02676661 -0.02657125 -0.02652173
 -0.02659207 -0.02675745 -0.02698289 -0.02722294 -0.02743841 -0.02757795 -0.02763591 -0.02758317 -0.02747085 -0.02730837
 -0.02715157 -0.02702152 -0.02692437 -0.02686643 -0.02682798 -0.0268067 -0.02679998 -0.02680739 -0.02684371 -0.02690888
 -0.02700628 -0.0271313 -0.02725726 -0.02737684 -0.02744576 -0.02746522 -0.02741067 -0.02729962 -0.02714801 -0.0269787
 -0.02682633 -0.02670184 -0.02662846 -0.02659986 -0.02662117 -0.02667545 -0.02675876 -0.02685254 -0.02695194 -0.02704179
 -0.02711947 -0.02717121 -0.02719556 -0.02717941 -0.02712174 -0.02702598 -0.02689376 -0.0267522 -0.02660301 -0.02647132
 -0.02635564 -0.02626307 -0.02619243 -0.02614419 -0.02611811 -0.02611597 -0.02613232 -0.02616412 -0.02619833 -0.0262237
 -0.02622951 -0.02620409 -0.02615149 -0.02606745 -0.02597092 -0.02586416 -0.02577139 -0.02569742 -0.02565571 -0.02564921
 -0.02567255 -0.02572571 -0.02579505 -0.02588001 -0.02597058 -0.02606624 -0.02615923 -0.02624798 -0.0263216 -0.02638004
 -0.0264159 -0.02643438 -0.02643976 -0.02644049 -0.0264472 -0.02646976 -0.02651899 -0.02660395 -0.02673424 -0.02690926
 -0.02713634 -0.02738979 -0.02767023 -0.02792525 -0.02814652 -0.02829305 -0.02835782 -0.02833864 -0.02823502 -0.02804169
 -0.02775956 -0.02739753 -0.02696673 -0.0265487 -0.02615416 -0.02587448 -0.02570033 -0.02566034 -0.02572534 -0.02586217
 -0.02603334 -0.02617315 -0.02627776 -0.02631308 -0.02631421 -0.02629557 -0.0262729 -0.02626132 -0.02624384 -0.02621947
 -0.026169 -0.02608628 -0.02597739 -0.02584042 -0.02570488 -0.0255724 -0.02547262 -0.02540654 -0.02539242 -0.02542846
 -0.02551523 -0.02564312 -0.02577721 -0.02590242 -0.02595403 -0.02594192 -0.02584504 -0.02570185 -0.02555759 -0.02542391
 -0.02533528 -0.02526309 -0.02520173 -0.02512023 -0.02499766 -0.02484575 -0.02465704 -0.02448107 -0.02432664 -0.0242226
 -0.0241769 -0.02416236 -0.02417863 -0.024158 -0.02409832 -0.02395619 -0.02374095 -0.02349949 -0.02324283 -0.02304587
 -0.02290106 -0.02282633 -0.02281059 -0.02284188 -0.02291251 -0.02301288 -0.0231238 -0.02323062 -0.02330311 -0.02331664
 -0.02326239 -0.02312639 -0.02292812 -0.02267051 -0.02236768 -0.02202106 -0.02164984 -0.02125456 -0.02086976 -0.02049795
 -0.02015526 -0.01984163 -0.01955165 -0.01928595 -0.01904669 -0.01883629 -0.01866826 -0.01853964 -0.01845148 -0.01839489
 -0.01835477 -0.01832254 -0.0182851 -0.01822566 -0.01812977 -0.01797097 -0.01772019 -0.0173954 -0.01698568 -0.01655956
 -0.01613793 -0.01574848 -0.01540414 -0.01508411 -0.01478757 -0.01449453 -0.01420309 -0.01391839 -0.0136416 -0.01339945
 -0.01319168 -0.01303476 -0.01291606 -0.01279767 -0.01265415 -0.0123867 -0.01200423 -0.01145515 -0.01081671 -0.01017228
 -0.009568322 -0.009091786 -0.008708111 -0.008427759 -0.008188809 -0.007967218 -0.007722239 -0.007431509 -0.007105805 -0.006740055
 -0.00637399 -0.00601327 -0.005669228 -0.00534405 -0.005004921 -0.004650185 -0.004245433 -0.003794421 -0.003309518 -0.00279807
 -0.002299925 -0.001814817 -0.001362958 -0.0009393196 -0.0005433927 -0.0001718876 0.0001787745 0.000513367 0.0008371549 0.001153985
 0.001468711 0.00177935 0.002083132 0.002390697 0.002699044 0.003045713 0.003438833 0.003896388 0.004427604 0.004973514
 0.005531571 0.006021851 0.006443037 0.006787507 0.007061976 0.007316373 0.007554561 0.007822031 0.008112294 0.008433059
 0.008770898 0.009102662 0.009422253 0.009706961 0.009970739 0.0102127 0.01046424 0.01074566 0.01107502 0.01147306
 0.01191295 0.01239565 0.01287399 0.01333798 0.01376341 0.01414444 0.0144863 0.01478825 0.01507815 0.01535763
 0.01565959 0.01598374 0.01634346 0.01673532 0.01715122 0.01758885 0.01803861 0.0184976 0.01895901 0.0194125
 0.01984217 0.0202387 0.0205838 0.02088636 0.02114377 0.02137573 0.0215918 0.0217986 0.02200225 0.02219276
 0.02236805 0.02252669 0.02266577 0.02281157 0.02296519 0.02316526 0.0234128 0.02371969 0.02408093 0.02446157
 0.0248545 0.02520625 0.02552051 0.02577583 0.02598955 0.02618508 0.02637682 0.02659928 0.02684377 0.02711961
 0.02739915 0.02766564 0.02790533 0.0281006 0.0282774 0.02843503 0.02862027 0.0288435 0.02912818 0.02948134
 0.02988642 0.03034362 0.03081469 0.03129765 0.03175585 0.03218852 0.03257279 0.03291018 0.03319404 0.03342886
 0.03362231 0.03378211 0.03392622 0.03406164 0.03420673 0.03436072 0.03453073 0.03470962 0.03489242 0.03508212
 0.03527547 0.03548996 0.03573245 0.03600463 0.03631279 0.03662297 0.03693181 0.03721021 0.03745393 0.03769131
 0.03792464 0.03821515 0.03856067 0.03897366 0.03943847 0.03988914 0.04031334 0.04063353 0.04086389 0.04098949
 0.04104416 0.04107046 0.04108726 0.04113392 0.0411981 0.04128361 0.04137525 0.04146226 0.04155463 0.04165203
 0.04177009 0.04191453 0.04207835 0.0422624 0.04244893 0.04263632 0.04282006 0.04300021 0.04318347 0.04337082
 0.04357222 0.04379045 0.04404439 0.04433484 0.04467915 0.04506445 0.04547817 0.04589568 0.04627591 0.04660634
 0.04685428 0.04703493 0.04714507 0.0472127 0.04725039 0.0472746 0.04729315 0.04731286 0.04733465 0.04737252
 0.04742743 0.04751908 0.04764954 0.04782207 0.04803627 0.04827137 0.04852581 0.048776 0.04902327 0.04926198
 0.0494934 0.04972029 0.04993852 0.05014131 0.05032403 0.05047359 0.05059835 0.05069738 0.05079243 0.05089876
 0.05102796 0.05119481 0.05138066 0.05158565 0.05177884 0.05195099 0.05209948 0.05222004 0.05234191 0.05246748
 0.05261043 0.05277042 0.05291438 0.05303961 0.05310404 0.05311352 0.05307131 0.05299146 0.05291955 0.05286241
 0.05285994 0.05290208 0.05299447 0.05311689 0.05325124 0.05338319 0.05349306 0.05358979 0.05366605 0.05375867
 0.05387622 0.05405376 0.05430654 0.05461584 0.05498773 0.05534095 0.05567031 0.05589687 0.05601799 0.05602976
 0.05593908 0.05581144 0.055652 0.05552237 0.05541754 0.05535245 0.05532403 0.05533 0.05537711 0.05547798
 0.05562695 0.0558329 0.05605789 0.0562821 0.05646532 0.05657519 0.05662299 0.05659575 0.05655697 0.05651686
 0.05652976 0.05660895 0.0567462 0.05694435 0.05714205 0.05733616 0.05746572 0.05753211 0.05752238 0.05744677
 0.05734764 0.05723741 0.05717913 0.05717361 0.05725847 0.05741479 0.05763616 0.05789061 0.05814479 0.05837227
 0.05854078 0.05865005 0.05868551 0.05867845 0.05863195 0.05858973 0.05856122 0.05857822 0.05864688 0.05878087
 0.05898214 0.05925341 0.05959451 0.05999034 0.06043644 0.06088457 0.06132599 0.06168936 0.06197212 0.06212236
 0.06215713 0.06207974 0.06192723 0.0617521 0.06159148 0.06150741 0.0615054 0.06161966 0.06180526 0.06205887
 0.06230486 0.06251845 0.06264531 0.06266245 0.06258155 0.06239525 0.0621732 0.06191979 0.06170311 0.06152617
 0.06140508 0.06133702 0.06129726 0.06128475 0.06128002 0.06128788 0.06131456 0.06136278 0.06144582 0.06155279
 0.06167911 0.06179753 0.06188126 0.06190102 0.06182379 0.06164692 0.06135178 0.06097848 0.06053025 0.06006768
 0.05960439 0.0591826 0.05881158 0.05850255 0.05825814 0.0580684 0.05793262 0.05782159 0.05773281 0.05762682
 0.05750607 0.05735905 0.05719763 0.0570562 0.05693997 0.0568853 0.05687071 0.05688459 0.05689266 0.05685018
 0.05674857 0.05655775 0.05631325 0.05601788 0.05572907 0.05546717 0.05526843 0.05515084 0.05509592 0.05510909
 0.05512197 0.05512983 0.05506828 0.05493429 0.05472144 0.05443419 0.05411966 0.05378282 0.05347531 0.05319626
 0.05297081 0.05279368 0.05266749 0.05258227 0.05252663 0.05248547 0.05243861 0.05237614 0.05228098 0.05216154
 0.05201472 0.05186083 0.05170687 0.05156374 0.05143749 0.05131954 0.05121039 0.05109384 0.05096811 0.05082838
 0.05067443 0.05051591 0.05035355 0.05019899 0.05005183 0.0499157 0.04978996 0.04967446 0.04956889 0.04947366
 0.04938573 0.04930219 0.04921609 0.04911906 0.04900578 0.04886835 0.04870899 0.04852491 0.04832628 0.04811452
 0.04790398 0.04769779 0.04750801 0.04733747 0.04718836 0.04706175 0.04694764 0.04684548 0.04674073 0.04663305
 0.04651397 0.04638426 0.04624394 0.04609375 0.04593636 0.04577138 0.04559892 0.04541909 0.04523086 0.04503806
 0.04484282 0.04465319 0.04447422 0.04431676 0.04418645 0.0440947 0.04404804 0.04404744 0.04409932 0.04417349
 0.04427069 0.04433073 0.0443482 0.04427838 0.04411888 0.0438867 0.04358691 0.04328669 0.0429903 0.04275885
 0.04258664 0.04249014 0.04245348 0.04245111 0.04246435 0.0424509 0.04240407 0.04229406 0.04214097 0.04194518
 0.04174303 0.04155598 0.04139827 0.04128534 0.04119489 0.04112423 0.04105446 0.04097822 0.04091794 0.04087379
 0.04088531 0.04095459 0.04108182 0.04126286 0.04144558 0.04162458 0.04173939 0.04179378 0.04176536 0.04166848
 0.04152409 0.04134656 0.04117035 0.0409971 0.04084407 0.04070148 0.04056569 0.04043344 0.04029849 0.04017353
 0.04006217 0.0399726 0.03991136 0.03985968 0.03981676 0.03975676 0.0396754 0.0395815 0.03947535 0.03939906
 0.03935369 0.03936604 0.0394308 0.03953093 0.03965945 0.03978108 0.0398965 0.03998816 0.04006388 0.04012937
 0.04018905 0.0402541 0.04031412 0.04037004 0.04039447 0.04037394 0.04028655 0.04011425 0.03987771 0.0395701
 0.03925968 0.03895451 0.03871828 0.03856088 0.03848052 0.03847769 0.03848544 0.03849997 0.0384519 0.03834524
 0.03816522 0.03792609 0.03766958 0.03740942 0.03720125 0.03704517 0.03697069 0.03696004 0.03700837 0.03708728
 0.03717408 0.03724581 0.03728057 0.03728028 0.03723533 0.03717663 0.03710853 0.03706382 0.03705193 0.03706581
 0.03710834 0.03713205 0.03713435 0.03708315 0.03698105 0.03685787 0.03672045 0.03662974 0.0365813 0.03659605
 0.03665532 0.03672292 0.03678891 0.03681309 0.03681393 0.03679143 0.03678114 0.03681134 0.03690594 0.03708824
 0.03735891 0.03772487 0.03817517 0.03870898 0.03931421 0.03999051 0.04071774 0.04149602 0.04228271 0.04307558
 0.04380892 0.04447924 0.04502297 0.04544097 0.04570384 0.04581994 0.04580208 0.04566242 0.04543511 0.04513193
 0.04478594 0.04440854 0.04402451 0.04364336 0.04328064 0.04294051 0.04262933 0.04234784 0.04209691 0.04187958
 0.04169644 0.04155122 0.04144451 0.041379 0.04135419 0.0413821 0.04146322 0.04162621 0.04187235 0.04222782
 0.04268927 0.0432509 0.04390405 0.04461321 0.04537284 0.04615013 0.04694743 0.04775422 0.04857402 0.04940823
 0.05025586 0.05111593 0.05198954 0.05287481 0.05378125 0.05471229 0.05567405 0.05667248 0.05769043 0.05872936
 0.05974922 0.06074682 0.06168342 0.06255639 0.06335096 0.06406749 0.06471159 0.06528319 0.06578502 0.06621496
 0.06656348 0.06683512 0.0670295 0.06716881 0.06728573 0.06741156 0.06759781 0.06785957 0.06823059 0.06870027
 0.06927206 0.06993251 0.0706744 0.0715011 0.07241176 0.07341301 0.07450786 0.0756861 0.07694846 0.07826849
 0.07964492 0.08103848 0.0824457 0.08380857 0.08512149 0.0863179 0.08739605 0.08831174 0.08907061 0.08966469
 0.09009966 0.09038424 0.09051517 0.0904947 0.09031069 0.08995499 0.08941495 0.08867928 0.0877477 0.0866115
 0.08529883 0.08380716 0.08220224 0.08048879 0.07875791 0.07701799 0.07535322 0.07376951 0.0723101 0.07097451
 0.06975599 0.06865035 0.06762606 0.06668124 0.06579245 0.06495945 0.06417237 0.06342538 0.06270597 0.06200375
 0.06129955 0.06059175 0.05986858 0.05914486 0.05842322 0.05772553 0.05706037 0.05644462 0.05588423 0.05538936
 0.05496231 0.05461043 0.05433415 0.05414491 0.05404329 0.05404733 0.05415707 0.05437793 0.05470325 0.05509368
 0.05553485 0.05594736 0.05632505 0.05660381 0.05680453 0.05692579 0.0570135 0.05711882 0.05728986 0.0575857
 0.05803055 0.05866216 0.05946063 0.06043756 0.06152513 0.06271581 0.06391568 0.06511048 0.06621455 0.06721804
 0.06805585 0.06872375 0.06915458 0.06934368 0.06920601 0.06873911 0.06787575 0.06663256 0.06502688 0.0631049
 0.06098695 0.05872929 0.05648931 0.05429459 0.05224961 0.05033781 0.04858338 0.04695241 0.04542885 0.0439968
 0.0426437 0.04137283 0.04018384 0.03907584 0.03805058 0.03709314 0.03620259 0.03536161 0.03456893 0.033816
 0.03310269 0.03242799 0.03179183 0.03119331 0.03063191 0.03010477 0.02961198 0.02915251 0.02872619 0.02833424
 0.02797107 0.02763268 0.0273069 0.02698191 0.02664918 0.02629694 0.02593394 0.02555724 0.02519141 0.02484162
 0.02453099 0.02426627 0.02404982 0.02388478 0.02374623 0.02363309 0.02350922 0.02337369 0.02321049 0.02302274
 0.02282644 0.02262396 0.02243634 0.02225751 0.02208322 0.02190365 0.02169619 0.02146184 0.02118879 0.02089231
 0.02057965 0.02026998 0.01997631 0.01971277 0.01948895 0.01930909 0.01917925 0.01908443 0.01902602 0.01896914
 0.01891027 0.0188203 0.01869645 0.01854168 0.01835719 0.01817012 0.01798146 0.01781149 0.01765811 0.01752302
 0.01740413 0.01729626 0.01719925 0.0171109 0.01703037 0.0169562 0.01688641 0.01681815 0.01675209 0.01668693
 0.01662678 0.01657362 0.01652797 0.01649229 0.0164563 0.01641962 0.01636637 0.01629412 0.0161977 0.01607609
 0.01594389 0.01580222 0.01567453 0.01556085 0.01547342 0.01540909 0.01536162 0.01532677 0.01528889 0.01524768
 0.01519313 0.01513245 0.01506988 0.01501499 0.01498093 0.01496377 0.01497027 0.01497567 0.01497259 0.01493646
 0.01485503 0.01473302 0.01456576 0.0143852 0.01419419 0.01402061 0.013867 0.01373836 0.01363448 0.01354693
 0.01347511 0.01341114 0.01335421 0.01329696 0.01323804 0.01316938 0.01309152 0.01300049 0.01290077 0.01279591
 0.01269173 0.01259516 0.01250861 0.01243664 0.01237603 0.01232746 0.01228383 0.01224358 0.01219983 0.01215068
 0.01209414 0.01202924 0.01196058 0.01188829 0.01182 0.01175603 0.01170194 0.01165783 0.01162708 0.01160959
 0.01160759 0.01161928 0.01164221 0.01167129 0.01169613 0.01171156 0.01170547 0.01167788 0.01162336 0.01154739
 0.0114513 0.0113416 0.01122086 0.01109549 0.01096718 0.01084328 0.01072539 0.01061893 0.01052508 0.01044369
 0.01037497 0.01031418 0.01026101 0.0102095 0.01015923 0.01010412 0.0100442 0.009975927 0.009900412 0.009818776
 0.009732585 0.009645744 0.009558315 0.009472447 0.009386441 0.009299119 0.009210182 0.009118062 0.009026501 0.008935782
 0.008852875 0.00877995 0.008721572 0.008679976 0.008651194 0.008635738 0.008622559 0.008610951 0.008590873 0.008562025
 0.008521826 0.008470831 0.008412556 0.008347528 0.008280115 0.008210095 0.008139197 0.008066691 0.007991631 0.007914308
 0.007834097 0.007753259 0.00767355 0.007597169 0.007526587 0.007461101 0.007401465 0.007344779 0.007290303 0.007236042
 0.007181508 0.007125386 0.007067543 0.007006118 0.006940892 0.006872114 0.006799952 0.006729786 0.006661959 0.006602229
 0.006549738 0.006503902 0.006462945 0.006420857 0.006377662 0.006329804 0.006279932 0.006230227 0.006182914 0.006141948
 0.006105169 0.006073231 0.006040795 0.0060055 0.005964139 0.00591459 0.005858601 0.005795781 0.005730447 0.005662973
 0.005597609 0.005534642 0.005478465 0.005429322 0.005392035 0.005366376 0.005353127 0.005350486 0.005350918 0.005351795
 0.005340789 0.005317902 0.00527592 0.005219479 0.005151315 0.005077574 0.005005686 0.004938017 0.004879267 0.004826647
 0.004780324 0.004736398 0.004693402 0.00465017 0.004605902 0.004562293 0.004519401 0.004479259 0.004442061 0.004408456
 0.004378439 0.004350934 0.004325851 0.00430172 0.004278849 0.004257734 0.00423916 0.004225938 0.004218171 0.004218338
 0.004223767 0.004232761 0.004240013 0.004239714 0.004228282 0.004200085 0.004158852 0.004103294 0.004043643 0.003982595
 0.003928593 0.003884655 0.003850557 0.003827231 0.003807799 0.003791762 0.003774567 0.003756134 0.003739495 0.003724904
 0.003716643 0.003713532 0.003712449 0.003711225 0.003700941 0.003681827 0.003649141 0.003606387 0.00355637 0.003502627
 0.003449796 0.003399657 0.003354784 0.003315882 0.00328439 0.003258445 0.003238696 0.003218864 0.003197812 0.003170483
 0.00313546 0.003095338 0.003050016 0.003006291 0.002964408 0.002925956 0.002890545 0.002854563 0.002818268 0.00278081
 0.002743374 0.002709811 0.00267959 0.002654348 0.002630858 0.002604918 0.002574683 0.002535067 0.002490799 0.002442243
 0.002398228 0.002363931 0.002341495 0.002334671 0.002333943 0.002338573 0.002336788 0.002326224 0.002305241 0.002273088
 0.002238332 0.002201397 0.002170714 0.002146099 0.002129082 0.002118726 0.00211118 0.002105751 0.002098168 0.002088548
 0.002074898 0.002058076 0.002038303 0.002016895 0.001994965 0.001974408 0.001956945 0.001943519 0.001935596 0.001931135
 0.001930269 0.001928873 0.001925979 0.001919345 0.001908268 0.001893984 0.001876452 0.001858473 0.00184018 0.001823554
 0.001808488 0.001794831 0.00178206 0.001767266 0.001750337 0.001728741 0.001704183 0.00167886 0.001654852 0.001637041
 0.001624163 0.001617544 0.001613041 0.001607559 0.001600136 0.001588398 0.001576859 0.001566388 0.001561139 0.001562715
 0.00157032 0.001584399 0.001600752 0.001619087 0.0016359 0.001651021 0.001662761 0.00167118 0.001676301 0.001678256
 0.001677766 0.001674819 0.001669675 0.001662431 0.001653165 0.001642638 0.001631715 0.001621863 0.001615057 0.001611836
 0.001613953 0.001618833 0.001626282 0.001631708 0.001632991 0.001629653 0.001620174 0.001611362 0.001603925 0.001603918
 0.001612431 0.001624189 0.001638849 0.001642883 0.001635997 0.001609992 0.001566107 0.001506839 0.001433077 0.001349946
 0.001255405 0.001148404 0.001024461 0.0008766159 0.0007008802 0.0004900838 0.0002433738 -4.246554E-05 -0.0003657312 -0.0007261256
 -0.001123102 -0.001556372 -0.002025954 -0.002532487 -0.003072178 -0.003645655 -0.004240948 -0.004857696 -0.005477532 -0.006099291
 -0.0066927 -0.007253697 -0.007729762 -0.00811332 -0.008336183 -0.008393669 -0.008229459 -0.007854545 -0.007249716 -0.006468405
 -0.005569224 -0.004636625 -0.003786347 -0.003059906 -0.002531695 -0.002186932 -0.00204059 -0.002057709 -0.002235287 -0.00252107
 -0.002912412 -0.003316207 -0.003722834 -0.004028523 -0.004219963 -0.00428307 -0.004217226 -0.004091005 -0.003908056 -0.003731147
 -0.003559475 -0.003422661 -0.003314733 -0.00323345 -0.003169284 -0.003098969 -0.003018628 -0.002910804 -0.002778784 -0.002619877
 -0.002437089 -0.00223013 -0.002007116 -0.001768288 -0.001534375 -0.001312111 -0.001117939 -0.0009595462 -0.0008301546 -0.00073145
 -0.0006422126 -0.0005606145 -0.0004723967 -0.0003767979 -0.000274234 -0.0001654944 -6.000818E-05 4.143499E-05 0.0001294778 0.0002043767
 0.0002615269 0.0003027907 0.0003294019 0.0003447917 0.0003543325 0.0003619479 0.000374483 0.000392466 0.0004200495 0.0004511366
 0.0004846904 0.0005118661 0.0005286292 0.0005325702 0.000521175 0.0005012199 0.0004730538 0.0004449211 0.0004178464 0.0003936011
 0.0003723046 0.0003501108 0.0003268999 0.0002996906 0.0002693222 0.0002387868 0.0002095433 0.0001889656 0.0001761771 0.0001744369
 0.0001781953 0.0001806599 0.0001758187 0.000152706 0.0001133693 5.336202E-05 -1.571179E-05 -8.972525E-05 -0.0001572335 -0.0002122515
 -0.0002527608 -0.0002759775 -0.0002892965 -0.0002930151 -0.0002967238 -0.0003014422 -0.0003122973 -0.0003296033 -0.0003516439 -0.0003780446
 -0.0004035014 -0.0004278781 -0.0004474226 -0.0004628832 -0.0004747291 -0.0004840674 -0.0004936581 -0.0005042841 -0.0005185913 -0.0005363987
 -0.000558576 -0.0005845352 -0.000614221 -0.0006467343 -0.0006822321 -0.000717619 -0.0007525741 -0.0007814402 -0.0008027389 -0.0008129122
 -0.0008104281 -0.000799529 -0.0007800593 -0.0007618169 -0.0007453372 -0.000737855 -0.0007392415 -0.0007496379 -0.0007682615 -0.0007905483
 -0.0008160952 -0.0008406877 -0.0008652699 -0.0008898709 -0.0009157461 -0.0009455726 -0.0009783803 -0.001014937 -0.001051583 -0.001085496
 -0.00111484 -0.001136847 -0.001154866 -0.001169293 -0.001184001 -0.001200825 -0.00121755 -0.001234624 -0.001245429 -0.001249178
 -0.001243601 -0.001228507 -0.001211938 -0.001194634 -0.001189048 -0.00119481 -0.001216797 -0.001252384 -0.001294697 -0.001341652
 -0.001384066 -0.001423248 -0.00145714 -0.001487853 -0.001518004 -0.001546059 -0.001572174 -0.001593126 -0.001606444 -0.001612963
 -0.001611545 -0.001607383 -0.001601367 -0.001598314 -0.001599242 -0.001606201 -0.001619602 -0.001639175 -0.001664943 -0.001693179
 -0.001723367 -0.001747384 -0.001764907 -0.001768982 -0.001761379 -0.001744083 -0.001720626 -0.001700998 -0.00168629 -0.001684208
 -0.001690495 -0.001703767 -0.001718479 -0.001728846 -0.001734436 -0.001732311 -0.001727595 -0.001721161 -0.001718737 -0.001722015
 -0.001734076 -0.00175597 -0.001787053 -0.001827713 -0.001872497 -0.00192114 -0.001965079 -0.002003977 -0.002031229 -0.002047249
 -0.002050876 -0.002043516 -0.002029476 -0.002010351 -0.001992351 -0.001975834 -0.001964831 -0.001957265 -0.001952262 -0.001948017
 -0.001941735 -0.001935917 -0.001930288 -0.001930488 -0.001939 -0.001957827 -0.001989092 -0.002027062 -0.002071794 -0.002113354
 -0.002150759 -0.002176679 -0.002190573 -0.002193242 -0.002185201 -0.002174612 -0.002161982 -0.002155155 -0.002152976 -0.002155536
 -0.002160897 -0.002163784 -0.002164331 -0.002159682 -0.00215251 -0.002144996 -0.002138894 -0.002136862 -0.002138059 -0.002142947
 -0.002149725 -0.002157842 -0.002165891 -0.002173492 -0.00217935 -0.002183167 -0.002184198 -0.00218209 -0.002179576 -0.00217676
 -0.002179497 -0.002187859 -0.002204298 -0.002227603 -0.002251402 -0.002273874 -0.002283918 -0.002282307 -0.002263861 -0.002233861
 -0.002198281 -0.002163495 -0.002140488 -0.002130006 -0.002138404 -0.002157686 -0.002186276 -0.002213157 -0.002232913 -0.002242049
 -0.002237133 -0.002225561 -0.002207589 -0.002193125 -0.002183606 -0.002181004 -0.002185614 -0.002191206 -0.002197549 -0.002199855
 -0.002198845 -0.00219699 -0.002195179 -0.00219864 -0.002206629 -0.002220213 -0.002237577 -0.002255706 -0.002274233 -0.002291246
 -0.002307695 -0.002324027 -0.002340142 -0.00235647 -0.002371461 -0.002384544 -0.002394895 -0.002402053 -0.002406395 -0.002407963
 -0.002406762 -0.002402818 -0.002395772 -0.002385584 -0.002373196 -0.002358753 -0.002344836 -0.002331597 -0.002321416 -0.002314127
 -0.002310404 -0.002309892 -0.002311949 -0.002316511 -0.002323262 -0.002331987 -0.002342679 -0.00235401 -0.002364842 -0.002374292
 -0.002380728 -0.0023868 -0.002392726 -0.002402709 -0.002418568 -0.002439522 -0.002466304 -0.002493313 -0.002519915 -0.002543369
 -0.002563405 -0.002581897 -0.002598884 -0.002615074 -0.002630426 -0.002644422 -0.002657994 -0.002674624 -0.002695156 -0.002724642
 -0.002760666 -0.002802295 -0.002844325 -0.00287954 -0.002905548 -0.0029165 -0.002916269 -0.002904474 -0.00288851 -0.002871432
 -0.002857466 -0.002849099 -0.002844297 -0.002843426 -0.002841705 -0.00283838 -0.002833267 -0.002826219 -0.002822076 -0.002820971
 -0.002825702 -0.002835573 -0.002847052 -0.002859175 -0.002865817 -0.002867346 -0.002861035 -0.002849083 -0.002834036 -0.002818109
 -0.002805588 -0.002796248 -0.002791801 -0.002790041 -0.002789805 -0.00279061 -0.002791486 -0.002794607 -0.002800582 -0.002810108
 -0.00282397 -0.002838403 -0.002853339 -0.002862802 -0.002866406 -0.00285945 -0.002841921 -0.00281364 -0.00277554 -0.002734151
 -0.002690591 -0.002653277 -0.002621835 -0.002599764 -0.002585702 -0.00257851 -0.002577819 -0.00258297 -0.002593074 -0.002608191
 -0.002624202 -0.002639025 -0.002648453 -0.002649525 -0.002643102 -0.002628284 -0.002609393 -0.002587076 -0.00256448 -0.002542125
 -0.00252096 -0.00250113 -0.00248106 -0.002460636 -0.002437314 -0.002411476 -0.002384384 -0.00235733 -0.00233669 -0.002322739
 -0.002320483 -0.002327107 -0.002340487 -0.002356097 -0.002367259 -0.00237103 -0.002361682 -0.002340743 -0.00230646 -0.002264676
 -0.002217187 -0.002169165 -0.002122812 -0.00207896 -0.002038086 -0.002000157 -0.001964963 -0.001935465 -0.001911866 -0.001895975
 -0.001887678 -0.001883912 -0.001884423 -0.001885715 -0.001888123 -0.001891452 -0.001895685 -0.001901001 -0.001906437 -0.001910284
 -0.001911769 -0.001909304 -0.001902181 -0.001889194 -0.001870107 -0.00184352 -0.001812824 -0.001778209 -0.00174618 -0.001719009
 -0.001699058 -0.001687919 -0.001680944 -0.00167798 -0.001672958 -0.001665398 -0.00165272 -0.001635007 -0.001614911 -0.001593053
 -0.001575684 -0.001562785 -0.001558599 -0.001560566 -0.001564524 -0.001566439 -0.001555596 -0.00153269 -0.001492314 -0.001441997
 -0.001386518 -0.001332295 -0.001285792 -0.001246483 -0.001216362 -0.00119095 -0.00116954 -0.001147685 -0.00112426 -0.001097531
 -0.001066813 -0.001034912 -0.001001827 -0.0009748454 -0.0009543048 -0.0009470244 -0.0009520091 -0.0009658323 -0.0009847394 -0.0009902448
 -0.0009800845 -0.0009352433 -0.0008631994 -0.0007676193 -0.0006602493 -0.0005600594 -0.0004691988 -0.0003977479 -0.0003399673 -0.0002950831
 -0.000258061 -0.000226542 -0.0001974526 -0.0001700895 -0.0001395031 -0.0001049225 -6.104528E-05 -6.87131E-06 5.819122E-05 0.0001343983
 0.0002175483 0.0003073259 0.0003971207 0.0004865717 0.0005694351 0.00064627 0.0007157798 0.0007796457 0.000841909 0.0009039103
 0.0009700475 0.001041117 0.001120117 0.001206895 0.001303912 0.00140561 0.00151082 0.001609275 0.001694773 0.001766703
 0.001820872 0.001872761 0.001924336 0.001990263 0.002074042 0.002169472 0.002276719 0.002378514 0.002474567 0.002564261
 0.002650047 0.002752795 0.002873644 0.003031567 0.003219932 0.003430452 0.003654428 0.003868473 0.004074205 0.004262017
 0.004441875 0.004620049 0.004803536 0.005000612 0.005207924 0.005426601 0.005650092 0.005874208 0.006106278 0.006342685
 0.00661824 0.006933954 0.00734611 0.007859556 0.008498942 0.009263578 0.01011061 0.01103876 0.01201346 0.01304675
 0.01417368 0.01541025 0.01682544 0.01841704 0.02022387 0.02220963 0.02434956 0.02658724 0.02886089 0.03113208
 0.03335341 0.03552353 0.03763274 0.03967971 0.04167742 0.04354963 0.04529432 0.04678005 0.04798654 0.04885861
 0.04938785 0.04961399 0.04953976 0.04922835 0.04868478 0.0479777 0.04711197 0.04614787 0.04508436 0.04394362
 0.04273645 0.04148166 0.04022336 0.03903332 0.03793485 0.03699011 0.03616055 0.03544138 0.03478939 0.03417993
 0.03360201 0.03304566 0.03251706 0.03201531 0.03154966 0.03111916 0.03075047 0.03044494 0.0302408 0.03013855
 0.03012227 0.03018654 0.03027227 0.0303818 0.03049447 0.03061841 0.0307683 0.03094752 0.03117007 0.03143589
 0.03174734 0.03211346 0.03253637 0.03304711 0.03366405 0.03441925 0.03534637 0.0364037 0.03760122 0.03882176
 0.04004158 0.04118751 0.04224244 0.04320926 0.04408542 0.04490864 0.04568186 0.04647646 0.0473004 0.04826548
 0.04936245 0.0506257 0.05200061 0.05332687 0.05459105 0.0556683 0.05662165 0.05749045 0.05832389 0.05919288
 0.06009917 0.06106734 0.0620807 0.06313556 0.06422567 0.06535327 0.06649025 0.06763418 0.06874385 0.06980971
 0.07084271 0.07184257 0.07283334 0.07381456 0.07473599 0.07559277 0.07631169 0.07690309 0.07737538 0.07775007
 0.07810427 0.07843554 0.0787884 0.07911973 0.07937572 0.07955328 0.07961441 0.07961404 0.07958356 0.07954659
 0.07953244 0.07950772 0.07946913 0.07938129 0.07923214 0.07902442 0.078754 0.07845437 0.07812726 0.07781245
 0.07751118 0.07722203 0.07694101 0.07662729 0.07627972 0.07587065 0.07540371 0.07487386 0.07428916 0.07366113
 0.07300304 0.0723395 0.07167783 0.07103699 0.070411 0.06980036 0.06920212 0.068611 0.0680415 0.06749673
 0.06699022 0.06652825 0.0661006 0.06570722 0.06533338 0.06497702 0.06464552 0.0643395 0.06408317 0.063877
 0.0637359 0.06365679 0.06363215 0.06365829 0.06371885 0.06381436 0.06393666 0.06409135 0.06428219 0.06451692
 0.06480464 0.06515104 0.06556295 0.06604257 0.06659193 0.06721434 0.06791005 0.06868745 0.06954982 0.07049494
 0.07152656 0.07260937 0.07374207 0.07487249 0.07599816 0.07709103 0.07814988 0.07915892 0.08010671 0.08092701
 0.08160647 0.08205608 0.08229703 0.08232355 0.08218008 0.08193079 0.08160554 0.08126182 0.08090365 0.08055214
 0.08019996 0.07984474 0.07949443 0.07914357 0.07883464 0.07857247 0.07841266 0.0783722 0.07840983 0.07852679
 0.07862142 0.07868949 0.07871272 0.0786946 0.07866655 0.07863041 0.07861156 0.07860859 0.07862958 0.07867391
 0.07874596 0.07884085 0.07896824 0.07907997 0.07914764 0.07907663 0.07878096 0.07823317 0.07738583 0.07628418
 0.07492556 0.07338541 0.0716681 0.06989865 0.06809293 0.06635991 0.06471352 0.0631649 0.06171454 0.06031696
 0.05897203 0.05766155 0.05639229 0.05519244 0.05406531 0.05304173 0.05210907 0.05125868 0.05046809 0.04969936
 0.04893764 0.04815233 0.04733967 0.04648941 0.0455959 0.0446514 0.04366218 0.04261396 0.0415837 0.0405821
 0.03969373 0.03894314 0.03828621 0.03772299 0.03718148 0.03665847 0.03614924 0.03565715 0.03522148 0.0348409
 0.03452887 0.03427903 0.03407069 0.03391403 0.03381577 0.0338018 0.03391938 0.03417357 0.03459597 0.03515752
 0.03584684 0.0366398 0.03752104 0.0384779 0.03950559 0.04058453 0.04170566 0.0428773 0.04409068 0.04543276
 0.04691078 0.04859672 0.05049291 0.05243802 0.05441309 0.05613524 0.05761247 0.05874193 0.0595518 0.06008146
 0.06035283 0.06042744 0.06033219 0.06012956 0.05985219 0.05955527 0.05926755 0.0590322 0.05884643 0.05873142
 0.05863205 0.05853227 0.05839749 0.05820952 0.05799368 0.05774906 0.05751768 0.05730401 0.05712577 0.05698395
 0.05686107 0.05675568 0.05664435 0.05652847 0.05640363 0.05627318 0.05614713 0.05602577 0.05591759 0.05581427
 0.0557072 0.05558717 0.05543619 0.05526359 0.05506491 0.05486912 0.05468816 0.05454938 0.05446687 0.05444731
 0.05449542 0.05460816 0.05478499 0.05503001 0.05534459 0.05571759 0.05614832 0.05657646 0.05699803 0.05734362
 0.05761671 0.05780053 0.05790394 0.05794906 0.05794075 0.0579017 0.05783113 0.05773867 0.05761938 0.05747267
 0.05729035 0.05706749 0.05679332 0.05646127 0.05606348 0.05559262 0.05505859 0.05445731 0.05382729 0.05317158
 0.05253726 0.0519298 0.05136797 0.05085302 0.05038031 0.04995026 0.04956657 0.04923133 0.04896008 0.04875169
 0.04861315 0.04853585 0.04850673 0.04850979 0.04851772 0.04850789 0.04844633 0.04831391 0.04807988 0.04775317
 0.04732085 0.04683146 0.04629575 0.04576719 0.04526398 0.04479985 0.04438275 0.04398947 0.04361869 0.04324902
 0.0428792 0.04251632 0.04216204 0.0418413 0.04155372 0.04131053 0.04110784 0.04093713 0.04079677 0.04067854
 0.04058293 0.04050854 0.04045216 0.04041094 0.04037834 0.0403483 0.04031688 0.04027983 0.04023777 0.04018941
 0.04013868 0.04008571 0.04003691 0.03999327 0.03995961 0.03993689 0.03992176 0.03991411 0.03990678 0.03990021
 0.03989802 0.03990317 0.03993521 0.03999736 0.04011288 0.04028001 0.04050867 0.04078937 0.04111295 0.04146622
 0.04183173 0.04219732 0.04254975 0.04287605 0.04316794 0.04340995 0.04359476 0.04371252 0.04375775 0.04373508
 0.04364287 0.04349825 0.04330201 0.04307658 0.04282324 0.04256478 0.04230204 0.04205149 0.04181235 0.04158865
 0.04137847 0.04117686 0.04098297 0.04079167 0.0406045 0.04042124 0.04024472 0.04007812 0.03992358 0.03978433
 0.03965969 0.03955033 0.03945464 0.03937093 0.03930363 0.03925202 0.03922831 0.03923429 0.03927973 0.03936672
 0.03948899 0.03964641 0.03981515 0.03999363 0.04015407 0.0402966 0.04040655 0.04048819 0.04054814 0.04059296
 0.04064211 0.04069927 0.04078094 0.04088355 0.04101102 0.04115396 0.04130634 0.04146026 0.04160833 0.04175162
 0.04188746 0.04202457 0.04216471 0.04231424 0.04247539 0.04264484 0.04282283 0.04300101 0.04317887 0.0433532
 0.04352447 0.04369951 0.04387937 0.04407493 0.04428533 0.04451447 0.04475788 0.04500755 0.04525724 0.04549304
 0.04571032 0.04589819 0.04605448 0.04617342 0.04625608 0.04630047 0.0463121 0.04629204 0.046247 0.04617937
 0.04609078 0.04598223 0.04585099 0.04569666 0.04551999 0.04532092 0.04510639 0.04487695 0.04464203 0.04440229
 0.04416653 0.04393506 0.04371403 0.04350272 0.0433027 0.04311249 0.04293009 0.04275489 0.04258496 0.0424213
 0.04226316 0.04211462 0.04197667 0.0418564 0.0417569 0.04168218 0.04163536 0.04160999 0.04160613 0.04161268
 0.04162791 0.04165113 0.04168201 0.04173533 0.04181202 0.04192972 0.04208751 0.04228937 0.04253078 0.04279689
 0.04308308 0.04336837 0.04365495 0.04393474 0.04421765 0.04451234 0.04482724 0.04517423 0.04555141 0.04596229
 0.04639851 0.04685711 0.04733392 0.04782635 0.04833759 0.04886777 0.0494205 0.04999706 0.05058946 0.05119754
 0.05179935 0.05239372 0.05295867 0.05349545 0.0540005 0.0544783 0.05494451 0.05540222 0.0558692 0.05634132
 0.05682243 0.05729968 0.0577604 0.05819016 0.0585709 0.05889943 0.05916594 0.0593823 0.0595499 0.0596831
 0.05978601 0.05986742 0.0599285 0.05998107 0.06002574 0.06008027 0.06014587 0.06023237 0.0603395 0.06046152
 0.06059721 0.06073506 0.06087479 0.06100902 0.06113857 0.06126132 0.06137955 0.06149576 0.06161322 0.06173682
 0.06186911 0.06201321 0.06217266 0.06234881 0.06254946 0.06277706 0.06304101 0.06334419 0.06369309 0.06408993
 0.06453437 0.0650279 0.06555485 0.06611473 0.0666744 0.06723226 0.06775834 0.06825385 0.06871288 0.0691383
 0.069539 0.06991552 0.07027242 0.07061191 0.0709372 0.07125781 0.07158588 0.07193158 0.07231065 0.0727194
 0.07316528 0.07362385 0.07409058 0.07453156 0.07493558 0.07528622 0.0755755 0.07581954 0.07601786 0.07620069
 0.07637005 0.07654345 0.07672106 0.07690352 0.07708951 0.07727046 0.07744441 0.07759814 0.07773206 0.0778387
 0.07792374 0.07799403 0.07805412 0.0781147 0.07817151 0.07822571 0.07826895 0.07829636 0.07830293 0.07828506
 0.07824199 0.07817098 0.07808176 0.07797345 0.07786974 0.07777307 0.07770252 0.07765993 0.07764053 0.07764359
 0.07765302 0.07766843 0.07768038 0.07768816 0.07768416 0.07766695 0.07762697 0.07756773 0.07748967 0.07740075
 0.07731199 0.07722708 0.07715353 0.07709099 0.07703979 0.0770044 0.07698572 0.0769913 0.07702462 0.07708474
 0.07717425 0.07727645 0.07739098 0.07749074 0.07757377 0.07762334 0.07763974 0.07763352 0.0776066 0.07758033
 0.07755216 0.07752294 0.07748782 0.07743177 0.0773571 0.07726028 0.07714709 0.07702589 0.07689409 0.07675302
 0.07659722 0.07642113 0.07623055 0.07602467 0.07581682 0.07561106 0.07541444 0.07522996 0.07505412 0.07488749
 0.07471962 0.07454985 0.07436895 0.07417695 0.07397694 0.07376989 0.07356597 0.07336336 0.07316061 0.0729528
 0.07272545 0.07247539 0.07219019 0.07186817 0.07150299 0.07109167 0.07062835 0.07011472 0.06954792 0.06893826
 0.06828895 0.0676095 0.06690373 0.06617459 0.06542289 0.064652 0.06386215 0.0630587 0.0622421 0.06141296
 0.06057125 0.05971552 0.05884639 0.05796763 0.05708112 0.05619617 0.05531622 0.0544542 0.0536159 0.05281819
 0.05206513 0.05137036 0.05073135 0.0501516 0.04962435 0.04914767 0.04871188 0.04831619 0.04793843 0.04757691
 0.04719142 0.04677564 0.04629049 0.04572869 0.04508338 0.04435226 0.04357231 0.04274622 0.04193144 0.0411296
 0.04038069 0.03968133 0.03903833 0.03844697 0.03789712 0.03738705 0.03690872 0.03646208 0.03604363 0.03565435
 0.03529324 0.03496373 0.0346682 0.03440748 0.03418468 0.03399066 0.03382464 0.03367303 0.03353269 0.03339707
 0.03326462 0.03313597 0.03301103 0.03289157 0.03277769 0.03267059 0.03257045 0.03247872 0.03239632 0.0323272
 0.03227406 0.03224702 0.0322473 0.03228514 0.03235233 0.03244539 0.03254689 0.03263935 0.0327105 0.03274409
 0.03274608 0.03271175 0.03266233 0.0326017 0.03255307 0.03252226 0.03252035 0.03255089 0.03260481 0.03268212
 0.0327629 0.03284638 0.03292151 0.03298955 0.0330561 0.03312362 0.03320625 0.03330528 0.03343283 0.03358619
 0.03376859 0.03396957 0.03417899 0.03438017 0.03455367 0.03468878 0.03476878 0.03480367 0.03478862 0.03475535
 0.03471047 0.03468689 0.03469462 0.03473907 0.03482485 0.03492501 0.03503827 0.03513326 0.03520898 0.03525745
 0.03528018 0.03528716 0.03527905 0.03526391 0.03524128 0.035213 0.03518059 0.03514774 0.03511621 0.03509146
 0.0350702 0.03505253 0.03503109 0.03499958 0.03495827 0.03490185 0.03484783 0.03479803 0.03477816 0.03479504
 0.03485766 0.03497064 0.03511247 0.03528275 0.03544298 0.03559141 0.03569949 0.03576866 0.03579836 0.03579404
 0.03578096 0.03576328 0.03576922 0.03579352 0.03584202 0.03590056 0.0359512 0.03598499 0.03598323 0.03595337
 0.03589273 0.03581659 0.03573284 0.03564549 0.03555899 0.03546596 0.03536433 0.03525604 0.03513933 0.03503409
 0.03494175 0.03487697 0.03483995 0.0348202 0.03481657 0.03481236 0.03481058 0.03481695 0.0348356 0.03488494
 0.03496023 0.03506293 0.03518113 0.03529769 0.03540641 0.03549243 0.03556174 0.03561173 0.03565639 0.03570053
 0.03575822 0.03583553 0.03593773 0.03606838 0.03622017 0.03639334 0.03657445 0.0367625 0.03694703 0.0371277
 0.03730341 0.03747542 0.03765494 0.03784373 0.03805748 0.03829461 0.03855985 0.03884742 0.03914844 0.03945627
 0.03975897 0.04004858 0.04031342 0.04054714 0.04073799 0.04089701 0.04102074 0.04114221 0.04127071 0.04143228
 0.04163766 0.04187873 0.04215806 0.0424453 0.04273842 0.04301098 0.04326183 0.04347906 0.04366375 0.04382078
 0.04395342 0.04408028 0.04420387 0.04434223 0.04449468 0.04466869 0.04486198 0.04507516 0.04530387 0.04554532
 0.04579195 0.04603852 0.04627739 0.04650498 0.04671171 0.04689504 0.0470423 0.04714787 0.04721836 0.04724997
 0.04728632 0.04733 0.04742788 0.04758178 0.0477975 0.04807279 0.04838593 0.04873732 0.04911772 0.04953023
 0.04998015 0.05046929 0.05100468 0.0515851 0.05221669 0.05288349 0.05357898 0.05426665 0.05492045 0.05551089
 0.05601323 0.05642899 0.05675291 0.05699454 0.05715733 0.05723412 0.05722396 0.05712309 0.05692956 0.05667018
 0.05634675 0.05601202 0.05566951 0.055376 0.05513085 0.05496447 0.05486625 0.05481977 0.05481248 0.05480659
 0.05480282 0.05478485 0.05476021 0.05473383 0.05470243 0.05466614 0.0546186 0.0545539 0.05447934 0.05439482
 0.05431276 0.05423646 0.05417071 0.05411708 0.05407401 0.05404206 0.05400979 0.05397651 0.05392342 0.05385139
 0.05376184 0.05365913 0.05356934 0.05349114 0.05343669 0.05339596 0.05335229 0.05329956 0.05322001 0.05311512
 0.05297896 0.05281736 0.05262699 0.05243247 0.05223683 0.052091 0.0520183 0.0520266 0.05213551 0.05225737
 0.05238144 0.05244919 0.0524521 0.05240048 0.05229476 0.05215985 0.05199781 0.05183932 0.05168537 0.0515601
 0.05145777 0.05137153 0.05129742 0.05121937 0.05114628 0.05108624 0.05104322 0.0510303 0.05103029 0.05103435
 0.05103023 0.05100479 0.05097074 0.05092869 0.05089412 0.05087097 0.05086682 0.05088248 0.05093 0.05101098
 0.05112732 0.05127887 0.05143581 0.0515954 0.05171682 0.05179925 0.05181769 0.05177229 0.05164835 0.05145073
 0.05117628 0.05084663 0.05048827 0.05013316 0.04982531 0.04958504 0.04944261 0.0494009 0.04947637 0.04963753
 0.04988764 0.05015128 0.05041115 0.05061705 0.05075085 0.05085704 0.0509358 0.05106344 0.05124361 0.05148485
 0.05178401 0.05210467 0.05244682 0.05279299 0.05314507 0.05350213 0.05386135 0.05421721 0.05456332 0.05488844
 0.05518515 0.05543841 0.05565308 0.0558217 0.05597201 0.05611506 0.05627531 0.05646635 0.05668891 0.05694433
 0.05723706 0.05756682 0.05794806 0.05838404 0.05885318 0.05935428 0.05983215 0.06028652 0.06069687 0.0610686
 0.0614252 0.06176453 0.06209435 0.06240302 0.06266765 0.06287934 0.06301457 0.06306749 0.06302144 0.06287899
 0.06263044 0.06230196 0.06190038 0.06146125 0.06099758 0.0605356 0.06008145 0.05966369 0.0592874 0.058973
 0.05872526 0.05851812 0.05835028 0.0581752 0.0579932 0.05779702 0.05758903 0.05738201 0.05717124 0.05694405
 0.05670116 0.05643346 0.05615488 0.05588748 0.05563117 0.05540024 0.05517283 0.05493611 0.0546759 0.0543805
 0.05404636 0.05367061 0.05324788 0.0527709 0.05226739 0.05173357 0.05124997 0.05082349 0.05051904 0.05034042
 0.05026571 0.05028908 0.05032938 0.05038157 0.05037418 0.05031 0.05015732 0.04992948 0.04963955 0.0493045
 0.04895966 0.04860941 0.0482713 0.0479475 0.04764001 0.04736668 0.04713843 0.0469633 0.046852 0.04678198
 0.04674945 0.046738 0.04674294 0.04676902 0.04681775 0.04686879 0.04692108</values></Ydata></AB><ScSm><Ydata ylabel="Single channel"><values byteorder="INTEL" format="FLOAT32" numvalues="1814"> 0.06490798 0.06491913 0.06498999 0.06513758 0.06533395 0.06551982 0.0656455 0.06570405 0.06571709 0.06569526
 0.06564277 0.06560066 0.06564194 0.06579994 0.06601952 0.06619213 0.06624021 0.06618524 0.06613969 0.06619801
 0.06630881 0.06628302 0.06597246 0.06544231 0.06493104 0.0646288 0.06455879 0.06471875 0.0651951 0.065929
 0.06646381 0.06627623 0.06543539 0.06462467 0.06438391 0.06459159 0.06478871 0.06470877 0.06435902 0.06390755
 0.06372312 0.06428185 0.06570163 0.06734877 0.06805973 0.06687465 0.06372473 0.05965198 0.05642427 0.05558896
 0.05738669 0.06043412 0.06275973 0.06337544 0.06275558 0.06184919 0.06105284 0.06032588 0.05985329 0.06008714
 0.06112947 0.06230849 0.06252281 0.0611822 0.05890356 0.05707196 0.05657341 0.05723387 0.05855804 0.06027763
 0.06160993 0.06081609 0.05690297 0.05180788 0.04955224 0.05242237 0.05852874 0.06365058 0.06499398 0.06277148
 0.05899111 0.05578383 0.05459127 0.05577707 0.05856482 0.06168347 0.06413907 0.06526242 0.0645339 0.06203093
 0.05887758 0.05670748 0.05666131 0.05893289 0.06272312 0.06631367 0.0678478 0.06669784 0.06388246 0.06098943
 0.05912784 0.05892453 0.06068059 0.06406412 0.06808536 0.07166709 0.07408731 0.07505853 0.07478716 0.07383962
 0.07271109 0.07174354 0.07142678 0.0720998 0.07315606 0.0732694 0.07183646 0.06978046 0.06859848 0.06880896
 0.0695359 0.06957585 0.0686198 0.06706111 0.06480065 0.06120735 0.0565599 0.05245393 0.05020696 0.04984163
 0.05102532 0.05359701 0.05646463 0.05753043 0.05598759 0.05379586 0.05374466 0.05647585 0.06014584 0.06266825
 0.06364449 0.06422733 0.06563798 0.06791745 0.06976573 0.06952349 0.06681468 0.06347521 0.06225963 0.06414041
 0.06737088 0.06963347 0.07048476 0.07111846 0.07227187 0.07308394 0.07199158 0.06858721 0.06463147 0.0629752
 0.06507793 0.06954432 0.07313403 0.07316399 0.06931569 0.06370749 0.05923986 0.05758762 0.05874566 0.06213117
 0.06723393 0.07303545 0.07773438 0.07975479 0.07890055 0.07626975 0.07299703 0.06920083 0.0645804 0.06016202
 0.0585206 0.06135093 0.06730895 0.07313022 0.07654336 0.07741094 0.07647409 0.07396036 0.06977633 0.06483352
 0.06149803 0.06176633 0.06486765 0.06768657 0.06802511 0.0666149 0.06552909 0.0655924 0.0660609 0.06620536
 0.06634925 0.06730781 0.06921956 0.07122336 0.07229134 0.07216941 0.0714283 0.07079519 0.07049005 0.0700662
 0.06903391 0.06782729 0.06776509 0.06961652 0.07255225 0.07499359 0.07619813 0.07654735 0.07650489 0.07579954
 0.07382149 0.07077236 0.06814706 0.06763153 0.06947525 0.07233116 0.07466123 0.07584515 0.07604326 0.07564726
 0.07501162 0.07433619 0.07372134 0.07342031 0.07377981 0.07475656 0.07579634 0.07639035 0.07649976 0.0763125
 0.07587314 0.07514346 0.07426689 0.07359277 0.07342874 0.07380986 0.07451688 0.07527109 0.07584663 0.07606162
 0.0758438 0.07534032 0.07481886 0.07442343 0.07414085 0.07399058 0.07407622 0.07441023 0.07482633 0.07513027
 0.07525776 0.07524818 0.07514042 0.07494643 0.07468916 0.07443103 0.07426941 0.07428262 0.07444614 0.07463577
 0.07476096 0.07485236 0.07496141 0.07503334 0.07496727 0.07476873 0.07456183 0.07446057 0.07447994 0.07455885
 0.07461601 0.07456853 0.07434136 0.07393169 0.07348551 0.07324155 0.07334033 0.07371806 0.07420495 0.07465906
 0.07498724 0.07514079 0.07515235 0.07511197 0.07506204 0.07495826 0.07475792 0.07451646 0.07437862 0.0744676
 0.07477005 0.07513905 0.07542188 0.07556369 0.07559526 0.07558435 0.07561005 0.07570844 0.07581688 0.07583109
 0.07573542 0.07562894 0.07561256 0.07568417 0.07575206 0.07573786 0.0756633 0.07562922 0.07570451 0.07585804
 0.07601096 0.07612604 0.07622265 0.07632034 0.07638927 0.07636717 0.07623611 0.07606857 0.07596387 0.07594579
 0.07596402 0.0759899 0.07605502 0.07618302 0.07632986 0.07642165 0.07643476 0.0764135 0.07640643 0.07640385
 0.07635537 0.07624026 0.07609672 0.07598153 0.07592213 0.0759098 0.07591753 0.07591578 0.07588397 0.07581791
 0.07572713 0.07562287 0.07550911 0.07539213 0.07530087 0.07528233 0.07535282 0.07545406 0.0754827 0.07538132
 0.07519437 0.07502209 0.0749198 0.07485341 0.0747546 0.07460245 0.0744354 0.07429746 0.07419726 0.07411827
 0.07404381 0.07396674 0.07389714 0.07387036 0.07392453 0.07404764 0.07416135 0.07418479 0.07411337 0.07401632
 0.07396196 0.0739643 0.07399517 0.07402596 0.0740582 0.07412089 0.0742267 0.07433283 0.07437629 0.07435395
 0.07433414 0.07438193 0.07450734 0.07468522 0.07487758 0.07503003 0.0750987 0.07510277 0.07511511 0.07518306
 0.07528497 0.07537687 0.07545302 0.07554065 0.07565603 0.07579238 0.07594705 0.07613809 0.07638392 0.07667163
 0.07695094 0.07716615 0.07730496 0.07741976 0.07759114 0.07786085 0.07819857 0.07853262 0.07881102 0.07903653
 0.07924764 0.07946951 0.07969446 0.07991683 0.08016577 0.08047615 0.08083634 0.08119519 0.08151971 0.08182148
 0.08212725 0.08244613 0.08277076 0.08309717 0.08343586 0.08380011 0.08417933 0.08453244 0.08482108 0.08504885
 0.08526073 0.08551 0.08582458 0.08618286 0.08651282 0.08674449 0.08688663 0.08702965 0.08724773 0.08751833
 0.08776847 0.08798262 0.08822262 0.08853903 0.08889982 0.08922541 0.0894753 0.08968091 0.08989833 0.09014218
 0.09036998 0.09053195 0.09063099 0.0907222 0.09085354 0.0910299 0.09124544 0.09151791 0.09185731 0.09222028
 0.0925343 0.0927619 0.09291548 0.09302416 0.09311548 0.09321608 0.0933387 0.09347352 0.0936075 0.09373651
 0.09384897 0.09392805 0.09398873 0.09408239 0.09424164 0.0944469 0.09466808 0.09490991 0.09518666 0.09547745
 0.09574778 0.09600687 0.09629893 0.09662756 0.09692621 0.09712639 0.09722576 0.09726645 0.0972798 0.0972896
 0.09734234 0.09748106 0.09768929 0.09789732 0.09804724 0.09812927 0.09815885 0.09814563 0.09809174 0.09800525
 0.09790863 0.09783946 0.09784442 0.09796695 0.09822947 0.09861469 0.09906183 0.09949221 0.09984785 0.1001019
 0.100238 0.1002444 0.1001437 0.1000034 0.09988318 0.09976779 0.09957261 0.09921749 0.0986823 0.09799325
 0.09717961 0.09626049 0.09526733 0.09426457 0.09333928 0.09256837 0.09199961 0.09166513 0.09159738 0.09180716
 0.09224114 0.09277925 0.09328249 0.09363326 0.09373395 0.09350536 0.0929212 0.09203906 0.09097657 0.0898524
 0.08874831 0.08770421 0.08673047 0.08584043 0.08509803 0.08463396 0.08459851 0.08508827 0.08610667 0.08756507
 0.08930152 0.09111647 0.09283387 0.0943587 0.09568585 0.09685782 0.09791976 0.09890862 0.09985673 0.1007787
 0.1016577 0.102466 0.1032015 0.1038874 0.1045358 0.105128 0.1056295 0.1060122 0.1062653 0.1063989
 0.1064371 0.1064037 0.1063179 0.1062025 0.1060727 0.105903 0.10562 0.105146 0.1044542 0.1035915
 0.1026739 0.1018773 0.1014195 0.1015145 0.1022941 0.1037396 0.1056795 0.1078621 0.1100454 0.1120437
 0.1137405 0.1151025 0.1161803 0.1170692 0.117853 0.1185804 0.1192743 0.11994 0.1205681 0.1211464
 0.1216754 0.1221721 0.1226611 0.1231585 0.1236579 0.1241329 0.1245628 0.1249583 0.1253572 0.1257885
 0.1262434 0.1266865 0.1270974 0.1274938 0.1279005 0.1283082 0.1286825 0.1290119 0.1293255 0.1296621
 0.1300383 0.1304435 0.1308486 0.131218 0.1315324 0.1318049 0.1320682 0.132345 0.1326362 0.1329339
 0.133232 0.1335261 0.1338121 0.1340937 0.1343856 0.1346973 0.1350121 0.1352959 0.1355324 0.1357421
 0.1359597 0.1361995 0.1364485 0.1366887 0.13692 0.1371609 0.1374312 0.1377327 0.138045 0.1383373
 0.1385902 0.1388091 0.1390201 0.139248 0.1394981 0.1397587 0.1400174 0.1402702 0.1405203 0.1407727
 0.1410297 0.1412877 0.1415383 0.1417748 0.1419996 0.1422234 0.142455 0.1426926 0.1429301 0.1431717
 0.1434311 0.1437116 0.1439936 0.1442498 0.1444707 0.1446692 0.1448644 0.1450667 0.1452785 0.1455004
 0.1457329 0.1459737 0.1462184 0.1464644 0.1467123 0.1469629 0.1472149 0.1474683 0.1477252 0.1479871
 0.1482521 0.1485169 0.148778 0.1490307 0.1492702 0.1494955 0.1497125 0.1499313 0.1501605 0.1504006
 0.1506423 0.1508743 0.1510945 0.1513115 0.151535 0.1517666 0.1520011 0.1522347 0.1524687 0.1527043
 0.1529368 0.1531601 0.1533764 0.1535961 0.1538257 0.1540609 0.1542923 0.1545154 0.1547332 0.1549529
 0.1551801 0.1554166 0.1556603 0.155907 0.1561481 0.1563739 0.1565832 0.1567858 0.1569941 0.1572131
 0.15744 0.157669 0.1578958 0.1581211 0.1583478 0.1585755 0.1588002 0.1590192 0.1592332 0.1594465
 0.1596664 0.1598974 0.1601328 0.1603616 0.1605834 0.160809 0.1610439 0.1612818 0.1615138 0.161739
 0.1619641 0.1621954 0.1624305 0.1626622 0.1628885 0.1631114 0.1633274 0.1635322 0.1637311 0.1639315
 0.1641296 0.1643197 0.1645093 0.1647118 0.1649299 0.1651546 0.1653755 0.1655885 0.1657977 0.1660099
 0.1662274 0.1664495 0.1666768 0.1669066 0.1671295 0.1673394 0.1675412 0.1677445 0.1679554 0.1681757
 0.1684017 0.1686277 0.1688553 0.1690903 0.1693294 0.169563 0.1697883 0.1700091 0.1702275 0.170446
 0.1706672 0.1708875 0.1711024 0.1713165 0.1715359 0.1717582 0.17198 0.1722014 0.172419 0.1726295
 0.1728394 0.1730554 0.1732716 0.17348 0.1736821 0.1738826 0.1740863 0.1742982 0.1745167 0.1747341
 0.1749493 0.1751672 0.1753851 0.1755988 0.1758132 0.1760315 0.1762484 0.1764624 0.1766733 0.1768615
 0.1769772 0.1769086 0.176385 0.1748629 0.1715071 0.1653615 0.1557388 0.1426576 0.1269846 0.1101207
 0.09348546 0.07815352 0.06475803 0.05357759 0.04467183 0.03796706 0.03331283 0.03057993 0.02976134 0.03107046
 0.03504665 0.04223689 0.05199291 0.06139794 0.06639068 0.0649637 0.05908189 0.05289427 0.04928344 0.04846179
 0.04920192 0.0504539 0.05188801 0.05369817 0.0562124 0.05952165 0.06346586 0.06803837 0.07358479 0.08036686
 0.08803203 0.09575556 0.1029504 0.1097312 0.1166424 0.1240055 0.1315863 0.1388297 0.1453019 0.1509059
 0.1558041 0.1602339 0.1643743 0.1683155 0.1720928 0.1756883 0.1789674 0.1816545 0.1834603 0.1842956
 0.1843752 0.1841016 0.1838343 0.1837516 0.1838798 0.1841886 0.1846446 0.1852206 0.1858962 0.1866527
 0.1874658 0.1883113 0.1891686 0.1900126 0.1908137 0.1915547 0.1922368 0.1928658 0.193445 0.1939798
 0.1944778 0.1949418 0.1953711 0.195765 0.1961265 0.1964655 0.1967955 0.1971217 0.1974358 0.197728
 0.1979996 0.1982577 0.1985062 0.1987447 0.1989741 0.1991994 0.1994267 0.1996557 0.1998777 0.2000857
 0.2002862 0.200493 0.2007119 0.2009373 0.2011611 0.2013784 0.2015864 0.2017844 0.2019765 0.2021702
 0.2023734 0.2025886 0.2028102 0.2030283 0.2032368 0.203435 0.2036258 0.2038157 0.2040129 0.2042185
 0.2044268 0.204637 0.2048548 0.205081 0.2053096 0.2055397 0.2057749 0.2060138 0.2062504 0.2064782
 0.2066874 0.206867 0.20702 0.2071699 0.2073445 0.207556 0.2077932 0.208033 0.2082629 0.2084879
 0.2087137 0.2089309 0.2091258 0.2092963 0.2094572 0.209636 0.2098572 0.2101158 0.2103802 0.2106293
 0.2108685 0.2111051 0.2113368 0.2115683 0.2118033 0.2120202 0.212191 0.2123278 0.2124912 0.2127404
 0.2130761 0.2134334 0.2137417 0.2139891 0.2142145 0.2144572 0.2147318 0.2150144 0.2152166 0.2152441
 0.2151446 0.2151365 0.2154092 0.2159339 0.2165207 0.2170153 0.2173915 0.2176979 0.2179731 0.2182067
 0.218351 0.2183749 0.2183323 0.2183756 0.2186519 0.2191523 0.2197049 0.2201493 0.2204627 0.2206997
 0.2208999 0.2210832 0.2212136 0.2211454 0.2207728 0.2203025 0.2202061 0.2207662 0.2217549 0.2226749
 0.2232549 0.2235984 0.2239005 0.2242033 0.2244465 0.2245273 0.2242035 0.2232289 0.2218465 0.2209226
 0.2212352 0.2226902 0.2244711 0.225852 0.2266529 0.2270583 0.227302 0.2275144 0.2276233 0.2273572
 0.2265467 0.2255301 0.225071 0.2256525 0.2269333 0.228115 0.2287564 0.2290086 0.2291915 0.2294348
 0.2295939 0.2292071 0.2277571 0.225434 0.2235253 0.2235138 0.2256274 0.2285628 0.2307753 0.2318074
 0.2321754 0.2322389 0.2316732 0.2300677 0.2275544 0.2247458 0.2225406 0.2220064 0.2236752 0.2266495
 0.2291064 0.2300982 0.230361 0.2311083 0.2325822 0.2340573 0.2347828 0.2345656 0.2336369 0.2322372
 0.2305006 0.2288392 0.2281762 0.2292944 0.2318893 0.2346701 0.2365533 0.2374898 0.2379072 0.2374479
 0.2347096 0.2289297 0.2220961 0.2184069 0.2205712 0.2269791 0.2334329 0.2372793 0.2388733 0.2396101
 0.2400412 0.2397252 0.2374986 0.2321119 0.2242068 0.217566 0.2165612 0.2218294 0.2295494 0.2350057
 0.235797 0.2320928 0.2257936 0.2199703 0.2176122 0.2198172 0.2253066 0.231692 0.2369115 0.239801
 0.2400853 0.2382693 0.2356036 0.2337837 0.2337281 0.2342339 0.2328824 0.2290861 0.2250523 0.2225441
 0.2201611 0.2159462 0.2116747 0.2116977 0.2172754 0.2244658 0.2285483 0.2288079 0.227707 0.226405
 0.2227946 0.2145375 0.2034562 0.195643 0.196116 0.2035893 0.2115893 0.2147494 0.2130483 0.2099857
 0.2079344 0.2058307 0.2009078 0.1924696 0.1837939 0.1794606 0.1805919 0.1839138 0.1856799 0.1846513
 0.1808364 0.174347 0.1675941 0.166091 0.1737574 0.1880806 0.2020394 0.209852 0.2090908 0.1994789
 0.1837804 0.1695381 0.1654113 0.173432 0.186549 0.1951098 0.1945499 0.1862678 0.1734959 0.1590513
 0.1466111 0.1411636 0.1460424 0.1595424 0.1749371 0.1838472 0.1808878 0.1678297 0.1539398 0.1493368
 0.1558275 0.1656535 0.170178 0.1677276 0.1624511 0.1589228 0.1594613 0.1637412 0.1691732 0.1733181
 0.175849 0.1759192 0.1695393 0.1543805 0.1363047 0.1255633 0.126147 0.1336937 0.1436732 0.1554722
 0.167069 0.1722271 0.1674984 0.1587355 0.1561375 0.1634313 0.1746593 0.1814661 0.1813811 0.1783161
 0.1765012 0.17595 0.1745517 0.1729837 0.1749099 0.1819274 0.1907639 0.1969118 0.1993123 0.1999726
 0.200532 0.2010064 0.2009494 0.2002037 0.1988291 0.1972156 0.1959641 0.1951986 0.1944386 0.1933013
 0.1915074 0.1878722 0.1805766 0.1698215 0.1594898 0.1541316 0.1542054 0.1563595 0.1583705 0.1604502
 0.1606813 0.1536818 0.1376304 0.1201112 0.1126228 0.1194743 0.1345597 0.1483439 0.1551848 0.1538662
 0.1447802 0.1300962 0.1160323 0.1109362 0.1185521 0.134519 0.1511046 0.163849 0.1720477 0.1751269
 0.1719791 0.1637154 0.1547082 0.1500921 0.1526755 0.1617039 0.1730551 0.1802282 0.1775224 0.165745
 0.1548226 0.1564749 0.1718588 0.189587 0.1985053 0.1990025 0.1985136 0.19994 0.2001825 0.1983054
 0.1988331 0.2055236 0.2157989 0.2232798 0.2234369 0.2154103 0.2012867 0.1863983 0.1779797 0.1794841
 0.1867498 0.1925769 0.1937146 0.1904425 0.1823162 0.1700079 0.1599089 0.1602814 0.1716745 0.1857392
 0.1947213 0.1985535 0.2014273 0.2045265 0.2045499 0.1986995 0.1893574 0.1826464 0.1824023 0.1868262
 0.1915634 0.1942771 0.1947428 0.1923085 0.1862711 0.1788034 0.1749851 0.1784345 0.1875912 0.1971738
 0.2029011 0.2041857 0.2029365 0.201057 0.1991487 0.1966506 0.1931091 0.1898235 0.1895876 0.1936924
 0.1998225 0.2043938 0.2066214 0.2087917 0.2126533 0.2170126 0.2192252 0.2181457 0.215261 0.2134026
 0.2144731 0.2179355 0.2212031 0.2218112 0.2197309 0.217608 0.2183363 0.2223044 0.2273349 0.231152
 0.233241 0.2343907 0.2353557 0.2362 0.2362518 0.2346131 0.2314285 0.22864 0.2286173 0.2318007
 0.2362662 0.2396978 0.2412523 0.2414617 0.2409914 0.2399597 0.2382863 0.2362863 0.2346818 0.2340499
 0.2344113 0.2353793 0.2365426 0.2376361 0.2385238 0.2391856 0.239684 0.2400723 0.2403635 0.240585
 0.240775 0.2409078 0.2409167 0.2408294 0.2407936 0.2409072 0.2410856 0.2411624 0.2410564 0.2407535
 0.2401845 0.2392526 0.2379837 0.2365313 0.2349966 0.2333494 0.231628 0.2301837 0.2295932 0.2302287
 0.2319051 0.2339807 0.2357955 0.2370117 0.237627 0.2378074 0.2377526 0.2376302 0.2375336 0.2374685
 0.2373921 0.2372767 0.2371329 0.236984 0.2368409 0.2367127 0.2366227 0.2365861 0.236578 0.2365396
 0.2364178 0.2361953 0.2358891 0.2355272 0.2351198 0.2346466 0.2340711 0.2333682 0.2325378 0.2316016
 0.2305998 0.2295831 0.2285909 0.2276236 0.2266429 0.2255986 0.224443 0.223131 0.2216522 0.2200838
 0.2185728 0.2172265 0.2160383 0.2149289 0.2138254 0.2126811 0.2114644 0.2101709 0.2088382 0.2075233
 0.2062619 0.2050509 0.2038604 0.2026579 0.2014205 0.2001278 0.1987564 0.197296 0.1957679 0.1942126
 0.1926445 0.1910146 0.1892134 0.1871116 0.1845954 0.1815761 0.1780039 0.1739067 0.1694175 0.1647471
 0.1601209 0.1557248 0.1516842 0.1480784 0.1449682 0.1424055 0.1404195 0.139012 0.1381715 0.1378941
 0.1381927 0.1390825 0.1405392 0.1424644 0.1447032 0.1470931 0.149488 0.1517634 0.1538452 0.1557441
 0.157531 0.1592591 0.1609142 0.1624449 0.1638264 0.1650684 0.1661687 0.1670944 0.1678287 0.1684077
 0.1688912 0.1693196 0.1697115 0.1700755 0.1704063 0.1706863 0.1709052 0.1710698 0.1711974 0.1713095
 0.1714276 0.1715692 0.1717472 0.1719743 0.1722638 0.1726274 0.1730698 0.1735789 0.1741322 0.1747189
 0.1753482 0.1760343 0.1767906 0.17764 0.1786081 0.1797013 0.1809047 0.1821912 0.1835159 0.1848127
 0.1860136 0.18707 0.1879607 0.1886959 0.1893135 0.1898561 0.1903469 0.1907882 0.1911751 0.19151
 0.1918087 0.1920901 0.1923563 0.192591 0.1927744 0.1928881 0.1929117 0.1928348 0.1926675 0.1924327
 0.1921577 0.1918886 0.1916942 0.1916338 0.1917126 0.1918719 0.1920254 0.1921115 0.1921134 0.1920379
 0.1918896 0.1916633 0.1913438 0.19091 0.1903503 0.1896716 0.1888823 0.1879788 0.1869608 0.1858462
 0.1846552 0.1833904 0.1820364 0.180574 0.178998 0.1773272 0.1755892 0.173797 0.1719561 0.1700942
 0.1682633 0.166513 0.1648721 0.1633468 0.1619215 0.1605662 0.1592517 0.1579588 0.1566843 0.1554522
 0.1543065 0.1532764 0.1523486 0.1514836 0.1506553 0.1498758 0.1491828 0.1485997 0.1481092 0.1476776
 0.1472931 0.1469686 0.1467225 0.1465747 0.1465411 0.1466042 0.1466975 0.1467354 0.1466604 0.1464738
 0.1462346 0.1460211 0.1458778 0.1457981 0.1457486 0.1456854 0.1455524 0.1452834 0.1448092 0.1440669
 0.1430231 0.1416991 0.1401628 0.1385065 0.1368428 0.1352964 0.1339649 0.1328896 0.1320618 0.1314335
 0.1309301 0.1304914 0.1301163 0.129862 0.1297931 0.1299079 0.1300918 0.1301788 0.1301048 0.1299818
 0.1299931 0.1302392 0.1306936 0.1312541 0.1318076 0.1322792 0.1326426 0.1328905 0.133017 0.1330271
 0.1329331 0.1327405 0.1324646 0.1321412 0.1317969 0.1314294 0.1310259 0.1305673 0.1300241 0.1293824
 0.1286594 0.1278747 0.1270381 0.1261593 0.1252178 0.1241538 0.1229733 0.1218451 0.1210235 0.1206802
 0.1208151 0.1212784 0.1218724 0.122475 0.1230339 0.1234255 0.1234784 0.1232809 0.123355 0.1242981
 0.1262052 0.1285404 0.1305955 0.1319849 0.1326911 0.1328156 0.1324387 0.1316245 0.1303862 0.1286805
 0.1265231 0.1240397 0.1213641 0.1186149 0.1159739 0.1136341 0.1116775 0.1100944 0.1088588 0.1080068
 0.1076739 0.1075403 0.1059179 0.1006426 0.0924048 0.08623528 0.08727781 0.0950076 0.1035932 0.1080638
 0.1082699 0.1068383 0.105576 0.104755 0.104294 0.1043316 0.1049883 0.1061426 0.1074479 0.1085321
 0.1092284 0.1095529 0.1094572 0.108636 0.1064796 0.1022673 0.09574929 0.08768649 0.0796016 0.07288351
 0.06816159 0.06533024 0.06385125 0.06306731 0.06252974 0.06220107 0.06234687 0.06322505 0.06487682 0.0671702
 0.06993161 0.07292663 0.07578373 0.07814988 0.07996608 0.08142971 0.08265719 0.08353443 0.08390809 0.08377511
 0.08326267 0.0825312 0.08171572 0.08088208 0.07999966 0.07898824 0.07785316 0.0767879 0.07606848 0.07580088
 0.07583955 0.07597651 0.07610914 0.07620969 0.0762639 0.07628313 0.07629873 0.07634745 0.07650197 0.07684299
 0.07734258 0.07784456 0.0782033 0.07840152 0.07852493 0.07862829 0.07860868 0.07828529 0.07768726 0.07711548
 0.07673829 0.07628801 0.07542297 0.07428563 0.07342989 0.07322896 0.0735506 0.07397987 0.07418666 0.07408877
 0.07383941 0.07373782 0.07402661 0.07462896</values></Ydata></ScSm><ScRf><Ydata ylabel="Single channel"><values byteorder="INTEL" format="FLOAT32" numvalues="1820"> 0.06082493 0.06098247 0.06107447 0.06110647 0.0611056 0.06111487 0.06117938 0.06131962 0.0615111 0.06169333
 0.0618127 0.06186226 0.06186707 0.06183761 0.06177313 0.06171406 0.06174183 0.06189794 0.0621239 0.06229904
 0.06233847 0.0622681 0.06221022 0.06226372 0.06237508 0.06235497 0.06205992 0.06155604 0.06107282 0.06078966
 0.06072634 0.0608795 0.0613322 0.06203356 0.06255401 0.06239086 0.06159554 0.06080818 0.06054774 0.06071427
 0.06088303 0.06079998 0.06046285 0.06002528 0.05984166 0.06037201 0.06172869 0.06330164 0.0639776 0.06284422
 0.05984404 0.05597847 0.05293185 0.05216461 0.05388804 0.0567795 0.05897347 0.05954596 0.05895838 0.05811481
 0.05738531 0.05671711 0.05627249 0.05647834 0.05744042 0.05853144 0.05871188 0.05742512 0.05525883 0.05352389
 0.05305315 0.05368079 0.0549467 0.05660019 0.05788273 0.05712419 0.05338562 0.04853326 0.04640621 0.04916911
 0.05500237 0.05987583 0.06113204 0.05898903 0.05538009 0.05234477 0.0512425 0.05239256 0.05504101 0.05798657
 0.06030049 0.06135399 0.06065203 0.05826896 0.05527788 0.05323278 0.05321096 0.0553841 0.05898245 0.06237384
 0.06380744 0.0627021 0.06002974 0.05729278 0.05553918 0.05536227 0.05704415 0.06026386 0.06408022 0.06747423
 0.06976334 0.07067516 0.07040921 0.06951186 0.06846018 0.06757531 0.06730747 0.06796214 0.06895922 0.06905039
 0.06767517 0.06571082 0.06457229 0.06475247 0.06542942 0.06546628 0.06456256 0.06307791 0.06091205 0.05747467
 0.05304664 0.04915074 0.04703336 0.04671293 0.04788065 0.05038626 0.0531748 0.05422708 0.05276617 0.05066509
 0.05058936 0.05315552 0.05661481 0.05899274 0.05992004 0.06049192 0.0618571 0.06404143 0.06580336 0.06556635
 0.06297901 0.05979799 0.0586504 0.06045559 0.06353981 0.06569739 0.0665209 0.06715798 0.06830268 0.06911436
 0.06809537 0.06487374 0.06114927 0.05963553 0.06169481 0.06597523 0.06939178 0.0694034 0.06572184 0.06037969
 0.05614835 0.05461977 0.05578424 0.05909047 0.06405438 0.06969555 0.07428363 0.07630527 0.07556017 0.0730859
 0.06997079 0.06634237 0.06192608 0.05772092 0.05621553 0.05904257 0.06489518 0.0706148 0.07400857 0.07494404
 0.07412709 0.07175766 0.06773713 0.06297813 0.05982959 0.06025175 0.06345294 0.06633836 0.06674862 0.06543161
 0.06445049 0.06461675 0.06518182 0.06542024 0.06566688 0.06674713 0.06879662 0.0709416 0.07214396 0.07214436
 0.07151207 0.07097919 0.07077163 0.07044157 0.06950226 0.06841035 0.06850737 0.07054952 0.07366288 0.07623899
 0.07754777 0.07800178 0.07807349 0.07746527 0.07553543 0.07249458 0.06989834 0.06949608 0.07154271 0.07463436
 0.07716797 0.07849823 0.07880284 0.07850505 0.07797873 0.07742481 0.07693998 0.07678141 0.07729886 0.07843556
 0.079614 0.08031398 0.08050052 0.08036504 0.07995308 0.07924066 0.07840227 0.07781187 0.07777186 0.07828768
 0.07911754 0.07998689 0.08068233 0.081011 0.08087099 0.08040202 0.07990468 0.07956565 0.07938918 0.0793874
 0.07964778 0.08016083 0.08073282 0.08114997 0.08134949 0.08138929 0.0813268 0.08117962 0.08096765 0.08075965
 0.08067369 0.08079773 0.08108455 0.08138056 0.08160467 0.08182811 0.08211138 0.08234625 0.08236838 0.08218029
 0.08196034 0.08186893 0.08192225 0.08204144 0.08214197 0.08214344 0.08195958 0.08157547 0.08114845 0.08094668
 0.08113392 0.081654 0.08232915 0.08298623 0.08348219 0.08373363 0.08378124 0.08374877 0.08370032 0.08359425
 0.08339342 0.08317298 0.0830965 0.08328822 0.08371833 0.08421867 0.08461863 0.08484952 0.08493628 0.08496051
 0.08503289 0.08520883 0.08540695 0.08548659 0.08542562 0.08535399 0.08539415 0.08552159 0.08560567 0.08556363
 0.08545631 0.0854273 0.0855538 0.08577821 0.08599111 0.08615281 0.08631361 0.08652464 0.08674166 0.0868375
 0.08673604 0.08651736 0.08634125 0.08627868 0.08628412 0.08632548 0.08644822 0.0866767 0.08692409 0.08706336
 0.08706772 0.08703338 0.0870582 0.08712853 0.08714481 0.08704092 0.08685358 0.08668201 0.0866062 0.08664179
 0.0867431 0.08683453 0.086854 0.08678687 0.0866663 0.08654035 0.08644015 0.08638477 0.08640927 0.08655507
 0.08680413 0.08703631 0.08709665 0.08693179 0.08665139 0.08643535 0.08637241 0.08639161 0.08634981 0.08617377
 0.08591089 0.08565959 0.08547763 0.08535796 0.08526515 0.08517832 0.08511397 0.08512016 0.08522899 0.08539141
 0.08547791 0.08538327 0.08513105 0.08484913 0.08465064 0.08456197 0.08454408 0.08454341 0.08453545 0.08454829
 0.08462273 0.08473262 0.0847865 0.08473456 0.08463195 0.08457652 0.08462752 0.08478934 0.08500997 0.08518127
 0.08520858 0.08510919 0.08499907 0.08496873 0.08501153 0.0850773 0.0851454 0.08522384 0.08531417 0.08541141
 0.08552848 0.08569598 0.08593003 0.08620501 0.08646055 0.08664054 0.08673939 0.08681879 0.08696903 0.08723623
 0.08758161 0.08791485 0.08816914 0.08834729 0.08850038 0.08866857 0.08885343 0.08905101 0.08928689 0.08958939
 0.08993918 0.09027915 0.09057451 0.09083833 0.09110054 0.09137602 0.09166653 0.09198026 0.09234113 0.09276649
 0.09322193 0.09361561 0.09387033 0.09400301 0.09411538 0.09431326 0.09463704 0.09503517 0.09538553 0.09558518
 0.0956573 0.09573956 0.09593368 0.09620067 0.09644481 0.09666477 0.09695797 0.09737927 0.09785163 0.09823896
 0.09848078 0.09863468 0.09879713 0.09900011 0.09919116 0.09931099 0.09937324 0.09944652 0.09956947 0.09972691
 0.09991889 0.1001974 0.1005938 0.1010452 0.1014418 0.1017281 0.1019246 0.1020722 0.1021919 0.1022823
 0.1023308 0.1023405 0.1023555 0.1024272 0.1025437 0.1026325 0.1026534 0.1026537 0.1027101 0.1028541
 0.1030775 0.1033703 0.103709 0.1040362 0.1043086 0.1045625 0.1048764 0.1052508 0.1055749 0.1057485
 0.1057956 0.1058135 0.1058494 0.1058912 0.1059536 0.1060964 0.1063501 0.1066778 0.1070262 0.1073767
 0.1077345 0.1080903 0.1084066 0.1086319 0.1087337 0.1087285 0.1086839 0.1086869 0.108802 0.109043
 0.1093658 0.1096944 0.1099687 0.110163 0.1102636 0.1102613 0.1101926 0.1101574 0.1102431 0.1104249
 0.1105737 0.1105665 0.1103685 0.110008 0.1095149 0.1089102 0.1082374 0.1075755 0.107009 0.1065918
 0.1063469 0.1063007 0.106497 0.1069518 0.1075975 0.1083017 0.1089478 0.1094662 0.1097855 0.1098118
 0.109498 0.1089078 0.1081807 0.107445 0.1067722 0.1061731 0.1056082 0.1050361 0.1044992 0.104156
 0.104203 0.1047582 0.105807 0.1072142 0.1087655 0.1102332 0.1114627 0.11243 0.1132166 0.1139213
 0.1145969 0.1152602 0.1159271 0.1166027 0.1172497 0.1178121 0.1182771 0.1186869 0.1190835 0.1194686
 0.1198177 0.1201091 0.1203436 0.1205503 0.1207582 0.1209485 0.1210576 0.1210484 0.1209547 0.1208348
 0.1207051 0.1205338 0.1202777 0.1199146 0.1194727 0.1190629 0.1188721 0.1190845 0.1197695 0.1208352
 0.122098 0.123404 0.12467 0.1258243 0.1267696 0.1274417 0.1278784 0.1281886 0.1284659 0.1287498
 0.1290477 0.129356 0.1296637 0.1299568 0.1302335 0.1305113 0.1308156 0.1311528 0.1314929 0.1317894
 0.132027 0.1322468 0.1325176 0.1328757 0.1332859 0.1336722 0.1339968 0.1342953 0.1346153 0.1349377
 0.1351972 0.1353715 0.1355128 0.1356953 0.1359619 0.1363114 0.1366975 0.1370437 0.1372963 0.1374713
 0.137632 0.1378247 0.1380524 0.1383003 0.1385589 0.1388205 0.1390763 0.1393298 0.1396016 0.1399027
 0.1402043 0.1404522 0.1406231 0.1407544 0.1409086 0.1411138 0.1413474 0.141571 0.1417738 0.1419861
 0.1422492 0.1425651 0.1428795 0.1431244 0.1432798 0.1433876 0.1435087 0.1436761 0.1438865 0.1441177
 0.1443467 0.1445592 0.144755 0.1449476 0.1451528 0.1453747 0.1456021 0.1458185 0.1460169 0.146205
 0.1463969 0.1465998 0.1468146 0.1470498 0.1473215 0.1476272 0.1479296 0.1481813 0.1483658 0.1485028
 0.1486226 0.1487464 0.1488872 0.1490533 0.1492456 0.1494561 0.1496727 0.149885 0.1500896 0.1502894
 0.1504889 0.1506904 0.1508939 0.1510997 0.1513111 0.1515348 0.1517745 0.1520211 0.1522563 0.1524666
 0.1526543 0.1528344 0.1530209 0.1532166 0.1534108 0.1535921 0.1537628 0.1539367 0.1541239 0.1543221
 0.1545228 0.1547201 0.154913 0.1551033 0.1552929 0.1554825 0.1556727 0.155866 0.1560649 0.1562699
 0.1564775 0.1566814 0.1568763 0.1570634 0.1572498 0.1574427 0.1576463 0.1578619 0.1580871 0.1583122
 0.1585241 0.1587157 0.1588907 0.159062 0.159242 0.1594337 0.1596307 0.1598279 0.1600257 0.1602256
 0.1604264 0.160626 0.160824 0.1610229 0.1612314 0.1614578 0.161698 0.1619349 0.162155 0.1623588
 0.162555 0.1627526 0.1629562 0.1631663 0.1633813 0.1636015 0.1638282 0.1640587 0.1642858 0.1644986
 0.164688 0.1648563 0.165019 0.1651898 0.1653676 0.1655444 0.1657188 0.1658967 0.1660837 0.1662791
 0.1664748 0.1666625 0.1668454 0.1670357 0.1672367 0.1674391 0.1676366 0.1678329 0.1680343 0.168241
 0.1684459 0.1686413 0.1688301 0.1690248 0.1692331 0.1694514 0.1696754 0.1699047 0.1701332 0.1703522
 0.1705624 0.1707722 0.1709864 0.171205 0.1714243 0.1716369 0.1718397 0.172041 0.1722496 0.1724628
 0.1726727 0.1728769 0.1730765 0.1732762 0.1734827 0.1736947 0.1739027 0.174105 0.1743099 0.1745219
 0.1747401 0.1749644 0.1751905 0.1754107 0.1756249 0.1758385 0.1760494 0.1762557 0.1764669 0.1766886
 0.1769115 0.1771264 0.1773311 0.1775154 0.1776377 0.1775787 0.1770478 0.1754881 0.1720666 0.165834
 0.1561022 0.142887 0.12706 0.1100389 0.09326144 0.07781303 0.06432927 0.05308716 0.0441424 0.03741452
 0.03274694 0.03000818 0.02919291 0.03051921 0.03453439 0.04178991 0.05162401 0.06108505 0.06607912 0.0646003
 0.05865064 0.05241892 0.04880107 0.04799888 0.04876874 0.05004736 0.05149611 0.05330916 0.05582419 0.05914243
 0.06310931 0.06772035 0.07331792 0.08015153 0.08785585 0.09560621 0.1028282 0.1096474 0.1166088 0.1240255
 0.1316528 0.1389283 0.1454177 0.1510318 0.1559446 0.1603991 0.1645666 0.1685223 0.1722945 0.1758729
 0.1791342 0.1818062 0.1835943 0.184406 0.1844618 0.1841757 0.1839097 0.1838259 0.1839288 0.1841854
 0.1845826 0.1851166 0.1857739 0.186526 0.1873337 0.1881644 0.1889997 0.1898226 0.190609 0.1913406
 0.1920131 0.1926275 0.1931853 0.1936929 0.1941596 0.1945943 0.1950065 0.1954024 0.1957791 0.1961308
 0.1964595 0.1967704 0.1970624 0.1973325 0.1975812 0.1978111 0.1980267 0.1982365 0.1984471 0.1986589
 0.1988709 0.1990855 0.1993043 0.1995239 0.1997377 0.1999399 0.2001295 0.200314 0.2005012 0.2006892
 0.2008705 0.2010465 0.201228 0.2014228 0.2016298 0.2018425 0.2020509 0.2022456 0.2024272 0.2026086
 0.202803 0.2030115 0.2032227 0.203425 0.2036197 0.2038215 0.2040412 0.204271 0.2044939 0.204702
 0.2048997 0.2050945 0.2052951 0.2055059 0.2057184 0.2059131 0.206081 0.2062384 0.2064165 0.2066326
 0.2068719 0.2071001 0.2072992 0.2074833 0.2076751 0.2078783 0.208078 0.2082584 0.2084214 0.2085952
 0.2088141 0.2090771 0.2093466 0.209595 0.2098279 0.2100558 0.2102797 0.2105069 0.2107423 0.21096
 0.2111222 0.2112379 0.2113797 0.2116263 0.2119846 0.2123733 0.212696 0.2129296 0.2131276 0.2133532
 0.2136322 0.213929 0.2141384 0.2141623 0.214058 0.2140502 0.214323 0.2148385 0.215407 0.2158815
 0.2162397 0.2165288 0.2167873 0.2170078 0.217145 0.2171677 0.2171294 0.2171821 0.2174704 0.2179807
 0.218538 0.2189814 0.2192896 0.2195175 0.219706 0.2198783 0.2200018 0.2199268 0.2195397 0.2190465
 0.2189254 0.2194624 0.2204285 0.2213278 0.2218906 0.2222126 0.2224795 0.2227388 0.2229501 0.2230245
 0.222716 0.2217637 0.2203978 0.2194813 0.2197953 0.221247 0.2230172 0.2243803 0.2251645 0.2255644
 0.2258166 0.2260433 0.2261624 0.2259012 0.2250957 0.224084 0.2236212 0.2241853 0.2254441 0.2266153
 0.2272696 0.2275568 0.2277814 0.2280565 0.2282317 0.2278506 0.2264014 0.2240766 0.2221667 0.2221565
 0.2242727 0.2272128 0.2294348 0.2304813 0.2308685 0.2309576 0.2304223 0.2288413 0.2263377 0.2235295
 0.2213289 0.2208118 0.2225083 0.2255147 0.2280055 0.2290336 0.2293301 0.2300979 0.2315746 0.2330437
 0.2337639 0.2335434 0.2326133 0.2312171 0.2294931 0.2278549 0.2272232 0.2283708 0.2309813 0.2337624
 0.2356424 0.2365837 0.2370175 0.236582 0.2338677 0.2281083 0.2212968 0.2176384 0.2198398 0.2262817
 0.2327609 0.2366265 0.2382391 0.2389996 0.239462 0.2391806 0.23698 0.2316019 0.2236978 0.2170787
 0.2161366 0.2214955 0.2293012 0.2348195 0.235654 0.2319838 0.2257161 0.2199305 0.2176264 0.2199054
 0.2254857 0.2319675 0.2372753 0.2402391 0.2405904 0.2388438 0.2362588 0.2345373 0.2345884 0.2351809
 0.2338804 0.2301242 0.2261568 0.2237403 0.2214392 0.2172851 0.2130997 0.2132934 0.2191264 0.2265882
 0.2308974 0.2313449 0.2304374 0.2293439 0.2259139 0.2177794 0.2068354 0.1993531 0.2005054 0.2089942
 0.2181979 0.2226519 0.2223993 0.2210748 0.2210582 0.2210425 0.2178755 0.2106698 0.2029345 0.1996414
 0.2019418 0.2061359 0.2080662 0.2064456 0.2014348 0.193314 0.1848512 0.1821733 0.1896178 0.2044379
 0.2189361 0.2267973 0.2254241 0.2145897 0.1973331 0.1818008 0.1772902 0.1859277 0.2000816 0.2093765
 0.2089336 0.2002603 0.1868114 0.1716108 0.1586604 0.1534232 0.1595723 0.1752548 0.1930595 0.2036872
 0.2011096 0.1872834 0.172606 0.1684444 0.1767684 0.188752 0.1946392 0.1925929 0.1873528 0.1841534
 0.1857058 0.1916535 0.1989484 0.2047319 0.208622 0.2094999 0.2024536 0.1846814 0.1633039 0.1506622
 0.1515064 0.1605925 0.1725542 0.18671 0.2005898 0.2066361 0.2007219 0.1899497 0.1865905 0.1950588
 0.2081412 0.2158179 0.2151741 0.2109315 0.208171 0.2069376 0.2047416 0.2023771 0.2041456 0.2119063
 0.2218119 0.2286006 0.2310762 0.2316262 0.2321812 0.232744 0.2327652 0.232048 0.2306745 0.2291233
 0.2281138 0.2278024 0.2276395 0.2271917 0.2261189 0.222938 0.2153499 0.2034785 0.1919088 0.1860459
 0.1863873 0.1889247 0.1911067 0.1933146 0.1932908 0.184581 0.1650545 0.1438916 0.1348994 0.1431712
 0.1612954 0.1778097 0.1859826 0.1843973 0.1735371 0.1559963 0.1392066 0.1330948 0.1419809 0.1604377
 0.1790997 0.1927294 0.2007753 0.2028865 0.1979533 0.1873137 0.1760097 0.1698937 0.1720823 0.1816013
 0.1936907 0.2010054 0.1972259 0.1833587 0.1704862 0.171562 0.1878088 0.2066572 0.2158752 0.215946
 0.2150445 0.216335 0.216432 0.2143593 0.2151141 0.2228369 0.2347401 0.2438575 0.2451597 0.2375444
 0.2231937 0.2080638 0.2003209 0.2037609 0.2134311 0.2209571 0.2226091 0.2188181 0.2092529 0.194872
 0.183121 0.1834576 0.1964017 0.2123111 0.2223423 0.2265075 0.2296382 0.233058 0.2329649 0.2261725
 0.2154214 0.2076897 0.2073071 0.2121827 0.2173719 0.2202887 0.2207531 0.218053 0.2113819 0.2031924
 0.1992247 0.2035254 0.2142381 0.2253046 0.2318574 0.2332644 0.2317266 0.2294134 0.2269897 0.2237892
 0.2192834 0.2149748 0.2140906 0.2181422 0.2245313 0.2292267 0.2313741 0.233574 0.2377928 0.2426579
 0.2451303 0.2438196 0.2403039 0.237752 0.238381 0.2416986 0.2448698 0.2451362 0.2424398 0.2397225
 0.2402137 0.2443492 0.2497127 0.2537885 0.2560092 0.2572291 0.2582531 0.2591349 0.2591354 0.257279
 0.2537396 0.2506571 0.2506225 0.2541056 0.2590076 0.2628362 0.2647201 0.2652582 0.2651424 0.2644369
 0.2629913 0.2611015 0.2595191 0.2588562 0.2591433 0.259988 0.2609838 0.2618876 0.2625854 0.2630646
 0.2633831 0.2635888 0.2636983 0.2637531 0.2638055 0.2638285 0.263746 0.2635978 0.2635733 0.2638014
 0.2641767 0.2644653 0.2645177 0.2642886 0.2637223 0.2627627 0.2614779 0.2600386 0.2585272 0.2568819
 0.2551415 0.2537112 0.2532426 0.2541432 0.2561955 0.2586864 0.2609015 0.262489 0.26345 0.2639424
 0.2641456 0.2642115 0.2642253 0.2641911 0.2640744 0.2638615 0.2635704 0.2632226 0.2628324 0.2624254
 0.2620482 0.261738 0.2614806 0.2612133 0.2608722 0.2604338 0.2599183 0.259368 0.2588135 0.2582439
 0.2576068 0.2568513 0.2559752 0.2550325 0.2541016 0.2532424 0.2524614 0.2517126 0.2509416 0.2501235
 0.2492406 0.2482464 0.2471097 0.2459031 0.2447943 0.2439105 0.2432284 0.2426163 0.2419503 0.2411738
 0.2402852 0.2393148 0.2383038 0.2372722 0.2362053 0.2350774 0.2338765 0.2325989 0.2312413 0.229806
 0.2282995 0.2267279 0.2251046 0.2234538 0.2217784 0.2200191 0.2180575 0.2157578 0.212999 0.2096877
 0.2057805 0.2013245 0.1964798 0.1914832 0.1865652 0.1818899 0.1775631 0.1736754 0.1703174 0.1675634
 0.1654634 0.1640501 0.1633424 0.1633409 0.1640278 0.1653708 0.1673133 0.1697564 0.1725561 0.1755445
 0.178549 0.1814071 0.1840091 0.1863568 0.1885486 0.1906667 0.1926904 0.1945404 0.1961726 0.1975944
 0.1988184 0.1998443 0.2006844 0.2013764 0.2019667 0.2024861 0.2029421 0.2033298 0.2036487 0.2039046
 0.2041039 0.2042595 0.2044018 0.2045714 0.2047943 0.2050635 0.205349 0.2056383 0.205964 0.2063734
 0.2068709 0.2074163 0.207979 0.2085623 0.2091764 0.2098256 0.2105342 0.211355 0.2123339 0.2134742
 0.2147401 0.2160839 0.2174567 0.218796 0.2200152 0.2210263 0.2217761 0.222259 0.2225055 0.2225661
 0.22249 0.2223027 0.2220083 0.2216177 0.2211597 0.2206583 0.2201148 0.2195196 0.2188711 0.2181791
 0.2174599 0.2167317 0.2160099 0.2153053 0.2146248 0.2139727 0.2133473 0.21274 0.2121418 0.2115503
 0.2109699 0.2104021 0.2098395 0.2092701 0.2086824 0.2080635 0.2073972 0.2066678 0.2058662 0.2049835
 0.2040035 0.2029085 0.2016982 0.2003943 0.1990211 0.1975844 0.1960761 0.1944936 0.1928438 0.1911269
 0.1893235 0.1874089 0.1853921 0.1833387 0.1813453 0.1794844 0.1777744 0.1761937 0.1747102 0.1733005
 0.1719547 0.1706685 0.1694372 0.1682583 0.1671341 0.1660645 0.1650445 0.1640798 0.1631933 0.1624097
 0.1617363 0.1611578 0.1606448 0.1601733 0.1597417 0.1593679 0.1590783 0.158902 0.158852 0.1588954
 0.1589576 0.1589697 0.1589066 0.1587845 0.1586408 0.1585109 0.1584068 0.1583229 0.1582585 0.1582029
 0.158097 0.1578341 0.1573086 0.1564558 0.1552638 0.153766 0.1520297 0.1501575 0.1482952 0.1465937
 0.1451465 0.1439803 0.1430939 0.1424555 0.1419806 0.1415757 0.1412178 0.1409717 0.1409275 0.1411047
 0.1413885 0.1415916 0.1416283 0.141608 0.1417295 0.1421167 0.1427594 0.1435502 0.1443511 0.1450581
 0.1456184 0.1460061 0.1462253 0.1463262 0.1463602 0.146328 0.1462108 0.1460157 0.1457571 0.1454401
 0.1450744 0.1446619 0.144179 0.1436088 0.1429612 0.142243 0.1414508 0.1405806 0.1395933 0.1384298
 0.1371458 0.1359802 0.1352238 0.1350465 0.1354408 0.1362486 0.1372588 0.138337 0.1393963 0.1402309
 0.1405863 0.1405503 0.140726 0.1417887 0.1438411 0.1462988 0.148417 0.1498292 0.1505539 0.1506815
 0.1502508 0.1493126 0.1478891 0.145928 0.1434382 0.1405707 0.1374935 0.1343475 0.1313366 0.1286663
 0.1264115 0.1245651 0.1231231 0.1221349 0.1217318 0.1215303 0.1196179 0.1135633 0.1041855 0.09720729
 0.09842859 0.1071987 0.1168864 0.1218762 0.1220242 0.1203293 0.1188506 0.1178854 0.1173275 0.1173434
 0.1180786 0.1193773 0.1208302 0.1220282 0.1228008 0.1231771 0.1231148 0.1222704 0.1199256 0.1152254
 0.1078664 0.09870633 0.08948249 0.08180054 0.07640722 0.07320048 0.07157639 0.07077634 0.07024971 0.06992222
 0.07011458 0.07115939 0.07311262 0.0758105 0.07905004 0.08256689 0.08593502 0.08874001 0.09089693 0.09262675
 0.09408537 0.09516834 0.09570593 0.09569758 0.09529603 0.09466557 0.09391922 0.09311782 0.09224255 0.09120358
 0.08998525 0.08878922 0.08792101 0.08750204 0.08738583 0.08736426 0.08734415 0.08731741 0.08728306 0.08723709
 0.08718415 0.08716026 0.08725506 0.08755125 0.08801308 0.0884816 0.0887991 0.08892682 0.08894467 0.08890811
 0.08869666 0.08812841 0.08729596 0.08658305 0.0861616 0.08567253 0.08468086 0.08332781 0.08225152 0.08189973
 0.08213855 0.0825104 0.08266403 0.08251812 0.08222971 0.08211941 0.08245806 0.08314832 0.08370669 0.08371791
</values></Ydata></ScRf><Data_Parameters_AB><parameter name="DPF">1</parameter><parameter name="NPT">3497</parameter><parameter name="FXV">3996</parameter><parameter name="LXV">500</parameter><parameter name="CSF">1</parameter><parameter name="MXY">0.090515173971653</parameter><parameter name="MNY">-0.0285203345119953</parameter><parameter name="DAT">02/06/2022</parameter><parameter name="TIM">13:47:02.648 (GMT+2)</parameter><parameter name="DXU">WN</parameter></Data_Parameters_AB><AB__Qtest><MainReport name="Quality Test Report"><Header><Line><Legend>Test result ok/not ok [1/0]: </Legend><Value>0</Value></Line><Line><Legend>Method file: </Legend><Value>C:\Users\Public\Documents\Bruker\OPUS_8.2.28\QT\IRBT_v3_default.QT</Value></Line></Header><Matrix><Line><Legend></Legend><Legend>min</Legend><Legend>max</Legend><Legend>measured</Legend></Line><Line><Value>Absorption (X-Range 1):</Value><Value>0.400000</Value><Value>2.000000</Value><Value>0.082531</Value></Line><Line><Value>Noise (X-Range 4):</Value><Value></Value><Value>0.000300</Value><Value>0.000056</Value></Line><Line><Value>Signal/Noise (X-Range 2):</Value><Value>200.000000</Value><Value></Value><Value>33.198049</Value></Line><Line><Value>Signal/Noise (X-Range 3):</Value><Value>40.000000</Value><Value></Value><Value>26.153030</Value></Line><Line><Value>Water vapour (X-Range 5):</Value><Value></Value><Value>0.000300</Value><Value>0.000069</Value></Line><Line><Value>Signal/Water (X-Range 2):</Value><Value>100.000000</Value><Value></Value><Value>26.988025</Value></Line><Line><Value>Signal/Water (X-Range 3):</Value><Value>20.000000</Value><Value></Value><Value>21.260846</Value></Line><Line><Value>Fringes (X-Range 6):</Value><Value></Value><Value>0.000100</Value><Value>0.000067</Value></Line></Matrix></MainReport></AB__Qtest><Data_Parameters_ScSm><parameter name="DPF">1</parameter><parameter name="NPT">1814</parameter><parameter name="FXV">3996.33169228125</parameter><parameter name="LXV">499.541461535156</parameter><parameter name="CSF">1</parameter><parameter name="MXY">0.241461664438248</parameter><parameter name="MNY">0.0297613423317671</parameter><parameter name="DAT">02/06/2022</parameter><parameter name="TIM">13:47:02.648 (GMT+2)</parameter><parameter name="DXU">WN</parameter></Data_Parameters_ScSm><Data_Parameters_ScRf><parameter name="DPF">1</parameter><parameter name="NPT">1820</parameter><parameter name="FXV">4004.04661832813</parameter><parameter name="LXV">495.683998511719</parameter><parameter name="CSF">1</parameter><parameter name="MXY">0.26525816321373</parameter><parameter name="MNY">0.0291929095983505</parameter><parameter name="DAT">02/06/2022</parameter><parameter name="TIM">13:46:36.536 (GMT+2)</parameter><parameter name="DXU">WN</parameter></Data_Parameters_ScRf><Optic_Parameters_Rf><parameter name="APR">0</parameter><parameter name="APT">Open</parameter><parameter name="BMS">KBr</parameter><parameter name="DTC">RT-DLaTGS_IR-Biotyper [Microplate reader]</parameter><parameter name="HPF">0</parameter><parameter name="LPF">10.0</parameter><parameter name="LPV">4000</parameter><parameter name="PGR">0</parameter><parameter name="RCH">Module port</parameter><parameter name="RDX">0</parameter><parameter name="SRC">MIR</parameter><parameter name="VEL">10.0</parameter><parameter name="SON">Off</parameter></Optic_Parameters_Rf><Acquisition_Parameters_Rf><parameter name="ADT">1</parameter><parameter name="AQM">DD</parameter><parameter name="CFE">0</parameter><parameter name="COR">0</parameter><parameter name="DEL">0</parameter><parameter name="DLY">0</parameter><parameter name="HFW">8000</parameter><parameter name="LFW">0</parameter><parameter name="NSR">32</parameter><parameter name="PLF">AB</parameter><parameter name="RES">6</parameter><parameter name="RGN">-1</parameter><parameter name="STR">0</parameter><parameter name="TCL">MakeCompatibleScalar (0, {WSV=1.000000, ARV=0});</parameter><parameter name="TDL">37</parameter><parameter name="RPO">0</parameter></Acquisition_Parameters_Rf><FT_-_Parameters_Rf><parameter name="APF">B3</parameter><parameter name="HFQ">500</parameter><parameter name="LFQ">4000</parameter><parameter name="NLI">0</parameter><parameter name="PHR">24</parameter><parameter name="PHZ">ML</parameter><parameter name="SPZ">NO</parameter><parameter name="ZFF">1</parameter></FT_-_Parameters_Rf><Optic_Parameters_><parameter name="APR">0</parameter><parameter name="APT">Open</parameter><parameter name="BMS">KBr</parameter><parameter name="CHN">Module port</parameter><parameter name="DTC">RT-DLaTGS_IR-Biotyper [Microplate reader]</parameter><parameter name="HPF">0</parameter><parameter name="LPF">10.0</parameter><parameter name="LPV">4000</parameter><parameter name="PGN">0</parameter><parameter name="RDX">0</parameter><parameter name="SRC">MIR</parameter><parameter name="VEL">10.0</parameter><parameter name="SON">Off</parameter></Optic_Parameters_><FT_-_Parameters_><parameter name="APF">B3</parameter><parameter name="HFQ">500</parameter><parameter name="LFQ">4000</parameter><parameter name="NLI">0</parameter><parameter name="PHR">24</parameter><parameter name="PHZ">ML</parameter><parameter name="SPZ">NO</parameter><parameter name="ZFF">1</parameter></FT_-_Parameters_><Acquisition_Parameters_><parameter name="ADT">1</parameter><parameter name="AQM">DD</parameter><parameter name="CFE">0</parameter><parameter name="COR">0</parameter><parameter name="DEL">0</parameter><parameter name="DLY">0</parameter><parameter name="HFW">8000</parameter><parameter name="LFW">0</parameter><parameter name="NSS">32</parameter><parameter name="PLF">AB</parameter><parameter name="RES">6</parameter><parameter name="SOT">0</parameter><parameter name="TCL">MakeCompatibleScalar (0, {WSV=1.000000, ARV=0});</parameter><parameter name="TDL">37</parameter><parameter name="SPO">0</parameter><parameter name="SGN">-1</parameter></Acquisition_Parameters_><Instrument_Parameters_Rf><parameter name="HFL">15800.168544</parameter><parameter name="LFL">0</parameter><parameter name="LWN">15800.168544</parameter><parameter name="ABP">32197</parameter><parameter name="SSP">1</parameter><parameter name="ARG">2</parameter><parameter name="ASG">2</parameter><parameter name="ASS">32</parameter><parameter name="GFW">16</parameter><parameter name="GBW">16</parameter><parameter name="BFW">0</parameter><parameter name="BBW">0</parameter><parameter name="PKA">7271</parameter><parameter name="PKL">4996</parameter><parameter name="PRA">7458</parameter><parameter name="PRL">5001</parameter><parameter name="P2A">1</parameter><parameter name="P2L">1</parameter><parameter name="P2R">1</parameter><parameter name="P2K">1</parameter><parameter name="DAQ">0</parameter><parameter name="AG2">1</parameter><parameter name="SSM">1</parameter><parameter name="RSN">26253</parameter><parameter name="CRR">0</parameter><parameter name="SRT">1654177596.537</parameter><parameter name="DUR">19.6389923095703</parameter><parameter name="TSC">29.2</parameter><parameter name="MVD">0.406869798898697</parameter><parameter name="AN1">0.225859650827944</parameter><parameter name="AN2">0</parameter><parameter name="VSN">2.485 Apr  4 2017</parameter><parameter name="SRN">0085</parameter><parameter name="CAM">0</parameter><parameter name="INS">IR-Biotyper</parameter><parameter name="FOC">69</parameter><parameter name="RDY">1</parameter><parameter name="ARS">32</parameter></Instrument_Parameters_Rf><Sample_Parameters_><parameter name="BLD"></parameter><parameter name="CNM">Admin</parameter><parameter name="CPY"></parameter><parameter name="DPM"></parameter><parameter name="EXP">IRBT_v3_32Scans.XPM</parameter><parameter name="LCT"></parameter><parameter name="SFM">Microplate, HTS-XT</parameter><parameter name="SNM">220602-1248_CLA33F (D_22)_D8_7edf2d5b-3829-4d50-be27-767047d72752.0</parameter><parameter name="XPP">C:\Users\Public\Documents\Bruker\OPUS_8.2.28\XPM</parameter><parameter name="IST">OK</parameter><parameter name="CPG">1252</parameter><parameter name="UID">4f1689b1-29c2-497d-924f-a3da641d750b</parameter></Sample_Parameters_><Instrument_Parameters_><parameter name="HFL">15800.168544</parameter><parameter name="LFL">0</parameter><parameter name="LWN">15800.168544</parameter><parameter name="ABP">32197</parameter><parameter name="SSP">1</parameter><parameter name="ASG">2</parameter><parameter name="ARG">2</parameter><parameter name="ASS">32</parameter><parameter name="GFW">16</parameter><parameter name="GBW">16</parameter><parameter name="BFW">0</parameter><parameter name="BBW">0</parameter><parameter name="PKA">6819</parameter><parameter name="PKL">4988</parameter><parameter name="PRA">7119</parameter><parameter name="PRL">4993</parameter><parameter name="P2A">1</parameter><parameter name="P2L">1</parameter><parameter name="P2R">1</parameter><parameter name="P2K">1</parameter><parameter name="DAQ">0</parameter><parameter name="AG2">1</parameter><parameter name="SSM">1</parameter><parameter name="RSN">13752</parameter><parameter name="CRR">0</parameter><parameter name="SRT">1654177622.648</parameter><parameter name="DUR">19.6379852294922</parameter><parameter name="TSC">29.2</parameter><parameter name="MVD">0.20725291967392</parameter><parameter name="AN1">0.225845998980796</parameter><parameter name="AN2">0</parameter><parameter name="VSN">2.485 Apr  4 2017</parameter><parameter name="SRN">0085</parameter><parameter name="CAM">0</parameter><parameter name="INS">IR-Biotyper</parameter><parameter name="FOC">69</parameter><parameter name="RDY">1</parameter></Instrument_Parameters_><History/></OPUSDataFile>
