<?xml version="1.0" encoding="UTF-8" ?>
<OPUSDataFile><AB><Ydata ylabel="Absorbance Units"><values byteorder="INTEL" format="FLOAT32" numvalues="3497"> -0.07981315 -0.0798106 -0.07979932 -0.07977872 -0.07975774 -0.0797368 -0.07971302 -0.07968631 -0.07965361 -0.07961657
 -0.07958281 -0.07955462 -0.07954493 -0.07955266 -0.07958288 -0.07963064 -0.07969074 -0.07975774 -0.07982389 -0.0798852
 -0.0799364 -0.07997492 -0.07999746 -0.08000532 -0.07999687 -0.07998008 -0.07995576 -0.07993436 -0.07991765 -0.07991192
 -0.07991812 -0.07993732 -0.07996961 -0.08001108 -0.08006088 -0.08010733 -0.08014883 -0.08016913 -0.08016912 -0.08014155
 -0.08009227 -0.08003039 -0.07996314 -0.07990702 -0.07986405 -0.07984394 -0.07984271 -0.07986091 -0.0798929 -0.07993656
 -0.07998522 -0.08003738 -0.08008257 -0.08011811 -0.08013619 -0.08013349 -0.08011903 -0.08009227 -0.08007713 -0.08007497
 -0.08010302 -0.08016029 -0.08023816 -0.08033279 -0.08041601 -0.08048741 -0.08052856 -0.08054607 -0.08054583 -0.08053544
 -0.08053128 -0.08053411 -0.08055328 -0.08058055 -0.08061419 -0.0806414 -0.08065427 -0.08064666 -0.08061134 -0.08056045
 -0.08049276 -0.08043493 -0.08039082 -0.08038107 -0.08040909 -0.08047377 -0.08057524 -0.08069333 -0.08082649 -0.08094951
 -0.08106188 -0.08114764 -0.08120795 -0.08123823 -0.08124048 -0.08121587 -0.08116919 -0.08110695 -0.08103776 -0.08097406
 -0.08092133 -0.08089079 -0.08087504 -0.0808761 -0.08087529 -0.08086483 -0.0808376 -0.08078648 -0.08073107 -0.08067213
 -0.08063648 -0.08062781 -0.08065075 -0.08070586 -0.08077436 -0.08085541 -0.0809331 -0.08100842 -0.08108035 -0.08114905
 -0.08121548 -0.08127671 -0.08132587 -0.081361 -0.08137374 -0.08136915 -0.08134905 -0.08132035 -0.08129077 -0.08125921
 -0.08122744 -0.08119226 -0.08114991 -0.08111119 -0.08107538 -0.08106659 -0.08108871 -0.08115955 -0.08128397 -0.08144018
 -0.08162781 -0.08174622 -0.08179171 -0.08168071 -0.08143185 -0.08112551 -0.08077803 -0.08049704 -0.08027578 -0.08015153
 -0.08011111 -0.08015332 -0.08025522 -0.08039542 -0.08053881 -0.08064906 -0.0807073 -0.0806828 -0.08060903 -0.08048569
 -0.08036942 -0.08027826 -0.08022988 -0.08023325 -0.08026816 -0.08033361 -0.08041046 -0.08049738 -0.08059166 -0.08069292
 -0.08079741 -0.08090209 -0.08098537 -0.08104397 -0.08105075 -0.08101147 -0.08092397 -0.08080189 -0.08066816 -0.08053094
 -0.0804095 -0.08030555 -0.08022543 -0.08017302 -0.08015147 -0.08016536 -0.08021941 -0.08030639 -0.08042938 -0.08055978
 -0.08069527 -0.08079964 -0.08086828 -0.08088426 -0.08084603 -0.08076456 -0.08064112 -0.08049778 -0.08033504 -0.08016627
 -0.07999165 -0.07981701 -0.07964674 -0.07949328 -0.07936429 -0.07928055 -0.0792416 -0.07926077 -0.07931791 -0.07940524
 -0.0794918 -0.07955588 -0.0795854 -0.07956545 -0.07951577 -0.07943632 -0.07935745 -0.079285 -0.07923443 -0.07920884
 -0.07920584 -0.07922557 -0.07925835 -0.07930342 -0.07934761 -0.07939024 -0.07941946 -0.07943697 -0.07944242 -0.07943949
 -0.07943841 -0.07943919 -0.07944831 -0.07945965 -0.07946803 -0.07946942 -0.0794543 -0.07943539 -0.07941257 -0.07941444
 -0.07945279 -0.07954481 -0.07970352 -0.07990431 -0.08015087 -0.08037807 -0.08058034 -0.08069912 -0.08073015 -0.08064602
 -0.08044811 -0.0801558 -0.07977989 -0.07940413 -0.07903718 -0.07876206 -0.07857066 -0.07848866 -0.07849362 -0.07856209
 -0.0786642 -0.0787506 -0.07881241 -0.07881887 -0.07879229 -0.07873733 -0.07867313 -0.07861106 -0.07855125 -0.07849805
 -0.07843712 -0.07836707 -0.07827258 -0.07815032 -0.07800797 -0.07784532 -0.07769673 -0.07756411 -0.07748327 -0.07745285
 -0.07748456 -0.07756826 -0.07767384 -0.07778371 -0.07783082 -0.07781854 -0.07771267 -0.07754829 -0.07735854 -0.07716216
 -0.07699367 -0.07683748 -0.07669622 -0.07654581 -0.07637378 -0.07617836 -0.07595232 -0.07572113 -0.07548764 -0.07527599
 -0.07509084 -0.07492866 -0.07479014 -0.07463995 -0.0744764 -0.07426467 -0.07400971 -0.07372998 -0.07343376 -0.07316799
 -0.07292918 -0.07273205 -0.07256925 -0.07243404 -0.07232126 -0.07222519 -0.07213239 -0.07203332 -0.07190546 -0.07173079
 -0.07150272 -0.07121152 -0.07086901 -0.07047766 -0.07004126 -0.06955945 -0.06904378 -0.06849368 -0.06793993 -0.06738466
 -0.06684447 -0.06631947 -0.0658074 -0.06530926 -0.06483149 -0.06437626 -0.06395862 -0.06357445 -0.0632222 -0.06289285
 -0.06256907 -0.06224474 -0.06190879 -0.06154701 -0.06114858 -0.06068624 -0.06013253 -0.05950028 -0.05877715 -0.05802656
 -0.05726713 -0.05652651 -0.05581646 -0.05512256 -0.05444438 -0.05376945 -0.05309653 -0.05243072 -0.05177286 -0.05114203
 -0.05053824 -0.04997525 -0.04944382 -0.04891765 -0.04837687 -0.04774591 -0.04703182 -0.04619654 -0.04529678 -0.04439656
 -0.04352119 -0.04272853 -0.0419836 -0.04128357 -0.04058839 -0.03987657 -0.03913958 -0.03836688 -0.0375789 -0.03677774
 -0.03598109 -0.03519302 -0.03440528 -0.03361813 -0.03280316 -0.03195949 -0.03107104 -0.03014173 -0.02919435 -0.02823319
 -0.02729021 -0.02636329 -0.02546203 -0.02458502 -0.02373374 -0.02290815 -0.02211267 -0.02133551 -0.02056966 -0.0197992
 -0.01900858 -0.01820204 -0.01737668 -0.01654303 -0.01570766 -0.01485606 -0.01398691 -0.01308428 -0.01214264 -0.01119026
 -0.01022806 -0.00930263 -0.008415056 -0.007577415 -0.006786632 -0.006024926 -0.005288323 -0.004550488 -0.00380954 -0.003044226
 -0.002260837 -0.001459664 -0.0006515483 0.000145811 0.0009348329 0.001705683 0.002481793 0.003274074 0.004103375 0.004987246
 0.005911807 0.006881024 0.007857797 0.008835546 0.009788905 0.01071272 0.01160592 0.01246752 0.01331625 0.01415299
 0.01499496 0.0158413 0.01669198 0.0175469 0.01840448 0.01926825 0.02014955 0.02104628 0.02196337 0.02288805
 0.02380439 0.02470551 0.02557537 0.02642476 0.02725499 0.02807903 0.02890516 0.02973179 0.03056207 0.03138269
 0.03219156 0.03297862 0.0337408 0.03448834 0.03522104 0.03596947 0.03673492 0.03754022 0.03838262 0.03925032
 0.04013811 0.04101468 0.04188104 0.04272205 0.04354593 0.04436208 0.04517581 0.04600157 0.04683159 0.04766673
 0.04848976 0.04928771 0.05005671 0.05078556 0.0515011 0.05220678 0.05293532 0.05369675 0.05449175 0.05532351
 0.05616906 0.05702687 0.05788259 0.05873568 0.05958086 0.06041737 0.06123563 0.06203578 0.06281212 0.06356795
 0.06430988 0.06504079 0.06577018 0.06649745 0.06722637 0.06795358 0.06867782 0.06939457 0.07009909 0.07079371
 0.07147579 0.07215866 0.072847 0.07354452 0.07425607 0.07495985 0.0756535 0.07632124 0.07696035 0.07759746
 0.07823443 0.07891627 0.07964124 0.08041672 0.08123202 0.08204296 0.08283838 0.08355949 0.0842093 0.08475915
 0.08523417 0.08565343 0.08604836 0.08645998 0.08689432 0.08737298 0.08787377 0.08839142 0.08890954 0.08941947
 0.08992505 0.09042583 0.09092534 0.09142447 0.09192003 0.09241158 0.09290368 0.09339684 0.09390395 0.09442568
 0.09497301 0.09554578 0.09615015 0.09678303 0.09744103 0.09811527 0.09878734 0.09944835 0.1000767 0.1006719
 0.1012248 0.1017398 0.1022172 0.102661 0.1030717 0.1034569 0.1038172 0.1041664 0.1045065 0.104853
 0.1052078 0.1055846 0.1059848 0.1064116 0.1068647 0.1073293 0.1078042 0.1082718 0.1087341 0.1091919
 0.109647 0.1101082 0.1105696 0.1110231 0.1114635 0.1118748 0.1122689 0.1126478 0.1130351 0.1134509
 0.1138972 0.1143886 0.114886 0.1153837 0.1158333 0.1162188 0.1165393 0.1167875 0.1170181 0.117235
 0.1174796 0.1177526 0.1180227 0.1182855 0.11848 0.118613 0.1186816 0.1187054 0.1187452 0.1188115
 0.1189611 0.1191796 0.1194756 0.1198187 0.1201826 0.1205434 0.1208709 0.1211741 0.1214413 0.1217187
 0.122018 0.1223762 0.1228122 0.1232899 0.1238138 0.1242847 0.1246948 0.1249724 0.1251155 0.125149
 0.1250806 0.1249963 0.1248978 0.1248406 0.1248146 0.1248137 0.1248378 0.1248771 0.1249512 0.1250892
 0.125293 0.1255902 0.1259306 0.1262938 0.1266207 0.1268671 0.1270439 0.1271335 0.1272125 0.1272946
 0.1274347 0.1276478 0.1279113 0.128227 0.1285225 0.1287944 0.1289802 0.1290817 0.1290875 0.1290096
 0.1288982 0.1287705 0.1287085 0.1287177 0.1288573 0.1291045 0.1294607 0.1298778 0.1303106 0.1307151
 0.1310398 0.1312862 0.1314314 0.1315304 0.1315917 0.1316785 0.1318075 0.1320067 0.132283 0.1326424
 0.1330857 0.1336259 0.1342634 0.1349956 0.1358155 0.1366557 0.1374997 0.138226 0.138829 0.1392152
 0.1394151 0.1394351 0.1393407 0.1392274 0.1391522 0.13922 0.139423 0.1398058 0.1402841 0.1408388
 0.1413629 0.1418155 0.1421382 0.142303 0.1423313 0.1422164 0.1420371 0.1417983 0.1415799 0.1413856
 0.1412523 0.1411786 0.1411622 0.141201 0.1412841 0.1414112 0.1415777 0.141781 0.142018 0.142275
 0.1425384 0.1427737 0.1429466 0.1430136 0.1429276 0.1426823 0.1422468 0.1416883 0.1410114 0.1403224
 0.1396458 0.1390528 0.1385606 0.1381768 0.1379054 0.137712 0.1375944 0.1374937 0.1374065 0.1372729
 0.1370973 0.136867 0.1365971 0.1363333 0.1360783 0.1358699 0.1356802 0.1354854 0.135255 0.1349382
 0.1345488 0.1340679 0.1335572 0.1330375 0.1325729 0.1321939 0.1319182 0.1317646 0.1316801 0.1316665
 0.1316195 0.1315305 0.131318 0.130978 0.1305202 0.1299514 0.1293525 0.1287283 0.128149 0.1276094
 0.1271286 0.1267001 0.1263188 0.1259793 0.125675 0.1253915 0.1251138 0.1248236 0.1244993 0.1241433
 0.1237451 0.1233354 0.1229202 0.122533 0.1221849 0.121882 0.1216299 0.1214003 0.1211924 0.1209633
 0.120711 0.1204088 0.120058 0.1196637 0.1192304 0.1187846 0.1183304 0.1178956 0.117481 0.1171042
 0.1167588 0.1164463 0.1161497 0.1158528 0.115538 0.1151832 0.1147917 0.1143535 0.1138992 0.1134361
 0.1129927 0.1125806 0.1121944 0.1118374 0.1114781 0.1111136 0.1107228 0.1103045 0.1098668 0.1094113
 0.1089574 0.1085047 0.1080613 0.1076254 0.1071943 0.1067694 0.1063524 0.1059467 0.1055599 0.1051903
 0.1048407 0.1045041 0.1041737 0.1038528 0.1035359 0.1032476 0.1029949 0.1027987 0.1026723 0.1025871
 0.1025475 0.1024712 0.1023517 0.1021182 0.1017669 0.1013072 0.1007459 0.1001687 0.09958381 0.09908584
 0.09866981 0.09837579 0.09817875 0.09804685 0.09794531 0.09780184 0.09760419 0.09729873 0.09692491 0.09648661
 0.09604897 0.09565356 0.09531645 0.09506395 0.09484306 0.09464498 0.0944313 0.09418622 0.09395945 0.09375136
 0.09364934 0.09365802 0.09378929 0.09403523 0.09429985 0.09457094 0.09472466 0.09476577 0.09463764 0.09436914
 0.0939947 0.09354927 0.09310765 0.09268033 0.09231436 0.09198744 0.09169755 0.09142315 0.09114526 0.09087801
 0.09061954 0.09039675 0.09022108 0.09008013 0.08997749 0.08986772 0.08974557 0.08959698 0.08942092 0.08925947
 0.08911493 0.08903142 0.08900366 0.08902472 0.08908392 0.08913831 0.08918516 0.08919373 0.08917395 0.08912747
 0.08906619 0.08900821 0.08894861 0.08889683 0.08882129 0.08871076 0.08853032 0.08825763 0.08790417 0.0874576
 0.08699561 0.08652493 0.08613466 0.08583729 0.08564669 0.08556443 0.08550605 0.08546529 0.08533363 0.08511547
 0.08477565 0.08433647 0.08385725 0.08335976 0.08293048 0.08256578 0.08230495 0.08211834 0.08198974 0.08188681
 0.08177677 0.08164719 0.08147847 0.08128407 0.08106104 0.08083875 0.08062372 0.08043816 0.08028988 0.08016615
 0.08006876 0.0799522 0.07981393 0.07962279 0.07938106 0.07911365 0.07882717 0.07857801 0.07836278 0.07820322
 0.07808281 0.07797034 0.0778586 0.07771338 0.07755688 0.07739642 0.07726733 0.07720208 0.07721668 0.07733181
 0.07753997 0.07784279 0.07823209 0.07870593 0.0792604 0.07989717 0.08059523 0.08135543 0.08212496 0.08290105
 0.08360796 0.08424161 0.08472901 0.08507047 0.08522698 0.08520921 0.08503091 0.08471161 0.08430333 0.0838246
 0.08332909 0.0828279 0.08235366 0.08191298 0.08152006 0.0811817 0.08090432 0.08069476 0.08055698 0.0804948
 0.08051091 0.0806013 0.08076616 0.0809974 0.08129317 0.08166059 0.08209971 0.08264658 0.08330327 0.08410984
 0.08506224 0.0861588 0.08738568 0.08869117 0.09006295 0.091442 0.09283036 0.09420243 0.09557148 0.09694346
 0.09832893 0.09973958 0.1011778 0.1026481 0.10415 0.1056847 0.1072484 0.1088437 0.1104487 0.1120648
 0.1136417 0.1151764 0.1166043 0.1179215 0.1190788 0.1200756 0.1208947 0.1215382 0.1220106 0.1223166
 0.1224702 0.1224863 0.1224001 0.1222454 0.1220899 0.1219732 0.1219723 0.1221001 0.1224 0.1228459
 0.1234374 0.12414 0.1249372 0.1258208 0.1267832 0.1278359 0.1289811 0.1302194 0.1315533 0.1329563
 0.1344275 0.1359124 0.137407 0.1388416 0.1402146 0.1414779 0.1426421 0.1437179 0.1447244 0.1457196
 0.1467031 0.1477186 0.1487083 0.1496482 0.1504032 0.1508788 0.1508956 0.1503266 0.1490612 0.1469955
 0.1442199 0.1406965 0.1367385 0.1323704 0.1279905 0.1236415 0.119615 0.1159331 0.1126809 0.1098539
 0.1073778 0.1052404 0.103326 0.1016293 0.1000703 0.09864444 0.09730376 0.09603526 0.09479519 0.09357368
 0.09233586 0.09109563 0.08984695 0.08862429 0.08744494 0.08633646 0.08531572 0.08438856 0.08355986 0.08282854
 0.08219358 0.08166415 0.0812401 0.08094131 0.08076899 0.0807402 0.08085388 0.08109681 0.08145918 0.08187138
 0.08231628 0.08268677 0.08297753 0.08311143 0.08311429 0.08298714 0.08278097 0.08255442 0.08235832 0.08225486
 0.08227499 0.08245695 0.08280104 0.08332185 0.08398746 0.08479502 0.08570348 0.08670477 0.0877781 0.08892388
 0.09009752 0.0912996 0.0923365 0.09318792 0.09347752 0.09318651 0.09197243 0.08988791 0.08692357 0.0832222
 0.07913554 0.07480802 0.07067283 0.06676879 0.06333941 0.06030535 0.05769013 0.05537914 0.05330738 0.05140932
 0.04963809 0.04798632 0.0464428 0.04501486 0.04370436 0.04250307 0.04141177 0.04040672 0.03948662 0.03862583
 0.03782336 0.03706216 0.036342 0.03565355 0.03499576 0.03435895 0.03374271 0.03313918 0.03255304 0.03198871
 0.03145142 0.03095369 0.03048608 0.0300499 0.02961921 0.02917833 0.02871145 0.02820157 0.02767102 0.02711707
 0.02658914 0.02609644 0.02566935 0.02531573 0.02501423 0.02476469 0.02451535 0.02426464 0.02398459 0.02367899
 0.02336384 0.02304159 0.02273469 0.02243437 0.02212934 0.02180889 0.02144284 0.02103949 0.02059102 0.02012582
 0.01966516 0.01923336 0.01885424 0.01852933 0.0182681 0.01805324 0.01788428 0.01773449 0.01760076 0.0174517
 0.01728344 0.01707356 0.01681977 0.01652753 0.01619821 0.0158616 0.01551954 0.01520049 0.01490275 0.01463493
 0.01439307 0.01417095 0.01396555 0.01376837 0.01357819 0.01338941 0.01320378 0.01301931 0.01284341 0.01267871
 0.01253547 0.01242031 0.01233243 0.01227685 0.01223073 0.01219303 0.01212944 0.0120352 0.0118936 0.01170239
 0.01147925 0.01122591 0.01097942 0.01074061 0.01053457 0.01035699 0.01020415 0.01006911 0.009929728 0.009784665
 0.009617622 0.009439277 0.009254613 0.009079983 0.008934819 0.008820175 0.008749209 0.008693968 0.008649603 0.008578029
 0.008464746 0.008298686 0.00807114 0.007808662 0.007511866 0.007218651 0.006931907 0.006671481 0.006437607 0.006228207
 0.006041948 0.005867817 0.005704758 0.005542357 0.00538057 0.005213556 0.005042693 0.004867429 0.004690277 0.004514152
 0.004341414 0.004175506 0.004016832 0.003867118 0.003724359 0.003588646 0.003456016 0.003325525 0.003193456 0.003058728
 0.002920575 0.002778616 0.002634482 0.002488269 0.002340777 0.002192094 0.002043418 0.001895691 0.001756709 0.001628159
 0.00152289 0.001439281 0.001381784 0.001342337 0.001308722 0.001271407 0.001211423 0.001126723 0.001006985 0.000858865
 0.0006827543 0.0004876859 0.0002769252 5.950375E-05 -0.0001622325 -0.0003779726 -0.0005854354 -0.0007773951 -0.0009520865 -0.001111672
 -0.001255982 -0.001393268 -0.001523834 -0.001652256 -0.001778238 -0.001901079 -0.002020793 -0.002136966 -0.00225019 -0.002362168
 -0.002472899 -0.002583012 -0.002692784 -0.002802054 -0.002913403 -0.003028865 -0.003151384 -0.003284753 -0.003425909 -0.003576317
 -0.003725155 -0.003869684 -0.004001152 -0.004116087 -0.004218034 -0.004306197 -0.004392774 -0.004478642 -0.004571863 -0.004672548
 -0.004778445 -0.004888944 -0.004997653 -0.005104781 -0.005207327 -0.005307146 -0.005407725 -0.005511406 -0.005625101 -0.005748393
 -0.005885124 -0.006029665 -0.006178796 -0.006325658 -0.00646395 -0.006592789 -0.006709166 -0.006818247 -0.006920871 -0.007021746
 -0.007122265 -0.0072232 -0.007324913 -0.007426633 -0.007528391 -0.007627902 -0.007725051 -0.007817298 -0.007905085 -0.007990642
 -0.00807549 -0.008168234 -0.008269257 -0.008385503 -0.008513311 -0.008649549 -0.008788634 -0.008920821 -0.00904457 -0.009153394
 -0.009252382 -0.009342065 -0.009430089 -0.009520353 -0.00961651 -0.009721185 -0.009832309 -0.009950107 -0.01007106 -0.01019466
 -0.01031956 -0.01044566 -0.01057156 -0.01069707 -0.01081668 -0.01092993 -0.01102955 -0.01111644 -0.01118988 -0.01125332
 -0.01131649 -0.01138244 -0.01146311 -0.01155685 -0.01166813 -0.0117895 -0.01191604 -0.01203976 -0.01215317 -0.01225416
 -0.01233846 -0.01241222 -0.01247557 -0.0125381 -0.01260192 -0.01267296 -0.01275275 -0.01283986 -0.01293444 -0.01303113
 -0.01312971 -0.01322717 -0.01332376 -0.01342083 -0.01351833 -0.01361737 -0.01371625 -0.0138109 -0.01389863 -0.01397137
 -0.01402908 -0.01406645 -0.01408973 -0.01410129 -0.01411206 -0.01412998 -0.0141626 -0.01421697 -0.01429006 -0.01438393
 -0.01448708 -0.01459787 -0.01470539 -0.01480766 -0.014901 -0.0149848 -0.0150613 -0.01513065 -0.01519571 -0.01525652
 -0.01531424 -0.01536908 -0.01542238 -0.01547518 -0.01553139 -0.0155918 -0.01566033 -0.01573629 -0.01582056 -0.01591156
 -0.01600795 -0.01610881 -0.01621344 -0.01632028 -0.01642917 -0.01653613 -0.01664016 -0.01673705 -0.01682515 -0.01690562
 -0.01697783 -0.01704868 -0.01711865 -0.01719345 -0.01727325 -0.01735652 -0.01744263 -0.01752453 -0.01760229 -0.01767202
 -0.01773552 -0.01779629 -0.01785605 -0.01792082 -0.01798946 -0.01806339 -0.01813965 -0.01821552 -0.01828979 -0.01836016
 -0.01842849 -0.01849474 -0.01856203 -0.01863135 -0.01870475 -0.01878326 -0.01886543 -0.01895175 -0.01903569 -0.01911687
 -0.01918812 -0.01924917 -0.01929981 -0.01934072 -0.01937904 -0.01941525 -0.01945587 -0.01949993 -0.01954791 -0.01959858
 -0.01964929 -0.01970007 -0.01974972 -0.01979898 -0.01984831 -0.01989795 -0.01994817 -0.01999916 -0.020051 -0.02010412
 -0.02015893 -0.02021456 -0.02027125 -0.02032612 -0.02037881 -0.0204272 -0.02047093 -0.02051183 -0.02055 -0.02058848
 -0.02062707 -0.020665 -0.02070176 -0.02073379 -0.02076201 -0.02078695 -0.0208109 -0.02083952 -0.02087321 -0.02091602
 -0.02096457 -0.02101718 -0.02107011 -0.02111928 -0.0211657 -0.02120815 -0.02125069 -0.02129478 -0.02134159 -0.02139244
 -0.02144268 -0.02149212 -0.02153435 -0.02156868 -0.021593 -0.02160729 -0.0216168 -0.02162226 -0.02163366 -0.02165103
 -0.02168064 -0.02172009 -0.02176538 -0.02181341 -0.02185442 -0.02188943 -0.02191452 -0.02193512 -0.02195603 -0.02197945
 -0.02201021 -0.02204278 -0.02207601 -0.02210394 -0.02212323 -0.0221356 -0.02214022 -0.02214319 -0.02214537 -0.0221503
 -0.02215839 -0.02217076 -0.02218748 -0.0222095 -0.02223677 -0.02226888 -0.02230614 -0.02234915 -0.02239966 -0.02246317
 -0.02254243 -0.02264627 -0.02277588 -0.02293688 -0.02312944 -0.02335498 -0.02361595 -0.02391397 -0.02425267 -0.02463509
 -0.02506001 -0.02552802 -0.0260354 -0.02657893 -0.02717077 -0.02781027 -0.02852567 -0.02932066 -0.03019631 -0.03115199
 -0.03211654 -0.03308154 -0.03393055 -0.03465735 -0.03516904 -0.03546394 -0.03548677 -0.03524061 -0.03468651 -0.03387758
 -0.03285448 -0.03172942 -0.03063887 -0.02965299 -0.02887573 -0.02830154 -0.02795773 -0.02781007 -0.02785726 -0.0280508
 -0.02838892 -0.02878251 -0.02922338 -0.02960386 -0.02991071 -0.030122 -0.03023667 -0.0303142 -0.03035608 -0.03039839
 -0.0304365 -0.03046267 -0.0304738 -0.03045388 -0.0304064 -0.03033011 -0.03023243 -0.03012566 -0.03001118 -0.02989748
 -0.02977646 -0.02964376 -0.02949629 -0.029327 -0.02915199 -0.02897375 -0.02881235 -0.028675 -0.02856174 -0.02847519
 -0.02839882 -0.02833125 -0.02826169 -0.0281896 -0.02812166 -0.02805889 -0.02801617 -0.02799312 -0.02799626 -0.02802228
 -0.02806398 -0.02811716 -0.02816833 -0.02821634 -0.02825203 -0.02828006 -0.02830087 -0.02832248 -0.02835112 -0.02839194
 -0.02845049 -0.02852406 -0.02861399 -0.02871216 -0.02881722 -0.02892145 -0.02902332 -0.02911963 -0.02920979 -0.02929462
 -0.02937416 -0.02945164 -0.02952736 -0.02960587 -0.02968729 -0.02977494 -0.02986778 -0.0299642 -0.03006251 -0.03015746
 -0.03024945 -0.03033601 -0.03042026 -0.0305049 -0.03059174 -0.03068424 -0.03077909 -0.03087619 -0.03096995 -0.0310579
 -0.03113857 -0.03121031 -0.03127766 -0.03134073 -0.03140598 -0.03147412 -0.03154832 -0.03162875 -0.03171207 -0.03179783
 -0.0318791 -0.03195593 -0.03202429 -0.03208575 -0.0321435 -0.03219942 -0.03226012 -0.03232513 -0.03239753 -0.03247383
 -0.03255151 -0.03262704 -0.03269644 -0.03275936 -0.03281392 -0.03286302 -0.03290696 -0.03294947 -0.03299144 -0.03303566
 -0.03308276 -0.03313389 -0.0331893 -0.03324883 -0.03331251 -0.03337917 -0.03344865 -0.03351881 -0.0335892 -0.03365592
 -0.03371868 -0.03377384 -0.03382256 -0.03386511 -0.03390417 -0.03394446 -0.03398724 -0.03403671 -0.0340901 -0.03414745
 -0.03420341 -0.03425475 -0.03429946 -0.03433462 -0.03436618 -0.03439389 -0.03442938 -0.03447462 -0.03453639 -0.0346163
 -0.03470741 -0.03480944 -0.03490571 -0.03499566 -0.0350676 -0.03512279 -0.03516279 -0.03518969 -0.03521197 -0.03523042
 -0.03525102 -0.03527402 -0.03530202 -0.03533616 -0.03537918 -0.03543018 -0.03549074 -0.03555504 -0.0356208 -0.03568202
 -0.03573449 -0.03578136 -0.03582129 -0.03586553 -0.03591607 -0.03597847 -0.03605432 -0.03613473 -0.0362193 -0.03629416
 -0.03635922 -0.03640993 -0.03644785 -0.03648007 -0.03650814 -0.03654174 -0.03658049 -0.03662879 -0.03668458 -0.03674667
 -0.03681259 -0.03687907 -0.03694436 -0.03700607 -0.03706327 -0.03711477 -0.03716045 -0.03719958 -0.03723424 -0.03726428
 -0.03729434 -0.03732508 -0.03736025 -0.03740055 -0.03744457 -0.03749228 -0.03753882 -0.03758408 -0.03762517 -0.03766259
 -0.03769787 -0.03773174 -0.03776786 -0.03780633 -0.03784946 -0.03789655 -0.03794736 -0.03800143 -0.0380578 -0.03811706
 -0.03817967 -0.03824511 -0.03831443 -0.03838263 -0.03844857 -0.03850624 -0.03855291 -0.03859033 -0.03861739 -0.03864413
 -0.03867155 -0.0387058 -0.03874737 -0.03879115 -0.03883679 -0.0388776 -0.0389146 -0.03895096 -0.03898829 -0.03903543
 -0.03909085 -0.03915628 -0.03922703 -0.03929534 -0.03935921 -0.0394116 -0.03945721 -0.03949673 -0.03953697 -0.03958272
 -0.0396353 -0.03969745 -0.03976377 -0.03983383 -0.03990093 -0.03996365 -0.04001931 -0.04006711 -0.04011053 -0.04014969
 -0.04019292 -0.04024051 -0.04029883 -0.04036688 -0.04044155 -0.04052106 -0.04059649 -0.04066811 -0.04073162 -0.04078945
 -0.04084432 -0.04089677 -0.04094935 -0.04099959 -0.04104549 -0.04108774 -0.04112446 -0.04116304 -0.04120562 -0.04125888
 -0.04132653 -0.04140392 -0.04149202 -0.04157721 -0.04165814 -0.04172528 -0.04177785 -0.04181879 -0.04184874 -0.04187865
 -0.04190925 -0.04195103 -0.04200352 -0.04207136 -0.04215168 -0.04224056 -0.04233322 -0.04241927 -0.04249662 -0.04255682
 -0.04260521 -0.04264224 -0.04267665 -0.04271428 -0.04275819 -0.04281203 -0.04287156 -0.04293636 -0.0430026 -0.04306918
 -0.04313642 -0.04320414 -0.04327409 -0.0433464 -0.04342147 -0.04349925 -0.0435788 -0.04365985 -0.04374025 -0.04381977
 -0.04389619 -0.04397004 -0.04404138 -0.04411115 -0.04418122 -0.04425172 -0.04432366 -0.04439669 -0.04447062 -0.04454587
 -0.04462248 -0.04470134 -0.04478305 -0.0448671 -0.04495388 -0.0450407 -0.04512724 -0.0452109 -0.04529118 -0.04536876
 -0.04544359 -0.04551993 -0.0455979 -0.04568055 -0.04576735 -0.04585625 -0.04594644 -0.04603319 -0.04611709 -0.04619687
 -0.04627426 -0.04635223 -0.04643079 -0.04651172 -0.04659285 -0.04667257 -0.04675033 -0.04682444 -0.04689837 -0.04697306
 -0.04705163 -0.04713611 -0.04722292 -0.04731255 -0.04739603 -0.04747239 -0.04753532 -0.04758421 -0.04762155 -0.04764786
 -0.04767347 -0.04769919 -0.04773617 -0.04778377 -0.04784633 -0.04792078 -0.0480017 -0.04808573 -0.04816362 -0.04823563
 -0.04829719 -0.04835309 -0.04840579 -0.0484597 -0.04851937 -0.04858272 -0.04865145 -0.04871678 -0.04877663 -0.04882453
 -0.04885789 -0.04888085 -0.04889302 -0.04890506 -0.04891768 -0.04893705 -0.04896313 -0.04899408 -0.04902964 -0.0490668
 -0.04910613 -0.04914838 -0.04919409 -0.04924542 -0.04930168 -0.04936295 -0.04942746 -0.04949319 -0.04955827 -0.04962048
 -0.04967858 -0.04973096 -0.049778 -0.0498192 -0.04985646 -0.04988996 -0.04992249 -0.04995443 -0.04998888 -0.05002625
 -0.05006883 -0.05011686 -0.05016974 -0.05022731 -0.05028656 -0.05034735 -0.050407 -0.05046592 -0.05052404 -0.05058236
 -0.05064348 -0.05070808 -0.05077945 -0.05085556 -0.05093645 -0.05101628 -0.05108997 -0.05115318 -0.05120033 -0.05123494
 -0.05125606 -0.05127192 -0.05128497 -0.05129914 -0.05131602 -0.05133412 -0.05135345 -0.05137244 -0.05139092 -0.05141066
 -0.0514318 -0.05145712 -0.05148646 -0.05151994 -0.05155718 -0.05159622 -0.05163766 -0.05168181 -0.05173032 -0.05178696
 -0.05185146 -0.05192631 -0.05200682 -0.05209031 -0.052171 -0.05224413 -0.05230789 -0.05235986 -0.05240209 -0.0524346
 -0.05245993 -0.05247862 -0.05249205 -0.05250048 -0.05250405 -0.05250273 -0.052498 -0.05249022 -0.05248691 -0.05248912
 -0.0525091 -0.05254662 -0.05260875 -0.05269152 -0.05278921 -0.05289445 -0.05299066 -0.05307302 -0.0531256 -0.05315509
 -0.05315978 -0.05315372 -0.05314596 -0.05314336 -0.05315327 -0.05316858 -0.05318934 -0.05320541 -0.05321365 -0.05321561
 -0.05321033 -0.05320869 -0.05321139 -0.05322544 -0.053251 -0.05328964 -0.05334093 -0.05340349 -0.05347501 -0.05354574
 -0.05361174 -0.05365539 -0.05367814 -0.0536723 -0.05364658 -0.05360905 -0.05356778 -0.05353297 -0.05350925 -0.05350288
 -0.05351405 -0.05354635 -0.0535902 -0.0536453 -0.05369502 -0.05373587 -0.05375823 -0.05375965 -0.05374412 -0.05371165
 -0.05366995 -0.05361934 -0.05356416 -0.0535047 -0.05344504 -0.05338585 -0.05333206 -0.05328481 -0.05325008 -0.053228
 -0.05322345 -0.05323126 -0.05324836 -0.05326502 -0.05326971 -0.0532607 -0.0532306 -0.05319072 -0.0531444 -0.05309975
 -0.05306196 -0.05302452 -0.05298765 -0.05294063 -0.05288145 -0.05281008 -0.05272606 -0.05264006 -0.05255248 -0.05247116
 -0.05239452 -0.05231379 -0.05222531 -0.05210594 -0.05195775 -0.05177194 -0.05155865 -0.05133511 -0.05110483 -0.05088261
 -0.05066014 -0.05043442 -0.05019933 -0.04994665 -0.04968513 -0.04941491 -0.04915082 -0.04889892 -0.04866161 -0.04844406
 -0.0482223 -0.04799748 -0.04771458 -0.04736972 -0.04691818 -0.04635965 -0.04571666 -0.04499247 -0.04422885 -0.04341901
 -0.04255475 -0.04162498 -0.04058968 -0.03945091 -0.03818706 -0.03682185 -0.03537291 -0.0338771 -0.03237357 -0.03089297
 -0.02947007 -0.02810805 -0.0268211 -0.02558649 -0.02439714 -0.02324955 -0.02213547 -0.02109825 -0.02014249 -0.01929985
 -0.0185742 -0.01795462 -0.01744068 -0.0170229 -0.01670237 -0.01648679 -0.01637504 -0.01636742 -0.0164585 -0.01663629
 -0.01688736 -0.01718663 -0.01750504 -0.01779106 -0.01802772 -0.01817372 -0.01824471 -0.01823908 -0.01817225 -0.01805317
 -0.0178824 -0.01766218 -0.01739043 -0.01707021 -0.01668132 -0.01622768 -0.0156316 -0.01488769 -0.01392436 -0.01274237
 -0.01143712 -0.01001986 -0.008641509 -0.007288598 -0.005975169 -0.004682506 -0.003357439 -0.002001439 -0.0005923135 0.0008629441
 0.002353531 0.003903877 0.005516381 0.00726724 0.009202384 0.01139452 0.01391677 0.01669132 0.01973961 0.02283742
 0.02593917 0.02890747 0.03170944 0.03435643 0.03684366 0.03925476 0.0415964 0.0440322 0.04658044 0.04949937
 0.05276553 0.05644992 0.06042082 0.06428551 0.06801248 0.07130136 0.07430036 0.07710215 0.07981388 0.08259556
 0.08543965 0.08839263 0.09141327 0.09448753 0.0976084 0.1007822 0.1039509 0.10711 0.1101721 0.1131153
 0.1159789 0.1187631 0.121541 0.1243122 0.1269747 0.1295163 0.1317678 0.133748 0.135455 0.1369293
 0.1383068 0.1395852 0.1408427 0.1420172 0.1430333 0.1438965 0.1445634 0.1451183 0.1456143 0.1460834
 0.1465684 0.1470213 0.1474386 0.1477644 0.1479826 0.1480788 0.1480456 0.147907 0.1476623 0.1473752
 0.1470486 0.1467404 0.146447 0.1461566 0.1458612 0.145514 0.1451136 0.1446266 0.1440655 0.1434331
 0.1427605 0.1420933 0.1414547 0.1408893 0.1403941 0.1399778 0.1396422 0.1393855 0.139228 0.139179
 0.1392366 0.139406 0.1396563 0.1399827 0.1403725 0.1408237 0.1413449 0.1419365 0.1425963 0.1433224
 0.1440934 0.1449069 0.1457397 0.1465922 0.1474528 0.1483258 0.1492139 0.1501227 0.1510628 0.1520357
 0.1530463 0.1540961 0.1551851 0.1563229 0.1575127 0.1587657 0.1600856 0.1614822 0.1629575 0.1645226
 0.1661819 0.16792 0.1697385 0.1715764 0.1734303 0.1752345 0.1769858 0.1786352 0.1801709 0.181508
 0.1826321 0.1834411 0.1839556 0.184162 0.1841055 0.1838443 0.1834203 0.1828951 0.1823028 0.1816937
 0.1810584 0.1804275 0.1796965 0.178861 0.1777246 0.1762266 0.1743281 0.1719727 0.1695585 0.1671178
 0.1648862 0.1628719 0.1609021 0.1589691 0.1569325 0.1548075 0.1526048 0.1503367 0.1480649 0.1457531
 0.1433819 0.140839 0.1379343 0.1346254 0.1307016 0.1264645 0.1220625 0.1177407 0.1137313 0.1098678
 0.1061367 0.1024086 0.09862056 0.09488844 0.0912148 0.08775345 0.08452468 0.08150703 0.07869892 0.0759757
 0.0733365 0.07072622 0.0681597 0.06569095 0.06332621 0.06112484 0.05905954 0.05710359 0.05522028 0.05333912
 0.05144609 0.04950393 0.04749824 0.04542429 0.04321581 0.04084029 0.03824353 0.03534237 0.03238464 0.02937862
 0.02673088 0.02454055 0.02273125 0.02131761 0.01998284 0.01871204 0.01735367 0.01591752 0.01446639 0.01301604
 0.0116936 0.01048219 0.009391367 0.00839952 0.007448593 0.00656402 0.005750228 0.005060375 0.004562594 0.004262817
 0.00419659 0.00432376 0.004631556 0.00509418 0.005695715 0.00644154 0.00732264 0.008388912 0.009636412 0.01119193
 0.01306735 0.01535495 0.01805761 0.02094539 0.02398993 0.02677326 0.02930332 0.03140716 0.03312141 0.03448032
 0.03550535 0.03625249 0.03675082 0.03705486 0.03722548 0.03733559 0.0374666 0.03770991 0.03808429 0.03865217
 0.03929315 0.03997956 0.04061423 0.04115606 0.04163055 0.04203271 0.04241932 0.04279603 0.04318722 0.04359422
 0.04400137 0.04440721 0.04478814 0.04514646 0.04548144 0.04579984 0.04612399 0.04645954 0.04683213 0.04723928
 0.04768722 0.0481752 0.04869728 0.04927639 0.04992092 0.05067187 0.05155307 0.05258844 0.0537965 0.05516437
 0.05669136 0.05836844 0.06018881 0.06219379 0.06438707 0.06680021 0.06943456 0.07217439 0.07500565 0.07771523
 0.08030388 0.08266591 0.08481739 0.08676498 0.08850595 0.09004329 0.09135403 0.09240393 0.09317249 0.09362371
 0.09374775 0.09352604 0.09295511 0.09202752 0.09074681 0.08910969 0.08713209 0.08480626 0.08220474 0.0793234
 0.07633273 0.07324602 0.07022238 0.06727093 0.0644058 0.06162216 0.05885392 0.05610742 0.05338172 0.05069913
 0.04814428 0.04571844 0.04347771 0.04138533 0.0394119 0.03751171 0.0356217 0.03371496 0.03174457 0.02972091
 0.02762612 0.02551784 0.0234067 0.02136405 0.01941278 0.01757668 0.01586825 0.0142508 0.01272305 0.01123867
 0.00979501 0.00839281 0.007036065 0.005779218 0.004625553 0.003625893 0.002771867 0.002062958 0.001484459 0.001002621
 0.0006049759 0.0002574703 -4.920924E-05 -0.0003380633 -0.0006144526 -0.0008890732 -0.001165792 -0.001446848 -0.00174338 -0.002056749
 -0.002408725 -0.002804122 -0.003262007 -0.003787831 -0.004379728 -0.005039788 -0.00573966 -0.00647789 -0.007218573 -0.007960539
 -0.008681185 -0.009379898 -0.01004285 -0.01066703 -0.01123414 -0.01174178 -0.01217311 -0.01253244 -0.01281706 -0.01303798
 -0.01320525 -0.01333163 -0.01342895 -0.01350973 -0.01358277 -0.01365889 -0.01374413 -0.01384337 -0.01395916 -0.01409183
 -0.0142413 -0.01441122 -0.01460166 -0.01481977 -0.01506599 -0.01534245 -0.01564875 -0.01597925 -0.01633343 -0.01670538
 -0.01709481 -0.01749843 -0.01791427 -0.01833713 -0.01876241 -0.01918089 -0.01958729 -0.01997212 -0.02033189 -0.02066096
 -0.02095748 -0.02121908 -0.02144481 -0.02163331 -0.02178646 -0.02190289 -0.02199317 -0.02205727 -0.0221149 -0.02216775
 -0.02223396 -0.02231471 -0.02241467 -0.02253319 -0.02266148 -0.02279832 -0.02293172 -0.02306146 -0.02318064 -0.02328893
 -0.0233833 -0.02346046 -0.02351464 -0.02354039 -0.02352804 -0.0234775 -0.02338242 -0.02325468 -0.02309749 -0.02292621
 -0.02274892 -0.02256825 -0.02238856 -0.02219715 -0.02199257 -0.02176452 -0.02151083 -0.02123812 -0.02094654 -0.02065551
 -0.02036607 -0.02009727 -0.01984888 -0.01962969 -0.01943744 -0.01926878 -0.01912099 -0.01898492 -0.01886086 -0.0187435
 -0.01863874 -0.01855006 -0.01848677 -0.01845727 -0.01846884 -0.01852836 -0.01863741 -0.01879856 -0.01900979 -0.01927111
 -0.01958046 -0.01993772 -0.02034011 -0.02078778 -0.02127343 -0.02179675 -0.02234428 -0.02291517 -0.0234943 -0.02408112
 -0.02466455 -0.0252447 -0.02581641 -0.02637918 -0.02692971 -0.02746619 -0.02798396 -0.02848214 -0.02895665 -0.02941108
 -0.02984612 -0.03026785 -0.0306801 -0.03108603 -0.03148797 -0.03188603 -0.03228034 -0.03267232 -0.03306232 -0.03345093
 -0.03383886 -0.03421886 -0.03459066 -0.03494023 -0.035267 -0.03556014 -0.03582037 -0.03604691 -0.03624149 -0.03641059
 -0.03655482 -0.03667977 -0.03678349 -0.03686573 -0.03692283 -0.03695054 -0.03694553 -0.03690422 -0.03682283 -0.03669921
 -0.03652766 -0.03630577 -0.03602878 -0.03569451 -0.035303 -0.03485336 -0.03435034 -0.03379364 -0.03319484 -0.03255436
 -0.03189708 -0.03122488 -0.03057194 -0.02993894 -0.02934897 -0.02879813 -0.02828448 -0.02780166 -0.02733172 -0.02687243
 -0.02640966 -0.02594922 -0.0254909 -0.02504551 -0.02462178 -0.02422834 -0.02387349 -0.0235582 -0.0232854 -0.02305115
 -0.0228552 -0.02269292 -0.02256382 -0.02246246 -0.02238858 -0.02233381 -0.02229772 -0.02226832 -0.02224464 -0.02220972
 -0.02216216 -0.02208329 -0.02197357 -0.02182377 -0.02163755 -0.02141961 -0.02117326 -0.02090713 -0.02062139 -0.02031945
 -0.02000116 -0.01966755 -0.01931819 -0.01895436 -0.01857101 -0.01816713 -0.01773568 -0.01727292 -0.01678299 -0.01626357
 -0.01573635 -0.01520234 -0.01469094 -0.01420411 -0.01376292 -0.01336764 -0.01302212 -0.012725 -0.01246866 -0.01225171
 -0.01206592 -0.01190793 -0.0117675 -0.01163556 -0.01149206 -0.01132795 -0.01112117 -0.0108753 -0.01058326 -0.01025927
 -0.009910555 -0.009544832 -0.00916869 -0.008777976 -0.008372849 -0.007948726 -0.007504011 -0.007041388 -0.006560646 -0.006068129
 -0.00556423 -0.00505406 -0.004537678 -0.004015592 -0.003487562 -0.002951515 -0.002408346 -0.001859527 -0.001308449 -0.0007634038
 -0.0002306108 0.0002766626 0.0007491757 0.001170243 0.001533139 0.001822485 0.002048198 0.002206042 0.002326966 0.002419915
 0.002518473 0.002634088 0.002784881 0.002976216 0.003214884 0.003502088 0.003843002 0.004238069 0.004689884 0.005198356
 0.005761279 0.006377962 0.007042694 0.007754253 0.00850403 0.009292292 0.01011314 0.01097279 0.01187815 0.01283936
 0.013874 0.01498318 0.01617924 0.01744314 0.01877322 0.02013101 0.02150526 0.02284858 0.02414794 0.02536086
 0.02647717 0.02747344 0.02834443 0.02909188 0.029715 0.03023691 0.03065932 0.03101562 0.03130727 0.03156167
 0.03177718 0.03196194 0.03211254 0.03222277 0.03229284 0.03231829 0.03230575 0.03226004 0.03219247 0.03211324
 0.03203512 0.03196837 0.03192202 0.03190266 0.03191278 0.03195431 0.03202793 0.03213423 0.03227273 0.03244488
 0.03263542 0.03284418 0.03303322 0.03320022 0.03330075 0.03333364 0.03326903 0.03310833 0.03284112 0.03247014
 0.03199754 0.03142538 0.03075915 0.02999822 0.0291438 0.0281954 0.02715118 0.02601673 0.02479462 0.02349037
 0.02211051 0.02064314 0.01909016 0.01742087 0.01563083 0.01369086 0.01159634 0.009334937 0.006904974 0.004313727
 0.001562668 -0.001316551 -0.004317571 -0.00737916 -0.01049008 -0.0135707 -0.01661012 -0.01953675 -0.02234672 -0.02499798
 -0.02749541 -0.02982777 -0.0320031 -0.0340248 -0.03589979 -0.03763146 -0.03923098 -0.04070029 -0.04206186 -0.04332049
 -0.04450198 -0.04561222 -0.04666629 -0.04766734 -0.0486169 -0.04951552 -0.05035752 -0.05114263 -0.05186445 -0.0525236
 -0.05312121 -0.05365978 -0.05415151 -0.05459726 -0.05500755 -0.05537763 -0.05570335 -0.05598008 -0.05619702 -0.05636017
 -0.05646864 -0.05653678 -0.05657393 -0.05658829 -0.05658748 -0.05656749 -0.0565288 -0.05646602 -0.05637669 -0.05626712
 -0.0561368 -0.05600139 -0.05586196 -0.05573052 -0.05560741 -0.05549498 -0.05539289 -0.0552997 -0.05521473 -0.05513521
 -0.05505875 -0.0549771 -0.05488828 -0.0547825 -0.05466449 -0.05453485 -0.05440327 -0.05428007 -0.05416874 -0.05407691
 -0.05399686 -0.05392828 -0.05385942 -0.053787 -0.05370165 -0.05360077 -0.05348001 -0.05333766 -0.05317992 -0.05300677
 -0.05283352 -0.05266067 -0.05249518 -0.05233498 -0.05216569 -0.05198444 -0.05176878 -0.05152117 -0.05123536 -0.05091917
 -0.05058559 -0.05023916 -0.0498934 -0.04954446 -0.04919295 -0.04883645 -0.04847049 -0.04810462 -0.04774117 -0.04739104
 -0.04706059 -0.04674334 -0.04644023 -0.04613652 -0.04582908 -0.04552167 -0.04521381 -0.04492451 -0.04465423 -0.04440515
 -0.04417466 -0.04393931 -0.04369847 -0.0434339 -0.04315301 -0.04286732 -0.04258573 -0.0423345 -0.04211064 -0.04192481
 -0.04176075 -0.04160762 -0.04144947 -0.04127089 -0.04106867 -0.0408363 -0.04057989 -0.04030005 -0.04000184 -0.03968647
 -0.03935653 -0.03901233 -0.0386571 -0.03829111 -0.03791644 -0.03753314 -0.03714069 -0.03673944 -0.03633181 -0.03591947
 -0.03551148 -0.03510955 -0.03472418 -0.03435437 -0.03400402 -0.03366919 -0.03334622 -0.03303136 -0.03271932 -0.03240901
 -0.03209757 -0.03178714 -0.03147731 -0.03117301 -0.03087556 -0.03058937 -0.03031691 -0.03005248 -0.02979721 -0.02953078
 -0.02925171 -0.02894348 -0.02860587 -0.02824961 -0.02787711 -0.02751655 -0.02716727 -0.02684196 -0.02653559 -0.02623861
 -0.02594915 -0.02565816 -0.02536746 -0.02507801 -0.02478535 -0.02448814 -0.02417406 -0.02383355 -0.02346137 -0.02304916
 -0.02260994 -0.02214382 -0.02167277 -0.02120214 -0.02074232 -0.02029689 -0.01985643 -0.01942086 -0.0189734 -0.01851333
 -0.01803161 -0.01752884 -0.01700648 -0.0164667 -0.01591968 -0.01536951 -0.01483431 -0.01431615 -0.01383038 -0.01337086
 -0.01293608 -0.01251792 -0.01210539 -0.0117007 -0.01130072 -0.01091334 -0.01054329 -0.01018875 -0.009851547 -0.00952218
 -0.009198732 -0.008875793 -0.008552243 -0.00822621 -0.007897262 -0.007567705 -0.007237906 -0.006922093 -0.006621475 -0.006354635
 -0.006120027 -0.005920793 -0.005752322 -0.005602061 -0.005466402 -0.005332072 -0.005196799 -0.005051768 -0.004895982 -0.004723996
 -0.004539955 -0.004344761 -0.004143148 -0.003938991 -0.003729447 -0.003514463 -0.003290793 -0.003056221 -0.002818304 -0.002577518
 -0.002342603 -0.002114706 -0.00189166 -0.001673295 -0.0014527 -0.001229248 -0.0009959785 -0.0007497848 -0.0004727841 -0.0001591522
 0.000220307 0.00066581 0.001197033 0.001798326 0.002460435 0.003154387 0.003848359 0.004519106 0.005136961 0.005703471
 0.006208907 0.006671833 0.007096937 0.007495439 0.007871901 0.008224241 0.008553123 0.008852614 0.009122347 0.009355904
 0.009553116 0.009716579 0.00984924 0.00998152 0.01011846 0.01030529 0.01053806 0.01083263 0.01117173 0.01152776
 0.0118825 0.01219627 0.01246072 0.01265135 0.01277041 0.01280859 0.01278242 0.01269267 0.01257176 0.01242762
 0.01229617 0.01218715 0.01212043 0.01210255 0.01212289 0.01218271 0.01224238 0.01229995 0.01232126 0.01230833
 0.01227026 0.01221236 0.01216922 0.01213976 0.01213866 0.01216162 0.01220553 0.01226905 0.01235274 0.01244475
 0.01253569 0.01260787 0.01263661 0.01264294 0.01261584 0.01263548 0.01273147 0.01293756 0.01328657 0.01366603
 0.01406343 0.01439796 0.01465753 0.01486664 0.01502627 0.01517106 0.01530095 0.0154264 0.01554504 0.0156517
 0.0157411 0.01579431 0.01580541 0.01574955 0.01563064 0.01543972 0.01519404 0.01490491 0.01459707 0.01428939
 0.01400661 0.01376795 0.01357857 0.01344937 0.01335522 0.01329239 0.01324018 0.01319223 0.01316234 0.01315178
 0.01316439 0.01319983 0.01320276 0.01316882 0.01302688 0.01278165 0.01241762 0.01195134 0.01142619 0.01086217
 0.01032378 0.009824624 0.009419817 0.009095945 0.008869314 0.008692619 0.008534804 0.008366029 0.008149802 0.007925448
 0.007691552 0.007516717 0.007421945 0.007421637 0.007528679 0.007677991 0.00786677 0.008010909 0.008106316 0.008144655
 0.008132774 0.008150597 0.008202618 0.008360287 0.008610013 0.008943376 0.009346105 0.009776096 0.01024103 0.01073254
 0.01126636 0.01186064 0.01251356 0.01323387 0.01400245 0.01481237 0.01564706 0.01649613 0.01736455 0.01824825
 0.01917415 0.02014738 0.02117572 0.02226418 0.02335432 0.02444297 0.02543616 0.02633142 0.02707332 0.02766364
 0.0280864 0.0283385 0.02839796 0.02826693 0.02793138 0.02741559 0.02674719 0.02595847 0.02509345 0.02417795
 0.02323838 0.02231104 0.02141543 0.02059607 0.01987629 0.01926636 0.01878006 0.01837599 0.01805334 0.01774983
 0.01745948 0.01713975 0.01678822 0.01641653 0.01602961 0.0156937 0.01541179 0.01524057 0.01516718 0.01517894
 0.01525823 0.01535462 0.01546694 0.01556976 0.01567095 0.01577281 0.01587285 0.01597432 0.01605986 0.01612596
 0.01614181 0.01609624 0.01596569 0.01573508 0.015434 0.01505797 0.01469026 0.01433846 0.01406141 0.01386262
 0.01371512 0.0136139 0.01348515 0.0133283 0.01309878 0.01280809 0.0124692 0.01210119 0.01175692 0.01144343
 0.01120353 0.01101409 0.01086794 0.01073656 0.01058909 0.01042977 0.01024767 0.01007048 0.009905321 0.0097746
 0.009683822 0.00965341 0.009687675 0.009798346 0.009989957 0.01021947 0.01048464</values></Ydata></AB><ScSm><Ydata ylabel="Single channel"><values byteorder="INTEL" format="FLOAT32" numvalues="1814"> 0.07323685 0.07323426 0.07330465 0.07347508 0.07371093 0.07393634 0.0740888 0.07415999 0.07417607 0.07414875
 0.0740822 0.07402724 0.0740743 0.07426269 0.07452116 0.07471649 0.07476123 0.07469104 0.07464372 0.07472387
 0.07485878 0.0748198 0.0744367 0.07379607 0.07318826 0.07284266 0.07278319 0.0729928 0.073558 0.07441053
 0.075032 0.07482245 0.07385592 0.07291409 0.07262166 0.07284892 0.07307591 0.07299408 0.07260085 0.07208093
 0.07186155 0.07250015 0.07413696 0.07603908 0.07686236 0.07550102 0.07187913 0.06720164 0.06350589 0.06256526
 0.06464046 0.06813029 0.07077719 0.07146765 0.0707604 0.06973911 0.06884202 0.06801147 0.06746126 0.06771712
 0.06889941 0.07023544 0.07046153 0.06890795 0.06629157 0.06419976 0.06363682 0.06439629 0.06591663 0.067897
 0.0694357 0.06853537 0.06406729 0.05826115 0.05571148 0.05900822 0.06597254 0.07178456 0.07327086 0.07069342
 0.06635734 0.06269691 0.0613482 0.06271433 0.065906 0.06947775 0.07229769 0.07359584 0.07277158 0.06991345
 0.06631165 0.06383667 0.06378976 0.06638596 0.070706 0.07478572 0.07651169 0.07517917 0.07195896 0.06866164
 0.06654561 0.06631915 0.06832191 0.07217595 0.07675688 0.08083919 0.08359814 0.08470504 0.08439784 0.08332205
 0.08203669 0.08092941 0.08056354 0.08132745 0.08252258 0.08262974 0.08096329 0.07858521 0.07721132 0.07743706
 0.07826275 0.07831074 0.07721975 0.07543044 0.07283171 0.06871909 0.06342516 0.05876707 0.05623193 0.05583467
 0.05719231 0.06011565 0.06335467 0.06452548 0.06272727 0.06020837 0.06014534 0.0632525 0.06741428 0.07025748
 0.07134634 0.07200435 0.07361425 0.07620901 0.07830389 0.0780146 0.07492019 0.07111389 0.06972565 0.07185095
 0.07549642 0.07803224 0.07896712 0.07966527 0.08095992 0.08186296 0.08059845 0.07671556 0.07222031 0.0703351
 0.07269137 0.07769392 0.08167906 0.08163279 0.07722211 0.07085553 0.06579882 0.06391778 0.06518968 0.06895562
 0.07464258 0.08110104 0.08630189 0.08847876 0.08742133 0.08436862 0.08059686 0.07624739 0.07099435 0.06598347
 0.06407075 0.067122 0.07362588 0.07995167 0.08358821 0.08439872 0.0832165 0.08030266 0.07556455 0.07001363
 0.0662475 0.06644171 0.06973264 0.07269964 0.0729419 0.07126668 0.06994022 0.0698623 0.07022696 0.07024567
 0.07026634 0.07116254 0.07307631 0.07507666 0.0760603 0.07576236 0.07480419 0.07396907 0.07349352 0.07290423
 0.07168305 0.07028665 0.07009676 0.07190521 0.07482526 0.07720598 0.07829154 0.07849323 0.07828738 0.07738273
 0.07515341 0.07182756 0.06896441 0.06829804 0.07006228 0.07284868 0.07507083 0.07610014 0.07611454 0.07553095
 0.07472204 0.07388683 0.07311329 0.07264934 0.07284279 0.07364622 0.07450104 0.0749026 0.0748162 0.07442808
 0.07378715 0.07286999 0.0718305 0.0710113 0.07069976 0.07091052 0.07141949 0.0719645 0.07234374 0.0723867
 0.07201472 0.07136132 0.07068577 0.07013679 0.06971335 0.06943659 0.0693954 0.06958801 0.06984729 0.06998355
 0.06993517 0.06974795 0.06947154 0.0691233 0.06872433 0.06833491 0.06805083 0.06794491 0.06798541 0.06804568
 0.06804018 0.06800829 0.06800565 0.06797255 0.06780119 0.06749694 0.06718479 0.06697199 0.06686607 0.06681156
 0.06674384 0.06659417 0.06629179 0.06582665 0.06532508 0.0650024 0.06499059 0.06524061 0.06560487 0.06594911
 0.06617162 0.06621541 0.06611548 0.06596853 0.06582085 0.06563289 0.0653677 0.06507584 0.06488161 0.06488833
 0.06508232 0.06533462 0.06551256 0.06557141 0.0655373 0.06546041 0.06540102 0.06539439 0.06540131 0.06534517
 0.06521425 0.06508495 0.06503545 0.06506392 0.06509443 0.06505491 0.06495517 0.06487967 0.06489292 0.06497272
 0.06505091 0.06509133 0.06510743 0.06512114 0.06512213 0.06507071 0.06494957 0.06480469 0.06470683 0.06467543
 0.06467479 0.06468098 0.0647109 0.06477913 0.064859 0.06490313 0.06489226 0.06485271 0.06481975 0.06478988
 0.06472678 0.06461573 0.06448938 0.06439152 0.06433336 0.06429346 0.06424714 0.06418623 0.06411502 0.06403444
 0.06393625 0.06381221 0.06366196 0.06349389 0.06333079 0.06321074 0.06315866 0.06314879 0.06311345 0.06300212
 0.06282657 0.06264131 0.06248422 0.06234497 0.06219295 0.06202405 0.06186613 0.0617437 0.06165379 0.06157655
 0.06149442 0.06140104 0.0613093 0.06125524 0.06127571 0.06136807 0.06147875 0.0615457 0.06155201 0.06153099
 0.06152339 0.06154106 0.06157077 0.06160241 0.06164854 0.06173458 0.06186277 0.06199268 0.06207714 0.062118
 0.06216457 0.06225726 0.06239711 0.06256635 0.06274518 0.06290448 0.06301737 0.06309296 0.06317578 0.06329808
 0.06344845 0.06359682 0.06373554 0.06388168 0.06404896 0.06423548 0.06443886 0.06466778 0.06493041 0.06521671
 0.06549574 0.06573343 0.06592192 0.06609675 0.06631534 0.06660789 0.06695153 0.0672951 0.06760354 0.06787761
 0.06813779 0.06839716 0.06865516 0.06891897 0.06921674 0.06957129 0.06996749 0.07036498 0.07074019 0.07109806
 0.07144839 0.07179137 0.07212752 0.07246613 0.07281961 0.07319239 0.07357165 0.07392988 0.07424587 0.0745256
 0.07479768 0.07509176 0.07542247 0.07577859 0.07611772 0.07639084 0.07659446 0.0767868 0.07702949 0.07731991
 0.07760371 0.07784882 0.07808036 0.07833834 0.07862645 0.07891703 0.07919176 0.07945974 0.07973741 0.08001973
 0.08027519 0.08047199 0.08061245 0.08073653 0.08088602 0.08107509 0.081304 0.08158151 0.08190821 0.08224879
 0.08255 0.08278426 0.08295794 0.08308928 0.08320232 0.08332962 0.08349229 0.08367994 0.08386427 0.084023
 0.08414535 0.0842391 0.08434326 0.08450612 0.0847356 0.0849953 0.08526097 0.08555003 0.08587693 0.08621096
 0.08651261 0.08679551 0.08711123 0.08746835 0.08780254 0.08804417 0.08818769 0.08827455 0.08833878 0.08840305
 0.08850457 0.08867703 0.08890553 0.08912951 0.08929487 0.08938736 0.08942014 0.0894092 0.08936629 0.08930706
 0.08925949 0.0892602 0.08934103 0.0895209 0.08980557 0.09017958 0.09059366 0.09097491 0.09126016 0.09141436
 0.09142156 0.09128293 0.09103526 0.09074616 0.09046161 0.09015808 0.08976206 0.08921528 0.08850953 0.08766534
 0.08670108 0.08563444 0.0845047 0.0833817 0.08235002 0.08148441 0.08083907 0.08045666 0.08037343 0.08059473
 0.08105872 0.081636 0.08217509 0.08254641 0.08265311 0.082435 0.08188984 0.08108373 0.08012129 0.07910159
 0.07809814 0.0771554 0.07628457 0.07547704 0.07474867 0.07417485 0.07387838 0.0739928 0.07464045 0.07590795
 0.07778593 0.08010933 0.08258233 0.08490409 0.08689982 0.08855296 0.08994059 0.09115811 0.09228341 0.09336291
 0.09440298 0.09538338 0.09628832 0.09711863 0.09787492 0.09854303 0.09909804 0.09951502 0.09978145 0.0999101
 0.09993793 0.09990805 0.0998583 0.09982204 0.09981537 0.09980902 0.09972525 0.09947658 0.09901381 0.09834772
 0.09754498 0.0967249 0.09608427 0.09592471 0.09659114 0.09828019 0.1008562 0.1038781 0.1068386 0.1093998
 0.1114544 0.113051 0.1143022 0.115325 0.1162093 0.1170127 0.1177692 0.1184933 0.1191831 0.1198325
 0.1204454 0.1210349 0.1216131 0.1221833 0.1227389 0.1232714 0.1237823 0.1242837 0.1247882 0.1252998
 0.1258126 0.1263155 0.1268021 0.1272801 0.1277595 0.1282343 0.1286853 0.1291047 0.1295067 0.1299131
 0.1303392 0.1307861 0.1312354 0.1316561 0.1320313 0.1323752 0.1327161 0.1330684 0.1334276 0.1337875
 0.134149 0.1345123 0.1348702 0.1352168 0.1355568 0.1358986 0.1362359 0.1365502 0.1368338 0.1371037
 0.1373843 0.1376827 0.1379859 0.1382805 0.138572 0.1388808 0.1392217 0.1395878 0.1399553 0.1403008
 0.1406145 0.1409035 0.1411849 0.1414741 0.1417768 0.1420917 0.1424148 0.1427393 0.1430564 0.1433626
 0.1436626 0.1439628 0.1442641 0.1445641 0.1448635 0.1451658 0.1454718 0.1457782 0.1460825 0.1463887
 0.146704 0.1470288 0.1473511 0.1476548 0.1479328 0.1481912 0.1484432 0.1487022 0.1489766 0.1492675
 0.1495696 0.1498744 0.1501751 0.1504683 0.1507542 0.1510347 0.151312 0.1515895 0.1518732 0.152169
 0.1524772 0.1527899 0.1530968 0.1533905 0.1536692 0.1539364 0.1541983 0.1544619 0.1547322 0.1550108
 0.1552944 0.1555758 0.1558514 0.1561246 0.1564017 0.1566828 0.1569617 0.1572339 0.1575017 0.1577702
 0.1580406 0.1583119 0.1585862 0.1588677 0.159155 0.1594413 0.159723 0.1600027 0.1602834 0.1605635
 0.1608407 0.1611159 0.1613928 0.1616748 0.1619594 0.1622367 0.1624983 0.1627488 0.1630031 0.163273
 0.1635561 0.1638386 0.164109 0.164369 0.16463 0.1648985 0.1651731 0.1654505 0.1657303 0.166012
 0.1662952 0.1665794 0.1668594 0.1671275 0.167383 0.1676356 0.1678968 0.1681709 0.1684539 0.168738
 0.1690186 0.169298 0.1695782 0.1698531 0.1701147 0.1703645 0.170612 0.1708652 0.1711252 0.1713859
 0.1716388 0.1718808 0.1721166 0.1723523 0.1725943 0.1728496 0.1731187 0.1733933 0.173667 0.1739415
 0.1742174 0.1744886 0.1747499 0.1750028 0.1752528 0.1755074 0.1757729 0.1760477 0.1763252 0.1766007
 0.1768712 0.1771344 0.1773926 0.177651 0.1779086 0.1781627 0.1784176 0.1786793 0.1789459 0.1792115
 0.1794722 0.179726 0.1799758 0.1802281 0.1804811 0.1807259 0.1809653 0.1812135 0.1814748 0.1817388
 0.1819962 0.182244 0.1824844 0.1827275 0.1829825 0.1832436 0.1834996 0.1837483 0.1839919 0.1842312
 0.1844726 0.1847218 0.1849715 0.1852158 0.1854649 0.1857246 0.1859821 0.1862265 0.1864567 0.1866598
 0.1867899 0.186725 0.1861626 0.1845064 0.1808565 0.174201 0.1638319 0.1498035 0.1330665 0.1151222
 0.09747399 0.08124983 0.06710811 0.0553328 0.04597713 0.03895376 0.03409465 0.03125481 0.03041901 0.03180574
 0.03598145 0.04352711 0.05376655 0.06363074 0.06884736 0.06731784 0.06112952 0.05465226 0.0509024 0.05008546
 0.05090671 0.05226482 0.05380948 0.05573836 0.05840007 0.06190456 0.06609698 0.07097571 0.0769029 0.0841481
 0.09233026 0.1005717 0.1082551 0.1155167 0.1229509 0.1309055 0.1391196 0.1469801 0.15401 0.1601124
 0.16548 0.1703741 0.1749714 0.179346 0.1835287 0.18751 0.191152 0.1941482 0.1961709 0.1971237
 0.197258 0.1970264 0.1968144 0.1967962 0.1969887 0.197362 0.1978882 0.1985441 0.1993143 0.2001844
 0.2011264 0.2021036 0.2030859 0.204048 0.2049651 0.2058228 0.2066211 0.2073618 0.2080426 0.2086644
 0.2092333 0.2097577 0.2102483 0.2107162 0.2111672 0.2116025 0.212024 0.2124286 0.2128032 0.2131365
 0.2134338 0.213712 0.2139862 0.2142626 0.2145403 0.2148168 0.215097 0.2153906 0.2156996 0.2160113
 0.2163103 0.2165904 0.2168546 0.217109 0.2173594 0.2176096 0.2178625 0.2181198 0.2183796 0.2186375
 0.2188951 0.2191626 0.2194436 0.2197242 0.2199863 0.2202272 0.2204609 0.2207042 0.2209612 0.221223
 0.2214837 0.2217521 0.2220381 0.2223335 0.2226233 0.2229069 0.2231909 0.2234719 0.2237436 0.2240104
 0.2242739 0.2245215 0.2247443 0.2249586 0.2251993 0.2254899 0.2258175 0.226138 0.226418 0.2266665
 0.2269164 0.2271807 0.2274418 0.2276789 0.2278977 0.2281361 0.2284313 0.2287742 0.2291185 0.2294378
 0.2297463 0.2300574 0.2303648 0.2306665 0.2309646 0.2312375 0.2314586 0.2316496 0.2318864 0.2322385
 0.2326993 0.2331811 0.2335891 0.2339021 0.2341714 0.2344594 0.2348005 0.2351717 0.2354643 0.2355596
 0.2355064 0.235552 0.2359118 0.2365542 0.2372647 0.2378678 0.2383332 0.2387197 0.2390786 0.2394
 0.2396249 0.239712 0.2397224 0.239833 0.2402128 0.2408504 0.241549 0.2421279 0.242563 0.2429116
 0.2432082 0.2434693 0.2436611 0.2436322 0.2432715 0.2428121 0.2427777 0.2434759 0.2446478 0.2457432
 0.2464651 0.2469222 0.2473212 0.2477121 0.2480436 0.2482081 0.2479249 0.2469047 0.2454166 0.2444375
 0.2448463 0.2465407 0.2486061 0.2502322 0.2512209 0.251775 0.2521419 0.2524519 0.2526218 0.252358
 0.251483 0.2503828 0.2499153 0.2506205 0.2521116 0.2534881 0.2542575 0.2545972 0.2548717 0.2552253
 0.2554865 0.255122 0.2535383 0.2509528 0.2488356 0.2488756 0.2513289 0.2547142 0.2572839 0.2585288
 0.259038 0.2592102 0.2586569 0.2568938 0.2540768 0.2509336 0.24851 0.2480072 0.2499958 0.2534391
 0.2562773 0.2574506 0.2577989 0.2586979 0.2604248 0.2621605 0.2630484 0.2628587 0.2618526 0.2603143
 0.2584061 0.2565947 0.2559231 0.2572758 0.2602982 0.263514 0.2656902 0.2667765 0.2672666 0.266762
 0.2636778 0.2571544 0.249458 0.2453632 0.2479374 0.2553255 0.2627398 0.2671696 0.2690331 0.2699265
 0.2704792 0.2701797 0.2676836 0.2615625 0.2525738 0.2450603 0.2440047 0.2501043 0.258979 0.2652543
 0.2662082 0.2620409 0.2549132 0.248324 0.245692 0.2482773 0.2546153 0.2619696 0.2679856 0.2713417
 0.2717324 0.2697382 0.2667851 0.2647995 0.2648125 0.2654293 0.2638822 0.2595264 0.2549185 0.2520735
 0.2493634 0.2445446 0.2396706 0.2397281 0.2461387 0.2543688 0.2590112 0.2592583 0.2579475 0.2564247
 0.2522871 0.2428681 0.2302716 0.2214808 0.2222258 0.2310169 0.240449 0.244412 0.24293 0.240046
 0.2384602 0.2368666 0.2319812 0.222938 0.2135022 0.2089445 0.2104882 0.2142314 0.2157841 0.2137958
 0.2084523 0.2000314 0.1913741 0.188827 0.1968659 0.2125589 0.2278077 0.2359689 0.2343047 0.2226014
 0.2040675 0.1871657 0.1814999 0.189272 0.2026462 0.2109691 0.2092747 0.1992174 0.1844474 0.1680421
 0.1538512 0.1470277 0.1509426 0.1636983 0.1782573 0.1860365 0.1816793 0.1671216 0.1517144 0.1455103
 0.1502804 0.1584081 0.161452 0.1577901 0.1514569 0.1468247 0.1460097 0.1486506 0.1523609 0.1548962
 0.1559466 0.1548602 0.1482756 0.1342384 0.1178715 0.1080546 0.1081781 0.1143906 0.1227331 0.1326503
 0.1423841 0.1465948 0.1423852 0.1348199 0.132616 0.1388934 0.148492 0.1542591 0.1541268 0.1514764
 0.1499076 0.1493828 0.148062 0.1465077 0.1478345 0.1533921 0.1603886 0.1650029 0.1663743 0.1662537
 0.1660627 0.1658331 0.1652032 0.1640464 0.1624053 0.1605978 0.1591185 0.1580637 0.1570348 0.1557165
 0.1538612 0.1504875 0.1441518 0.1350809 0.1264365 0.1218682 0.121737 0.1233654 0.1249759 0.126721
 0.1270401 0.1216319 0.1091135 0.09565984 0.09052203 0.0971158 0.1104884 0.1229354 0.1298273 0.1299911
 0.1235113 0.1121294 0.1013402 0.0986396 0.1074037 0.123689 0.1405085 0.1538133 0.1628544 0.1669059
 0.1648207 0.1576843 0.1497522 0.1460344 0.1493382 0.159039 0.1711597 0.1792299 0.1774653 0.1666464
 0.1568578 0.1599937 0.1770873 0.196351 0.2063907 0.2077824 0.2082558 0.210673 0.2116954 0.2104515
 0.2118857 0.2199958 0.2319 0.2406356 0.2412462 0.2327246 0.2172798 0.2007076 0.1909049 0.1916814
 0.1986316 0.204086 0.2046136 0.2005641 0.1914929 0.1780744 0.1669838 0.1668739 0.1782997 0.1924905
 0.2013336 0.2047876 0.2072548 0.2099903 0.2095851 0.2031483 0.1931242 0.1857869 0.1850291 0.188943
 0.1930128 0.1948239 0.1941674 0.1904571 0.1830662 0.174176 0.1687573 0.1703121 0.1773392 0.1848132
 0.1887431 0.1887178 0.1866874 0.1845294 0.1828346 0.1810676 0.1787626 0.1770892 0.1786367 0.1845528
 0.1925195 0.1990408 0.2033917 0.2078135 0.2139322 0.2204315 0.2245878 0.2252289 0.2238975 0.2235709
 0.2262874 0.2314856 0.2363701 0.2382542 0.2370986 0.2357914 0.2374915 0.2425995 0.2487026 0.2533169
 0.2559362 0.2574928 0.2588508 0.2600899 0.2604759 0.2590364 0.255969 0.2534721 0.2541986 0.2586153
 0.2645229 0.2692763 0.2718821 0.2729002 0.2730571 0.2724761 0.2710629 0.2691728 0.2676207 0.2670618
 0.2675408 0.2686689 0.2700403 0.2713956 0.27259 0.2735857 0.2744277 0.2751518 0.2757595 0.2762728
 0.2767171 0.2770379 0.2771516 0.2771211 0.2771782 0.2774922 0.2779787 0.2784061 0.2786162 0.2785474
 0.2781123 0.277213 0.2758863 0.2742994 0.2725581 0.2706368 0.268606 0.2668874 0.266137 0.2667655
 0.2685628 0.2708254 0.2728446 0.2742654 0.2750786 0.2754343 0.2755182 0.2755068 0.2755217 0.275596
 0.275704 0.2758254 0.2759719 0.2761609 0.2763912 0.2766582 0.2769756 0.2773587 0.2777841 0.2781786
 0.2784585 0.2785832 0.278579 0.2785099 0.2784202 0.2782981 0.2780893 0.2777405 0.2772335 0.2765976
 0.2758983 0.2752045 0.2745404 0.273863 0.2730986 0.272199 0.2711388 0.269873 0.2683604 0.2666581
 0.2649328 0.2633308 0.2618678 0.2604699 0.2590718 0.257637 0.2561355 0.2545557 0.2529247 0.2512908
 0.2496884 0.2481262 0.2465904 0.2450537 0.2434922 0.241894 0.2402535 0.2385624 0.2368112 0.2349893
 0.2330686 0.2309809 0.2286186 0.225864 0.2226144 0.2187855 0.2143289 0.209286 0.2038279 0.1982194
 0.1927292 0.1875593 0.1828339 0.1786316 0.1750192 0.172053 0.1697603 0.1681393 0.1671843 0.1668998
 0.1672917 0.1683465 0.1700075 0.1721572 0.1746275 0.1772326 0.1797974 0.1821798 0.1843099 0.1862243
 0.1880352 0.1898359 0.1916259 0.193327 0.1948574 0.196172 0.1972392 0.1980243 0.1985172 0.1987539
 0.1987889 0.1986607 0.198392 0.1979963 0.1974685 0.1967858 0.1959397 0.1949693 0.1939652 0.1930408
 0.1922916 0.1917676 0.1914748 0.1913921 0.1914887 0.1917358 0.1921067 0.1925684 0.1930875 0.1936461
 0.1942395 0.1948606 0.1955073 0.1962044 0.1969927 0.1978973 0.1989219 0.2000636 0.2013154 0.202657
 0.2040539 0.2054651 0.2068553 0.2082076 0.2095226 0.2108069 0.2120801 0.2133934 0.2148265 0.2164589
 0.2183425 0.2204815 0.2228189 0.2252402 0.2276007 0.2297613 0.2316294 0.2331836 0.234454 0.2354756
 0.2362714 0.2368707 0.2373188 0.2376602 0.2379199 0.2380959 0.2381663 0.238115 0.2379505 0.2376896
 0.2373321 0.2368609 0.2362537 0.2354867 0.2345405 0.233416 0.2321357 0.2307302 0.2292248 0.2276343
 0.225965 0.2242248 0.2224225 0.2205569 0.2186193 0.2166048 0.2145013 0.2122794 0.2099318 0.2075224
 0.2051615 0.2029312 0.200853 0.1989073 0.1970557 0.1952573 0.1934924 0.1917702 0.1901064 0.1885044
 0.18696 0.1854779 0.1840762 0.18277 0.1815541 0.1804164 0.179369 0.1784409 0.1776371 0.1769298
 0.1762941 0.1757315 0.1752609 0.1749058 0.1746769 0.1745414 0.1744176 0.1742223 0.1739215 0.1735381
 0.1731235 0.17272 0.1723417 0.1719838 0.1716376 0.1712775 0.1708425 0.1702448 0.1693958 0.1682251
 0.1667061 0.164876 0.1628201 0.1606426 0.1584642 0.1564218 0.154633 0.1531592 0.1519996 0.1510996
 0.1503711 0.1497395 0.1491841 0.1487367 0.1484489 0.1483344 0.1483096 0.1482205 0.1479834 0.1476842
 0.1475047 0.1475713 0.1478875 0.148358 0.1488491 0.1492559 0.1495343 0.1496767 0.1496865 0.149585
 0.1494012 0.149143 0.1488057 0.1484018 0.1479556 0.1474842 0.1469942 0.1464705 0.1458752 0.1451829
 0.1444027 0.1435491 0.1426208 0.1416058 0.1404682 0.1391673 0.1377594 0.1364602 0.1355484 0.1352006
 0.1354011 0.1359585 0.1366379 0.1373216 0.1379737 0.1384353 0.1384615 0.1381252 0.1380303 0.1388732
 0.1407652 0.1431038 0.14511 0.1463758 0.1468952 0.1467799 0.1461198 0.145003 0.1434712 0.1414889
 0.1390612 0.1362987 0.1333223 0.1302472 0.1272765 0.1246371 0.122428 0.1206349 0.1192226 0.1182303
 0.1178019 0.1175724 0.1156826 0.1097733 0.1006312 0.09379664 0.0949064 0.1033512 0.1126957 0.1174746
 0.1175459 0.1158246 0.1143166 0.1133369 0.1128175 0.1129279 0.1137902 0.1152261 0.1168028 0.1180906
 0.118921 0.1193329 0.119283 0.1184508 0.1161953 0.1117369 0.1047695 0.0960716 0.08727555 0.07990773
 0.07469998 0.07159992 0.07006474 0.06936279 0.06893814 0.06869342 0.06891882 0.06992991 0.07178575 0.07432692
 0.07735649 0.08063836 0.08378087 0.08636695 0.0882708 0.0896786 0.09075481 0.09144202 0.09160686 0.09123124
 0.09043042 0.08938827 0.08829673 0.08728617 0.08636773 0.08545605 0.08450413 0.08364213 0.08311208 0.08301336
 0.08319192 0.08342513 0.08361384 0.08376013 0.08387987 0.08398239 0.08406305 0.08412373 0.08424029 0.08452933
 0.08499023 0.08545998 0.08576826 0.08588564 0.0859094 0.08591354 0.08579725 0.08536546 0.0846503 0.08398695
 0.08356667 0.08309405 0.08218364 0.08097897 0.08007246 0.07985103 0.08015202 0.08053176 0.08066975 0.08051361
 0.08023486 0.08013786 0.08046308 0.08110883</values></Ydata></ScSm><ScRf><Ydata ylabel="Single channel"><values byteorder="INTEL" format="FLOAT32" numvalues="1820"> 0.06068583 0.06085213 0.06094121 0.06095945 0.06094211 0.06094094 0.06100482 0.06115243 0.06135601 0.06155339
 0.06168817 0.06174668 0.06174873 0.06170841 0.06163553 0.06157724 0.0616116 0.06177116 0.06199248 0.06215898
 0.06219422 0.06212714 0.06207466 0.06213008 0.06224113 0.06222051 0.06191985 0.06140024 0.06089744 0.0606034
 0.06054173 0.06070267 0.06116416 0.06187396 0.06239706 0.06222267 0.06140419 0.06059704 0.06033449 0.06051672
 0.06070706 0.06063917 0.06030624 0.05986611 0.05968241 0.06022326 0.06160035 0.06319128 0.06386683 0.06270836
 0.05966605 0.0557555 0.05267392 0.05189134 0.05362172 0.05653334 0.05874494 0.0593244 0.05873726 0.05789345
 0.05716163 0.05648533 0.0560298 0.05622928 0.05719117 0.05828065 0.05845026 0.05714565 0.05496609 0.053231
 0.05277001 0.05340701 0.0546759 0.05632877 0.05761259 0.05685785 0.05312201 0.04827107 0.04615024 0.04892949
 0.05478494 0.05967396 0.06092846 0.05876511 0.05512568 0.05206439 0.05095387 0.05211619 0.05478809 0.05775567
 0.06008279 0.06113821 0.06042664 0.05802695 0.05502235 0.05297495 0.05296182 0.05515061 0.05876895 0.06217873
 0.06361621 0.06249073 0.05978142 0.05700983 0.0552376 0.05505863 0.05675102 0.05999457 0.06385133 0.06729834
 0.0696376 0.0705778 0.0703097 0.06938652 0.06830051 0.06738702 0.06710546 0.0677621 0.06876519 0.06884892
 0.06744768 0.06545447 0.06430447 0.06449255 0.06518015 0.06521708 0.06430709 0.06282169 0.06066102 0.05722177
 0.05277454 0.04884711 0.04670095 0.04636579 0.04753283 0.05004155 0.05282282 0.05384994 0.05235512 0.05023296
 0.05016379 0.05275723 0.05624303 0.05863107 0.05955448 0.06012378 0.0615016 0.0637138 0.06550263 0.06527105
 0.06266238 0.05945081 0.05828829 0.06010249 0.06320629 0.06537661 0.06620239 0.06684081 0.0679952 0.06882328
 0.0678155 0.06458977 0.06085022 0.05932702 0.06139348 0.06569004 0.06911302 0.06911129 0.06540444 0.06004187
 0.05580509 0.05428359 0.05546255 0.0587933 0.06379686 0.06948711 0.07411604 0.07615416 0.07539746 0.0728918
 0.06973753 0.06606908 0.06161266 0.0573725 0.0558538 0.05870372 0.06460769 0.07037969 0.07380314 0.0747415
 0.07390948 0.07151375 0.06745573 0.06265052 0.05946153 0.05986784 0.06308153 0.0659911 0.06641664 0.06509904
 0.06410774 0.06426395 0.06482616 0.0650719 0.06533557 0.06644039 0.06851751 0.07068457 0.07189268 0.07187745
 0.07121645 0.07066184 0.07045639 0.07014887 0.06923161 0.06814747 0.06824747 0.07030557 0.07344958 0.07605565
 0.07738011 0.0778352 0.07789958 0.07727534 0.0753139 0.07222843 0.06959808 0.06920044 0.07129416 0.07445004
 0.07703535 0.07839181 0.07869959 0.07839018 0.07784537 0.0772707 0.07676513 0.0765909 0.07710536 0.07825425
 0.07945412 0.08017604 0.08037832 0.08024752 0.07982618 0.07909264 0.07823072 0.07762653 0.0775892 0.07812114
 0.07897228 0.07986334 0.08058001 0.08092559 0.08079158 0.08031684 0.07980877 0.07945928 0.07927148 0.07925731
 0.07951063 0.08002803 0.0806132 0.08104402 0.08125268 0.08129763 0.08123769 0.08108967 0.08087292 0.08065879
 0.08057024 0.08069837 0.0809941 0.08129771 0.08152369 0.08174677 0.08203621 0.08228682 0.08232477 0.08213909
 0.08190654 0.08180016 0.08184774 0.08196919 0.08207138 0.08206965 0.08187809 0.08148155 0.08103865 0.08082531
 0.08101499 0.08155288 0.08225209 0.08292838 0.08343416 0.08368808 0.08373421 0.08369766 0.08364329 0.08353142
 0.08332658 0.08310263 0.08302036 0.08320316 0.08362372 0.08411811 0.08452014 0.08476362 0.08487085 0.08491531
 0.08499956 0.08517705 0.08536911 0.08543751 0.0853618 0.08527718 0.08531371 0.08544856 0.08554316 0.08550557
 0.08539696 0.08537045 0.08551016 0.0857535 0.08597805 0.08613522 0.08627746 0.08646464 0.08666092 0.08674428
 0.08664072 0.08642885 0.08626341 0.08620878 0.0862141 0.08624555 0.08635196 0.08656535 0.0868066 0.08695208
 0.08697234 0.08695678 0.08699624 0.0870738 0.08709066 0.08698316 0.08679022 0.08661264 0.08653003 0.08655559
 0.08664338 0.08672313 0.08673991 0.08668128 0.08657561 0.08646327 0.08636978 0.08631386 0.08633482 0.08647892
 0.08672783 0.08695622 0.08700707 0.08683394 0.0865557 0.0863509 0.08629583 0.08631124 0.08625992 0.08607923
 0.08581655 0.08556075 0.08536462 0.08522771 0.08512495 0.08503959 0.08498487 0.08500404 0.08512647 0.08530156
 0.08539835 0.08531103 0.08506428 0.0847883 0.08459817 0.08452018 0.0845127 0.08452021 0.0845197 0.08454058
 0.0846196 0.08472329 0.08475829 0.08468173 0.08455972 0.08449791 0.08455589 0.08473096 0.08496225 0.08513754
 0.08516304 0.08505747 0.08493732 0.08489516 0.08492906 0.08499348 0.08506833 0.08515622 0.08525145 0.08534734
 0.08546321 0.08563789 0.08588944 0.0861858 0.08645612 0.08663664 0.08672135 0.08677755 0.08690225 0.08714733
 0.08747903 0.08780889 0.08806661 0.08824972 0.0884085 0.08858468 0.08877663 0.0889719 0.08919105 0.08946825
 0.08979732 0.09013212 0.0904412 0.09073342 0.0910279 0.0913256 0.09162031 0.09192514 0.09227648 0.09269927
 0.09315775 0.09355493 0.09380958 0.09393658 0.09403911 0.09422792 0.09454766 0.09494641 0.09529795 0.09549581
 0.09556396 0.09564443 0.09584215 0.09611665 0.09636763 0.09659028 0.09688148 0.09729859 0.09776866 0.09815724
 0.0984 0.0985494 0.09870332 0.09890045 0.09909154 0.09921369 0.09927755 0.09935558 0.09949191 0.09966889
 0.09987514 0.1001535 0.1005382 0.1009779 0.1013693 0.1016526 0.101841 0.1019756 0.1020864 0.1021812
 0.1022468 0.1022745 0.1022947 0.102357 0.1024622 0.1025509 0.1025826 0.1025919 0.1026472 0.1027848
 0.1030062 0.1033027 0.1036431 0.1039642 0.1042252 0.1044698 0.1047817 0.1051625 0.1054972 0.1056773
 0.1057187 0.1057189 0.1057336 0.1057577 0.1058078 0.1059453 0.1062034 0.1065411 0.1068939 0.107238
 0.1075841 0.1079315 0.1082458 0.1084767 0.1085916 0.1086023 0.108567 0.1085669 0.108671 0.1089019
 0.1092225 0.109559 0.109846 0.1100471 0.1101408 0.1101215 0.1100401 0.1100097 0.1101194 0.1103343
 0.1105106 0.110515 0.1103099 0.1099287 0.1094085 0.1087759 0.1080789 0.107401 0.106831 0.1064231
 0.1061954 0.1061658 0.1063712 0.1068263 0.1074682 0.1081712 0.1088208 0.1093432 0.1096613 0.1096792
 0.1093523 0.1087495 0.1080131 0.1072728 0.1066018 0.1060116 0.1054578 0.1048922 0.1043553 0.1040096
 0.1040556 0.1046108 0.1056572 0.1070593 0.1086074 0.1100776 0.1113141 0.1122868 0.113072 0.1137674
 0.1144294 0.1150816 0.1157466 0.1164294 0.1170856 0.1176523 0.1181175 0.1185274 0.118925 0.1193086
 0.1196518 0.119936 0.1201672 0.120377 0.1205919 0.1207866 0.1208925 0.1208743 0.1207728 0.1206511
 0.1205231 0.1203517 0.1200917 0.1197232 0.1192797 0.1188772 0.1187029 0.1189326 0.1196258 0.1206896
 0.1219502 0.123262 0.1245421 0.1257138 0.1266727 0.1273469 0.1277675 0.1280452 0.1282877 0.1285526
 0.1288541 0.1291818 0.1295152 0.1298371 0.1301412 0.1304347 0.1307389 0.131071 0.1314139 0.1317203
 0.1319638 0.132178 0.1324321 0.1327676 0.1331587 0.1335399 0.1338752 0.1341893 0.1345139 0.1348247
 0.1350658 0.1352308 0.135382 0.1355907 0.1358858 0.1362512 0.1366348 0.1369665 0.1372021 0.1373621
 0.1375092 0.1376899 0.137909 0.1381514 0.138406 0.1386655 0.138923 0.1391831 0.1394669 0.1397845
 0.1401035 0.140364 0.1405374 0.1406604 0.1408 0.1409911 0.1412133 0.1414247 0.1416134 0.1418157
 0.1420807 0.1424131 0.142754 0.1430261 0.1431988 0.1433072 0.1434131 0.1435568 0.1437426 0.1439556
 0.1441791 0.1443988 0.1446062 0.1448035 0.1450017 0.1452098 0.1454266 0.1456443 0.1458582 0.1460704
 0.1462833 0.1464949 0.146705 0.1469279 0.1471861 0.1474822 0.147782 0.1480386 0.14823 0.1483679
 0.1484801 0.1485941 0.1487333 0.1489091 0.1491142 0.1493308 0.1495465 0.1497585 0.149967 0.1501719
 0.1503742 0.1505762 0.1507785 0.1509808 0.151186 0.1514014 0.1516294 0.15186 0.1520769 0.1522736
 0.1524587 0.1526466 0.1528454 0.1530507 0.1532493 0.153431 0.1536015 0.1537788 0.1539737 0.1541803
 0.1543857 0.1545836 0.1547772 0.1549743 0.1551789 0.1553862 0.1555868 0.1557771 0.1559632 0.1561552
 0.1563587 0.1565706 0.1567811 0.156981 0.1571696 0.1573521 0.1575345 0.1577224 0.1579207 0.1581284
 0.1583367 0.1585348 0.15872 0.1589003 0.1590872 0.1592852 0.1594906 0.1596982 0.1599051 0.1601088
 0.1603085 0.1605078 0.1607101 0.1609136 0.1611176 0.1613286 0.1615542 0.1617924 0.1620318 0.1622593
 0.1624686 0.1626647 0.1628594 0.163061 0.1632715 0.1634905 0.1637164 0.1639414 0.1641552 0.164353
 0.1645384 0.1647182 0.1648967 0.1650706 0.1652347 0.1653928 0.1655558 0.1657289 0.1659093 0.1660961
 0.1662919 0.1664979 0.1667124 0.1669313 0.1671462 0.1673504 0.1675451 0.1677358 0.1679257 0.168117
 0.1683122 0.1685115 0.1687174 0.1689349 0.1691616 0.1693854 0.1695998 0.1698093 0.1700172 0.1702226
 0.1704288 0.1706405 0.1708554 0.1710672 0.1712734 0.171476 0.1716808 0.171892 0.1721039 0.1723093
 0.1725151 0.1727331 0.1729577 0.1731739 0.1733785 0.1735775 0.1737736 0.1739705 0.1741742 0.1743857
 0.1746033 0.174828 0.1750544 0.1752689 0.1754697 0.1756702 0.1758785 0.1760932 0.1763128 0.176535
 0.1767551 0.1769736 0.1771886 0.1773793 0.1774962 0.1774213 0.176866 0.175264 0.1717595 0.1653839
 0.1554568 0.142033 0.1260283 0.1088809 0.09202714 0.07654674 0.06306825 0.05185153 0.04293191 0.03622179
 0.03156995 0.02884579 0.02803187 0.02933134 0.03328753 0.04046229 0.05021273 0.05960837 0.06457476 0.06311661
 0.0572275 0.05106787 0.04750103 0.0467128 0.04746832 0.04872638 0.05016339 0.05197063 0.05447412 0.05777153
 0.06171614 0.06631234 0.07190469 0.07873943 0.08644653 0.09419911 0.1014268 0.1082644 0.1152634 0.1227345
 0.1304241 0.1377631 0.1443207 0.1500183 0.1550331 0.1595944 0.1638544 0.1678826 0.1717183 0.175365
 0.1786997 0.1814362 0.1832642 0.1840878 0.1841383 0.1838425 0.1835687 0.1834823 0.1835919 0.1838635
 0.1842752 0.1848155 0.1854738 0.1862305 0.1870496 0.1878918 0.188734 0.1895632 0.1903618 0.1911103
 0.1917974 0.1924211 0.1929871 0.1935066 0.1939888 0.1944373 0.1948551 0.1952474 0.1956169 0.1959649
 0.1962951 0.1966086 0.1968998 0.1971639 0.1974035 0.1976243 0.1978326 0.1980382 0.1982517 0.1984769
 0.1987091 0.1989379 0.1991527 0.1993527 0.1995498 0.1997569 0.1999737 0.2001907 0.2004018 0.2006045
 0.2007957 0.2009773 0.2011594 0.2013513 0.2015514 0.2017505 0.2019418 0.2021262 0.2023087 0.2024939
 0.2026822 0.2028721 0.2030604 0.2032429 0.2034228 0.2036153 0.2038331 0.2040699 0.2043084 0.2045398
 0.2047637 0.2049787 0.205187 0.2053969 0.2056071 0.2057994 0.2059619 0.2061101 0.2062776 0.2064853
 0.206722 0.2069572 0.2071722 0.2073739 0.207576 0.2077801 0.2079776 0.2081595 0.2083247 0.2084934
 0.2086993 0.2089516 0.2092205 0.2094751 0.2097119 0.209937 0.2101531 0.210371 0.210598 0.2108089
 0.2109654 0.2110772 0.2112199 0.2114724 0.2118357 0.212224 0.2125467 0.2127896 0.2129992 0.2132177
 0.213462 0.2137175 0.2139086 0.2139449 0.2138661 0.2138775 0.214156 0.214666 0.2152236 0.215693
 0.2160631 0.2163792 0.216666 0.2169039 0.2170451 0.2170597 0.2170035 0.2170338 0.2173028 0.2178015
 0.2183561 0.2188069 0.2191317 0.2193781 0.2195752 0.2197383 0.2198358 0.2197292 0.2193196 0.2188219
 0.2187131 0.2192685 0.2202474 0.221149 0.2217104 0.2220381 0.2223196 0.2225936 0.2228112 0.2228809
 0.2225534 0.2215629 0.2201446 0.2191808 0.2194748 0.2209454 0.2227683 0.2241985 0.2250386 0.2254639
 0.2257094 0.2259122 0.2260054 0.2257161 0.2248726 0.2238218 0.2233475 0.2239459 0.2252648 0.226481
 0.2271426 0.227411 0.2276169 0.2278873 0.2280652 0.2276759 0.2261968 0.22383 0.221892 0.2218882
 0.2240422 0.227027 0.2292786 0.2303388 0.2307343 0.2308258 0.2302726 0.2286438 0.2260728 0.2232025
 0.2209677 0.220453 0.2221787 0.2252192 0.2277277 0.2287529 0.2290429 0.2298225 0.2313346 0.2328466
 0.2335974 0.2333867 0.2324448 0.2310163 0.2292435 0.2275533 0.2268876 0.2280371 0.2306844 0.2335157
 0.2354358 0.2363995 0.2368406 0.2363904 0.2336214 0.2277637 0.2208464 0.2171363 0.219375 0.2259125
 0.2324786 0.2363863 0.2380148 0.2387975 0.2392903 0.239021 0.2367861 0.2313207 0.2233029 0.2165961
 0.2156349 0.2210428 0.2289267 0.2345049 0.2353479 0.2316271 0.2252738 0.2194148 0.2170891 0.2194041
 0.2250545 0.2316151 0.2369959 0.2400158 0.2403893 0.2386221 0.2359916 0.2342367 0.2342835 0.2348768
 0.2335472 0.2297323 0.2257139 0.2232767 0.2209611 0.2167664 0.2125298 0.2127141 0.2186004 0.2261381
 0.2304927 0.2309482 0.230042 0.2289563 0.2255105 0.2173039 0.2062505 0.1986894 0.1998466 0.2084094
 0.2176923 0.2221813 0.221921 0.2205809 0.2205637 0.2205481 0.2173457 0.2100551 0.2022205 0.1988704
 0.201178 0.2054144 0.2073807 0.2057717 0.200745 0.1925795 0.1840593 0.1813588 0.1888613 0.2038155
 0.2184659 0.2264288 0.225065 0.2141414 0.1967287 0.1810455 0.1764722 0.1851679 0.1994489 0.2088428
 0.2084082 0.199663 0.1861138 0.1708265 0.157821 0.152574 0.1587727 0.1745509 0.1924408 0.2030792
 0.2004215 0.1864739 0.171712 0.1675544 0.1759639 0.1880603 0.1940293 0.1920097 0.1867583 0.1835472
 0.1851155 0.1911065 0.1984487 0.2042684 0.2081866 0.2090776 0.2019978 0.1841276 0.1626225 0.14988
 0.1506747 0.1597619 0.1717827 0.1860542 0.200054 0.2061481 0.2001907 0.1893544 0.1859971 0.1945454
 0.2077147 0.2154092 0.2147109 0.2104036 0.2076221 0.2064066 0.2042331 0.2018884 0.2036973 0.2115263
 0.221501 0.2283345 0.2308355 0.231404 0.2319652 0.2325175 0.2325301 0.2318276 0.2304869 0.2289657
 0.2279764 0.2276864 0.2275549 0.2271456 0.2261066 0.2229341 0.2153032 0.2033283 0.1916282 0.1856663
 0.1859653 0.1884891 0.1906518 0.1928351 0.192789 0.1840361 0.16442 0.1431423 0.1340636 0.1423054
 0.1604394 0.1769721 0.1851495 0.1835395 0.172618 0.1549956 0.138151 0.1320551 0.141023 0.1595732
 0.1782908 0.1919328 0.1999625 0.2020273 0.1970111 0.1862729 0.1748952 0.1687554 0.1709657 0.1805329
 0.1926703 0.1999954 0.1961631 0.1822111 0.1693099 0.1704777 0.1868996 0.2058998 0.2151851 0.2152711
 0.214386 0.2156874 0.2157518 0.2136194 0.2143635 0.2221708 0.234207 0.2434187 0.244732 0.2370562
 0.222605 0.2073765 0.1995913 0.2030735 0.2128356 0.220439 0.2221179 0.2182943 0.2086325 0.1941144
 0.1822649 0.182624 0.1957085 0.2117822 0.2219109 0.2261001 0.2292357 0.2326776 0.2326021 0.2257825
 0.2149592 0.2071549 0.2067414 0.2116302 0.2168508 0.2197961 0.2202764 0.2175668 0.2108476 0.2025861
 0.1985745 0.2029092 0.2137314 0.2249241 0.2315525 0.232959 0.2313678 0.2289894 0.2265158 0.2232828
 0.2187531 0.2144305 0.2135569 0.2176502 0.224092 0.2288227 0.2309867 0.2332084 0.2374641 0.2423571
 0.2448183 0.2434573 0.2398858 0.2373137 0.2379787 0.2413725 0.2446125 0.2448918 0.2421466 0.2393683
 0.2398507 0.2440473 0.2495017 0.2536476 0.2559018 0.2571355 0.2581756 0.2590813 0.2590915 0.2571912
 0.2535428 0.250336 0.2502386 0.2537528 0.2587434 0.2626555 0.2645805 0.2651173 0.2649775 0.2642416
 0.2627661 0.2608477 0.2592406 0.258562 0.2588501 0.2597186 0.2607586 0.2617145 0.2624578 0.2629661
 0.2632931 0.2634908 0.2635903 0.2636445 0.2636991 0.2637132 0.2636124 0.2634527 0.2634308 0.2636634
 0.26403 0.2642995 0.2643412 0.2641234 0.2635806 0.2626313 0.2613302 0.2598633 0.2583389 0.2567027
 0.2549781 0.2535527 0.2530744 0.2539586 0.2559972 0.2584832 0.2607 0.2622882 0.2632459 0.2637366
 0.2639461 0.2640245 0.2640527 0.2640331 0.2639306 0.2637284 0.2634428 0.2630975 0.2627082 0.2623004
 0.2619205 0.2616076 0.2613521 0.2610948 0.2607703 0.2603497 0.25985 0.259313 0.2587684 0.2582029
 0.2575629 0.2567989 0.2559101 0.2549528 0.2540096 0.2531441 0.2523636 0.2516166 0.2508389 0.2500002
 0.2490915 0.2480841 0.2469548 0.2457667 0.244673 0.2437973 0.2431289 0.242548 0.2419255 0.2411835
 0.2403025 0.2393121 0.2382666 0.237203 0.2361206 0.2349983 0.233815 0.2325528 0.2311996 0.2297571
 0.2282375 0.2266576 0.2250417 0.2234137 0.221761 0.2200055 0.2180241 0.2156942 0.2129127 0.2095958
 0.2057027 0.2012812 0.1964838 0.1915262 0.186621 0.1819357 0.1775917 0.1736837 0.170297 0.1675113
 0.1653932 0.1639791 0.1632697 0.1632491 0.1639093 0.1652431 0.1672053 0.1696817 0.1725015 0.1754765
 0.1784334 0.181233 0.1838006 0.1861528 0.18837 0.1905046 0.1925239 0.1943573 0.1959792 0.197411
 0.1986611 0.1997113 0.2005613 0.2012514 0.2018323 0.2023317 0.2027572 0.2031151 0.2034194 0.2036847
 0.2039168 0.2041183 0.2043003 0.2044825 0.2046813 0.2049044 0.2051601 0.2054655 0.2058456 0.2063162
 0.2068617 0.2074359 0.2079976 0.2085461 0.2091118 0.2097255 0.210412 0.2112084 0.2121619 0.2132988
 0.2145957 0.2159823 0.2173699 0.2186792 0.2198507 0.220842 0.2216239 0.2221793 0.2225076 0.2226287
 0.2225777 0.2223876 0.222081 0.2216794 0.2212055 0.2206723 0.2200803 0.2194349 0.2187547 0.2180562
 0.2173448 0.2166281 0.2159255 0.2152535 0.2146076 0.2139689 0.213327 0.2126907 0.2120773 0.2114939
 0.2109311 0.2103708 0.2097982 0.2092117 0.2086223 0.2080339 0.207418 0.2067185 0.2058943 0.2049478
 0.2039072 0.2027887 0.2015886 0.2002992 0.1989217 0.1974658 0.1959462 0.1943775 0.1927668 0.1911015
 0.1893448 0.1874562 0.1854399 0.1833735 0.1813717 0.1795141 0.1778106 0.1762227 0.1747082 0.1732528
 0.1718698 0.1705718 0.1693485 0.1681807 0.167065 0.1660102 0.1650186 0.1640861 0.1632148 0.1624134
 0.1616891 0.161046 0.160488 0.1600202 0.159641 0.1593313 0.1590703 0.1588705 0.158772 0.1587811
 0.1588377 0.1588602 0.1588098 0.1587028 0.1585811 0.1584808 0.1584148 0.1583745 0.1583388 0.1582697
 0.1581069 0.1577768 0.1572071 0.1563364 0.1551367 0.1536344 0.1519018 0.1500426 0.1481938 0.1465016
 0.145063 0.1439039 0.143012 0.1423497 0.1418466 0.1414335 0.1410998 0.1408973 0.1408877 0.1410709
 0.1413407 0.1415357 0.1415847 0.1415881 0.1417306 0.1421325 0.1427844 0.1435718 0.1443478 0.1450161
 0.1455506 0.145945 0.1461913 0.1463101 0.1463407 0.1462981 0.1461804 0.1459959 0.1457509 0.1454414
 0.1450719 0.1446454 0.1441438 0.1435558 0.1428971 0.1421773 0.1413872 0.1405164 0.1395329 0.1383877
 0.1371263 0.1359657 0.1351918 0.1349922 0.1353764 0.1361908 0.1372211 0.138325 0.1394045 0.1402424
 0.1405755 0.140495 0.1406305 0.1416935 0.1437945 0.1463125 0.1484555 0.1498436 0.1505241 0.1506231
 0.1501824 0.1492247 0.1477509 0.1457174 0.1431538 0.1402233 0.1371007 0.1339299 0.1309068 0.1282219
 0.1259444 0.1240712 0.1226014 0.1215894 0.121179 0.1209905 0.1190894 0.1130159 0.1035991 0.09661704
 0.09791119 0.1068041 0.1165949 0.1216287 0.1217742 0.1200546 0.11854 0.1175363 0.1169481 0.1169475
 0.1176842 0.1190117 0.1205214 0.1217848 0.1226074 0.1230077 0.122951 0.1221076 0.1197616 0.1150486
 0.1076641 0.09848492 0.08926412 0.08159794 0.07621183 0.07299656 0.0713622 0.07057972 0.07012421 0.06990814
 0.07019211 0.0712519 0.0731434 0.07575044 0.07891811 0.08240552 0.08578885 0.08863932 0.09084414 0.09259699
 0.09404938 0.09512187 0.09567237 0.09569593 0.0953121 0.09466398 0.09388079 0.09305875 0.09219798 0.09119454
 0.08999895 0.08878996 0.087879 0.08741096 0.08726168 0.08723884 0.0872529 0.0872789 0.0872881 0.08725937
 0.08719684 0.08714935 0.08723296 0.08755478 0.0880737 0.08860055 0.08896005 0.08911936 0.08916309 0.08913976
 0.08892317 0.08833168 0.08745976 0.086696 0.08621852 0.08567122 0.08462863 0.08325571 0.08220521 0.08190107
 0.08215939 0.08249282 0.08256811 0.08235176 0.08203869 0.08195607 0.08235785 0.08311655 0.08370803 0.08368956
</values></Ydata></ScRf><Data_Parameters_AB><parameter name="DPF">1</parameter><parameter name="NPT">3497</parameter><parameter name="FXV">3996</parameter><parameter name="LXV">500</parameter><parameter name="CSF">1</parameter><parameter name="MXY">0.184162020683289</parameter><parameter name="MNY">-0.0817917063832283</parameter><parameter name="DAT">01/06/2022</parameter><parameter name="TIM">12:22:04.371 (GMT+2)</parameter><parameter name="DXU">WN</parameter></Data_Parameters_AB><AB__Qtest><MainReport name="Quality Test Report"><Header><Line><Legend>Test result ok/not ok [1/0]: </Legend><Value>0</Value></Line><Line><Legend>Method file: </Legend><Value>C:\Users\Public\Documents\Bruker\OPUS_8.2.28\QT\IRBT_v3_default.QT</Value></Line></Header><Matrix><Line><Legend></Legend><Legend>min</Legend><Legend>max</Legend><Legend>measured</Legend></Line><Line><Value>Absorption (X-Range 1):</Value><Value>0.400000</Value><Value>2.000000</Value><Value>0.202973</Value></Line><Line><Value>Noise (X-Range 4):</Value><Value></Value><Value>0.000300</Value><Value>0.000046</Value></Line><Line><Value>Signal/Noise (X-Range 2):</Value><Value>200.000000</Value><Value></Value><Value>90.766411</Value></Line><Line><Value>Signal/Noise (X-Range 3):</Value><Value>40.000000</Value><Value></Value><Value>93.933920</Value></Line><Line><Value>Water vapour (X-Range 5):</Value><Value></Value><Value>0.000300</Value><Value>0.000078</Value></Line><Line><Value>Signal/Water (X-Range 2):</Value><Value>100.000000</Value><Value></Value><Value>53.482154</Value></Line><Line><Value>Signal/Water (X-Range 3):</Value><Value>20.000000</Value><Value></Value><Value>55.348540</Value></Line><Line><Value>Fringes (X-Range 6):</Value><Value></Value><Value>0.000100</Value><Value>0.000067</Value></Line></Matrix></MainReport></AB__Qtest><Data_Parameters_ScSm><parameter name="DPF">1</parameter><parameter name="NPT">1814</parameter><parameter name="FXV">3996.33169228125</parameter><parameter name="LXV">499.541461535156</parameter><parameter name="CSF">1</parameter><parameter name="MXY">0.278616189956665</parameter><parameter name="MNY">0.0304190050810575</parameter><parameter name="DAT">01/06/2022</parameter><parameter name="TIM">12:22:04.371 (GMT+2)</parameter><parameter name="DXU">WN</parameter></Data_Parameters_ScSm><Data_Parameters_ScRf><parameter name="DPF">1</parameter><parameter name="NPT">1820</parameter><parameter name="FXV">4004.04661832813</parameter><parameter name="LXV">495.683998511719</parameter><parameter name="CSF">1</parameter><parameter name="MXY">0.265117347240448</parameter><parameter name="MNY">0.028031874448061</parameter><parameter name="DAT">01/06/2022</parameter><parameter name="TIM">12:21:37.418 (GMT+2)</parameter><parameter name="DXU">WN</parameter></Data_Parameters_ScRf><Optic_Parameters_Rf><parameter name="APR">0</parameter><parameter name="APT">Open</parameter><parameter name="BMS">KBr</parameter><parameter name="DTC">RT-DLaTGS_IR-Biotyper [Microplate reader]</parameter><parameter name="HPF">0</parameter><parameter name="LPF">10.0</parameter><parameter name="LPV">4000</parameter><parameter name="PGR">0</parameter><parameter name="RCH">Module port</parameter><parameter name="RDX">0</parameter><parameter name="SRC">MIR</parameter><parameter name="VEL">10.0</parameter><parameter name="SON">Off</parameter></Optic_Parameters_Rf><Acquisition_Parameters_Rf><parameter name="ADT">1</parameter><parameter name="AQM">DD</parameter><parameter name="CFE">0</parameter><parameter name="COR">0</parameter><parameter name="DEL">0</parameter><parameter name="DLY">0</parameter><parameter name="HFW">8000</parameter><parameter name="LFW">0</parameter><parameter name="NSR">32</parameter><parameter name="PLF">AB</parameter><parameter name="RES">6</parameter><parameter name="RGN">-1</parameter><parameter name="STR">0</parameter><parameter name="TCL">MakeCompatibleScalar (0, {WSV=1.000000, ARV=0});</parameter><parameter name="TDL">37</parameter><parameter name="RPO">0</parameter></Acquisition_Parameters_Rf><FT_-_Parameters_Rf><parameter name="APF">B3</parameter><parameter name="HFQ">500</parameter><parameter name="LFQ">4000</parameter><parameter name="NLI">0</parameter><parameter name="PHR">24</parameter><parameter name="PHZ">ML</parameter><parameter name="SPZ">NO</parameter><parameter name="ZFF">1</parameter></FT_-_Parameters_Rf><Optic_Parameters_><parameter name="APR">0</parameter><parameter name="APT">Open</parameter><parameter name="BMS">KBr</parameter><parameter name="CHN">Module port</parameter><parameter name="DTC">RT-DLaTGS_IR-Biotyper [Microplate reader]</parameter><parameter name="HPF">0</parameter><parameter name="LPF">10.0</parameter><parameter name="LPV">4000</parameter><parameter name="PGN">0</parameter><parameter name="RDX">0</parameter><parameter name="SRC">MIR</parameter><parameter name="VEL">10.0</parameter><parameter name="SON">Off</parameter></Optic_Parameters_><FT_-_Parameters_><parameter name="APF">B3</parameter><parameter name="HFQ">500</parameter><parameter name="LFQ">4000</parameter><parameter name="NLI">0</parameter><parameter name="PHR">24</parameter><parameter name="PHZ">ML</parameter><parameter name="SPZ">NO</parameter><parameter name="ZFF">1</parameter></FT_-_Parameters_><Acquisition_Parameters_><parameter name="ADT">1</parameter><parameter name="AQM">DD</parameter><parameter name="CFE">0</parameter><parameter name="COR">0</parameter><parameter name="DEL">0</parameter><parameter name="DLY">0</parameter><parameter name="HFW">8000</parameter><parameter name="LFW">0</parameter><parameter name="NSS">32</parameter><parameter name="PLF">AB</parameter><parameter name="RES">6</parameter><parameter name="SOT">0</parameter><parameter name="TCL">MakeCompatibleScalar (0, {WSV=1.000000, ARV=0});</parameter><parameter name="TDL">37</parameter><parameter name="SPO">0</parameter><parameter name="SGN">-1</parameter></Acquisition_Parameters_><Instrument_Parameters_Rf><parameter name="HFL">15800.168544</parameter><parameter name="LFL">0</parameter><parameter name="LWN">15800.168544</parameter><parameter name="ABP">32197</parameter><parameter name="SSP">1</parameter><parameter name="ARG">2</parameter><parameter name="ASG">2</parameter><parameter name="ASS">32</parameter><parameter name="GFW">16</parameter><parameter name="GBW">16</parameter><parameter name="BFW">0</parameter><parameter name="BBW">0</parameter><parameter name="PKA">7318</parameter><parameter name="PKL">4990</parameter><parameter name="PRA">7484</parameter><parameter name="PRL">5001</parameter><parameter name="P2A">1</parameter><parameter name="P2L">1</parameter><parameter name="P2R">1</parameter><parameter name="P2K">1</parameter><parameter name="DAQ">0</parameter><parameter name="AG2">1</parameter><parameter name="SSM">1</parameter><parameter name="RSN">26017</parameter><parameter name="CRR">0</parameter><parameter name="SRT">1654086097.419</parameter><parameter name="DUR">19.6389923095703</parameter><parameter name="TSC">28.9</parameter><parameter name="MVD">0.209623649716377</parameter><parameter name="AN1">0.225831734928591</parameter><parameter name="AN2">0</parameter><parameter name="VSN">2.485 Apr  4 2017</parameter><parameter name="SRN">0085</parameter><parameter name="CAM">0</parameter><parameter name="INS">IR-Biotyper</parameter><parameter name="FOC">69</parameter><parameter name="RDY">1</parameter><parameter name="ARS">32</parameter></Instrument_Parameters_Rf><Sample_Parameters_><parameter name="BLD"></parameter><parameter name="CNM">Admin</parameter><parameter name="CPY"></parameter><parameter name="DPM"></parameter><parameter name="EXP">IRBT_v3_32Scans.XPM</parameter><parameter name="LCT"></parameter><parameter name="SFM">Microplate, HTS-XT</parameter><parameter name="SNM">220601-1028(v.3)_EDR39F (D_1)_C12_5dd520a2-26a0-42cc-b88a-18367263ad68.0</parameter><parameter name="XPP">C:\Users\Public\Documents\Bruker\OPUS_8.2.28\XPM</parameter><parameter name="IST">OK</parameter><parameter name="CPG">1252</parameter><parameter name="UID">a6ab2e77-a45b-4a68-9157-611a11fd468e</parameter></Sample_Parameters_><Instrument_Parameters_><parameter name="HFL">15800.168544</parameter><parameter name="LFL">0</parameter><parameter name="LWN">15800.168544</parameter><parameter name="ABP">32197</parameter><parameter name="SSP">1</parameter><parameter name="ASG">2</parameter><parameter name="ARG">2</parameter><parameter name="ASS">32</parameter><parameter name="GFW">16</parameter><parameter name="GBW">16</parameter><parameter name="BFW">0</parameter><parameter name="BBW">0</parameter><parameter name="PKA">7279</parameter><parameter name="PKL">4988</parameter><parameter name="PRA">7540</parameter><parameter name="PRL">4993</parameter><parameter name="P2A">1</parameter><parameter name="P2L">1</parameter><parameter name="P2R">1</parameter><parameter name="P2K">1</parameter><parameter name="DAQ">0</parameter><parameter name="AG2">1</parameter><parameter name="SSM">1</parameter><parameter name="RSN">13634</parameter><parameter name="CRR">0</parameter><parameter name="SRT">1654086124.371</parameter><parameter name="DUR">19.6389923095703</parameter><parameter name="TSC">28.9</parameter><parameter name="MVD">0.543857395648956</parameter><parameter name="AN1">0.225791810785581</parameter><parameter name="AN2">0</parameter><parameter name="VSN">2.485 Apr  4 2017</parameter><parameter name="SRN">0085</parameter><parameter name="CAM">0</parameter><parameter name="INS">IR-Biotyper</parameter><parameter name="FOC">69</parameter><parameter name="RDY">1</parameter></Instrument_Parameters_><History/></OPUSDataFile>
