<?xml version="1.0" encoding="UTF-8" ?>
<OPUSDataFile><AB><Ydata ylabel="Absorbance Units"><values byteorder="INTEL" format="FLOAT32" numvalues="3497"> -0.06910818 -0.06908907 -0.06906507 -0.0690362 -0.06900173 -0.06896164 -0.06892131 -0.06888155 -0.06885415 -0.06883975
 -0.06884934 -0.06888078 -0.06893387 -0.06900319 -0.0690763 -0.06914879 -0.06920659 -0.0692521 -0.06928096 -0.0693016
 -0.06931897 -0.06933976 -0.06937022 -0.06940839 -0.06945628 -0.06950511 -0.06955297 -0.06959449 -0.06962786 -0.06965608
 -0.06967919 -0.06970156 -0.06972346 -0.06974089 -0.06975356 -0.06975509 -0.0697474 -0.06973782 -0.06973004 -0.06974261
 -0.069774 -0.06983269 -0.06990869 -0.06999037 -0.07006758 -0.07012232 -0.07015532 -0.07015882 -0.07014444 -0.07011551
 -0.07008391 -0.07005516 -0.07003402 -0.07002323 -0.07002104 -0.0700276 -0.07004067 -0.07005988 -0.07008635 -0.07012012
 -0.07016147 -0.07020982 -0.07025784 -0.07030427 -0.07033746 -0.07035804 -0.07036108 -0.07035029 -0.07033114 -0.07030872
 -0.07029335 -0.07028936 -0.07030685 -0.07034397 -0.07040615 -0.07047825 -0.07055666 -0.0706182 -0.07065209 -0.07065015
 -0.07060428 -0.07053528 -0.07044309 -0.0703619 -0.0702949 -0.07026748 -0.07028126 -0.07034563 -0.07045971 -0.07061545
 -0.07080844 -0.07100994 -0.07121273 -0.07137366 -0.07149242 -0.07154258 -0.07153782 -0.07148749 -0.0714075 -0.07132051
 -0.07123432 -0.07116325 -0.07110709 -0.07107014 -0.0710476 -0.07103828 -0.0710397 -0.07105033 -0.07107306 -0.07110865
 -0.07115585 -0.07121558 -0.07127267 -0.0713263 -0.0713585 -0.0713698 -0.07136323 -0.0713426 -0.07133376 -0.07133887
 -0.07138199 -0.07145759 -0.07156684 -0.07169762 -0.07182957 -0.07195602 -0.07205948 -0.07214303 -0.07220578 -0.07224394
 -0.07225704 -0.07223515 -0.07216935 -0.07207589 -0.07195108 -0.07184304 -0.07175792 -0.07173988 -0.07179635 -0.07192785
 -0.07213554 -0.07232679 -0.07249538 -0.07251994 -0.07241575 -0.072219 -0.07195356 -0.07173268 -0.0715565 -0.07148414
 -0.07150012 -0.07161032 -0.07178447 -0.07199322 -0.07220206 -0.0723701 -0.07248857 -0.07253498 -0.07253549 -0.07249348
 -0.07243761 -0.0723777 -0.07232133 -0.07227187 -0.07222624 -0.07218426 -0.07214586 -0.07211097 -0.07208458 -0.07206716
 -0.07206643 -0.07208266 -0.07212275 -0.072184 -0.07226236 -0.07234965 -0.07242344 -0.07247802 -0.07248894 -0.07246704
 -0.07241169 -0.07234548 -0.07228729 -0.07225073 -0.07225194 -0.07228421 -0.07235197 -0.07243265 -0.07252199 -0.0725994
 -0.07265909 -0.07270145 -0.07272534 -0.07274172 -0.07275139 -0.07274945 -0.07273498 -0.07269058 -0.07261734 -0.07251243
 -0.07238134 -0.07224267 -0.07210292 -0.07198849 -0.07190099 -0.07185814 -0.07185086 -0.07187865 -0.0719227 -0.07196765
 -0.07199906 -0.07200097 -0.07197974 -0.07193092 -0.07187661 -0.07182175 -0.07178224 -0.07176264 -0.07176363 -0.07178609
 -0.07182461 -0.07187894 -0.07194407 -0.07201938 -0.07209488 -0.07216939 -0.07222905 -0.07227529 -0.07230501 -0.07232322
 -0.07234176 -0.07236266 -0.07239672 -0.07243892 -0.07248747 -0.0725376 -0.07258119 -0.07262725 -0.07267535 -0.07274596
 -0.07284921 -0.0729898 -0.07317729 -0.07337746 -0.07358911 -0.07376097 -0.07388628 -0.07394531 -0.07393627 -0.0738588
 -0.07371333 -0.07350288 -0.07323384 -0.07294945 -0.07266075 -0.07243626 -0.07227813 -0.07223216 -0.07228148 -0.07242799
 -0.07262587 -0.07281964 -0.07297564 -0.07303189 -0.07302178 -0.07294139 -0.07284654 -0.07276254 -0.07270993 -0.0727054
 -0.07272231 -0.07276163 -0.07277656 -0.07276049 -0.07270022 -0.07259371 -0.07247512 -0.07234673 -0.07225198 -0.07219056
 -0.07218412 -0.07222534 -0.07230062 -0.07239472 -0.0724581 -0.07248767 -0.0724472 -0.07236134 -0.07224686 -0.07212314
 -0.07201808 -0.07192384 -0.07184634 -0.07176545 -0.07167225 -0.07156153 -0.07142641 -0.07128588 -0.07114135 -0.07101475
 -0.07090968 -0.07082947 -0.07077501 -0.07072569 -0.07068006 -0.07060878 -0.07051354 -0.07039115 -0.07024761 -0.07010678
 -0.06997061 -0.06985606 -0.06976274 -0.06969716 -0.06965946 -0.06965562 -0.06967539 -0.06971848 -0.06975482 -0.06976809
 -0.0697315 -0.06962509 -0.06945721 -0.06922363 -0.06894897 -0.06863711 -0.06830459 -0.0679537 -0.06759454 -0.06722797
 -0.06685821 -0.06648569 -0.06611724 -0.06575518 -0.06541997 -0.06511366 -0.06485864 -0.06464883 -0.06448118 -0.064345
 -0.06421673 -0.06409632 -0.06397424 -0.06385297 -0.06373994 -0.06360941 -0.06345262 -0.06323311 -0.06292406 -0.06254525
 -0.06209111 -0.06161294 -0.06112046 -0.06064063 -0.0601783 -0.0597406 -0.05932834 -0.05894509 -0.05859119 -0.05827316
 -0.0579904 -0.05774463 -0.0575293 -0.05732189 -0.05710783 -0.05683176 -0.05649437 -0.05605901 -0.05556494 -0.05504819
 -0.05453986 -0.05408843 -0.05368301 -0.0533358 -0.05301323 -0.05270607 -0.05238105 -0.05202407 -0.0516299 -0.05119176
 -0.05073586 -0.0502644 -0.04979902 -0.04934188 -0.04888812 -0.04843722 -0.04797601 -0.04750574 -0.04703047 -0.04655201
 -0.04608174 -0.0456171 -0.04515702 -0.04469814 -0.04423243 -0.04376132 -0.04328239 -0.04280068 -0.04231936 -0.04184402
 -0.04137975 -0.04092713 -0.04049077 -0.04005649 -0.03962361 -0.0391679 -0.0386827 -0.03816457 -0.0376093 -0.03705111
 -0.03649193 -0.03596352 -0.03546619 -0.03499695 -0.03455352 -0.03411673 -0.03368544 -0.03324429 -0.03279441 -0.03232961
 -0.03185501 -0.03137635 -0.03090074 -0.03044144 -0.02999838 -0.02958011 -0.02917175 -0.02876949 -0.02835072 -0.02790265
 -0.0274202 -0.02689487 -0.02634963 -0.02578616 -0.02523203 -0.02469193 -0.02417185 -0.02367319 -0.02317733 -0.02268327
 -0.02217088 -0.02164113 -0.02109338 -0.02052933 -0.01995683 -0.0193748 -0.01878251 -0.0181824 -0.01757539 -0.01697294
 -0.01639096 -0.01583717 -0.01532825 -0.01485439 -0.01441737 -0.01399642 -0.01358335 -0.01316219 -0.01272509 -0.01227094
 -0.0117963 -0.01131602 -0.01083111 -0.01035763 -0.009897264 -0.009448055 -0.009009375 -0.008562902 -0.008108339 -0.007634094
 -0.007143193 -0.006643122 -0.00613671 -0.005637105 -0.00514243 -0.004655674 -0.004173056 -0.003689149 -0.003205818 -0.002721054
 -0.002242972 -0.001777268 -0.001325831 -0.0008940226 -0.000468549 -4.716414E-05 0.0003838202 0.0008293935 0.001284965 0.001751376
 0.002214942 0.00267446 0.003127536 0.003574313 0.004021947 0.004470303 0.004921718 0.005374617 0.005823596 0.006266264
 0.006692798 0.007102156 0.007485482 0.00784867 0.008193815 0.008532899 0.008879208 0.009236858 0.009615286 0.01000476
 0.0104033 0.01080244 0.01119776 0.0115917 0.01198424 0.01237697 0.0127706 0.01316062 0.01354658 0.01392919
 0.01430867 0.0146926 0.0150806 0.01547342 0.01586871 0.01625573 0.01663298 0.01698931 0.01732736 0.01764622
 0.01795098 0.01824918 0.0185418 0.01883405 0.0191205 0.01939816 0.0196661 0.01992007 0.020173 0.02042713
 0.02069661 0.02098643 0.0212938 0.02161995 0.02195135 0.02228697 0.02261884 0.02294669 0.02326942 0.02358741
 0.02390268 0.02421651 0.02453632 0.02486241 0.02520154 0.02554858 0.0258977 0.0262412 0.02656462 0.02686684
 0.02714008 0.0273902 0.02761883 0.02783089 0.02802937 0.02821565 0.02839035 0.02855578 0.02871173 0.02886468
 0.02901475 0.02917323 0.02934082 0.0295295 0.02973967 0.02997465 0.03023302 0.03050393 0.03078452 0.03105568
 0.0313152 0.03154575 0.03174866 0.03191598 0.03205617 0.03217525 0.03228758 0.03240942 0.03254997 0.0327241
 0.032922 0.03314724 0.0333721 0.03358929 0.03377588 0.03392261 0.03403698 0.03411635 0.03419338 0.03427073
 0.03436621 0.03447983 0.03458867 0.03469038 0.03475091 0.03477447 0.03476129 0.03472223 0.03469122 0.03467387
 0.03470088 0.03476521 0.03487214 0.03500685 0.03515711 0.0353102 0.03545206 0.03558183 0.03569278 0.03579859
 0.03590196 0.03601518 0.03614427 0.03627802 0.03641798 0.03653219 0.03661808 0.0366541 0.03663978 0.03658773
 0.03650079 0.0364123 0.03632245 0.03625098 0.03619302 0.03614243 0.036098 0.03605144 0.03601075 0.03598506
 0.03597788 0.0360013 0.0360396 0.03608761 0.03612567 0.03613866 0.03613319 0.03610386 0.03608038 0.03606914
 0.036086 0.03613697 0.03620236 0.03628214 0.036338 0.03636811 0.03634426 0.03626767 0.03613775 0.03596022
 0.0357617 0.03554977 0.03536233 0.03520254 0.03509793 0.03504127 0.03503751 0.03506816 0.03511878 0.03516775
 0.03519426 0.03519047 0.03514311 0.03506833 0.03496574 0.03486295 0.03476582 0.03469284 0.0346475 0.03463837
 0.03466619 0.03474177 0.03486564 0.03504641 0.03528159 0.03555285 0.035851 0.03612084 0.03635278 0.03648316
 0.03651831 0.03643193 0.03625706 0.03602517 0.03578011 0.03558271 0.03544665 0.03541233 0.03543758 0.03552034
 0.0355923 0.035628 0.03559413 0.03547168 0.03529051 0.03504867 0.03480642 0.03456925 0.03436938 0.03420797
 0.03406791 0.03394699 0.0338137 0.03367136 0.03351905 0.03336577 0.03324196 0.03314935 0.0331119 0.03311337
 0.03314492 0.03317749 0.03317842 0.03312559 0.03298885 0.03277276 0.03246551 0.0321012 0.03168502 0.03125982
 0.03083586 0.03044149 0.03008294 0.0297691 0.02950186 0.02927599 0.02909108 0.02892587 0.02877848 0.02861944
 0.02845038 0.02826221 0.02806262 0.02787379 0.02769749 0.02755406 0.02742746 0.02730421 0.02716483 0.02697858
 0.02675008 0.02646592 0.02615898 0.02583921 0.02554244 0.02528494 0.02507877 0.02493384 0.02482808 0.02476315
 0.02469027 0.02460597 0.02446359 0.02426088 0.02398709 0.0236452 0.02326408 0.02284839 0.02243784 0.0220341
 0.0216634 0.02132486 0.02103021 0.02077549 0.02056231 0.02037951 0.02021842 0.02006251 0.01989679 0.01971183
 0.01949641 0.01925746 0.01899278 0.01871978 0.0184419 0.01817232 0.01791446 0.01766749 0.0174323 0.01719571
 0.01695704 0.01670146 0.01642904 0.01613502 0.01582157 0.01549745 0.01516584 0.01484247 0.01452813 0.01423374
 0.01395505 0.01369168 0.01343557 0.01317796 0.01291309 0.01263183 0.01233871 0.01203135 0.01172362 0.01142029
 0.01112901 0.01085505 0.01058647 0.01032364 0.01004414 0.009745423 0.009420506 0.009069061 0.00870849 0.008340296
 0.007988155 0.007651424 0.007339536 0.007049018 0.006773503 0.006509341 0.006244957 0.005979016 0.005703846 0.005421015
 0.005128668 0.00483079 0.004528146 0.00422932 0.003936016 0.003665335 0.003422645 0.003224235 0.003079051 0.002972887
 0.002910277 0.002832816 0.002736784 0.002558452 0.002294433 0.001936099 0.00148866 0.001012222 0.0005150022 7.69766E-05
 -0.0003040735 -0.0005877175 -0.0007936515 -0.0009423618 -0.001062392 -0.001209731 -0.001397407 -0.001669734 -0.002002199 -0.0023977
 -0.002807916 -0.00320617 -0.003569017 -0.003875359 -0.004148379 -0.004389175 -0.004623369 -0.004859575 -0.005076558 -0.005274751
 -0.005408722 -0.005476095 -0.005474257 -0.005408257 -0.005340556 -0.005278737 -0.005301537 -0.005405521 -0.005625573 -0.005942599
 -0.006332905 -0.006772558 -0.007210827 -0.007638786 -0.008022367 -0.008375777 -0.008698216 -0.009006589 -0.009314335 -0.009613958
 -0.009908444 -0.01017672 -0.01041095 -0.01061535 -0.01078615 -0.0109571 -0.01113162 -0.0113265 -0.01154283 -0.01175348
 -0.01195645 -0.01211589 -0.01223547 -0.012317 -0.01236941 -0.01242675 -0.01249157 -0.01258964 -0.01271203 -0.01285607
 -0.01301211 -0.01316425 -0.01331887 -0.01347065 -0.01364403 -0.01385015 -0.01410817 -0.01443338 -0.01480959 -0.01524212
 -0.01567867 -0.01611336 -0.01649529 -0.0168172 -0.01707111 -0.01725615 -0.01741373 -0.01754719 -0.01771241 -0.01790872
 -0.01816334 -0.0184671 -0.01880333 -0.01916029 -0.01950057 -0.01982087 -0.0200963 -0.02033584 -0.02053831 -0.02071829
 -0.02088702 -0.02105399 -0.02122918 -0.02140982 -0.0215991 -0.02178375 -0.02196077 -0.02212165 -0.02226205 -0.02239715
 -0.02252655 -0.02268438 -0.02287262 -0.02310815 -0.02338892 -0.02369006 -0.02400709 -0.02429737 -0.02456429 -0.02479478
 -0.02500085 -0.02520617 -0.02541649 -0.02565607 -0.02591445 -0.02619105 -0.02646926 -0.02673489 -0.0269795 -0.02719381
 -0.02737795 -0.02752983 -0.02765162 -0.02774305 -0.02780826 -0.02784702 -0.02786863 -0.02787329 -0.02787651 -0.02787913
 -0.02790518 -0.02795609 -0.02805823 -0.02821034 -0.02842078 -0.02868145 -0.02896904 -0.02927211 -0.02955094 -0.02979971
 -0.02998943 -0.03012341 -0.03019266 -0.03020726 -0.03017006 -0.03009702 -0.02999541 -0.02988422 -0.02977175 -0.02967135
 -0.02958894 -0.02952609 -0.02948537 -0.02945566 -0.0294375 -0.02940407 -0.02935399 -0.02924633 -0.02907972 -0.02882439
 -0.02848519 -0.02807522 -0.02760535 -0.02712388 -0.02663628 -0.02618284 -0.02575726 -0.02536757 -0.02500471 -0.02466009
 -0.02433008 -0.02400975 -0.02369484 -0.02338387 -0.02306623 -0.02273756 -0.02239101 -0.02202213 -0.02163797 -0.02123774
 -0.02083731 -0.02043775 -0.02005594 -0.01969288 -0.01936722 -0.01907999 -0.0188496 -0.01867603 -0.01856962 -0.01852756
 -0.01854735 -0.01862059 -0.01872951 -0.01885679 -0.01896709 -0.01904223 -0.01904258 -0.01897101 -0.0188097 -0.01858951
 -0.01832176 -0.01803476 -0.01774709 -0.01745228 -0.01715569 -0.01682818 -0.016465 -0.01604968 -0.01557901 -0.01505664
 -0.01448254 -0.01386646 -0.01320922 -0.01252461 -0.01181391 -0.01109424 -0.01036312 -0.009623099 -0.008864508 -0.008063107
 -0.007214321 -0.006288457 -0.005314937 -0.004296116 -0.00332324 -0.002447805 -0.001818315 -0.001523929 -0.001693674 -0.002416957
 -0.003680907 -0.005531901 -0.00776072 -0.01035952 -0.01301549 -0.01569712 -0.01815885 -0.0203823 -0.02229217 -0.02389204
 -0.02524316 -0.02635503 -0.02732054 -0.0281416 -0.02887319 -0.02951491 -0.03008957 -0.03060521 -0.03108413 -0.03153801
 -0.03199264 -0.03244622 -0.03290949 -0.0333659 -0.03380867 -0.03422583 -0.03460919 -0.03496077 -0.0352801 -0.03556769
 -0.03582516 -0.03604065 -0.03621336 -0.03633032 -0.03639051 -0.03639223 -0.03633647 -0.0362386 -0.03610349 -0.03597005
 -0.03584607 -0.03578521 -0.03578733 -0.03588557 -0.03606066 -0.03629851 -0.03656881 -0.03682836 -0.0370574 -0.03722246
 -0.03732216 -0.03734586 -0.03729993 -0.03718607 -0.03700374 -0.03675651 -0.03642562 -0.03601114 -0.03547701 -0.03481723
 -0.03402527 -0.03309786 -0.03214933 -0.03119394 -0.03049494 -0.03007032 -0.03019053 -0.03082876 -0.03204733 -0.03375458
 -0.03575537 -0.0379488 -0.04005614 -0.04204505 -0.04374846 -0.04521621 -0.04642818 -0.04745983 -0.04835225 -0.04915065
 -0.04988573 -0.05056676 -0.05120284 -0.05178946 -0.05232703 -0.05281126 -0.05324114 -0.05361963 -0.05394657 -0.05423716
 -0.05449258 -0.05473481 -0.05496469 -0.05519912 -0.05543692 -0.05568349 -0.05593476 -0.05618372 -0.0564249 -0.05664404
 -0.05684084 -0.05700583 -0.05715051 -0.05727945 -0.05740934 -0.05755326 -0.0577151 -0.05790345 -0.05810106 -0.05830699
 -0.05849587 -0.058662 -0.05879487 -0.05889093 -0.05896494 -0.05901734 -0.05907392 -0.05913535 -0.05921294 -0.05930474
 -0.05940084 -0.05950059 -0.05959402 -0.05968621 -0.05978557 -0.05989726 -0.06003765 -0.06020123 -0.06039077 -0.06059078
 -0.06078912 -0.06097285 -0.06112942 -0.06125682 -0.06134989 -0.06141566 -0.06145331 -0.06147808 -0.06149086 -0.06151492
 -0.06155283 -0.06162332 -0.06172823 -0.06186436 -0.06203059 -0.06220245 -0.06237837 -0.06253465 -0.06267282 -0.06278604
 -0.06287807 -0.06295563 -0.06302132 -0.06308326 -0.06314207 -0.06320204 -0.0632621 -0.06332332 -0.06338258 -0.06343865
 -0.06348788 -0.0635277 -0.06355921 -0.06358077 -0.06360144 -0.06362187 -0.06365438 -0.06370075 -0.06376654 -0.06385252
 -0.06395246 -0.06406575 -0.06417936 -0.06429271 -0.06439493 -0.06448677 -0.06456516 -0.06463223 -0.06469213 -0.06474674
 -0.06480239 -0.06485754 -0.06491378 -0.06496626 -0.06501026 -0.06504519 -0.06506654 -0.06508516 -0.06510289 -0.06513527
 -0.06518827 -0.06526607 -0.06537227 -0.06549524 -0.06563465 -0.06577429 -0.06591296 -0.06604148 -0.06615969 -0.06626682
 -0.06636331 -0.06645185 -0.06653313 -0.06661145 -0.06668749 -0.06676575 -0.06684547 -0.06692827 -0.06701062 -0.06708852
 -0.06715924 -0.06721702 -0.06726658 -0.06730699 -0.0673504 -0.06740198 -0.06746945 -0.0675582 -0.06766134 -0.06777978
 -0.06789769 -0.06801318 -0.06811605 -0.06820522 -0.06828123 -0.06834421 -0.06839785 -0.06844209 -0.06847761 -0.06850474
 -0.06852449 -0.06853922 -0.06855569 -0.06857678 -0.06861207 -0.06866074 -0.0687269 -0.06880516 -0.06889202 -0.06898297
 -0.06907318 -0.06916361 -0.06925324 -0.06934483 -0.06943966 -0.06953635 -0.06963534 -0.06973188 -0.06982537 -0.06991316
 -0.06999487 -0.07007266 -0.07014672 -0.07022178 -0.07029798 -0.07037865 -0.07046308 -0.07054996 -0.07063805 -0.07072289
 -0.07080392 -0.0708776 -0.07094475 -0.07100471 -0.07105932 -0.07110965 -0.07115833 -0.07120744 -0.07125834 -0.07131281
 -0.07136844 -0.07142527 -0.07147902 -0.07152834 -0.07157382 -0.07161483 -0.07165786 -0.07170334 -0.07175545 -0.07181423
 -0.0718771 -0.07194369 -0.07200976 -0.0720754 -0.07213899 -0.07220027 -0.07225775 -0.07231065 -0.07235587 -0.07239506
 -0.07242778 -0.07245978 -0.07249618 -0.07254163 -0.07260237 -0.0726746 -0.07276004 -0.07284707 -0.07293269 -0.07300784
 -0.07306918 -0.07311848 -0.07315493 -0.07318734 -0.07321633 -0.07324792 -0.07328227 -0.07332002 -0.07336108 -0.07340503
 -0.07345204 -0.07350274 -0.07355696 -0.07361469 -0.07367524 -0.07373729 -0.07380009 -0.0738624 -0.07392287 -0.07398018
 -0.07403226 -0.07407692 -0.07411441 -0.07414329 -0.07416841 -0.07419058 -0.07421546 -0.07424499 -0.07427844 -0.07431637
 -0.07435304 -0.07438792 -0.07441933 -0.07444734 -0.07447726 -0.07450927 -0.07454769 -0.07459155 -0.0746384 -0.07468751
 -0.07473497 -0.07478166 -0.07482774 -0.07487351 -0.07492029 -0.07496571 -0.07500795 -0.07504505 -0.07507424 -0.07509787
 -0.07511564 -0.07513249 -0.07515021 -0.07517064 -0.07519496 -0.07522058 -0.07524738 -0.07527241 -0.07529531 -0.07531664
 -0.07533646 -0.07535751 -0.07537972 -0.07540381 -0.07542917 -0.07545304 -0.07547528 -0.07549347 -0.07550919 -0.0755243
 -0.07554061 -0.07556225 -0.07558796 -0.07561892 -0.07565072 -0.07568062 -0.07570606 -0.07572414 -0.07573805 -0.07574754
 -0.07575869 -0.07577289 -0.07579319 -0.07582059 -0.07585286 -0.07589004 -0.07592727 -0.0759643 -0.07599667 -0.07602457
 -0.07604742 -0.07606624 -0.0760857 -0.07610653 -0.07613429 -0.07616692 -0.0762036 -0.07624026 -0.07626995 -0.07629225
 -0.07630228 -0.07630681 -0.07630807 -0.07631456 -0.07633166 -0.07636108 -0.07640572 -0.07645931 -0.07652155 -0.07658408
 -0.07664572 -0.0767011 -0.07674964 -0.07678927 -0.07681996 -0.07684264 -0.07685778 -0.07686955 -0.07687882 -0.07689217
 -0.07690962 -0.07693549 -0.07696769 -0.07700426 -0.07704244 -0.07707686 -0.07710723 -0.07713053 -0.07714959 -0.0771653
 -0.07718056 -0.07719737 -0.07721595 -0.07723723 -0.07725869 -0.07728012 -0.07729834 -0.07731263 -0.07732307 -0.07732937
 -0.07733696 -0.07734612 -0.07736258 -0.07738589 -0.07741389 -0.07744516 -0.07747096 -0.07749141 -0.07750119 -0.0775039
 -0.07750418 -0.07750601 -0.07751821 -0.07754017 -0.07757598 -0.07761951 -0.07766821 -0.07771552 -0.07775695 -0.07779137
 -0.07781661 -0.07783718 -0.07785347 -0.0778705 -0.07788923 -0.07791092 -0.07793591 -0.0779616 -0.07798783 -0.07801017
 -0.07802845 -0.07803898 -0.07804222 -0.07803809 -0.07802802 -0.07801629 -0.07800446 -0.07799824 -0.0779978 -0.07800654
 -0.07802214 -0.07804412 -0.07806848 -0.07809227 -0.07811262 -0.07812683 -0.07813568 -0.07813849 -0.07813811 -0.07813512
 -0.07813144 -0.07812743 -0.07812438 -0.07812238 -0.0781236 -0.07812814 -0.07813802 -0.07815313 -0.07817312 -0.07819758
 -0.07822458 -0.07825336 -0.07828078 -0.07830571 -0.07832385 -0.07833543 -0.078338 -0.07833479 -0.07832803 -0.07832119
 -0.07831868 -0.07831819 -0.07832097 -0.07831946 -0.07831087 -0.07829221 -0.07826079 -0.07822479 -0.07818428 -0.07815248
 -0.07813071 -0.07812456 -0.07813423 -0.07815363 -0.07818216 -0.07821072 -0.0782401 -0.07826914 -0.07830035 -0.078341
 -0.07839359 -0.07846731 -0.07856276 -0.07868537 -0.07883316 -0.07900658 -0.07920212 -0.07941663 -0.07965016 -0.07989982
 -0.0801746 -0.08047649 -0.08081459 -0.08119369 -0.08160518 -0.08205067 -0.08250274 -0.08295882 -0.08340433 -0.08383863
 -0.08427455 -0.08471091 -0.08514534 -0.08556544 -0.0859051 -0.08614857 -0.08620195 -0.08607382 -0.08572342 -0.08520053
 -0.08455467 -0.08385157 -0.0831825 -0.0825798 -0.08209903 -0.0817383 -0.08151203 -0.08140575 -0.08142218 -0.08152813
 -0.08172494 -0.08193877 -0.08216161 -0.08231691 -0.08239351 -0.08240456 -0.08235077 -0.08230054 -0.08225404 -0.08223428
 -0.08223519 -0.08223476 -0.08222933 -0.08219384 -0.08213124 -0.08203421 -0.08191124 -0.08177267 -0.08162396 -0.0814777
 -0.08132752 -0.08117337 -0.08100659 -0.08081915 -0.08061969 -0.08040639 -0.08020145 -0.08001028 -0.07984506 -0.07971016
 -0.07959668 -0.07950497 -0.07941509 -0.07932602 -0.07922414 -0.07911021 -0.07898883 -0.07886235 -0.07874697 -0.07864267
 -0.07855912 -0.07849245 -0.07843887 -0.07839445 -0.07835072 -0.07830716 -0.07825992 -0.07820978 -0.07815652 -0.07809983
 -0.0780394 -0.07797549 -0.07790749 -0.07783858 -0.07776901 -0.07770342 -0.07764247 -0.07758982 -0.07754591 -0.07751211
 -0.07748848 -0.07747331 -0.07746629 -0.07746319 -0.07746365 -0.07746313 -0.07746185 -0.07745787 -0.07745228 -0.07744662
 -0.07744183 -0.07744054 -0.07744186 -0.07744639 -0.0774511 -0.07745391 -0.07745261 -0.07744507 -0.07743192 -0.07741262
 -0.07738923 -0.07736208 -0.07733299 -0.07730217 -0.07727166 -0.07724176 -0.07721236 -0.07718347 -0.07715121 -0.0771155
 -0.07707386 -0.07702732 -0.07698048 -0.07693446 -0.07689637 -0.07686501 -0.07684129 -0.07682303 -0.07680649 -0.07679178
 -0.07677713 -0.07676454 -0.07675564 -0.07674969 -0.07674761 -0.07674524 -0.07674134 -0.07673265 -0.07671779 -0.07669704
 -0.07666991 -0.07663983 -0.07660691 -0.07657644 -0.07654873 -0.07652777 -0.07651336 -0.07650401 -0.07649878 -0.07649089
 -0.07648027 -0.07646226 -0.07643919 -0.07641397 -0.0763892 -0.07637138 -0.07635922 -0.07635476 -0.07635318 -0.07635114
 -0.07634587 -0.0763341 -0.07631826 -0.07629818 -0.07627779 -0.07625835 -0.07624056 -0.07622489 -0.07620966 -0.07619473
 -0.07617918 -0.07616297 -0.0761471 -0.07613165 -0.07611775 -0.07610534 -0.07609449 -0.0760851 -0.07607691 -0.07606966
 -0.07606281 -0.07605565 -0.07604691 -0.07603595 -0.07602092 -0.07600351 -0.07598369 -0.07596555 -0.07595166 -0.07594339
 -0.07594313 -0.07594524 -0.07594938 -0.07594733 -0.07593713 -0.07591801 -0.07588915 -0.07585889 -0.07582768 -0.07580355
 -0.07578639 -0.07577627 -0.07577252 -0.07577056 -0.07577091 -0.07577285 -0.07577754 -0.07578816 -0.07580361 -0.07582439
 -0.07584674 -0.07586604 -0.07588085 -0.07588743 -0.07588912 -0.07588678 -0.07588316 -0.07588062 -0.07587548 -0.07586769
 -0.07585151 -0.07582545 -0.07579014 -0.075745 -0.07569788 -0.07564919 -0.07560764 -0.07557346 -0.07555143 -0.0755411
 -0.07554257 -0.07555476 -0.07557422 -0.07559926 -0.07562434 -0.07564776 -0.07566394 -0.07567282 -0.07567161 -0.07566255
 -0.07564615 -0.07562566 -0.07560288 -0.07558034 -0.07555921 -0.07554153 -0.07552806 -0.07551999 -0.07551809 -0.07551974
 -0.07552508 -0.07552746 -0.07552648 -0.0755183 -0.07550319 -0.07548498 -0.07546435 -0.07544797 -0.07543538 -0.07542855
 -0.07542609 -0.0754254 -0.07542586 -0.07542507 -0.07542333 -0.07542006 -0.07541554 -0.07540994 -0.07540321 -0.07539527
 -0.07538644 -0.07537694 -0.07536654 -0.07535533 -0.07534235 -0.07532728 -0.07531069 -0.07529238 -0.07527566 -0.07526072
 -0.07525127 -0.07524729 -0.07524859 -0.07525458 -0.07526115 -0.07526785 -0.07527047 -0.07526958 -0.07526421 -0.07525565
 -0.07524586 -0.0752353 -0.07522577 -0.07521608 -0.07520601 -0.0751939 -0.07517817 -0.07515987 -0.07513826 -0.07511795
 -0.07510017 -0.07508732 -0.07508066 -0.07507642 -0.07507441 -0.07507019 -0.07506339 -0.07505614 -0.07504877 -0.07504695
 -0.0750502 -0.07505857 -0.07507033 -0.07507858 -0.07508262 -0.07507654 -0.07506234 -0.07504041 -0.07501395 -0.07498716
 -0.07496186 -0.07494128 -0.07492508 -0.07491401 -0.07490715 -0.0749042 -0.07490506 -0.07490992 -0.07491751 -0.07492813
 -0.07493728 -0.07494469 -0.074945 -0.0749378 -0.07492156 -0.07489658 -0.07486777 -0.07483596 -0.0748095 -0.07478826
 -0.07477709 -0.07477353 -0.0747741 -0.0747758 -0.07477079 -0.07475986 -0.07473969 -0.07471532 -0.07468986 -0.0746674
 -0.07465191 -0.07464288 -0.07464152 -0.07464452 -0.07465165 -0.07465833 -0.07466413 -0.07466297 -0.07465407 -0.07463412
 -0.07460275 -0.07456503 -0.07452144 -0.07448121 -0.07444428 -0.07441503 -0.07439224 -0.0743733 -0.07435718 -0.0743396
 -0.07432097 -0.07429978 -0.07427754 -0.07425545 -0.07423497 -0.07421795 -0.07420445 -0.07419531 -0.07418908 -0.0741858
 -0.07418257 -0.07417894 -0.07417123 -0.07415881 -0.07413852 -0.07410979 -0.07407228 -0.07402586 -0.07397369 -0.07391607
 -0.07385858 -0.07380159 -0.07375086 -0.07370587 -0.07366838 -0.07363615 -0.07360428 -0.07357088 -0.07352905 -0.07348143
 -0.07342722 -0.07337315 -0.07332489 -0.07328663 -0.0732641 -0.07325309 -0.0732548 -0.0732584 -0.07326148 -0.07325462
 -0.07323505 -0.07320219 -0.07315505 -0.07310139 -0.07304158 -0.07298484 -0.07293147 -0.07288674 -0.07285035 -0.072823
 -0.07280373 -0.07278935 -0.07277855 -0.072766 -0.0727516 -0.07273208 -0.07270975 -0.0726864 -0.07266343 -0.07264389
 -0.07262445 -0.07260501 -0.07257888 -0.07254287 -0.07249438 -0.07243077 -0.07235792 -0.07227544 -0.07219555 -0.07211941
 -0.07205813 -0.07201274 -0.07198349 -0.07196983 -0.07196002 -0.07195332 -0.07193805 -0.07191551 -0.07188461 -0.07184765
 -0.07181057 -0.07177418 -0.07174314 -0.07171605 -0.07169355 -0.07167245 -0.07165043 -0.07162436 -0.07159109 -0.07155122
 -0.07150352 -0.07145212 -0.07139789 -0.07134414 -0.07129185 -0.07124122 -0.07119251 -0.0711444 -0.07109687 -0.07104734
 -0.07099576 -0.07094031 -0.07088136 -0.07082064 -0.0707587 -0.07069914 -0.07064148 -0.07058614 -0.07053272 -0.07048008
 -0.07042965 -0.07038307 -0.07034072 -0.07030475 -0.07027089 -0.07023719 -0.07020012 -0.07015637 -0.07010982 -0.07006067
 -0.07001383 -0.06997131 -0.06992906 -0.06988741 -0.06983605 -0.06977417 -0.06969798 -0.06960784 -0.06951345 -0.06941622
 -0.06933211 -0.06926099 -0.06921228 -0.06918217 -0.06916632 -0.06915836 -0.06914368 -0.06911995 -0.06907587 -0.06901832
 -0.06894895 -0.06887616 -0.06880707 -0.06874166 -0.06868276 -0.06862396 -0.06856371 -0.06849837 -0.0684261 -0.06835121
 -0.06827372 -0.06820019 -0.06813117 -0.06806902 -0.06801371 -0.06796375 -0.06791852 -0.06787314 -0.06782599 -0.06776697
 -0.0676961 -0.06760601 -0.06750276 -0.06739383 -0.06728613 -0.06719381 -0.06711508 -0.0670546 -0.06700492 -0.06696246
 -0.06692247 -0.06688173 -0.06683931 -0.06679486 -0.0667456 -0.06669144 -0.06662706 -0.06655163 -0.06646319 -0.06636132
 -0.0662506 -0.06613138 -0.06601129 -0.06589059 -0.06577492 -0.06566394 -0.06555918 -0.06546023 -0.06536667 -0.06527844
 -0.06519584 -0.06511712 -0.0650411 -0.06496344 -0.06487922 -0.0647871 -0.06468279 -0.06457341 -0.06446029 -0.06435237
 -0.06425356 -0.06416464 -0.06408745 -0.06401405 -0.06394382 -0.06386904 -0.06378891 -0.06370395 -0.06361429 -0.06352518
 -0.06343583 -0.0633424 -0.0632423 -0.06312018 -0.06297754 -0.06280828 -0.06262083 -0.06242917 -0.06223888 -0.06206525
 -0.06190499 -0.06176142 -0.06162728 -0.0614986 -0.06137089 -0.06124043 -0.06110832 -0.0609737 -0.06084048 -0.06070973
 -0.06058196 -0.06045849 -0.06032762 -0.06018883 -0.06002543 -0.0598372 -0.05962827 -0.05940064 -0.05917458 -0.05894931
 -0.0587327 -0.0585208 -0.05830596 -0.0580855 -0.05784928 -0.05759955 -0.05733358 -0.05705873 -0.05678046 -0.05650608
 -0.05624394 -0.055991 -0.05575148 -0.05550677 -0.05525238 -0.05497299 -0.05466161 -0.05433057 -0.05397972 -0.05362895
 -0.0532803 -0.05293164 -0.05258276 -0.0522254 -0.05186079 -0.05149667 -0.05113451 -0.05078725 -0.05045106 -0.05012287
 -0.04979498 -0.04944919 -0.04908383 -0.04868617 -0.04826533 -0.04782539 -0.04737459 -0.04692016 -0.04646483 -0.04601069
 -0.04556208 -0.04512058 -0.04469021 -0.04427507 -0.04385865 -0.04344322 -0.04297613 -0.0424534 -0.04183521 -0.04112202
 -0.04037106 -0.0395878 -0.03885084 -0.03815117 -0.03748698 -0.03684648 -0.03619162 -0.0355213 -0.03481504 -0.03407627
 -0.03330557 -0.03249383 -0.03163958 -0.03071242 -0.02969278 -0.02855568 -0.02727178 -0.0258821 -0.02438122 -0.02286501
 -0.02135397 -0.01990306 -0.0185254 -0.01721872 -0.01598493 -0.01479669 -0.0136517 -0.01249093 -0.01130734 -0.01000323
 -0.008587263 -0.007031974 -0.005386506 -0.003797204 -0.002275148 -0.0009309091 0.0002912664 0.001427383 0.002517193 0.003621151
 0.004734732 0.005875032 0.007023016 0.008172176 0.009315478 0.01045373 0.01156206 0.01263809 0.01364589 0.01457695
 0.01544106 0.01623727 0.01700177 0.01773549 0.01843392 0.01909395 0.01968099 0.02019792 0.02063851 0.02101318
 0.02135125 0.02165888 0.02196725 0.02226612 0.02255351 0.02282043 0.02305228 0.02325921 0.02344427 0.02361461
 0.02377839 0.02392307 0.02404791 0.02413476 0.02417866 0.02417373 0.02411711 0.02401952 0.02388076 0.02372737
 0.02356062 0.02340114 0.02324761 0.02309438 0.02293977 0.02277106 0.02259095 0.02239901 0.02220366 0.0220211
 0.02186083 0.02174522 0.02167478 0.02165723 0.02169352 0.02178118 0.02193942 0.02217645 0.02250715 0.02294555
 0.02346252 0.02405649 0.02468839 0.02534935 0.02604514 0.02677452 0.02756598 0.02842064 0.0293487 0.03034881
 0.031411 0.03253373 0.03370477 0.03492289 0.03617743 0.03746899 0.03879167 0.04015174 0.04155542 0.04300905
 0.04452311 0.04609561 0.04772935 0.04941802 0.05115858 0.05294927 0.05478736 0.0566799 0.05862815 0.06063759
 0.06271249 0.06482715 0.06698202 0.0691142 0.07122032 0.07323933 0.0751676 0.07695221 0.07858183 0.07996863
 0.08110608 0.08191477 0.0824238 0.08265167 0.08264034 0.08245929 0.08213841 0.08173034 0.08126093 0.08076838
 0.08025045 0.07973441 0.07913732 0.07845948 0.07752974 0.07629795 0.07471613 0.07273342 0.07068624 0.06860035
 0.06670367 0.06500451 0.06337936 0.06182221 0.06022491 0.05860055 0.05696559 0.05532966 0.05374606 0.05218446
 0.05062946 0.04898785 0.0471105 0.04493782 0.04228267 0.03934461 0.03619361 0.03304655 0.03007925 0.02721221
 0.0244546 0.02172101 0.01897043 0.0162911 0.01368512 0.01127424 0.009074283 0.007074168 0.005272831 0.003569013
 0.001960201 0.0003823944 -0.001155288 -0.002637433 -0.004054573 -0.00536372 -0.006570743 -0.007664038 -0.008661437 -0.009583298
 -0.01044819 -0.01128017 -0.01210009 -0.0129246 -0.01378603 -0.01470721 -0.01569854 -0.01679249 -0.01787536 -0.01893641
 -0.01982833 -0.02051125 -0.02104158 -0.02141645 -0.02176713 -0.02209979 -0.02246469 -0.02285754 -0.02324508 -0.0236226
 -0.02394431 -0.02421755 -0.02444519 -0.02463073 -0.02478972 -0.02490602 -0.02496213 -0.02494256 -0.0248172 -0.02459959
 -0.02428688 -0.02390433 -0.02346534 -0.0229815 -0.02246078 -0.02190299 -0.02131153 -0.02067255 -0.01998716 -0.01921992
 -0.01836683 -0.01741299 -0.01635823 -0.01528784 -0.01420957 -0.0132451 -0.01238999 -0.01168176 -0.0111105 -0.01066221
 -0.01033236 -0.01010831 -0.009978371 -0.009926506 -0.009922681 -0.009936994 -0.009921923 -0.009831849 -0.009641013 -0.009307985
 -0.00888955 -0.008392657 -0.007882667 -0.007383193 -0.00689208 -0.006414467 -0.005922259 -0.005412765 -0.004875111 -0.00430872
 -0.003725941 -0.003127283 -0.002524396 -0.001913819 -0.001283871 -0.0006271441 8.942632E-05 0.0008669078 0.001729914 0.002661064
 0.003643866 0.004663342 0.00568912 0.006737392 0.007807926 0.008925719 0.01010843 0.01135349 0.01266777 0.01402679
 0.01542374 0.01685356 0.01831165 0.01982324 0.02139173 0.02301685 0.02469844 0.02634657 0.02795396 0.02940168
 0.03069252 0.03178294 0.03267929 0.03338647 0.03389449 0.03418671 0.03424254 0.03401851 0.03351082 0.03268952
 0.03158582 0.03020598 0.02860291 0.02680435 0.02485015 0.02276001 0.02055565 0.01823719 0.01586289 0.01343215
 0.01106604 0.008776052 0.00664612 0.00468122 0.002852734 0.001156112 -0.000478029 -0.002046611 -0.003568377 -0.005032262
 -0.006405654 -0.00768895 -0.008862163 -0.009942115 -0.01094613 -0.01189078 -0.01280247 -0.01368708 -0.0145587 -0.0154143
 -0.01625741 -0.01707818 -0.01787487 -0.01863519 -0.01935497 -0.02003114 -0.0206609 -0.02125767 -0.02182207 -0.02237114
 -0.02290587 -0.02342405 -0.02392393 -0.02438096 -0.02479389 -0.02514174 -0.02542743 -0.02565077 -0.02581386 -0.02592221
 -0.02597483 -0.02597123 -0.02591391 -0.02580212 -0.02564851 -0.02545897 -0.02525518 -0.02504805 -0.02485963 -0.02470028
 -0.02458273 -0.02451259 -0.02449227 -0.02452323 -0.02460336 -0.02473276 -0.02490743 -0.02512716 -0.02538418 -0.02567784
 -0.02599868 -0.02634523 -0.02670546 -0.02707521 -0.02743441 -0.02777698 -0.02807756 -0.02833515 -0.0285342 -0.02868342
 -0.02878509 -0.02885234 -0.02889635 -0.02892564 -0.02894901 -0.02896559 -0.02897798 -0.02897927 -0.02896776 -0.02894072
 -0.0288962 -0.02884285 -0.0287807 -0.02872555 -0.02867832 -0.02865112 -0.02864392 -0.02865889 -0.02869468 -0.0287445
 -0.02880668 -0.02887089 -0.02893775 -0.02900265 -0.02906943 -0.02914293 -0.0292249 -0.02932126 -0.02942633 -0.02953874
 -0.02964954 -0.02975267 -0.02984545 -0.0299242 -0.02999434 -0.03005615 -0.03011651 -0.03017702 -0.03023913 -0.03030368
 -0.03036361 -0.0304186 -0.0304576 -0.03048048 -0.03048247 -0.0304651 -0.03043519 -0.0303949 -0.03035637 -0.03031945
 -0.03029115 -0.03026717 -0.03024477 -0.03021645 -0.03017245 -0.03010736 -0.03001177 -0.02988953 -0.02973799 -0.02956992
 -0.02938915 -0.02920658 -0.02902642 -0.02885067 -0.0286805 -0.02851402 -0.02835088 -0.02819338 -0.02804159 -0.02790199
 -0.02777478 -0.02766432 -0.0275701 -0.02749119 -0.02742651 -0.02737159 -0.02732575 -0.02728476 -0.02724916 -0.02721749
 -0.02719176 -0.02717333 -0.02716523 -0.02717043 -0.02719083 -0.02722886 -0.02728311 -0.02735435 -0.02743781 -0.02753286
 -0.02763368 -0.02773931 -0.0278453 -0.02795092 -0.02805565 -0.02815935 -0.02826719 -0.02837944 -0.02850175 -0.02863321
 -0.02877118 -0.02891361 -0.02905079 -0.02918229 -0.02930147 -0.02941051 -0.02951005 -0.02960259 -0.02969159 -0.02977806
 -0.02986432 -0.02994948 -0.03003443 -0.03011526 -0.03019122 -0.03025696 -0.03031075 -0.03035019 -0.03037417 -0.030385
 -0.03038253 -0.03037203 -0.0303538 -0.03033401 -0.03031286 -0.03029413 -0.03027711 -0.0302591 -0.0302387 -0.03020861
 -0.03016899 -0.0301159 -0.03005182 -0.02997937 -0.02990041 -0.02981962 -0.02973384 -0.02964412 -0.0295406 -0.02941929
 -0.02926811 -0.02908074 -0.02885283 -0.02858052 -0.02827081 -0.02792379 -0.02754916 -0.02714808 -0.02672561 -0.02628212
 -0.02582044 -0.0253408 -0.02484733 -0.02434015 -0.02382241 -0.02329352 -0.02275328 -0.02220009 -0.02162993 -0.02104131
 -0.02042822 -0.01979436 -0.01913891 -0.01847443 -0.01781002 -0.01715871 -0.01653255 -0.01593131 -0.01535939 -0.01480653
 -0.01427046 -0.01374531 -0.01322901 -0.01272365 -0.01222924 -0.01174782 -0.01127959 -0.01082085 -0.01037093 -0.009918251
 -0.009461276 -0.00898308 -0.008483692 -0.00795309 -0.007394691 -0.006812435 -0.006209005 -0.005592336 -0.004959966 -0.004312252
 -0.003645813 -0.002956069 -0.002246754 -0.001515974 -0.0007774493 -3.301358E-05 0.0006937296 0.001398223 0.00205313 0.002652757
 0.003180453 0.003632314 0.004015511 0.004329817 0.004603456 0.004838211 0.005067477 0.005291346 0.005527938 0.005773116
 0.006020153 0.006264565 0.006489398 0.006696818 0.006881909 0.007050763 0.007209915 0.007361415 0.007508563 0.007654247
 0.007798453 0.007952622 0.008120462 0.008313762 0.008537195 0.008793609 0.009083852 0.009411158 0.009775482 0.01018519
 0.01064092 0.01114544 0.01169832 0.01229104 0.012922 0.01357675 0.01425235 0.01493058 0.01560637 0.01625839
 0.01687985 0.01745029 0.01796098 0.01839369 0.01874034 0.01898576 0.01913267 0.01917431 0.01913017 0.01900314
 0.01882283 0.01859578 0.01835302 0.01810035 0.01786325 0.01764587 0.01745712 0.01729812 0.01716246 0.01705018
 0.01696176 0.01689913 0.01687868 0.01689943 0.01696893 0.0170789 0.01721113 0.0173582 0.01749541 0.01762622
 0.01774358 0.01785699 0.01797446 0.01809663 0.01823067 0.01835901 0.01847957 0.01856378 0.01860287 0.01857959
 0.01848688 0.01833306 0.01811679 0.01786306 0.01757332 0.01727087 0.01695646 0.01664223 0.01632708 0.01600895
 0.01568549 0.01534444 0.01498698 0.01460826 0.01421476 0.01381748 0.01341839 0.01302807 0.01263567 0.01223671
 0.01181706 0.01136642 0.0108774 0.01034529 0.009763517 0.009130457 0.008436369 0.007678521 0.006854915 0.005963787
 0.005017826 0.004017451 0.002983605 0.001917431 0.0008395565 -0.0002491645 -0.001333222 -0.002411488 -0.00347198 -0.004511538
 -0.005515529 -0.006481083 -0.007393908 -0.00825849 -0.009073188 -0.009847722 -0.01059164 -0.01130756 -0.01200098 -0.01266796
 -0.01330609 -0.01392033 -0.01450977 -0.0150884 -0.0156593 -0.01622834 -0.01679748 -0.01735999 -0.01791572 -0.0184547
 -0.01897636 -0.01946945 -0.01993339 -0.02035763 -0.02074336 -0.02108929 -0.02139856 -0.02167986 -0.02193401 -0.02216743
 -0.02237763 -0.02256339 -0.02272405 -0.02285684 -0.02296736 -0.02305683 -0.02313498 -0.0232066 -0.02327672 -0.02334938
 -0.02341847 -0.02348393 -0.02353692 -0.0235756 -0.02360244 -0.02361737 -0.02362755 -0.02363291 -0.02362813 -0.02361256
 -0.02357673 -0.02352379 -0.02346222 -0.02339664 -0.02334696 -0.02331006 -0.02329149 -0.02328103 -0.02326714 -0.02324244
 -0.02319522 -0.02312445 -0.02302539 -0.02290152 -0.02275157 -0.02258554 -0.02240447 -0.02222408 -0.02204785 -0.02188503
 -0.02173849 -0.02159992 -0.02146935 -0.02132751 -0.02117385 -0.02100099 -0.02081191 -0.02062721 -0.02045191 -0.02032151
 -0.02023466 -0.02020924 -0.0202334 -0.02029395 -0.02037693 -0.02045657 -0.02052826 -0.02057665 -0.02060767 -0.02062052
 -0.02062195 -0.02061708 -0.02060086 -0.02057542 -0.02052261 -0.02043886 -0.02031279 -0.02014039 -0.01993744 -0.01970417
 -0.01947201 -0.01924204 -0.01902833 -0.01882882 -0.01863105 -0.01843401 -0.01822425 -0.01800764 -0.01779319 -0.01758934
 -0.01742019 -0.01728245 -0.01718729 -0.01711285 -0.01704427 -0.01695849 -0.01683143 -0.01666665 -0.01645494 -0.01622396
 -0.01598046 -0.01574397 -0.01552136 -0.0153112 -0.01511418 -0.01492681 -0.01474869 -0.0145833 -0.01443056 -0.01428667
 -0.01415046 -0.0140091 -0.01386342 -0.0137095 -0.01355121 -0.01339876 -0.01325315 -0.01312317 -0.01300308 -0.01288916
 -0.01277478 -0.01265111 -0.01251758 -0.0123704 -0.01221323 -0.01204689 -0.01187395 -0.01169502 -0.0115133 -0.0113288
 -0.01114837 -0.01097294 -0.01080692 -0.01065106 -0.01049994 -0.01035319 -0.01020102 -0.01004324 -0.009874093 -0.009694034
 -0.009501694 -0.009298567 -0.009087321 -0.008871601 -0.008660056 -0.008455187 -0.008265911 -0.008087936 -0.007921602 -0.007758549
 -0.007592361 -0.007420663 -0.007238688 -0.007054761 -0.006869733 -0.006694276 -0.00653208 -0.006381633 -0.006244668 -0.00610423
 -0.00595912 -0.005796319 -0.005615648 -0.005425986 -0.005228413 -0.005038147 -0.004852695 -0.004667479 -0.004480152 -0.004277816
 -0.004067691 -0.003857533 -0.003656499 -0.003485115 -0.003336477 -0.003214648 -0.003101019 -0.002982635 -0.002852012 -0.002699405
 -0.002534966 -0.00235948 -0.002184002 -0.002012188 -0.001843384 -0.001678603 -0.001509805 -0.001336278 -0.00115499 -0.0009660396
 -0.0007784364 -0.0005932325 -0.00042471 -0.0002721955 -0.0001415248 -2.799702E-05 7.80145E-05 0.0001844518 0.0003124965 0.0004668688
 0.0006673851 0.0009034958 0.001176933 0.001461538 0.001740088 0.001993933 0.002206257 0.00238336 0.002522353 0.002638214
 0.002734467 0.002816056 0.002883731 0.002942679 0.002992824 0.003049773 0.003114273 0.003198539 0.003301888 0.003422586
 0.003558848 0.00370131 0.003848236 0.0039891 0.004123826 0.004245734 0.004359348 0.004467797 0.004576716 0.004694021
 0.004819762 0.004956932 0.005102497 0.005256175 0.005413873 0.005575664 0.005731629 0.00587968 0.006012328 0.006126548
 0.006234178 0.006335538 0.00644917 0.006575704 0.00671337 0.006861097 0.007005916 0.007149494 0.007293197 0.007440506
 0.007603485 0.007783458 0.007989258 0.008220192 0.00848094 0.008764664 0.00906865 0.009379264 0.009684969 0.009980937
 0.01026026 0.01052893 0.01079038 0.01103598 0.01126704 0.01145943 0.01160811 0.01171247 0.01177048 0.01181475
 0.01184694 0.01189879 0.01197013 0.01207115 0.01219933 0.01234797 0.01251364 0.01268152 0.01285071 0.01301146
 0.01316591 0.01331568 0.01345515 0.01358161 0.0136826 0.01374385 0.01377334 0.01376436 0.01375323 0.01375084
 0.01378198 0.01385827 0.01396671 0.01410832 0.01425838 0.01441452 0.01456671 0.01471444 0.01485824 0.01499798
 0.01513348 0.01526251 0.01537314 0.01546339 0.01551525 0.01554018 0.01554991 0.01556651 0.01563475 0.01575062
 0.0159341 0.01615287 0.01638357 0.01662382 0.01685617 0.01712584 0.01745232 0.01783175 0.01827922 0.01870616
 0.01909669 0.01943298 0.01970921 0.01997445 0.02023074 0.02049625 0.0207685 0.02102591 0.02126536 0.02145985
 0.02160777 0.02168889 0.02170513 0.02164605 0.02152666 0.0213629 0.02117366 0.02098847 0.0208074 0.02064217
 0.02048004 0.02031589 0.02014638 0.01996677 0.01978773 0.01960883 0.0194508 0.01931645 0.01922269 0.01917273
 0.01915214 0.01916005 0.01915883 0.01914845 0.01911522 0.01906381 0.01901395 0.01896716 0.01893961 0.01892806
 0.01893273 0.01895136 0.01898451 0.01901939 0.01904682 0.01904369 0.01898293 0.01887517 0.01871094 0.0185338
 0.0183606 0.01820367 0.01807243 0.01794786 0.01782664 0.01770895 0.01759378 0.01749457 0.01741203 0.01735933
 0.01733898 0.01738651 0.01750134 0.01770622 0.01798381 0.01828777 0.0186024 0.01886174 0.01907954 0.01924655
 0.0193844 0.01951835 0.01964717 0.01977962 0.01990517 0.02001871 0.02011986 0.02020721 0.02028232 0.02034497
 0.02039821 0.02044145 0.020486 0.02053304 0.02058719 0.0206487 0.02071168 0.02077617 0.02084252 0.02090962
 0.02097291 0.02102792 0.02105292 0.02105353 0.02102731 0.02099269 0.02098266 0.02099635 0.02105241 0.02112367
 0.02119125 0.02124917 0.02128345 0.02131739 0.02136032 0.02141128 0.02147726 0.02152184 0.0215409 0.02150385
 0.02140657 0.02124275 0.02101194 0.02073752 0.02042373 0.02013036 0.01986106 0.01967246 0.01955494 0.01950788
 0.01951428 0.01953269 0.01955712 0.019558 0.01954046 0.01949788 0.01944019 0.01937185 0.01930405 0.01924751
 0.01919439 0.01915005 0.01907947 0.01897466 0.01881346 0.01858737 0.01831655 0.01800049 0.01768032 0.01735829
 0.01707106 0.01681916 0.01662189 0.01647309 0.01634965 0.01623953 0.01608278 0.01588388 0.01561322 0.01530617
 0.01500498 0.01474268 0.01458136 0.01451161 0.01455631 0.01466551 0.01482626 0.01497228 0.01507651 0.01509779
 0.01501234 0.01485057 0.01460726 0.0143655 0.0141334 0.01395955 0.01384709</values></Ydata></AB><ScSm><Ydata ylabel="Single channel"><values byteorder="INTEL" format="FLOAT32" numvalues="1814"> 0.07149786 0.07150322 0.07157369 0.07173091 0.07194689 0.07216083 0.07232025 0.07241202 0.07244831 0.072432
 0.07236901 0.07231526 0.07236312 0.07255207 0.07281125 0.07300746 0.07305247 0.07298118 0.07293074 0.07300742
 0.07314707 0.07313447 0.07280567 0.07223502 0.07168709 0.07137135 0.07131085 0.07149772 0.07202347 0.07282851
 0.07342321 0.07323958 0.07234465 0.07147043 0.0712007 0.07141218 0.07161827 0.0715325 0.07115614 0.07066661
 0.07046677 0.07107624 0.07261939 0.07440379 0.07516901 0.07388141 0.070473 0.06607726 0.06261147 0.06174807
 0.06373471 0.06705616 0.06956941 0.07021357 0.06952114 0.06853367 0.06768329 0.06692229 0.06644442 0.06672734
 0.06786606 0.06912544 0.06932244 0.06783925 0.06536046 0.06338742 0.06287146 0.06361932 0.06509631 0.06700473
 0.06846586 0.06756012 0.06321917 0.05761109 0.05516764 0.05836884 0.06509561 0.07070491 0.07215904 0.06971864
 0.06558677 0.06208811 0.06079873 0.06211834 0.06519409 0.06862967 0.07133307 0.07256712 0.07176281 0.06901583
 0.06557013 0.06321278 0.06317676 0.06566142 0.06979267 0.0736997 0.07536291 0.07410484 0.07104 0.0678966
 0.06588181 0.06568319 0.06762883 0.071344 0.07573655 0.0796347 0.08226581 0.08332784 0.08304723 0.08203435
 0.08081897 0.07977004 0.07942817 0.08016965 0.0813299 0.08145547 0.0798876 0.07763816 0.07634496 0.07657722
 0.07738174 0.07744446 0.07642146 0.07472868 0.07224418 0.06828146 0.06316853 0.05866887 0.05621797 0.05582946
 0.05714756 0.06000824 0.06320217 0.06440321 0.06271991 0.06031761 0.06026654 0.06326378 0.06728096 0.07004066
 0.0711219 0.07178779 0.07335768 0.07585751 0.07785863 0.07755519 0.07455871 0.07090177 0.06960002 0.07169089
 0.07523625 0.07770208 0.07862478 0.07932109 0.08058837 0.08147243 0.08026473 0.07653409 0.07221917 0.07043317
 0.07275146 0.07763132 0.08153071 0.08152971 0.0772952 0.07115268 0.06627257 0.06447764 0.06575748 0.06947544
 0.07506722 0.08140443 0.08651233 0.08868203 0.08771728 0.08482283 0.08123133 0.07706863 0.07201695 0.06721207
 0.06546053 0.06857893 0.0750645 0.08135159 0.08499322 0.08587568 0.08482069 0.08206391 0.07748608 0.07208338
 0.06845444 0.06877999 0.07219426 0.07527411 0.07562612 0.07406946 0.07287246 0.07292293 0.07340094 0.07352017
 0.07364987 0.07468338 0.07675961 0.07892633 0.08006145 0.07989335 0.0790467 0.07831403 0.07793699 0.07743411
 0.0762804 0.07495394 0.07487845 0.07686281 0.07998762 0.08255117 0.08377606 0.08408858 0.08398393 0.08316346
 0.08097862 0.07766312 0.0748302 0.07427399 0.07623254 0.07924201 0.08165742 0.08283079 0.0829505 0.08244851
 0.08170962 0.08094405 0.08024952 0.07988392 0.08020418 0.08116042 0.08217449 0.08271787 0.08274399 0.08243942
 0.08185784 0.08098559 0.07999475 0.07924768 0.07903978 0.07937804 0.08002472 0.08070838 0.08121975 0.08137499
 0.08108222 0.08047778 0.07984243 0.07934868 0.07900812 0.07884404 0.0789393 0.07927566 0.07966495 0.07990706
 0.0799475 0.07984655 0.07966021 0.07939985 0.07907885 0.07876176 0.078559 0.07854933 0.07868701 0.07882887
 0.07889641 0.07895504 0.07906954 0.07915132 0.07905114 0.07876568 0.07845563 0.07827157 0.07823141 0.07825625
 0.07825493 0.07814878 0.0778689 0.07741294 0.07692526 0.07664652 0.07672307 0.0770971 0.07759939 0.07807732
 0.07841793 0.07855669 0.07852646 0.07842967 0.07832061 0.07816334 0.07792312 0.0776584 0.07750606 0.07757884
 0.07786449 0.07822797 0.07852334 0.07868643 0.07872945 0.07871222 0.07872648 0.07882641 0.0789493 0.07897436
 0.07887913 0.07877607 0.07877684 0.07886709 0.07893382 0.07889631 0.07879581 0.0787515 0.07883236 0.07899461
 0.07915075 0.07926872 0.07938379 0.07952859 0.07966726 0.07971063 0.07961387 0.07944696 0.07933053 0.07930963
 0.07934007 0.07939178 0.07949716 0.07967722 0.0798739 0.07999703 0.08002268 0.08001439 0.08004142 0.0800955
 0.08010709 0.08003539 0.07991681 0.07982475 0.07980445 0.07985012 0.07992265 0.07997692 0.07998423 0.07994366
 0.07987592 0.07980287 0.07973219 0.07966864 0.07964061 0.07969263 0.07982815 0.07996928 0.08000544 0.07989524
 0.07970892 0.07956123 0.07950526 0.0794953 0.07944801 0.07932698 0.07916386 0.07901347 0.07890783 0.07884768
 0.07881403 0.07878409 0.07875679 0.07877013 0.07886857 0.07903465 0.07917333 0.07919417 0.07910289 0.07898976
 0.07893634 0.07895672 0.07901642 0.07907857 0.07913598 0.07921475 0.07933566 0.07946676 0.07954481 0.07955541
 0.07955882 0.07962493 0.07977596 0.07999332 0.08023299 0.08042704 0.08052271 0.08054358 0.08057762 0.08068684
 0.08085336 0.08102377 0.08117616 0.08132538 0.08148626 0.08166105 0.08185891 0.08210354 0.08241026 0.08276054
 0.08310378 0.08338848 0.08360296 0.08379373 0.08403534 0.08436963 0.08477122 0.08517323 0.08552521 0.08582738
 0.08611482 0.08641398 0.08672355 0.0870421 0.08739403 0.08780362 0.08825251 0.08869161 0.08909395 0.08947361
 0.08985509 0.09024735 0.0906495 0.0910657 0.09150755 0.09198046 0.09246341 0.09290941 0.09328267 0.09359591
 0.093902 0.09425336 0.09467016 0.09512559 0.09554993 0.09587902 0.09612496 0.09637678 0.09670306 0.09707476
 0.09741701 0.09771895 0.09804875 0.09845968 0.09892038 0.09935392 0.09972268 0.1000554 0.100399 0.1007595
 0.1010924 0.1013522 0.1015464 0.1017316 0.1019559 0.1022251 0.1025359 0.1029094 0.103358 0.1038374
 0.1042703 0.1046132 0.1048763 0.1050908 0.1052873 0.1054908 0.1057075 0.1059241 0.1061332 0.1063409
 0.1065376 0.1066992 0.1068368 0.1070073 0.107252 0.1075566 0.1078947 0.1082703 0.1086848 0.1090974
 0.1094686 0.1098278 0.1102437 0.1107179 0.1111571 0.1114726 0.1116713 0.1118194 0.1119582 0.1121018
 0.1122909 0.1125823 0.1129819 0.1134305 0.1138641 0.1142637 0.1146424 0.1150063 0.1153394 0.1156162
 0.1158235 0.1159722 0.1160949 0.1162363 0.1164394 0.1167196 0.1170439 0.1173486 0.1175871 0.1177453
 0.1178146 0.1177825 0.1176702 0.1175505 0.1174878 0.1174623 0.1173767 0.1171394 0.116724 0.1161525
 0.1154507 0.1146385 0.1137565 0.112881 0.1121025 0.1114888 0.111078 0.1109084 0.1110319 0.1114714
 0.1121605 0.1129481 0.1136689 0.1141967 0.1144397 0.1143314 0.1138609 0.1130981 0.1121627 0.1111661
 0.1101796 0.1092288 0.1082979 0.1073654 0.1064693 0.1057386 0.1053452 0.1054371 0.1061193 0.1074556
 0.1094202 0.1118309 0.1143695 0.1167199 0.1187082 0.1203276 0.1216646 0.1228229 0.1238884 0.1249056
 0.125864 0.1267287 0.1274914 0.1281801 0.1288221 0.1294149 0.1299306 0.1303386 0.1306307 0.1308352
 0.1309965 0.1311342 0.1312366 0.1312971 0.1313301 0.1313397 0.1312893 0.1311163 0.1307668 0.1302197
 0.1294983 0.1286922 0.1279922 0.1277062 0.1281795 0.1296039 0.1318537 0.1345241 0.137152 0.1394155
 0.141185 0.1424801 0.1434149 0.1441365 0.1447602 0.1453432 0.1459048 0.1464492 0.1469721 0.1474677
 0.1479385 0.1483972 0.1488611 0.1493396 0.1498218 0.1502784 0.1506911 0.15108 0.151491 0.1519515
 0.1524424 0.1529176 0.153354 0.1537732 0.1542056 0.1546409 0.1550377 0.1553791 0.1556958 0.1560351
 0.1564239 0.1568574 0.157303 0.1577144 0.1580654 0.1583721 0.1586734 0.1589935 0.1593305 0.1596732
 0.1600153 0.1603538 0.1606878 0.1610242 0.1613771 0.1617491 0.1621138 0.1624311 0.1626879 0.1629168
 0.1631657 0.1634544 0.1637633 0.1640631 0.1643481 0.1646436 0.1649789 0.1653526 0.1657254 0.1660514
 0.1663178 0.166552 0.1667949 0.1670681 0.1673685 0.1676828 0.1679991 0.1683063 0.1685968 0.1688751
 0.1691576 0.1694574 0.1697731 0.1700925 0.1704052 0.1707094 0.1710083 0.1713037 0.1715981 0.171905
 0.1722443 0.172618 0.1729944 0.1733285 0.1735998 0.173825 0.1740384 0.1742666 0.174519 0.1747931
 0.1750829 0.1753832 0.1756885 0.1759918 0.1762889 0.1765816 0.1768734 0.1771644 0.1774529 0.1777401
 0.17803 0.1783261 0.1786302 0.1789414 0.1792537 0.179556 0.1798403 0.1801108 0.180381 0.180658
 0.1809339 0.1811983 0.1814571 0.1817269 0.1820121 0.1822982 0.1825699 0.1828282 0.1830869 0.1833556
 0.1836308 0.1839026 0.1841658 0.1844247 0.1846874 0.1849588 0.1852374 0.1855155 0.1857859 0.1860496
 0.1863135 0.1865797 0.1868454 0.1871119 0.1873842 0.1876607 0.1879328 0.1881962 0.1884545 0.1887125
 0.18897 0.1892268 0.1894858 0.1897514 0.1900228 0.190292 0.1905515 0.1908028 0.1910536 0.1913096
 0.1915738 0.1918488 0.1921334 0.19242 0.1926997 0.1929678 0.1932267 0.1934866 0.1937587 0.194044
 0.1943328 0.194617 0.1948957 0.1951702 0.195438 0.1956945 0.1959353 0.1961622 0.196385 0.1966124
 0.1968454 0.1970828 0.1973274 0.1975804 0.1978388 0.1980996 0.198361 0.1986203 0.1988776 0.1991362
 0.1993947 0.1996491 0.1999015 0.2001592 0.200426 0.2007002 0.2009753 0.2012412 0.2014958 0.2017512
 0.2020192 0.2022969 0.202575 0.2028501 0.2031222 0.2033922 0.2036631 0.2039343 0.204201 0.204464
 0.2047285 0.204992 0.205249 0.2055036 0.205762 0.2060237 0.2062882 0.206558 0.2068305 0.2071004
 0.2073667 0.2076266 0.2078745 0.2081166 0.2083656 0.208622 0.2088785 0.2091378 0.2094055 0.2096793
 0.2099574 0.2102384 0.2105128 0.2107745 0.2110316 0.2112895 0.2115408 0.2117817 0.2120136 0.2122215
 0.212358 0.2122945 0.2116998 0.209916 0.2059515 0.1986807 0.1872879 0.1717758 0.1531427 0.1330334
 0.1131421 0.09477375 0.07870524 0.06527533 0.05455486 0.04646434 0.04084141 0.0375447 0.03656816 0.03816736
 0.04299493 0.05170935 0.06351265 0.07486385 0.08085981 0.07910039 0.07197817 0.06449977 0.06013421 0.05913965
 0.06004322 0.06157422 0.06332137 0.06551267 0.06854786 0.07253759 0.07728229 0.08276878 0.08941444 0.09753619
 0.1067096 0.1159456 0.1245452 0.1326477 0.1408961 0.1496593 0.1586457 0.1671948 0.1748061 0.1813875
 0.1871478 0.1923646 0.197229 0.2018297 0.2062095 0.2103646 0.2141533 0.2172564 0.2193283 0.22026
 0.2203089 0.2199563 0.2196207 0.2194938 0.2195936 0.2198925 0.22037 0.2210048 0.2217708 0.2226384
 0.2235714 0.2245315 0.2254892 0.2264212 0.2273072 0.2281353 0.228902 0.2296049 0.2302465 0.230837
 0.2313837 0.231885 0.2323412 0.2327613 0.2331554 0.2335329 0.2339019 0.2342604 0.2345948 0.234897
 0.2351753 0.2354419 0.2356996 0.2359474 0.236187 0.2364205 0.2366483 0.2368729 0.2370998 0.2373349
 0.237579 0.2378244 0.2380613 0.2382869 0.2385046 0.2387163 0.2389242 0.2391381 0.2393677 0.2396089
 0.2398462 0.2400687 0.2402774 0.2404796 0.2406843 0.2408967 0.2411181 0.2413486 0.2415871 0.2418277
 0.2420664 0.2423109 0.2425699 0.2428353 0.2430906 0.2433334 0.2435715 0.2438071 0.2440403 0.2442759
 0.2445123 0.2447345 0.2449323 0.245119 0.2453231 0.2455619 0.2458235 0.2460781 0.24631 0.246531
 0.2467566 0.246982 0.2471929 0.2473834 0.2475636 0.2477623 0.2480132 0.2483178 0.2486371 0.2489373
 0.2492205 0.2495006 0.249779 0.250053 0.250315 0.250539 0.250703 0.2508332 0.2510086 0.2513027
 0.2517148 0.2521577 0.2525325 0.252816 0.2530577 0.2533151 0.2536152 0.2539312 0.2541566 0.2541822
 0.2540708 0.2540786 0.2544165 0.2550353 0.2557068 0.2562561 0.2566614 0.2569849 0.2572764 0.25753
 0.2576943 0.2577279 0.2576814 0.2577232 0.2580252 0.2585852 0.2592124 0.2597229 0.2600846 0.2603527
 0.2605716 0.2607676 0.2609004 0.2607999 0.2603464 0.2597817 0.259644 0.2602476 0.2613309 0.2623369
 0.2629653 0.2633277 0.2636342 0.2639318 0.2641646 0.2642272 0.263844 0.262725 0.2611362 0.2600596
 0.2603818 0.2619997 0.2639887 0.2655281 0.2664186 0.2668719 0.2671461 0.2673715 0.2674549 0.2670973
 0.266131 0.2649567 0.2644346 0.265091 0.2665226 0.2678246 0.2685132 0.2687767 0.2689824 0.2692686
 0.2694567 0.2690109 0.2673407 0.264668 0.262466 0.2624255 0.2648007 0.2681033 0.2705806 0.271728
 0.2721452 0.2722335 0.2716008 0.2697588 0.2668512 0.2635877 0.2610172 0.2603797 0.2622843 0.2656888
 0.2684951 0.2696186 0.2699019 0.2707272 0.2723657 0.2739924 0.2747587 0.2744516 0.2733412 0.2717077
 0.269707 0.2678031 0.2670335 0.2682779 0.2711903 0.2743104 0.2764088 0.2774219 0.2778307 0.2772339
 0.274049 0.2674224 0.2596279 0.2554391 0.2579128 0.2651888 0.2724864 0.2768034 0.2785587 0.2793463
 0.2798024 0.27943 0.2768859 0.2707127 0.2616298 0.2539791 0.2527896 0.2588016 0.2676312 0.2738646
 0.2747501 0.2704932 0.2632838 0.256638 0.2539605 0.2564825 0.2627261 0.2699634 0.2758546 0.2790908
 0.2793784 0.2773055 0.2742932 0.2722506 0.2721969 0.2727518 0.2711807 0.2668484 0.2622768 0.2594394
 0.2567063 0.2518617 0.2469765 0.2470318 0.2534397 0.2616724 0.2663514 0.2666994 0.2655508 0.2642019
 0.2601928 0.2508455 0.2383235 0.2297109 0.2308102 0.2401275 0.2502156 0.2549624 0.2544389 0.252716
 0.2524335 0.2521209 0.2482915 0.2400007 0.2311575 0.2272477 0.2295023 0.2337882 0.2354959 0.2332294
 0.2272164 0.2178127 0.2080953 0.2047974 0.2126243 0.2284785 0.243891 0.2519918 0.2500165 0.2377748
 0.2185852 0.2012533 0.195795 0.2044795 0.2190749 0.2284193 0.2272838 0.2173067 0.2022117 0.1852508
 0.1706765 0.1641963 0.1695425 0.1846698 0.2018743 0.2116535 0.2079534 0.1928486 0.176876 0.1714557
 0.1785465 0.1893418 0.1941508 0.1911867 0.1851674 0.1812033 0.1818341 0.1866583 0.1927857 0.1975238
 0.2005131 0.2007299 0.1936031 0.1765223 0.1561714 0.1441305 0.1448376 0.1533108 0.1644305 0.1775247
 0.1903508 0.1959476 0.190493 0.1805645 0.1775526 0.1855681 0.1979107 0.2052491 0.204843 0.2010481
 0.1985531 0.1973697 0.1951644 0.1926709 0.1938984 0.2005942 0.2091874 0.2147734 0.2162257 0.2157598
 0.2151786 0.2145139 0.2133009 0.2113861 0.2088314 0.206035 0.2036191 0.2017201 0.1998618 0.1976775
 0.1949042 0.190371 0.1823024 0.1709606 0.1602392 0.1546349 0.1545546 0.1566376 0.1586607 0.1608129
 0.1611591 0.1543668 0.1387365 0.1219535 0.1155031 0.1235941 0.14003 0.1552169 0.163419 0.1632378
 0.1548607 0.1404745 0.1267734 0.1228331 0.1327249 0.1516547 0.1711314 0.1862379 0.1961436 0.2001382
 0.1969715 0.1879424 0.1780345 0.1730802 0.176259 0.1866854 0.1996525 0.2077984 0.2047151 0.1913669
 0.1789961 0.1808266 0.1981252 0.2180199 0.2279617 0.2284487 0.2278861 0.2295271 0.2298806 0.2279216
 0.2287559 0.2365962 0.2485372 0.2574172 0.2581134 0.2495608 0.2340428 0.2176566 0.2087347 0.2111942
 0.2201061 0.2270677 0.2283379 0.2243326 0.214645 0.2001197 0.1881375 0.1881678 0.2007637 0.2162848
 0.2258603 0.2294712 0.2319412 0.2346407 0.2338623 0.2264821 0.2151849 0.2068003 0.2055479 0.2093482
 0.2133316 0.2149622 0.2141121 0.2102007 0.2025459 0.1934896 0.1884011 0.1910437 0.1997303 0.2089536
 0.2143598 0.2155027 0.2144885 0.213306 0.2124883 0.2113072 0.2091542 0.2073216 0.2087402 0.2147512
 0.2228341 0.2291451 0.2329061 0.236642 0.2422236 0.2482681 0.2517957 0.2514743 0.2489092 0.2472818
 0.2488139 0.2529944 0.2569474 0.2578836 0.2557557 0.253553 0.254548 0.2591658 0.2649213 0.269227
 0.2715011 0.27264 0.2735078 0.2742131 0.2740619 0.2721054 0.2685405 0.2655537 0.2657914 0.2697291
 0.2751995 0.2796012 0.2819686 0.2828496 0.282931 0.2823007 0.2808431 0.2788933 0.2772393 0.2765131
 0.2767506 0.2775665 0.2785666 0.27951 0.2802705 0.2808192 0.2812036 0.2814759 0.281676 0.2818659
 0.2820866 0.2822734 0.282321 0.2822683 0.2823197 0.2826146 0.2830431 0.283358 0.2834039 0.2831441
 0.2825298 0.2814935 0.2800794 0.2784396 0.2766557 0.2746844 0.2725998 0.2708516 0.2701312 0.2708674
 0.2728402 0.2753168 0.2775535 0.2791703 0.2801517 0.2806512 0.2808511 0.2809116 0.2809373 0.2809518
 0.2809204 0.2808097 0.2806226 0.2803837 0.2801152 0.2798442 0.2796127 0.2794493 0.2793309 0.2791901
 0.2789585 0.2786056 0.2781514 0.2776504 0.2771438 0.2766122 0.275983 0.2751916 0.2742383 0.2731907
 0.2721434 0.2711682 0.2702785 0.2694267 0.2685419 0.2675739 0.2664873 0.2652299 0.2637649 0.2621594
 0.2605854 0.2591827 0.257944 0.2567542 0.2555006 0.2541194 0.2525849 0.2509068 0.2491276 0.2472992
 0.2454592 0.2436226 0.2417794 0.2399034 0.2379762 0.2359997 0.233981 0.2319174 0.2298036 0.2276395
 0.2254114 0.2230558 0.2204503 0.2174525 0.2139509 0.209891 0.2052854 0.2002337 0.1949266 0.1895986
 0.1844517 0.1796121 0.1751508 0.1711346 0.1676521 0.1647913 0.1626049 0.1611099 0.1603085 0.1601969
 0.1607567 0.1619433 0.163672 0.1658095 0.1681943 0.1706682 0.173086 0.1753183 0.1772928 0.1790477
 0.1807158 0.1824236 0.1841969 0.1859652 0.1876432 0.1891845 0.1905612 0.1917379 0.192693 0.1934448
 0.1940312 0.1944801 0.1948133 0.1950581 0.1952392 0.1953703 0.1954622 0.1955378 0.1956397 0.1958199
 0.1961119 0.1965113 0.1969925 0.19754 0.1981613 0.1988724 0.1996747 0.2005425 0.201441 0.2023624
 0.2033344 0.2043945 0.2055815 0.2069505 0.208567 0.2104689 0.2126384 0.2150031 0.2174542 0.2198705
 0.2221366 0.2241506 0.2258374 0.2271741 0.2281925 0.2289504 0.2295034 0.2298968 0.2301606 0.2303114
 0.2303644 0.2303328 0.2302122 0.2299844 0.2296458 0.2292126 0.2287025 0.2281298 0.2275161 0.2268862
 0.2262559 0.225628 0.2249994 0.2243686 0.2237391 0.2231134 0.2224868 0.2218568 0.2212296 0.2206055
 0.2199646 0.2192775 0.2185151 0.2176465 0.216648 0.2155249 0.214305 0.2130051 0.2116151 0.21012
 0.208529 0.20688 0.205215 0.2035483 0.2018618 0.2001236 0.1982972 0.1963455 0.1942583 0.1920827
 0.1899085 0.1878206 0.1858671 0.1840514 0.1823403 0.1806956 0.1791102 0.1776063 0.1761987 0.1748758
 0.1736129 0.1723942 0.1712205 0.1701011 0.1690421 0.1680534 0.1671622 0.1663946 0.1657414 0.1651644
 0.164638 0.1641665 0.1637684 0.1634679 0.1632879 0.1632169 0.1631882 0.1631129 0.1629381 0.1626753
 0.1623832 0.1621227 0.1619158 0.1617428 0.16157 0.1613661 0.1610875 0.1606614 0.1599909 0.1589901
 0.1576321 0.1559677 0.154093 0.1521133 0.1501426 0.148306 0.1467095 0.1454079 0.1443999 0.1436355
 0.1430332 0.1425232 0.1420896 0.1417777 0.1416543 0.1417283 0.141888 0.1419614 0.1418829 0.1417719
 0.1418175 0.1421195 0.1426474 0.14329 0.14392 0.1444489 0.1448481 0.1451183 0.1452685 0.145324
 0.1453124 0.1452307 0.145057 0.1447865 0.1444354 0.1440247 0.1435713 0.1430726 0.1425055 0.1418609
 0.141153 0.1403828 0.1395325 0.1385916 0.1375378 0.1363319 0.1350186 0.1338077 0.1329832 0.1327289
 0.1330373 0.1337317 0.1345881 0.1354769 0.1363372 0.1369988 0.137222 0.1370726 0.1371247 0.1380505
 0.1399702 0.1423146 0.1443338 0.1456386 0.1462401 0.146257 0.1457573 0.1447874 0.1433607 0.1414411
 0.1390426 0.1362829 0.1332934 0.1302032 0.1272165 0.1245495 0.1223014 0.1204796 0.1190705 0.1181034
 0.117686 0.1174357 0.1155268 0.1096458 0.1005567 0.09369936 0.09463655 0.1028045 0.111891 0.1165117
 0.1165189 0.11479 0.1133092 0.1123725 0.1118745 0.1119459 0.1127013 0.1139959 0.1154495 0.1166646
 0.1174684 0.117882 0.1178529 0.1170436 0.1147702 0.1102212 0.1031191 0.0943148 0.08549221 0.07817533
 0.07306045 0.07005262 0.06857564 0.06789254 0.06747323 0.06724595 0.06749511 0.06851044 0.07033998 0.07283818
 0.07582798 0.07908377 0.08222188 0.08484408 0.08684967 0.08843429 0.08974612 0.09070639 0.09118333 0.09117889
 0.09080927 0.09021327 0.0895061 0.08874791 0.08791086 0.08690599 0.0857171 0.08453474 0.08366734 0.08325441
 0.08314911 0.08312856 0.08310635 0.08309893 0.08311833 0.08315627 0.08319673 0.08324128 0.08336461 0.08367601
 0.08417007 0.08468606 0.08505352 0.08523078 0.08529459 0.08530529 0.08517043 0.08472462 0.08402716 0.0834105
 0.08303666 0.08258548 0.08167067 0.08044832 0.07952021 0.07927586 0.07955079 0.07990049 0.08001502 0.07986445
 0.07963151 0.07959808 0.07996327 0.08060797</values></Ydata></ScSm><ScRf><Ydata ylabel="Single channel"><values byteorder="INTEL" format="FLOAT32" numvalues="1820"> 0.06069947 0.06085465 0.06094722 0.06098004 0.0609789 0.06098883 0.06105686 0.0612016 0.06139632 0.06158309
 0.06171187 0.06177258 0.06178361 0.06175575 0.06169529 0.06164435 0.06167608 0.06182399 0.06203211 0.06219019
 0.06222201 0.06215541 0.06210903 0.06217587 0.06229677 0.06227881 0.06197963 0.06147215 0.0609939 0.06072638
 0.06068292 0.06084907 0.06129899 0.06198215 0.06248279 0.0623172 0.06154293 0.06078693 0.06055132 0.06073296
 0.06091395 0.06084345 0.06051602 0.06008194 0.05989281 0.0604045 0.06172948 0.06327079 0.06393877 0.06283927
 0.05991122 0.05612824 0.05313713 0.05237414 0.05405562 0.05688972 0.05904473 0.05960859 0.05902909 0.05819229
 0.05746683 0.05681137 0.05639128 0.05661862 0.05758144 0.05865417 0.05882038 0.05754492 0.055412 0.0537085
 0.0532492 0.0538701 0.05512061 0.05675495 0.05802298 0.05727352 0.05357894 0.04878433 0.04668299 0.04941007
 0.05516408 0.05996717 0.06120457 0.05909594 0.05554182 0.05254467 0.05144659 0.05257374 0.05519123 0.05811233
 0.06041262 0.06146703 0.06079033 0.05845961 0.05552703 0.05351079 0.05346579 0.05557054 0.05908301 0.06240412
 0.06380892 0.06272402 0.06010705 0.05743288 0.05572254 0.05555239 0.05720194 0.06036293 0.06411479 0.06745622
 0.06971488 0.07062183 0.07037259 0.06950215 0.06847438 0.0676006 0.06732596 0.06795938 0.06893586 0.0690259
 0.06767526 0.06574829 0.06463912 0.06482949 0.06550471 0.0655465 0.06466644 0.06322151 0.06110428 0.05772331
 0.05335637 0.04951145 0.04741847 0.04709286 0.04823475 0.05070701 0.05347304 0.05453142 0.05310225 0.05102815
 0.05094517 0.05347244 0.05688949 0.05924243 0.0601573 0.06071203 0.0620456 0.06418884 0.0659178 0.06567943
 0.06313322 0.06001347 0.058901 0.06068861 0.06372379 0.06584163 0.06664681 0.06726646 0.06838223 0.06917533
 0.06818096 0.06502861 0.0613759 0.05988266 0.06189154 0.06608304 0.06943332 0.06944765 0.06583815 0.06059518
 0.05644051 0.05494231 0.05609306 0.05934716 0.06422357 0.06975857 0.07425802 0.07624242 0.07551704 0.07309721
 0.07004794 0.06649484 0.06216983 0.05805298 0.05658542 0.05936788 0.06511436 0.07072109 0.07403758 0.07494295
 0.07413892 0.07182088 0.0678817 0.06320888 0.06011137 0.06052361 0.06367305 0.06651654 0.06692799 0.0656417
 0.06468597 0.06485709 0.06541817 0.06565772 0.06590591 0.06697004 0.06897785 0.07107188 0.07224126 0.07223988
 0.07162701 0.07111415 0.07091647 0.0705955 0.06967957 0.06861728 0.06871633 0.07071105 0.07374901 0.07626437
 0.07754515 0.0779894 0.07805553 0.07745686 0.07557312 0.07261218 0.07009056 0.06971148 0.07171798 0.07473473
 0.07719678 0.07848056 0.07876764 0.07847475 0.0779653 0.07743382 0.07697339 0.07682866 0.0773313 0.07842477
 0.07955674 0.08023089 0.08041367 0.08028665 0.07989109 0.07920155 0.07838613 0.07781111 0.07777512 0.07828306
 0.07909492 0.07994238 0.08062185 0.08094899 0.0808228 0.08037367 0.07988956 0.07955329 0.07937549 0.07937224
 0.07962638 0.08012511 0.08068043 0.08108528 0.0812759 0.08130716 0.08124056 0.08110149 0.08091102 0.08072935
 0.08066291 0.08079374 0.08107668 0.0813622 0.08156966 0.0817709 0.08203291 0.08225615 0.08227761 0.08209355
 0.08187765 0.08179071 0.08184825 0.08196662 0.08205943 0.08205473 0.08187905 0.08152053 0.08112498 0.08094553
 0.08113968 0.08165294 0.08231071 0.08294492 0.08342234 0.0836674 0.08371773 0.08368684 0.08363454 0.08352445
 0.0833241 0.08310381 0.08301812 0.0831901 0.08359928 0.08408711 0.08448393 0.08471608 0.08480572 0.08483621
 0.08492075 0.08511338 0.085325 0.08540571 0.085334 0.08525297 0.08529539 0.08543059 0.08551428 0.08546186
 0.08534506 0.08531601 0.08544999 0.08568367 0.08590534 0.08607523 0.0862409 0.08644772 0.08664984 0.08672813
 0.08661863 0.08640645 0.08624616 0.08619994 0.08621521 0.08625492 0.08636336 0.08657077 0.08680151 0.08693807
 0.08695568 0.08694479 0.08699366 0.08708075 0.08710359 0.08699802 0.08680468 0.08662519 0.0865387 0.08655941
 0.08664396 0.08672222 0.08673573 0.08667013 0.08655772 0.08644363 0.08635178 0.08629508 0.0863121 0.08645573
 0.08671385 0.08695883 0.08702286 0.08684847 0.0865535 0.08632832 0.08626369 0.08628277 0.08623758 0.0860559
 0.08578914 0.08553846 0.0853617 0.08524884 0.08515915 0.08506954 0.0850017 0.08501112 0.08512978 0.08529995
 0.08538555 0.08528456 0.0850288 0.08475052 0.08456093 0.08448293 0.0844758 0.08448501 0.08448321 0.08449379
 0.08455526 0.08464503 0.08467866 0.08461234 0.08450569 0.08445901 0.08452782 0.08470583 0.08493276 0.08510266
 0.08512698 0.08502346 0.08490598 0.08486881 0.08491269 0.08498982 0.08507555 0.0851721 0.08527488 0.08537308
 0.08547883 0.08562952 0.08585155 0.08612572 0.08639042 0.08658192 0.08668536 0.08675632 0.08688418 0.08711966
 0.08743365 0.08774656 0.08799727 0.08818774 0.08836535 0.08856459 0.08877646 0.08898348 0.08920513 0.08947819
 0.08980066 0.09012902 0.09043022 0.09070858 0.09098235 0.09125984 0.091544 0.09184789 0.09219928 0.09261873
 0.09307583 0.09347934 0.09374479 0.09387907 0.09398276 0.0941706 0.09449068 0.0948901 0.0952417 0.09544161
 0.09551569 0.09560196 0.09579882 0.09606424 0.09630384 0.09652145 0.09681799 0.0972466 0.09772566 0.09811557
 0.09835392 0.09849755 0.09864606 0.09883825 0.09902559 0.09914583 0.09920947 0.09928965 0.09943166 0.09961547
 0.09982434 0.1000993 0.1004796 0.1009184 0.1013105 0.1015924 0.1017796 0.1019184 0.1020361 0.1021314
 0.1021874 0.1022015 0.1022114 0.1022677 0.1023694 0.1024599 0.1025035 0.102534 0.102609 0.102751
 0.1029573 0.1032281 0.1035461 0.1038575 0.1041241 0.1043855 0.1047151 0.1051022 0.1054298 0.1056003
 0.1056426 0.1056554 0.1056861 0.1057237 0.1057843 0.105928 0.1061828 0.1065081 0.1068471 0.1071811
 0.1075185 0.1078565 0.1081657 0.1084 0.1085241 0.1085436 0.1085152 0.1085224 0.1086358 0.1088771
 0.1092051 0.1095404 0.1098159 0.1100018 0.1100863 0.1100676 0.1099905 0.1099598 0.1100604 0.1102585
 0.1104154 0.1104055 0.1101969 0.1098216 0.1093123 0.1086945 0.1080183 0.1073641 0.1068126 0.1064148
 0.1061922 0.1061653 0.1063688 0.1068163 0.1074492 0.1081459 0.1087923 0.1093148 0.1096385 0.1096685
 0.1093579 0.1087726 0.1080516 0.1073173 0.1066358 0.1060224 0.1054488 0.1048796 0.1043533 0.1040209
 0.1040739 0.1046273 0.1056653 0.1070551 0.1085867 0.1100361 0.1112534 0.1122206 0.113019 0.1137362
 0.1144124 0.1150638 0.1157183 0.1163907 0.1170422 0.1176091 0.1180752 0.1184848 0.1188806 0.1192622
 0.1196046 0.1198915 0.1201285 0.1203432 0.1205589 0.1207511 0.1208529 0.1208288 0.1207212 0.1205988
 0.1204795 0.1203218 0.1200728 0.1197125 0.1192801 0.118891 0.1187219 0.1189405 0.1196108 0.1206511
 0.1218945 0.1231961 0.1244706 0.1256389 0.126596 0.1272716 0.127698 0.127985 0.1282372 0.1285104
 0.1288187 0.1291498 0.1294767 0.1297764 0.1300464 0.1303085 0.1305963 0.1309264 0.1312739 0.1315859
 0.1318356 0.1320582 0.1323235 0.1326693 0.1330645 0.133442 0.1337699 0.134077 0.1343985 0.1347134
 0.1349667 0.1351466 0.1353065 0.1355138 0.1358001 0.136155 0.1365316 0.1368625 0.1371031 0.1372708
 0.1374264 0.1376174 0.1378491 0.1381028 0.1383618 0.1386175 0.138869 0.1391266 0.1394084 0.1397162
 0.1400166 0.1402602 0.1404288 0.1405572 0.1407019 0.1408922 0.1411145 0.1413374 0.1415481 0.1417683
 0.1420318 0.1423407 0.1426472 0.1428904 0.1430509 0.1431649 0.1432866 0.1434458 0.1436411 0.1438578
 0.14408 0.1442926 0.1444887 0.1446795 0.1448867 0.1451168 0.1453506 0.1455646 0.1457565 0.1459434
 0.1461413 0.1463521 0.146574 0.1468173 0.1470964 0.1474026 0.1476956 0.1479332 0.1481062 0.1482389
 0.1483614 0.1484931 0.1486433 0.1488156 0.1490081 0.1492141 0.1494231 0.1496255 0.1498198 0.1500138
 0.1502151 0.1504241 0.1506359 0.1508464 0.1510557 0.1512693 0.1514945 0.1517302 0.1519637 0.1521807
 0.1523772 0.152562 0.1527489 0.1529466 0.1531519 0.1533538 0.1535453 0.153729 0.1539117 0.1540971
 0.1542861 0.154479 0.154677 0.1548803 0.1550848 0.1552822 0.1554677 0.1556451 0.1558235 0.1560099
 0.1562068 0.1564122 0.1566209 0.1568271 0.1570284 0.1572268 0.1574266 0.157631 0.1578377 0.1580407
 0.1582358 0.1584245 0.1586097 0.1587943 0.1589828 0.1591797 0.1593852 0.1595955 0.1598065 0.1600142
 0.160216 0.1604129 0.160608 0.1608054 0.1610114 0.1612307 0.1614585 0.1616822 0.1618946 0.1620995
 0.1623049 0.1625159 0.1627332 0.1629528 0.1631688 0.1633811 0.1635945 0.1638104 0.1640201 0.1642127
 0.164388 0.1645595 0.164741 0.1649294 0.1651093 0.1652742 0.165434 0.1656018 0.1657832 0.1659788
 0.1661858 0.1663954 0.1665986 0.1667928 0.1669815 0.1671706 0.1673661 0.1675704 0.1677807 0.1679945
 0.1682093 0.1684215 0.1686293 0.1688355 0.169043 0.1692528 0.1694693 0.1696957 0.1699224 0.1701351
 0.1703317 0.170522 0.1707154 0.1709169 0.1711253 0.1713308 0.1715269 0.1717201 0.1719222 0.1721374
 0.1723648 0.1725992 0.1728289 0.1730448 0.1732495 0.1734493 0.1736468 0.1738474 0.1740578 0.1742748
 0.1744902 0.1747032 0.1749155 0.1751259 0.1753362 0.1755509 0.1757691 0.1759881 0.1762081 0.1764249
 0.1766337 0.1768438 0.1770624 0.1772659 0.1773958 0.1773361 0.1768184 0.1753059 0.1719712 0.1658638
 0.1562922 0.1432604 0.1276161 0.1107493 0.09408197 0.07869888 0.06524423 0.05400476 0.0450445 0.03829017
 0.03359146 0.03082293 0.02998652 0.03130823 0.03534011 0.04263144 0.05251127 0.062015 0.06703714 0.0655672
 0.05961198 0.05336941 0.04974076 0.04892739 0.04968458 0.05095236 0.05239946 0.05422597 0.05676682 0.06010937
 0.06408329 0.0686813 0.07425893 0.08107971 0.08877834 0.09651934 0.1037215 0.1105141 0.1174448 0.1248182
 0.1323754 0.1395534 0.1459373 0.1514611 0.1563049 0.1607009 0.1648097 0.1687052 0.1724186 0.1759392
 0.1791422 0.1817574 0.1834975 0.1842774 0.1843193 0.1840285 0.1837519 0.1836455 0.1837252 0.1839743
 0.1843816 0.1849295 0.185593 0.1863444 0.1871501 0.1879784 0.1888101 0.1896288 0.1904095 0.1911315
 0.191791 0.1923932 0.1929426 0.193444 0.193904 0.1943287 0.194725 0.1951006 0.1954588 0.1957988
 0.1961213 0.1964276 0.1967169 0.1969891 0.1972444 0.1974808 0.1976995 0.1979103 0.1981228 0.1983363
 0.1985442 0.1987465 0.1989503 0.1991618 0.1993802 0.1995973 0.1998048 0.2000008 0.2001898 0.2003764
 0.2005654 0.200762 0.2009654 0.2011677 0.2013648 0.201562 0.2017622 0.2019589 0.2021465 0.2023295
 0.2025156 0.2027056 0.2028936 0.203076 0.203261 0.2034623 0.2036823 0.2039082 0.2041316 0.2043603
 0.2046004 0.2048413 0.2050682 0.2052771 0.205467 0.2056324 0.2057768 0.2059226 0.2060988 0.2063161
 0.2065567 0.2067891 0.2069952 0.2071825 0.207368 0.207559 0.2077492 0.2079275 0.2080912 0.2082617
 0.2084726 0.2087299 0.2090019 0.2092599 0.2095056 0.2097502 0.2099952 0.2102397 0.2104765 0.2106783
 0.2108203 0.2109252 0.2110667 0.211314 0.2116675 0.2120495 0.2123738 0.2126225 0.2128415 0.2130779
 0.2133461 0.2136182 0.2138103 0.2138381 0.2137507 0.2137548 0.214029 0.2145448 0.2151206 0.2156063
 0.2159723 0.2162625 0.2165169 0.2167322 0.2168653 0.216884 0.2168389 0.2168813 0.2171583 0.2176592
 0.2182084 0.2186438 0.2189471 0.219181 0.2193872 0.2195758 0.2197004 0.219616 0.2192276 0.218748
 0.2186419 0.21918 0.2201334 0.2210171 0.2215704 0.2218925 0.2221689 0.2224412 0.2226584 0.2227266
 0.2224115 0.2214715 0.2201369 0.2192429 0.2195433 0.2209525 0.2226859 0.2240405 0.2248379 0.2252543
 0.2255187 0.2257544 0.2258793 0.2256213 0.2248233 0.2238293 0.223388 0.2239642 0.2252205 0.2263793
 0.2270145 0.227275 0.2274703 0.2277244 0.2278975 0.2275419 0.2261524 0.2239108 0.2220696 0.2220746
 0.2241497 0.2270269 0.2291994 0.2302175 0.2305873 0.2306706 0.2301563 0.228631 0.2262034 0.2234655
 0.2213076 0.2207904 0.2224407 0.2253768 0.2278118 0.2288179 0.229108 0.2298575 0.2313018 0.2327435
 0.2334582 0.2332575 0.2323695 0.2310335 0.2293775 0.2277937 0.2271744 0.2282782 0.2308059 0.2335058
 0.2353377 0.2362661 0.2367068 0.2362982 0.2336592 0.2280449 0.2214088 0.217856 0.2200157 0.2262941
 0.2325913 0.2363382 0.237902 0.2386513 0.2391221 0.2388764 0.2367602 0.2315294 0.2238084 0.2173294
 0.2164064 0.2216597 0.2293089 0.2347076 0.2355099 0.2319035 0.2257685 0.2201248 0.2179027 0.2201657
 0.2256431 0.2319825 0.2371625 0.2400518 0.2403952 0.2386967 0.2361843 0.2345168 0.2345813 0.2351757
 0.2339211 0.230263 0.22639 0.2240207 0.2217482 0.2176502 0.2135233 0.2137017 0.2194216 0.2267415
 0.2309666 0.2314113 0.230546 0.2295083 0.2261603 0.2181619 0.2073871 0.2000184 0.2011423 0.2094697
 0.2184879 0.2228438 0.2226025 0.2213353 0.221354 0.2213517 0.2182402 0.2111793 0.2036341 0.2004692
 0.202772 0.2068789 0.208714 0.2070388 0.2020252 0.193956 0.1855734 0.1829227 0.1902598 0.2048511
 0.2191118 0.2268448 0.2255055 0.2148616 0.1978959 0.1826349 0.1782362 0.1867807 0.2007411 0.2099069
 0.209482 0.2009333 0.1876349 0.1725756 0.1597527 0.1545888 0.1606891 0.1761928 0.1937827 0.2042887
 0.2017504 0.188089 0.1735848 0.1694777 0.1776986 0.1895078 0.1952811 0.1932485 0.1881171 0.18503
 0.1866076 0.1924632 0.199599 0.205232 0.2090183 0.209859 0.2028838 0.1853067 0.1641747 0.1517205
 0.1526523 0.1617406 0.1736097 0.1875659 0.2012195 0.2071676 0.2013469 0.1907379 0.1874202 0.1957468
 0.2086225 0.2161878 0.2155744 0.2114221 0.2087137 0.207477 0.2052644 0.2028832 0.204591 0.2122192
 0.2219654 0.2286386 0.23106 0.2315801 0.2320991 0.2326249 0.232628 0.2319216 0.2305793 0.2290546
 0.2280397 0.2276828 0.227449 0.2269299 0.225819 0.2226775 0.2152345 0.2035807 0.1922149 0.1864774
 0.1868795 0.189465 0.1916918 0.1939141 0.1938979 0.1852766 0.1659621 0.1450457 0.1361849 0.1444069
 0.1623667 0.1787208 0.1868165 0.1852604 0.1745326 0.1571918 0.1405822 0.1345329 0.1433463 0.1616705
 0.1802162 0.1937604 0.2017502 0.2038659 0.1990248 0.1885357 0.1773766 0.1713489 0.1735394 0.1829633
 0.1949 0.2021097 0.1983701 0.1846593 0.1718911 0.1728653 0.1888408 0.2074427 0.2165736 0.2166636
 0.21577 0.2170496 0.2171923 0.2152149 0.2159888 0.2235603 0.2352001 0.2440954 0.2453331 0.237839
 0.2237437 0.2088746 0.2012397 0.2045742 0.2140304 0.221392 0.2229925 0.2192416 0.2097965 0.1955982
 0.1839939 0.1843192 0.1970929 0.2127999 0.2226974 0.2267734 0.2297895 0.2330802 0.2329377 0.2262414
 0.215683 0.2081148 0.2077785 0.2125965 0.2176929 0.2205331 0.220958 0.2182778 0.2117038 0.2036538
 0.1997709 0.2040139 0.2145346 0.2253799 0.2317934 0.2331767 0.2316848 0.2294269 0.2270563 0.2239445
 0.2195854 0.2154255 0.2145907 0.218557 0.2248076 0.2294201 0.2315546 0.2337326 0.2378586 0.2425911
 0.2449803 0.2436938 0.2402834 0.2378287 0.2384682 0.2417109 0.2448055 0.2450811 0.2424827 0.239863
 0.2403582 0.2443936 0.2496205 0.2535955 0.2557763 0.2570007 0.2580431 0.2589387 0.2589649 0.257184
 0.2537723 0.2508029 0.2507842 0.2541726 0.2589346 0.2626486 0.2644652 0.2649702 0.2648457 0.2641568
 0.2627491 0.2609007 0.259343 0.2586808 0.2589545 0.2597867 0.2607751 0.2616679 0.2623424 0.2627874
 0.26307 0.2632475 0.263343 0.2634026 0.263478 0.263536 0.263491 0.2633694 0.2633461 0.2635471
 0.2638844 0.2641504 0.2642096 0.2640112 0.2634818 0.2625452 0.261256 0.259789 0.2582474 0.2565865
 0.254844 0.253411 0.2529275 0.2537998 0.2558194 0.2582877 0.2604977 0.2620944 0.2630724 0.2635854
 0.2638063 0.2638787 0.2638892 0.2638513 0.2637345 0.2635183 0.2632197 0.2628724 0.2624987 0.2621136
 0.2617458 0.2614292 0.2611643 0.2609022 0.2605753 0.2601443 0.2596213 0.2590577 0.2585014 0.2579478
 0.2573356 0.2566004 0.2557311 0.2547775 0.2538205 0.2529339 0.2521456 0.2514182 0.2506774 0.2498662
 0.2489572 0.2479281 0.2467772 0.2455806 0.2444861 0.2436047 0.2429181 0.2423113 0.2416697 0.2409261
 0.2400567 0.2390793 0.238044 0.2369909 0.235917 0.2347943 0.2336049 0.2323426 0.2310034 0.2295871
 0.2280977 0.2265404 0.2249328 0.2233057 0.2216616 0.2199264 0.2179624 0.2156269 0.2128138 0.2094567
 0.2055335 0.2010923 0.1962732 0.1912877 0.1863582 0.1816635 0.1773295 0.1734505 0.1701055 0.1673612
 0.1652696 0.1638628 0.1631538 0.1631474 0.1638455 0.1652246 0.1672083 0.16967 0.1724599 0.1754237
 0.1784029 0.1812423 0.183834 0.1861751 0.188357 0.1904654 0.1924891 0.1943453 0.195975 0.1973841
 0.198602 0.1996389 0.2004914 0.2011724 0.2017246 0.2022032 0.2026382 0.2030204 0.2033294 0.2035699
 0.2037738 0.2039719 0.2041767 0.2043862 0.2045982 0.2048177 0.2050584 0.2053436 0.2057013 0.2061433
 0.2066505 0.2071908 0.2077512 0.2083392 0.2089609 0.2096169 0.2103221 0.2111142 0.2120379 0.213123
 0.2143678 0.2157323 0.2171424 0.2185064 0.219737 0.2207681 0.2215579 0.2220853 0.2223578 0.2224203
 0.2223337 0.2221344 0.221826 0.2214123 0.2209193 0.2203788 0.2198078 0.2192075 0.2185748 0.2179075
 0.2172106 0.2165008 0.2158008 0.215122 0.2144565 0.2137934 0.2131385 0.2125053 0.2118943 0.2112971
 0.2107179 0.2101671 0.2096322 0.2090788 0.208484 0.2078506 0.2071812 0.2064572 0.2056513 0.2047488
 0.2037467 0.2026428 0.2014399 0.2001536 0.1988012 0.1973819 0.1958779 0.1942802 0.1926071 0.1908844
 0.1891084 0.1872402 0.1852568 0.183209 0.1812091 0.1793552 0.1776701 0.1761127 0.1746322 0.1732092
 0.1718532 0.1705668 0.1693278 0.1681189 0.1669611 0.1658935 0.1649231 0.1640202 0.1631585 0.1623457
 0.161612 0.1609798 0.1604465 0.159991 0.1595922 0.1592396 0.1589408 0.1587295 0.158645 0.1586825
 0.1587733 0.1588265 0.1587855 0.1586519 0.1584771 0.1583271 0.158236 0.158192 0.1581637 0.1581143
 0.1579869 0.1576972 0.1571539 0.1562876 0.1550783 0.153565 0.1518273 0.1499693 0.1481234 0.1464278
 0.1449772 0.14381 0.142932 0.1423064 0.1418385 0.1414326 0.141076 0.1408434 0.1408185 0.1410015
 0.1412678 0.1414452 0.1414764 0.1414834 0.1416444 0.1420438 0.1426463 0.1433569 0.1440794 0.1447503
 0.1453304 0.1457755 0.1460566 0.1461992 0.1462485 0.1462102 0.1460694 0.1458399 0.1455517 0.1452234
 0.1448597 0.144444 0.1439461 0.1433641 0.1427255 0.1420353 0.1412722 0.1404192 0.139441 0.1382889
 0.1370203 0.1358675 0.1351175 0.1349453 0.1353472 0.1361595 0.1371661 0.1382398 0.1393077 0.1401716
 0.140572 0.1405791 0.1407714 0.1418121 0.1438236 0.1462568 0.1483787 0.149802 0.1505281 0.1506582
 0.1502481 0.149344 0.1479477 0.145998 0.1435164 0.1406726 0.1376368 0.1345295 0.1315337 0.1288607
 0.1266134 0.1247989 0.123391 0.122407 0.121982 0.1217736 0.1199011 0.1139162 0.104587 0.09760208
 0.09877019 0.107477 0.1171228 0.1221001 0.1222538 0.1205682 0.1190961 0.1181303 0.1175563 0.1175382
 0.1182348 0.1195061 0.1209408 0.1221165 0.1228633 0.1232261 0.1231681 0.1223232 0.1199413 0.1151633
 0.1077204 0.09851616 0.08930588 0.08167508 0.07633573 0.07316704 0.07157093 0.07080506 0.07032688 0.07005241
 0.07027687 0.07130864 0.07320675 0.0758424 0.07904616 0.08255355 0.08591817 0.08871745 0.09086756 0.0925788
 0.0939977 0.09503895 0.09556459 0.09557882 0.0952117 0.09461228 0.09389742 0.09312948 0.09227397 0.09122241
 0.08996189 0.08872221 0.08783682 0.08742806 0.08733079 0.08732663 0.08732626 0.08732175 0.08730251 0.08725475
 0.08717982 0.0871228 0.08720025 0.08752187 0.08804722 0.08858325 0.08894779 0.08910614 0.08915085 0.08914109
 0.08895361 0.08839761 0.08754903 0.08678469 0.08629893 0.08576967 0.0847757 0.08343739 0.08236727 0.08201209
 0.08225398 0.08264208 0.08281747 0.08269086 0.08241334 0.08229278 0.08258905 0.08321322 0.0837038 0.08366086
</values></Ydata></ScRf><Data_Parameters_AB><parameter name="DPF">1</parameter><parameter name="NPT">3497</parameter><parameter name="FXV">3996</parameter><parameter name="LXV">500</parameter><parameter name="CSF">1</parameter><parameter name="MXY">0.0826516672968864</parameter><parameter name="MNY">-0.0862019509077072</parameter><parameter name="DAT">31/05/2022</parameter><parameter name="TIM">11:38:17.174 (GMT+2)</parameter><parameter name="DXU">WN</parameter></Data_Parameters_AB><AB__Qtest><MainReport name="Quality Test Report"><Header><Line><Legend>Test result ok/not ok [1/0]: </Legend><Value>0</Value></Line><Line><Legend>Method file: </Legend><Value>C:\Users\Public\Documents\Bruker\OPUS_8.2.28\QT\IRBT_v3_default.QT</Value></Line></Header><Matrix><Line><Legend></Legend><Legend>min</Legend><Legend>max</Legend><Legend>measured</Legend></Line><Line><Value>Absorption (X-Range 1):</Value><Value>0.400000</Value><Value>2.000000</Value><Value>0.114102</Value></Line><Line><Value>Noise (X-Range 4):</Value><Value></Value><Value>0.000300</Value><Value>0.000041</Value></Line><Line><Value>Signal/Noise (X-Range 2):</Value><Value>200.000000</Value><Value></Value><Value>40.669381</Value></Line><Line><Value>Signal/Noise (X-Range 3):</Value><Value>40.000000</Value><Value></Value><Value>43.698510</Value></Line><Line><Value>Water vapour (X-Range 5):</Value><Value></Value><Value>0.000300</Value><Value>0.000046</Value></Line><Line><Value>Signal/Water (X-Range 2):</Value><Value>100.000000</Value><Value></Value><Value>35.969865</Value></Line><Line><Value>Signal/Water (X-Range 3):</Value><Value>20.000000</Value><Value></Value><Value>38.648966</Value></Line><Line><Value>Fringes (X-Range 6):</Value><Value></Value><Value>0.000100</Value><Value>0.000057</Value></Line></Matrix></MainReport></AB__Qtest><Data_Parameters_ScSm><parameter name="DPF">1</parameter><parameter name="NPT">1814</parameter><parameter name="FXV">3996.33169228125</parameter><parameter name="LXV">499.541461535156</parameter><parameter name="CSF">1</parameter><parameter name="MXY">0.283403873443604</parameter><parameter name="MNY">0.0365681611001492</parameter><parameter name="DAT">31/05/2022</parameter><parameter name="TIM">11:38:17.174 (GMT+2)</parameter><parameter name="DXU">WN</parameter></Data_Parameters_ScSm><Data_Parameters_ScRf><parameter name="DPF">1</parameter><parameter name="NPT">1820</parameter><parameter name="FXV">4004.04661832813</parameter><parameter name="LXV">495.683998511719</parameter><parameter name="CSF">1</parameter><parameter name="MXY">0.264970183372498</parameter><parameter name="MNY">0.0299865156412125</parameter><parameter name="DAT">31/05/2022</parameter><parameter name="TIM">11:37:51.063 (GMT+2)</parameter><parameter name="DXU">WN</parameter></Data_Parameters_ScRf><Optic_Parameters_Rf><parameter name="APR">0</parameter><parameter name="APT">Open</parameter><parameter name="BMS">KBr</parameter><parameter name="DTC">RT-DLaTGS_IR-Biotyper [Microplate reader]</parameter><parameter name="HPF">0</parameter><parameter name="LPF">10.0</parameter><parameter name="LPV">4000</parameter><parameter name="PGR">0</parameter><parameter name="RCH">Module port</parameter><parameter name="RDX">0</parameter><parameter name="SRC">MIR</parameter><parameter name="VEL">10.0</parameter><parameter name="SON">Off</parameter></Optic_Parameters_Rf><Acquisition_Parameters_Rf><parameter name="ADT">1</parameter><parameter name="AQM">DD</parameter><parameter name="CFE">0</parameter><parameter name="COR">0</parameter><parameter name="DEL">0</parameter><parameter name="DLY">0</parameter><parameter name="HFW">8000</parameter><parameter name="LFW">0</parameter><parameter name="NSR">32</parameter><parameter name="PLF">AB</parameter><parameter name="RES">6</parameter><parameter name="RGN">-1</parameter><parameter name="STR">0</parameter><parameter name="TCL">MakeCompatibleScalar (0, {WSV=1.000000, ARV=0});</parameter><parameter name="TDL">37</parameter><parameter name="RPO">0</parameter></Acquisition_Parameters_Rf><FT_-_Parameters_Rf><parameter name="APF">B3</parameter><parameter name="HFQ">500</parameter><parameter name="LFQ">4000</parameter><parameter name="NLI">0</parameter><parameter name="PHR">24</parameter><parameter name="PHZ">ML</parameter><parameter name="SPZ">NO</parameter><parameter name="ZFF">1</parameter></FT_-_Parameters_Rf><Optic_Parameters_><parameter name="APR">0</parameter><parameter name="APT">Open</parameter><parameter name="BMS">KBr</parameter><parameter name="CHN">Module port</parameter><parameter name="DTC">RT-DLaTGS_IR-Biotyper [Microplate reader]</parameter><parameter name="HPF">0</parameter><parameter name="LPF">10.0</parameter><parameter name="LPV">4000</parameter><parameter name="PGN">0</parameter><parameter name="RDX">0</parameter><parameter name="SRC">MIR</parameter><parameter name="VEL">10.0</parameter><parameter name="SON">Off</parameter></Optic_Parameters_><FT_-_Parameters_><parameter name="APF">B3</parameter><parameter name="HFQ">500</parameter><parameter name="LFQ">4000</parameter><parameter name="NLI">0</parameter><parameter name="PHR">24</parameter><parameter name="PHZ">ML</parameter><parameter name="SPZ">NO</parameter><parameter name="ZFF">1</parameter></FT_-_Parameters_><Acquisition_Parameters_><parameter name="ADT">1</parameter><parameter name="AQM">DD</parameter><parameter name="CFE">0</parameter><parameter name="COR">0</parameter><parameter name="DEL">0</parameter><parameter name="DLY">0</parameter><parameter name="HFW">8000</parameter><parameter name="LFW">0</parameter><parameter name="NSS">32</parameter><parameter name="PLF">AB</parameter><parameter name="RES">6</parameter><parameter name="SOT">0</parameter><parameter name="TCL">MakeCompatibleScalar (0, {WSV=1.000000, ARV=0});</parameter><parameter name="TDL">37</parameter><parameter name="SPO">0</parameter><parameter name="SGN">-1</parameter></Acquisition_Parameters_><Instrument_Parameters_Rf><parameter name="HFL">15800.168544</parameter><parameter name="LFL">0</parameter><parameter name="LWN">15800.168544</parameter><parameter name="ABP">32197</parameter><parameter name="SSP">1</parameter><parameter name="ARG">2</parameter><parameter name="ASG">2</parameter><parameter name="ASS">32</parameter><parameter name="GFW">16</parameter><parameter name="GBW">16</parameter><parameter name="BFW">0</parameter><parameter name="BBW">0</parameter><parameter name="PKA">7267</parameter><parameter name="PKL">4996</parameter><parameter name="PRA">7445</parameter><parameter name="PRL">5001</parameter><parameter name="P2A">1</parameter><parameter name="P2L">1</parameter><parameter name="P2R">1</parameter><parameter name="P2K">1</parameter><parameter name="DAQ">0</parameter><parameter name="AG2">1</parameter><parameter name="SSM">1</parameter><parameter name="RSN">25479</parameter><parameter name="CRR">0</parameter><parameter name="SRT">1653997071.064</parameter><parameter name="DUR">19.6379852294922</parameter><parameter name="TSC">28.9</parameter><parameter name="MVD">0.212606504559517</parameter><parameter name="AN1">0.225796368176131</parameter><parameter name="AN2">0</parameter><parameter name="VSN">2.485 Apr  4 2017</parameter><parameter name="SRN">0085</parameter><parameter name="CAM">0</parameter><parameter name="INS">IR-Biotyper</parameter><parameter name="FOC">69</parameter><parameter name="RDY">1</parameter><parameter name="ARS">32</parameter></Instrument_Parameters_Rf><Sample_Parameters_><parameter name="BLD"></parameter><parameter name="CNM">Admin</parameter><parameter name="CPY"></parameter><parameter name="DPM"></parameter><parameter name="EXP">IRBT_v3_32Scans.XPM</parameter><parameter name="LCT"></parameter><parameter name="SFM">Microplate, HTS-XT</parameter><parameter name="SNM">220531-1021(v.3)_FBG21M (D_1)_A9_9eb3746e-f1b7-4fdf-a9fb-22f16338f85c.0</parameter><parameter name="XPP">C:\Users\Public\Documents\Bruker\OPUS_8.2.28\XPM</parameter><parameter name="IST">OK</parameter><parameter name="CPG">1252</parameter><parameter name="UID">e8f4fbf5-3bb2-4737-9760-db0f4e352a18</parameter></Sample_Parameters_><Instrument_Parameters_><parameter name="HFL">15800.168544</parameter><parameter name="LFL">0</parameter><parameter name="LWN">15800.168544</parameter><parameter name="ABP">32197</parameter><parameter name="SSP">1</parameter><parameter name="ASG">2</parameter><parameter name="ARG">2</parameter><parameter name="ASS">32</parameter><parameter name="GFW">16</parameter><parameter name="GBW">16</parameter><parameter name="BFW">0</parameter><parameter name="BBW">0</parameter><parameter name="PKA">7918</parameter><parameter name="PKL">4988</parameter><parameter name="PRA">8161</parameter><parameter name="PRL">4993</parameter><parameter name="P2A">1</parameter><parameter name="P2L">1</parameter><parameter name="P2R">1</parameter><parameter name="P2K">1</parameter><parameter name="DAQ">0</parameter><parameter name="AG2">1</parameter><parameter name="SSM">1</parameter><parameter name="RSN">13365</parameter><parameter name="CRR">0</parameter><parameter name="SRT">1653997097.174</parameter><parameter name="DUR">19.6379852294922</parameter><parameter name="TSC">28.9</parameter><parameter name="MVD">0.205554157495499</parameter><parameter name="AN1">0.225805006521121</parameter><parameter name="AN2">0</parameter><parameter name="VSN">2.485 Apr  4 2017</parameter><parameter name="SRN">0085</parameter><parameter name="CAM">0</parameter><parameter name="INS">IR-Biotyper</parameter><parameter name="FOC">69</parameter><parameter name="RDY">1</parameter></Instrument_Parameters_><History/></OPUSDataFile>
