<?xml version="1.0" encoding="UTF-8" ?>
<OPUSDataFile><AB><Ydata ylabel="Absorbance Units"><values byteorder="INTEL" format="FLOAT32" numvalues="3497"> -0.06809615 -0.06806723 -0.06802032 -0.06795456 -0.06788268 -0.06780533 -0.06773268 -0.06766504 -0.06760892 -0.06756429
 -0.06753464 -0.06751918 -0.06751723 -0.06752763 -0.06754714 -0.06757574 -0.06761213 -0.06765608 -0.06770832 -0.06776406
 -0.06782141 -0.06787159 -0.0679092 -0.0679298 -0.0679291 -0.06791247 -0.06787939 -0.06784042 -0.06779676 -0.06775837
 -0.06772613 -0.06770927 -0.06770835 -0.06772892 -0.06777053 -0.0678292 -0.06790322 -0.06798073 -0.06806019 -0.06812993
 -0.06818954 -0.06823172 -0.06825806 -0.06826633 -0.06826282 -0.06825247 -0.06824411 -0.06824809 -0.06826302 -0.06829488
 -0.06832515 -0.06834955 -0.06834913 -0.0683155 -0.06825428 -0.06816223 -0.06806964 -0.06797871 -0.06791755 -0.06788784
 -0.06789562 -0.06793969 -0.06800597 -0.06809229 -0.06817834 -0.06826384 -0.06833644 -0.06839851 -0.06844907 -0.06849152
 -0.06853133 -0.06856982 -0.06861216 -0.06865358 -0.06869391 -0.06872272 -0.06873383 -0.0687222 -0.06868169 -0.06862366
 -0.06854755 -0.06847531 -0.0684099 -0.06837007 -0.06835803 -0.06838527 -0.06845257 -0.06856293 -0.06871495 -0.06889287
 -0.06909075 -0.06926532 -0.0694107 -0.06947719 -0.06947486 -0.06939783 -0.06927071 -0.06913295 -0.06899845 -0.06890217
 -0.06883805 -0.06881592 -0.06881597 -0.06883183 -0.0688417 -0.06883412 -0.06880468 -0.0687466 -0.06868024 -0.06860658
 -0.0685525 -0.0685216 -0.06852084 -0.06855093 -0.0685936 -0.06864813 -0.06869953 -0.06875014 -0.06880807 -0.06887452
 -0.06896146 -0.06906117 -0.06916257 -0.06925435 -0.06930853 -0.06932977 -0.06930853 -0.06926395 -0.06921109 -0.06915455
 -0.06910276 -0.06904888 -0.06898727 -0.06893414 -0.06888812 -0.06888732 -0.06893911 -0.06906153 -0.06926163 -0.06949151
 -0.06974953 -0.069895 -0.06992488 -0.06975752 -0.06941838 -0.06903521 -0.06862403 -0.06831691 -0.068101 -0.06801103
 -0.06802818 -0.06814207 -0.06832209 -0.06853496 -0.06873885 -0.06888596 -0.06896163 -0.06893256 -0.06884388 -0.06870127
 -0.06855978 -0.06844006 -0.06834599 -0.06828347 -0.06823085 -0.06818546 -0.06814498 -0.06810904 -0.06808969 -0.06808689
 -0.0681017 -0.06813245 -0.06816895 -0.0682099 -0.0682467 -0.0682754 -0.06828292 -0.06826384 -0.06819809 -0.06809632
 -0.06795722 -0.06780961 -0.0676768 -0.06757839 -0.06753592 -0.06754281 -0.06760538 -0.06769726 -0.06781469 -0.06792822
 -0.06803207 -0.06810969 -0.06815845 -0.06817281 -0.06815226 -0.06809524 -0.06800227 -0.06788058 -0.06773202 -0.06757215
 -0.06740244 -0.06723597 -0.06707481 -0.06692968 -0.06680424 -0.06671111 -0.06664837 -0.06662343 -0.06661896 -0.0666261
 -0.06662145 -0.06658563 -0.06651802 -0.0664077 -0.06628612 -0.06615753 -0.06605652 -0.06599171 -0.06596971 -0.06599382
 -0.06604447 -0.06612084 -0.06619591 -0.06626833 -0.06631359 -0.06633223 -0.06631401 -0.06626376 -0.0661943 -0.06611069
 -0.06603366 -0.06596231 -0.06590524 -0.06585793 -0.0658166 -0.06578265 -0.06575159 -0.06573977 -0.06575314 -0.06581205
 -0.06593068 -0.06610073 -0.06633146 -0.06656576 -0.0667985 -0.06696222 -0.06704717 -0.06703446 -0.06692205 -0.0667145
 -0.06641334 -0.06603969 -0.06560302 -0.06517955 -0.06477697 -0.06447153 -0.06425291 -0.06413687 -0.06410145 -0.06411668
 -0.06416181 -0.06419627 -0.06421801 -0.0642086 -0.06418192 -0.06414269 -0.06409642 -0.06404946 -0.06399109 -0.06392118
 -0.06382227 -0.06368925 -0.0635245 -0.06332543 -0.06312414 -0.0629224 -0.06275043 -0.06260861 -0.06250345 -0.06243267
 -0.06238635 -0.0623578 -0.06231746 -0.06225526 -0.06212372 -0.06193227 -0.06166943 -0.0613647 -0.06105578 -0.06074751
 -0.0604635 -0.06017967 -0.05988725 -0.05957081 -0.05921591 -0.05884138 -0.05844649 -0.05806457 -0.05770348 -0.05737195
 -0.05707508 -0.05677838 -0.05648076 -0.05611347 -0.05567498 -0.05513256 -0.05449881 -0.0538514 -0.05320037 -0.05263608
 -0.05214142 -0.05171579 -0.05134264 -0.05099037 -0.05065309 -0.05031693 -0.04996163 -0.04957142 -0.04911145 -0.04855192
 -0.04788898 -0.04710955 -0.04623724 -0.04527863 -0.04423694 -0.04310973 -0.04192469 -0.0406803 -0.03945014 -0.03823932
 -0.03708733 -0.03599381 -0.03494392 -0.03393584 -0.03295056 -0.03198767 -0.03103751 -0.03009641 -0.02914937 -0.02819408
 -0.02722186 -0.02622525 -0.02520343 -0.02411397 -0.02292166 -0.02158811 -0.02004856 -0.01840116 -0.01665483 -0.01496131
 -0.01338422 -0.01191766 -0.01058002 -0.009279818 -0.008007592 -0.006707645 -0.005374621 -0.004011133 -0.002619005 -0.001241713
 0.0001205891 0.001436477 0.002726595 0.004053393 0.005452763 0.007078851 0.008893081 0.01092796 0.01305008 0.01507751
 0.01698183 0.01864341 0.02017135 0.02159479 0.02301826 0.024503 0.02606703 0.027738 0.02945693 0.03121721
 0.03297017 0.03470507 0.03643946 0.03817277 0.03996226 0.04180904 0.04373006 0.04571665 0.04770722 0.04969713
 0.05162874 0.05351517 0.05536372 0.05718615 0.05900966 0.06083575 0.06267598 0.06453325 0.06641784 0.06831851
 0.07023752 0.07214188 0.07401015 0.07585347 0.07765716 0.07950737 0.08142074 0.08344443 0.08559655 0.08778402
 0.09000263 0.09213986 0.09419431 0.09616901 0.09807166 0.09996528 0.1018511 0.1037701 0.1057122 0.107673
 0.1096371 0.1115675 0.1134704 0.1153253 0.1171821 0.1190756 0.1210559 0.1231841 0.125416 0.1277641
 0.130115 0.1324305 0.134673 0.1368214 0.1389151 0.1409563 0.1429771 0.1449799 0.146988 0.1490027
 0.1510481 0.1531225 0.1552235 0.1573463 0.1594668 0.1615873 0.1637017 0.165816 0.1679416 0.1700732
 0.1722099 0.1743424 0.1764586 0.1785621 0.1806479 0.1827336 0.1848253 0.1869379 0.1890816 0.1912417
 0.1934217 0.1955757 0.1976975 0.1997633 0.2017696 0.2037483 0.2057013 0.2076674 0.2096447 0.2116343
 0.2136353 0.2156431 0.2176612 0.2197014 0.2217562 0.2238193 0.2258752 0.2278968 0.2298855 0.2318294
 0.2337456 0.2356414 0.2375305 0.2394206 0.2413187 0.2432303 0.24515 0.2470801 0.2489981 0.2509007
 0.2527792 0.2546319 0.2564793 0.2583222 0.2601672 0.2620122 0.2638382 0.2656481 0.2674459 0.269237
 0.271044 0.2728566 0.2746649 0.2764579 0.2782082 0.2799336 0.2816398 0.2833478 0.2850808 0.286823
 0.2885762 0.2903122 0.2920197 0.2936975 0.2953416 0.2969675 0.2985765 0.3001829 0.3017879 0.3033961
 0.3050069 0.3065982 0.3081683 0.3096875 0.3111631 0.3126104 0.3140413 0.3155034 0.3169927 0.3185266
 0.3200888 0.3216626 0.3232397 0.3248074 0.3263586 0.3278877 0.3293828 0.330834 0.3322487 0.3336235
 0.3349841 0.3363368 0.3376899 0.3390465 0.3403976 0.3417425 0.3430808 0.3444126 0.3457395 0.3470605
 0.3483683 0.3496619 0.3509352 0.3521847 0.3533984 0.3545721 0.3556846 0.3567517 0.3577792 0.3588034
 0.3598661 0.3609775 0.3621675 0.3633973 0.3646592 0.3659097 0.3671309 0.3683101 0.3694403 0.3705266
 0.3715675 0.3725821 0.3735713 0.3745669 0.3755697 0.3765863 0.3776126 0.378615 0.3795911 0.3805095
 0.3813757 0.3821883 0.3829561 0.383695 0.3844167 0.3851446 0.3858849 0.3866576 0.3874462 0.3882484
 0.389039 0.3898016 0.3905386 0.3912457 0.3919392 0.3926254 0.3932932 0.3939434 0.3945515 0.3951148
 0.3956358 0.3961149 0.3965746 0.3970161 0.3974569 0.3978971 0.3983468 0.3988041 0.399269 0.3997371
 0.4001979 0.4006535 0.4011017 0.4015472 0.4019982 0.4024437 0.4028799 0.4032941 0.4036721 0.4040369
 0.4043888 0.4047678 0.4051874 0.4056419 0.4061374 0.4066161 0.4070742 0.407461 0.407775 0.4080142
 0.4081824 0.4083167 0.4084195 0.4085248 0.4086283 0.408732 0.4088357 0.4089345 0.4090464 0.409197
 0.4093955 0.4096743 0.4099917 0.4103367 0.4106483 0.4108846 0.4110495 0.411123 0.4111787 0.4112284
 0.4113302 0.4114987 0.4117224 0.4120036 0.4122829 0.412557 0.4127605 0.4128936 0.4129278 0.4128754
 0.4127783 0.4126581 0.4126056 0.4126282 0.4127943 0.4130776 0.4134789 0.4139443 0.414423 0.4148667
 0.4152191 0.4154807 0.4156255 0.4157129 0.4157515 0.4158131 0.4159158 0.4161001 0.4163743 0.4167576
 0.4172521 0.4178739 0.4186233 0.41948 0.4204352 0.4213957 0.4223445 0.4231436 0.4237888 0.424182
 0.4243579 0.4243272 0.424164 0.4239787 0.4238344 0.4238529 0.4240133 0.4243617 0.424784 0.4252475
 0.4256245 0.4258612 0.4259044 0.4257222 0.4253611 0.4248156 0.4241959 0.4235096 0.4228593 0.4222498
 0.4217156 0.4212528 0.4208338 0.4204548 0.4200809 0.4197141 0.4193437 0.4189702 0.4185941 0.418202
 0.4177823 0.4172991 0.4167174 0.4159912 0.4150714 0.4139505 0.4125948 0.411079 0.4094064 0.4077038
 0.4059979 0.4043861 0.4028897 0.4015319 0.4003196 0.3992085 0.3981958 0.3971895 0.3961854 0.3950974
 0.3939357 0.3927017 0.3914209 0.3901835 0.3889932 0.3879164 0.3869093 0.3859381 0.3849542 0.3838809
 0.3827299 0.3814701 0.3801773 0.378875 0.3776433 0.3765194 0.375527 0.3746891 0.3739449 0.3732973
 0.3726217 0.3719082 0.3710522 0.3700489 0.3688992 0.3676122 0.3662868 0.3649319 0.3636502 0.3624357
 0.3613259 0.360303 0.3593477 0.3584409 0.3575461 0.3566487 0.3557189 0.3547523 0.3537332 0.3526734
 0.3515713 0.3504519 0.3493219 0.3482058 0.3471116 0.3460471 0.3450168 0.3440066 0.3430164 0.342022
 0.3410222 0.3400013 0.3389597 0.3378971 0.336815 0.3357213 0.3346183 0.3335168 0.3324192 0.3313375
 0.3302711 0.3292275 0.3281974 0.327177 0.3261474 0.3250946 0.3240018 0.3228532 0.3216538 0.3203968
 0.3191121 0.3178037 0.3165019 0.3152133 0.3139442 0.3126963 0.311459 0.3102318 0.3090118 0.3078
 0.3066068 0.3054323 0.3042829 0.3031539 0.3020341 0.3009159 0.2997754 0.2986099 0.2974012 0.296161
 0.2948904 0.2936136 0.2923462 0.2911144 0.2899341 0.288826 0.2878031 0.286866 0.2860258 0.2852292
 0.2844784 0.2836615 0.2827691 0.2817069 0.2804702 0.2790784 0.2775422 0.2759938 0.2744455 0.2730397
 0.2717682 0.2706874 0.2697615 0.2689439 0.268186 0.2673885 0.266528 0.2655275 0.2644248 0.2632114
 0.2619668 0.2607327 0.2595523 0.2584606 0.2574258 0.2564481 0.2554857 0.2545258 0.2535949 0.2526912
 0.251888 0.2511893 0.2506203 0.2501745 0.2497786 0.2494173 0.2489631 0.2484125 0.2476766 0.2467826
 0.2457404 0.2445991 0.2434435 0.2423005 0.2412439 0.2402468 0.2393168 0.2384094 0.2374944 0.2365757
 0.2356403 0.2347344 0.2338705 0.2330623 0.2323188 0.2316013 0.2309063 0.2302115 0.2295156 0.228852
 0.2282225 0.2276623 0.2271654 0.226715 0.2263014 0.2258796 0.2254497 0.2249883 0.2245039 0.2240019
 0.2234847 0.222963 0.2224188 0.2218492 0.2212143 0.220493 0.2196538 0.2186698 0.2175727 0.216351
 0.2151146 0.2138751 0.212747 0.2117467 0.2108902 0.2101792 0.2095114 0.2088791 0.2081528 0.2073365
 0.2063811 0.2053091 0.2041731 0.2029962 0.2018633 0.2007758 0.1997792 0.1988519 0.1979897 0.197165
 0.1963552 0.1955399 0.1947001 0.1938328 0.1929276 0.1920106 0.1910831 0.1901853 0.1893273 0.1885086
 0.1877341 0.1869379 0.1861165 0.185211 0.1842251 0.1831949 0.1821324 0.1811357 0.1801978 0.1793538
 0.1785698 0.1777782 0.176961 0.1760444 0.1750636 0.1740232 0.1729791 0.171983 0.1710526 0.1702181
 0.169456 0.1687633 0.1681232 0.1675275 0.166985 0.1664963 0.1660675 0.1657017 0.1653703 0.1650722
 0.1647428 0.1643787 0.163915 0.1633562 0.1626912 0.1619397 0.161165 0.1603909 0.1597092 0.1591253
 0.1586943 0.1583985 0.1582402 0.1581955 0.1582458 0.1583753 0.1585706 0.1588221 0.1591246 0.1594675
 0.1598478 0.1602558 0.1606876 0.1611503 0.1616413 0.1622026 0.1628361 0.1636121 0.1645328 0.1656496
 0.1669556 0.1684361 0.1700741 0.1717989 0.1735979 0.1754018 0.1772138 0.1790063 0.1807907 0.1825709
 0.1843517 0.1861395 0.1879314 0.189727 0.191525 0.1933256 0.1951243 0.1969254 0.1986958 0.2004371
 0.2020766 0.2036093 0.2049523 0.2061001 0.207009 0.2076803 0.2081297 0.2083637 0.2084298 0.2083344
 0.2081221 0.2078056 0.2074293 0.2070265 0.2066663 0.2063952 0.2062976 0.2063954 0.2067441 0.2073159
 0.2081164 0.2090948 0.2102328 0.211496 0.2128736 0.2143406 0.2158956 0.2174922 0.2191283 0.2207361
 0.2223117 0.2237845 0.2251503 0.2263369 0.2273395 0.2280882 0.2285842 0.228791 0.2287214 0.2283898
 0.227807 0.2270068 0.2259692 0.2246968 0.2231297 0.2212254 0.2189202 0.2161553 0.2129356 0.2092244
 0.2051476 0.2007072 0.1961283 0.1914383 0.1868749 0.1824659 0.1783694 0.1745977 0.1711858 0.1681301
 0.1653686 0.1628924 0.1606136 0.1585286 0.1565789 0.1547631 0.1530513 0.1514343 0.149883 0.1483894
 0.1469263 0.1455081 0.1441317 0.1428313 0.1416256 0.1405378 0.1395847 0.1387621 0.1380732 0.1375041
 0.137052 0.1367113 0.1364804 0.1363638 0.1363618 0.136477 0.1367076 0.1370252 0.1374179 0.1377954
 0.1381379 0.138316 0.1383233 0.1380671 0.1375763 0.1368482 0.1359439 0.1349296 0.1338741 0.132855
 0.1319219 0.1311272 0.130485 0.130017 0.1297047 0.1295513 0.1295187 0.1296064 0.1297497 0.1299491
 0.1300737 0.1301178 0.1298642 0.1293001 0.1281886 0.1265326 0.1242191 0.1212972 0.1178811 0.114063
 0.1101331 0.1061712 0.1024647 0.0990162 0.09596123 0.09322251 0.09078429 0.08856088 0.08649001 0.08454423
 0.08269279 0.08095297 0.07932587 0.0778182 0.07643452 0.07515551 0.0739802 0.07288601 0.07187145 0.07091873
 0.07002652 0.06917127 0.06835104 0.06753913 0.0667367 0.06593201 0.06513192 0.06434782 0.06358725 0.06287161
 0.06219825 0.06157728 0.06098964 0.06042504 0.05985945 0.0592724 0.05866129 0.05801348 0.057361 0.05670692
 0.05609421 0.05553356 0.05503647 0.05460884 0.05421526 0.05385421 0.05347747 0.05308415 0.05266096 0.05221209
 0.05176399 0.05131747 0.05089368 0.05048212 0.05006566 0.04963398 0.0491549 0.0486378 0.04807639 0.04749683
 0.04691947 0.04636502 0.04585307 0.04538957 0.04498237 0.04462858 0.044332 0.04407317 0.04385335 0.04362806
 0.04339309 0.04310732 0.04276682 0.04237596 0.04193668 0.04149333 0.04104809 0.04063915 0.04026309 0.0399265
 0.03962376 0.03934323 0.03908086 0.03882375 0.03857023 0.03831144 0.03805193 0.03779021 0.03753865 0.03730439
 0.03709617 0.03692304 0.03677355 0.03665021 0.03652201 0.03638448 0.03620908 0.03599041 0.03572709 0.03541789
 0.03509112 0.03474849 0.03442375 0.03411636 0.03383891 0.03358699 0.03334878 0.03312041 0.03288375 0.03264083
 0.032385 0.03212473 0.03186784 0.03162252 0.0314018 0.03120074 0.03102449 0.03085111 0.03067426 0.03047086
 0.03023099 0.02995116 0.02962662 0.02927508 0.02889718 0.02851602 0.02813323 0.02776479 0.02741113 0.02707741
 0.02676271 0.0264626 0.02617547 0.02589183 0.02561152 0.02532824 0.02504505 0.02476431 0.02449014 0.02422987
 0.0239833 0.02375482 0.02353677 0.02332654 0.0231149 0.02289621 0.02266936 0.02243162 0.02219024 0.02194617
 0.02170512 0.02146834 0.02123448 0.02100362 0.02077162 0.0205384 0.02030377 0.02006864 0.01984007 0.01961975
 0.0194199 0.01923952 0.01908465 0.01894748 0.0188175 0.01868387 0.01852643 0.01834255 0.01812001 0.0178682
 0.01758802 0.01729317 0.01698958 0.01668717 0.0163901 0.01610344 0.01582935 0.01556677 0.01531621 0.01507198
 0.01483361 0.01459942 0.01436958 0.01415033 0.01394164 0.01374721 0.01356466 0.01338566 0.01320727 0.01301579
 0.01281235 0.01259123 0.01235828 0.01211863 0.01187813 0.01164478 0.01141966 0.01120656 0.01100235 0.01080654
 0.01061657 0.01043151 0.01025018 0.01007282 0.009894886 0.009716405 0.009528081 0.009329177 0.009114072 0.008882886
 0.008642552 0.008394614 0.008155411 0.007925542 0.007717655 0.007528603 0.007356969 0.007196886 0.007035717 0.006870639
 0.006691025 0.006500679 0.006298714 0.00609138 0.005882989 0.005675976 0.005472717 0.005272944 0.005076478 0.004885638
 0.004700931 0.004523749 0.00435498 0.00418885 0.004025203 0.003853783 0.00367423 0.003482043 0.003278047 0.003067235
 0.002851016 0.0026386 0.002430507 0.002233455 0.002046193 0.001869804 0.00170189 0.001539503 0.001381134 0.00122409
 0.001068319 0.0009135324 0.0007581183 0.0006019098 0.000441166 0.0002741299 0.0001011158 -7.926966E-05 -0.0002585965 -0.000436277
 -0.0006026208 -0.0007566084 -0.0008974437 -0.00102528 -0.001147173 -0.00126359 -0.00138154 -0.001501075 -0.001625944 -0.001756324
 -0.001894994 -0.00204139 -0.002196438 -0.002357567 -0.002522059 -0.002686465 -0.002846383 -0.002999978 -0.003144483 -0.003280142
 -0.003405996 -0.003524294 -0.00363501 -0.003742476 -0.003847339 -0.003954163 -0.004063861 -0.004176926 -0.004293533 -0.004412001
 -0.004532303 -0.004655144 -0.004780578 -0.004910074 -0.005042558 -0.005173934 -0.005302497 -0.005419946 -0.005527734 -0.005623405
 -0.005712694 -0.005802675 -0.005897738 -0.006006314 -0.006125522 -0.006257131 -0.006393674 -0.006531734 -0.006667715 -0.006798999
 -0.006927949 -0.007054673 -0.007181213 -0.007308287 -0.007432979 -0.007555202 -0.007670483 -0.007778697 -0.00787988 -0.007974599
 -0.008068171 -0.00816121 -0.00825969 -0.008363356 -0.008474662 -0.008592759 -0.008716855 -0.008846838 -0.008982226 -0.009123039
 -0.009269761 -0.009420378 -0.009574393 -0.00972773 -0.009878139 -0.01002388 -0.01016315 -0.01029922 -0.01043224 -0.01056654
 -0.01070293 -0.01084228 -0.01098478 -0.01112952 -0.0112765 -0.01142619 -0.01157851 -0.01173358 -0.01189053 -0.01204538
 -0.01219692 -0.01233874 -0.01247143 -0.01259223 -0.01270438 -0.01281116 -0.01291576 -0.01302289 -0.01313329 -0.01324882
 -0.01336954 -0.01349576 -0.01362805 -0.01376719 -0.01391098 -0.01405989 -0.01420698 -0.01435141 -0.01448786 -0.01461561
 -0.01473616 -0.01484963 -0.01496058 -0.01506917 -0.01517817 -0.01528802 -0.01540242 -0.01552186 -0.01565069 -0.01578722
 -0.01593064 -0.01607749 -0.0162217 -0.01636275 -0.01649685 -0.01662762 -0.0167565 -0.01688616 -0.01701893 -0.01715351
 -0.01729031 -0.01742613 -0.01756066 -0.01768962 -0.01781267 -0.01792435 -0.01802404 -0.01811043 -0.01818361 -0.01825186
 -0.01831616 -0.01838998 -0.01847326 -0.01857361 -0.01868849 -0.01881438 -0.01894774 -0.01907912 -0.01920683 -0.01932365
 -0.01943115 -0.01952773 -0.01961705 -0.01970079 -0.01978313 -0.01986637 -0.01995368 -0.02004714 -0.02014576 -0.02025069
 -0.0203544 -0.0204563 -0.02054767 -0.02062738 -0.02069582 -0.02075314 -0.02081149 -0.02087166 -0.02094682 -0.02103601
 -0.02114174 -0.02126108 -0.02138585 -0.02151407 -0.0216368 -0.02175544 -0.02186781 -0.02197693 -0.02208548 -0.02219461
 -0.02230665 -0.02241965 -0.02253383 -0.02264513 -0.0227527 -0.0228516 -0.02294035 -0.02301716 -0.02308074 -0.02313769
 -0.02318807 -0.02324446 -0.02330749 -0.02338383 -0.0234729 -0.02357024 -0.02367534 -0.02378215 -0.02389277 -0.02401008
 -0.02413806 -0.02428659 -0.02445891 -0.02466412 -0.02490395 -0.02518304 -0.02550353 -0.02586768 -0.02627898 -0.02673946
 -0.02725217 -0.02781886 -0.02843976 -0.02911523 -0.02984508 -0.03062971 -0.03146705 -0.03235831 -0.03328108 -0.0342337
 -0.03515031 -0.03602418 -0.03675918 -0.03735039 -0.03771991 -0.03787076 -0.03776889 -0.03742629 -0.03683844 -0.03605267
 -0.0351223 -0.034133 -0.03319696 -0.03236663 -0.03172222 -0.03126061 -0.03100338 -0.03092521 -0.03102721 -0.03126516
 -0.03163968 -0.03205811 -0.03251238 -0.03288873 -0.03317304 -0.03334497 -0.03340359 -0.03342049 -0.03339842 -0.03339192
 -0.0333969 -0.03342021 -0.03345387 -0.03347611 -0.03347915 -0.03343292 -0.03333891 -0.03318239 -0.03297875 -0.03273673
 -0.03247631 -0.03221551 -0.03196534 -0.03173841 -0.03152962 -0.03134143 -0.03116057 -0.03098317 -0.03080682 -0.03062906
 -0.03046321 -0.03031011 -0.03018308 -0.03008279 -0.03000589 -0.02995121 -0.02990358 -0.02986273 -0.02981876 -0.02977375
 -0.02972946 -0.0296881 -0.02965588 -0.02963292 -0.02962275 -0.02962313 -0.02963356 -0.02965017 -0.02967033 -0.02968999
 -0.02970628 -0.02971726 -0.02972101 -0.02971973 -0.02971274 -0.02970703 -0.02970318 -0.02970942 -0.02972674 -0.02975777
 -0.02980266 -0.02985615 -0.02991772 -0.02997941 -0.03004126 -0.03009902 -0.03015394 -0.03020779 -0.03026236 -0.0303231
 -0.03038963 -0.03046492 -0.03054462 -0.03062535 -0.03070267 -0.03077073 -0.03083178 -0.03088444 -0.03093525 -0.03098694
 -0.03104085 -0.03109872 -0.03115501 -0.03120891 -0.03125778 -0.03130097 -0.03134226 -0.03138184 -0.03142381 -0.03146807
 -0.03151444 -0.03156238 -0.03160876 -0.03165305 -0.03169144 -0.03172433 -0.03175007 -0.03177106 -0.03179001 -0.03181014
 -0.03183672 -0.03186974 -0.03191185 -0.0319589 -0.03200967 -0.03205996 -0.03210729 -0.03215241 -0.03219445 -0.03223817
 -0.03228418 -0.03233625 -0.03239503 -0.03245973 -0.03253035 -0.03260329 -0.03267833 -0.03275166 -0.032823 -0.03288872
 -0.03294867 -0.03299981 -0.03304334 -0.03308 -0.03311233 -0.03314498 -0.03317912 -0.03321841 -0.03326139 -0.03330798
 -0.03335705 -0.03340738 -0.03346071 -0.03351733 -0.03357911 -0.033647 -0.03371963 -0.03379717 -0.03387647 -0.0339572
 -0.03403766 -0.03411774 -0.03419836 -0.03427973 -0.03436493 -0.03445396 -0.03454883 -0.03464846 -0.03475071 -0.03485325
 -0.03494936 -0.03503783 -0.03511238 -0.03517641 -0.03522973 -0.03528067 -0.03533554 -0.03540081 -0.03548346 -0.03557973
 -0.03569171 -0.03580656 -0.03592173 -0.03602656 -0.03611822 -0.03619622 -0.03625978 -0.03631597 -0.03636516 -0.03641536
 -0.03646686 -0.03652494 -0.03658936 -0.03666139 -0.03674049 -0.03682537 -0.03691584 -0.03701089 -0.03711032 -0.03721382
 -0.03732005 -0.03742768 -0.03753466 -0.03763871 -0.03773924 -0.03783487 -0.03792736 -0.03801681 -0.03810585 -0.03819525
 -0.03828617 -0.03837913 -0.03847286 -0.03856733 -0.03866106 -0.03875398 -0.03884732 -0.03894122 -0.03903805 -0.03913756
 -0.03923942 -0.03934337 -0.03944798 -0.03955384 -0.03966181 -0.03977204 -0.03988583 -0.04000123 -0.04011642 -0.04023001
 -0.04033936 -0.04044686 -0.04055296 -0.04066039 -0.04077118 -0.04088314 -0.04099643 -0.04110709 -0.04121405 -0.04131801
 -0.04141867 -0.04152068 -0.04162431 -0.04173188 -0.04184323 -0.0419559 -0.04206975 -0.04218225 -0.04229443 -0.04240868
 -0.04252638 -0.04265284 -0.0427871 -0.0429309 -0.04308025 -0.04323124 -0.04338041 -0.04352319 -0.04365923 -0.04378668
 -0.04390757 -0.04402193 -0.04413293 -0.04424086 -0.04435078 -0.04446339 -0.04458376 -0.0447127 -0.04485102 -0.04499888
 -0.04515118 -0.04530744 -0.04545902 -0.04560564 -0.04574057 -0.04586516 -0.04598008 -0.04608852 -0.04619881 -0.04631285
 -0.04643902 -0.04657423 -0.04671942 -0.04686749 -0.04701304 -0.04715066 -0.04727454 -0.04738671 -0.04748503 -0.04757917
 -0.04767052 -0.04777017 -0.0478806 -0.04800588 -0.04814728 -0.04829917 -0.04846136 -0.04862469 -0.04878882 -0.04894717
 -0.04909971 -0.04924269 -0.04937649 -0.04949978 -0.04961454 -0.04972438 -0.04983245 -0.04994627 -0.05006666 -0.05019887
 -0.05033871 -0.0504852 -0.05063222 -0.05077546 -0.05091294 -0.05104198 -0.05116607 -0.05128533 -0.05140437 -0.05152412
 -0.05164679 -0.05177279 -0.05190241 -0.0520357 -0.05217135 -0.05230915 -0.0524454 -0.05257994 -0.05270928 -0.0528343
 -0.05295631 -0.05307685 -0.05320103 -0.05332866 -0.05346243 -0.05359966 -0.05373813 -0.05387566 -0.05400891 -0.05413922
 -0.05426604 -0.05439224 -0.05451913 -0.05464738 -0.05477775 -0.05490848 -0.05503934 -0.0551692 -0.05529792 -0.05542523
 -0.05555116 -0.05567271 -0.05578957 -0.05589616 -0.05599269 -0.05607735 -0.05615184 -0.0562219 -0.05628932 -0.05636217
 -0.05643988 -0.05652555 -0.0566168 -0.05671155 -0.05680883 -0.05690641 -0.05700632 -0.05710943 -0.05721637 -0.057329
 -0.05744148 -0.0575536 -0.05765532 -0.05774431 -0.05781735 -0.05787289 -0.05792076 -0.05796138 -0.05800833 -0.05806185
 -0.05812602 -0.05819969 -0.05827682 -0.05835632 -0.05843034 -0.05849908 -0.05855885 -0.05861092 -0.0586556 -0.05869475
 -0.05873048 -0.05876519 -0.05880141 -0.05884151 -0.05888798 -0.05894059 -0.05900092 -0.05906358 -0.05912806 -0.05918684
 -0.05923818 -0.05927947 -0.05930976 -0.05933339 -0.05935051 -0.05936809 -0.05938651 -0.05941261 -0.05944641 -0.0594919
 -0.05954776 -0.05961124 -0.05967986 -0.05974511 -0.05980673 -0.05985937 -0.05990625 -0.05994982 -0.05999134 -0.06003438
 -0.06007402 -0.06010847 -0.06013317 -0.06014369 -0.06014675 -0.06014179 -0.06014298 -0.06015357 -0.06017809 -0.06021864
 -0.06026274 -0.06030981 -0.06034471 -0.06036742 -0.06037951 -0.06038275 -0.06039218 -0.06040733 -0.06043515 -0.0604718
 -0.06050998 -0.06054765 -0.06057686 -0.06059922 -0.06061406 -0.06062172 -0.0606225 -0.06061588 -0.06060039 -0.06058034
 -0.0605566 -0.06053494 -0.06051806 -0.06050475 -0.06049599 -0.06048443 -0.06046934 -0.06044509 -0.06041111 -0.06036969
 -0.0603213 -0.06027588 -0.06023399 -0.06020528 -0.0601882 -0.06018199 -0.06018354 -0.06018339 -0.0601809 -0.06017005
 -0.06015247 -0.06012867 -0.06009771 -0.06005933 -0.06001133 -0.05995097 -0.0598816 -0.05980265 -0.05972255 -0.05964365
 -0.05957147 -0.05950833 -0.05945116 -0.05940059 -0.05934548 -0.05928504 -0.05921168 -0.05912583 -0.05903889 -0.05895307
 -0.05889255 -0.0588555 -0.05884988 -0.05886622 -0.05888317 -0.05889152 -0.0588606 -0.05879506 -0.05868475 -0.05854753
 -0.05839616 -0.05824398 -0.05810498 -0.05797848 -0.057869 -0.05776699 -0.05767053 -0.05757247 -0.05747019 -0.0573662
 -0.05726014 -0.05715822 -0.05706086 -0.056972 -0.05689175 -0.056822 -0.0567614 -0.05670204 -0.05663932 -0.05654729
 -0.05642553 -0.05625385 -0.0560479 -0.05582719 -0.05560742 -0.05542245 -0.05526598 -0.05514667 -0.05504746 -0.05495955
 -0.05487235 -0.05477937 -0.0546745 -0.05455542 -0.05441555 -0.05425264 -0.05406695 -0.05385738 -0.05363418 -0.05339791
 -0.05315913 -0.05291833 -0.05268323 -0.0524538 -0.05223396 -0.05202213 -0.05181327 -0.05160635 -0.05139477 -0.05118098
 -0.05096757 -0.05075436 -0.05054418 -0.05033028 -0.05010575 -0.04987076 -0.04962023 -0.04936719 -0.04911771 -0.04887464
 -0.0486434 -0.04840679 -0.0481621 -0.04789736 -0.04760909 -0.0473086 -0.04699634 -0.04668626 -0.04637831 -0.04606476
 -0.04574325 -0.04538941 -0.04500394 -0.04457381 -0.04410848 -0.04362858 -0.04314165 -0.04267693 -0.04222472 -0.04178593
 -0.04134464 -0.04088201 -0.04040096 -0.03989288 -0.03938087 -0.03887408 -0.03838513 -0.0379236 -0.03747573 -0.03704339
 -0.0365947 -0.03612738 -0.03560239 -0.03501571 -0.03436411 -0.03364936 -0.03293274 -0.03221631 -0.03154889 -0.03091978
 -0.03030677 -0.02969657 -0.02903648 -0.02832619 -0.02753716 -0.02668198 -0.0257648 -0.02480065 -0.02380638 -0.02278816
 -0.02176241 -0.02070383 -0.01961458 -0.01843412 -0.01713912 -0.01571441 -0.01413906 -0.01250516 -0.01082153 -0.009162934
 -0.007538659 -0.005915246 -0.004291344 -0.002634752 -0.0009512088 0.0007159614 0.002368044 0.003978125 0.005573456 0.007224177
 0.008944851 0.01081859 0.01279258 0.01483276 0.01687897 0.01884259 0.02074719 0.02257466 0.02438094 0.02619178
 0.02802648 0.02989696 0.03180395 0.03373748 0.0357709 0.03789963 0.04031273 0.04302757 0.04611785 0.04957728
 0.05309005 0.05664038 0.05993256 0.06301501 0.06596503 0.06883191 0.07181069 0.07490113 0.07819365 0.08167551
 0.08534132 0.08925264 0.0934296 0.09804173 0.1032131 0.1090405 0.1156836 0.1228329 0.1304868 0.1380881
 0.1455006 0.1524901 0.1589863 0.1650953 0.1708139 0.1763632 0.181759 0.1873535 0.193179 0.1997282
 0.2069407 0.2148749 0.223271 0.231301 0.2389351 0.24562 0.251679 0.2573569 0.2628796 0.2686011
 0.2745046 0.2806975 0.2870728 0.2935979 0.3002276 0.3069623 0.3136728 0.320346 0.3267982 0.3329848
 0.3389679 0.3447461 0.3504608 0.3561119 0.3615133 0.3666428 0.3711855 0.3751766 0.3786159 0.3815692
 0.3842675 0.3866833 0.3888923 0.3907909 0.392216 0.3932261 0.3937898 0.3940682 0.3941719 0.394177
 0.3941568 0.3941003 0.3940274 0.3938754 0.3936416 0.3932331 0.3926409 0.3917636 0.3905889 0.3891144
 0.3873431 0.3854463 0.3834294 0.3814196 0.3793952 0.3773127 0.3751533 0.3728255 0.3703471 0.3676928
 0.3649354 0.3621605 0.3594518 0.3569286 0.3546275 0.352605 0.3508878 0.3494944 0.348467 0.3478309
 0.3475722 0.3477013 0.3481441 0.3488899 0.3499039 0.3511811 0.3527324 0.354558 0.3566508 0.359008
 0.3615971 0.3644153 0.3674343 0.3706502 0.3740366 0.3775893 0.381284 0.3851269 0.3891158 0.3932605
 0.3975732 0.4020525 0.4067019 0.4115155 0.4164902 0.4216256 0.426921 0.4323772 0.4379984 0.4437606
 0.449669 0.4556342 0.4616508 0.4676186 0.4735348 0.4794561 0.4853974 0.4915628 0.4979164 0.504414
 0.5109377 0.5170502 0.5227541 0.5278097 0.5323516 0.536521 0.5403033 0.5437723 0.5467796 0.5492149
 0.5510663 0.5522952 0.5529363 0.5530425 0.5524009 0.5509802 0.5485617 0.5450469 0.5408925 0.5361242
 0.5312033 0.5261467 0.5207828 0.5150992 0.508895 0.5021994 0.495067 0.487523 0.479721 0.4715649
 0.4629826 0.4537227 0.4432714 0.4317591 0.4188378 0.4056098 0.3928336 0.3810403 0.3709196 0.3617279
 0.3533512 0.3452027 0.337063 0.3290005 0.3209791 0.3132683 0.305899 0.2988624 0.2921567 0.2855613
 0.2790719 0.2725577 0.2660441 0.2595975 0.2532473 0.2471354 0.2412517 0.2356509 0.2302929 0.2251388
 0.2201611 0.2153263 0.2105878 0.205939 0.2012201 0.1963656 0.1911999 0.1855535 0.1797799 0.1738568
 0.168536 0.1639851 0.1601743 0.1571407 0.15435 0.1517771 0.1491188 0.1463885 0.1436422 0.140907
 0.1383719 0.1360158 0.133867 0.131893 0.1300154 0.1282673 0.1266521 0.1252424 0.1241307 0.123323
 0.1228679 0.1227037 0.1228095 0.1231445 0.1236818 0.124436 0.1253928 0.1266439 0.1281854 0.1302234
 0.1327771 0.1360006 0.1398992 0.144154 0.1487239 0.153007 0.1570193 0.1605353 0.1636153 0.1663554
 0.1687704 0.1709349 0.1728563 0.1745466 0.1761002 0.1775989 0.1791894 0.1810489 0.1831198 0.1854836
 0.1878101 0.1899762 0.1918673 0.1933977 0.1947496 0.1959343 0.1971344 0.198371 0.199709 0.2011524
 0.2026585 0.2042247 0.2057976 0.20739 0.2090369 0.2107715 0.212726 0.2149197 0.2174797 0.2203627
 0.2235575 0.2270186 0.2306659 0.2345535 0.2386893 0.2431467 0.2479893 0.2531694 0.2587013 0.2644561
 0.270393 0.2764964 0.2827404 0.2892877 0.2961541 0.3034325 0.3111271 0.3189014 0.3267179 0.3340009
 0.3407544 0.3467103 0.3519022 0.3563322 0.3599641 0.3627322 0.3645523 0.3652458 0.3648009 0.3631072
 0.3602699 0.3563159 0.3513933 0.3455801 0.3389938 0.3316836 0.3237512 0.3151978 0.3062603 0.2969413
 0.2876885 0.2785425 0.2698428 0.2616095 0.253797 0.2463907 0.239178 0.2321723 0.2253339 0.2187106
 0.2124618 0.2065936 0.2012175 0.1962721 0.1917122 0.1874715 0.1834563 0.1796318 0.1759396 0.1723718
 0.1689047 0.1655578 0.1623292 0.1592538 0.156343 0.1536004 0.1510333 0.1485977 0.1462901 0.1440761
 0.1419534 0.1399603 0.1381024 0.1364685 0.1350574 0.1339123 0.1330162 0.1323314 0.1318413 0.1314863
 0.1312616 0.1311327 0.1311014 0.1311594 0.1313021 0.131531 0.1318176 0.1321566 0.132492 0.1328073
 0.1330434 0.1331839 0.1331867 0.1330428 0.1327275 0.1322362 0.1315707 0.1307306 0.1297579 0.1286566
 0.1274896 0.1262614 0.1250293 0.1237997 0.1226241 0.1215091 0.1204977 0.1195883 0.1187992 0.1181231
 0.1175574 0.1170999 0.116748 0.1165017 0.1163639 0.1163219 0.1163763 0.116497 0.1166797 0.1168863
 0.1171115 0.1173183 0.1175026 0.1176383 0.1177235 0.1177519 0.1177241 0.1176495 0.1175294 0.1173773
 0.1171937 0.1169884 0.1167601 0.1165111 0.1162377 0.1159344 0.1155993 0.1152264 0.1148194 0.1143784
 0.1139095 0.1134159 0.1129031 0.1123728 0.1118334 0.1112862 0.1107425 0.1102044 0.1096801 0.1091706
 0.1086803 0.1082096 0.1077645 0.1073455 0.1069612 0.1066123 0.1063077 0.1060492 0.1058472 0.1057041
 0.1056312 0.1056306 0.1057112 0.105874 0.1061248 0.1064593 0.1068788 0.1073696 0.1079264 0.1085316
 0.1091772 0.1098523 0.1105527 0.1112726 0.1120118 0.1127575 0.1135094 0.1142445 0.1149615 0.1156361
 0.1162672 0.1168354 0.1173407 0.1177716 0.1181289 0.1184099 0.1186159 0.1187487 0.1188086 0.1187966
 0.1187148 0.118565 0.1183528 0.1180831 0.1177602 0.1173893 0.1169669 0.1164939 0.1159612 0.1153661
 0.1147044 0.1139733 0.1131842 0.1123368 0.1114564 0.1105447 0.1096251 0.108698 0.1077698 0.1068384
 0.1058948 0.104937 0.1039523 0.1029409 0.1018955 0.1008207 0.09971883 0.09860047 0.0974773 0.09636317
 0.09527307 0.09421621 0.09320304 0.09223311 0.09131052 0.0904246 0.08957519 0.0887441 0.08792893 0.08711196
 0.08629075 0.08545821 0.08461361 0.08376286 0.08290678 0.08205881 0.08122054 0.08040834 0.07962415 0.07888348
 0.07818855 0.07755161 0.07697657 0.07647438 0.07605124 0.07571874 0.07548124 0.07534672 0.07531503 0.07538784
 0.07556548 0.0758475 0.07623804 0.07673825 0.07735043 0.07807599 0.07891005 0.07985295 0.08089285 0.08202928
 0.08323917 0.08452049 0.08583736 0.087188 0.08854067 0.08989878 0.09125701 0.09262314 0.09401564 0.0954368
 0.0969025 0.09840267 0.099934 0.1014791 0.1030231 0.1045512 0.1060516 0.1075127 0.108929 0.1102859
 0.1115792 0.1127962 0.1139326 0.1149929 0.1159754 0.1169057 0.1177851 0.1186499 0.1195023 0.1203818
 0.1212912 0.1222692 0.1233177 0.1244651 0.1257101 0.1270641 0.1285238 0.1300893 0.1317549 0.1335163
 0.1353613 0.1372805 0.1392581 0.1412826 0.1433442 0.1454363 0.1475562 0.1497039 0.1518699 0.1540553
 0.1562327 0.1584006 0.1605199 0.1625879 0.164576 0.1664841 0.1683135 0.1700673 0.1717691 0.1734196
 0.1750361 0.1766137 0.1781486 0.179635 0.1810601 0.1824223 0.1837127 0.1849365 0.1860912 0.1871943
 0.1882517 0.1892887 0.1903164 0.1913537 0.192407 0.1934909 0.1946063 0.1957811 0.1970171 0.1983512
 0.199786 0.2013422 0.2030195 0.2048123 0.206717 0.2087077 0.2107765 0.2128813 0.2150097 0.2171115
 0.2191699 0.2211374 0.2229892 0.2246804 0.2261791 0.2274428 0.2284519 0.2291765 0.2296321 0.2298095
 0.2297613 0.2294926 0.2290817 0.2285391 0.2279488 0.2273211 0.2267149 0.2261355 0.2255981 0.2251025
 0.2246371 0.2242001 0.2237761 0.2233629 0.2229444 0.2225176 0.2220666 0.2215909 0.2210828 0.2205435
 0.2199723 0.2193685 0.2187313 0.2180615 0.2173597 0.2166265 0.2158649 0.2150639 0.2142235 0.2133215
 0.2123539 0.2113049 0.2101714 0.2089551 0.2076552 0.2062933 0.2048715 0.2034304 0.2019723 0.2005366
 0.1991191 0.1977252 0.1963452 0.1949535 0.1935471 0.1921061 0.1906367 0.1891407 0.1876182 0.1860751
 0.1844928 0.1828674 0.1811633 0.1793687 0.1774439 0.1753752 0.1731386 0.1707243 0.1681401 0.165383
 0.1624893 0.1594604 0.1563445 0.1531443 0.1499068 0.1466346 0.1433662 0.1401038 0.1368746 0.133682
 0.1305473 0.1274749 0.1244829 0.1215736 0.1187566 0.116034 0.1134092 0.1108879 0.1084759 0.1061713
 0.1039806 0.1018756 0.09985451 0.09787009 0.0959136 0.09394998 0.09197249 0.08997613 0.08795936 0.08594383
 0.08393149 0.0819627 0.08004123 0.07821444 0.07648534 0.07489289 0.07343666 0.07213793 0.07098911 0.06999052
 0.06912225 0.06836326 0.0676831 0.067049 0.06643356 0.06581004 0.06516476 0.06448442 0.06376904 0.06301436
 0.0622317 0.06142143 0.0606003 0.05977065 0.05894096 0.05811226 0.05728038 0.05644528 0.05560563 0.05476338
 0.05393261 0.05311775 0.05234444 0.05161856 0.05096976 0.05040161 0.04993799 0.04957103 0.04930517 0.04911705
 0.0489888 0.0488961 0.04881608 0.04874295 0.04866586 0.04859737 0.04853836 0.04850327 0.04849561 0.04852101
 0.04858091 0.04867456 0.0488022 0.04895911 0.04914462 0.04934374 0.04955344 0.04974301 0.04990782 0.05001087
 0.05004937 0.04999567 0.04985088 0.04960181 0.04925712 0.0488175 0.04830722 0.04774277 0.04716275 0.04659447
 0.0460704 0.04561319 0.04523228 0.04493649 0.04471974 0.04458246 0.04451726 0.04452353 0.04459373 0.04472749
 0.04491375 0.04515187 0.04543069 0.04574982 0.04610144 0.04648523 0.04689664 0.04733351 0.04778926 0.04825727
 0.04872196 0.04917696 0.04960387 0.05000912 0.05038906 0.05076109 0.05113742 0.0515234 0.05192831 0.05233689
 0.05274667 0.0531439 0.05352427 0.05388737 0.05423336 0.05455625 0.05485614 0.05511329 0.05532697 0.05548696
 0.05559556 0.05566793 0.05570822 0.05574371 0.0557765 0.05582702 0.05589487 0.05598906 0.05610786 0.05625286
 0.05642148 0.05661204 0.05682179 0.05704862 0.05729007 0.0575453 0.05780991 0.05808391 0.05835685 0.05862758
 0.05888214 0.05911795 0.05933154 0.05952176 0.05970352 0.05987772 0.06006434 0.06026364 0.06048536 0.06072981
 0.0610029 0.06130677 0.06165252 0.06203825 0.06246902 0.06293267 0.06341603 0.0639043 0.06437634 0.06482976
 0.06525362 0.06566031 0.06605209 0.06644229 0.06683674 0.06723753 0.06764665 0.0680599 0.06847659 0.0688972
 0.06932154 0.06975452 0.07019631 0.07064829 0.07111065 0.07158518 0.07207287 0.07258119 0.07310767 0.07365216
 0.07420395 0.07474197 0.07525548 0.07571664 0.07613045 0.07648633 0.07680874 0.0771082 0.07741302 0.07774044
 0.07810116 0.07850541 0.07893997 0.07940467 0.07988171 0.08036762 0.08086082 0.08136058 0.08187477 0.08240366
 0.08294891 0.08351061 0.08409061 0.08468885 0.08530966 0.08594621 0.08658259 0.08720593 0.08777839 0.08830098
 0.08875374 0.0891571 0.08952615 0.08987121 0.09021025 0.09052511 0.09081155 0.09105459 0.09124202 0.09139706
 0.09151886 0.09165069 0.0917998 0.09198213 0.09220111 0.09243071 0.09266954 0.09288515 0.09307905 0.09325287
 0.0934114 0.09358135 0.09376137 0.09396258 0.09417821 0.09439679 0.09461998 0.09484249 0.09507543 0.09532842
 0.09560873 0.09592519 0.09627829 0.0966726 0.09709863 0.09756015 0.09802107 0.09847808 0.09888041 0.09921789
 0.09948108 0.09966542 0.09982738 0.09997008 0.1001664 0.1004161 0.1007473 0.1011515 0.1016019 0.1020897
 0.1025696 0.103046 0.1035019 0.1039576 0.1044369 0.1049531 0.1055353 0.1061675 0.1068515 0.107557
 0.1082699 0.1089692 0.1096456 0.1102861 0.1108857 0.1114408 0.1119478 0.1124265 0.1128774 0.1133319
 0.1137917 0.1142774 0.1147902 0.115347 0.1159475 0.1166032 0.1173038 0.118026 0.1187505 0.1194223
 0.120034 0.1205472 0.1209736 0.1213119 0.1215734 0.121768 0.1218942 0.1219525 0.1219441 0.1218645
 0.1217376 0.1215629 0.1213872 0.1212159 0.1210921 0.121021 0.1210081 0.1210536 0.121135 0.1212529
 0.1214056 0.121597 0.1218496 0.1221615 0.1225393 0.122976 0.1234608 0.1239863 0.1245413 0.1251085
 0.1256633 0.1262014 0.126692 0.1272077 0.1277585 0.1284731 0.1294262 0.1305632 0.1319209 0.1332112
 0.1343843 0.1353533 0.1360978 0.1367396 0.1372839 0.1378158 0.138332 0.138827 0.1392915 0.1396739
 0.1399671 0.1401186 0.1401293 0.1399716 0.139661 0.139207 0.1386293 0.1379523 0.137187 0.1363448
 0.135444 0.1344898 0.1335192 0.1325417 0.1316013 0.1307064 0.1299041 0.1292019 0.1286369 0.1282152
 0.1279218 0.1277555 0.1276466 0.1275918 0.1275305 0.1274654 0.1273811 0.1272778 0.1271506 0.126993
 0.1267863 0.1265308 0.1262174 0.1258537 0.1254488 0.1249953 0.1244923 0.1239263 0.1232838 0.1225806
 0.1218091 0.1210288 0.1202426 0.1195484 0.1189588 0.1185612 0.1183684 0.1183726 0.1185735 0.1188778
 0.1192813 0.1197082 0.1201585 0.1205973 0.1210198 0.121388 0.1217061 0.1219561 0.1221662 0.1223736
 0.1225983 0.1228869 0.123215 0.1235862 0.1239526 0.1242881 0.1245706 0.1247813 0.1249367 0.125035
 0.1251059 0.125155 0.1251925 0.1252209 0.1252235 0.1251995 0.125144 0.1250599 0.1249798 0.1249043
 0.1248574 0.1248305 0.1248042 0.1247791 0.1247416 0.1247087 0.1247061 0.1247348 0.1248132 0.1249143
 0.125022 0.1251215 0.1251978 0.1252563 0.1252999 0.1253149 0.1253011 0.1252317 0.1251002 0.1249071
 0.1246508 0.1243533 0.1240155 0.1236466 0.1232457 0.1228032 0.1223187 0.121783 0.1212025 0.1205923
 0.1199649 0.1193607 0.1187768 0.118235 0.1177051 0.1171612 0.1165822 0.1159358 0.1152392 0.1144942
 0.1137134 0.1129093 0.1120553 0.1111456 0.1101674 0.1091122 0.1080213 0.1068972 0.1057811 0.1046755
 0.1035682 0.1024564 0.101299 0.1000966 0.09882626 0.0974992 0.09613531 0.0947601 0.09344186 0.09220065
 0.09110961 0.09014675 0.08932552 0.08859046 0.0879034 0.08722374 0.08651429 0.08577628 0.08499414 0.08421198
 0.08343062 0.08272504 0.08210794 0.08162615 0.08129088 0.08103938 0.08086857</values></Ydata></AB><ScSm><Ydata ylabel="Single channel"><values byteorder="INTEL" format="FLOAT32" numvalues="1814"> 0.0712789 0.0712764 0.07133825 0.07149063 0.07170453 0.07191308 0.07205945 0.07213356 0.07215592 0.07213587
 0.07207784 0.07202885 0.0720717 0.07224403 0.07248238 0.07266322 0.07270353 0.07263828 0.07260117 0.07269209
 0.07284026 0.07282867 0.07249647 0.07192123 0.07136911 0.07105188 0.07099347 0.07118054 0.07169582 0.07247927
 0.07305276 0.07286029 0.07196963 0.07110466 0.07084188 0.07105617 0.07126329 0.07118125 0.07081318 0.07033092
 0.0701281 0.07072277 0.07224835 0.07402299 0.07479098 0.07351828 0.07013185 0.06575348 0.06228689 0.06140019
 0.06335129 0.06664281 0.06914449 0.06979457 0.06911363 0.06813116 0.06727532 0.06650136 0.06600768 0.06627662
 0.06740889 0.0686744 0.06888944 0.06742649 0.06495665 0.06297484 0.06243662 0.0631554 0.06459957 0.06647862
 0.06793213 0.06705667 0.06277271 0.05720613 0.05474829 0.0578802 0.06452651 0.07009047 0.0715476 0.0691407
 0.06504513 0.06156108 0.0602528 0.06152986 0.06456223 0.06796676 0.07065012 0.07187441 0.07107393 0.06834037
 0.06490669 0.06255361 0.06251154 0.06497347 0.06906287 0.07292285 0.07455658 0.07329771 0.0702529 0.06713255
 0.06512577 0.06490728 0.06680429 0.07045592 0.07478923 0.07864298 0.0812442 0.08228756 0.08199687 0.0809789
 0.07976 0.0787067 0.07835394 0.07907262 0.08020601 0.08032121 0.07876935 0.07654579 0.07526019 0.07546972
 0.07623513 0.07626662 0.07523244 0.07354675 0.07108967 0.06718179 0.06214017 0.05769686 0.0552666 0.05486394
 0.05613166 0.05890399 0.06200463 0.06316425 0.06150435 0.05913517 0.05906628 0.06199203 0.0659276 0.0686284
 0.06966502 0.07027093 0.07175408 0.07416269 0.07610685 0.07580607 0.07285669 0.06922918 0.06787391 0.06982739
 0.07321776 0.07556643 0.07640015 0.076997 0.07814936 0.07894269 0.07771209 0.07401904 0.06972273 0.0678385
 0.06991531 0.07448499 0.07812867 0.07802312 0.07384472 0.06782296 0.06299049 0.06108898 0.06209883 0.06538767
 0.07040375 0.07609555 0.0806284 0.08241048 0.08126138 0.07830749 0.07470413 0.07058862 0.06567656 0.06098124
 0.0590299 0.06147645 0.06698231 0.07232705 0.07528591 0.07574701 0.07446353 0.07168639 0.06734543 0.06230509
 0.05878425 0.05865146 0.06118857 0.06348468 0.06347929 0.0618385 0.06047615 0.06015458 0.06019798 0.05994446
 0.05967826 0.06012021 0.06139307 0.06274139 0.06326786 0.06275798 0.06171152 0.06075178 0.06007112 0.05931239
 0.05807554 0.05670098 0.05624542 0.05732097 0.05924803 0.06075638 0.06126476 0.06108977 0.06060734 0.05962266
 0.05768006 0.05493457 0.05251838 0.05170552 0.05267151 0.05437983 0.0556691 0.05609274 0.05579174 0.0550688
 0.05419341 0.05331711 0.05250476 0.05191305 0.05175837 0.05199622 0.05225349 0.05220266 0.05182699 0.05125543
 0.0505325 0.04965288 0.04871404 0.04793037 0.04748096 0.04736352 0.0474233 0.04749961 0.04748198 0.04726708
 0.04679418 0.04613823 0.04546558 0.04488413 0.04440796 0.04404678 0.04383354 0.04375096 0.04369786 0.04356251
 0.04331014 0.0429811 0.04261905 0.04222919 0.04180961 0.04139585 0.04105357 0.04082335 0.04067355 0.04052458
 0.04033954 0.04016355 0.04003462 0.03989228 0.03963982 0.03927467 0.03889344 0.0385819 0.03835034 0.03816142
 0.03797135 0.03773858 0.03742721 0.03703637 0.03663481 0.03633627 0.03621074 0.03623386 0.0363324 0.03643795
 0.03648464 0.03641967 0.03625108 0.03604073 0.03582935 0.03560623 0.03535796 0.03511135 0.03492312 0.03484042
 0.03486108 0.03492746 0.03497071 0.03495571 0.03488268 0.03477782 0.03468882 0.03464612 0.03461799 0.03454427
 0.03441916 0.03430175 0.03424103 0.03422125 0.03418547 0.03409909 0.03398772 0.03391129 0.03389923 0.03392459
 0.03394541 0.03395075 0.03395698 0.03397446 0.03398569 0.03395493 0.03386743 0.0337567 0.0336742 0.03363581
 0.03362121 0.03361765 0.03363422 0.03367431 0.03371891 0.03374275 0.03373801 0.03371986 0.03370676 0.0336955
 0.03366521 0.03360848 0.03354422 0.03349459 0.0334626 0.03343658 0.03340548 0.03336614 0.03332147 0.03327394
 0.03322115 0.03315799 0.03308026 0.03298742 0.03288966 0.03281092 0.03277092 0.03276064 0.0327452 0.03269543
 0.03261228 0.0325212 0.03244654 0.03239247 0.03234871 0.03231101 0.03228778 0.03228587 0.03230029 0.03232169
 0.03234521 0.03237103 0.03240626 0.03246824 0.03257516 0.03272678 0.03289937 0.03306504 0.0332141 0.03335587
 0.03350118 0.03365067 0.03380097 0.03395628 0.03412862 0.03432519 0.0345353 0.03473335 0.03490138 0.03504893
 0.03520312 0.03538034 0.0355764 0.03578068 0.03598464 0.0361766 0.03634629 0.03650114 0.03666397 0.03684761
 0.03704137 0.03722975 0.03741474 0.03761102 0.03782561 0.03805367 0.03829234 0.03854859 0.0388296 0.03912923
 0.03942642 0.03969825 0.03993929 0.04017155 0.040431 0.0407386 0.04108289 0.04143184 0.04176166 0.0420747
 0.04238915 0.04271431 0.043043 0.04337171 0.04371571 0.04409076 0.04448717 0.04487857 0.04525463 0.04563024
 0.04602195 0.04642791 0.04683436 0.04723272 0.0476253 0.04801876 0.04841645 0.04881697 0.04921736 0.04961519
 0.05000875 0.05039955 0.05079309 0.05118968 0.05157402 0.05192617 0.05225 0.05257915 0.05294108 0.05332211
 0.05368412 0.05401364 0.05433615 0.05467879 0.0550379 0.05539401 0.05574438 0.05610372 0.05647733 0.05684786
 0.05719012 0.0574919 0.05776159 0.05802074 0.05828869 0.05857328 0.05887789 0.05921051 0.05957285 0.05994323
 0.06028645 0.06058303 0.06083922 0.06107407 0.06131163 0.06157865 0.06188908 0.0622295 0.06256969 0.06288406
 0.06316097 0.06340895 0.06366313 0.06396624 0.0643293 0.06472532 0.06512995 0.06554918 0.06599449 0.06645243
 0.06690107 0.06734477 0.06780712 0.0682898 0.06875935 0.06917925 0.06953746 0.06984042 0.07010581 0.0703743
 0.07070262 0.0711194 0.07159589 0.07207527 0.07252233 0.07293478 0.07331962 0.07367553 0.07399674 0.07428353
 0.07454443 0.07478782 0.07501435 0.07522386 0.07542579 0.07563017 0.07582597 0.07598091 0.07606632 0.07607046
 0.07598627 0.0758054 0.07553617 0.0752119 0.07486093 0.07447071 0.07399575 0.07340127 0.07268766 0.07187463
 0.07097845 0.07001456 0.06901646 0.06804462 0.06717557 0.06648034 0.06600919 0.06579141 0.06583875 0.06613435
 0.06661338 0.06716391 0.06765571 0.06797163 0.06802431 0.0677693 0.06722037 0.06644893 0.06555761 0.06464694
 0.06379525 0.06304983 0.06242834 0.06194105 0.06162623 0.06156449 0.06185605 0.06258669 0.0638058 0.06550454
 0.06758629 0.06986314 0.07211129 0.07415789 0.07593273 0.07745457 0.07878368 0.07998449 0.08110723 0.08217642
 0.08318687 0.08411697 0.08495072 0.08568673 0.0863283 0.08687079 0.08729976 0.08760017 0.08777111 0.08783768
 0.08784812 0.08785807 0.08791701 0.08806223 0.08830575 0.08861381 0.08890453 0.08907958 0.08906855 0.08885692
 0.08850034 0.08814112 0.08801506 0.08840796 0.08954307 0.09145084 0.09392134 0.09659553 0.09913531 0.1013439
 0.1031722 0.1046566 0.1058649 0.1068729 0.1077513 0.1085525 0.1093042 0.1100164 0.1106936 0.1113433
 0.1119723 0.1125837 0.113182 0.1137762 0.1143698 0.1149521 0.1155077 0.1160345 0.1165498 0.1170743
 0.1176132 0.1181525 0.1186769 0.1191871 0.1196943 0.1201993 0.1206885 0.1211528 0.1216014 0.1220529
 0.1225191 0.1229969 0.1234704 0.123919 0.1243322 0.1247168 0.1250891 0.1254606 0.1258344 0.1262109
 0.1265914 0.1269746 0.1273525 0.1277176 0.1280741 0.1284341 0.1287999 0.1291558 0.1294864 0.1297973
 0.1301107 0.1304412 0.1307823 0.1311197 0.1314514 0.1317936 0.1321642 0.1325637 0.1329702 0.133356
 0.1337098 0.1340441 0.1343815 0.1347347 0.1351012 0.1354721 0.1358417 0.1362075 0.136567 0.1369191
 0.1372659 0.1376107 0.1379531 0.1382897 0.1386207 0.1389517 0.1392888 0.1396339 0.1399888 0.1403589
 0.1407453 0.1411343 0.1415022 0.1418352 0.1421402 0.1424366 0.1427397 0.1430548 0.1433806 0.1437138
 0.1440505 0.1443857 0.144715 0.1450385 0.1453628 0.145697 0.1460441 0.1463974 0.1467463 0.1470858
 0.1474206 0.1477606 0.1481106 0.1484652 0.1488135 0.14915 0.1494795 0.1498083 0.1501362 0.1504577
 0.15077 0.1510766 0.1513852 0.1517023 0.1520278 0.1523564 0.1526816 0.1530002 0.1533138 0.1536268
 0.1539432 0.1542636 0.1545863 0.1549092 0.1552308 0.1555487 0.1558606 0.1561676 0.156475 0.1567891
 0.1571092 0.1574257 0.1577301 0.1580247 0.1583178 0.1586125 0.1589073 0.1592022 0.1595 0.159802
 0.1601071 0.16041 0.1607032 0.1609854 0.1612643 0.1615484 0.1618387 0.162133 0.1624301 0.1627281
 0.1630237 0.1633172 0.1636132 0.1639163 0.164225 0.164532 0.1648311 0.1651262 0.1654273 0.1657366
 0.1660466 0.1663512 0.1666504 0.1669449 0.1672346 0.1675209 0.1678068 0.1680956 0.1683879 0.168679
 0.1689614 0.1692367 0.1695179 0.1698135 0.1701206 0.1704333 0.1707475 0.1710583 0.1713609 0.1716565
 0.1719506 0.1722484 0.1725523 0.1728611 0.1731719 0.1734845 0.173799 0.1741122 0.1744232 0.1747363
 0.1750518 0.1753624 0.1756675 0.1759775 0.1762983 0.176625 0.1769514 0.1772741 0.1775916 0.1779077
 0.1782268 0.178543 0.1788468 0.1791385 0.1794255 0.1797139 0.1800106 0.1803203 0.1806354 0.180944
 0.1812444 0.1815403 0.181832 0.1821232 0.1824202 0.1827206 0.1830176 0.1833125 0.1836112 0.1839153
 0.1842261 0.1845419 0.1848538 0.1851587 0.1854673 0.1857854 0.1861051 0.1864175 0.1867132 0.1869687
 0.1871428 0.1871337 0.1866609 0.1851465 0.1817095 0.1753499 0.1653441 0.1516961 0.1352915 0.1175864
 0.1000747 0.08390076 0.06974585 0.05791367 0.04847492 0.04135837 0.03641031 0.0334995 0.03262655 0.03402923
 0.03829435 0.04601186 0.05648026 0.06656136 0.07190171 0.07036653 0.0640773 0.05747521 0.05363106 0.05276538
 0.05357383 0.05494249 0.05651483 0.05848608 0.06119803 0.06474596 0.06896266 0.0738492 0.07978077 0.08703233
 0.0952168 0.1034523 0.1111231 0.1183589 0.1257331 0.1335748 0.1416277 0.1493061 0.1561619 0.1621066
 0.1673199 0.1720443 0.1764479 0.1806103 0.1845743 0.1883445 0.1918004 0.1946544 0.196588 0.1974943
 0.1976006 0.1973428 0.1971072 0.197072 0.197245 0.1975845 0.198066 0.1986815 0.1994206 0.2002577
 0.2011525 0.2020683 0.2029856 0.2038918 0.2047649 0.2055808 0.2063278 0.2070102 0.2076413 0.2082326
 0.2087836 0.2092876 0.209749 0.210187 0.21062 0.2110537 0.211484 0.2118985 0.212281 0.2126227
 0.2129308 0.2132201 0.213503 0.2137862 0.2140711 0.2143559 0.2146415 0.2149315 0.2152274 0.2155267
 0.2158288 0.2161354 0.2164439 0.2167469 0.217037 0.217312 0.2175787 0.2178528 0.2181466 0.2184557
 0.2187628 0.2190553 0.2193312 0.2195959 0.2198609 0.2201402 0.2204417 0.2207609 0.2210852 0.2214016
 0.2217067 0.2220109 0.2223276 0.2226578 0.2229925 0.2233264 0.2236568 0.22398 0.2242988 0.224621
 0.2249433 0.2252495 0.2255332 0.2258124 0.2261136 0.2264509 0.2268152 0.2271815 0.2275301 0.2278614
 0.2281855 0.2285053 0.2288151 0.2291103 0.2294001 0.2297178 0.2301006 0.230543 0.2309925 0.2314083
 0.2317964 0.2321779 0.2325613 0.2329518 0.2333485 0.2337244 0.2340447 0.2343185 0.2346128 0.2350041
 0.2355086 0.2360577 0.2365579 0.2369747 0.2373418 0.2377089 0.2381087 0.2385333 0.2388985 0.2390995
 0.2391732 0.23934 0.239796 0.2405105 0.2412878 0.2419729 0.2425394 0.243028 0.2434699 0.2438577
 0.244152 0.2443238 0.2444245 0.2446133 0.2450524 0.2457384 0.2464882 0.2471268 0.2476268 0.2480406
 0.2484038 0.2487351 0.2489999 0.2490441 0.2487553 0.2483622 0.2483815 0.2491155 0.2503053 0.2514062
 0.2521298 0.2525926 0.2530028 0.253407 0.2537532 0.2539426 0.2537102 0.2527725 0.2513778 0.250466
 0.2508933 0.2525698 0.2546124 0.2562283 0.2572138 0.2577602 0.2581162 0.2584212 0.258597 0.2583508
 0.2575084 0.2564529 0.256021 0.2567276 0.2581877 0.2595305 0.2602876 0.2606377 0.2609317 0.2612992
 0.2615628 0.261202 0.2596474 0.2571188 0.2550493 0.2550836 0.2574739 0.2607802 0.2632947 0.2645064
 0.2649784 0.2651076 0.2645389 0.2628082 0.2600412 0.2569123 0.2544423 0.2538491 0.2557381 0.2591007
 0.2618863 0.263024 0.2633279 0.264149 0.2657616 0.2673749 0.2681708 0.2679338 0.2669052 0.2653412
 0.2633906 0.2615145 0.2607433 0.2619498 0.2647904 0.2678261 0.269857 0.2708328 0.2712305 0.2706665
 0.2676011 0.2611797 0.2535787 0.2494394 0.2517722 0.2588006 0.2658755 0.2700599 0.2717459 0.2724766
 0.2728706 0.2724461 0.2699007 0.2638259 0.2549232 0.2474017 0.2461437 0.251886 0.2603851 0.266373
 0.2671598 0.2629386 0.2558309 0.2492508 0.2465191 0.2488456 0.2547894 0.2616927 0.2672862 0.2703007
 0.2704483 0.2683024 0.2652377 0.2630896 0.2628469 0.263197 0.2614973 0.2571069 0.2524551 0.2494778
 0.2466238 0.2417339 0.2367574 0.2364698 0.2422604 0.249823 0.2539892 0.253965 0.2524512 0.2507413
 0.2465527 0.2373501 0.2251471 0.2165933 0.2171439 0.2254189 0.2344412 0.2384445 0.2374457 0.2352388
 0.2342968 0.2332588 0.2289089 0.2203844 0.2112545 0.2065283 0.2073685 0.2100546 0.2104045 0.2071898
 0.2007189 0.191353 0.1817124 0.1775856 0.1830416 0.1953935 0.2073081 0.2128838 0.2098534 0.1982084
 0.1807919 0.1648235 0.1584291 0.1634441 0.1732344 0.1788211 0.1760434 0.1663152 0.152704 0.1377358
 0.1244583 0.1168596 0.1174505 0.1246781 0.1332377 0.1369023 0.1319508 0.1198618 0.1072038 0.1009247
 0.1022571 0.1060522 0.1066045 0.1027991 0.09730385 0.09294118 0.09096843 0.09111062 0.09195228 0.09216692
 0.0915651 0.08986826 0.0853164 0.07686317 0.06733978 0.06166348 0.06169294 0.06522632 0.06998996 0.07563803
 0.0811971 0.08371538 0.08160217 0.077713 0.07695179 0.0810829 0.08719455 0.09121642 0.09193964 0.09126274
 0.09120317 0.09165058 0.09144475 0.09089246 0.09187382 0.0952262 0.09927042 0.1016847 0.1019447 0.1011245
 0.1001043 0.09892443 0.09739657 0.09547967 0.09322312 0.09081712 0.08854213 0.08645481 0.08434813 0.08207767
 0.07956523 0.07639328 0.07191479 0.06623395 0.06079533 0.05729447 0.05594768 0.05554179 0.05522053 0.05506695
 0.0545333 0.0518719 0.04648083 0.04091012 0.03901861 0.04225644 0.04860485 0.05487188 0.05906414 0.06052959
 0.05908277 0.0553627 0.05198511 0.05272948 0.05938058 0.06997183 0.08094084 0.09021221 0.09730738 0.1015936
 0.102198 0.09965011 0.09649579 0.0958868 0.09971848 0.1077226 0.1173755 0.1243494 0.1246172 0.1185861
 0.1131947 0.1167864 0.1301396 0.1449446 0.1531097 0.1550474 0.1562977 0.1589095 0.1604445 0.1602413
 0.1618791 0.1682695 0.1773039 0.1838757 0.184327 0.1778778 0.1661115 0.1532705 0.1451744 0.1446925
 0.1487024 0.1516525 0.1510416 0.1471755 0.139833 0.1294863 0.1207628 0.1197312 0.1268547 0.13605
 0.1416112 0.1434022 0.1443971 0.145476 0.1443762 0.1391575 0.1314054 0.125234 0.1231764 0.1239307
 0.1245033 0.1233694 0.1205753 0.1160003 0.1094052 0.1020664 0.0967804 0.0955022 0.09745418 0.09999356
 0.1011035 0.100736 0.1000625 0.1000812 0.100987 0.1023372 0.1037403 0.105745 0.1097528 0.1163629
 0.1241352 0.1309336 0.1363347 0.1417404 0.148119 0.1545315 0.159126 0.161081 0.1614251 0.1622325
 0.1649919 0.1693901 0.1735174 0.1754971 0.1752672 0.1747989 0.1762766 0.179996 0.1842988 0.187463
 0.1891324 0.1899436 0.1904937 0.1908724 0.1906523 0.1892525 0.1868821 0.1851088 0.1857823 0.1891974
 0.1937747 0.1976203 0.199989 0.2012195 0.2017766 0.2017086 0.2009091 0.1996013 0.1983687 0.1977172
 0.1977337 0.1981948 0.1988505 0.199535 0.2001473 0.2006558 0.2010888 0.2014792 0.2018513 0.2022492
 0.2027089 0.2031948 0.2036344 0.2040365 0.2045122 0.2051321 0.2058076 0.2063655 0.206694 0.2067476
 0.2064563 0.205745 0.2046417 0.2032673 0.2016934 0.1999052 0.1979799 0.1962641 0.1952691 0.1953099
 0.1962383 0.197553 0.1987634 0.1996411 0.2001939 0.200524 0.2007449 0.200954 0.2012078 0.2015128
 0.2018565 0.202242 0.2026854 0.2031852 0.2037137 0.2042488 0.2048061 0.2054255 0.2061279 0.2068912
 0.2076601 0.2083714 0.2089809 0.2094799 0.2098843 0.2102077 0.2104506 0.2106098 0.2106907 0.2107112
 0.2107011 0.2106905 0.2106785 0.2106119 0.2104067 0.2099959 0.2093408 0.2084038 0.2071602 0.2056633
 0.2040537 0.2024551 0.2008784 0.1992589 0.1975524 0.1957555 0.193866 0.1918771 0.1898057 0.1876922
 0.1855725 0.1834682 0.1814005 0.1793956 0.1774679 0.175602 0.1737573 0.171889 0.1699625 0.1679479
 0.1658039 0.1634662 0.1608519 0.1578839 0.1545129 0.1507196 0.146516 0.141968 0.1372177 0.1324596
 0.1278795 0.1236053 0.1197029 0.1162085 0.1131601 0.1106003 0.1085592 0.107044 0.1060443 0.1055372
 0.1054902 0.1058616 0.1065869 0.1075631 0.108656 0.1097293 0.1106678 0.1113978 0.1119138 0.1122926
 0.1126596 0.1131252 0.1137412 0.1145081 0.1154049 0.1163954 0.1174097 0.1183535 0.1191619 0.1198363
 0.1204191 0.1209484 0.1214441 0.1219206 0.1223923 0.1228714 0.1233652 0.1238758 0.1244102 0.124992
 0.1256551 0.1264237 0.1273023 0.1282791 0.1293317 0.1304377 0.1315857 0.1327731 0.1339999 0.1352727
 0.1366122 0.1380558 0.1396638 0.1415201 0.143703 0.1462396 0.1490899 0.1521686 0.1553734 0.1586013
 0.1617545 0.1647442 0.167498 0.16997 0.172141 0.1740169 0.1756381 0.1770801 0.1784238 0.1797175
 0.1809671 0.1821442 0.1831957 0.1840632 0.184706 0.1851106 0.1852936 0.1853111 0.1852511 0.1851957
 0.1851876 0.1852321 0.185318 0.1854359 0.1855859 0.1857718 0.1859792 0.186165 0.1862701 0.186244
 0.1860631 0.185732 0.1852686 0.1846848 0.1839854 0.1831755 0.1822577 0.1812249 0.18007 0.1788018
 0.1774517 0.1760667 0.1746946 0.1733713 0.1721118 0.1708972 0.1696616 0.1683148 0.1668063 0.1651696
 0.1634897 0.1618387 0.1602413 0.1586836 0.1571375 0.1555921 0.154069 0.1526054 0.1512251 0.1499282
 0.1486962 0.1475068 0.1463517 0.1452448 0.1442083 0.1432627 0.1424336 0.1417451 0.141194 0.1407447
 0.1403537 0.1399917 0.1396537 0.1393651 0.1391631 0.1390529 0.1389866 0.1388974 0.1387454 0.1385304
 0.138279 0.1380231 0.1377847 0.1375683 0.1373556 0.1371002 0.1367351 0.1361973 0.1354411 0.1344335
 0.1331576 0.1316281 0.1298966 0.1280505 0.1262114 0.1245061 0.1230182 0.1217726 0.1207609 0.1199553
 0.1193059 0.1187601 0.1182987 0.1179432 0.1177264 0.1176414 0.1176047 0.117496 0.1172696 0.117011
 0.116858 0.116886 0.1170813 0.1173832 0.117721 0.1180312 0.1182679 0.1184092 0.1184639 0.118461
 0.1184113 0.1182925 0.1180912 0.1178328 0.1175462 0.1172305 0.1168695 0.1164473 0.1159458 0.115354
 0.114676 0.1139128 0.1130592 0.1121233 0.1111168 0.1100433 0.1089465 0.1079549 0.1072389 0.1069231
 0.1070264 0.1074468 0.1080172 0.1086098 0.1091425 0.1094722 0.109434 0.1091131 0.1089734 0.1095276
 0.1108497 0.1124919 0.1138772 0.1146989 0.1149479 0.1147135 0.1140797 0.113127 0.1118894 0.110335
 0.1084648 0.1063646 0.1041256 0.1018226 0.09958331 0.09755397 0.09580065 0.09432306 0.0931118 0.09220491
 0.09171154 0.0913588 0.08974377 0.08506533 0.07788035 0.07235882 0.0728003 0.07881783 0.08559489 0.08899482
 0.08888248 0.08745553 0.08625112 0.08552428 0.08521195 0.08541372 0.08620836 0.08747503 0.08890372 0.0901572
 0.09106497 0.09161027 0.09173062 0.09116457 0.08941267 0.08589195 0.08041479 0.0736353 0.06684117 0.06120937
 0.05728866 0.05501779 0.05396094 0.05354731 0.05334282 0.05325197 0.05347089 0.05423731 0.05562422 0.05754678
 0.0598757 0.06243121 0.06490238 0.06695814 0.06850245 0.06969596 0.07068698 0.0714362 0.07182667 0.07183024
 0.07152887 0.07104439 0.07047774 0.06987621 0.06922054 0.06844835 0.06754468 0.06664106 0.06596094 0.06561387
 0.06550477 0.06548275 0.06549148 0.06553871 0.0656184 0.06571141 0.06581013 0.065937 0.06616087 0.06654668
 0.06706149 0.06758208 0.06800696 0.0683253 0.06858906 0.06882593 0.06895169 0.06883267 0.06851661 0.06827512
 0.06825188 0.06820065 0.06779743 0.06712721 0.06663766 0.06664456 0.06705379 0.06754321 0.06786484 0.06796353
 0.06795105 0.06804599 0.06843497 0.06905954</values></Ydata></ScSm><ScRf><Ydata ylabel="Single channel"><values byteorder="INTEL" format="FLOAT32" numvalues="1820"> 0.06067434 0.06083068 0.06091938 0.06094359 0.06093391 0.06094021 0.06101057 0.06116141 0.06136269 0.06155375
 0.06168415 0.06174576 0.06175797 0.06172966 0.0616652 0.06160838 0.06163637 0.0617851 0.06199817 0.0621644
 0.06220716 0.06215138 0.06210876 0.06216705 0.06227212 0.062245 0.06195224 0.06146026 0.06099106 0.06071766
 0.06065937 0.06081466 0.0612655 0.0619595 0.06247338 0.06231675 0.06154417 0.06078252 0.0605351 0.06070068
 0.06086534 0.06078474 0.06045915 0.06003792 0.05986396 0.06038366 0.06170643 0.06323893 0.06389724 0.06279108
 0.0598598 0.05607522 0.05308382 0.05232412 0.05401294 0.05685367 0.05900894 0.05956703 0.05898232 0.05814747
 0.05743196 0.05678848 0.05637388 0.05659671 0.05755035 0.05861743 0.05878395 0.05751116 0.05538115 0.05368306
 0.05323213 0.053858 0.05510241 0.05671994 0.05796881 0.05720569 0.05350467 0.04870903 0.04661037 0.04934324
 0.0551062 0.05992167 0.06117304 0.05907514 0.05552407 0.05252275 0.05141798 0.05254058 0.05515775 0.05808253
 0.06038783 0.0614436 0.06076032 0.05841628 0.05547154 0.0534533 0.05341969 0.05554493 0.0590787 0.06241345
 0.06381874 0.06272162 0.06008555 0.05739177 0.05566499 0.05548341 0.05712771 0.06028875 0.06404412 0.0673927
 0.06966269 0.07058099 0.07033607 0.06946213 0.06843095 0.06756103 0.0672942 0.06792882 0.06889519 0.06897214
 0.06761877 0.06570379 0.06461258 0.06481517 0.0654938 0.0655358 0.06465791 0.06321558 0.06109548 0.05770282
 0.05331855 0.04945856 0.04735973 0.04703821 0.04818751 0.05066199 0.05342395 0.05448151 0.05306476 0.05101319
 0.05094737 0.05347503 0.05688047 0.05922398 0.06013921 0.06069934 0.06203426 0.06417259 0.06589657 0.06565844
 0.06311351 0.05998657 0.05885696 0.06062837 0.06365938 0.06578427 0.0665991 0.06722684 0.0683513 0.06915435
 0.06816751 0.06501726 0.06136276 0.05986761 0.06187716 0.06607181 0.06942451 0.06943652 0.06581885 0.06056457
 0.05639886 0.05489272 0.05604282 0.0593087 0.06420947 0.06977239 0.07429002 0.07627517 0.07553574 0.07309585
 0.07002797 0.0664606 0.0621264 0.05800713 0.0565462 0.05934312 0.06510486 0.07071904 0.07403232 0.07492817
 0.07411303 0.07178175 0.06782551 0.06313664 0.06003398 0.06045649 0.06362459 0.06648296 0.06689888 0.06560808
 0.06464303 0.06480245 0.06535132 0.06558174 0.06582795 0.06689893 0.06892047 0.07103041 0.07221143 0.07221238
 0.07159376 0.07107502 0.07087848 0.07056412 0.06965308 0.0685914 0.06869158 0.07069249 0.07374 0.07626398
 0.07755049 0.07799673 0.07805816 0.07744545 0.0755418 0.07256597 0.07004528 0.06968353 0.07171284 0.07474636
 0.07721597 0.07850015 0.07878172 0.0784793 0.07796137 0.07742633 0.07696599 0.07682163 0.07732233 0.07840912
 0.07953037 0.08019692 0.08038253 0.08026654 0.07988073 0.07919402 0.07837571 0.07779479 0.07775246 0.07825758
 0.07907295 0.07992773 0.08061244 0.0809387 0.08080547 0.08034531 0.07984953 0.07950561 0.07932846 0.0793342
 0.07959931 0.08010243 0.08065202 0.0810452 0.08122622 0.08125581 0.08119522 0.08106454 0.08088043 0.08070381
 0.08064307 0.08077778 0.08105901 0.08134007 0.08154879 0.08176093 0.08203761 0.08226934 0.08228815 0.08209374
 0.08186784 0.08177675 0.081835 0.08195423 0.08204459 0.08203326 0.08184758 0.08147795 0.08107273 0.08088514
 0.08107083 0.0815759 0.08222981 0.08286694 0.0833516 0.08360497 0.08366475 0.08364505 0.08360247 0.08349711
 0.08329886 0.08308381 0.08300748 0.08318751 0.08359923 0.084086 0.0844832 0.08472057 0.08481969 0.0848583
 0.08494155 0.08512168 0.08531895 0.08539551 0.08532959 0.085251 0.08528312 0.08540264 0.08548069 0.08543734
 0.08533508 0.08531635 0.08545533 0.08568983 0.0859054 0.08606182 0.08621551 0.08642304 0.08663891 0.08673281
 0.08663067 0.0864163 0.08624764 0.08618926 0.08619158 0.0862233 0.08633333 0.0865506 0.08679315 0.08693673
 0.08695239 0.08693022 0.08696353 0.0870398 0.08706364 0.08696981 0.08679043 0.08661978 0.08653744 0.08656184
 0.08664954 0.08672588 0.08673146 0.0866566 0.08653754 0.08641972 0.08632808 0.0862781 0.08630639 0.08645763
 0.08671295 0.08694658 0.08699962 0.08682385 0.08653964 0.08633076 0.08627757 0.08629937 0.08625299 0.08607105
 0.08580226 0.08554237 0.08535113 0.08522871 0.08514364 0.08507196 0.08502369 0.08504038 0.08514869 0.08529861
 0.08536805 0.08526315 0.08501287 0.08474112 0.08455399 0.0844748 0.08446513 0.08447178 0.08446817 0.08447869
 0.08454295 0.08463855 0.08467984 0.08461955 0.0845124 0.08445743 0.08451611 0.08469079 0.08492261 0.08509718
 0.08511727 0.08500183 0.08487409 0.08483545 0.08488496 0.08496684 0.08505005 0.0851373 0.08523007 0.08532324
 0.08543041 0.08558764 0.0858184 0.0860998 0.08636843 0.0865632 0.08667275 0.08675189 0.0868873 0.08713252
 0.08746558 0.08780811 0.08808789 0.08828986 0.08845209 0.08861554 0.08878919 0.08897259 0.08919063 0.08947319
 0.08980694 0.09014183 0.09044641 0.09072997 0.09101173 0.09129645 0.0915847 0.09189108 0.09224437 0.09266192
 0.09310994 0.09349942 0.09375222 0.09387934 0.09398113 0.09417108 0.09449714 0.09490553 0.09526545 0.09546932
 0.09554255 0.09562699 0.09582586 0.0960977 0.09634136 0.09655114 0.09682776 0.09723724 0.0977115 0.0981105
 0.0983602 0.09850976 0.09866086 0.09885613 0.09904582 0.09916419 0.0992206 0.09928952 0.09941931 0.09959567
 0.0998069 0.1000911 0.1004768 0.1009111 0.101296 0.1015793 0.1017778 0.1019293 0.102055 0.1021528
 0.1022064 0.1022146 0.1022212 0.1022847 0.1024034 0.1025085 0.1025508 0.1025627 0.1026138 0.1027409
 0.1029447 0.1032202 0.1035475 0.1038734 0.1041541 0.1044179 0.1047373 0.1051161 0.1054493 0.1056346
 0.1056881 0.1057023 0.1057262 0.1057506 0.105795 0.1059265 0.1061785 0.1065061 0.1068444 0.1071738
 0.1075099 0.1078555 0.1081772 0.1084182 0.1085355 0.108538 0.1084947 0.1084995 0.10862 0.1088656
 0.1091885 0.1095163 0.1097922 0.1099864 0.1100783 0.1100613 0.1099853 0.1099601 0.1100699 0.1102769
 0.1104409 0.1104371 0.1102352 0.1098674 0.1093633 0.1087422 0.1080522 0.1073818 0.1068227 0.1064273
 0.1062091 0.1061832 0.1063865 0.1068366 0.1074744 0.1081739 0.1088161 0.1093242 0.1096256 0.1096348
 0.1093148 0.1087319 0.1080173 0.1072882 0.1066119 0.1060056 0.1054374 0.1048682 0.1043388 0.1040056
 0.1040641 0.1046312 0.1056895 0.1071004 0.1086483 0.1101077 0.1113293 0.1122921 0.1130746 0.1137708
 0.1144334 0.1150841 0.1157423 0.1164117 0.1170516 0.1176056 0.1180646 0.1184744 0.1188777 0.1192731
 0.1196305 0.1199243 0.1201579 0.1203659 0.1205797 0.1207757 0.1208837 0.1208631 0.1207504 0.1206145
 0.1204834 0.1203254 0.1200851 0.1197314 0.1192981 0.1189062 0.1187382 0.1189619 0.119638 0.1206818
 0.121924 0.123217 0.1244754 0.1256251 0.1265684 0.1272402 0.1276745 0.1279778 0.1282476 0.1285309
 0.1288379 0.1291605 0.1294789 0.129774 0.1300437 0.1303083 0.1305996 0.1309339 0.1312874 0.1316072
 0.1318631 0.1320873 0.1323505 0.1326932 0.1330858 0.1334621 0.1337908 0.1341004 0.1344228 0.1347343
 0.1349816 0.1351575 0.1353164 0.1355213 0.1358029 0.1361576 0.1365453 0.1368927 0.1371415 0.1373028
 0.1374433 0.137618 0.1378368 0.1380843 0.1383439 0.138603 0.1388567 0.1391161 0.1394013 0.1397148
 0.1400218 0.1402698 0.1404383 0.1405648 0.1407116 0.1409078 0.141131 0.1413437 0.1415386 0.1417489
 0.1420139 0.1423323 0.1426511 0.1429065 0.1430774 0.1431962 0.1433146 0.1434659 0.1436535 0.1438623
 0.1440746 0.144281 0.144484 0.1446937 0.1449162 0.1451443 0.1453626 0.1455632 0.1457542 0.1459488
 0.1461525 0.146363 0.1465824 0.1468258 0.147109 0.1474217 0.1477194 0.1479545 0.1481173 0.1482379
 0.1483537 0.148487 0.1486454 0.1488251 0.1490159 0.1492107 0.1494119 0.1496226 0.1498379 0.1500493
 0.1502543 0.1504572 0.150662 0.15087 0.1510832 0.1513077 0.1515464 0.1517875 0.1520083 0.1521969
 0.1523671 0.1525459 0.1527482 0.1529638 0.15317 0.1533552 0.153529 0.1537086 0.1539002 0.1540994
 0.1543026 0.1545084 0.1547114 0.1549035 0.1550832 0.155258 0.1554385 0.1556316 0.1558362 0.1560442
 0.1562485 0.1564485 0.1566467 0.1568438 0.1570388 0.1572326 0.1574293 0.1576329 0.1578426 0.1580524
 0.1582553 0.1584478 0.1586322 0.1588165 0.1590088 0.1592098 0.1594135 0.1596153 0.1598169 0.1600201
 0.1602247 0.1604303 0.1606349 0.1608356 0.1610356 0.1612461 0.1614726 0.1617052 0.1619281 0.1621346
 0.1623303 0.1625265 0.1627312 0.1629439 0.1631607 0.1633813 0.1636054 0.1638264 0.1640359 0.1642321
 0.1644192 0.164601 0.1647785 0.1649507 0.1651176 0.1652849 0.1654613 0.1656491 0.1658437 0.1660401
 0.166234 0.166421 0.1666029 0.1667899 0.1669901 0.1672009 0.1674151 0.1676271 0.1678329 0.1680312
 0.1682252 0.1684215 0.1686267 0.1688436 0.1690665 0.1692837 0.1694891 0.1696871 0.1698865 0.1700936
 0.1703078 0.1705205 0.1707247 0.1709251 0.1711305 0.1713419 0.171558 0.1717807 0.1720053 0.1722188
 0.1724179 0.1726142 0.1728168 0.1730261 0.1732418 0.1734606 0.173674 0.1738789 0.174082 0.1742915
 0.1745133 0.1747484 0.1749853 0.1752073 0.1754132 0.1756149 0.1758178 0.1760214 0.1762297 0.1764438
 0.1766586 0.1768727 0.1770853 0.1772777 0.1774014 0.1773424 0.1768256 0.1753105 0.1719722 0.1658612
 0.1562835 0.1432406 0.1275809 0.1106962 0.09401076 0.07861371 0.06515196 0.05390949 0.0449455 0.03818718
 0.03348954 0.0307293 0.02990207 0.03122498 0.03524986 0.04253577 0.0524194 0.06193209 0.0669595 0.06549022
 0.05953735 0.05330049 0.04967487 0.04885767 0.04960886 0.05087531 0.05232427 0.05414744 0.05667744 0.06001206
 0.06399189 0.06860434 0.07418735 0.08099762 0.0886844 0.0964298 0.1036488 0.1104476 0.1173593 0.1247024
 0.1322467 0.1394426 0.1458625 0.151418 0.1562782 0.1606765 0.1647785 0.1686638 0.1723704 0.1758926
 0.1791054 0.181735 0.1834914 0.184287 0.1843407 0.1840556 0.1837832 0.1836869 0.1837836 0.1840466
 0.1844525 0.1849827 0.1856236 0.1863589 0.1871555 0.1879739 0.1887904 0.1895932 0.1903675 0.1910967
 0.1917717 0.1923893 0.1929504 0.1934618 0.1939302 0.194358 0.1947495 0.1951154 0.195466 0.1958076
 0.196142 0.1964643 0.1967655 0.1970423 0.197298 0.1975367 0.1977627 0.1979831 0.1982017 0.1984142
 0.1986178 0.1988178 0.1990204 0.1992261 0.199433 0.1996377 0.1998353 0.2000242 0.2002108 0.2004036
 0.2006032 0.2008031 0.200996 0.2011803 0.2013627 0.2015517 0.2017482 0.2019464 0.2021432 0.2023428
 0.2025502 0.2027635 0.2029731 0.2031688 0.2033518 0.2035381 0.2037429 0.2039644 0.2041896 0.2044109
 0.2046277 0.2048387 0.2050444 0.2052487 0.2054488 0.205632 0.205791 0.2059407 0.2061107 0.2063187
 0.2065528 0.2067844 0.2069982 0.2072015 0.2074029 0.2075976 0.2077768 0.2079401 0.2080992 0.2082792
 0.2085045 0.208769 0.2090365 0.2092827 0.2095172 0.2097563 0.2100013 0.2102472 0.210484 0.2106854
 0.2108291 0.2109383 0.2110843 0.2113326 0.2116802 0.21205 0.2123608 0.2126006 0.2128168 0.2130538
 0.2133231 0.2135963 0.2137889 0.2138161 0.2137272 0.213731 0.2140093 0.2145352 0.2151246 0.2156228
 0.2159969 0.216291 0.2165484 0.2167704 0.2169169 0.2169535 0.2169211 0.2169604 0.2172175 0.2176956
 0.2182377 0.2186854 0.2190048 0.2192385 0.2194249 0.2195889 0.2196991 0.2196139 0.2192323 0.2187589
 0.2186511 0.2191751 0.2201081 0.2209803 0.2215406 0.2218798 0.222165 0.222432 0.2226409 0.2227095
 0.2224025 0.2214699 0.2201412 0.2192587 0.219578 0.2210033 0.2227375 0.2240795 0.224863 0.2252707
 0.2255269 0.2257519 0.2258703 0.2256173 0.2248329 0.2238509 0.2234116 0.2239789 0.2252226 0.2263756
 0.2270164 0.2272882 0.2274904 0.2277432 0.2279094 0.2275453 0.2261484 0.2239046 0.2220721 0.2220935
 0.2241775 0.2270429 0.229192 0.2302011 0.2305878 0.2306943 0.2301846 0.2286441 0.2261989 0.2234522
 0.221293 0.2207795 0.2224394 0.2253872 0.2278267 0.2288263 0.2291076 0.2298565 0.2313077 0.2327545
 0.2334675 0.233262 0.2323684 0.231022 0.2293518 0.2277612 0.2271539 0.2282851 0.2308396 0.2335508
 0.2353765 0.2362923 0.2367272 0.2363226 0.2336887 0.2280713 0.2214233 0.2178588 0.2200181 0.2263129
 0.2326384 0.2364125 0.2379911 0.2387395 0.2391963 0.2389265 0.2367789 0.2315141 0.2237653 0.2172739
 0.2163557 0.2216198 0.2292708 0.2346577 0.2354425 0.2318221 0.2256803 0.2200385 0.2178298 0.2201147
 0.2256122 0.2319614 0.2371444 0.2400403 0.2403987 0.2387173 0.2362128 0.2345383 0.2345839 0.2351547
 0.2338783 0.2302061 0.2263306 0.2239699 0.2217119 0.217628 0.2135082 0.2136807 0.2193844 0.2266926
 0.2309235 0.231385 0.2305269 0.2294755 0.2261025 0.218087 0.2073136 0.1999595 0.2010954 0.2094193
 0.2184189 0.2227545 0.2225068 0.221252 0.2212905 0.2212961 0.2181734 0.2110957 0.2035469 0.2003932
 0.2027089 0.2068246 0.2086723 0.2070197 0.2020321 0.1939802 0.1856029 0.1829534 0.1902948 0.2048907
 0.2191476 0.226867 0.2255132 0.21486 0.1978865 0.1826137 0.1782012 0.186734 0.2006842 0.2098385
 0.2094031 0.2008484 0.1875464 0.1724824 0.1596583 0.1545059 0.160628 0.1761432 0.1937177 0.2041917
 0.2016346 0.1879861 0.173517 0.1694457 0.1776919 0.1895151 0.195288 0.1932345 0.1880659 0.1849419
 0.1865012 0.1923658 0.1995354 0.2052121 0.20903 0.209878 0.2028958 0.1853121 0.1641697 0.1516857
 0.152569 0.1616128 0.1734647 0.1874362 0.2011259 0.2071116 0.2013145 0.190712 0.1873918 0.1957141
 0.2085824 0.2161345 0.2155082 0.2113547 0.2086608 0.207443 0.2052378 0.2028491 0.2045487 0.2121845
 0.2219564 0.2286609 0.2311029 0.2316254 0.2321336 0.2326469 0.2326421 0.2319305 0.2305833 0.2290563
 0.2280446 0.2276967 0.2274767 0.2269734 0.2258722 0.2227254 0.2152599 0.2035732 0.1921731 0.1864076
 0.1867945 0.1893811 0.1916236 0.1938704 0.1938757 0.1852605 0.1659328 0.144997 0.1361317 0.1443734
 0.1623636 0.1787359 0.1868243 0.1852361 0.1744586 0.1570665 0.1404299 0.1343952 0.1432477 0.1615962
 0.1801318 0.1936504 0.2016266 0.2037449 0.1989089 0.188419 0.1772563 0.1712283 0.1734259 0.1828671
 0.1948294 0.2020635 0.1983363 0.1846255 0.1718543 0.172832 0.1888176 0.207432 0.2165771 0.2166847
 0.2158074 0.2170924 0.2172239 0.2152244 0.2159779 0.2235434 0.2351955 0.2441118 0.2453606 0.2378541
 0.2237302 0.20884 0.2012081 0.2045617 0.2140289 0.2213821 0.2229672 0.2192102 0.2097702 0.1955809
 0.1839878 0.1843277 0.197113 0.2128195 0.2227078 0.2267824 0.2298171 0.2331393 0.2330196 0.2263215
 0.2157414 0.2081488 0.2077929 0.2125892 0.217659 0.2204787 0.2209004 0.218229 0.2116605 0.2036066
 0.1997202 0.2039762 0.214533 0.2254256 0.2318743 0.233266 0.2317629 0.2294952 0.2271299 0.2240347
 0.2196899 0.2155317 0.2146837 0.2186254 0.224846 0.2294287 0.2315386 0.2337008 0.2378212 0.2425582
 0.2449601 0.2436904 0.2402956 0.2378523 0.2385006 0.241751 0.2448493 0.2451201 0.2425084 0.2398734
 0.240359 0.2443939 0.2496269 0.2536059 0.2557806 0.256992 0.2580266 0.2589267 0.2589621 0.2571844
 0.2537713 0.2508029 0.2507868 0.2541713 0.2589218 0.2626259 0.2644424 0.2649542 0.2648339 0.2641435
 0.2627382 0.2609072 0.259379 0.2587395 0.2590126 0.2598209 0.260778 0.2616495 0.2623217 0.2627825
 0.2630905 0.2632916 0.2634016 0.2634642 0.2635322 0.2635776 0.2635239 0.2634051 0.2633924 0.2635961
 0.2639131 0.2641358 0.264142 0.2638967 0.2633384 0.2624006 0.2611415 0.2597252 0.2582301 0.2565939
 0.2548614 0.2534438 0.2529876 0.2538818 0.2558973 0.2583349 0.2605105 0.2620941 0.2630852 0.2636193
 0.2638485 0.2639107 0.2639007 0.2638438 0.2637186 0.2635077 0.2632207 0.2628795 0.2625027 0.2621126
 0.2617424 0.261422 0.2611486 0.2608795 0.2605596 0.260156 0.2596732 0.2591427 0.2585931 0.2580198
 0.2573821 0.256637 0.2557755 0.2548321 0.2538737 0.2529732 0.2521657 0.2514191 0.2506654 0.2498603
 0.2489816 0.2479897 0.2468539 0.2456426 0.2445241 0.2436331 0.2429551 0.2423616 0.2417232 0.2409718
 0.2400966 0.2391276 0.2381122 0.2370755 0.2360039 0.2348725 0.2336719 0.2324018 0.2310562 0.2296258
 0.2281087 0.2265185 0.2248864 0.223246 0.2215925 0.2198535 0.2179034 0.2156037 0.2128311 0.2094939
 0.2055593 0.2010905 0.1962541 0.1912738 0.1863591 0.181667 0.1773165 0.1734156 0.1700617 0.1673279
 0.1652555 0.1638604 0.163148 0.1631266 0.1638025 0.165156 0.1671224 0.1695912 0.1724136 0.1754127
 0.1784023 0.1812213 0.1837827 0.1861096 0.1883 0.1904204 0.1924382 0.1942734 0.1958912 0.1973123
 0.1985529 0.1996004 0.2004506 0.2011386 0.2017202 0.2022323 0.202678 0.2030512 0.2033606 0.2036242
 0.2038516 0.2040475 0.2042245 0.204401 0.2045909 0.204802 0.2050404 0.2053213 0.2056756 0.20613
 0.2066693 0.20724 0.2078051 0.2083769 0.208987 0.2096485 0.2103682 0.2111762 0.2121208 0.2132302
 0.2144872 0.2158378 0.2172125 0.218537 0.2197357 0.2207441 0.2215199 0.2220432 0.2223193 0.2223878
 0.2223118 0.2221402 0.2218851 0.2215373 0.221092 0.220556 0.2199444 0.2192806 0.2185946 0.2179105
 0.2172361 0.2165662 0.2158961 0.2152268 0.2145577 0.2138853 0.2132156 0.2125674 0.2119575 0.2113845
 0.2108323 0.2102798 0.2097114 0.2091295 0.2085503 0.207972 0.2073505 0.2066263 0.205776 0.2048225
 0.2037949 0.2026971 0.2015195 0.2002618 0.1989307 0.1975238 0.1960311 0.1944465 0.1927711 0.191005
 0.1891426 0.1871822 0.1851486 0.1831068 0.1811437 0.1793238 0.1776593 0.1761154 0.1746426 0.1732152
 0.1718474 0.1705658 0.1693678 0.1682253 0.1671218 0.166065 0.1650617 0.164109 0.1632109 0.1623876
 0.16166 0.1610315 0.160488 0.1600116 0.1595916 0.1592242 0.1589168 0.1586994 0.15861 0.1586481
 0.1587543 0.158845 0.1588592 0.1587774 0.1586245 0.1584557 0.1583221 0.1582427 0.1582065 0.1581742
 0.1580691 0.1577878 0.1572352 0.1563548 0.1551404 0.1536285 0.1518836 0.1500027 0.1481279 0.1464134
 0.1449605 0.1438027 0.1429389 0.142332 0.1418906 0.1415151 0.1411781 0.1409423 0.1408949 0.1410507
 0.1412986 0.1414732 0.1415154 0.1415354 0.1417025 0.1421115 0.1427489 0.1435158 0.1442755 0.1449294
 0.1454507 0.1458376 0.1460814 0.1461949 0.1462159 0.1461695 0.1460609 0.1458927 0.1456647 0.1453788
 0.1450458 0.1446574 0.144176 0.1435854 0.14291 0.1421677 0.1413561 0.1404724 0.1394854 0.1383394
 0.137077 0.1359223 0.1351697 0.1350052 0.1354218 0.1362421 0.1372427 0.1383019 0.1393548 0.1402066
 0.1405989 0.1406021 0.1407912 0.1418253 0.1438281 0.1462594 0.1483978 0.1498633 0.1506486 0.1508245
 0.1504143 0.1494669 0.1480297 0.1460814 0.1436283 0.1407904 0.1377221 0.1345797 0.1315809 0.1289231
 0.1266703 0.1248201 0.1233805 0.1224061 0.1220272 0.1218617 0.1199987 0.1139962 0.1046494 0.09766221
 0.09883822 0.1075502 0.1171895 0.1221475 0.122274 0.1205596 0.1190635 0.1180878 0.1175242 0.1175293
 0.118244 0.1195206 0.1209564 0.1221371 0.1228895 0.123252 0.1231855 0.122328 0.1199414 0.1151845
 0.1077918 0.09863898 0.08944349 0.08178318 0.07639918 0.07319868 0.07158159 0.07079009 0.07028198 0.06998923
 0.07021996 0.07128456 0.07323252 0.07591273 0.07913377 0.0826332 0.08598986 0.08879887 0.09097128 0.09270833
 0.09415906 0.09524001 0.09580089 0.09582636 0.09543492 0.09477836 0.09398986 0.09315698 0.09226967 0.09122991
 0.09001164 0.08881329 0.08794204 0.08751993 0.0874016 0.08738583 0.08738708 0.08739588 0.08740269 0.08739612
 0.08737233 0.08735488 0.0874301 0.08769767 0.08814442 0.08861805 0.08895352 0.08910537 0.08914894 0.08913212
 0.08892918 0.08836029 0.08751878 0.08678246 0.08632386 0.0858015 0.08479832 0.08345089 0.08237682 0.08201356
 0.08223275 0.08258198 0.08271059 0.08254433 0.08225091 0.08214869 0.08249494 0.08318453 0.08373562 0.08373792
</values></Ydata></ScRf><Data_Parameters_AB><parameter name="DPF">1</parameter><parameter name="NPT">3497</parameter><parameter name="FXV">3996</parameter><parameter name="LXV">500</parameter><parameter name="CSF">1</parameter><parameter name="MXY">0.553042531013489</parameter><parameter name="MNY">-0.069924883544445</parameter><parameter name="DAT">31/05/2022</parameter><parameter name="TIM">11:48:20.299 (GMT+2)</parameter><parameter name="DXU">WN</parameter></Data_Parameters_AB><AB__Qtest><MainReport name="Quality Test Report"><Header><Line><Legend>Test result ok/not ok [1/0]: </Legend><Value>0</Value></Line><Line><Legend>Method file: </Legend><Value>C:\Users\Public\Documents\Bruker\OPUS_8.2.28\QT\IRBT_v3_default.QT</Value></Line></Header><Matrix><Line><Legend></Legend><Legend>min</Legend><Legend>max</Legend><Legend>measured</Legend></Line><Line><Value>Absorption (X-Range 1):</Value><Value>0.400000</Value><Value>2.000000</Value><Value>0.454799</Value></Line><Line><Value>Noise (X-Range 4):</Value><Value></Value><Value>0.000300</Value><Value>0.000081</Value></Line><Line><Value>Signal/Noise (X-Range 2):</Value><Value>200.000000</Value><Value></Value><Value>125.078848</Value></Line><Line><Value>Signal/Noise (X-Range 3):</Value><Value>40.000000</Value><Value></Value><Value>66.413184</Value></Line><Line><Value>Water vapour (X-Range 5):</Value><Value></Value><Value>0.000300</Value><Value>0.000084</Value></Line><Line><Value>Signal/Water (X-Range 2):</Value><Value>100.000000</Value><Value></Value><Value>121.064235</Value></Line><Line><Value>Signal/Water (X-Range 3):</Value><Value>20.000000</Value><Value></Value><Value>64.281543</Value></Line><Line><Value>Fringes (X-Range 6):</Value><Value></Value><Value>0.000100</Value><Value>0.000063</Value></Line></Matrix></MainReport></AB__Qtest><Data_Parameters_ScSm><parameter name="DPF">1</parameter><parameter name="NPT">1814</parameter><parameter name="FXV">3996.33169228125</parameter><parameter name="LXV">499.541461535156</parameter><parameter name="CSF">1</parameter><parameter name="MXY">0.272870630025864</parameter><parameter name="MNY">0.0322858653962612</parameter><parameter name="DAT">31/05/2022</parameter><parameter name="TIM">11:48:20.299 (GMT+2)</parameter><parameter name="DXU">WN</parameter></Data_Parameters_ScSm><Data_Parameters_ScRf><parameter name="DPF">1</parameter><parameter name="NPT">1820</parameter><parameter name="FXV">4004.04661832813</parameter><parameter name="LXV">495.683998511719</parameter><parameter name="CSF">1</parameter><parameter name="MXY">0.264954209327698</parameter><parameter name="MNY">0.0299020651727915</parameter><parameter name="DAT">31/05/2022</parameter><parameter name="TIM">11:47:53.823 (GMT+2)</parameter><parameter name="DXU">WN</parameter></Data_Parameters_ScRf><Optic_Parameters_Rf><parameter name="APR">0</parameter><parameter name="APT">Open</parameter><parameter name="BMS">KBr</parameter><parameter name="DTC">RT-DLaTGS_IR-Biotyper [Microplate reader]</parameter><parameter name="HPF">0</parameter><parameter name="LPF">10.0</parameter><parameter name="LPV">4000</parameter><parameter name="PGR">0</parameter><parameter name="RCH">Module port</parameter><parameter name="RDX">0</parameter><parameter name="SRC">MIR</parameter><parameter name="VEL">10.0</parameter><parameter name="SON">Off</parameter></Optic_Parameters_Rf><Acquisition_Parameters_Rf><parameter name="ADT">1</parameter><parameter name="AQM">DD</parameter><parameter name="CFE">0</parameter><parameter name="COR">0</parameter><parameter name="DEL">0</parameter><parameter name="DLY">0</parameter><parameter name="HFW">8000</parameter><parameter name="LFW">0</parameter><parameter name="NSR">32</parameter><parameter name="PLF">AB</parameter><parameter name="RES">6</parameter><parameter name="RGN">-1</parameter><parameter name="STR">0</parameter><parameter name="TCL">MakeCompatibleScalar (0, {WSV=1.000000, ARV=0});</parameter><parameter name="TDL">37</parameter><parameter name="RPO">0</parameter></Acquisition_Parameters_Rf><FT_-_Parameters_Rf><parameter name="APF">B3</parameter><parameter name="HFQ">500</parameter><parameter name="LFQ">4000</parameter><parameter name="NLI">0</parameter><parameter name="PHR">24</parameter><parameter name="PHZ">ML</parameter><parameter name="SPZ">NO</parameter><parameter name="ZFF">1</parameter></FT_-_Parameters_Rf><Optic_Parameters_><parameter name="APR">0</parameter><parameter name="APT">Open</parameter><parameter name="BMS">KBr</parameter><parameter name="CHN">Module port</parameter><parameter name="DTC">RT-DLaTGS_IR-Biotyper [Microplate reader]</parameter><parameter name="HPF">0</parameter><parameter name="LPF">10.0</parameter><parameter name="LPV">4000</parameter><parameter name="PGN">0</parameter><parameter name="RDX">0</parameter><parameter name="SRC">MIR</parameter><parameter name="VEL">10.0</parameter><parameter name="SON">Off</parameter></Optic_Parameters_><FT_-_Parameters_><parameter name="APF">B3</parameter><parameter name="HFQ">500</parameter><parameter name="LFQ">4000</parameter><parameter name="NLI">0</parameter><parameter name="PHR">24</parameter><parameter name="PHZ">ML</parameter><parameter name="SPZ">NO</parameter><parameter name="ZFF">1</parameter></FT_-_Parameters_><Acquisition_Parameters_><parameter name="ADT">1</parameter><parameter name="AQM">DD</parameter><parameter name="CFE">0</parameter><parameter name="COR">0</parameter><parameter name="DEL">0</parameter><parameter name="DLY">0</parameter><parameter name="HFW">8000</parameter><parameter name="LFW">0</parameter><parameter name="NSS">32</parameter><parameter name="PLF">AB</parameter><parameter name="RES">6</parameter><parameter name="SOT">0</parameter><parameter name="TCL">MakeCompatibleScalar (0, {WSV=1.000000, ARV=0});</parameter><parameter name="TDL">37</parameter><parameter name="SPO">0</parameter><parameter name="SGN">-1</parameter></Acquisition_Parameters_><Instrument_Parameters_Rf><parameter name="HFL">15800.168544</parameter><parameter name="LFL">0</parameter><parameter name="LWN">15800.168544</parameter><parameter name="ABP">32197</parameter><parameter name="SSP">1</parameter><parameter name="ARG">2</parameter><parameter name="ASG">2</parameter><parameter name="ASS">32</parameter><parameter name="GFW">16</parameter><parameter name="GBW">16</parameter><parameter name="BFW">0</parameter><parameter name="BBW">0</parameter><parameter name="PKA">7264</parameter><parameter name="PKL">4996</parameter><parameter name="PRA">7447</parameter><parameter name="PRL">5001</parameter><parameter name="P2A">1</parameter><parameter name="P2L">1</parameter><parameter name="P2R">1</parameter><parameter name="P2K">1</parameter><parameter name="DAQ">0</parameter><parameter name="AG2">1</parameter><parameter name="SSM">1</parameter><parameter name="RSN">25501</parameter><parameter name="CRR">0</parameter><parameter name="SRT">1653997673.824</parameter><parameter name="DUR">19.6379852294922</parameter><parameter name="TSC">28.9</parameter><parameter name="MVD">0.180663153529167</parameter><parameter name="AN1">0.225800502147169</parameter><parameter name="AN2">0</parameter><parameter name="VSN">2.485 Apr  4 2017</parameter><parameter name="SRN">0085</parameter><parameter name="CAM">0</parameter><parameter name="INS">IR-Biotyper</parameter><parameter name="FOC">69</parameter><parameter name="RDY">1</parameter><parameter name="ARS">32</parameter></Instrument_Parameters_Rf><Sample_Parameters_><parameter name="BLD"></parameter><parameter name="CNM">Admin</parameter><parameter name="CPY"></parameter><parameter name="DPM"></parameter><parameter name="EXP">IRBT_v3_32Scans.XPM</parameter><parameter name="LCT"></parameter><parameter name="SFM">Microplate, HTS-XT</parameter><parameter name="SNM">220531-1021(v.3)_FBG21M (D_3)_D10_c04a19dd-55e9-4a10-8b4c-48c2fd13c79b.0</parameter><parameter name="XPP">C:\Users\Public\Documents\Bruker\OPUS_8.2.28\XPM</parameter><parameter name="IST">OK</parameter><parameter name="CPG">1252</parameter><parameter name="UID">c788a067-6c88-4750-af4a-79ad20678f96</parameter></Sample_Parameters_><Instrument_Parameters_><parameter name="HFL">15800.168544</parameter><parameter name="LFL">0</parameter><parameter name="LWN">15800.168544</parameter><parameter name="ABP">32197</parameter><parameter name="SSP">1</parameter><parameter name="ASG">2</parameter><parameter name="ARG">2</parameter><parameter name="ASS">32</parameter><parameter name="GFW">16</parameter><parameter name="GBW">16</parameter><parameter name="BFW">0</parameter><parameter name="BBW">0</parameter><parameter name="PKA">6350</parameter><parameter name="PKL">4988</parameter><parameter name="PRA">6582</parameter><parameter name="PRL">4993</parameter><parameter name="P2A">1</parameter><parameter name="P2L">1</parameter><parameter name="P2R">1</parameter><parameter name="P2K">1</parameter><parameter name="DAQ">0</parameter><parameter name="AG2">1</parameter><parameter name="SSM">1</parameter><parameter name="RSN">13376</parameter><parameter name="CRR">0</parameter><parameter name="SRT">1653997700.3</parameter><parameter name="DUR">19.6379852294922</parameter><parameter name="TSC">28.9</parameter><parameter name="MVD">0.380867451429367</parameter><parameter name="AN1">0.225804152264983</parameter><parameter name="AN2">0</parameter><parameter name="VSN">2.485 Apr  4 2017</parameter><parameter name="SRN">0085</parameter><parameter name="CAM">0</parameter><parameter name="INS">IR-Biotyper</parameter><parameter name="FOC">69</parameter><parameter name="RDY">1</parameter></Instrument_Parameters_><History/></OPUSDataFile>
