<?xml version="1.0" encoding="UTF-8" ?>
<OPUSDataFile><AB><Ydata ylabel="Absorbance Units"><values byteorder="INTEL" format="FLOAT32" numvalues="3497"> -0.09256848 -0.09255351 -0.09252682 -0.0924892 -0.09242726 -0.09234036 -0.09223998 -0.0921274 -0.09202234 -0.09192486
 -0.09184597 -0.09178329 -0.09173436 -0.09169719 -0.09166518 -0.09163962 -0.09161942 -0.09160713 -0.09160717 -0.09161508
 -0.09163173 -0.09164355 -0.09164351 -0.0916229 -0.09157363 -0.09150718 -0.09142254 -0.09134346 -0.09127416 -0.09122556
 -0.09120031 -0.09118574 -0.09118127 -0.09116633 -0.09114086 -0.09109818 -0.09104101 -0.09098191 -0.09092326 -0.09088168
 -0.09085419 -0.09084438 -0.09084286 -0.09083664 -0.09081697 -0.09076653 -0.09068847 -0.09057553 -0.09044652 -0.09030759
 -0.09018002 -0.09007457 -0.08999628 -0.0899511 -0.08992352 -0.0899127 -0.08990018 -0.08988347 -0.08985987 -0.08982911
 -0.08980191 -0.08977871 -0.08976843 -0.08976978 -0.08978008 -0.08979688 -0.0898101 -0.089818 -0.08981119 -0.08978985
 -0.08974907 -0.08969256 -0.08962128 -0.08954275 -0.08946301 -0.0893878 -0.08932333 -0.08926655 -0.08921915 -0.08917126
 -0.08912035 -0.08906144 -0.08899188 -0.0889209 -0.08884826 -0.08879382 -0.08875865 -0.08876097 -0.08880033 -0.0888773
 -0.08898632 -0.08909603 -0.08919741 -0.08923744 -0.08921933 -0.0891178 -0.08895606 -0.08876022 -0.08855159 -0.08836742
 -0.08821146 -0.08810209 -0.08802589 -0.08798318 -0.08795141 -0.08792142 -0.08788196 -0.08782541 -0.08776462 -0.08769938
 -0.08765087 -0.08762222 -0.08761366 -0.08762553 -0.08763237 -0.08763318 -0.08760744 -0.08755778 -0.08748996 -0.08740786
 -0.08732963 -0.08725509 -0.08719303 -0.08714102 -0.08709773 -0.08706436 -0.08704171 -0.08703122 -0.08703782 -0.08705039
 -0.08706725 -0.08706797 -0.08704206 -0.08698706 -0.08689544 -0.08679641 -0.08669157 -0.08662026 -0.08658785 -0.0866074
 -0.08668053 -0.08674724 -0.08680256 -0.08675268 -0.08660784 -0.08638566 -0.08610383 -0.08584122 -0.08559907 -0.08542004
 -0.08529747 -0.08524223 -0.08523877 -0.08527837 -0.08533251 -0.08537614 -0.08538743 -0.08534043 -0.08525193 -0.0851174
 -0.08497652 -0.08484107 -0.08472472 -0.08463386 -0.08455518 -0.08448785 -0.08442212 -0.08435726 -0.0842983 -0.08424555
 -0.08420563 -0.08417729 -0.08415642 -0.08413993 -0.08411384 -0.08407617 -0.08401377 -0.08392895 -0.08381827 -0.0836885
 -0.08354564 -0.08339711 -0.08325072 -0.0831117 -0.08298457 -0.08287358 -0.08278092 -0.08271056 -0.08266456 -0.08264195
 -0.08264445 -0.08265931 -0.08268651 -0.08270215 -0.08270483 -0.0826728 -0.08260613 -0.08250365 -0.08236828 -0.08221876
 -0.08205763 -0.08190453 -0.08176037 -0.08163745 -0.08153503 -0.08145896 -0.08140378 -0.08136779 -0.08133852 -0.08130552
 -0.08125879 -0.08118717 -0.08109555 -0.08098173 -0.08085813 -0.08072802 -0.0805975 -0.08046771 -0.08034418 -0.08022692
 -0.08012876 -0.08005054 -0.07999933 -0.07997432 -0.07996199 -0.07995982 -0.07994263 -0.07991162 -0.07985637 -0.0797834
 -0.07970436 -0.0796237 -0.07955591 -0.07949897 -0.07945733 -0.07942431 -0.07939494 -0.07936689 -0.0793349 -0.07930798
 -0.07928841 -0.07928394 -0.07930075 -0.0793236 -0.0793537 -0.0793568 -0.07932902 -0.07925073 -0.07912023 -0.07893938
 -0.0787093 -0.07844757 -0.07815871 -0.07788251 -0.0776226 -0.07741642 -0.07726064 -0.07716834 -0.07712807 -0.07713001
 -0.07715273 -0.077166 -0.07715513 -0.07709174 -0.07698874 -0.07684353 -0.0766778 -0.07650099 -0.07632174 -0.07614587
 -0.07596747 -0.07578626 -0.07559711 -0.07539826 -0.07520074 -0.07500497 -0.07482924 -0.07467407 -0.074549 -0.07445276
 -0.07438299 -0.07433465 -0.07428824 -0.07423566 -0.07414196 -0.07401201 -0.0738332 -0.07362702 -0.07341804 -0.0732142
 -0.07303575 -0.0728679 -0.0727089 -0.07254063 -0.07235267 -0.07214516 -0.07191362 -0.07167435 -0.07142996 -0.07119031
 -0.07095822 -0.07072274 -0.0704837 -0.07021435 -0.06991429 -0.06957354 -0.06919766 -0.06882326 -0.06845415 -0.0681288
 -0.06783921 -0.06758343 -0.06735346 -0.06713404 -0.06692041 -0.06670358 -0.06647216 -0.06621491 -0.06591895 -0.06556832
 -0.06517535 -0.06473794 -0.06428276 -0.06382065 -0.06334881 -0.06287025 -0.06236576 -0.06183232 -0.06126982 -0.06067769
 -0.06007156 -0.05945248 -0.05883987 -0.05823483 -0.05765589 -0.05710146 -0.05657659 -0.05607573 -0.05558561 -0.05510459
 -0.054623 -0.05414256 -0.05366695 -0.05318175 -0.05268006 -0.05213591 -0.05152297 -0.05085737 -0.05013185 -0.0493968
 -0.04866974 -0.04795973 -0.04727409 -0.04659234 -0.0459125 -0.04522371 -0.0445248 -0.04382022 -0.04311072 -0.04241225
 -0.0417252 -0.04106416 -0.0404212 -0.03977522 -0.03910873 -0.03835439 -0.0375228 -0.03658686 -0.0356039 -0.03464385
 -0.03372945 -0.03291821 -0.0321731 -0.03149064 -0.03082686 -0.03016072 -0.02947162 -0.02874663 -0.02799252 -0.02720717
 -0.02640836 -0.02559839 -0.0247849 -0.02396893 -0.02314156 -0.02230243 -0.02144351 -0.02056693 -0.01968583 -0.01880252
 -0.01793539 -0.01708146 -0.01624239 -0.01541334 -0.01458631 -0.01375709 -0.01291713 -0.01206355 -0.01118747 -0.01029896
 -0.009398225 -0.008506673 -0.007637447 -0.006787796 -0.005966226 -0.005131869 -0.004277753 -0.003376546 -0.002419573 -0.001442492
 -0.0004465579 0.0005164132 0.001445518 0.002335015 0.003188508 0.004031873 0.004867198 0.005718198 0.006581921 0.00746398
 0.008356774 0.009247237 0.01013322 0.01100183 0.01186731 0.01273607 0.01362662 0.01455743 0.01552129 0.01652467
 0.01753677 0.01854839 0.01954546 0.02052154 0.0214857 0.02243789 0.02339005 0.02434304 0.02530525 0.02627672
 0.02725564 0.02824036 0.02921601 0.03018261 0.03113047 0.032065 0.03299643 0.03392968 0.03488087 0.03584715
 0.03683311 0.03782982 0.03883153 0.03982857 0.04081262 0.04178002 0.04272542 0.04365547 0.04457049 0.0454793
 0.04638443 0.0472859 0.04818355 0.04908106 0.0499782 0.05089317 0.05182649 0.05278643 0.05377021 0.05475777
 0.05574684 0.05671509 0.05766568 0.05859693 0.05951093 0.06041133 0.06129808 0.0621707 0.06303447 0.06389359
 0.0647537 0.06562153 0.06649322 0.06736911 0.06824354 0.06911398 0.06998161 0.07084662 0.07170807 0.07256644
 0.07341456 0.07425196 0.07507314 0.07587796 0.07666522 0.0774358 0.07819529 0.0789469 0.07970875 0.08048244
 0.08128501 0.08210914 0.08294979 0.08379672 0.08463192 0.08545461 0.08625692 0.08704285 0.08781391 0.08856928
 0.08930859 0.0900326 0.09074017 0.09143865 0.0921296 0.09281627 0.09349958 0.09417755 0.09484999 0.09551848
 0.0961831 0.09684546 0.09750551 0.09816246 0.09881762 0.09947691 0.1001414 0.1008197 0.1015064 0.1021968
 0.1028816 0.1035448 0.1041841 0.1047895 0.1053674 0.105918 0.1064514 0.1069715 0.1074896 0.1080103
 0.1085393 0.1090798 0.1096267 0.1101795 0.1107334 0.1112879 0.1118452 0.1124052 0.1129645 0.1135219
 0.114065 0.1145946 0.1151075 0.1156063 0.1160981 0.1165812 0.1170557 0.1175186 0.1179638 0.118395
 0.118813 0.1192246 0.1196361 0.1200478 0.1204626 0.1208739 0.1212808 0.1216752 0.1220549 0.1224164
 0.1227579 0.1230892 0.1234105 0.1237401 0.1240786 0.1244318 0.124798 0.1251642 0.1255291 0.1258808
 0.1262204 0.126546 0.1268568 0.127151 0.1274274 0.1276817 0.1279191 0.1281415 0.1283588 0.128579
 0.1288057 0.1290447 0.1292882 0.1295363 0.1297755 0.1300028 0.130212 0.1304011 0.1305761 0.1307373
 0.1308894 0.1310321 0.131154 0.1312541 0.1313157 0.1313416 0.1313348 0.131302 0.1312649 0.1312275
 0.1312092 0.1312087 0.1312325 0.1312769 0.131341 0.1314211 0.1315145 0.1316198 0.1317352 0.1318617
 0.1320006 0.1321464 0.1323013 0.1324428 0.1325699 0.1326496 0.1326787 0.1326395 0.132532 0.1323764
 0.1321763 0.131977 0.1317792 0.1316121 0.1314693 0.131345 0.1312369 0.1311345 0.1310469 0.1309851
 0.1309495 0.1309527 0.1309665 0.1309778 0.1309558 0.1308754 0.1307485 0.1305665 0.1303796 0.1301973
 0.1300565 0.1299671 0.129918 0.1299108 0.129898 0.1298772 0.1298005 0.1296686 0.1294679 0.1292067
 0.1289179 0.1286131 0.128348 0.1281251 0.1279817 0.1279018 0.1278834 0.127896 0.1279093 0.1278972
 0.1278276 0.1277035 0.1275112 0.1272869 0.1270365 0.1268018 0.1265936 0.1264348 0.12633 0.1262902
 0.1263166 0.1264233 0.1266109 0.1268787 0.1272217 0.1275919 0.1279769 0.1282867 0.128515 0.1285868
 0.1285219 0.1283163 0.1280178 0.1276923 0.1273849 0.1271747 0.1270598 0.1270768 0.1271641 0.1273101
 0.1274308 0.1274952 0.1274538 0.1272831 0.1270028 0.1266064 0.1261719 0.1257042 0.1252813 0.1249067
 0.1246013 0.1243617 0.1241582 0.1239893 0.1238298 0.1236865 0.1235695 0.1234824 0.1234452 0.1234405
 0.1234597 0.1234623 0.1234061 0.1232544 0.12296 0.1225317 0.1219483 0.1212772 0.1205294 0.1197887
 0.1190773 0.1184392 0.1178869 0.1174137 0.1170212 0.1166781 0.1163826 0.1160941 0.1158106 0.1154951
 0.1151519 0.1147809 0.1143946 0.1140376 0.1137108 0.1134483 0.113221 0.1130041 0.1127607 0.1124345
 0.1120286 0.1115142 0.1109483 0.1103451 0.1097758 0.1092711 0.1088586 0.1085593 0.1083269 0.1081641
 0.1079755 0.1077532 0.1074249 0.1069874 0.1064494 0.1058172 0.1051622 0.1044893 0.1038632 0.1032792
 0.1027564 0.1022853 0.1018541 0.1014559 0.101075 0.1007065 0.1003407 0.09997232 0.09959585 0.09920454
 0.09879322 0.0983595 0.09789865 0.09742343 0.09693351 0.09645383 0.09598891 0.09554892 0.09513679 0.09472998
 0.09432732 0.09389593 0.09343609 0.09293915 0.09240975 0.09186866 0.09132024 0.09079129 0.09028016 0.08979814
 0.08933733 0.08889124 0.0884512 0.08800414 0.08754899 0.08707853 0.08660195 0.08612119 0.08564704 0.08518583
 0.0847341 0.08429487 0.08384787 0.08339093 0.08290484 0.08238662 0.0818406 0.08126707 0.0806933 0.0801206
 0.07957375 0.07905075 0.07855409 0.07807909 0.0776111 0.07714748 0.07667413 0.07619319 0.07570115 0.07520273
 0.0747015 0.07420187 0.07370641 0.07322393 0.07275527 0.07232308 0.07193443 0.07161004 0.07136291 0.07116557
 0.07102361 0.07084683 0.07062861 0.0702835 0.06980699 0.06920426 0.06848316 0.06774037 0.06698541 0.06632568
 0.06575505 0.06531654 0.06498264 0.06471744 0.06448402 0.06420518 0.06386664 0.0634109 0.06287587 0.06226217
 0.06163755 0.06104198 0.0605022 0.06004696 0.0596354 0.05926376 0.05889146 0.05850522 0.05813364 0.05777548
 0.05749964 0.05730973 0.05722539 0.05724045 0.05728471 0.05734558 0.05731177 0.05718248 0.05688834 0.05645324
 0.05589228 0.0552422 0.05457117 0.05389556 0.05326649 0.05266635 0.05209721 0.05154316 0.0509875 0.05045468
 0.0499467 0.04949884 0.04912696 0.0488135 0.04856313 0.04831451 0.04806092 0.04777773 0.04746326 0.04715946
 0.04686874 0.04663623 0.0464567 0.04632302 0.04622623 0.04612947 0.04603139 0.04590998 0.04576945 0.04560851
 0.04542683 0.04522651 0.04499771 0.04473694 0.04442508 0.04405128 0.04360203 0.04306278 0.04245936 0.0417856
 0.04111953 0.04047002 0.03991469 0.03946552 0.0391215 0.03888331 0.03866062 0.038448 0.03814714 0.03776403
 0.03727907 0.03671332 0.03613105 0.03554916 0.03504529 0.03461119 0.03427415 0.03400354 0.03377643 0.03356383
 0.03333281 0.03307611 0.03277714 0.03245173 0.0320989 0.03174675 0.03140151 0.0310858 0.03080688 0.03055724
 0.03033924 0.03011011 0.02986755 0.02957461 0.02923286 0.02885634 0.02845116 0.02806523 0.02769563 0.02736123
 0.0270463 0.02672018 0.02637599 0.02598135 0.02555569 0.02510539 0.02465877 0.02424372 0.02386734 0.02354429
 0.02326175 0.02301663 0.02280473 0.02262197 0.02248091 0.02238394 0.02233443 0.02233537 0.02235529 0.02239272
 0.02239033 0.02234587 0.02221446 0.02200047 0.02170513 0.02134058 0.02095052 0.02054671 0.02018051 0.01985472
 0.01959876 0.01940583 0.01928054 0.01921202 0.01919362 0.01921543 0.01927086 0.01935194 0.01945567 0.01957146
 0.01969754 0.01981875 0.01993141 0.02003165 0.02011622 0.02021666 0.02033435 0.02052913 0.02080253 0.0211905
 0.02168521 0.0222575 0.02289345 0.02352369 0.0241443 0.02470719 0.02522425 0.02569341 0.02612827 0.02654663
 0.02694981 0.02734572 0.02772965 0.02809855 0.02845792 0.02880705 0.02916014 0.02952239 0.02989467 0.03028132
 0.03065504 0.03101484 0.03132122 0.03157165 0.0317453 0.03184309 0.03187667 0.03184937 0.03178817 0.03169503
 0.03159003 0.03147636 0.03136878 0.03127727 0.03122483 0.03122041 0.03128897 0.03141838 0.03161349 0.03184044
 0.03208173 0.03231293 0.03251578 0.03269964 0.03286086 0.0330255 0.03319865 0.0333898 0.03360213 0.03381958
 0.03404165 0.03423443 0.03439512 0.034476 0.03447386 0.03434128 0.03408169 0.03367796 0.03314613 0.03251468
 0.0318045 0.03106615 0.03030817 0.0295657 0.02882484 0.02809064 0.02733261 0.02653632 0.02567448 0.02473007
 0.02370111 0.0225781 0.02139491 0.02015134 0.01890689 0.0176664 0.01648939 0.01537998 0.01436962 0.01345788
 0.01263851 0.01190814 0.01124105 0.01063562 0.0100726 0.009551041 0.00906116 0.008597022 0.008144611 0.007697375
 0.007238241 0.006774689 0.006302584 0.005845177 0.005413849 0.005028293 0.004701592 0.004432692 0.004226277 0.004064864
 0.003946593 0.003854437 0.003785442 0.003739635 0.003716565 0.003734998 0.003795124 0.003904911 0.004057784 0.004214814
 0.004363971 0.004433653 0.004423667 0.004290813 0.004056331 0.00373522 0.003354189 0.002953585 0.002546296 0.002157863
 0.001788978 0.001446977 0.001129091 0.0008372348 0.0005624933 0.0003048537 4.693056E-05 -0.0002136083 -0.0004937443 -0.0007954598
 -0.00113035 -0.001499079 -0.001918295 -0.002389527 -0.00294137 -0.00357462 -0.004312817 -0.005148018 -0.006066856 -0.007048469
 -0.008033603 -0.009002266 -0.009885832 -0.01069018 -0.01138704 -0.0120123 -0.01258496 -0.01314099 -0.01371128 -0.01430057
 -0.01492255 -0.01555422 -0.01619365 -0.01681322 -0.0174079 -0.01795826 -0.01846114 -0.0189097 -0.01930293 -0.01965285
 -0.01996084 -0.02025341 -0.02053171 -0.02081786 -0.02110917 -0.02140799 -0.02170797 -0.02199365 -0.02226024 -0.02248934
 -0.02268616 -0.02284544 -0.02298643 -0.02312209 -0.02327333 -0.02345987 -0.02368048 -0.02394558 -0.02422299 -0.02450885
 -0.02476247 -0.02497382 -0.02513034 -0.02522631 -0.02529324 -0.0253323 -0.02539283 -0.02547601 -0.02560154 -0.02576486
 -0.02594082 -0.02612603 -0.02628913 -0.02643874 -0.0265804 -0.02672723 -0.02691015 -0.02712565 -0.02738759 -0.02767217
 -0.02796447 -0.02824187 -0.02848436 -0.02868688 -0.02884063 -0.0289546 -0.0290273 -0.02907852 -0.02910921 -0.02915069
 -0.02920631 -0.02930216 -0.02944079 -0.02961748 -0.02983079 -0.0300484 -0.03026867 -0.03046319 -0.03063432 -0.03077638
 -0.03089369 -0.03099507 -0.03108341 -0.03116805 -0.03125032 -0.03133623 -0.03142425 -0.0315167 -0.03160645 -0.03169072
 -0.03176075 -0.03181023 -0.0318421 -0.03185219 -0.03186366 -0.03187837 -0.03192643 -0.03201279 -0.03214463 -0.0323236
 -0.03252254 -0.03273967 -0.03293828 -0.03311909 -0.03326953 -0.03339452 -0.03350886 -0.03361541 -0.03373156 -0.0338529
 -0.03398049 -0.03410596 -0.03421794 -0.03431312 -0.03438154 -0.03443243 -0.03446548 -0.03450027 -0.0345444 -0.0346138
 -0.03471621 -0.03485196 -0.03502423 -0.03521824 -0.03543358 -0.03564905 -0.03586329 -0.03605685 -0.03622912 -0.03637094
 -0.03648395 -0.03657594 -0.03665058 -0.03672802 -0.03681047 -0.03691579 -0.03704075 -0.03718945 -0.03735302 -0.03752207
 -0.03768799 -0.03783789 -0.03797262 -0.03808632 -0.03819149 -0.03829157 -0.03839823 -0.03851724 -0.03864674 -0.03878844
 -0.03893136 -0.03907419 -0.03921088 -0.03934074 -0.03946598 -0.03958668 -0.03970493 -0.03982003 -0.03992727 -0.04002563
 -0.04010722 -0.04017366 -0.04022355 -0.04026331 -0.04030387 -0.04035202 -0.04042314 -0.04051555 -0.04063537 -0.04077198
 -0.04092069 -0.04107236 -0.04122079 -0.04136573 -0.04150594 -0.04164246 -0.04177583 -0.04190325 -0.04202423 -0.04213848
 -0.04224567 -0.04235424 -0.04246464 -0.04258619 -0.04271818 -0.04285946 -0.04300768 -0.04315139 -0.04328956 -0.04341238
 -0.04352248 -0.04361982 -0.04370853 -0.04379488 -0.04387973 -0.04396678 -0.04405359 -0.04413912 -0.04422327 -0.0443047
 -0.04438801 -0.04447425 -0.04456717 -0.04466825 -0.0447759 -0.04489031 -0.04500795 -0.04512853 -0.04525165 -0.04537732
 -0.04550689 -0.04564007 -0.04577517 -0.04591115 -0.0460423 -0.04616787 -0.0462821 -0.04638645 -0.04648024 -0.04656722
 -0.04665195 -0.04673806 -0.04683113 -0.04693152 -0.04704178 -0.04715889 -0.0472825 -0.04740864 -0.04753596 -0.04766221
 -0.0477866 -0.04790885 -0.04802882 -0.04814681 -0.04826289 -0.04837588 -0.04848571 -0.0485911 -0.04869235 -0.04879145
 -0.04888882 -0.04898815 -0.04908852 -0.0491896 -0.0492893 -0.04938228 -0.04946979 -0.04954961 -0.04962828 -0.04971145
 -0.04980333 -0.04991078 -0.05002694 -0.05015178 -0.05027351 -0.05038736 -0.05049114 -0.05058209 -0.05067035 -0.05075675
 -0.05085056 -0.05095286 -0.05106211 -0.05117808 -0.05129286 -0.05140644 -0.05151507 -0.05161993 -0.05172473 -0.05183032
 -0.05194215 -0.05205797 -0.05217692 -0.05229396 -0.05240139 -0.05249666 -0.05257265 -0.0526347 -0.05268223 -0.05272716
 -0.05277414 -0.05283383 -0.05291152 -0.05300832 -0.05312701 -0.05325615 -0.05339552 -0.05352697 -0.05364896 -0.05375023
 -0.05383056 -0.05389462 -0.05394373 -0.05399203 -0.05403982 -0.05409658 -0.05416044 -0.0542308 -0.05430581 -0.05438081
 -0.05445642 -0.05453112 -0.05460713 -0.05468648 -0.05476948 -0.05485778 -0.05494837 -0.0550402 -0.05513135 -0.05522026
 -0.05530956 -0.05539942 -0.05549295 -0.05559117 -0.05569009 -0.05578965 -0.05588209 -0.05596714 -0.05604361 -0.05611234
 -0.05618071 -0.05624948 -0.05632659 -0.05641138 -0.0565061 -0.05660937 -0.05671959 -0.05683506 -0.05695324 -0.05707132
 -0.05718572 -0.05729416 -0.05739307 -0.0574846 -0.05756787 -0.05764909 -0.05773032 -0.05781462 -0.0579038 -0.05799391
 -0.05808478 -0.05817186 -0.05825455 -0.05833489 -0.05841304 -0.05849463 -0.05857959 -0.05866925 -0.0587631 -0.05885892
 -0.05895715 -0.05905774 -0.05916199 -0.05927311 -0.05939048 -0.05951561 -0.05964457 -0.05977454 -0.05990065 -0.06001838
 -0.06012594 -0.06022055 -0.06030514 -0.06037953 -0.06044882 -0.06051382 -0.06057937 -0.06064607 -0.06071849 -0.06079702
 -0.06088562 -0.06098441 -0.06109266 -0.0612097 -0.0613289 -0.06144952 -0.06156422 -0.06167339 -0.06177422 -0.06186781
 -0.06195521 -0.06203705 -0.06211467 -0.06218842 -0.0622589 -0.06232691 -0.06239279 -0.06245848 -0.06252448 -0.06259418
 -0.06266893 -0.06275028 -0.06283946 -0.06293314 -0.06303135 -0.0631282 -0.06322316 -0.06331374 -0.06339987 -0.06348199
 -0.06356014 -0.0636343 -0.06370493 -0.0637737 -0.0638424 -0.06391774 -0.06400082 -0.06409857 -0.06420776 -0.0643276
 -0.06445196 -0.06457397 -0.06469032 -0.06479555 -0.06489192 -0.06497863 -0.0650603 -0.06513836 -0.06521549 -0.06529256
 -0.06537055 -0.06544968 -0.06553063 -0.06561351 -0.06569808 -0.06578431 -0.0658695 -0.06595347 -0.06603329 -0.06610929
 -0.06618144 -0.06625065 -0.06631999 -0.06638993 -0.06646318 -0.06653922 -0.06661864 -0.06670035 -0.06678357 -0.06686698
 -0.06694935 -0.06703004 -0.06710807 -0.06718475 -0.06726004 -0.06733629 -0.06741409 -0.06749453 -0.06757797 -0.06766394
 -0.06775248 -0.06784224 -0.06793313 -0.06802304 -0.06811183 -0.06819703 -0.06827896 -0.06835729 -0.06843364 -0.06851222
 -0.06859633 -0.06869452 -0.06881077 -0.06895486 -0.06912886 -0.06933937 -0.06958441 -0.06986454 -0.07017758 -0.07052064
 -0.07089989 -0.07131521 -0.07177921 -0.07229601 -0.07286701 -0.07349575 -0.07415797 -0.07485311 -0.07554161 -0.07622126
 -0.07684891 -0.07742131 -0.0778883 -0.07824719 -0.07845275 -0.07851326 -0.07842945 -0.07821665 -0.07790993 -0.07751768
 -0.07706273 -0.07656292 -0.07603782 -0.07552377 -0.07504989 -0.0746512 -0.07435147 -0.07417438 -0.07413594 -0.07423509
 -0.07448457 -0.0748197 -0.07524117 -0.07562472 -0.07595786 -0.07617836 -0.07628323 -0.07631616 -0.07628079 -0.07623217
 -0.0761697 -0.07611788 -0.07607414 -0.07604392 -0.07602286 -0.07600423 -0.07598401 -0.07595234 -0.07590906 -0.07584972
 -0.0757772 -0.07569183 -0.07559767 -0.07549641 -0.07539258 -0.07528833 -0.07518531 -0.07508419 -0.07498599 -0.07489039
 -0.07480269 -0.0747232 -0.0746582 -0.07460801 -0.07457235 -0.07455084 -0.07453866 -0.07453557 -0.0745379 -0.07454537
 -0.07455517 -0.07456697 -0.07457787 -0.07458961 -0.07460314 -0.07462147 -0.0746491 -0.07468527 -0.07473217 -0.07478405
 -0.07483865 -0.0748912 -0.07493892 -0.07498203 -0.07501989 -0.07505469 -0.07508665 -0.07511747 -0.07514722 -0.07517835
 -0.075211 -0.07525057 -0.07529736 -0.07535699 -0.07542895 -0.0755139 -0.07560967 -0.07570923 -0.07581054 -0.0759047
 -0.07599267 -0.0760714 -0.07614432 -0.07621428 -0.07628317 -0.07635383 -0.07642534 -0.07649814 -0.07657054 -0.07664233
 -0.07671085 -0.0767757 -0.07683326 -0.07688261 -0.07692347 -0.07695531 -0.07698481 -0.07701231 -0.07704706 -0.07708904
 -0.07714104 -0.07720166 -0.07726413 -0.07732737 -0.07738285 -0.07743301 -0.07747849 -0.07752413 -0.0775792 -0.07764336
 -0.07772227 -0.07780653 -0.07789126 -0.07796746 -0.07802669 -0.07807331 -0.07810487 -0.07813632 -0.07817112 -0.07821833
 -0.07828121 -0.07835377 -0.07843629 -0.07851522 -0.07858983 -0.07865325 -0.07870606 -0.07875424 -0.07879908 -0.07885185
 -0.07891175 -0.07898276 -0.07906151 -0.07914209 -0.07922198 -0.07929377 -0.07935842 -0.07941356 -0.07946263 -0.07950726
 -0.07955108 -0.07959646 -0.0796456 -0.07970006 -0.07975979 -0.07982516 -0.07989519 -0.07996971 -0.08004846 -0.08013138
 -0.08021873 -0.08031052 -0.08040485 -0.08050145 -0.0805966 -0.08069018 -0.08077945 -0.08086495 -0.08094703 -0.08102649
 -0.08110554 -0.08118433 -0.08126447 -0.08134465 -0.08142412 -0.0815013 -0.08157419 -0.08164353 -0.08170847 -0.08177271
 -0.0818371 -0.08190589 -0.08198053 -0.08206268 -0.08215334 -0.08224908 -0.08234996 -0.0824492 -0.08254642 -0.08263642
 -0.0827194 -0.08279711 -0.08287028 -0.08294462 -0.0830198 -0.08309817 -0.08317796 -0.08325581 -0.08333094 -0.0833997
 -0.08346441 -0.08352558 -0.08358759 -0.08365405 -0.08372818 -0.08381333 -0.08390877 -0.08401586 -0.08412942 -0.08424904
 -0.0843672 -0.08448263 -0.0845901 -0.0846887 -0.08477895 -0.08486081 -0.08493922 -0.08501446 -0.08509155 -0.08517035
 -0.08525237 -0.08533712 -0.08542363 -0.08551158 -0.08559959 -0.08568785 -0.08577584 -0.08586436 -0.08595406 -0.08604579
 -0.08614069 -0.08623835 -0.08633912 -0.08644135 -0.08654438 -0.08664767 -0.08675081 -0.08685453 -0.08695914 -0.08706345
 -0.0871675 -0.08726813 -0.08736512 -0.08745837 -0.08754811 -0.08763772 -0.08772723 -0.08781852 -0.08791119 -0.08800452
 -0.08809851 -0.08819295 -0.08828758 -0.0883824 -0.08847576 -0.08856533 -0.08865096 -0.08873042 -0.08880824 -0.08888572
 -0.08896852 -0.08905974 -0.08915993 -0.08927068 -0.08938657 -0.08950726 -0.08962615 -0.0897425 -0.08985218 -0.08995485
 -0.09005132 -0.09014188 -0.09023162 -0.09032083 -0.09041419 -0.09051085 -0.09061012 -0.09071082 -0.090809 -0.09090549
 -0.09099931 -0.09109309 -0.09119008 -0.09129069 -0.09139755 -0.09150634 -0.09161573 -0.09172095 -0.09181897 -0.09191081
 -0.09199537 -0.09207849 -0.09216112 -0.09224677 -0.09233615 -0.09242802 -0.09252236 -0.09261712 -0.09271237 -0.09280875
 -0.09290645 -0.09300715 -0.09311066 -0.09321722 -0.0933261 -0.09343565 -0.0935451 -0.09365223 -0.09375713 -0.09385873
 -0.09395842 -0.09405707 -0.09415553 -0.09425482 -0.0943542 -0.09445358 -0.09455235 -0.09464991 -0.09474829 -0.09484746
 -0.09495123 -0.09506007 -0.09517553 -0.09529781 -0.09542312 -0.09555106 -0.0956739 -0.09579141 -0.09589777 -0.09599403
 -0.09608084 -0.09615999 -0.09623646 -0.09631136 -0.09638891 -0.09646947 -0.09655511 -0.09664589 -0.09674292 -0.09684483
 -0.09695151 -0.09706051 -0.09717088 -0.0972809 -0.09739 -0.0974969 -0.09760166 -0.09770089 -0.09779433 -0.09787849
 -0.09795304 -0.09801954 -0.09807829 -0.09813533 -0.09819103 -0.09825085 -0.09831469 -0.09838506 -0.09846165 -0.0985451
 -0.09863473 -0.09872998 -0.09882943 -0.09893131 -0.0990342 -0.09913623 -0.09923697 -0.09933547 -0.09943227 -0.09952751
 -0.09962109 -0.09971321 -0.09980263 -0.09988905 -0.09997217 -0.1000517 -0.10013 -0.1002072 -0.1002844 -0.1003615
 -0.100436 -0.100508 -0.1005764 -0.1006421 -0.1007091 -0.1007775 -0.1008508 -0.1009265 -0.1010021 -0.1010758
 -0.1011432 -0.1012067 -0.1012665 -0.1013262 -0.1013886 -0.1014535 -0.1015219 -0.1015905 -0.1016585 -0.1017251
 -0.1017898 -0.1018544 -0.101919 -0.1019835 -0.1020478 -0.1021097 -0.1021692 -0.1022266 -0.1022826 -0.1023414
 -0.1024029 -0.1024694 -0.1025392 -0.1026086 -0.102677 -0.1027402 -0.1028009 -0.1028604 -0.1029219 -0.1029899
 -0.1030629 -0.1031423 -0.1032222 -0.1033005 -0.1033727 -0.1034364 -0.1034924 -0.1035399 -0.1035833 -0.1036229
 -0.1036637 -0.1037063 -0.1037533 -0.1038048 -0.1038606 -0.1039205 -0.1039833 -0.1040493 -0.1041181 -0.1041897
 -0.1042637 -0.1043395 -0.1044162 -0.104493 -0.1045691 -0.1046425 -0.1047116 -0.1047743 -0.1048278 -0.1048742
 -0.1049126 -0.1049502 -0.104989 -0.1050334 -0.1050854 -0.1051411 -0.1052006 -0.1052561 -0.1053068 -0.1053496
 -0.1053847 -0.1054157 -0.1054432 -0.1054722 -0.1055027 -0.1055372 -0.1055751 -0.1056165 -0.1056609 -0.1057076
 -0.1057556 -0.1058031 -0.1058485 -0.1058892 -0.1059252 -0.105955 -0.1059812 -0.1060048 -0.106028 -0.1060517
 -0.1060755 -0.1060992 -0.1061225 -0.1061451 -0.1061681 -0.1061916 -0.1062156 -0.1062404 -0.1062661 -0.1062932
 -0.1063263 -0.106366 -0.1064192 -0.1064841 -0.1065618 -0.1066458 -0.1067251 -0.1067924 -0.1068313 -0.1068449
 -0.106827 -0.1067921 -0.1067472 -0.1067054 -0.1066756 -0.1066584 -0.1066573 -0.106663 -0.1066741 -0.1066837
 -0.1066904 -0.1066948 -0.1066966 -0.1066991 -0.1067024 -0.1067085 -0.1067172 -0.1067296 -0.1067449 -0.1067604
 -0.1067749 -0.1067822 -0.1067827 -0.1067732 -0.1067561 -0.106733 -0.1067065 -0.1066789 -0.106654 -0.1066344
 -0.1066244 -0.1066273 -0.1066416 -0.1066687 -0.1067004 -0.1067355 -0.106765 -0.1067878 -0.1067978 -0.1067945
 -0.1067746 -0.1067381 -0.1066881 -0.1066257 -0.1065608 -0.106494 -0.106434 -0.1063802 -0.1063356 -0.1062988
 -0.1062699 -0.1062456 -0.1062224 -0.1061955 -0.106158 -0.1061109 -0.1060506 -0.1059866 -0.1059225 -0.105864
 -0.1058153 -0.1057695 -0.1057267 -0.105676 -0.1056157 -0.1055438 -0.1054598 -0.1053732 -0.1052845 -0.1052034
 -0.1051288 -0.1050565 -0.1049831 -0.1048885 -0.1047731 -0.1046249 -0.104453 -0.1042704 -0.1040836 -0.1039093
 -0.1037434 -0.1035889 -0.1034385 -0.1032866 -0.1031338 -0.1029774 -0.102826 -0.1026816 -0.1025507 -0.1024365
 -0.1023315 -0.1022371 -0.1021251 -0.1019938 -0.1018193 -0.1016016 -0.1013598 -0.1010968 -0.1008483 -0.1006115
 -0.100393 -0.1001859 -0.09997347 -0.09975255 -0.09950756 -0.09924165 -0.0989512 -0.09864424 -0.09832644 -0.0980061
 -0.09769312 -0.09738195 -0.09707794 -0.0967527 -0.09639903 -0.09599434 -0.09552753 -0.09502157 -0.09447613 -0.09393042
 -0.0933881 -0.09285614 -0.09233455 -0.09181429 -0.09129525 -0.09077511 -0.09025151 -0.08971486 -0.08915737 -0.08854952
 -0.08788912 -0.08715117 -0.08635425 -0.08551142 -0.08464527 -0.08378652 -0.08293515 -0.08210119 -0.08127654 -0.0804575
 -0.07964755 -0.07884659 -0.07806084 -0.07729656 -0.07652689 -0.07575579 -0.07489496 -0.07393802 -0.07281153 -0.07151589
 -0.07013709 -0.06868513 -0.06729466 -0.06595284 -0.06466886 -0.06342388 -0.06216338 -0.06088443 -0.05955556 -0.05817951
 -0.05675465 -0.0552621 -0.05369547 -0.05199998 -0.05013933 -0.04806869 -0.0457351 -0.04321246 -0.04049009 -0.03774522
 -0.03501509 -0.03240518 -0.02994041 -0.02761723 -0.0254395 -0.02335129 -0.021348 -0.01931516 -0.01723984 -0.01494047
 -0.01243258 -0.009662991 -0.006720648 -0.003867727 -0.001126516 0.001299598 0.003509599 0.005564131 0.007535352 0.009530595
 0.01154448 0.01360809 0.01569322 0.0177896 0.01989444 0.02201154 0.02410768 0.02618155 0.0281749 0.03007451
 0.03189458 0.0336342 0.03533572 0.03699924 0.03857659 0.0400617 0.04136951 0.04251083 0.04348939 0.04433015
 0.04511571 0.04585288 0.04660582 0.04734338 0.0480415 0.04869143 0.04926333 0.04979497 0.05030897 0.05081448
 0.05133269 0.05181892 0.05226513 0.05262775 0.05289297 0.05305402 0.0531056 0.05307048 0.05294842 0.0527922
 0.05260454 0.05243514 0.05228143 0.05213762 0.05199768 0.05182702 0.0516265 0.05137677 0.0510911 0.05078373
 0.05047704 0.0502109 0.0499961 0.04985795 0.04979986 0.04982319 0.04995789 0.05021458 0.05062975 0.05122703
 0.05198088 0.05289556 0.05390976 0.0550123 0.05619234 0.05744674 0.05880119 0.0602566 0.06182132 0.06349394
 0.06526323 0.0671282 0.06907943 0.07111482 0.07322285 0.07540215 0.07764108 0.07994801 0.0823288 0.08479472
 0.08736241 0.09002928 0.09280192 0.09566452 0.09861176 0.1016295 0.1047116 0.1078524 0.1110519 0.1142959
 0.117587 0.120871 0.1241447 0.1273449 0.1304699 0.1335483 0.1365891 0.1397103 0.1428953 0.1461378
 0.1493759 0.1523913 0.1551775 0.1575986 0.1597145 0.1615745 0.1631793 0.1645611 0.1656707 0.166475
 0.166966 0.1671446 0.1669595 0.1664298 0.1653408 0.1636351 0.1612272 0.1580398 0.1545757 0.1508725
 0.147285 0.1438258 0.1402927 0.1366755 0.1327938 0.128671 0.1243418 0.1198255 0.1152275 0.1104932
 0.1055874 0.1003742 0.09457552 0.08826907 0.08127531 0.0741916 0.06743285 0.06128288 0.05611621 0.0515197
 0.04743195 0.04351088 0.03963628 0.0358047 0.03199107 0.02831073 0.02477637 0.02138374 0.01813192 0.01491854
 0.01174211 0.00854668 0.00534683 0.002188593 -0.0009087501 -0.003853839 -0.006646956 -0.009237537 -0.01165092 -0.01389963
 -0.01601766 -0.01803917 -0.02000701 -0.0219485 -0.02393933 -0.02602356 -0.02825269 -0.03070068 -0.03316707 -0.03564586
 -0.03780947 -0.0395774 -0.04101698 -0.04211631 -0.04314454 -0.04411441 -0.04516366 -0.04628479 -0.04743769 -0.04860835
 -0.04969326 -0.05070359 -0.05162279 -0.05246734 -0.05327708 -0.05403287 -0.05472865 -0.05532764 -0.05577863 -0.05608727
 -0.05623267 -0.05625755 -0.05617937 -0.05602463 -0.05581019 -0.05553123 -0.05519453 -0.05476474 -0.05424375 -0.05355158
 -0.05268206 -0.05155611 -0.0501705 -0.04860697 -0.04688061 -0.04520139 -0.04356756 -0.04207818 -0.04071526 -0.03946411
 -0.03832509 -0.03729305 -0.03637091 -0.03557553 -0.03486713 -0.03422471 -0.03356754 -0.0328195 -0.03196123 -0.03093353
 -0.02985586 -0.02875907 -0.02772578 -0.02679595 -0.02592373 -0.02511175 -0.02428289 -0.02342965 -0.02250955 -0.02152026
 -0.02047577 -0.01937839 -0.01826445 -0.01712851 -0.01596475 -0.01475322 -0.01342273 -0.01195828 -0.01027886 -0.008410323
 -0.006353559 -0.004147101 -0.001847485 0.0005636202 0.003076639 0.005731187 0.008557812 0.01153434 0.01466962 0.01789376
 0.02118461 0.02453457 0.02792824 0.03146521 0.03515423 0.03906641 0.04320512 0.04739626 0.05161771 0.05553817
 0.05915561 0.06229102 0.06495974 0.06713393 0.06879582 0.06989709 0.07040224 0.07022207 0.06936708 0.06779648
 0.06558621 0.06277024 0.05944324 0.05566188 0.05148927 0.04695648 0.04210844 0.03694172 0.0315905 0.02605416
 0.02060066 0.01525489 0.01021101 0.005480489 0.001018181 -0.003185073 -0.007267864 -0.0112218 -0.01507335 -0.01879337
 -0.02228594 -0.0255472 -0.02850958 -0.0312098 -0.03367456 -0.03594342 -0.03807279 -0.04008103 -0.0420014 -0.04383552
 -0.04559378 -0.04726873 -0.04886017 -0.05035997 -0.05176413 -0.05307868 -0.05430196 -0.05545659 -0.05654489 -0.0575796
 -0.05856154 -0.05946548 -0.06028842 -0.06098195 -0.06154766 -0.06196734 -0.06225171 -0.06242862 -0.06250821 -0.06252865
 -0.06249307 -0.06242373 -0.06231916 -0.06218531 -0.062022 -0.06182703 -0.06161327 -0.06138073 -0.06116287 -0.06096744
 -0.06083725 -0.06078315 -0.06083814 -0.06101024 -0.06130971 -0.06174032 -0.0622783 -0.06292257 -0.06362301 -0.06437726
 -0.06514284 -0.06591967 -0.06668757 -0.06744434 -0.06817303 -0.0688674 -0.06950386 -0.07007889 -0.07057437 -0.07099491
 -0.07133756 -0.07161119 -0.07182141 -0.07197606 -0.07208066 -0.07214016 -0.07215701 -0.07213603 -0.07207674 -0.07199368
 -0.07188702 -0.07178369 -0.07168614 -0.0716164 -0.07157596 -0.07156309 -0.07157658 -0.07159828 -0.07162772 -0.0716522
 -0.07167405 -0.07169425 -0.07171682 -0.07175125 -0.07180201 -0.07188071 -0.07199007 -0.07213878 -0.07232449 -0.07254921
 -0.07280659 -0.07309444 -0.07340542 -0.07373752 -0.074081 -0.07443424 -0.07478454 -0.07512978 -0.07546006 -0.07577386
 -0.07606959 -0.07634706 -0.07661097 -0.07686152 -0.07710303 -0.07733482 -0.07755547 -0.07776284 -0.07794873 -0.07811059
 -0.07823795 -0.07832997 -0.07837977 -0.07838976 -0.07835884 -0.07829321 -0.07819647 -0.07807668 -0.07793917 -0.077789
 -0.0776298 -0.07746156 -0.07728466 -0.07709985 -0.07690667 -0.07671029 -0.076511 -0.07631504 -0.07612279 -0.07594026
 -0.07576794 -0.07561405 -0.07547911 -0.07537112 -0.07528924 -0.07523514 -0.07520665 -0.07519959 -0.07521145 -0.07523653
 -0.07527221 -0.07531291 -0.07535815 -0.07540425 -0.07545661 -0.07551634 -0.07559128 -0.07568561 -0.07580012 -0.07593717
 -0.07608846 -0.07625318 -0.07642302 -0.07659678 -0.07677278 -0.07695081 -0.07713327 -0.07732019 -0.07751264 -0.07771023
 -0.07791097 -0.0781145 -0.07831837 -0.07852252 -0.07872577 -0.07892765 -0.07912702 -0.07932299 -0.0795141 -0.07969957
 -0.07987894 -0.08004954 -0.08021081 -0.08035692 -0.08048495 -0.08059321 -0.08067852 -0.08075252 -0.08081547 -0.08088624
 -0.0809672 -0.08106666 -0.08118545 -0.08131503 -0.08145455 -0.08158875 -0.08171718 -0.08182925 -0.08192547 -0.08200245
 -0.08206023 -0.08209803 -0.08211379 -0.08210389 -0.08206587 -0.08199464 -0.08189088 -0.08175335 -0.08158354 -0.08138307
 -0.08114891 -0.08088058 -0.08057413 -0.08022749 -0.07984316 -0.07942099 -0.07896515 -0.07847647 -0.07795233 -0.0773926
 -0.07679519 -0.07616073 -0.07549978 -0.07481408 -0.07412115 -0.07342096 -0.07272336 -0.07202565 -0.07132581 -0.07062176
 -0.0699078 -0.06918599 -0.06845535 -0.06772186 -0.06699024 -0.06626488 -0.06555054 -0.06484594 -0.06415152 -0.0634662
 -0.06278861 -0.06212445 -0.06147411 -0.06084508 -0.06023872 -0.05965404 -0.05909123 -0.05853949 -0.05799782 -0.05744869
 -0.05689061 -0.05630451 -0.05569031 -0.05503656 -0.05434611 -0.05362028 -0.05286252 -0.05208001 -0.0512737 -0.05044821
 -0.04960174 -0.04873446 -0.04784416 -0.04692752 -0.04599063 -0.04503021 -0.04407258 -0.04312028 -0.04221348 -0.04135997
 -0.04058477 -0.03989321 -0.03927892 -0.03874212 -0.03826138 -0.03783567 -0.03744711 -0.0370949 -0.0367654 -0.03645766
 -0.03616023 -0.03587311 -0.03559037 -0.03531273 -0.03503857 -0.03476932 -0.03450638 -0.0342501 -0.03400373 -0.03375912
 -0.03351542 -0.03325501 -0.03297047 -0.03265048 -0.03228882 -0.03188908 -0.03145086 -0.03097904 -0.03047464 -0.02993459
 -0.02935877 -0.0287441 -0.0280905 -0.02739646 -0.02666186 -0.0258838 -0.02506427 -0.02420729 -0.02332033 -0.0224228
 -0.02152663 -0.02066039 -0.01983735 -0.01908493 -0.01841309 -0.01784158 -0.01736866 -0.01700157 -0.01672587 -0.01653829
 -0.01642362 -0.01637759 -0.01638804 -0.01645375 -0.01655586 -0.0166929 -0.01684243 -0.01700272 -0.01716344 -0.01732465
 -0.01748965 -0.01765898 -0.01783768 -0.01802583 -0.01822646 -0.01843907 -0.01866477 -0.01890075 -0.01914222 -0.0193874
 -0.01962982 -0.01987558 -0.02012572 -0.02039249 -0.02068325 -0.02100739 -0.02137061 -0.0217775 -0.02223072 -0.02273084
 -0.02327956 -0.02386877 -0.02449901 -0.02515036 -0.02582186 -0.02648624 -0.02714208 -0.02776357 -0.02835095 -0.02889255
 -0.02939224 -0.02985959 -0.03029916 -0.03072942 -0.03114993 -0.03156873 -0.03198327 -0.03239148 -0.03279721 -0.03320031
 -0.03361338 -0.03404149 -0.03450285 -0.03500473 -0.0355652 -0.03619112 -0.03689154 -0.03767032 -0.03852397 -0.03945293
 -0.04044956 -0.0415135 -0.04263643 -0.04381739 -0.04503739 -0.04629372 -0.04755694 -0.04882492 -0.05007319 -0.05130089
 -0.05249435 -0.05365074 -0.05475918 -0.05581588 -0.05681093 -0.05774389 -0.05861015 -0.0594131 -0.06015198 -0.06083539
 -0.06146419 -0.0620554 -0.06261273 -0.06315456 -0.0636856 -0.06421292 -0.06473856 -0.06525847 -0.06577255 -0.06627504
 -0.06676563 -0.06723971 -0.06769663 -0.06812984 -0.06853769 -0.06891024 -0.06924486 -0.06952867 -0.06976093 -0.06993165
 -0.07004806 -0.07011322 -0.07014078 -0.07014459 -0.07013306 -0.0701171 -0.07009431 -0.07006603 -0.07002947 -0.06998278
 -0.06993079 -0.06987367 -0.06981852 -0.06976655 -0.06971926 -0.06967705 -0.06963425 -0.06959045 -0.06953675 -0.06947297
 -0.06939396 -0.06929962 -0.06918786 -0.06905638 -0.06889755 -0.06870925 -0.0684811 -0.06821965 -0.06792676 -0.06761643
 -0.06730382 -0.06699351 -0.06669667 -0.06640006 -0.0661016 -0.06578584 -0.06544564 -0.06508211 -0.0646923 -0.06429272
 -0.06388482 -0.06348367 -0.06309082 -0.06270595 -0.0623288 -0.06194952 -0.06156949 -0.06119385 -0.06082906 -0.06050687
 -0.06023283 -0.06004276 -0.05993022 -0.05990409 -0.05994447 -0.06003099 -0.06013975 -0.06024168 -0.06032055 -0.06035623
 -0.06034622 -0.06028325 -0.06017483 -0.06002177 -0.05983061 -0.05960324 -0.05934053 -0.05904259 -0.05871148 -0.05834705
 -0.05795946 -0.05754944 -0.05713278 -0.05671017 -0.05629512 -0.05588661 -0.05548785 -0.055096 -0.05470401 -0.05431096
 -0.05391056 -0.053506 -0.0530995 -0.05269242 -0.0522885 -0.05188284 -0.05147281 -0.05105637 -0.05062919 -0.05020219
 -0.04977622 -0.04936766 -0.04898031 -0.04862248 -0.04829631 -0.04800006 -0.04773401 -0.04749023 -0.04726812 -0.04705469
 -0.04684879 -0.04663472 -0.04641224 -0.04617127 -0.04591372 -0.04563969 -0.04535177 -0.04505591 -0.04475169 -0.04444161
 -0.04412296 -0.04379302 -0.04345299 -0.0431013 -0.04274496 -0.04238674 -0.04203182 -0.0416832 -0.04133943 -0.04100108
 -0.04066424 -0.04032894 -0.03998839 -0.03964244 -0.03927764 -0.03889338 -0.03847847 -0.03803447 -0.03756921 -0.03708731
 -0.03661504 -0.03615508 -0.03573128 -0.03533858 -0.03498056 -0.03464518 -0.03431717 -0.03398733 -0.03363832 -0.03327488
 -0.03289237 -0.03250612 -0.03212256 -0.03175047 -0.03139605 -0.031053 -0.03072216 -0.03039058 -0.03005688 -0.02970989
 -0.02934856 -0.02896663 -0.02856403 -0.02814582 -0.02771365 -0.02728452 -0.02685994 -0.02645679 -0.0260738 -0.02571685
 -0.02538195 -0.02506484 -0.02475949 -0.02445613 -0.02414916 -0.02382861 -0.02349464 -0.0231429 -0.02278024 -0.02240856
 -0.02203402 -0.02166024 -0.02128452 -0.02090842 -0.02051914 -0.02011527 -0.01968579 -0.01922878 -0.01875683 -0.01827109
 -0.01780847 -0.0173698 -0.01697984 -0.01663342 -0.01631861 -0.01602955 -0.01574088 -0.01545294 -0.0151544 -0.01484734
 -0.01452951 -0.01420459 -0.01387212 -0.01354571 -0.01323382 -0.01294858 -0.01270286 -0.0124825 -0.01228946 -0.01209228
 -0.01188291 -0.01165008 -0.01138874 -0.01111753 -0.01083717 -0.01057039 -0.01031806 -0.01008551 -0.009871621 -0.009667144
 -0.009471598 -0.00927721 -0.009085771 -0.008899548 -0.00871866 -0.008546087 -0.008377039 -0.008205793 -0.00802857 -0.007838907
 -0.007636637 -0.007421919 -0.007187508 -0.006930704 -0.006643356 -0.006317342 -0.005971724 -0.005605042 -0.005259394 -0.004941319
 -0.004671542 -0.004453692 -0.004271511 -0.004124035 -0.0039841 -0.003850193 -0.003697666 -0.003525409 -0.003312628 -0.003063232
 -0.002776642 -0.002461573 -0.00213779 -0.001807284 -0.001483243 -0.001159684 -0.0008340174 -0.0005049148 -0.0001694248 0.0001685258
 0.0005073879 0.0008457145 0.00118245 0.001518092 0.001851759 0.00218888 0.002529197 0.002885647 0.003259751 0.003652317
 0.004063118 0.004471962 0.004878533 0.005270896 0.005652549 0.006036594 0.006424141 0.00682805 0.007241708 0.007658434
 0.008068774 0.008456851 0.008813467 0.009123212 0.009381381 0.009576195 0.009719637 0.009811033 0.009874756 0.00991878
 0.009958996 0.009999814 0.0100522 0.0101169 0.01021369 0.0103449 0.01051417 0.01072132 0.01093684 0.01115992
 0.01137007 0.01157169 0.01177884 0.01199311 0.01222824 0.01248022 0.0127461 0.01302417 0.01331231 0.01360475
 0.01389497 0.0141781 0.01443731 0.01471002 0.01499724 0.01538136 0.01590433 0.01655493 0.01735992 0.01816041
 0.01893073 0.01961276 0.02019443 0.0207368 0.02124239 0.0217455 0.02224317 0.02271412 0.02315316 0.02352254
 0.02381917 0.02401279 0.02410401 0.02407655 0.02394003 0.02370008 0.02337076 0.02296722 0.02250459 0.02199217
 0.02146078 0.02092356 0.02041815 0.01996248 0.0195676 0.01924169 0.01897177 0.01875697 0.01858773 0.01846362
 0.01837083 0.01830843 0.01824518 0.01818002 0.0180893 0.01797599 0.01784319 0.0176957 0.01754962 0.01741063
 0.01730037 0.01721896 0.01718603 0.01717062 0.017155 0.01708893 0.0169188 0.01665166 0.01626318 0.01582379
 0.01535296 0.01489962 0.01447952 0.01411214 0.01379874 0.01358206 0.01346623 0.01348121 0.01362824 0.01386502
 0.01418695 0.01452577 0.01488179 0.01522243 0.01555026 0.01585653 0.01614338 0.01640947 0.01666086 0.01690598
 0.01715042 0.01740379 0.01766802 0.01794873 0.01824205 0.01855295 0.01885607 0.01914763 0.01939007 0.01956898
 0.01968912 0.01974332 0.01979091 0.01983673 0.01992376 0.02005425 0.02021134 0.02039237 0.02055979 0.02071282
 0.02082785 0.02090655 0.02093882 0.02093381 0.02090454 0.02086551 0.02084874 0.02085365 0.02089511 0.0209584
 0.02103414 0.021121 0.02121507 0.02132048 0.02144247 0.02156271 0.02167943 0.02176905 0.02182636 0.02184777
 0.02183199 0.02178551 0.02170864 0.02161452 0.02150431 0.0213982 0.02129376 0.02118799 0.02107592 0.02093313
 0.02076901 0.02059091 0.02041443 0.02027537 0.02016183 0.02007886 0.01999904 0.01989813 0.01977416 0.01961872
 0.01943876 0.01923869 0.01900626 0.01873587 0.01843768 0.0181074 0.01779773 0.01751422 0.01728079 0.01709892
 0.01692803 0.01676612 0.01657532 0.01635927 0.01612141 0.01586451 0.01559864 0.01532691 0.01505713 0.01480221
 0.01458731 0.01441892 0.01432156 0.01427301 0.0142704 0.01427312 0.014259 0.01420089 0.01407769 0.01390518
 0.01367664 0.01344789 0.01322744 0.01305108 0.01292685 0.01281443 0.0127119</values></Ydata></AB><ScSm><Ydata ylabel="Single channel"><values byteorder="INTEL" format="FLOAT32" numvalues="1814"> 0.07542226 0.07541939 0.0754827 0.07563506 0.0758476 0.07605428 0.07619719 0.07626407 0.07627376 0.07623483
 0.07615438 0.07608695 0.07612164 0.07629326 0.07652931 0.07670056 0.07672358 0.07663421 0.07656956 0.0766374
 0.07677184 0.07674888 0.07639436 0.07578079 0.07518182 0.07482 0.07472686 0.07489772 0.07542437 0.07623951
 0.07683213 0.07661332 0.07565634 0.07472655 0.07443288 0.07464363 0.07484589 0.0747378 0.07432206 0.0737867
 0.07355396 0.07416804 0.07576096 0.07760964 0.07839446 0.07703279 0.07345411 0.06884419 0.06520405 0.06427516
 0.06631294 0.06974049 0.07233196 0.07298725 0.07225741 0.07121745 0.07031127 0.06949198 0.06896825 0.06924108
 0.07040824 0.07170105 0.07188404 0.07031158 0.06769851 0.06561459 0.0650558 0.06582004 0.06734429 0.06931353
 0.07081637 0.06986608 0.06535754 0.05953471 0.05698331 0.0602707 0.06720756 0.07299203 0.07448046 0.07194173
 0.06765451 0.06401926 0.06265904 0.06398487 0.06712024 0.07062937 0.07338978 0.07464312 0.07380022 0.07095348
 0.06738053 0.06492262 0.06485061 0.06736949 0.07158028 0.07555988 0.07723244 0.0759041 0.07272705 0.06948346
 0.06741145 0.06720605 0.06919293 0.07298476 0.07746515 0.08143547 0.08410311 0.08515775 0.08483277 0.08375785
 0.08248265 0.08138922 0.08102258 0.08175102 0.08288859 0.0829632 0.08132083 0.0790011 0.07766783 0.07789014
 0.07868956 0.07872777 0.07765992 0.07591333 0.07336274 0.06930584 0.06407396 0.05946171 0.05693316 0.05650614
 0.05781876 0.06070261 0.06393131 0.06514395 0.06342824 0.06097102 0.06088576 0.06388757 0.06792578 0.07068808
 0.07173844 0.07235197 0.07387199 0.07633974 0.07832253 0.07799709 0.07496114 0.07124892 0.06989041 0.07193615
 0.0754475 0.07787838 0.07875724 0.07940646 0.08063367 0.08148554 0.08024521 0.0764731 0.07210349 0.0702486
 0.07248662 0.07728107 0.08109874 0.08102986 0.07674576 0.07056312 0.06563573 0.06377572 0.06496733 0.06856431
 0.07399581 0.08014964 0.08508888 0.08713616 0.08609493 0.08314411 0.07950021 0.07530522 0.07025777 0.065456
 0.0636241 0.06653485 0.07273412 0.07875095 0.08219565 0.08294903 0.08180801 0.0790122 0.0744647 0.06913503
 0.06551611 0.065693 0.06883603 0.07167001 0.07190178 0.07030757 0.06904964 0.06897596 0.06930895 0.06930158
 0.06929974 0.07014425 0.07196664 0.07387373 0.07481486 0.07453899 0.07363034 0.07282327 0.07234196 0.07174879
 0.07056494 0.06922628 0.06903405 0.07072543 0.07345286 0.07565673 0.07663155 0.07677443 0.07654138 0.07566197
 0.07354474 0.07039624 0.06767736 0.06701925 0.06864146 0.07121447 0.07324391 0.0741452 0.07409618 0.07349551
 0.07269726 0.07189366 0.07116695 0.07073132 0.0708835 0.07156774 0.07228227 0.07258473 0.07245088 0.07204343
 0.07139967 0.07049938 0.06948866 0.06868631 0.06835782 0.06851351 0.0689438 0.06941089 0.06973359 0.06974768
 0.06936549 0.06870558 0.06802125 0.06747054 0.06706311 0.06681258 0.06678584 0.06696805 0.06719759 0.06729572
 0.06720811 0.06698991 0.06670153 0.06636193 0.06598434 0.06562214 0.06536438 0.06526886 0.06528972 0.06530859
 0.06527104 0.06524294 0.06527645 0.06528132 0.0651186 0.06478764 0.06443475 0.06419187 0.064072 0.06400859
 0.06392971 0.06377345 0.06348102 0.06304424 0.06257675 0.06227724 0.06227208 0.0625202 0.06288554 0.06324032
 0.06348369 0.0635545 0.06347805 0.06334181 0.06319303 0.06300554 0.06275834 0.06250578 0.06235743 0.06239641
 0.06260493 0.06286924 0.06307079 0.06316283 0.06316432 0.06312951 0.06312999 0.06320113 0.0632856 0.06328602
 0.06318857 0.06308685 0.06307139 0.06313148 0.06317877 0.06315091 0.06308262 0.06306835 0.06315701 0.06330468
 0.06343696 0.06353132 0.06362256 0.06374195 0.06386302 0.0639143 0.06385873 0.06374981 0.06367996 0.06368224
 0.06372233 0.06377872 0.06387764 0.0640365 0.06421356 0.06434121 0.06439817 0.06442767 0.06447849 0.06454223
 0.06456759 0.06453 0.0644633 0.06442142 0.06443071 0.06448251 0.06455161 0.06461254 0.06464799 0.0646524
 0.06463115 0.06459416 0.06454748 0.06449621 0.06446105 0.06447853 0.06456272 0.06466863 0.06471621 0.0646618
 0.06453972 0.06442739 0.06437144 0.06435145 0.06431619 0.06424475 0.06416072 0.06409426 0.06405184 0.06402435
 0.06400349 0.0639844 0.06397192 0.06399316 0.06408273 0.06423751 0.06439836 0.06449753 0.06452112 0.06451271
 0.06452294 0.06457114 0.0646485 0.06474011 0.06484348 0.06497017 0.06512082 0.06526268 0.06535693 0.06541148
 0.0654795 0.06560196 0.06577838 0.06599052 0.0662166 0.0664201 0.06656657 0.06666698 0.06677482 0.06692694
 0.06710895 0.0672887 0.06746041 0.06764068 0.06783874 0.06805266 0.06828794 0.06856024 0.06887576 0.06921719
 0.06955022 0.06984259 0.07008789 0.07031958 0.07059336 0.07094176 0.07134423 0.07174557 0.0721031 0.07241628
 0.07271418 0.07301978 0.07333461 0.0736609 0.07402097 0.07443421 0.07488305 0.07532532 0.07573885 0.07613522
 0.0765321 0.07693273 0.07733459 0.07774316 0.07816923 0.07861565 0.07906771 0.07949963 0.07989527 0.08026169
 0.0806214 0.08099668 0.08140083 0.08182707 0.08223879 0.08259207 0.08288587 0.0831745 0.08350848 0.08387591
 0.08422697 0.08454734 0.08487593 0.08524771 0.08564818 0.08603847 0.08640655 0.08677548 0.08716786 0.08757437
 0.08795568 0.08827242 0.08851895 0.08873054 0.0889542 0.08921675 0.0895274 0.08989491 0.09031596 0.09075144
 0.09114302 0.09145929 0.09171054 0.09192602 0.09213786 0.0923766 0.09265384 0.09294942 0.09323125 0.09348061
 0.09369163 0.09387055 0.0940498 0.09427559 0.09456187 0.09487986 0.09520908 0.09556796 0.09597096 0.09638597
 0.09677234 0.097145 0.09755653 0.098012 0.09844074 0.09876996 0.09899674 0.09916817 0.09932361 0.09949186
 0.09971885 0.1000477 0.1004694 0.1009244 0.1013582 0.1017539 0.1021172 0.1024512 0.102752 0.1030128
 0.1032283 0.1033994 0.1035421 0.1036902 0.1038833 0.1041403 0.1044362 0.1047151 0.10493 0.1050634
 0.1051101 0.1050637 0.1049408 0.1047986 0.1046925 0.1046112 0.1044763 0.1042112 0.1037947 0.1032473
 0.1025923 0.1018476 0.1010488 0.1002627 0.09957264 0.09904861 0.09873495 0.09866273 0.09885764 0.09931238
 0.09995091 0.1006411 0.101253 0.1016937 0.1018954 0.1018054 0.1014174 0.1007954 0.1000468 0.09927444
 0.09855434 0.09792979 0.09740927 0.09699075 0.09671703 0.09670089 0.09707668 0.09792387 0.09923155 0.100906
 0.1027881 0.1046846 0.1064289 0.1079426 0.1092405 0.110378 0.1114036 0.1123551 0.1132687 0.114163
 0.1150199 0.1158045 0.1165034 0.1171302 0.1176951 0.1181894 0.1185967 0.1189085 0.1191298 0.1192834
 0.119403 0.1195129 0.1196182 0.1197184 0.1198213 0.1199295 0.1200183 0.120038 0.1199416 0.1197183
 0.1194217 0.1191847 0.1192029 0.1196702 0.120685 0.1221893 0.1239928 0.1258675 0.127634 0.1291856
 0.1304722 0.1314942 0.1323047 0.132986 0.1336042 0.1341873 0.1347397 0.1352648 0.13577 0.1362615
 0.136741 0.1372087 0.1376675 0.1381222 0.1385716 0.1390052 0.139415 0.1398102 0.1402151 0.1406489
 0.1411072 0.1415668 0.1420105 0.1424424 0.1428738 0.1432974 0.1436925 0.1440536 0.1444005 0.144761
 0.145151 0.1455691 0.1459956 0.1463991 0.1467578 0.1470773 0.147383 0.1476962 0.1480218 0.1483552
 0.1486929 0.1490328 0.1493714 0.1497075 0.1500478 0.1503984 0.1507489 0.1510735 0.1513572 0.151615
 0.1518805 0.1521752 0.1524907 0.1528015 0.1530956 0.153392 0.1537227 0.1540949 0.1544784 0.154833
 0.1551445 0.1554292 0.1557099 0.1559962 0.1562883 0.156588 0.1568984 0.1572169 0.1575364 0.1578535
 0.1581702 0.1584882 0.1588073 0.1591262 0.1594436 0.1597605 0.160081 0.1604068 0.1607344 0.1610642
 0.1614042 0.161758 0.1621115 0.1624411 0.1627334 0.1629928 0.1632356 0.1634799 0.1637381 0.1640139
 0.1643068 0.1646166 0.1649397 0.1652646 0.1655788 0.1658794 0.1661739 0.1664701 0.1667693 0.1670696
 0.1673752 0.167695 0.1680309 0.1683695 0.1686946 0.1690032 0.1693062 0.1696139 0.1699269 0.170237
 0.1705336 0.1708146 0.1710927 0.1713854 0.1716967 0.1720131 0.1723193 0.1726136 0.1729054 0.1732035
 0.1735091 0.1738176 0.1741243 0.1744247 0.1747154 0.1750001 0.1752907 0.1755947 0.1759034 0.1762019
 0.1764875 0.176772 0.1770669 0.1773736 0.1776859 0.1779983 0.1783096 0.1786189 0.1789211 0.1792104
 0.1794892 0.1797683 0.1800574 0.1803595 0.1806703 0.1809805 0.1812822 0.1815745 0.1818619 0.1821494
 0.1824424 0.1827466 0.1830602 0.1833746 0.1836849 0.183993 0.1843007 0.1846094 0.184922 0.1852396
 0.1855584 0.1858748 0.1861895 0.1865041 0.1868165 0.1871211 0.187412 0.1876903 0.1879644 0.1882418
 0.1885231 0.188809 0.1891003 0.1893921 0.18968 0.189969 0.1902672 0.1905736 0.1908842 0.1912003
 0.1915228 0.1918474 0.1921691 0.1924842 0.1927892 0.1930863 0.1933842 0.1936899 0.1940071 0.1943385
 0.1946788 0.1950142 0.1953383 0.1956575 0.195977 0.1962939 0.1966072 0.1969187 0.1972289 0.1975415
 0.1978628 0.1981902 0.1985155 0.1988367 0.1991549 0.199468 0.1997798 0.2001005 0.2004309 0.2007623
 0.2010892 0.2014101 0.2017246 0.2020376 0.2023558 0.202677 0.2029971 0.2033204 0.2036475 0.2039711
 0.2042922 0.2046196 0.2049513 0.2052787 0.2056015 0.2059214 0.2062356 0.2065476 0.2068599 0.2071513
 0.2073682 0.2073821 0.2068717 0.2051968 0.201385 0.1943291 0.1832266 0.1680844 0.1498896 0.1302589
 0.1108477 0.09292434 0.07724234 0.06413055 0.05365746 0.04574583 0.04024039 0.03700929 0.03605306 0.03762777
 0.0423808 0.05096608 0.06259845 0.07378358 0.07968595 0.07794822 0.07094443 0.06361458 0.05936238 0.05842003
 0.05932989 0.06085384 0.06260197 0.06479914 0.06782831 0.0717917 0.07649693 0.08193983 0.08853392 0.09658457
 0.1056667 0.1148099 0.12334 0.1314046 0.1396331 0.1483739 0.1573278 0.1658421 0.1734282 0.1800021
 0.185774 0.1910182 0.1959206 0.2005656 0.2049933 0.2091978 0.2130343 0.2161849 0.2183127 0.2193175
 0.2194537 0.2191887 0.2189331 0.2188838 0.2190663 0.219452 0.2200154 0.2207343 0.2215841 0.2225319
 0.2235341 0.2245526 0.2255695 0.2265746 0.2275476 0.2284663 0.2293202 0.2301077 0.2308289 0.231486
 0.2320859 0.2326427 0.2331776 0.2337063 0.2342243 0.2347152 0.2351725 0.2356052 0.2360229 0.2364252
 0.2368045 0.2371553 0.2374825 0.2378003 0.2381205 0.2384456 0.2387746 0.2391086 0.2394473 0.2397867
 0.2401237 0.2404583 0.2407899 0.2411177 0.2414389 0.2417482 0.2420444 0.2423384 0.242646 0.2429715
 0.2433078 0.2436483 0.2439876 0.244316 0.2446251 0.2449214 0.2452226 0.2455414 0.2458729 0.2462018
 0.2465234 0.2468545 0.2472143 0.2475983 0.2479834 0.2483541 0.2487112 0.2490607 0.2494088 0.2497595
 0.2501047 0.250426 0.250717 0.2509989 0.2513096 0.2516735 0.252077 0.2524779 0.252846 0.25319
 0.2535357 0.2538904 0.2542385 0.2545625 0.2548654 0.2551809 0.2555491 0.2559698 0.2564002 0.2568127
 0.2572197 0.2576342 0.2580482 0.2584554 0.2588517 0.2592084 0.2594942 0.2597356 0.260024 0.2604427
 0.2609876 0.2615635 0.2620708 0.2624913 0.2628762 0.2632792 0.2637239 0.264184 0.2645521 0.2647114
 0.264717 0.2648311 0.2652841 0.2660453 0.2668858 0.2676134 0.2681892 0.2686701 0.2691071 0.269494
 0.269781 0.2699366 0.2700246 0.270221 0.2706968 0.2714406 0.2722454 0.2729136 0.2734126 0.2738085
 0.2741563 0.2744857 0.2747515 0.274774 0.2744288 0.2739725 0.2739695 0.2747451 0.2760204 0.2772099
 0.2779992 0.2785054 0.2789511 0.2793916 0.2797749 0.2799886 0.2797313 0.2786874 0.2771389 0.2761316
 0.2766087 0.2784597 0.2807021 0.2824662 0.2835439 0.2841606 0.2845866 0.2849566 0.2851725 0.2849203
 0.2840204 0.2828924 0.2824508 0.2832646 0.2849129 0.2864309 0.287295 0.2877014 0.2880424 0.288467
 0.288785 0.2884253 0.2867582 0.2840226 0.2817951 0.2818851 0.2845656 0.288244 0.2910395 0.2924033
 0.2929707 0.293173 0.2925981 0.2907295 0.2877224 0.2843321 0.2816784 0.2810948 0.2832462 0.2870234
 0.2901747 0.2915291 0.2919824 0.2930096 0.2948983 0.296767 0.2977104 0.297498 0.2964126 0.2947481
 0.2926711 0.290693 0.2899557 0.2914235 0.2947111 0.2982156 0.3005985 0.3018051 0.3023703 0.3018548
 0.2985246 0.2914383 0.2830663 0.2786091 0.2813998 0.2894143 0.2974492 0.3022426 0.3042548 0.3052178
 0.3058181 0.3055081 0.3028159 0.2961464 0.2862926 0.2780111 0.2768005 0.2834595 0.2931842 0.3000581
 0.3010867 0.2965072 0.2887143 0.2815468 0.2787231 0.2815859 0.2885156 0.296529 0.3030691 0.3067021
 0.3071015 0.3049076 0.3016734 0.2994905 0.2994825 0.3001416 0.298463 0.2937427 0.2887536 0.2856694
 0.2826945 0.2773852 0.2720168 0.2720699 0.2791045 0.288155 0.2933145 0.2937174 0.292458 0.2909538
 0.2865171 0.2762299 0.2624784 0.2530324 0.2542487 0.2644836 0.2755615 0.2807672 0.2801748 0.2782537
 0.2778978 0.2774865 0.2731999 0.2640138 0.2542128 0.2497954 0.2521013 0.2566041 0.2582635 0.2555638
 0.2487603 0.2382293 0.2273119 0.2233471 0.2314592 0.2482604 0.2645308 0.2728333 0.2702311 0.2565825
 0.235489 0.2163887 0.2099728 0.2186327 0.2335631 0.2428742 0.2410368 0.2298417 0.2132709 0.1947574
 0.1787341 0.1711143 0.1757161 0.1903617 0.207093 0.2162125 0.2116264 0.1954979 0.1784773 0.1720448
 0.1781741 0.1880732 0.1920691 0.1883736 0.1816747 0.177013 0.1768364 0.1807238 0.185878 0.189688
 0.1918004 0.1913169 0.1840076 0.1674313 0.1478605 0.1361859 0.1365811 0.1443294 0.1545609 0.1666128
 0.1784133 0.1835026 0.1783313 0.1690273 0.1661958 0.1736585 0.1851692 0.1920395 0.1917283 0.1882961
 0.1860895 0.1850795 0.1830545 0.1806765 0.1816748 0.1876738 0.1953405 0.2001041 0.2009284 0.1998967
 0.1986993 0.1973695 0.1954846 0.1929174 0.1897339 0.1862977 0.1831756 0.1805019 0.1778665 0.1749634
 0.1715939 0.1667788 0.1589848 0.1483573 0.1381178 0.1320792 0.1306804 0.1311668 0.1316937 0.1324871
 0.1320894 0.1261959 0.1133929 0.09992366 0.09515945 0.1025629 0.1171216 0.1310071 0.1394338 0.1410338
 0.1356691 0.125007 0.1148871 0.1134581 0.124424 0.143425 0.1627456 0.1779909 0.1884711 0.1934543
 0.1916225 0.1841173 0.1757114 0.1721179 0.1765493 0.1882196 0.2024639 0.2118271 0.2097234 0.1970858
 0.1854619 0.1884951 0.2074736 0.2290315 0.2401637 0.2414591 0.2417073 0.2442436 0.2453351 0.2439226
 0.245469 0.2544665 0.2678009 0.2778008 0.2789489 0.2700375 0.253449 0.235692 0.2257054 0.2277179
 0.236501 0.2431106 0.2435936 0.2384891 0.2274871 0.2115096 0.1982701 0.1976767 0.2103184 0.2261085
 0.235742 0.2391421 0.2412868 0.2435987 0.2422707 0.2340902 0.2217864 0.21232 0.2099739 0.2125895
 0.2151749 0.2151745 0.2125706 0.2069422 0.1976936 0.1870622 0.1801556 0.180583 0.186856 0.1939359
 0.1978898 0.1984427 0.1976487 0.197349 0.197954 0.1986834 0.1988718 0.199661 0.2037847 0.2124614
 0.2231517 0.2320327 0.2383417 0.2445967 0.2526076 0.2608646 0.2662457 0.2673521 0.2658691 0.2651856
 0.267722 0.2729919 0.2779431 0.2795765 0.2778134 0.2758349 0.2771462 0.2822211 0.2884231 0.2930115
 0.2953995 0.2965741 0.2974645 0.2981812 0.2979951 0.2959368 0.2922834 0.289431 0.2902179 0.2950931
 0.3016413 0.3069996 0.3101 0.3115306 0.3120314 0.3116779 0.3103127 0.308283 0.3064638 0.3055864
 0.3057395 0.3065435 0.3075847 0.3085871 0.3093906 0.309958 0.3103573 0.3106699 0.3109565 0.311293
 0.3117261 0.3121867 0.3125592 0.3128712 0.3133128 0.3140016 0.3148029 0.3154585 0.3158159 0.3158278
 0.3154012 0.3144222 0.312936 0.3111465 0.3091831 0.3070108 0.3047041 0.3027577 0.3019463 0.3027495
 0.3049136 0.3076181 0.3100523 0.3118227 0.3129281 0.3135362 0.3138347 0.3139807 0.3140708 0.3141285
 0.3141366 0.3140818 0.3139675 0.3137986 0.3135787 0.3133353 0.313128 0.3130077 0.3129663 0.3129368
 0.3128372 0.3126145 0.3122671 0.3118352 0.3113557 0.3108203 0.3101828 0.3094065 0.3084986 0.3075103
 0.3065143 0.3055713 0.3046912 0.3038184 0.3028665 0.3017707 0.3004931 0.2989923 0.2972503 0.2953537
 0.293489 0.2917984 0.2902611 0.2887452 0.2871367 0.2853859 0.2834808 0.2814354 0.2792963 0.2771214
 0.2749457 0.27277 0.2705731 0.2683313 0.2660332 0.2636797 0.261276 0.2588267 0.2563357 0.2537949
 0.2511635 0.2483553 0.2452533 0.241737 0.2376963 0.2330388 0.2277335 0.2218813 0.2157274 0.209572
 0.2036608 0.1981472 0.1931217 0.1886512 0.1847948 0.1816049 0.1791255 0.1773939 0.1764317 0.1762279
 0.1767387 0.1779062 0.1796569 0.1818768 0.1844049 0.1870545 0.1896308 0.1919556 0.1939329 0.1956113
 0.1971536 0.1987124 0.2003285 0.2019442 0.2034954 0.2049583 0.2063135 0.2075144 0.2085293 0.209387
 0.2101486 0.2108515 0.2115029 0.2121047 0.2126591 0.2131665 0.2136399 0.214118 0.2146551 0.2152944
 0.2160479 0.2168962 0.2178068 0.2187505 0.219707 0.2206693 0.2216437 0.2226396 0.2236595 0.2247063
 0.2257945 0.2269584 0.2282634 0.2298006 0.2316481 0.2338341 0.2363338 0.2390808 0.2419644 0.2448369
 0.2475475 0.2499744 0.2520375 0.2537017 0.2549718 0.255886 0.2565103 0.2569245 0.2571912 0.2573413
 0.2573886 0.2573409 0.2571906 0.2569177 0.2565049 0.2559438 0.2552415 0.2544416 0.2536148 0.2528087
 0.252022 0.2512399 0.2504695 0.249727 0.2490058 0.2482729 0.2474961 0.2466712 0.2458157 0.2449352
 0.2440105 0.2430173 0.2419375 0.240749 0.2394293 0.2379741 0.2363949 0.2347008 0.2328983 0.2310024
 0.229037 0.2270364 0.2250473 0.2231118 0.2212346 0.2193618 0.2173919 0.2152265 0.2128435 0.2103285
 0.2078175 0.2054107 0.2031381 0.2009827 0.1989137 0.1969163 0.1950027 0.1931908 0.1914778 0.1898462
 0.1882836 0.1867838 0.1853402 0.1839539 0.1826449 0.1814516 0.1804134 0.1795383 0.1787846 0.1780908
 0.1774235 0.1767889 0.176215 0.1757438 0.1754125 0.1752086 0.1750537 0.1748508 0.1745468 0.1741491
 0.1737016 0.1732522 0.1728278 0.1724328 0.1720578 0.1716744 0.1712188 0.1705968 0.1697111 0.1684916
 0.1669208 0.1650395 0.1629271 0.1606869 0.1584519 0.1563694 0.154552 0.1530515 0.1518703 0.1509648
 0.1502436 0.1496109 0.1490333 0.148561 0.1482762 0.148199 0.1482193 0.1481555 0.1479286 0.1476602
 0.1475647 0.1477637 0.1482194 0.1487942 0.1493438 0.149783 0.1500953 0.1502916 0.1503808 0.1503749
 0.1502855 0.1501099 0.1498482 0.149518 0.1491312 0.1486818 0.1481671 0.1475901 0.1469433 0.1462187
 0.1454173 0.1445281 0.1435348 0.1424433 0.1412566 0.1399543 0.1385808 0.1373323 0.1364786 0.1361922
 0.1364584 0.1371047 0.1379193 0.138774 0.1395909 0.1401861 0.1403292 0.1401061 0.1400904 0.1409271
 0.1427121 0.1448844 0.1467301 0.1478858 0.1483526 0.1482244 0.1475689 0.1464631 0.1449448 0.1429658
 0.1405105 0.13769 0.1346559 0.1315472 0.1285486 0.1258481 0.1235342 0.1216176 0.1200912 0.1189965
 0.1184601 0.1181117 0.1161195 0.1101529 0.1009623 0.09398457 0.09478925 0.1028287 0.1118086 0.1163476
 0.1162793 0.1144647 0.1129034 0.1119311 0.1114662 0.1116282 0.1125031 0.1139195 0.1154735 0.116753
 0.1175928 0.1180354 0.1180404 0.1172673 0.1150333 0.1105346 0.1034889 0.09472417 0.08590893 0.07858173
 0.07346917 0.07049192 0.06906566 0.06843713 0.06806473 0.06786755 0.06812137 0.06911552 0.07090999 0.07337344
 0.07633395 0.0795667 0.08269126 0.08530484 0.0872834 0.08880305 0.090033 0.09094651 0.09143524 0.09146374
 0.09109058 0.09043609 0.08964466 0.08881599 0.08794264 0.08693643 0.08577293 0.08462735 0.08378501 0.08336826
 0.08323811 0.08319784 0.08317257 0.08316027 0.08314759 0.08312194 0.083087 0.08307467 0.0831802 0.08350289
 0.0840034 0.08450557 0.08486673 0.08508122 0.08522294 0.0853162 0.08523661 0.08480522 0.0840805 0.08341324
 0.08300555 0.08257023 0.0817114 0.08054064 0.07962605 0.07936557 0.07963233 0.08001085 0.08018491 0.08008818
 0.07987085 0.07981981 0.08017296 0.0808455</values></Ydata></ScSm><ScRf><Ydata ylabel="Single channel"><values byteorder="INTEL" format="FLOAT32" numvalues="1820"> 0.06063986 0.060798 0.060903 0.06094551 0.06094371 0.06094588 0.06100802 0.06115422 0.06135579 0.06154964
 0.06168348 0.06174881 0.06176433 0.06173714 0.06167089 0.06161225 0.06164232 0.06179599 0.06200975 0.06216658
 0.06219247 0.06212217 0.06207677 0.06214665 0.06227165 0.06226173 0.06197538 0.06148133 0.06101273 0.06075143
 0.06071213 0.06087735 0.06131698 0.06198318 0.06246987 0.06230001 0.06152794 0.06077195 0.06052916 0.06069809
 0.06086693 0.06079246 0.06047445 0.06005961 0.05988662 0.06039943 0.06171113 0.06323628 0.06389526 0.06279443
 0.05986754 0.05608509 0.05309604 0.05234016 0.05403315 0.0568774 0.05903558 0.05959559 0.05900988 0.05816912
 0.05744343 0.05678947 0.05636829 0.05658931 0.05754355 0.05861206 0.05878199 0.05751535 0.0553915 0.0536954
 0.05324204 0.05386528 0.05511001 0.05673012 0.05798363 0.05723002 0.05354343 0.04875946 0.04666055 0.04938095
 0.05512912 0.05993948 0.06120043 0.05912099 0.05558602 0.05259219 0.05148887 0.05260991 0.05521984 0.05813005
 0.0604203 0.06146966 0.06078967 0.05845268 0.05551375 0.05349701 0.05345595 0.0555623 0.05907337 0.06239734
 0.06381288 0.06273933 0.06012426 0.05744197 0.05572331 0.05555379 0.05721258 0.06038246 0.06413402 0.06746483
 0.06970871 0.07060289 0.07034352 0.06946415 0.06843053 0.06755827 0.06729269 0.06793635 0.06891661 0.06900224
 0.06764481 0.06571694 0.06461616 0.0648206 0.06550913 0.06555884 0.06468026 0.06323365 0.06111724 0.05774135
 0.05337841 0.04953104 0.04743204 0.04710363 0.04824589 0.05071553 0.05347487 0.05453009 0.05310768 0.05104701
 0.05097529 0.05350769 0.0569284 0.05929013 0.06021835 0.06078267 0.06211405 0.06424396 0.06595798 0.0657132
 0.06317058 0.06005618 0.05894189 0.06071977 0.06374212 0.06584661 0.06663776 0.06724492 0.06835471 0.0691514
 0.06816955 0.06503538 0.06140089 0.05991913 0.06192906 0.06611297 0.0694526 0.0694602 0.06585327 0.06062189
 0.0564805 0.0549878 0.05613088 0.05936612 0.06422167 0.06974511 0.07424585 0.07623647 0.07551268 0.07308919
 0.07003643 0.06648266 0.06215898 0.05804464 0.05657887 0.05935871 0.06509787 0.07069822 0.0740145 0.0749249
 0.07412666 0.07181223 0.06787425 0.06320227 0.06010869 0.06052971 0.0636903 0.06654291 0.06695866 0.06567025
 0.06470519 0.06486221 0.06541003 0.06564093 0.06588436 0.06694633 0.06895508 0.07105236 0.07222408 0.07222295
 0.07161137 0.07110435 0.07091644 0.07060517 0.06969559 0.06863627 0.06873656 0.07073016 0.07376169 0.07626568
 0.0775366 0.07797867 0.07804953 0.07745759 0.07558046 0.07262753 0.0701156 0.0697445 0.07175295 0.07476552
 0.0772225 0.07850483 0.07879188 0.07849491 0.07797673 0.07743682 0.07697234 0.07682811 0.07733329 0.07842726
 0.07955495 0.0802223 0.08040003 0.08026974 0.07987046 0.07917929 0.07836837 0.077801 0.0777691 0.07827748
 0.07909147 0.07994346 0.08062525 0.08094992 0.08081776 0.08036068 0.07986817 0.07952619 0.07934721 0.07934485
 0.07959728 0.080089 0.08063323 0.0810281 0.0812168 0.08125731 0.08120582 0.08107802 0.08089104 0.08070986
 0.08064518 0.08077465 0.08104579 0.0813117 0.08150531 0.08170949 0.08198996 0.08223804 0.0822826 0.08211459
 0.08190362 0.08180994 0.08185463 0.08196257 0.08205195 0.0820484 0.08187279 0.08151003 0.08110683 0.0809183
 0.08110288 0.08160798 0.08226219 0.08289822 0.08337914 0.08362607 0.08367828 0.08365217 0.08360531 0.08349664
 0.0832953 0.08307961 0.08300734 0.08319341 0.08360653 0.08408725 0.08447511 0.08470491 0.08479916 0.0848352
 0.08491979 0.08510625 0.08531286 0.08539814 0.08533788 0.08526159 0.0852942 0.08541362 0.08548991 0.08544259
 0.08533625 0.08531415 0.08544738 0.08567443 0.0858909 0.08606412 0.08624142 0.08646103 0.08667068 0.08674945
 0.08663464 0.08641376 0.08624416 0.08619029 0.08620115 0.08624164 0.08635714 0.08657526 0.08681396 0.08694972
 0.08695676 0.08693023 0.08696561 0.08704607 0.08706948 0.08696935 0.0867838 0.08661275 0.08653487 0.08656441
 0.08665688 0.08673948 0.08675186 0.08667992 0.08655746 0.08643235 0.08633322 0.08627692 0.0863007 0.08645053
 0.08670753 0.08694381 0.086999 0.08682431 0.08653846 0.08632441 0.08626691 0.08629227 0.08625814 0.0860896
 0.08582724 0.08556549 0.08536766 0.08523677 0.08514219 0.08506131 0.08500849 0.08503032 0.08515355 0.08532103
 0.08540235 0.08530189 0.0850523 0.08477965 0.08458886 0.08450388 0.08449133 0.08450276 0.08451052 0.0845327
 0.08460267 0.08469649 0.08473201 0.08466572 0.08455236 0.08448856 0.08453575 0.08469932 0.08492306 0.08509406
 0.08511738 0.08501317 0.0848999 0.08486976 0.08491671 0.08498903 0.08506457 0.08515302 0.08525741 0.08536731
 0.08548606 0.08564182 0.08586006 0.08612685 0.08638466 0.08657137 0.08667409 0.08675031 0.08688869 0.08713596
 0.08745826 0.08777433 0.08802661 0.08822133 0.08840391 0.08860128 0.08880068 0.08899035 0.08919972 0.08947103
 0.08980035 0.09013807 0.09044581 0.09072626 0.09099865 0.09127188 0.09154916 0.09184673 0.09219827 0.09262626
 0.09309444 0.09350446 0.09377217 0.09391016 0.09402022 0.09421155 0.0945279 0.09491935 0.09526499 0.0954641
 0.09554069 0.09562843 0.09582304 0.09608489 0.09632373 0.09654236 0.09683667 0.09726 0.09773771 0.09813412
 0.09838194 0.09853154 0.09868117 0.09887106 0.09905378 0.09916913 0.09922982 0.09930764 0.0994449 0.09962392
 0.09983419 0.1001166 0.1005016 0.1009382 0.1013294 0.1016206 0.1018217 0.1019639 0.1020709 0.1021536
 0.1022076 0.1022305 0.1022544 0.1023266 0.1024423 0.1025351 0.1025608 0.1025589 0.102606 0.1027414
 0.1029612 0.1032488 0.103573 0.1038787 0.1041324 0.1043768 0.1046907 0.1050747 0.1054181 0.1056127
 0.1056688 0.1056771 0.1056918 0.105712 0.1057592 0.1058965 0.1061547 0.1064894 0.1068351 0.1071698
 0.1075093 0.10786 0.10819 0.1084419 0.1085712 0.1085838 0.1085416 0.108533 0.108629 0.108851
 0.1091598 0.1094827 0.1097593 0.1099595 0.1100625 0.1100579 0.1099915 0.1099755 0.110097 0.1103138
 0.110476 0.1104569 0.1102351 0.1098539 0.1093466 0.1087293 0.1080446 0.1073777 0.1068197 0.1064232
 0.1062024 0.1061739 0.1063761 0.1068251 0.1074592 0.1081547 0.1088002 0.1093221 0.1096407 0.1096595
 0.1093375 0.1087459 0.1080229 0.1072893 0.1066133 0.1060111 0.1054496 0.1048874 0.1043617 0.1040287
 0.1040857 0.1046488 0.1056964 0.1070891 0.108618 0.1100663 0.1112868 0.112256 0.1130505 0.1137626
 0.1144405 0.1151007 0.115762 0.116431 0.1170712 0.1176284 0.1180937 0.1185106 0.1189186 0.1193134
 0.1196631 0.1199419 0.1201545 0.1203406 0.1205377 0.1207268 0.1208385 0.1208327 0.1207453 0.1206373
 0.1205231 0.1203647 0.1201147 0.1197534 0.1193161 0.1189174 0.1187391 0.1189549 0.1196311 0.1206849
 0.1219441 0.1232539 0.1245199 0.1256652 0.1265989 0.1272638 0.1276938 0.127991 0.1282519 0.1285274
 0.1288306 0.1291524 0.1294722 0.1297734 0.1300573 0.1303441 0.130658 0.1310026 0.1313459 0.1316404
 0.1318715 0.1320833 0.1323473 0.1326995 0.1331041 0.1334874 0.1338128 0.1341119 0.1344264 0.1347378
 0.1349882 0.1351626 0.1353161 0.1355169 0.1357965 0.1361459 0.1365233 0.1368627 0.1371136 0.1372858
 0.1374388 0.1376238 0.1378511 0.1381046 0.1383678 0.1386305 0.1388891 0.1391529 0.1394418 0.1397604
 0.1400718 0.1403166 0.1404707 0.140578 0.1407107 0.1409019 0.1411254 0.1413379 0.1415305 0.1417394
 0.1420069 0.1423294 0.1426504 0.1429078 0.1430843 0.1432115 0.143336 0.14349 0.1436838 0.1439085
 0.1441413 0.1443579 0.1445499 0.1447331 0.1449313 0.1451515 0.1453776 0.145591 0.14579 0.145988
 0.1461965 0.1464152 0.1466395 0.1468754 0.1471395 0.1474337 0.1477263 0.1479726 0.1481548 0.1482923
 0.148416 0.1485462 0.1486935 0.1488644 0.1490584 0.1492655 0.1494716 0.149669 0.1498609 0.1500568
 0.1502617 0.1504725 0.1506847 0.1508991 0.1511199 0.1513495 0.1515839 0.1518122 0.1520239 0.152217
 0.1524002 0.1525854 0.152781 0.1529867 0.1531922 0.1533865 0.1535705 0.1537561 0.1539504 0.1541471
 0.1543366 0.1545179 0.1546995 0.1548907 0.1550937 0.155302 0.1555069 0.155706 0.1559034 0.1561026
 0.1563013 0.1564954 0.1566845 0.1568728 0.1570635 0.1572551 0.1574458 0.1576382 0.1578363 0.1580396
 0.1582417 0.1584356 0.1586207 0.1588058 0.1590039 0.1592182 0.159438 0.159647 0.1598371 0.1600146
 0.1601962 0.1603963 0.1606129 0.160832 0.1610463 0.1612623 0.1614849 0.1617081 0.1619235 0.1621308
 0.1623359 0.1625435 0.1627531 0.1629618 0.1631711 0.1633875 0.1636131 0.163839 0.164053 0.1642471
 0.1644196 0.1645773 0.1647359 0.1649087 0.1650945 0.1652846 0.1654741 0.1656632 0.165854 0.1660484
 0.1662464 0.1664454 0.1666444 0.1668439 0.16704 0.1672285 0.1674135 0.1676034 0.1678009 0.1680048
 0.168215 0.1684301 0.1686464 0.1688606 0.1690697 0.1692709 0.1694691 0.1696739 0.1698875 0.1701052
 0.1703243 0.1705444 0.1707619 0.1709745 0.1711843 0.1713934 0.1716028 0.1718147 0.1720295 0.1722453
 0.1724617 0.1726764 0.1728811 0.1730728 0.1732626 0.1734608 0.173666 0.1738753 0.1740893 0.1743042
 0.1745152 0.1747265 0.1749426 0.1751609 0.1753821 0.1756087 0.1758348 0.1760526 0.1762642 0.1764743
 0.1766827 0.1768906 0.1770963 0.1772799 0.1773959 0.1773365 0.1768305 0.1753345 0.1720186 0.1659306
 0.1563746 0.1433492 0.1277031 0.1108335 0.09416831 0.07879169 0.06534152 0.05409826 0.04512525 0.03835695
 0.03365533 0.03090185 0.03009085 0.03142925 0.03545596 0.04272949 0.05260348 0.06212489 0.06717142 0.06570712
 0.05973387 0.05346627 0.04982197 0.04900655 0.04977481 0.05106641 0.05254391 0.05439387 0.05694159 0.06027903
 0.06424849 0.0688471 0.07442129 0.08122608 0.08890364 0.09663673 0.1038524 0.1106676 0.1176097 0.1249746
 0.1325129 0.1396773 0.1460592 0.1515847 0.1564233 0.160804 0.1648916 0.1687661 0.1724632 0.1759754
 0.1791786 0.1818014 0.1835526 0.18434 0.1843784 0.1840735 0.1837853 0.1836823 0.1837789 0.1840444
 0.1844574 0.185002 0.1856621 0.1864163 0.1872288 0.1880577 0.1888743 0.1896664 0.190428 0.1911529
 0.1918285 0.1924358 0.1929688 0.1934483 0.1939024 0.1943399 0.1947539 0.1951403 0.1955029 0.1958486
 0.1961829 0.1965034 0.1968005 0.1970692 0.1973152 0.197548 0.1977748 0.1980006 0.198226 0.1984473
 0.1986626 0.1988743 0.1990823 0.1992836 0.1994787 0.1996736 0.1998724 0.2000731 0.2002694 0.2004546
 0.2006304 0.2008104 0.2010075 0.2012183 0.2014285 0.2016289 0.2018202 0.2020053 0.2021857 0.2023638
 0.202545 0.202737 0.2029421 0.2031537 0.2033635 0.2035736 0.2037899 0.2040079 0.2042175 0.2044195
 0.2046242 0.2048365 0.2050535 0.2052701 0.205477 0.2056611 0.2058194 0.2059701 0.206142 0.2063524
 0.2065903 0.2068242 0.2070307 0.2072162 0.207404 0.2076047 0.2078058 0.2079878 0.2081499 0.2083207
 0.2085337 0.2087898 0.2090596 0.2093228 0.2095805 0.2098308 0.2100639 0.2102835 0.2104981 0.210692
 0.2108385 0.2109506 0.2110948 0.2113407 0.2116916 0.2120704 0.2123885 0.2126275 0.2128373 0.2130725
 0.2133522 0.2136453 0.213858 0.2138975 0.2138115 0.2138108 0.2140787 0.2145899 0.2151632 0.2156484
 0.2160158 0.2163085 0.2165648 0.2167806 0.2169172 0.2169457 0.2169109 0.2169514 0.2172111 0.2176942
 0.2182443 0.2187008 0.2190273 0.2192672 0.2194597 0.2196266 0.2197344 0.2196448 0.2192632 0.218798
 0.2187059 0.2192523 0.2202113 0.2211048 0.2216721 0.2220019 0.2222708 0.2225251 0.2227291 0.2227988
 0.2224973 0.2215737 0.2202531 0.2193689 0.2196701 0.2210641 0.2227684 0.2240965 0.224885 0.2253059
 0.2255687 0.2257873 0.2258928 0.2256332 0.2248572 0.2238962 0.2234796 0.224059 0.2252982 0.2264341
 0.227057 0.2273211 0.2275288 0.2277946 0.2279762 0.2276299 0.2262534 0.2240251 0.2221897 0.2221853
 0.2242364 0.2270873 0.2292486 0.2302788 0.2306731 0.2307716 0.2302523 0.22871 0.2262687 0.2235263
 0.2213666 0.220843 0.2224829 0.2254115 0.2278455 0.2288559 0.2291524 0.2299075 0.2313525 0.2327891
 0.2334975 0.2332927 0.2323967 0.231043 0.2293675 0.2277782 0.2271718 0.2282979 0.2308491 0.2335696
 0.2354122 0.2363325 0.2367489 0.2363165 0.2336689 0.2280595 0.2214279 0.2178713 0.2200285 0.226321
 0.2326495 0.2364258 0.2379997 0.2387422 0.2392049 0.2389599 0.2368503 0.231625 0.2239037 0.2174129
 0.2164636 0.2216849 0.2293157 0.2347197 0.235541 0.2319519 0.2258278 0.2201889 0.2179605 0.2202033
 0.2256578 0.231987 0.2371728 0.2400748 0.2404294 0.2387395 0.2362334 0.2345676 0.2346257 0.2352071
 0.2339417 0.2302879 0.2264386 0.2241023 0.2218546 0.2177613 0.2136177 0.2137643 0.2194512 0.2267537
 0.2309879 0.2314619 0.2306253 0.2295967 0.2262371 0.218224 0.2074519 0.2001069 0.2012594 0.2096002
 0.2186105 0.2229489 0.2226944 0.2214207 0.2214317 0.2214177 0.2182999 0.2112517 0.2037414 0.2006211
 0.2029603 0.207082 0.2089059 0.2071997 0.2021536 0.1940724 0.1857089 0.1830979 0.1904708 0.2050745
 0.2193217 0.2270266 0.2256588 0.2149935 0.198013 0.18274 0.1783307 0.1868684 0.2008291 0.2100044
 0.2095982 0.2010719 0.1877896 0.1727305 0.1598931 0.1547118 0.1608029 0.1763065 0.1938998 0.2044107
 0.201882 0.1882357 0.173746 0.1696458 0.1778658 0.1896696 0.1954339 0.1933866 0.1882339 0.1851213
 0.1866776 0.1925305 0.1996922 0.2053689 0.2091904 0.2100442 0.2030723 0.1855008 0.1643673 0.1518904
 0.1527867 0.1618509 0.1737178 0.1876854 0.2013562 0.2073256 0.2015226 0.1909105 0.1875629 0.1958497
 0.2086985 0.2162551 0.215642 0.2114932 0.2087934 0.2075674 0.2053582 0.2029693 0.2046685 0.2123009
 0.2220657 0.2287596 0.2311901 0.2317058 0.2322157 0.2327345 0.2327305 0.2320123 0.2306564 0.2291243
 0.2281125 0.2277679 0.2275506 0.2270467 0.2259457 0.22281 0.2153718 0.2037217 0.1923522 0.1865987
 0.1869767 0.1895418 0.1917621 0.193994 0.1939942 0.1853839 0.1660698 0.1451508 0.1362972 0.1445395
 0.1625203 0.1788811 0.1869669 0.185397 0.1746656 0.157337 0.1407483 0.1347133 0.14352 0.1618183
 0.1803375 0.1938706 0.2018617 0.2039781 0.1991342 0.1886464 0.1774969 0.1714847 0.1736968 0.1831504
 0.1951167 0.2023399 0.1985933 0.184867 0.1720859 0.1730492 0.1890129 0.2076073 0.21674 0.2168363
 0.2159444 0.2172183 0.2173498 0.2153548 0.2161022 0.2236431 0.2352626 0.2441602 0.2454221 0.23796
 0.2238895 0.2090312 0.2013943 0.2047183 0.21416 0.2215099 0.2231092 0.2193701 0.2099446 0.1957612
 0.1841549 0.1844564 0.1971932 0.2128666 0.2227475 0.226828 0.2298673 0.2331949 0.233094 0.2264318
 0.2158943 0.2083373 0.208004 0.2128082 0.2178702 0.2206724 0.2210802 0.2184068 0.2118406 0.2037781
 0.1998673 0.2040932 0.2146296 0.2255187 0.2319753 0.2333721 0.231862 0.2295795 0.227204 0.2241092
 0.2197691 0.2156106 0.2147556 0.2186902 0.2249107 0.2294993 0.2316134 0.2337721 0.2378875 0.2426321
 0.2450624 0.2438302 0.2404575 0.2380047 0.2386162 0.24182 0.2448798 0.2451335 0.2425318 0.2399257
 0.2404429 0.2445026 0.2497545 0.2537447 0.2559141 0.2571011 0.2581056 0.2589883 0.2590283 0.2572721
 0.2538809 0.2509186 0.2508916 0.2542642 0.259016 0.2627314 0.2645569 0.2650737 0.2649665 0.2643043
 0.2629288 0.2611062 0.259558 0.2588875 0.2591363 0.2599248 0.2608547 0.261694 0.2623438 0.2627987
 0.2631114 0.2633237 0.2634541 0.2635435 0.2636304 0.2636731 0.2635954 0.2634467 0.263418 0.2636313
 0.2639778 0.2642316 0.2642574 0.2640214 0.2634678 0.2625281 0.2612559 0.2598179 0.2583009 0.2566478
 0.2549026 0.2534752 0.2530128 0.2539092 0.2559413 0.2584086 0.2606117 0.2622013 0.2631728 0.2636783
 0.2638926 0.263965 0.2639835 0.2639555 0.2638449 0.2636353 0.2633467 0.2630021 0.2626097 0.2621883
 0.261786 0.2614499 0.2611786 0.2609195 0.2606078 0.2602046 0.2597128 0.2591743 0.2586353 0.2580947
 0.2574901 0.2567504 0.2558634 0.2548888 0.2539188 0.2530262 0.2522268 0.2514781 0.2507193 0.2499096
 0.2490192 0.2480098 0.2468712 0.245683 0.2445953 0.243718 0.243038 0.2424469 0.2418261 0.2410978
 0.2402315 0.2392436 0.238184 0.2370991 0.2360004 0.2348731 0.2336982 0.232457 0.2311286 0.2297
 0.2281774 0.2265859 0.224963 0.2233367 0.2216899 0.2199394 0.217962 0.2156363 0.2128597 0.209547
 0.2056501 0.2012031 0.1963529 0.191332 0.1863813 0.1816833 0.1773575 0.1734929 0.1701655 0.1674358
 0.165349 0.1639394 0.1632281 0.1632206 0.1639087 0.165263 0.1672181 0.1696666 0.1724663 0.1754514
 0.1784452 0.1812845 0.1838674 0.1861983 0.1883686 0.1904586 0.192458 0.1942973 0.1959341 0.1973723
 0.1986158 0.1996518 0.2004871 0.2011674 0.2017473 0.2022545 0.2026907 0.2030577 0.2033682 0.2036327
 0.2038517 0.2040329 0.2042027 0.2043891 0.2046 0.2048298 0.2050815 0.205374 0.205732 0.206167
 0.2066661 0.2072041 0.2077689 0.2083645 0.2089951 0.2096616 0.2103803 0.211192 0.2121435 0.2132586
 0.2145225 0.2158864 0.2172819 0.2186297 0.2198437 0.2208499 0.2216095 0.2221211 0.2224044 0.2224914
 0.2224233 0.2222343 0.221941 0.2215535 0.2210901 0.2205683 0.2199915 0.2193564 0.2186699 0.2179502
 0.2172188 0.2164948 0.2157946 0.2151265 0.2144865 0.2138661 0.2132636 0.2126799 0.2121063 0.2115243
 0.2109217 0.2103044 0.209693 0.2091079 0.2085482 0.2079785 0.2073413 0.2065949 0.2057402 0.204804
 0.2037978 0.202702 0.2014962 0.2001922 0.1988235 0.1974059 0.1959239 0.1943577 0.1927102 0.1909948
 0.1892025 0.1873029 0.1852927 0.183235 0.1812352 0.1793759 0.177678 0.1761106 0.1746233 0.1731845
 0.1718018 0.1705026 0.1692934 0.1681544 0.1670704 0.1660434 0.1650727 0.1641445 0.1632528 0.1624191
 0.1616811 0.1610577 0.1605301 0.1600648 0.1596447 0.1592739 0.1589692 0.1587658 0.1587021 0.1587668
 0.1588781 0.158939 0.1589014 0.1587766 0.158614 0.1584744 0.1583954 0.1583683 0.1583484 0.1582782
 0.1580996 0.1577554 0.1571844 0.1563213 0.1551254 0.1536169 0.1518745 0.1500102 0.1481624 0.1464758
 0.1450493 0.1439118 0.1430472 0.1424104 0.1419253 0.1415192 0.1411776 0.1409529 0.1409156 0.1410767
 0.141334 0.1415292 0.1415986 0.1416433 0.1418275 0.1422427 0.1428694 0.1436075 0.1443325 0.1449639
 0.1454791 0.1458646 0.1461053 0.1462265 0.1462789 0.1462772 0.1462016 0.1460426 0.1458051 0.1454934
 0.1451135 0.1446656 0.1441406 0.143541 0.1428783 0.1421451 0.1413356 0.1404666 0.139519 0.1384232
 0.1371977 0.1360539 0.1352909 0.1351094 0.1355182 0.1363451 0.137355 0.1384051 0.1394222 0.1402261
 0.1405806 0.140567 0.1407604 0.1418173 0.1438528 0.146307 0.148438 0.1498626 0.1505945 0.1507389
 0.1503477 0.1494672 0.1481054 0.1461961 0.143738 0.1408802 0.1378028 0.1346637 0.131672 0.1290216
 0.1267733 0.1249195 0.1234685 0.1224772 0.1220733 0.1218714 0.1199687 0.1139382 0.1045806 0.0975934
 0.09877654 0.1075131 0.117207 0.1222426 0.1224402 0.1207656 0.1192833 0.1183201 0.1177786 0.1177982
 0.1184936 0.1197084 0.1210583 0.1221614 0.1228677 0.1232152 0.1231521 0.1223087 0.1199424 0.1151958
 0.1077844 0.09859434 0.08938237 0.08175072 0.07641886 0.07325378 0.07164268 0.07084461 0.07033175 0.07003572
 0.07026494 0.07133424 0.07328592 0.07594983 0.07913019 0.08258861 0.0859298 0.08874208 0.09090468 0.09260488
 0.09401591 0.09508666 0.09566882 0.09572378 0.09535608 0.09472463 0.09396842 0.09316303 0.09228231 0.09122907
 0.08999401 0.08879018 0.08792686 0.08752078 0.08742215 0.08742672 0.08744273 0.08745 0.08743016 0.08737434
 0.08729629 0.08724268 0.08731015 0.08758751 0.08804329 0.08852062 0.08886706 0.08904797 0.08913135 0.08914599
 0.08895409 0.08837719 0.08751409 0.086747 0.08625891 0.08572565 0.0847391 0.08342503 0.08238243 0.08204408
 0.0822932 0.08268439 0.08285333 0.08270332 0.08239652 0.08226669 0.08258383 0.08323866 0.08374435 0.08370224
</values></Ydata></ScRf><Data_Parameters_AB><parameter name="DPF">1</parameter><parameter name="NPT">3497</parameter><parameter name="FXV">3996</parameter><parameter name="LXV">500</parameter><parameter name="CSF">1</parameter><parameter name="MXY">0.167144626379013</parameter><parameter name="MNY">-0.106844931840897</parameter><parameter name="DAT">31/05/2022</parameter><parameter name="TIM">11:26:30.801 (GMT+2)</parameter><parameter name="DXU">WN</parameter></Data_Parameters_AB><AB__Qtest><MainReport name="Quality Test Report"><Header><Line><Legend>Test result ok/not ok [1/0]: </Legend><Value>0</Value></Line><Line><Legend>Method file: </Legend><Value>C:\Users\Public\Documents\Bruker\OPUS_8.2.28\QT\IRBT_v3_default.QT</Value></Line></Header><Matrix><Line><Legend></Legend><Legend>min</Legend><Legend>max</Legend><Legend>measured</Legend></Line><Line><Value>Absorption (X-Range 1):</Value><Value>0.400000</Value><Value>2.000000</Value><Value>0.184486</Value></Line><Line><Value>Noise (X-Range 4):</Value><Value></Value><Value>0.000300</Value><Value>0.000059</Value></Line><Line><Value>Signal/Noise (X-Range 2):</Value><Value>200.000000</Value><Value></Value><Value>49.631293</Value></Line><Line><Value>Signal/Noise (X-Range 3):</Value><Value>40.000000</Value><Value></Value><Value>36.801149</Value></Line><Line><Value>Water vapour (X-Range 5):</Value><Value></Value><Value>0.000300</Value><Value>0.000032</Value></Line><Line><Value>Signal/Water (X-Range 2):</Value><Value>100.000000</Value><Value></Value><Value>92.651660</Value></Line><Line><Value>Signal/Water (X-Range 3):</Value><Value>20.000000</Value><Value></Value><Value>68.700357</Value></Line><Line><Value>Fringes (X-Range 6):</Value><Value></Value><Value>0.000100</Value><Value>0.000060</Value></Line></Matrix></MainReport></AB__Qtest><Data_Parameters_ScSm><parameter name="DPF">1</parameter><parameter name="NPT">1814</parameter><parameter name="FXV">3996.33169228125</parameter><parameter name="LXV">499.541461535156</parameter><parameter name="CSF">1</parameter><parameter name="MXY">0.315827786922455</parameter><parameter name="MNY">0.0360530614852905</parameter><parameter name="DAT">31/05/2022</parameter><parameter name="TIM">11:26:30.801 (GMT+2)</parameter><parameter name="DXU">WN</parameter></Data_Parameters_ScSm><Data_Parameters_ScRf><parameter name="DPF">1</parameter><parameter name="NPT">1820</parameter><parameter name="FXV">4004.04661832813</parameter><parameter name="LXV">495.683998511719</parameter><parameter name="CSF">1</parameter><parameter name="MXY">0.265073716640472</parameter><parameter name="MNY">0.0300908498466015</parameter><parameter name="DAT">31/05/2022</parameter><parameter name="TIM">11:26:04.948 (GMT+2)</parameter><parameter name="DXU">WN</parameter></Data_Parameters_ScRf><Optic_Parameters_Rf><parameter name="APR">0</parameter><parameter name="APT">Open</parameter><parameter name="BMS">KBr</parameter><parameter name="DTC">RT-DLaTGS_IR-Biotyper [Microplate reader]</parameter><parameter name="HPF">0</parameter><parameter name="LPF">10.0</parameter><parameter name="LPV">4000</parameter><parameter name="PGR">0</parameter><parameter name="RCH">Module port</parameter><parameter name="RDX">0</parameter><parameter name="SRC">MIR</parameter><parameter name="VEL">10.0</parameter><parameter name="SON">Off</parameter></Optic_Parameters_Rf><Acquisition_Parameters_Rf><parameter name="ADT">1</parameter><parameter name="AQM">DD</parameter><parameter name="CFE">0</parameter><parameter name="COR">0</parameter><parameter name="DEL">0</parameter><parameter name="DLY">0</parameter><parameter name="HFW">8000</parameter><parameter name="LFW">0</parameter><parameter name="NSR">32</parameter><parameter name="PLF">AB</parameter><parameter name="RES">6</parameter><parameter name="RGN">-1</parameter><parameter name="STR">0</parameter><parameter name="TCL">MakeCompatibleScalar (0, {WSV=1.000000, ARV=0});</parameter><parameter name="TDL">37</parameter><parameter name="RPO">0</parameter></Acquisition_Parameters_Rf><FT_-_Parameters_Rf><parameter name="APF">B3</parameter><parameter name="HFQ">500</parameter><parameter name="LFQ">4000</parameter><parameter name="NLI">0</parameter><parameter name="PHR">24</parameter><parameter name="PHZ">ML</parameter><parameter name="SPZ">NO</parameter><parameter name="ZFF">1</parameter></FT_-_Parameters_Rf><Optic_Parameters_><parameter name="APR">0</parameter><parameter name="APT">Open</parameter><parameter name="BMS">KBr</parameter><parameter name="CHN">Module port</parameter><parameter name="DTC">RT-DLaTGS_IR-Biotyper [Microplate reader]</parameter><parameter name="HPF">0</parameter><parameter name="LPF">10.0</parameter><parameter name="LPV">4000</parameter><parameter name="PGN">0</parameter><parameter name="RDX">0</parameter><parameter name="SRC">MIR</parameter><parameter name="VEL">10.0</parameter><parameter name="SON">Off</parameter></Optic_Parameters_><FT_-_Parameters_><parameter name="APF">B3</parameter><parameter name="HFQ">500</parameter><parameter name="LFQ">4000</parameter><parameter name="NLI">0</parameter><parameter name="PHR">24</parameter><parameter name="PHZ">ML</parameter><parameter name="SPZ">NO</parameter><parameter name="ZFF">1</parameter></FT_-_Parameters_><Acquisition_Parameters_><parameter name="ADT">1</parameter><parameter name="AQM">DD</parameter><parameter name="CFE">0</parameter><parameter name="COR">0</parameter><parameter name="DEL">0</parameter><parameter name="DLY">0</parameter><parameter name="HFW">8000</parameter><parameter name="LFW">0</parameter><parameter name="NSS">32</parameter><parameter name="PLF">AB</parameter><parameter name="RES">6</parameter><parameter name="SOT">0</parameter><parameter name="TCL">MakeCompatibleScalar (0, {WSV=1.000000, ARV=0});</parameter><parameter name="TDL">37</parameter><parameter name="SPO">0</parameter><parameter name="SGN">-1</parameter></Acquisition_Parameters_><Instrument_Parameters_Rf><parameter name="HFL">15800.168544</parameter><parameter name="LFL">0</parameter><parameter name="LWN">15800.168544</parameter><parameter name="ABP">32197</parameter><parameter name="SSP">1</parameter><parameter name="ARG">2</parameter><parameter name="ASG">2</parameter><parameter name="ASS">32</parameter><parameter name="GFW">16</parameter><parameter name="GBW">16</parameter><parameter name="BFW">0</parameter><parameter name="BBW">0</parameter><parameter name="PKA">7268</parameter><parameter name="PKL">4996</parameter><parameter name="PRA">7448</parameter><parameter name="PRL">5001</parameter><parameter name="P2A">1</parameter><parameter name="P2L">1</parameter><parameter name="P2R">1</parameter><parameter name="P2K">1</parameter><parameter name="DAQ">0</parameter><parameter name="AG2">1</parameter><parameter name="SSM">1</parameter><parameter name="RSN">25453</parameter><parameter name="CRR">0</parameter><parameter name="SRT">1653996364.949</parameter><parameter name="DUR">19.6379852294922</parameter><parameter name="TSC">28.9</parameter><parameter name="MVD">0.41178947687149</parameter><parameter name="AN1">0.225811337567039</parameter><parameter name="AN2">0</parameter><parameter name="VSN">2.485 Apr  4 2017</parameter><parameter name="SRN">0085</parameter><parameter name="CAM">0</parameter><parameter name="INS">IR-Biotyper</parameter><parameter name="FOC">69</parameter><parameter name="RDY">1</parameter><parameter name="ARS">32</parameter></Instrument_Parameters_Rf><Sample_Parameters_><parameter name="BLD"></parameter><parameter name="CNM">Admin</parameter><parameter name="CPY"></parameter><parameter name="DPM"></parameter><parameter name="EXP">IRBT_v3_32Scans.XPM</parameter><parameter name="LCT"></parameter><parameter name="SFM">Microplate, HTS-XT</parameter><parameter name="SNM">220531-1021(v.3)_FBG21M (D_3)_D7_ea4de6f6-d6c9-433f-b539-9a475bf5f855.0</parameter><parameter name="XPP">C:\Users\Public\Documents\Bruker\OPUS_8.2.28\XPM</parameter><parameter name="IST">OK</parameter><parameter name="CPG">1252</parameter><parameter name="UID">33f29e12-c9de-44b5-bb68-31aa83691869</parameter></Sample_Parameters_><Instrument_Parameters_><parameter name="HFL">15800.168544</parameter><parameter name="LFL">0</parameter><parameter name="LWN">15800.168544</parameter><parameter name="ABP">32197</parameter><parameter name="SSP">1</parameter><parameter name="ASG">2</parameter><parameter name="ARG">2</parameter><parameter name="ASS">32</parameter><parameter name="GFW">16</parameter><parameter name="GBW">16</parameter><parameter name="BFW">0</parameter><parameter name="BBW">0</parameter><parameter name="PKA">7971</parameter><parameter name="PKL">4988</parameter><parameter name="PRA">8251</parameter><parameter name="PRL">4993</parameter><parameter name="P2A">1</parameter><parameter name="P2L">1</parameter><parameter name="P2R">1</parameter><parameter name="P2K">1</parameter><parameter name="DAQ">0</parameter><parameter name="AG2">1</parameter><parameter name="SSM">1</parameter><parameter name="RSN">13352</parameter><parameter name="CRR">0</parameter><parameter name="SRT">1653996390.801</parameter><parameter name="DUR">19.6379852294922</parameter><parameter name="TSC">28.9</parameter><parameter name="MVD">0.314477980136871</parameter><parameter name="AN1">0.225791882711141</parameter><parameter name="AN2">0</parameter><parameter name="VSN">2.485 Apr  4 2017</parameter><parameter name="SRN">0085</parameter><parameter name="CAM">0</parameter><parameter name="INS">IR-Biotyper</parameter><parameter name="FOC">69</parameter><parameter name="RDY">1</parameter></Instrument_Parameters_><History/></OPUSDataFile>
