<?xml version="1.0" encoding="UTF-8" ?>
<OPUSDataFile><AB><Ydata ylabel="Absorbance Units"><values byteorder="INTEL" format="FLOAT32" numvalues="3497"> -0.05998264 -0.05994759 -0.05993178 -0.05993521 -0.0599593 -0.06000408 -0.06005655 -0.06011561 -0.06016357 -0.06020028
 -0.06021501 -0.06020996 -0.06018646 -0.06014808 -0.06010312 -0.0600552 -0.06001334 -0.05998053 -0.05996436 -0.0599634
 -0.05998123 -0.06000803 -0.06004077 -0.0600675 -0.06008203 -0.06008287 -0.06006693 -0.06004443 -0.06001652 -0.05999105
 -0.05996932 -0.05994929 -0.05993091 -0.05990899 -0.05988382 -0.0598572 -0.05983077 -0.05981507 -0.05981144 -0.05983122
 -0.0598724 -0.05993783 -0.06002035 -0.06011093 -0.06020055 -0.0602749 -0.06033077 -0.06035936 -0.06036637 -0.06035146
 -0.06032408 -0.06028764 -0.06024829 -0.06020867 -0.06016909 -0.06013037 -0.06008882 -0.06004409 -0.05999401 -0.05993845
 -0.05988415 -0.05983208 -0.05979749 -0.0597804 -0.05979028 -0.05982324 -0.0598708 -0.05992845 -0.05998009 -0.06002666
 -0.0600616 -0.06008981 -0.06011542 -0.06013902 -0.06016428 -0.06018451 -0.0601973 -0.06019664 -0.06017815 -0.06014583
 -0.06009853 -0.06004757 -0.059994 -0.05995011 -0.05991684 -0.05990745 -0.05992275 -0.05997335 -0.06005852 -0.06017261
 -0.06031028 -0.06043703 -0.06054676 -0.06059435 -0.06058789 -0.06051967 -0.06041102 -0.06029547 -0.06018393 -0.06010524
 -0.06005296 -0.06003327 -0.06003156 -0.06004179 -0.06005227 -0.06005579 -0.06005283 -0.06004089 -0.06002965 -0.06002072
 -0.06001849 -0.06002434 -0.06002958 -0.06003382 -0.06002529 -0.06000446 -0.0599753 -0.05994042 -0.05991893 -0.05991128
 -0.05993154 -0.05997336 -0.06003015 -0.06009154 -0.06013547 -0.06016015 -0.06015131 -0.06012157 -0.06007587 -0.06002648
 -0.05998224 -0.05994742 -0.0599244 -0.05991964 -0.05993369 -0.05997933 -0.06005928 -0.06017948 -0.06034346 -0.06052124
 -0.06071179 -0.06082173 -0.06084878 -0.06073416 -0.06049527 -0.0602176 -0.05991323 -0.05967562 -0.05949698 -0.05940469
 -0.05938723 -0.05944109 -0.05954716 -0.05968648 -0.05983052 -0.05994957 -0.06002754 -0.06004056 -0.06000936 -0.05993294
 -0.05984603 -0.05975942 -0.05968461 -0.05962633 -0.05957936 -0.05954345 -0.05951685 -0.05949944 -0.05949118 -0.0594917
 -0.05949492 -0.05950023 -0.05950014 -0.05949515 -0.05948384 -0.0594656 -0.05943883 -0.05940112 -0.05934562 -0.05927633
 -0.05919252 -0.05910672 -0.05902823 -0.05896844 -0.05893668 -0.05893747 -0.05897624 -0.05904736 -0.05915352 -0.05927239
 -0.05940287 -0.05951129 -0.05959385 -0.05962956 -0.05961668 -0.0595622 -0.05946741 -0.05935465 -0.05922504 -0.05909633
 -0.05896917 -0.05885487 -0.058755 -0.05867998 -0.05862893 -0.05860759 -0.05860745 -0.05862257 -0.05863995 -0.05864548
 -0.05863565 -0.05860096 -0.05855532 -0.05850045 -0.05845441 -0.05842352 -0.0584125 -0.05842395 -0.05845289 -0.05849906
 -0.0585589 -0.05863227 -0.05871161 -0.05879574 -0.0588643 -0.05891575 -0.05892771 -0.05890331 -0.05884086 -0.0587483
 -0.05864481 -0.05853653 -0.05844313 -0.05836682 -0.05831838 -0.05829668 -0.0583049 -0.05833933 -0.05839889 -0.05848001
 -0.05858225 -0.05869841 -0.05882927 -0.05895479 -0.05907274 -0.05916067 -0.05921543 -0.05922984 -0.05920337 -0.05912597
 -0.05899749 -0.05881044 -0.05857079 -0.05831494 -0.05805192 -0.05783953 -0.05767661 -0.05759326 -0.05757482 -0.05761351
 -0.05768438 -0.05775158 -0.05780438 -0.05781528 -0.05780279 -0.05776978 -0.05773414 -0.0577068 -0.05768526 -0.05767361
 -0.05765286 -0.05762045 -0.0575607 -0.05746993 -0.05735843 -0.05722622 -0.05710403 -0.05699311 -0.05691722 -0.05687433
 -0.05686414 -0.05687959 -0.05689305 -0.05689759 -0.05685582 -0.05677769 -0.05666048 -0.05652424 -0.05639798 -0.0562804
 -0.05618475 -0.05609113 -0.05599057 -0.05587114 -0.05572169 -0.0555548 -0.05536992 -0.05518846 -0.05501555 -0.05485609
 -0.05471279 -0.0545683 -0.05442191 -0.05424592 -0.05403999 -0.05379676 -0.05352136 -0.05324859 -0.05298149 -0.05275346
 -0.05255824 -0.05239514 -0.05225994 -0.05214509 -0.05204739 -0.05196501 -0.05188023 -0.05178169 -0.05164145 -0.05143432
 -0.05116326 -0.05081686 -0.050432 -0.05001924 -0.04959192 -0.04915628 -0.04870163 -0.04822651 -0.04773299 -0.0472209
 -0.04670104 -0.04617402 -0.04565014 -0.04513123 -0.04463555 -0.0441649 -0.0437389 -0.04335312 -0.0430075 -0.04269275
 -0.04239191 -0.04209832 -0.04179999 -0.04148359 -0.04113839 -0.04073913 -0.04026152 -0.03971254 -0.03907922 -0.0384158
 -0.03773647 -0.03707225 -0.03643418 -0.03581617 -0.03521905 -0.03463168 -0.0340532 -0.03348236 -0.03291961 -0.03237597
 -0.03185135 -0.03135432 -0.03087673 -0.03039297 -0.02988695 -0.02929422 -0.02862323 -0.02784678 -0.02701298 -0.02617854
 -0.02536324 -0.02461353 -0.02390489 -0.02323472 -0.02258256 -0.02193602 -0.02129622 -0.02066107 -0.02003428 -0.01941791
 -0.01880335 -0.01819091 -0.01756246 -0.01691703 -0.01623211 -0.01550726 -0.01473549 -0.01392047 -0.0130874 -0.01224019
 -0.01141029 -0.01059556 -0.009805902 -0.009038507 -0.008292747 -0.007566475 -0.006858564 -0.006161797 -0.00546899 -0.004776136
 -0.004076065 -0.003377154 -0.002683581 -0.001992657 -0.001310193 -0.0006026384 0.0001351903 0.0009308788 0.001792515 0.002690557
 0.003624455 0.004536404 0.00542472 0.006265805 0.00706273 0.007828232 0.008566529 0.009303022 0.01003822 0.01078893
 0.01154787 0.01230846 0.0130657 0.01380476 0.01453987 0.01527477 0.01603479 0.01684161 0.01769433 0.01860503
 0.01953758 0.02048387 0.02141699 0.02232845 0.02321699 0.02408104 0.02492655 0.02575367 0.02657234 0.02738311
 0.02819699 0.0290135 0.02983344 0.03065607 0.03147758 0.03229982 0.03312705 0.03395882 0.03479888 0.03563931
 0.03647101 0.03728814 0.03807873 0.03885108 0.03960415 0.0403558 0.04111372 0.04188929 0.04269002 0.04350838
 0.04434621 0.04518165 0.0460117 0.04682596 0.04762278 0.0484158 0.04920575 0.0500087 0.05082346 0.05164706
 0.05247739 0.05330295 0.05412406 0.05493624 0.05573952 0.05653201 0.05731325 0.05808109 0.05883755 0.05958389
 0.06032137 0.06105138 0.06177372 0.06248679 0.06319799 0.06390794 0.06462885 0.06536442 0.06611481 0.06688151
 0.06765231 0.06842646 0.06919356 0.06995314 0.07069763 0.07142677 0.072134 0.07282111 0.07349183 0.07414985
 0.07480862 0.0754686 0.07613789 0.07681319 0.07749333 0.07817522 0.07885572 0.07953224 0.08020224 0.08086426
 0.08151634 0.08216102 0.0827992 0.08343034 0.08405536 0.08466711 0.08526397 0.08584891 0.08642141 0.08700104
 0.0875885 0.0881938 0.08881494 0.08943822 0.09006187 0.09066971 0.09126379 0.091842 0.09240664 0.09296121
 0.09350745 0.09404909 0.09458727 0.09512624 0.09566028 0.09618804 0.09670087 0.09719178 0.09766691 0.09812433
 0.09858207 0.09904455 0.09951724 0.1000027 0.1004897 0.1009776 0.1014585 0.1019324 0.1024007 0.102864
 0.1033272 0.1037916 0.1042652 0.1047477 0.1052447 0.1057503 0.1062563 0.1067548 0.1072303 0.1076812
 0.1080996 0.1084903 0.1088534 0.1091953 0.1095177 0.1098284 0.1101297 0.110428 0.1107252 0.1110215
 0.1113169 0.111612 0.1119067 0.1122101 0.1125227 0.1128525 0.1131986 0.1135582 0.1139301 0.1143074
 0.1146888 0.1150685 0.1154422 0.1157994 0.1161354 0.116437 0.1167082 0.1169452 0.1171617 0.1173657
 0.1175681 0.1177788 0.1179929 0.1182129 0.1184223 0.118617 0.1187904 0.1189391 0.119079 0.1192109
 0.119352 0.1195026 0.119652 0.1197979 0.1199118 0.1199955 0.1200399 0.1200537 0.1200579 0.1200605
 0.1200897 0.1201449 0.1202394 0.1203622 0.1205092 0.120664 0.1208137 0.1209503 0.1210639 0.1211641
 0.1212507 0.1213385 0.1214328 0.1215296 0.1216311 0.121713 0.1217735 0.1217923 0.1217687 0.1217077
 0.1216116 0.1215047 0.121388 0.1212793 0.1211759 0.1210771 0.1209833 0.1208926 0.1208125 0.1207549
 0.1207202 0.1207189 0.1207314 0.1207489 0.1207513 0.1207221 0.1206697 0.1205892 0.1205098 0.1204375
 0.1203888 0.1203689 0.1203687 0.120389 0.1204037 0.1204114 0.1203785 0.1203041 0.1201641 0.1199641
 0.1197153 0.1194317 0.1191623 0.1189187 0.1187536 0.1186595 0.1186554 0.1187095 0.1188016 0.118891
 0.1189413 0.1189348 0.118846 0.1187008 0.118496 0.1182841 0.1180747 0.1179101 0.1177985 0.1177556
 0.1177839 0.1178826 0.1180515 0.1182771 0.118556 0.1188508 0.1191531 0.1194012 0.1195899 0.1196641
 0.1196362 0.1194972 0.1192824 0.1190358 0.1187952 0.1186212 0.1185173 0.1185163 0.1185704 0.118673
 0.118753 0.1187845 0.1187266 0.1185588 0.1183041 0.1179581 0.1175903 0.1172061 0.1168637 0.1165657
 0.1163193 0.1161218 0.1159475 0.1157964 0.1156533 0.1155236 0.1154174 0.1153375 0.1152995 0.1152922
 0.1153133 0.1153318 0.1153196 0.1152392 0.1150511 0.1147482 0.1143051 0.1137723 0.1131526 0.1125267
 0.1119132 0.1113663 0.1108992 0.1105152 0.1102173 0.109974 0.1097836 0.1095993 0.1094191 0.1092012
 0.1089492 0.1086567 0.1083341 0.1080143 0.1077001 0.10742 0.1071566 0.1068986 0.1066243 0.1063009
 0.1059324 0.1055025 0.105049 0.1045814 0.1041474 0.1037676 0.1034607 0.1032418 0.1030736 0.1029583
 0.1028156 0.102639 0.1023633 0.1019855 0.1015078 0.1009355 0.1003301 0.09969769 0.09910487 0.09855048
 0.09806773 0.09764775 0.09728976 0.0969791 0.09669535 0.09642157 0.09613162 0.09581727 0.09546034 0.09507266
 0.09465166 0.09422366 0.09379707 0.0933903 0.09301207 0.09265435 0.0923195 0.0919786 0.09162945 0.09124831
 0.09083407 0.09038866 0.0899139 0.08943135 0.08894256 0.08846723 0.08800447 0.08756188 0.0871373 0.08673102
 0.08633777 0.08595175 0.08556259 0.08515675 0.08472821 0.08426359 0.08377702 0.08326851 0.08276465 0.08227707
 0.08181214 0.08137773 0.0809487 0.08052254 0.08007757 0.07961003 0.07913302 0.07864719 0.07817876 0.07772711
 0.07729314 0.07687299 0.07644431 0.07600711 0.07554821 0.07507329 0.07458906 0.07409968 0.07361614 0.07313606
 0.07266118 0.0721881 0.07171189 0.07124042 0.07077175 0.07033078 0.06992517 0.06957578 0.06929517 0.0690589
 0.06887156 0.06865709 0.06840986 0.06805887 0.06760033 0.06703431 0.06636712 0.06567415 0.0649649 0.06433436
 0.06378075 0.06335576 0.06303515 0.0627965 0.06259948 0.06236875 0.0620825 0.06167549 0.06118049 0.06059064
 0.05997518 0.05937156 0.05881421 0.05833352 0.05789682 0.05750292 0.05711407 0.05671825 0.05634135 0.05598221
 0.05570442 0.0555113 0.05541728 0.05541619 0.05543587 0.05546492 0.05539726 0.05523411 0.05491584 0.05446737
 0.05391121 0.0532836 0.05265559 0.05204151 0.05149314 0.05098527 0.05051712 0.05005781 0.04958292 0.0491036
 0.04861346 0.0481492 0.04772321 0.04733422 0.04698826 0.04664177 0.04629007 0.04591697 0.04552139 0.04514651
 0.04479473 0.04451116 0.04429017 0.04412249 0.04399819 0.04387507 0.04375236 0.04360561 0.04344255 0.04326713
 0.04308029 0.0428899 0.04267898 0.04244156 0.04214877 0.04178229 0.04132884 0.04077094 0.04014266 0.03943984
 0.03874375 0.03806432 0.03747803 0.03699631 0.03662506 0.03636532 0.03614066 0.03594555 0.03568471 0.03536126
 0.03494025 0.03443927 0.03390081 0.03334293 0.03283315 0.03237102 0.031991 0.03167187 0.03140572 0.03116461
 0.03092368 0.03066623 0.03037279 0.03005136 0.02969575 0.02933743 0.02898203 0.0286587 0.02837637 0.02812623
 0.027911 0.02768169 0.02743566 0.02713122 0.02676988 0.02636322 0.02591809 0.0254848 0.02506275 0.02468077
 0.02432433 0.0239724 0.02361369 0.02321362 0.02278519 0.02232455 0.02186198 0.02142114 0.02102021 0.02067938
 0.02039151 0.0201598 0.01996933 0.01981635 0.01969413 0.01960153 0.01953213 0.01948665 0.01944131 0.01939495
 0.01930553 0.01917141 0.01895872 0.01867164 0.0183156 0.01790244 0.01747756 0.01705172 0.01667531 0.01634856
 0.01609574 0.01590921 0.01578969 0.01572918 0.01572278 0.01576054 0.01583868 0.01593963 0.01605787 0.0161736
 0.01628035 0.01636824 0.01643272 0.01648341 0.01651879 0.01657356 0.01664944 0.01679967 0.01702611 0.01736842
 0.01782116 0.01837358 0.01901159 0.01967763 0.02036017 0.02099933 0.02159791 0.0221306 0.02261283 0.02305182
 0.02346421 0.02386609 0.02426725 0.02467787 0.02510044 0.0255386 0.02599028 0.02645667 0.02693013 0.02741122
 0.02788216 0.02834228 0.0287645 0.02914719 0.02946645 0.02972191 0.02990546 0.03001813 0.0300623 0.03003898
 0.02995018 0.0298027 0.02960806 0.02938779 0.02918023 0.02901147 0.02893225 0.02894343 0.02907064 0.02928039
 0.0295628 0.02988365 0.03022311 0.03058034 0.0309478 0.03134992 0.03178915 0.0322884 0.03285074 0.03348607
 0.03419539 0.03496954 0.03580663 0.03667407 0.03757031 0.03846465 0.03936552 0.04028521 0.04124079 0.04228573
 0.04342068 0.04468756 0.04603506 0.04744634 0.04879116 0.04998815 0.05083863 0.05121887 0.05096216 0.04994893
 0.04820677 0.04567566 0.04264655 0.03913274 0.03555519 0.03195732 0.02865916 0.02568488 0.02312555 0.02097617
 0.01915151 0.01763915 0.01631563 0.01517774 0.01414962 0.01323119 0.01238799 0.01161177 0.01087398 0.01016488
 0.009457749 0.008758908 0.008060497 0.007384487 0.006741698 0.006146932 0.005611491 0.005129762 0.004703437 0.004320076
 0.00397663 0.003672419 0.003405869 0.003192122 0.003031912 0.002945518 0.002932646 0.002992158 0.003116937 0.003260419
 0.003410108 0.003489686 0.003496274 0.003377142 0.003151926 0.002825177 0.002432268 0.002015695 0.00160931 0.00125533
 0.0009751457 0.0007935574 0.0007161076 0.0007510585 0.0008954801 0.001146854 0.001518664 0.002008708 0.002659854 0.003478801
 0.004477559 0.005660478 0.006884398 0.0081308 0.00905838 0.00964231 0.009522101 0.008729802 0.007168027 0.004955036
 0.002332638 -0.0005642168 -0.003372965 -0.006044858 -0.008354027 -0.01036129 -0.01203329 -0.01346933 -0.01472223 -0.01585009
 -0.01689378 -0.01785892 -0.01875556 -0.01957399 -0.02031213 -0.02097416 -0.02155888 -0.02208681 -0.02255898 -0.02300039
 -0.02341199 -0.0238103 -0.02419508 -0.02457248 -0.02494221 -0.02530725 -0.02566573 -0.02601572 -0.02635192 -0.02666305
 -0.02694739 -0.02719388 -0.0274158 -0.02761734 -0.02782129 -0.0280443 -0.02829418 -0.02858391 -0.02888984 -0.02921185
 -0.02950973 -0.02977524 -0.02998712 -0.03013917 -0.03025271 -0.03032808 -0.03041254 -0.03050759 -0.03064042 -0.03080724
 -0.03099247 -0.03119232 -0.03137937 -0.03156028 -0.03173724 -0.03192201 -0.03214087 -0.03239149 -0.03268693 -0.03300587
 -0.03333564 -0.03365438 -0.03394364 -0.03419685 -0.03440533 -0.03457519 -0.03470441 -0.03480946 -0.03489064 -0.03497673
 -0.03507062 -0.03519792 -0.03536112 -0.03555633 -0.03578219 -0.03600807 -0.0362329 -0.03643314 -0.03661206 -0.036771
 -0.03691321 -0.03704899 -0.0371776 -0.03730192 -0.0374217 -0.0375368 -0.03764996 -0.03776471 -0.03787935 -0.03799617
 -0.03810486 -0.03820134 -0.0382794 -0.03833295 -0.03837722 -0.03841144 -0.0384668 -0.03854716 -0.03867147 -0.03884202
 -0.03904517 -0.03927934 -0.03950996 -0.03973587 -0.03993107 -0.0400985 -0.04023614 -0.04034901 -0.04045048 -0.04054205
 -0.04063433 -0.04072277 -0.04080621 -0.04087909 -0.04093334 -0.04097401 -0.04099777 -0.04102456 -0.04106089 -0.04112595
 -0.04122923 -0.04136817 -0.04154648 -0.04174102 -0.04194983 -0.04215194 -0.04234546 -0.04252697 -0.04269665 -0.04286189
 -0.04302266 -0.04318227 -0.04333971 -0.04349173 -0.0436387 -0.04377927 -0.04391588 -0.04405297 -0.04419127 -0.04433439
 -0.04447978 -0.04462587 -0.04477198 -0.04491598 -0.04506239 -0.04521312 -0.04536972 -0.04553476 -0.04569967 -0.04586354
 -0.0460173 -0.04615895 -0.04629157 -0.046415 -0.04653979 -0.04666616 -0.0467958 -0.04692727 -0.04704934 -0.04716092
 -0.0472496 -0.04731882 -0.04736997 -0.04741146 -0.04745999 -0.04752181 -0.04761471 -0.04773385 -0.0478833 -0.04804996
 -0.04822624 -0.04840434 -0.0485776 -0.04874844 -0.04891648 -0.04908386 -0.04925184 -0.04941583 -0.04957555 -0.04972619
 -0.04986722 -0.05 -0.05012476 -0.05024742 -0.05036844 -0.05049425 -0.05062464 -0.05076271 -0.05090649 -0.05105225
 -0.0511977 -0.05133574 -0.05146763 -0.05159145 -0.05171099 -0.05182996 -0.05194843 -0.05206864 -0.05218602 -0.05229857
 -0.05240507 -0.05250363 -0.05259977 -0.05269392 -0.05279273 -0.05289726 -0.05300975 -0.05313054 -0.05325856 -0.05339369
 -0.0535328 -0.05367545 -0.05381653 -0.05395579 -0.0540891 -0.05421719 -0.05433995 -0.05445821 -0.05457393 -0.0546866
 -0.05479613 -0.05490244 -0.05500427 -0.05510543 -0.05520738 -0.05531524 -0.05543267 -0.05555862 -0.05569529 -0.05583219
 -0.05596824 -0.05609116 -0.05619879 -0.0562877 -0.05635706 -0.05641585 -0.05646478 -0.05652047 -0.05658349 -0.05666677
 -0.05676845 -0.05688808 -0.05702129 -0.05715498 -0.05728634 -0.05740197 -0.05750532 -0.05759413 -0.0576764 -0.05775953
 -0.05784756 -0.05794714 -0.05805341 -0.05816675 -0.05827869 -0.05838626 -0.05848604 -0.05857631 -0.05865943 -0.05873541
 -0.05880729 -0.05887535 -0.05894049 -0.05900278 -0.05906365 -0.05912352 -0.05918667 -0.05925376 -0.05933052 -0.05941645
 -0.05951377 -0.05962003 -0.05973193 -0.05984624 -0.0599568 -0.06006251 -0.06015956 -0.06024966 -0.06033262 -0.06041084
 -0.06048528 -0.0605579 -0.06062909 -0.06070192 -0.06077664 -0.06085822 -0.06094736 -0.06104722 -0.06115833 -0.06127746
 -0.06140429 -0.06152862 -0.06164957 -0.06175439 -0.06184337 -0.0619099 -0.06195723 -0.06199052 -0.06201518 -0.06204476
 -0.06208244 -0.06213973 -0.06221377 -0.06230751 -0.06241256 -0.062525 -0.06263584 -0.0627397 -0.06283241 -0.06291062
 -0.06297731 -0.06303175 -0.0630819 -0.06312861 -0.0631787 -0.06323291 -0.06329255 -0.06335759 -0.06342459 -0.06349342
 -0.06356133 -0.06362867 -0.06369603 -0.06376336 -0.06383129 -0.06389847 -0.06396227 -0.06402183 -0.06407367 -0.06412064
 -0.06416287 -0.06420751 -0.06425884 -0.06432394 -0.06440815 -0.06451147 -0.06463698 -0.06477381 -0.06492153 -0.0650634
 -0.06519697 -0.06531218 -0.06540756 -0.06548678 -0.06555013 -0.06560783 -0.0656601 -0.06571291 -0.06576575 -0.06581884
 -0.06587224 -0.06592602 -0.06598114 -0.06603976 -0.06610237 -0.06617095 -0.06624466 -0.06632358 -0.06640638 -0.06649207
 -0.06658021 -0.0666701 -0.0667628 -0.0668589 -0.06695733 -0.06705877 -0.06715713 -0.06725191 -0.06733631 -0.06740949
 -0.06747255 -0.0675257 -0.06757841 -0.06763115 -0.06769255 -0.06776188 -0.06784043 -0.06792644 -0.06801524 -0.06810497
 -0.06818935 -0.06826766 -0.0683354 -0.06839481 -0.06844548 -0.06849277 -0.06853984 -0.06859197 -0.06865312 -0.06872375
 -0.06880587 -0.06889375 -0.06898684 -0.06907836 -0.06916697 -0.06925148 -0.06933143 -0.06941143 -0.06949166 -0.06957389
 -0.06965744 -0.06973603 -0.069809 -0.06986888 -0.06991716 -0.06995415 -0.06998293 -0.07001031 -0.07003812 -0.07007264
 -0.07011267 -0.07015962 -0.07021103 -0.0702654 -0.07032157 -0.07037829 -0.07043632 -0.07049578 -0.07055688 -0.07062002
 -0.07068294 -0.07074534 -0.07080592 -0.07086439 -0.07092311 -0.07098221 -0.07104389 -0.07110798 -0.0711733 -0.07123956
 -0.07130461 -0.07136881 -0.07143227 -0.07149522 -0.07155833 -0.07162143 -0.07168438 -0.07174759 -0.07181152 -0.07187618
 -0.07194229 -0.07200772 -0.07207183 -0.07213215 -0.07218719 -0.07223804 -0.07228412 -0.07232989 -0.0723759 -0.07242546
 -0.07247909 -0.07253554 -0.07259473 -0.07265133 -0.07270518 -0.07275181 -0.07279257 -0.07283129 -0.07287134 -0.07292546
 -0.07299674 -0.07309882 -0.07323127 -0.07340042 -0.07360169 -0.0738328 -0.07408917 -0.07436515 -0.07466346 -0.07498174
 -0.07533184 -0.0757174 -0.07614648 -0.0766243 -0.07713863 -0.07769051 -0.07825062 -0.07881621 -0.07937127 -0.07991508
 -0.08045559 -0.08099101 -0.08151012 -0.08199949 -0.08238254 -0.08264333 -0.08267958 -0.08250518 -0.08208424 -0.08147866
 -0.08075926 -0.07999859 -0.07930604 -0.0787072 -0.07825935 -0.07794978 -0.07778738 -0.07775221 -0.07784291 -0.0780286
 -0.07831018 -0.07861826 -0.07894731 -0.0792077 -0.0793886 -0.07946938 -0.07944909 -0.07938235 -0.07927215 -0.07917047
 -0.07907581 -0.07900847 -0.07896218 -0.07892793 -0.07889833 -0.07885002 -0.0787853 -0.07869499 -0.07859051 -0.07848288
 -0.07837419 -0.07827286 -0.07816669 -0.07805049 -0.07791915 -0.07776581 -0.07760702 -0.07744408 -0.07729802 -0.07717355
 -0.07707272 -0.07699702 -0.07693064 -0.07687283 -0.07680979 -0.07674223 -0.07667428 -0.07660766 -0.07655499 -0.07651508
 -0.07649111 -0.07647948 -0.07647317 -0.07647051 -0.07646543 -0.07645854 -0.07644863 -0.07643548 -0.07641861 -0.07639778
 -0.07637175 -0.0763443 -0.07631586 -0.07629218 -0.07627495 -0.07626633 -0.0762673 -0.07627522 -0.07629004 -0.07630785
 -0.07632845 -0.07635032 -0.07637357 -0.07639941 -0.07642788 -0.07646033 -0.07649594 -0.07653265 -0.07656965 -0.07660354
 -0.07663524 -0.07666439 -0.07669287 -0.07672307 -0.07675498 -0.07678981 -0.0768256 -0.07686167 -0.07689638 -0.0769289
 -0.07695861 -0.076985 -0.07700913 -0.07703083 -0.07705341 -0.07707718 -0.07710465 -0.07713594 -0.07716799 -0.07720039
 -0.07722713 -0.07724839 -0.07726176 -0.07726847 -0.07727142 -0.0772718 -0.07727384 -0.07727794 -0.07728673 -0.07729982
 -0.07731786 -0.07734006 -0.07736617 -0.07739496 -0.07742615 -0.07745734 -0.07748801 -0.07751471 -0.0775362 -0.07755188
 -0.07756083 -0.0775684 -0.07757493 -0.07758614 -0.07760234 -0.07762257 -0.07764655 -0.07767012 -0.07769357 -0.07771651
 -0.07773947 -0.07776462 -0.07779114 -0.07781821 -0.07784472 -0.07786795 -0.07788873 -0.07790668 -0.07792357 -0.07794098
 -0.07795894 -0.07797822 -0.07799731 -0.07801563 -0.07803299 -0.07804881 -0.07806553 -0.07808338 -0.07810484 -0.07813037
 -0.07815885 -0.07819022 -0.07822093 -0.078251 -0.07828012 -0.07830884 -0.0783409 -0.07837576 -0.0784141 -0.07845373
 -0.07848904 -0.07852003 -0.07854243 -0.07856198 -0.07858281 -0.07861201 -0.07865833 -0.07871981 -0.0788007 -0.07888679
 -0.07897472 -0.07904971 -0.07910586 -0.07914328 -0.0791594 -0.07917014 -0.07917658 -0.07919407 -0.07922358 -0.07926594
 -0.07932044 -0.07937685 -0.0794346 -0.07948466 -0.07952801 -0.07956308 -0.0795917 -0.07961733 -0.07964151 -0.07966843
 -0.07969848 -0.07973412 -0.07977392 -0.07981762 -0.07986374 -0.07991094 -0.07996014 -0.08001112 -0.08006597 -0.08012571
 -0.08018865 -0.08025526 -0.08031938 -0.08038043 -0.08043377 -0.08047906 -0.08051865 -0.08055292 -0.08058814 -0.08062422
 -0.08066405 -0.08070643 -0.08074849 -0.08078902 -0.08082333 -0.08085172 -0.08087187 -0.08088651 -0.08089726 -0.08090857
 -0.08092432 -0.08094822 -0.080984 -0.08103107 -0.08109095 -0.08115834 -0.0812326 -0.08130742 -0.08138157 -0.08145164
 -0.08151697 -0.08157814 -0.08163512 -0.08169085 -0.08174549 -0.08180217 -0.08186079 -0.08192234 -0.08198633 -0.08205145
 -0.08211718 -0.08218157 -0.08224442 -0.08230447 -0.08236185 -0.0824163 -0.08246782 -0.08251636 -0.08256194 -0.08260451
 -0.08264428 -0.08268096 -0.08271623 -0.08275006 -0.08278598 -0.08282447 -0.08286874 -0.08291935 -0.08297632 -0.08303972
 -0.08310518 -0.08317232 -0.08323465 -0.08329198 -0.0833396 -0.08337832 -0.08340823 -0.08343121 -0.08345173 -0.08347186
 -0.08349728 -0.08352874 -0.08357006 -0.08361913 -0.08367638 -0.08373699 -0.08379856 -0.08385683 -0.08390888 -0.08395569
 -0.08399618 -0.08403617 -0.08407643 -0.08412151 -0.08417223 -0.08422817 -0.08428939 -0.08435173 -0.08441495 -0.0844755
 -0.08453353 -0.08458815 -0.08463994 -0.08469074 -0.08474077 -0.08479176 -0.08484321 -0.08489509 -0.08494676 -0.08499734
 -0.08504674 -0.0850948 -0.08514087 -0.08518472 -0.08522516 -0.08526141 -0.08529399 -0.0853223 -0.08535008 -0.08537767
 -0.08540935 -0.08544565 -0.08548912 -0.08553999 -0.08559837 -0.08566419 -0.08573602 -0.08581354 -0.08589396 -0.08597682
 -0.08605912 -0.08614007 -0.08621627 -0.08628723 -0.08635017 -0.08640599 -0.08645424 -0.08649716 -0.0865366 -0.08657388
 -0.08661069 -0.08664597 -0.08667976 -0.08671077 -0.08673847 -0.08676293 -0.08678398 -0.08680247 -0.0868183 -0.08683425
 -0.08685042 -0.08687253 -0.08690085 -0.08694057 -0.086991 -0.08705045 -0.08711685 -0.08718126 -0.08724211 -0.08729008
 -0.08732661 -0.08734927 -0.08736198 -0.08736861 -0.08737224 -0.08737709 -0.08738386 -0.08739395 -0.08740778 -0.08742558
 -0.08744846 -0.08747718 -0.08751014 -0.08754773 -0.0875844 -0.0876196 -0.08764875 -0.08767143 -0.08768935 -0.08770281
 -0.08771774 -0.08773439 -0.0877577 -0.08778692 -0.08782224 -0.08786174 -0.08790059 -0.08793727 -0.08796615 -0.08798841
 -0.0880024 -0.08801208 -0.08802017 -0.08803006 -0.08804517 -0.08806502 -0.08809099 -0.08811864 -0.08814722 -0.08817209
 -0.08819185 -0.08820692 -0.08821678 -0.08822739 -0.0882391 -0.08825661 -0.08827985 -0.08830681 -0.08833674 -0.08836312
 -0.08838569 -0.08839963 -0.08840607 -0.08840482 -0.08839876 -0.0883927 -0.08838966 -0.08839635 -0.08841138 -0.08843758
 -0.08846729 -0.08849702 -0.08851995 -0.0885309 -0.08853286 -0.08852457 -0.08851521 -0.08850659 -0.08850287 -0.0885051
 -0.08851093 -0.08852025 -0.08853044 -0.0885416 -0.08855584 -0.08857356 -0.08859915 -0.08863202 -0.08867271 -0.08871891
 -0.08876493 -0.08880854 -0.08884244 -0.08886721 -0.08888005 -0.08888385 -0.08888008 -0.08887138 -0.08885979 -0.0888469
 -0.08883372 -0.08882149 -0.08881069 -0.08880239 -0.08879693 -0.08879455 -0.08879547 -0.0887983 -0.088803 -0.08880704
 -0.08881038 -0.08881255 -0.08881391 -0.08881742 -0.08882289 -0.08883175 -0.08884221 -0.08884994 -0.08885395 -0.08884929
 -0.08883864 -0.08882282 -0.08880614 -0.08879353 -0.08878511 -0.08878377 -0.08878347 -0.08878272 -0.08877529 -0.08875822
 -0.08873246 -0.08869678 -0.08865929 -0.08862066 -0.08858833 -0.08856296 -0.08854578 -0.08853678 -0.0885351 -0.08854108
 -0.08855767 -0.08858454 -0.0886235 -0.08867063 -0.08871727 -0.08875725 -0.0887735 -0.08876623 -0.0887257 -0.088663
 -0.088584 -0.08850009 -0.0884212 -0.08834966 -0.08828966 -0.08823707 -0.08819149 -0.0881493 -0.08810948 -0.08807176
 -0.08803597 -0.08800267 -0.08797189 -0.08794457 -0.08792089 -0.08790483 -0.08789641 -0.0878989 -0.08790997 -0.08792216
 -0.08793159 -0.08792201 -0.08789477 -0.08784293 -0.0877743 -0.08769628 -0.08761546 -0.08754057 -0.08747503 -0.08742373
 -0.08738705 -0.08736797 -0.08735907 -0.08736047 -0.0873576 -0.08734762 -0.08732092 -0.08727516 -0.08721376 -0.08713661
 -0.08705283 -0.08696283 -0.08687317 -0.08678395 -0.08669893 -0.08661783 -0.0865415 -0.08646952 -0.08640106 -0.08633602
 -0.08627441 -0.08621478 -0.08615603 -0.08609467 -0.0860263 -0.08595105 -0.08586578 -0.08577844 -0.08569117 -0.08561232
 -0.08554567 -0.08549182 -0.08545245 -0.08542045 -0.08539566 -0.08536726 -0.08533445 -0.08528963 -0.08523261 -0.08516282
 -0.08508018 -0.08498408 -0.08487346 -0.08474199 -0.0845912 -0.08442065 -0.08423616 -0.08404948 -0.08386332 -0.08368754
 -0.08351891 -0.08335741 -0.08320121 -0.0830476 -0.08290096 -0.08276253 -0.08263601 -0.08252416 -0.08242221 -0.08233164
 -0.08223577 -0.08213407 -0.08199958 -0.08182994 -0.08161353 -0.08135103 -0.08107227 -0.08077977 -0.08050985 -0.08025897
 -0.08003109 -0.07981922 -0.0796051 -0.07938464 -0.07914014 -0.07887319 -0.07857683 -0.07825916 -0.07792378 -0.07758243
 -0.07724532 -0.07691427 -0.07659709 -0.07627409 -0.07594217 -0.07557926 -0.07517694 -0.07474471 -0.07428128 -0.07381146
 -0.07333744 -0.07286512 -0.07239472 -0.07192584 -0.07145932 -0.07100441 -0.07055951 -0.07012509 -0.06969267 -0.06923764
 -0.06875304 -0.06820796 -0.067614 -0.06697023 -0.06630038 -0.0656293 -0.06496577 -0.06432488 -0.06370182 -0.06309769
 -0.06250848 -0.0619338 -0.06136861 -0.06081592 -0.06024708 -0.05966369 -0.05899461 -0.05823426 -0.05733163 -0.0562875
 -0.05518139 -0.05402102 -0.05291619 -0.05185553 -0.05084249 -0.04986134 -0.04886491 -0.04785019 -0.04678897 -0.04568329
 -0.04452966 -0.04331515 -0.04203572 -0.04065023 -0.03913332 -0.0374451 -0.03554378 -0.03347867 -0.03123669 -0.02896088
 -0.0266787 -0.02448886 -0.02241291 -0.02045827 -0.01862938 -0.01687897 -0.01520288 -0.0134927 -0.01173622 -0.009761794
 -0.007584552 -0.005156807 -0.00256242 -4.997851E-05 0.002360092 0.004477345 0.006393535 0.008164676 0.009855901 0.01156521
 0.01328536 0.01504334 0.01681118 0.01857802 0.02034056 0.02210121 0.02383204 0.02553205 0.02715084 0.02867704
 0.03012204 0.03148475 0.03280601 0.03408637 0.03529864 0.03643844 0.03744716 0.03833304 0.03910271 0.03977394
 0.04040992 0.04100964 0.04160956 0.0421804 0.04268653 0.04313056 0.04349116 0.04381078 0.04411753 0.04442349
 0.04475151 0.04506231 0.04535006 0.04557371 0.04572058 0.04578381 0.04575839 0.04566588 0.04550646 0.04532189
 0.04511414 0.04491377 0.0447186 0.04451861 0.04431086 0.04407318 0.04381021 0.04352011 0.04321948 0.04293922
 0.04269961 0.04254678 0.04248195 0.04252373 0.04266588 0.04290221 0.04325312 0.04372561 0.04433965 0.04511283
 0.04600865 0.04702498 0.04811396 0.04926412 0.0504883 0.05178545 0.05319384 0.05471494 0.05635805 0.05812182
 0.05999571 0.06197925 0.0640666 0.06625494 0.06853288 0.07089661 0.07332903 0.07583729 0.07842222 0.08109781
 0.08388041 0.08677399 0.08978839 0.09291674 0.09615812 0.09950662 0.1029591 0.1065171 0.1101823 0.113947
 0.1178165 0.1217324 0.1256935 0.1295956 0.1334336 0.1371337 0.1406931 0.14407 0.1472437 0.1500875
 0.1525768 0.1545429 0.1560301 0.157038 0.157648 0.1579864 0.1580918 0.158053 0.1578742 0.1575879
 0.1571779 0.1566675 0.15595 0.1550291 0.1536575 0.1517644 0.1492705 0.1460975 0.1427579 0.1392902
 0.1360525 0.133058 0.1301193 0.1272273 0.1242152 0.1211049 0.1179302 0.1147093 0.1115404 0.1083771
 0.105204 0.1018748 0.09815121 0.09396163 0.08902488 0.08369841 0.07813694 0.07267634 0.06760863 0.06277028
 0.05816481 0.05363606 0.04911391 0.04471909 0.04045307 0.03648319 0.03283199 0.02946696 0.02638575 0.02343136
 0.02060052 0.01780116 0.01504761 0.01236743 0.009776631 0.007346574 0.005072969 0.002986563 0.001063455 -0.0007159336
 -0.00238108 -0.0039647 -0.005503597 -0.007023162 -0.008584816 -0.01022602 -0.01198441 -0.01391915 -0.01586339 -0.01781009
 -0.01949769 -0.02086128 -0.02195868 -0.02278115 -0.02353812 -0.02423943 -0.02498263 -0.02576212 -0.02654522 -0.02732382
 -0.02803299 -0.02868135 -0.02926639 -0.02979352 -0.03028276 -0.03071177 -0.03105738 -0.03129326 -0.03137412 -0.03131124
 -0.03109321 -0.0307534 -0.03030604 -0.02977358 -0.02916764 -0.02849652 -0.02776818 -0.0269625 -0.0260834 -0.02506241
 -0.02389297 -0.02253001 -0.02097226 -0.01935127 -0.0176812 -0.01617646 -0.01483019 -0.01371463 -0.01281072 -0.01209027
 -0.01154608 -0.01115373 -0.0108992 -0.01076257 -0.01069881 -0.0106652 -0.01058816 -0.01039585 -0.01005607 -0.009509045
 -0.008845061 -0.008080755 -0.007298434 -0.006533023 -0.005756717 -0.004973388 -0.00412483 -0.00320437 -0.00219891 -0.001107765
 2.680056E-05 0.001202819 0.00238022 0.003566234 0.004777155 0.006029004 0.007388439 0.008858048 0.01048841 0.01224461
 0.01409332 0.01600629 0.01792395 0.0198817 0.02188222 0.02397569 0.02619912 0.02854386 0.03102293 0.03358396
 0.03621203 0.03889715 0.0416289 0.04446647 0.04741645 0.050499 0.05371485 0.05690302 0.06004775 0.06290239
 0.06546857 0.06763153 0.06940272 0.07077111 0.07172221 0.07222127 0.07224238 0.07172012 0.07066383 0.06904449
 0.06692197 0.06432272 0.0613258 0.05797653 0.05433368 0.05042366 0.04629405 0.04194415 0.03749466 0.03294785
 0.02852356 0.02424331 0.02025268 0.01656039 0.01311767 0.009917027 0.006843009 0.003901884 0.001069056 -0.001635675
 -0.004148315 -0.006471966 -0.008572667 -0.01048514 -0.01224875 -0.01389586 -0.01548079 -0.01701222 -0.01851606 -0.01998498
 -0.02142164 -0.02281814 -0.02417114 -0.02547991 -0.02674229 -0.02796651 -0.0291527 -0.03031465 -0.03145446 -0.03257201
 -0.03366743 -0.03470437 -0.03567939 -0.03653593 -0.0372749 -0.03787064 -0.03833178 -0.03867589 -0.03890922 -0.03905578
 -0.03911626 -0.0391012 -0.03901278 -0.03885515 -0.03863656 -0.03836056 -0.0380468 -0.0377004 -0.03735849 -0.03703069
 -0.03676391 -0.0365699 -0.03648627 -0.03652167 -0.03669038 -0.03699639 -0.03742218 -0.03796704 -0.03858772 -0.03928176
 -0.04000728 -0.04076267 -0.04151932 -0.04227293 -0.04299441 -0.04367687 -0.04428776 -0.04482722 -0.04527794 -0.04565141
 -0.04595311 -0.04619598 -0.04639312 -0.0465488 -0.04666948 -0.04675316 -0.04679951 -0.04681037 -0.04678391 -0.04673385
 -0.04666042 -0.04658704 -0.04651576 -0.04646662 -0.04644088 -0.046444 -0.04647551 -0.04652999 -0.04660681 -0.04669951
 -0.04680785 -0.04692757 -0.04705873 -0.04719892 -0.04734941 -0.04751112 -0.04768548 -0.0478752 -0.04807902 -0.04829752
 -0.04852713 -0.04876639 -0.04901149 -0.04926112 -0.04951121 -0.04976064 -0.05000617 -0.05024704 -0.05048206 -0.05071127
 -0.05093127 -0.05114193 -0.05133394 -0.05150687 -0.05165231 -0.05177099 -0.05186322 -0.05193024 -0.05197757 -0.05200432
 -0.05201167 -0.05199678 -0.05195522 -0.0518853 -0.05178198 -0.05164887 -0.05148541 -0.05130099 -0.0510997 -0.05089155
 -0.0506819 -0.05047373 -0.05026947 -0.05006574 -0.04986189 -0.04965793 -0.04945306 -0.04925711 -0.04907056 -0.0489079
 -0.0487694 -0.04866164 -0.04858287 -0.04852539 -0.04848668 -0.04845228 -0.04842304 -0.04839263 -0.04836601 -0.04834891
 -0.04834499 -0.04836184 -0.04839809 -0.04845534 -0.04853091 -0.04862328 -0.04873221 -0.04885716 -0.04899887 -0.04915763
 -0.0493329 -0.04952475 -0.04973174 -0.04995383 -0.05018857 -0.05043585 -0.05069136 -0.05095479 -0.05122102 -0.05148937
 -0.05175321 -0.05201142 -0.05225617 -0.05248675 -0.052697 -0.05288808 -0.05305869 -0.05321165 -0.05334951 -0.05347531
 -0.05359274 -0.05370255 -0.05380672 -0.05390307 -0.05399122 -0.05406905 -0.05413504 -0.05419278 -0.05424201 -0.05429054
 -0.05433921 -0.05439303 -0.05445242 -0.05451614 -0.05458395 -0.05465148 -0.05471829 -0.05477982 -0.05483528 -0.05487937
 -0.05491125 -0.05492594 -0.05492336 -0.05490101 -0.05485952 -0.05479957 -0.05471903 -0.05461851 -0.0544891 -0.05432715
 -0.05412157 -0.05386613 -0.05355867 -0.05319577 -0.05278673 -0.0523324 -0.05184177 -0.05131627 -0.05075689 -0.05016378
 -0.04953652 -0.04887527 -0.04818348 -0.04746138 -0.04671229 -0.04593593 -0.04513247 -0.04430233 -0.04344549 -0.04256523
 -0.04166547 -0.04075372 -0.03983925 -0.03893176 -0.03804336 -0.03717699 -0.03634026 -0.03552355 -0.0347255 -0.03393491
 -0.0331466 -0.03236384 -0.0315847 -0.03082575 -0.03008849 -0.02938643 -0.02872079 -0.02808708 -0.0274838 -0.02688457
 -0.02628601 -0.02565143 -0.02498003 -0.02424764 -0.02345875 -0.02261229 -0.02171405 -0.02077399 -0.01979562 -0.01878672
 -0.01775037 -0.01669067 -0.0156127 -0.01451858 -0.01341848 -0.0123125 -0.01122645 -0.0101623 -0.009164517 -0.008239731
 -0.007429452 -0.006740546 -0.006181673 -0.005754575 -0.005426653 -0.005194955 -0.005004319 -0.004852127 -0.004692002 -0.004526746
 -0.004341634 -0.004143505 -0.003943406 -0.003744851 -0.00356 -0.003387814 -0.003231781 -0.00309027 -0.002965026 -0.002847976
 -0.002738686 -0.002616904 -0.00247593 -0.002295204 -0.002067419 -0.00178271 -0.001438619 -0.001027511 -0.0005486986 8.120455E-06
 0.0006438134 0.001359633 0.00215489 0.003016062 0.00394098 0.004909181 0.005916603 0.006938565 0.007966422 0.00896808
 0.009929316 0.01081213 0.01160047 0.0122583 0.01277832 0.01313785 0.01334922 0.01340912 0.01334544 0.0131665
 0.01290143 0.01255697 0.0121657 0.01173075 0.01129927 0.01087553 0.01050802 0.01020046 0.009976902 0.009837479
 0.009780343 0.009803543 0.009893644 0.01004674 0.0102411 0.01047083 0.01070865 0.0109519 0.01118159 0.01140166
 0.01160935 0.01180957 0.01200764 0.0122009 0.0123928 0.01256753 0.01272306 0.0128319 0.01288684 0.01286464
 0.01275798 0.01256618 0.01228651 0.01194109 0.0115308 0.01108793 0.01061424 0.01014142 0.009669952 0.009219134
 0.008786257 0.008370466 0.007968466 0.007570191 0.007175535 0.006780419 0.00638362 0.005984695 0.005574411 0.005147439
 0.004686989 0.00418444 0.003617361 0.002976555 0.002238685 0.001394306 0.0004347991 -0.000645383 -0.00183215 -0.003124974
 -0.004507037 -0.005977011 -0.007529676 -0.009164186 -0.01086603 -0.01263012 -0.01441202 -0.01620345 -0.01794536 -0.01963282
 -0.02122051 -0.02271133 -0.02408694 -0.02535965 -0.02653601 -0.02763261 -0.02866718 -0.02964913 -0.03059021 -0.03149107
 -0.03235334 -0.03318141 -0.03397494 -0.03474659 -0.03549823 -0.03624172 -0.03697875 -0.0377164 -0.0384554 -0.03919774
 -0.03994294 -0.04067939 -0.04140444 -0.04209195 -0.04273959 -0.04332237 -0.043842 -0.04428903 -0.04466937 -0.0449883
 -0.04525482 -0.04548222 -0.04567898 -0.04585843 -0.04602197 -0.04617595 -0.04631341 -0.04643347 -0.04652767 -0.04659276
 -0.04662603 -0.04662488 -0.04659846 -0.04654616 -0.04649073 -0.04643373 -0.04639366 -0.0463705 -0.04635511 -0.04634481
 -0.04631192 -0.04625734 -0.04616883 -0.0460526 -0.0459206 -0.04577659 -0.04563481 -0.04549289 -0.04535374 -0.04521364
 -0.04507058 -0.04492043 -0.04476146 -0.04458566 -0.04438992 -0.04416561 -0.04390829 -0.04361908 -0.0432956 -0.0429524
 -0.04259028 -0.04222751 -0.04186556 -0.04151404 -0.04117337 -0.04084823 -0.04054049 -0.04026712 -0.04003189 -0.03986274
 -0.03975824 -0.03973204 -0.03977307 -0.03986759 -0.04000262 -0.04015498 -0.0403162 -0.04047138 -0.04061313 -0.04073343
 -0.04082523 -0.04088281 -0.0409058 -0.04089243 -0.04084652 -0.04076954 -0.04065782 -0.04051172 -0.04032088 -0.04008425
 -0.03980137 -0.03947282 -0.03911688 -0.0387357 -0.03835592 -0.03797804 -0.03761916 -0.03727678 -0.03695262 -0.03664377
 -0.03634516 -0.0360554 -0.03577082 -0.03549007 -0.03521058 -0.03493176 -0.03465205 -0.03437307 -0.03409614 -0.03381866
 -0.03354159 -0.03325485 -0.03295535 -0.03264334 -0.03231604 -0.03199949 -0.03169512 -0.03143251 -0.03121233 -0.03103269
 -0.03089036 -0.03075572 -0.03062678 -0.03047803 -0.03031145 -0.03011963 -0.0299054 -0.02967068 -0.02941817 -0.02915177
 -0.028875 -0.02859292 -0.02830664 -0.02801958 -0.02772737 -0.02742897 -0.02712044 -0.02679915 -0.02646891 -0.02612945
 -0.02578845 -0.02544743 -0.02510604 -0.02476454 -0.02441698 -0.02406341 -0.02370985 -0.02335792 -0.02302625 -0.02271364
 -0.02242634 -0.02215738 -0.02188838 -0.02161554 -0.02131874 -0.02100706 -0.02068323 -0.02036045 -0.02005556 -0.01976767
 -0.01950497 -0.01925069 -0.01899892 -0.01873787 -0.01845989 -0.01817252 -0.01787536 -0.01758047 -0.01729091 -0.01699984
 -0.01670756 -0.01639346 -0.01605684 -0.01569179 -0.01530074 -0.01490343 -0.01450341 -0.01412847 -0.0137791 -0.01347278
 -0.01320454 -0.01297521 -0.01277297 -0.01258321 -0.01239208 -0.0121793 -0.01194113 -0.01166618 -0.01136472 -0.01103739
 -0.01069846 -0.01035247 -0.01000915 -0.009671525 -0.009343644 -0.009026775 -0.008719302 -0.008421191 -0.008130632 -0.007847683
 -0.007577503 -0.007320186 -0.007079914 -0.006854367 -0.006634614 -0.006417756 -0.006189199 -0.005949963 -0.005694713 -0.005426636
 -0.005148265 -0.004861582 -0.00456893 -0.004273174 -0.003976574 -0.003682259 -0.003393089 -0.003107356 -0.002825876 -0.002542978
 -0.002257244 -0.001966662 -0.001669882 -0.001374164 -0.00107953 -0.0008014796 -0.0005407093 -0.0003075153 -0.0001004771 9.016448E-05
 0.0002668853 0.0004489693 0.0006337975 0.0008236654 0.001014009 0.001193442 0.00136662 0.001533997 0.001704693 0.00189105
 0.002089771 0.002304872 0.00252317 0.002738622 0.002944975 0.003137483 0.003320453 0.003493042 0.003665311 0.003838084
 0.004023122 0.004221919 0.004433382 0.004657238 0.004876678 0.005092176 0.005300536 0.005506457 0.005733825 0.005983408
 0.006272999 0.006594059 0.006936775 0.007294252 0.007650153 0.008006684 0.00835961 0.008713919 0.009072465 0.009436929
 0.009811303 0.01018632 0.01056314 0.01091802 0.01124552 0.01153134 0.01176977 0.01198059 0.01216427 0.01235058
 0.0125408 0.01274332 0.01295795 0.01318519 0.01342557 0.01368455 0.01395846 0.0142394 0.01452159 0.0147855
 0.01503625 0.01527151 0.01550158 0.01574063 0.01598203 0.01622922 0.01646214 0.01666978 0.01684663 0.01698453
 0.01710174 0.01719951 0.01730109 0.01741127 0.01753387 0.01767075 0.01780008 0.01792089 0.01801973 0.01809973
 0.0181902 0.01829502 0.01845387 0.01865943 0.01890874 0.01919336 0.01948969 0.01980313 0.02013341 0.02048184
 0.02085255 0.02123689 0.02162346 0.0220286 0.02245292 0.02292871 0.02348125 0.02406279 0.02467468 0.02522703
 0.02569673 0.02611718 0.02648681 0.02688428 0.02731294 0.02778168 0.0282856 0.02877341 0.02924054 0.02963631
 0.02996095 0.03018907 0.03032224 0.03034969 0.03027805 0.03011077 0.02985927 0.02953413 0.02915198 0.02872119
 0.0282764 0.0278338 0.02742826 0.02708012 0.02678503 0.02654872 0.02634303 0.02616264 0.02600489 0.0258684
 0.0257671 0.02570145 0.02565931 0.0256386 0.02561046 0.02557527 0.02551978 0.02544716 0.02536031 0.0252635
 0.02516751 0.02507526 0.02500224 0.02493127 0.02485785 0.02474196 0.02454863 0.02426544 0.02386548 0.02339305
 0.02285135 0.02230497 0.02176696 0.0212941 0.02089741 0.02060563 0.02042482 0.02032725 0.02031159 0.02033837
 0.0204102 0.02054851 0.02075563 0.02106396 0.02145591 0.02188987 0.02234658 0.02275545 0.02312437 0.02343293
 0.02369898 0.02393588 0.02415239 0.02435671 0.02456179 0.02477594 0.02500832 0.02526951 0.02553718 0.02581015
 0.02605719 0.0262712 0.02645134 0.02659635 0.02671766 0.02681575 0.02688778 0.02693396 0.02695519 0.02695339
 0.02694068 0.02691757 0.02689017 0.02686254 0.02684491 0.02684583 0.02688766 0.02696321 0.02707712 0.02720884
 0.02733954 0.02747152 0.02759941 0.027735 0.02789021 0.02803193 0.02815983 0.02821539 0.02818611 0.02806155
 0.02783639 0.02755843 0.02723009 0.0269117 0.02660521 0.02635227 0.02615013 0.02600701 0.02591464 0.02584885
 0.02580355 0.02575222 0.02569423 0.02561861 0.02552217 0.02539658 0.02524232 0.02505307 0.02484438 0.02462328
 0.0243993 0.02418216 0.02395413 0.02371372 0.02344028 0.02312862 0.02278045 0.02239462 0.02198579 0.02155473
 0.02112553 0.02070021 0.02031207 0.01996048 0.01966041 0.0194064 0.01918527 0.01899681 0.01883258 0.01869805
 0.01860262 0.01853863 0.01850564 0.01848239 0.01845174 0.01840128 0.01831664 0.01820523 0.01806237 0.01791527
 0.01776709 0.01765303 0.01758155 0.01755614 0.01758051 0.01761168 0.01764737</values></Ydata></AB><ScSm><Ydata ylabel="Single channel"><values byteorder="INTEL" format="FLOAT32" numvalues="1814"> 0.07002352 0.07002363 0.07009301 0.07025445 0.07047728 0.07069293 0.07084087 0.07090795 0.07091531 0.07087699
 0.07080501 0.07075268 0.07080135 0.07097927 0.07121599 0.07139104 0.07142749 0.07135878 0.07131209 0.07138718
 0.07152199 0.07150891 0.07118982 0.07063612 0.07010111 0.06978518 0.0697125 0.06988119 0.07038412 0.07116212
 0.07173402 0.07154278 0.07065443 0.06978808 0.06951843 0.06972477 0.06992643 0.06983908 0.06946446 0.06897971
 0.06878179 0.06937943 0.07089189 0.07263734 0.07338036 0.07211308 0.06877456 0.06447345 0.06107799 0.06021792
 0.06213827 0.06536725 0.06781796 0.06845342 0.06778684 0.06682784 0.06599483 0.06524226 0.06476207 0.06502376
 0.06612425 0.06734962 0.06754377 0.06609631 0.06366857 0.06172615 0.06120241 0.06191189 0.063334 0.06518379
 0.06661447 0.06575753 0.06155672 0.05610003 0.05369396 0.05676957 0.06329046 0.06874925 0.07018136 0.06782638
 0.0638186 0.06041401 0.05914364 0.06040242 0.06337202 0.0667001 0.06932223 0.07051755 0.06973025 0.06705061
 0.06368735 0.06138216 0.06133833 0.06374839 0.06775705 0.07154216 0.07314294 0.07190914 0.06893295 0.06589314
 0.0639478 0.06374875 0.0656146 0.06919593 0.0734438 0.07721987 0.07976823 0.08079237 0.08051166 0.07952096
 0.07833989 0.07732935 0.07700694 0.07772604 0.07883899 0.07894585 0.07741901 0.07524039 0.07398758 0.07420135
 0.07495769 0.07499518 0.07399331 0.07235648 0.06995719 0.06611995 0.06115823 0.05678326 0.05439316 0.0540068
 0.055278 0.05804352 0.06113286 0.06229586 0.06066452 0.05832719 0.0582581 0.06114437 0.0650297 0.0677017
 0.06873893 0.06935957 0.0708496 0.07324674 0.07517464 0.07488284 0.07198475 0.06843428 0.06714533 0.0691323
 0.07253446 0.07490335 0.07578378 0.07644517 0.0776604 0.07850841 0.07733598 0.07372119 0.06952813 0.06775793
 0.06993773 0.07459322 0.07831813 0.07829771 0.07420249 0.06826058 0.06351969 0.06174153 0.06292252 0.06644201
 0.07174458 0.07774848 0.0825741 0.08459379 0.08361841 0.08079675 0.07731088 0.07329054 0.06843253 0.06380185
 0.06205272 0.06491526 0.07097801 0.07686443 0.0802481 0.08101308 0.07993682 0.077251 0.07285359 0.06768417
 0.06418002 0.06438728 0.0674991 0.07030812 0.07056582 0.06903365 0.06783527 0.06780402 0.06817403 0.06820737
 0.06824142 0.06910282 0.07092294 0.07282621 0.07378105 0.07354055 0.07267953 0.07192196 0.07148782 0.0709414
 0.069806 0.0685123 0.0683506 0.0700554 0.07279132 0.07501201 0.07601196 0.07618053 0.07597336 0.07513033
 0.07306889 0.06998971 0.06733349 0.06671452 0.06835498 0.07094324 0.07300028 0.07394458 0.0739482 0.0734009
 0.07264899 0.07188219 0.07118697 0.0707863 0.07098542 0.0717296 0.07250597 0.0728572 0.07275494 0.07237114
 0.07175386 0.07088719 0.06991774 0.06916301 0.06888413 0.06908531 0.06955346 0.07005151 0.07040219 0.07044742
 0.07010505 0.06949349 0.06885877 0.06834966 0.0679719 0.06774299 0.06773648 0.06794113 0.06819627 0.06832519
 0.06827542 0.06809913 0.06785023 0.06754346 0.06719071 0.06684431 0.0665953 0.06651077 0.06655519 0.06660829
 0.06660035 0.06658439 0.06661668 0.06662366 0.06647816 0.06617609 0.06585103 0.06562698 0.06551979 0.06546994
 0.06540672 0.06526375 0.06498046 0.06455408 0.06410378 0.06382642 0.06384073 0.06409989 0.06446791 0.06482156
 0.06506589 0.06514415 0.06508286 0.06496704 0.06483871 0.06466592 0.06442454 0.06417091 0.06402013 0.06405945
 0.06427 0.06453315 0.06472685 0.06480632 0.06479709 0.06475954 0.06476651 0.06484957 0.06494617 0.06495598
 0.0648651 0.06476693 0.06475003 0.06480271 0.06483918 0.06480111 0.06472369 0.06469829 0.06477225 0.06490491
 0.06502794 0.06512278 0.06522343 0.06535589 0.06548608 0.06553493 0.06546131 0.0653227 0.0652227 0.06520408
 0.06523385 0.0652865 0.06538557 0.06554624 0.06572054 0.06583366 0.06586474 0.06586702 0.06589988 0.06595641
 0.06597801 0.06593295 0.06585494 0.06580278 0.06580514 0.06584926 0.06590356 0.06594099 0.06595078 0.06593786
 0.06591291 0.06588074 0.06583757 0.06578556 0.06575264 0.06578264 0.06588537 0.06600177 0.06604195 0.06596743
 0.06582756 0.0657102 0.06566033 0.06564924 0.06561838 0.06554207 0.0654418 0.06535137 0.06528591 0.06524237
 0.06521121 0.06518413 0.06516605 0.06518432 0.06526856 0.06540748 0.06553817 0.06559741 0.06558152 0.06554295
 0.06553355 0.0655658 0.06562299 0.06568809 0.06576294 0.0658662 0.06600419 0.06614356 0.06623641 0.06627961
 0.06632371 0.06641726 0.06656893 0.06676373 0.06697692 0.06716649 0.06729463 0.06737439 0.06746506 0.06760655
 0.0677813 0.06795208 0.06811251 0.0682831 0.06847547 0.06868345 0.06890526 0.06915522 0.06944746 0.06977361
 0.07009923 0.07038409 0.0706161 0.07083142 0.07109171 0.07143091 0.07182579 0.07222065 0.07257535 0.0728886
 0.07318382 0.0734804 0.07378255 0.07409528 0.07443856 0.07482988 0.07525638 0.07568265 0.07608752 0.07647926
 0.07687487 0.07728003 0.07769185 0.07811043 0.07854182 0.07898982 0.07944348 0.07987594 0.08026518 0.08061607
 0.08095642 0.08131507 0.08170637 0.08212183 0.08252543 0.08287525 0.08317088 0.08346646 0.08381219 0.08419311
 0.08455353 0.08487591 0.08520311 0.08557726 0.08598721 0.08639091 0.08676943 0.08713906 0.08751963 0.08790527
 0.08826526 0.08856884 0.08881375 0.08903267 0.0892678 0.08954412 0.08987302 0.09026399 0.09070872 0.09116235
 0.091567 0.09189461 0.09215383 0.09236993 0.09257728 0.09281385 0.09309466 0.09339802 0.09369114 0.0939544
 0.09417567 0.09435377 0.09452306 0.09474187 0.09503508 0.09537292 0.09572268 0.09609123 0.09649288 0.09690495
 0.09729375 0.09767272 0.09808992 0.09854861 0.09897989 0.09931673 0.09956395 0.09976855 0.09995717 0.1001443
 0.1003742 0.1006985 0.1011151 0.1015665 0.1020003 0.1024036 0.1027842 0.1031434 0.1034711 0.1037529
 0.1039805 0.1041604 0.1043162 0.1044826 0.1046944 0.1049646 0.1052658 0.1055435 0.1057572 0.1058966
 0.1059569 0.1059256 0.1058139 0.1056783 0.105573 0.1054826 0.1053274 0.1050384 0.1046055 0.1040509
 0.103386 0.1026173 0.1017808 0.100952 0.1002158 0.09963541 0.09925215 0.09910679 0.09924307 0.099672
 0.1003298 0.1010818 0.1017741 0.1022782 0.1025009 0.102387 0.101938 0.101221 0.1003393 0.09938914
 0.09843691 0.09751388 0.09661456 0.09571849 0.09484299 0.0940815 0.09358346 0.09350705 0.09399857 0.09517877
 0.09707594 0.09953318 0.1022105 0.1047318 0.1068648 0.1085799 0.1099761 0.1111779 0.1122798 0.1133273
 0.114317 0.1152247 0.1160427 0.1167838 0.1174561 0.1180507 0.1185526 0.1189525 0.1192518 0.1194678
 0.1196278 0.1197519 0.1198501 0.1199384 0.1200377 0.1201406 0.1201892 0.1200997 0.1198094 0.1192996
 0.1185929 0.1177613 0.116976 0.1165552 0.1169002 0.1182781 0.1206027 0.1234376 0.1262427 0.1286406
 0.1305053 0.1318928 0.132937 0.1337726 0.1344925 0.1351443 0.1357517 0.1363297 0.1368838 0.1374135
 0.1379234 0.1384254 0.1389319 0.1394461 0.1399567 0.1404413 0.1408868 0.1413071 0.1417352 0.1421929
 0.142671 0.143144 0.1436013 0.144058 0.1445278 0.1449952 0.1454292 0.1458218 0.1461981 0.1465906
 0.147016 0.1474701 0.1479288 0.1483566 0.1487326 0.1490696 0.1493995 0.1497419 0.1500939 0.150445
 0.1507935 0.1511435 0.1514971 0.1518546 0.1522194 0.1525908 0.1529545 0.1532898 0.1535929 0.1538832
 0.1541826 0.1544949 0.154807 0.1551055 0.1553916 0.1556864 0.1560162 0.1563882 0.1567767 0.1571406
 0.1574563 0.1577359 0.158013 0.1583138 0.1586422 0.1589851 0.1593276 0.1596614 0.1599863 0.1603087
 0.1606373 0.1609772 0.1613254 0.1616724 0.1620093 0.1623348 0.1626558 0.1629802 0.1633139 0.1636633
 0.1640317 0.1644094 0.1647752 0.165112 0.165418 0.1657019 0.1659738 0.1662441 0.1665244 0.1668226
 0.1671378 0.1674618 0.1677864 0.168111 0.1684414 0.1687821 0.169129 0.169473 0.1698066 0.170128
 0.1704421 0.1707596 0.1710899 0.1714314 0.171772 0.1721008 0.1724171 0.1727288 0.1730451 0.1733654
 0.1736776 0.1739714 0.1742559 0.1745533 0.174874 0.1752043 0.1755228 0.1758204 0.1761023 0.1763785
 0.1766594 0.1769554 0.1772704 0.1775959 0.1779163 0.1782242 0.1785252 0.1788245 0.1791185 0.1794041
 0.1796888 0.1799821 0.1802827 0.1805825 0.1808774 0.1811701 0.1814649 0.1817639 0.1820666 0.1823708
 0.1826736 0.1829711 0.1832597 0.1835419 0.1838278 0.1841279 0.1844431 0.1847618 0.1850682 0.1853556
 0.1856348 0.1859244 0.1862331 0.1865541 0.1868761 0.1871908 0.1874942 0.1877886 0.1880814 0.1883802
 0.188688 0.1890045 0.1893253 0.1896421 0.18995 0.190248 0.1905312 0.1907939 0.1910413 0.1912904
 0.1915568 0.1918443 0.1921429 0.1924369 0.1927202 0.1930016 0.193289 0.1935785 0.1938654 0.194154
 0.1944488 0.194748 0.1950498 0.1953558 0.1956675 0.1959853 0.196306 0.1966206 0.196924 0.197224
 0.1975292 0.1978368 0.1981429 0.1984524 0.1987694 0.1990907 0.1994104 0.1997225 0.200024 0.2003224
 0.2006285 0.2009413 0.2012532 0.2015645 0.2018776 0.2021863 0.2024852 0.2027748 0.2030564 0.2033347
 0.203621 0.2039191 0.2042196 0.2045176 0.2048188 0.2051253 0.2054348 0.2057475 0.2060589 0.2063606
 0.2066582 0.2069646 0.2072771 0.2075844 0.2078877 0.2081924 0.2084944 0.2087914 0.2090822 0.209349
 0.2095427 0.2095345 0.2089956 0.2072755 0.2033972 0.1962539 0.1850433 0.1697675 0.1514108 0.1315976
 0.1119983 0.0938945 0.07804724 0.0647919 0.05420449 0.0462121 0.04065789 0.0374046 0.03644643 0.03803353
 0.04281089 0.05143657 0.06313078 0.07439081 0.08035319 0.07863086 0.07159289 0.06420265 0.05989296 0.05890986
 0.05979511 0.06130659 0.06305143 0.06525104 0.06828557 0.0722575 0.07697596 0.08243567 0.08904783 0.09711911
 0.1062296 0.1154101 0.1239769 0.1320641 0.140299 0.1490441 0.1580146 0.1665563 0.1741652 0.1807433
 0.1864989 0.1917129 0.196579 0.2011877 0.2055832 0.209761 0.2135744 0.2166994 0.2187926 0.2197521
 0.2198398 0.2195344 0.2192493 0.219173 0.2193221 0.2196674 0.2201875 0.2208609 0.2216622 0.222563
 0.2235283 0.2245221 0.2255177 0.2264943 0.2274291 0.228305 0.2291149 0.2298562 0.2305307 0.2311491
 0.2317251 0.232265 0.2327696 0.23324 0.2336808 0.2341014 0.2345135 0.2349205 0.2353117 0.2356728
 0.2359986 0.2362955 0.2365774 0.236857 0.2371368 0.2374109 0.2376788 0.2379493 0.2382272 0.2385073
 0.2387836 0.2390573 0.2393337 0.2396147 0.2398961 0.2401717 0.2404431 0.2407233 0.2410213 0.2413251
 0.2416111 0.2418702 0.2421168 0.2423708 0.2426389 0.2429136 0.2431863 0.2434579 0.2437356 0.2440214
 0.2443123 0.2446099 0.2449192 0.2452383 0.2455588 0.2458762 0.2461894 0.2464966 0.2468 0.2471033
 0.2473973 0.2476612 0.2478877 0.2480991 0.2483325 0.2486127 0.2489363 0.249278 0.2496128 0.2499323
 0.2502373 0.2505266 0.2507998 0.2510611 0.2513217 0.2516058 0.251938 0.2523106 0.2526833 0.2530308
 0.2533635 0.2536957 0.2540293 0.2543691 0.254715 0.2550342 0.255285 0.2554795 0.2556992 0.2560337
 0.2564958 0.2570028 0.257454 0.257821 0.2581467 0.2584818 0.2588536 0.2592438 0.2595529 0.259666
 0.2596308 0.2596954 0.2600787 0.2607521 0.2615029 0.2621549 0.2626711 0.2630983 0.2634772 0.263797
 0.2640061 0.2640753 0.2640769 0.2641963 0.2646035 0.265278 0.2660097 0.2666093 0.2670519 0.267398
 0.2676882 0.2679453 0.2681313 0.2680768 0.2676592 0.2671298 0.2670501 0.2677473 0.2689445 0.2700574
 0.2707727 0.2712067 0.2715766 0.2719332 0.2722247 0.2723461 0.2720128 0.2709239 0.2693534 0.2683131
 0.2687162 0.2704561 0.2725803 0.2742429 0.2752365 0.2757741 0.2761171 0.2764036 0.2765477 0.2762465
 0.2753186 0.2741634 0.2736658 0.2743829 0.2759163 0.2773367 0.2781336 0.2784872 0.2787694 0.2791219
 0.2793609 0.278937 0.2772488 0.2745346 0.2723199 0.2723503 0.2748879 0.2783927 0.2810429 0.2823019
 0.282782 0.2829071 0.2822891 0.2804321 0.2774795 0.2741514 0.2715261 0.2708967 0.2729133 0.276507
 0.2794961 0.2807384 0.281095 0.2820005 0.2837489 0.2854987 0.2863734 0.2861403 0.2850612 0.2834169
 0.2813752 0.2794343 0.2786865 0.2800432 0.2831282 0.2864138 0.2886325 0.2897359 0.2902278 0.2896795
 0.2864331 0.279595 0.2715308 0.2672145 0.2698374 0.277467 0.2851198 0.2896623 0.291531 0.2923926
 0.2929122 0.2925667 0.2899491 0.283538 0.2740875 0.2661336 0.2649294 0.2712484 0.2805089 0.2870528
 0.2880079 0.2835945 0.2761017 0.269201 0.2664493 0.269131 0.2756985 0.2833039 0.2895104 0.2929498
 0.2933034 0.2911763 0.2880559 0.285945 0.2859121 0.2865098 0.2848758 0.2803538 0.275596 0.2726678
 0.2698438 0.264784 0.2596554 0.2596903 0.266388 0.2750181 0.2799404 0.2803219 0.2791204 0.2777025
 0.2735048 0.2637208 0.2506003 0.2415502 0.2426521 0.2523584 0.262882 0.267822 0.2672503 0.2654263
 0.2651006 0.2647168 0.2606286 0.2518677 0.2425347 0.2383583 0.2406121 0.2449696 0.2466188 0.2441159
 0.2377104 0.2277665 0.2174773 0.2138586 0.221817 0.2381201 0.2539437 0.2621534 0.2599059 0.2470254
 0.2269458 0.2087616 0.2028142 0.211445 0.2261592 0.2354501 0.2339411 0.2233381 0.2074866 0.1897293
 0.1744017 0.167289 0.1721373 0.1868331 0.2035854 0.2128581 0.2086244 0.1929872 0.1764523 0.1703776
 0.17673 0.186808 0.1910243 0.1876026 0.1811932 0.1768111 0.1769106 0.1810848 0.1865396 0.1906647
 0.1931029 0.1929095 0.1857645 0.1691828 0.1495244 0.1378359 0.1383623 0.1463365 0.1568291 0.1691702
 0.1812548 0.1865136 0.1813262 0.1719124 0.1690633 0.1766873 0.1884442 0.195483 0.1951852 0.1916526
 0.189305 0.188134 0.1859126 0.1833296 0.1841919 0.1901686 0.1978765 0.2026554 0.2034303 0.2023038
 0.2009882 0.1995175 0.1974674 0.1947163 0.1913317 0.1876707 0.1842917 0.1813238 0.1783556 0.1750765
 0.1712753 0.1659819 0.1577482 0.1468765 0.136722 0.131118 0.130419 0.131756 0.133182 0.1348101
 0.1350284 0.129385 0.116462 0.1027177 0.09780902 0.1052882 0.1199626 0.1337492 0.1417382 0.1425858
 0.1362526 0.1245312 0.1133685 0.1109806 0.121154 0.1396607 0.1588546 0.1742222 0.1848454 0.1898574
 0.1879652 0.18037 0.171818 0.167925 0.1718237 0.1827358 0.1961239 0.2047812 0.2023753 0.1898265
 0.1782479 0.1807498 0.1985789 0.2189191 0.229279 0.230182 0.2300381 0.232089 0.2328128 0.2311703
 0.2322925 0.2404093 0.2525694 0.2615302 0.2621239 0.2532932 0.2373525 0.2204435 0.2109651 0.2129073
 0.2213857 0.2280087 0.2290387 0.2249025 0.2151777 0.2006357 0.1885596 0.1883733 0.2006621 0.2158428
 0.2250597 0.228253 0.2302013 0.2322983 0.2309364 0.2230671 0.2113211 0.2023795 0.200366 0.203233
 0.2061955 0.2067675 0.2048726 0.2000463 0.1916918 0.1820129 0.1760329 0.1772917 0.1842936 0.1920262
 0.1965532 0.1975409 0.1969736 0.1966652 0.1970416 0.1973526 0.1969619 0.1970178 0.2002239 0.2077867
 0.2172375 0.22486 0.229923 0.2348958 0.2415826 0.2485904 0.2529719 0.2534239 0.2515627 0.2505912
 0.2527782 0.257651 0.2623155 0.2639165 0.2623547 0.2606243 0.2620367 0.2670305 0.2730851 0.2775687
 0.2798922 0.2809803 0.2817279 0.2822642 0.2819178 0.2797835 0.2761343 0.2732517 0.2738414 0.2783481
 0.2844903 0.2895394 0.2924545 0.2937738 0.2942037 0.2938365 0.292538 0.2906349 0.2889477 0.2881677
 0.2883773 0.2892075 0.2902585 0.2912772 0.2921277 0.292776 0.2932684 0.2936582 0.2939878 0.2943254
 0.2947191 0.2951064 0.2953749 0.2955488 0.2958202 0.296327 0.2969611 0.2974688 0.2976775 0.2975305
 0.2969632 0.2959021 0.2943979 0.2926224 0.2906826 0.2885531 0.2863176 0.2844391 0.2836378 0.2843712
 0.2864184 0.2890106 0.2913626 0.2930729 0.2941242 0.2946802 0.2949408 0.2950773 0.2951868 0.2952775
 0.2953162 0.2952903 0.2952218 0.2951338 0.2950268 0.2949003 0.2947823 0.2947091 0.2946761 0.2946236
 0.2944764 0.2941946 0.2937952 0.2933337 0.2928543 0.2923437 0.2917364 0.2909693 0.2900369 0.2890033
 0.2879691 0.2870157 0.2861546 0.2853228 0.2844346 0.2834339 0.2822809 0.2809146 0.2792959 0.2775033
 0.2757243 0.2741016 0.2726144 0.2711294 0.2695249 0.2677447 0.2657855 0.2636839 0.2615014 0.2592933
 0.2570894 0.2548965 0.2527024 0.2504804 0.2482108 0.2459 0.2435701 0.2412291 0.2388564 0.2364135
 0.2338507 0.2310946 0.2280403 0.224573 0.2205983 0.216061 0.2109706 0.2054465 0.1997261 0.19409
 0.1887562 0.1838295 0.1793354 0.1752947 0.1717726 0.1688644 0.1666439 0.1651387 0.1643447 0.1642436
 0.1648035 0.1659736 0.16767 0.1697607 0.1720739 0.1744302 0.1766669 0.1786583 0.1803614 0.1818581
 0.1833213 0.1849018 0.1866329 0.1884422 0.1902362 0.1919488 0.1935162 0.1948589 0.1959226 0.196717
 0.1972889 0.1976781 0.1979172 0.1980494 0.198119 0.1981532 0.1981665 0.1981834 0.1982498 0.1984233
 0.1987443 0.1992149 0.1998063 0.2004852 0.2012324 0.2020436 0.2029138 0.2038225 0.2047475 0.2056964
 0.2067115 0.2078499 0.2091805 0.2107891 0.2127516 0.2150941 0.2177903 0.2207768 0.2239425 0.2271162
 0.2300974 0.2327182 0.2348946 0.2366341 0.2379993 0.2390593 0.2398711 0.2404889 0.2409647 0.2413394
 0.2416404 0.241877 0.2420293 0.2420557 0.2419199 0.2416122 0.2411577 0.2406107 0.2400261 0.239422
 0.2387841 0.2381026 0.2373903 0.2366714 0.2359684 0.2352884 0.2346119 0.2339063 0.23316 0.2323903
 0.2316143 0.2308195 0.2299591 0.2289735 0.227826 0.2265219 0.2250894 0.2235488 0.2219072 0.2201743
 0.2183768 0.2165633 0.2147856 0.2130623 0.211363 0.2096287 0.2077914 0.2057903 0.2036124 0.2013286
 0.1990558 0.1968754 0.1947988 0.1928036 0.190876 0.1890246 0.1872686 0.1856136 0.1840422 0.1825339
 0.1810879 0.1797141 0.1784115 0.1771658 0.1759706 0.17485 0.1738538 0.1730136 0.1723046 0.1716681
 0.1710674 0.1705051 0.1700054 0.1696032 0.1693305 0.1691738 0.1690532 0.1688708 0.1685789 0.1681994
 0.1677885 0.167394 0.1670394 0.1667302 0.1664543 0.1661679 0.1657962 0.1652574 0.1644774 0.1633884
 0.1619494 0.1601802 0.1581635 0.1560176 0.1538793 0.1518856 0.1501412 0.148701 0.147574 0.1467203
 0.1460524 0.1454821 0.1449801 0.1445887 0.1443765 0.1443585 0.1444383 0.1444567 0.1443404 0.1441856
 0.1441707 0.1444052 0.1448683 0.145446 0.1460091 0.1464809 0.1468422 0.1470808 0.1471768 0.1471347
 0.1469848 0.146751 0.1464505 0.1461056 0.145725 0.1452956 0.1448079 0.1442611 0.143646 0.1429553
 0.1421919 0.1413499 0.1404211 0.1394137 0.1383161 0.1370852 0.1357569 0.1345375 0.1337041 0.1334191
 0.1336521 0.1342314 0.1349681 0.1357642 0.1365577 0.137156 0.1373092 0.1370966 0.1371037 0.1379862
 0.1398355 0.1420778 0.1439886 0.145201 0.1457232 0.1456672 0.1451117 0.144111 0.1426601 0.1406957
 0.1382361 0.1354352 0.1324511 0.1294035 0.1264687 0.1238433 0.1216157 0.1197776 0.1183024 0.117226
 0.1166803 0.1163117 0.1143261 0.1084355 0.09938503 0.09253317 0.09335943 0.1013048 0.1101517 0.1146041
 0.1145225 0.1127383 0.1112037 0.1102232 0.1097174 0.1098347 0.1106869 0.1121021 0.113656 0.1149201
 0.1157297 0.1161387 0.1161148 0.1153208 0.1130841 0.1086235 0.1016743 0.09305309 0.08439173 0.07719205
 0.07216478 0.06923744 0.06784296 0.06723876 0.06688304 0.06669798 0.06697418 0.06800905 0.06984429 0.07231982
 0.07525729 0.07844768 0.08152178 0.08407992 0.08601496 0.08752719 0.08877806 0.08969735 0.09015261 0.09013855
 0.08975983 0.08914365 0.08840387 0.08761304 0.08675896 0.0857586 0.08458884 0.0834243 0.08255805 0.08212864
 0.08200627 0.081986 0.08198109 0.08199096 0.08201031 0.08202553 0.08203031 0.08204596 0.0821607 0.08247927
 0.08298662 0.08353075 0.08396277 0.08424021 0.08440192 0.08446677 0.0843394 0.08388797 0.08320138 0.08261386
 0.08227746 0.08187176 0.08101279 0.07984374 0.07894374 0.0786947 0.07895239 0.07930453 0.07945374 0.07934546
 0.07912312 0.07906131 0.07939712 0.08004986</values></Ydata></ScSm><ScRf><Ydata ylabel="Single channel"><values byteorder="INTEL" format="FLOAT32" numvalues="1820"> 0.06069601 0.06085443 0.06094975 0.06098612 0.06098814 0.06099704 0.0610562 0.06118529 0.06136403 0.06154157
 0.06167053 0.06173816 0.0617574 0.06173413 0.06167383 0.06162231 0.06165634 0.06180836 0.06201908 0.06217892
 0.0622167 0.06216212 0.06212825 0.0622007 0.06231972 0.06229864 0.06199964 0.06149276 0.06100928 0.06072907
 0.060671 0.0608278 0.06127634 0.06196451 0.06247506 0.06232355 0.06156343 0.06081364 0.06057129 0.06073646
 0.06089906 0.06081459 0.06048178 0.06005353 0.05987909 0.06040534 0.06173513 0.06326942 0.06392507 0.06281638
 0.05988655 0.05610868 0.05312763 0.05237747 0.05407035 0.05690879 0.05905958 0.05961611 0.05903291 0.05819731
 0.05747475 0.05682127 0.05640187 0.05662916 0.05759253 0.05866821 0.05883989 0.05756989 0.05544066 0.05374137
 0.05329 0.05391913 0.05516764 0.05678332 0.05802404 0.05725574 0.0535599 0.04877407 0.04667681 0.04939735
 0.05514301 0.05995068 0.06121145 0.05913535 0.0556059 0.05261565 0.05150987 0.05262448 0.05523209 0.05814737
 0.06044279 0.06148979 0.06080352 0.0584658 0.05553419 0.053528 0.05349782 0.0556155 0.0591351 0.06245814
 0.06386133 0.06277074 0.06014408 0.0574602 0.05574494 0.05557441 0.05722367 0.06038062 0.06412335 0.06745121
 0.06969556 0.07059318 0.0703427 0.06947744 0.06845726 0.06758973 0.06731573 0.06794019 0.06889874 0.06897008
 0.06761184 0.06569415 0.06460519 0.06481588 0.06550749 0.06556457 0.0646987 0.06326193 0.06114591 0.05776478
 0.05339959 0.04955515 0.0474587 0.04712759 0.04826384 0.05072998 0.05349121 0.05455126 0.05313237 0.05107211
 0.05099794 0.05352441 0.05693413 0.05928025 0.06019242 0.06074613 0.06207626 0.06421283 0.06593467 0.06569252
 0.06314778 0.0600317 0.05891822 0.06069641 0.06371792 0.0658265 0.06663205 0.06725964 0.06838439 0.06918344
 0.06819433 0.06505045 0.06140645 0.05991426 0.06191479 0.06609605 0.06944129 0.06945548 0.06584704 0.06060556
 0.05645418 0.05496091 0.0561156 0.05937006 0.06424403 0.06977828 0.07428218 0.07627416 0.07555366 0.07313281
 0.07007881 0.06652208 0.06219753 0.05808382 0.05661808 0.05939879 0.06514101 0.07074256 0.07405297 0.0749512
 0.07414021 0.07181688 0.06787438 0.06319919 0.06009917 0.06051082 0.06366825 0.06653352 0.0669744 0.06570803
 0.06474918 0.06489691 0.06542987 0.06565103 0.06589524 0.06696665 0.06898804 0.07109723 0.07227768 0.07227736
 0.07165414 0.07112572 0.0709164 0.07059127 0.06967472 0.06861144 0.06871194 0.07071558 0.07376692 0.07628907
 0.07756236 0.07798898 0.07803853 0.07743303 0.07555521 0.07261135 0.0701118 0.06975065 0.07176526 0.07478335
 0.07724721 0.07853487 0.07882269 0.07852349 0.07800332 0.07746233 0.07699655 0.07684945 0.07734825 0.07843111
 0.07954541 0.0802023 0.08037642 0.0802497 0.07985809 0.07917385 0.07836631 0.07780085 0.07777269 0.07828508
 0.07909825 0.07994312 0.08061558 0.08093372 0.08080087 0.08034992 0.07986862 0.07953842 0.07936828 0.07937275
 0.07963298 0.08013301 0.08068118 0.08107166 0.08125033 0.0812831 0.08123138 0.08110823 0.08092395 0.08073941
 0.08066629 0.08078684 0.08105507 0.08132735 0.08153047 0.08173494 0.08200091 0.08222735 0.0822554 0.08208171
 0.08187454 0.08179072 0.08184665 0.08196109 0.08204879 0.08203858 0.08185843 0.08149719 0.08109935 0.08091517
 0.08110055 0.08160373 0.08225565 0.0828913 0.0833748 0.08362553 0.08367859 0.08364802 0.08359443 0.08348176
 0.08327939 0.08306076 0.08298102 0.08315898 0.0835692 0.08405308 0.08444604 0.08467908 0.08477434 0.08481072
 0.08489646 0.08508527 0.08529404 0.08537908 0.08531621 0.08523799 0.08527206 0.0853957 0.08547729 0.08543556
 0.08533493 0.08531855 0.08545782 0.08569031 0.08590789 0.08607499 0.08624153 0.0864529 0.08666232 0.0867485
 0.08664273 0.0864248 0.086249 0.08618436 0.0861872 0.0862245 0.08633801 0.08655229 0.08678694 0.08692218
 0.08693274 0.08691002 0.08694619 0.08702701 0.08705654 0.08696888 0.08679323 0.08661959 0.08652647 0.08653791
 0.08662015 0.08670473 0.08672828 0.08667014 0.08655882 0.08644073 0.08634515 0.08628901 0.08630894 0.08645149
 0.08670019 0.0869305 0.08698475 0.08681483 0.08653677 0.08632836 0.08627102 0.0862924 0.08625422 0.08608405
 0.08582219 0.08556142 0.08536285 0.08522838 0.08512858 0.08504319 0.08498651 0.08500323 0.0851208 0.08528541
 0.08536687 0.08526505 0.08501085 0.08473613 0.08455247 0.08448161 0.08448059 0.0844947 0.08449824 0.08451302
 0.08457162 0.0846488 0.08466738 0.08459292 0.08448409 0.08443227 0.08449 0.08465753 0.0848799 0.085048
 0.08506821 0.08495885 0.08483852 0.08480485 0.08485848 0.0849483 0.08504389 0.08514287 0.08524272 0.08534116
 0.08545701 0.08562439 0.08585703 0.08612469 0.08636788 0.08653817 0.08663625 0.08672111 0.08687374 0.08713404
 0.08746508 0.08778337 0.0880291 0.08821036 0.08837855 0.08856546 0.08875974 0.08895148 0.08917257 0.08946122
 0.0898018 0.09013574 0.09042896 0.09069799 0.09097237 0.09125955 0.09155285 0.09185876 0.09220639 0.09261969
 0.09306945 0.09346688 0.09373185 0.09387054 0.09397513 0.09415375 0.09445897 0.09484967 0.09520537 0.09541789
 0.0955029 0.09559265 0.09578864 0.09605536 0.09629931 0.09651799 0.09680746 0.09722489 0.09769833 0.09809357
 0.0983443 0.09849991 0.09865776 0.09886029 0.0990608 0.0991915 0.09925318 0.09931307 0.09942073 0.09957139
 0.09976472 0.1000439 0.1004337 0.1008749 0.101267 0.1015583 0.1017626 0.1019106 0.1020212 0.1021018
 0.102149 0.1021657 0.1021868 0.1022586 0.1023754 0.1024736 0.1025128 0.1025308 0.1025972 0.1027432
 0.102962 0.1032424 0.10356 0.1038623 0.1041147 0.1043594 0.1046754 0.105061 0.1054025 0.1055943
 0.1056528 0.1056714 0.1057 0.1057303 0.1057772 0.1059013 0.1061393 0.1064608 0.1068108 0.1071632
 0.1075184 0.1078707 0.1081877 0.1084173 0.1085221 0.1085179 0.1084759 0.1084831 0.1085993 0.1088362
 0.1091546 0.1094845 0.1097631 0.1099576 0.1100513 0.1100391 0.1099645 0.109934 0.1100373 0.1102443
 0.1104128 0.1104098 0.110201 0.1098238 0.1093167 0.108704 0.1080298 0.1073727 0.1068161 0.1064116
 0.1061806 0.1061468 0.1063507 0.1068062 0.1074488 0.1081529 0.1088039 0.1093263 0.1096438 0.1096661
 0.1093524 0.1087649 0.1080335 0.1072813 0.1065881 0.105978 0.1054162 0.104857 0.104336 0.1040069
 0.104062 0.1046167 0.1056578 0.1070544 0.1085957 0.1100551 0.1112808 0.1122516 0.113045 0.11375
 0.1144137 0.1150583 0.1157091 0.1163744 0.1170155 0.1175771 0.11805 0.1184746 0.1188819 0.1192625
 0.1195902 0.119855 0.1200732 0.120281 0.1205015 0.1207032 0.1208153 0.120803 0.1207067 0.120589
 0.1204654 0.1202992 0.1200445 0.1196823 0.1192477 0.1188508 0.118667 0.1188703 0.1195356 0.1205884
 0.121857 0.1231815 0.1244627 0.1256194 0.126557 0.1272191 0.1276464 0.1279485 0.1282227 0.1285112
 0.1288163 0.1291262 0.1294282 0.1297149 0.1299881 0.130264 0.1305692 0.1309166 0.131278 0.1315964
 0.1318416 0.1320506 0.1323007 0.1326388 0.1330359 0.1334187 0.1337491 0.1340582 0.1343864 0.1347118
 0.1349725 0.1351518 0.135305 0.1355022 0.1357766 0.1361207 0.1364927 0.1368267 0.1370741 0.1372505
 0.1374183 0.1376214 0.1378548 0.1380969 0.1383421 0.138593 0.1388465 0.1391039 0.1393818 0.1396895
 0.1399973 0.1402502 0.140422 0.1405451 0.1406788 0.1408558 0.1410652 0.1412775 0.1414816 0.1417008
 0.1419707 0.1422934 0.142618 0.1428781 0.1430514 0.1431746 0.1433035 0.1434672 0.1436616 0.1438714
 0.1440865 0.1442998 0.144505 0.1447034 0.144906 0.1451191 0.1453345 0.1455408 0.1457395 0.1459409
 0.1461483 0.1463576 0.1465725 0.1468126 0.1470945 0.1474038 0.1476947 0.1479264 0.148097 0.1482346
 0.1483641 0.1484949 0.1486351 0.1487966 0.1489844 0.1491897 0.149398 0.1496007 0.1498002 0.1500062
 0.1502249 0.1504493 0.150666 0.1508714 0.1510756 0.151291 0.1515194 0.1517507 0.1519705 0.1521707
 0.1523544 0.1525355 0.152727 0.1529284 0.1531263 0.1533119 0.1534934 0.1536842 0.1538845 0.154082
 0.1542711 0.1544604 0.1546597 0.1548666 0.1550695 0.1552614 0.1554486 0.1556429 0.1558488 0.1560596
 0.1562639 0.1564549 0.1566337 0.15681 0.1569967 0.1571999 0.1574149 0.1576328 0.1578478 0.1580563
 0.1582546 0.1584426 0.1586266 0.1588154 0.1590129 0.1592145 0.1594133 0.1596079 0.1598023 0.1599988
 0.1601937 0.1603815 0.160562 0.1607462 0.1609509 0.1611822 0.161425 0.1616556 0.1618633 0.1620554
 0.1622459 0.1624462 0.1626603 0.162884 0.1631105 0.1633375 0.1635651 0.1637897 0.1640066 0.1642147
 0.1644144 0.1646052 0.164787 0.1649603 0.1651238 0.1652777 0.1654281 0.1655854 0.1657591 0.1659529
 0.1661605 0.1663703 0.1665774 0.1667849 0.1669928 0.1671967 0.1673957 0.1675939 0.1677935 0.167994
 0.1681939 0.168394 0.1685992 0.1688149 0.1690358 0.1692478 0.1694466 0.1696439 0.1698541 0.1700809
 0.170317 0.1705464 0.1707551 0.1709466 0.1711376 0.1713375 0.1715421 0.1717461 0.1719496 0.1721566
 0.1723719 0.1725943 0.1728128 0.1730208 0.1732266 0.1734377 0.1736493 0.1738564 0.1740638 0.1742763
 0.1744936 0.1747131 0.174928 0.1751329 0.1753352 0.175546 0.1757618 0.1759731 0.1761799 0.1763865
 0.1765931 0.1768022 0.1770121 0.1772012 0.1773229 0.17727 0.176772 0.1752843 0.1719736 0.165885
 0.1563251 0.143301 0.1276681 0.1108213 0.09417852 0.07881592 0.06537291 0.05413778 0.04517827 0.03842374
 0.0337256 0.03095997 0.03012894 0.03145652 0.03549223 0.04278451 0.05266315 0.06216403 0.06718206 0.06570863
 0.05975258 0.05351057 0.04988042 0.04906398 0.04982337 0.05110405 0.05257055 0.05441216 0.05695748 0.06029685
 0.06426516 0.0688549 0.07441784 0.08121864 0.08889996 0.09663484 0.1038435 0.1106469 0.1175812 0.1249467
 0.1324919 0.1396636 0.1460466 0.1515667 0.1564012 0.160787 0.1648875 0.1687733 0.1724724 0.175976
 0.1791637 0.1817688 0.1835057 0.1842873 0.1843325 0.1840463 0.1837808 0.1836933 0.183793 0.1840535
 0.1844601 0.1849982 0.1856479 0.1863841 0.1871723 0.1879787 0.1887858 0.1895849 0.1903603 0.1910924
 0.1917674 0.1923783 0.1929255 0.1934197 0.1938748 0.1943011 0.1947057 0.1950912 0.1954533 0.1957911
 0.1961156 0.1964355 0.1967425 0.1970216 0.1972705 0.1974996 0.1977199 0.1979381 0.198155 0.1983681
 0.1985778 0.1987873 0.1989969 0.1992036 0.1994077 0.1996105 0.1998109 0.2000108 0.2002167 0.2004283
 0.2006328 0.2008196 0.2009944 0.2011729 0.2013646 0.2015655 0.2017627 0.2019478 0.2021242 0.2023021
 0.202489 0.2026877 0.2028966 0.2031086 0.2033167 0.2035238 0.2037379 0.203956 0.2041679 0.2043722
 0.2045781 0.2047919 0.2050117 0.2052306 0.2054368 0.2056186 0.2057788 0.2059388 0.2061226 0.2063375
 0.2065696 0.2067964 0.2070061 0.2072037 0.2073965 0.2075834 0.2077589 0.2079214 0.2080786 0.2082532
 0.2084695 0.2087235 0.2089827 0.2092262 0.2094626 0.2097034 0.2099469 0.2101908 0.2104289 0.2106339
 0.2107792 0.2108858 0.2110292 0.2112816 0.2116438 0.212035 0.2123646 0.2126118 0.2128233 0.2130517
 0.2133196 0.2136019 0.2138081 0.2138437 0.2137552 0.213753 0.2140186 0.2145248 0.2150935 0.2155802
 0.2159568 0.2162627 0.2165332 0.2167621 0.2169065 0.2169358 0.2169013 0.2169502 0.2172217 0.2177016
 0.2182224 0.2186354 0.2189277 0.2191542 0.2193477 0.2195209 0.219638 0.2195612 0.2191929 0.2187392
 0.2186581 0.2192123 0.2201645 0.2210276 0.2215497 0.2218443 0.222107 0.2223821 0.2226155 0.2227092
 0.2224253 0.2215158 0.2202029 0.2193164 0.2196126 0.2210121 0.2227336 0.2240753 0.2248592 0.2252602
 0.2255029 0.2257119 0.2258178 0.225563 0.2247886 0.2238192 0.2233857 0.2239521 0.2251931 0.2263398
 0.2269673 0.2272266 0.2274337 0.2277128 0.2279121 0.2275707 0.2261823 0.2239404 0.2221069 0.2221235
 0.2242012 0.2270672 0.2292265 0.2302441 0.230624 0.2307079 0.2301718 0.2286125 0.2261609 0.2234201
 0.2212726 0.2207657 0.222421 0.2253627 0.2278092 0.2288267 0.2291165 0.2298502 0.2312718 0.2326962
 0.2334037 0.2332036 0.2323187 0.2309872 0.2293398 0.2277688 0.2271602 0.2282691 0.2308033 0.2335182
 0.235366 0.2362919 0.2367029 0.2362502 0.2335767 0.2279554 0.2213394 0.2178187 0.220008 0.2263105
 0.232631 0.2363978 0.2379705 0.2387157 0.2391776 0.2389278 0.2368147 0.2315878 0.22386 0.2173546
 0.2163917 0.221614 0.2292612 0.2346832 0.2355119 0.2319196 0.2257925 0.2201625 0.2179575 0.2202255
 0.2256884 0.2320058 0.2371745 0.2400701 0.2404305 0.2387509 0.2362553 0.2345985 0.2346611 0.23524
 0.2339643 0.2302901 0.2264084 0.2240371 0.2217726 0.2176927 0.213579 0.2137461 0.2194339 0.2267304
 0.2309648 0.2314429 0.2306054 0.2295712 0.2262112 0.2182092 0.2074526 0.2001141 0.201256 0.2095734
 0.2185591 0.2228807 0.2226211 0.2213553 0.2213862 0.2213982 0.2183034 0.2112648 0.2037442 0.200598
 0.2029101 0.2070191 0.2088486 0.2071572 0.2021222 0.1940407 0.1856669 0.1830442 0.1904118 0.205014
 0.219254 0.2269455 0.225573 0.2149263 0.1979833 0.1827451 0.1783513 0.1868871 0.2008423 0.2100156
 0.2096073 0.2010767 0.1877918 0.1727358 0.1599019 0.1547166 0.1607946 0.1762804 0.1938529 0.2043394
 0.2017893 0.1881378 0.1736641 0.1695891 0.1778272 0.1896393 0.1954118 0.1933777 0.1882383 0.1851313
 0.186682 0.1925192 0.1996599 0.205317 0.2091259 0.209978 0.2030175 0.18547 0.1643653 0.151909
 0.1528096 0.1618611 0.1737028 0.1876395 0.2012842 0.2072445 0.2014531 0.1908634 0.1875315 0.1958173
 0.2086542 0.2162013 0.2155878 0.2114461 0.2087584 0.2075493 0.2053559 0.2029702 0.2046538 0.21226
 0.2220039 0.2286893 0.2311184 0.2316328 0.2321428 0.2326688 0.2326802 0.2319785 0.2306285 0.2290817
 0.2280355 0.2276521 0.2274131 0.2269133 0.2258329 0.2227197 0.2152998 0.2036613 0.1922911 0.1865221
 0.1868795 0.1894347 0.1916628 0.1939144 0.193938 0.1853524 0.1660635 0.1451637 0.1363109 0.1445305
 0.1624784 0.1788209 0.1869171 0.1853766 0.1746694 0.1573416 0.1407301 0.1346627 0.1434442 0.1617302
 0.1802452 0.1937796 0.2017837 0.2039313 0.1991293 0.1886767 0.1775419 0.1715211 0.1737041 0.1831148
 0.195039 0.2022415 0.1985065 0.1848132 0.1720594 0.1730246 0.1889681 0.2075422 0.2166714 0.2167789
 0.2158999 0.2171855 0.2173363 0.2153706 0.2161419 0.223683 0.2352775 0.2441404 0.2453729 0.2378929
 0.2238181 0.2089698 0.2013517 0.2046908 0.2141348 0.2214765 0.2230687 0.219338 0.2099423 0.1957999
 0.1842214 0.1845189 0.1972264 0.2128729 0.2227502 0.2268429 0.2298829 0.2331834 0.2330408 0.2263492
 0.2158044 0.2082484 0.2079102 0.2127069 0.2177702 0.2205822 0.2210007 0.2183385 0.2117917 0.2037578
 0.1998733 0.204109 0.2146323 0.2254897 0.2319084 0.2332769 0.2317593 0.2294854 0.2271166 0.2240159
 0.2196674 0.2155156 0.2146815 0.2186322 0.2248497 0.2294211 0.2315193 0.2336762 0.2378034 0.242558
 0.2449799 0.2437254 0.2403408 0.2379048 0.2385566 0.2418037 0.24489 0.2451426 0.2425158 0.2398778
 0.2403715 0.2444182 0.2496645 0.2536601 0.2558478 0.257057 0.2580757 0.2589626 0.2589996 0.2572307
 0.2538133 0.2508163 0.2507586 0.2541138 0.2588602 0.2625759 0.264405 0.2649322 0.2648412 0.2641912
 0.2628143 0.2609799 0.2594228 0.2587574 0.2590274 0.2598504 0.2608234 0.2617053 0.2623845 0.2628446
 0.2631373 0.2633153 0.2634131 0.2634853 0.2635762 0.2636399 0.2635874 0.2634519 0.2634131 0.2635973
 0.2639162 0.2641641 0.2642058 0.26399 0.2634485 0.2625153 0.2612478 0.2598087 0.2582843 0.2566242
 0.2548726 0.2534303 0.2529451 0.2538278 0.2558642 0.2583396 0.2605387 0.2621188 0.2630952 0.2636254
 0.2638697 0.2639606 0.2639821 0.263948 0.2638304 0.2636171 0.2633291 0.2629904 0.2626073 0.2621893
 0.2617734 0.2614078 0.2611067 0.2608309 0.2605151 0.2601136 0.2596288 0.2591044 0.2585832 0.2580586
 0.2574654 0.2567317 0.2558418 0.2548543 0.2538674 0.2529637 0.2521654 0.2514286 0.2506832 0.2498793
 0.2489877 0.2479785 0.2468462 0.2456682 0.2445914 0.2437228 0.2430401 0.2424243 0.241759 0.2409856
 0.2400979 0.2391238 0.2381016 0.2370484 0.2359527 0.2348035 0.2336068 0.2323633 0.2310512 0.2296462
 0.2281443 0.2265633 0.224936 0.2232947 0.2216342 0.21988 0.2179034 0.2155675 0.2127588 0.2093997
 0.2054666 0.2010184 0.1962066 0.1912438 0.1863446 0.1816784 0.1773645 0.1734957 0.1701565 0.1674235
 0.1653522 0.1639668 0.1632665 0.1632487 0.163917 0.165258 0.167211 0.1696624 0.1724616 0.1754367
 0.1784094 0.1812216 0.1837836 0.1861122 0.1883003 0.1904195 0.1924529 0.1943304 0.1960028 0.1974574
 0.1986903 0.1997026 0.2005237 0.2012081 0.2018035 0.2023264 0.2027683 0.2031211 0.2033947 0.2036139
 0.2038048 0.20399 0.2041857 0.2043966 0.2046176 0.2048445 0.2050828 0.2053529 0.2056889 0.2061183
 0.2066331 0.2071938 0.2077683 0.2083565 0.2089743 0.2096339 0.2103478 0.211146 0.2120764 0.2131778
 0.2144449 0.2158195 0.2172179 0.218557 0.2197609 0.2207661 0.221534 0.2220533 0.2223344 0.2224083
 0.2223209 0.2221138 0.2218119 0.2214299 0.2209794 0.2204669 0.219898 0.2192849 0.2186412 0.2179732
 0.2172855 0.2165897 0.2158983 0.2152138 0.214534 0.2138672 0.2132317 0.2126332 0.2120522 0.2114648
 0.2108697 0.2102836 0.2097138 0.2091513 0.2085842 0.2079973 0.2073566 0.2066197 0.2057714 0.2048344
 0.2038337 0.2027624 0.2015955 0.2003236 0.1989598 0.1975181 0.1960014 0.1944126 0.1927601 0.1910448
 0.1892449 0.1873315 0.1853106 0.1832494 0.1812478 0.1793833 0.177679 0.1761124 0.1746425 0.1732382
 0.171893 0.1706116 0.1693876 0.1682104 0.1670848 0.1660232 0.1650229 0.1640745 0.1631859 0.1623796
 0.1616689 0.1610463 0.1604928 0.1599938 0.1595491 0.159171 0.1588776 0.1586934 0.1586383 0.1586951
 0.1587946 0.1588512 0.1588156 0.1586984 0.1585516 0.1584265 0.1583369 0.1582655 0.1581962 0.158115
 0.1579758 0.1576889 0.1571518 0.1562912 0.1550902 0.1535868 0.1518526 0.1499858 0.1481247 0.1464242
 0.144991 0.1438537 0.1429885 0.1423384 0.1418244 0.1413899 0.1410425 0.1408402 0.1408402 0.1410384
 0.1413268 0.1415433 0.1416166 0.1416423 0.1417903 0.1421653 0.1427595 0.1434791 0.144203 0.144851
 0.145398 0.1458257 0.1461076 0.146249 0.1462861 0.1462455 0.1461352 0.1459594 0.1457154 0.1454026
 0.1450333 0.1446076 0.1441033 0.143518 0.1428735 0.1421641 0.1413632 0.1404676 0.139469 0.1383356
 0.1371165 0.1360184 0.1353054 0.1351419 0.1355253 0.1363009 0.1372633 0.1382916 0.1393184 0.1401532
 0.1405432 0.1405565 0.1407628 0.1418181 0.1438388 0.1462697 0.1483777 0.1497856 0.1505046 0.1506349
 0.1502309 0.1493488 0.148003 0.1461217 0.1436931 0.1408649 0.1378225 0.1347184 0.1317412 0.1290748
 0.126801 0.1249431 0.123511 0.1225358 0.1221318 0.12193 0.1200496 0.1140635 0.1047487 0.09776904
 0.09890293 0.1075427 0.1171324 0.1220998 0.1222813 0.1206254 0.1191629 0.1181971 0.1176368 0.1176505
 0.1183776 0.1196588 0.1210862 0.1222514 0.1229859 0.1233231 0.1232248 0.1223452 0.1199583 0.1152086
 0.1078052 0.09862317 0.08940618 0.08175272 0.07639688 0.07322302 0.0716133 0.0708055 0.07026824 0.06995558
 0.07018928 0.07126671 0.07321264 0.07587439 0.07908626 0.08260311 0.08598634 0.08879671 0.0909318 0.09261455
 0.09403011 0.09511442 0.09571005 0.0957841 0.09544306 0.09482919 0.09406252 0.09322225 0.0923052 0.09122989
 0.08998317 0.08876832 0.08789462 0.08748846 0.08740872 0.08744536 0.08748262 0.08747648 0.0874109 0.08730377
 0.08719185 0.08712756 0.08720869 0.08752652 0.08804313 0.0885861 0.08898907 0.08920483 0.08928795 0.08926898
 0.08903605 0.0884351 0.08756137 0.08677845 0.08626351 0.08570269 0.08470385 0.08340804 0.08241464 0.08212636
 0.08238518 0.08273838 0.08285951 0.08269408 0.08241154 0.08232342 0.08268038 0.08337331 0.08391915 0.08390269
</values></Ydata></ScRf><Data_Parameters_AB><parameter name="DPF">1</parameter><parameter name="NPT">3497</parameter><parameter name="FXV">3996</parameter><parameter name="LXV">500</parameter><parameter name="CSF">1</parameter><parameter name="MXY">0.158091768622398</parameter><parameter name="MNY">-0.0888838544487953</parameter><parameter name="DAT">31/05/2022</parameter><parameter name="TIM">11:23:45.407 (GMT+2)</parameter><parameter name="DXU">WN</parameter></Data_Parameters_AB><AB__Qtest><MainReport name="Quality Test Report"><Header><Line><Legend>Test result ok/not ok [1/0]: </Legend><Value>0</Value></Line><Line><Legend>Method file: </Legend><Value>C:\Users\Public\Documents\Bruker\OPUS_8.2.28\QT\IRBT_v3_default.QT</Value></Line></Header><Matrix><Line><Legend></Legend><Legend>min</Legend><Legend>max</Legend><Legend>measured</Legend></Line><Line><Value>Absorption (X-Range 1):</Value><Value>0.400000</Value><Value>2.000000</Value><Value>0.162213</Value></Line><Line><Value>Noise (X-Range 4):</Value><Value></Value><Value>0.000300</Value><Value>0.000071</Value></Line><Line><Value>Signal/Noise (X-Range 2):</Value><Value>200.000000</Value><Value></Value><Value>38.642110</Value></Line><Line><Value>Signal/Noise (X-Range 3):</Value><Value>40.000000</Value><Value></Value><Value>39.781550</Value></Line><Line><Value>Water vapour (X-Range 5):</Value><Value></Value><Value>0.000300</Value><Value>0.000064</Value></Line><Line><Value>Signal/Water (X-Range 2):</Value><Value>100.000000</Value><Value></Value><Value>42.529161</Value></Line><Line><Value>Signal/Water (X-Range 3):</Value><Value>20.000000</Value><Value></Value><Value>43.783219</Value></Line><Line><Value>Fringes (X-Range 6):</Value><Value></Value><Value>0.000100</Value><Value>0.000056</Value></Line></Matrix></MainReport></AB__Qtest><Data_Parameters_ScSm><parameter name="DPF">1</parameter><parameter name="NPT">1814</parameter><parameter name="FXV">3996.33169228125</parameter><parameter name="LXV">499.541461535156</parameter><parameter name="CSF">1</parameter><parameter name="MXY">0.297677516937256</parameter><parameter name="MNY">0.0364464297890663</parameter><parameter name="DAT">31/05/2022</parameter><parameter name="TIM">11:23:45.407 (GMT+2)</parameter><parameter name="DXU">WN</parameter></Data_Parameters_ScSm><Data_Parameters_ScRf><parameter name="DPF">1</parameter><parameter name="NPT">1820</parameter><parameter name="FXV">4004.04661832813</parameter><parameter name="LXV">495.683998511719</parameter><parameter name="CSF">1</parameter><parameter name="MXY">0.264932215213776</parameter><parameter name="MNY">0.0301289353519678</parameter><parameter name="DAT">31/05/2022</parameter><parameter name="TIM">11:23:19.555 (GMT+2)</parameter><parameter name="DXU">WN</parameter></Data_Parameters_ScRf><Optic_Parameters_Rf><parameter name="APR">0</parameter><parameter name="APT">Open</parameter><parameter name="BMS">KBr</parameter><parameter name="DTC">RT-DLaTGS_IR-Biotyper [Microplate reader]</parameter><parameter name="HPF">0</parameter><parameter name="LPF">10.0</parameter><parameter name="LPV">4000</parameter><parameter name="PGR">0</parameter><parameter name="RCH">Module port</parameter><parameter name="RDX">0</parameter><parameter name="SRC">MIR</parameter><parameter name="VEL">10.0</parameter><parameter name="SON">Off</parameter></Optic_Parameters_Rf><Acquisition_Parameters_Rf><parameter name="ADT">1</parameter><parameter name="AQM">DD</parameter><parameter name="CFE">0</parameter><parameter name="COR">0</parameter><parameter name="DEL">0</parameter><parameter name="DLY">0</parameter><parameter name="HFW">8000</parameter><parameter name="LFW">0</parameter><parameter name="NSR">32</parameter><parameter name="PLF">AB</parameter><parameter name="RES">6</parameter><parameter name="RGN">-1</parameter><parameter name="STR">0</parameter><parameter name="TCL">MakeCompatibleScalar (0, {WSV=1.000000, ARV=0});</parameter><parameter name="TDL">37</parameter><parameter name="RPO">0</parameter></Acquisition_Parameters_Rf><FT_-_Parameters_Rf><parameter name="APF">B3</parameter><parameter name="HFQ">500</parameter><parameter name="LFQ">4000</parameter><parameter name="NLI">0</parameter><parameter name="PHR">24</parameter><parameter name="PHZ">ML</parameter><parameter name="SPZ">NO</parameter><parameter name="ZFF">1</parameter></FT_-_Parameters_Rf><Optic_Parameters_><parameter name="APR">0</parameter><parameter name="APT">Open</parameter><parameter name="BMS">KBr</parameter><parameter name="CHN">Module port</parameter><parameter name="DTC">RT-DLaTGS_IR-Biotyper [Microplate reader]</parameter><parameter name="HPF">0</parameter><parameter name="LPF">10.0</parameter><parameter name="LPV">4000</parameter><parameter name="PGN">0</parameter><parameter name="RDX">0</parameter><parameter name="SRC">MIR</parameter><parameter name="VEL">10.0</parameter><parameter name="SON">Off</parameter></Optic_Parameters_><FT_-_Parameters_><parameter name="APF">B3</parameter><parameter name="HFQ">500</parameter><parameter name="LFQ">4000</parameter><parameter name="NLI">0</parameter><parameter name="PHR">24</parameter><parameter name="PHZ">ML</parameter><parameter name="SPZ">NO</parameter><parameter name="ZFF">1</parameter></FT_-_Parameters_><Acquisition_Parameters_><parameter name="ADT">1</parameter><parameter name="AQM">DD</parameter><parameter name="CFE">0</parameter><parameter name="COR">0</parameter><parameter name="DEL">0</parameter><parameter name="DLY">0</parameter><parameter name="HFW">8000</parameter><parameter name="LFW">0</parameter><parameter name="NSS">32</parameter><parameter name="PLF">AB</parameter><parameter name="RES">6</parameter><parameter name="SOT">0</parameter><parameter name="TCL">MakeCompatibleScalar (0, {WSV=1.000000, ARV=0});</parameter><parameter name="TDL">37</parameter><parameter name="SPO">0</parameter><parameter name="SGN">-1</parameter></Acquisition_Parameters_><Instrument_Parameters_Rf><parameter name="HFL">15800.168544</parameter><parameter name="LFL">0</parameter><parameter name="LWN">15800.168544</parameter><parameter name="ABP">32197</parameter><parameter name="SSP">1</parameter><parameter name="ARG">2</parameter><parameter name="ASG">2</parameter><parameter name="ASS">32</parameter><parameter name="GFW">16</parameter><parameter name="GBW">16</parameter><parameter name="BFW">0</parameter><parameter name="BBW">0</parameter><parameter name="PKA">7268</parameter><parameter name="PKL">4996</parameter><parameter name="PRA">7449</parameter><parameter name="PRL">5001</parameter><parameter name="P2A">1</parameter><parameter name="P2L">1</parameter><parameter name="P2R">1</parameter><parameter name="P2K">1</parameter><parameter name="DAQ">0</parameter><parameter name="AG2">1</parameter><parameter name="SSM">1</parameter><parameter name="RSN">25447</parameter><parameter name="CRR">0</parameter><parameter name="SRT">1653996199.555</parameter><parameter name="DUR">19.6369934082031</parameter><parameter name="TSC">28.9</parameter><parameter name="MVD">0.233489990234375</parameter><parameter name="AN1">0.225794574895986</parameter><parameter name="AN2">0</parameter><parameter name="VSN">2.485 Apr  4 2017</parameter><parameter name="SRN">0085</parameter><parameter name="CAM">0</parameter><parameter name="INS">IR-Biotyper</parameter><parameter name="FOC">69</parameter><parameter name="RDY">1</parameter><parameter name="ARS">32</parameter></Instrument_Parameters_Rf><Sample_Parameters_><parameter name="BLD"></parameter><parameter name="CNM">Admin</parameter><parameter name="CPY"></parameter><parameter name="DPM"></parameter><parameter name="EXP">IRBT_v3_32Scans.XPM</parameter><parameter name="LCT"></parameter><parameter name="SFM">Microplate, HTS-XT</parameter><parameter name="SNM">220531-1021(v.3)_FBG21M (D_1)_A7_1ee6b478-90dd-4085-95be-7e5af910e627.0</parameter><parameter name="XPP">C:\Users\Public\Documents\Bruker\OPUS_8.2.28\XPM</parameter><parameter name="IST">OK</parameter><parameter name="CPG">1252</parameter><parameter name="UID">92ecdd90-cc39-4c66-8a3d-2e4695e8f84a</parameter></Sample_Parameters_><Instrument_Parameters_><parameter name="HFL">15800.168544</parameter><parameter name="LFL">0</parameter><parameter name="LWN">15800.168544</parameter><parameter name="ABP">32197</parameter><parameter name="SSP">1</parameter><parameter name="ASG">2</parameter><parameter name="ARG">2</parameter><parameter name="ASS">32</parameter><parameter name="GFW">16</parameter><parameter name="GBW">16</parameter><parameter name="BFW">0</parameter><parameter name="BBW">0</parameter><parameter name="PKA">7786</parameter><parameter name="PKL">4988</parameter><parameter name="PRA">8026</parameter><parameter name="PRL">4993</parameter><parameter name="P2A">1</parameter><parameter name="P2L">1</parameter><parameter name="P2R">1</parameter><parameter name="P2K">1</parameter><parameter name="DAQ">0</parameter><parameter name="AG2">1</parameter><parameter name="SSM">1</parameter><parameter name="RSN">13349</parameter><parameter name="CRR">0</parameter><parameter name="SRT">1653996225.407</parameter><parameter name="DUR">19.6379852294922</parameter><parameter name="TSC">28.9</parameter><parameter name="MVD">0.215852022171021</parameter><parameter name="AN1">0.225782766327357</parameter><parameter name="AN2">0</parameter><parameter name="VSN">2.485 Apr  4 2017</parameter><parameter name="SRN">0085</parameter><parameter name="CAM">0</parameter><parameter name="INS">IR-Biotyper</parameter><parameter name="FOC">69</parameter><parameter name="RDY">1</parameter></Instrument_Parameters_><History/></OPUSDataFile>
