<?xml version="1.0" encoding="UTF-8" ?>
<OPUSDataFile><AB><Ydata ylabel="Absorbance Units"><values byteorder="INTEL" format="FLOAT32" numvalues="3497"> -0.06279207 -0.06286462 -0.06291393 -0.06294036 -0.06293682 -0.06290299 -0.06285564 -0.06279623 -0.06274768 -0.06271022
 -0.06269807 -0.06270796 -0.06273729 -0.06278041 -0.06282203 -0.06286088 -0.06288587 -0.06290434 -0.06291984 -0.06293993
 -0.06297378 -0.06301807 -0.06307513 -0.06313442 -0.06319208 -0.06324343 -0.0632858 -0.06332226 -0.06335278 -0.06338127
 -0.06340808 -0.06343602 -0.06346527 -0.06349697 -0.06353088 -0.06356403 -0.06359629 -0.06362441 -0.06365033 -0.06367885
 -0.06371247 -0.06376075 -0.06382163 -0.06389767 -0.06398167 -0.06406608 -0.06414685 -0.06421662 -0.06427983 -0.06433714
 -0.06439185 -0.0644481 -0.06449492 -0.06453156 -0.06454223 -0.06452238 -0.06447706 -0.06440467 -0.06433553 -0.06427124
 -0.06424142 -0.06424589 -0.06429028 -0.06437115 -0.06447132 -0.06458753 -0.06469906 -0.06480483 -0.06489198 -0.0649609
 -0.06500536 -0.06502961 -0.06503454 -0.06502858 -0.06501868 -0.06501026 -0.06500999 -0.06501286 -0.06501979 -0.06502018
 -0.0650108 -0.06498856 -0.06495056 -0.06491057 -0.06486826 -0.06485385 -0.06486902 -0.06494711 -0.06508794 -0.06530044
 -0.0655757 -0.06586797 -0.06616114 -0.0663666 -0.06648808 -0.06647969 -0.06637875 -0.06622579 -0.06605331 -0.06592026
 -0.06582639 -0.06579651 -0.06580289 -0.06583966 -0.06587429 -0.06588967 -0.06588221 -0.06584299 -0.06580191 -0.06576184
 -0.06575187 -0.06577686 -0.06583214 -0.06591782 -0.0660023 -0.06608479 -0.06614618 -0.06619024 -0.06623089 -0.06627186
 -0.0663371 -0.06642109 -0.0665257 -0.06663621 -0.06672709 -0.06679276 -0.06681111 -0.06679908 -0.06676245 -0.06671777
 -0.06667826 -0.06664371 -0.06661537 -0.06659763 -0.06658801 -0.06661109 -0.06666975 -0.06678927 -0.06697515 -0.06721177
 -0.06749924 -0.06773166 -0.06790392 -0.06790949 -0.06776648 -0.06753909 -0.06724727 -0.0670042 -0.06680547 -0.06669732
 -0.06666622 -0.06671388 -0.06681769 -0.06695534 -0.0670994 -0.06721715 -0.06730306 -0.06733796 -0.06735157 -0.06735046
 -0.06736031 -0.06739335 -0.0674398 -0.06750136 -0.06755563 -0.06759965 -0.06762908 -0.06764334 -0.0676536 -0.06766026
 -0.06767117 -0.06768566 -0.06770304 -0.06772287 -0.06774386 -0.06776473 -0.06778293 -0.06779435 -0.06778929 -0.06776911
 -0.06772829 -0.06767935 -0.06763004 -0.06759214 -0.0675758 -0.06758226 -0.06761532 -0.06766926 -0.06774352 -0.06783265
 -0.06793645 -0.06804601 -0.06816161 -0.06826097 -0.06834286 -0.06838188 -0.0683781 -0.06832927 -0.06823887 -0.0681282
 -0.06800102 -0.06788243 -0.06777522 -0.0676996 -0.06765514 -0.06765313 -0.06768376 -0.06774294 -0.06781245 -0.067875
 -0.06792127 -0.06793692 -0.06793504 -0.06791543 -0.06789903 -0.0678926 -0.06790274 -0.06793261 -0.06797677 -0.06803489
 -0.06810382 -0.06818335 -0.06827004 -0.0683632 -0.0684512 -0.06853313 -0.06859568 -0.06864079 -0.06866816 -0.06868199
 -0.068693 -0.06870364 -0.06872313 -0.06875187 -0.06879386 -0.068849 -0.06891791 -0.06900239 -0.06910289 -0.06922365
 -0.06936794 -0.06953222 -0.06972022 -0.06990682 -0.07009067 -0.07023531 -0.07033647 -0.07037316 -0.07034376 -0.07023635
 -0.07005153 -0.06979509 -0.06947506 -0.06914861 -0.06882516 -0.06857479 -0.06839588 -0.06832293 -0.06834229 -0.06845165
 -0.06862216 -0.06881893 -0.06901673 -0.06917702 -0.06930482 -0.06939114 -0.06945018 -0.06948765 -0.06950527 -0.06950524
 -0.06948345 -0.06943823 -0.06937524 -0.06929356 -0.06921413 -0.06913802 -0.06909075 -0.06907318 -0.06910212 -0.06917556
 -0.06929185 -0.06944127 -0.06958742 -0.06971506 -0.06975812 -0.0697271 -0.0695999 -0.06941988 -0.06923619 -0.06906974
 -0.06896423 -0.06889712 -0.06887154 -0.06884956 -0.06881252 -0.06875256 -0.06865795 -0.06856109 -0.06846619 -0.06839789
 -0.06836231 -0.06834034 -0.06833171 -0.06828967 -0.06821343 -0.06808634 -0.06791608 -0.06775219 -0.06759863 -0.0675021
 -0.06745161 -0.06744016 -0.06746043 -0.0674943 -0.06754305 -0.06760434 -0.06767079 -0.06774113 -0.06779033 -0.06780272
 -0.06776282 -0.06765544 -0.06749654 -0.0672875 -0.06704311 -0.06676769 -0.06645952 -0.06611821 -0.06574906 -0.06535204
 -0.06494489 -0.06452898 -0.06412919 -0.0637483 -0.06341915 -0.06314252 -0.06294326 -0.0628118 -0.06273845 -0.06270621
 -0.06267906 -0.0626469 -0.06258387 -0.06248155 -0.06232705 -0.06210603 -0.06179874 -0.0614252 -0.06097892 -0.0605218
 -0.06007242 -0.05966031 -0.05929817 -0.05896912 -0.05867375 -0.05838371 -0.05809695 -0.0578001 -0.05749375 -0.05719348
 -0.0569016 -0.05664682 -0.05642264 -0.05622424 -0.05602839 -0.05576581 -0.05542832 -0.0549501 -0.05438308 -0.05376472
 -0.05314777 -0.05260345 -0.05212557 -0.05173722 -0.05139864 -0.05110006 -0.05080431 -0.0504956 -0.05016916 -0.04981897
 -0.04946601 -0.04911339 -0.04876328 -0.04841691 -0.04804129 -0.04763488 -0.04716691 -0.04664142 -0.04607419 -0.04547323
 -0.04488256 -0.04430373 -0.04376441 -0.04326006 -0.04279601 -0.04236472 -0.04196016 -0.04157175 -0.04118728 -0.04080209
 -0.04040777 -0.0400109 -0.03961474 -0.03921506 -0.03881634 -0.03838784 -0.03792411 -0.03740384 -0.03681948 -0.0362069
 -0.0355672 -0.03496046 -0.03438817 -0.03386797 -0.03339626 -0.03295267 -0.03253441 -0.03211809 -0.03170544 -0.0312887
 -0.03087202 -0.03046099 -0.03005498 -0.02965884 -0.02926091 -0.02885439 -0.02842335 -0.02795294 -0.02744417 -0.02688915
 -0.02631195 -0.02571717 -0.02512713 -0.02454765 -0.02398656 -0.02344598 -0.02292446 -0.02242238 -0.02192779 -0.02143988
 -0.02094147 -0.02043277 -0.01990732 -0.01936723 -0.01881875 -0.01826277 -0.0177046 -0.01714472 -0.01658475 -0.0160294
 -0.01548507 -0.01495681 -0.01445377 -0.01397125 -0.01351154 -0.01306048 -0.01261246 -0.01215767 -0.01168996 -0.01121517
 -0.0107322 -0.01025572 -0.009788364 -0.00933056 -0.008883156 -0.008425952 -0.007958155 -0.007465289 -0.006949622 -0.006423646
 -0.005890349 -0.0053717 -0.004864503 -0.004372098 -0.003887464 -0.003397313 -0.002899984 -0.002385086 -0.001860944 -0.001329661
 -0.000804931 -0.0002969919 0.0001882821 0.0006423289 0.001078018 0.001495558 0.001915547 0.002343232 0.002784643 0.003242345
 0.003706117 0.004175463 0.004640661 0.005101361 0.005553623 0.005997282 0.006428904 0.006848677 0.00725481 0.007649207
 0.008035721 0.008417673 0.008803021 0.009194908 0.009602066 0.01002263 0.01046022 0.01090491 0.01135146 0.01179191
 0.01221887 0.01263915 0.01305295 0.01346894 0.01389155 0.01430844 0.01471939 0.01510504 0.01546308 0.01580169
 0.01612203 0.01645811 0.01681051 0.01720099 0.01762423 0.01806827 0.01852573 0.01896789 0.01939303 0.01978211
 0.02014194 0.02047343 0.02078465 0.02108531 0.02137533 0.02165801 0.02192997 0.02218769 0.02243992 0.02268631
 0.0229454 0.02322181 0.02352231 0.02384995 0.02419176 0.0245474 0.0248962 0.02523728 0.02555727 0.02585778
 0.02614563 0.02642589 0.02672677 0.02705029 0.02742136 0.0278291 0.02826707 0.02871555 0.02914342 0.02953989
 0.02987986 0.03017083 0.03040737 0.03060885 0.03078125 0.0309446 0.03110641 0.03127826 0.031465 0.03166436
 0.03187733 0.03209388 0.03231318 0.03253082 0.03274678 0.03296603 0.03318882 0.03341993 0.03365821 0.03390113
 0.03414628 0.03438517 0.03461619 0.0348313 0.03503201 0.03521543 0.03538835 0.03555532 0.03572481 0.03590471
 0.03609717 0.03630769 0.03652577 0.03675085 0.03696653 0.03716843 0.03735109 0.03751177 0.03766297 0.03780551
 0.03794888 0.03809299 0.03822182 0.03833358 0.03840207 0.03843127 0.03842374 0.03839092 0.03836991 0.0383668
 0.03841645 0.03850772 0.03864307 0.03880052 0.03895849 0.03910368 0.03921653 0.03930554 0.0393658 0.0394231
 0.03948447 0.03956931 0.03968658 0.03982424 0.0399849 0.04012759 0.04024934 0.04031675 0.04032887 0.04029365
 0.04021465 0.0401306 0.04004222 0.03997512 0.03992349 0.03988125 0.03984655 0.0398092 0.03977862 0.03976517
 0.03977371 0.0398194 0.03988312 0.03995975 0.04002163 0.04004984 0.04004559 0.03999906 0.03994648 0.03989329
 0.03987118 0.0398883 0.03993553 0.04001438 0.04008273 0.04013848 0.04014273 0.04009642 0.03999174 0.03983543
 0.03965509 0.03945989 0.03929366 0.03915916 0.03908716 0.03906625 0.03909685 0.03915649 0.03922331 0.03927886
 0.0393008 0.03928971 0.0392368 0.03916049 0.03906377 0.03896643 0.0388735 0.03879563 0.03873435 0.03870014
 0.03869329 0.03873557 0.038828 0.03898768 0.03921112 0.03947354 0.03976324 0.04000695 0.04019701 0.04026334
 0.04022251 0.04006715 0.03983788 0.03958984 0.0393576 0.03920427 0.03912424 0.03914293 0.03921214 0.03932035
 0.03940931 0.0394561 0.03943054 0.03931716 0.0391319 0.03887117 0.03858487 0.03827633 0.03799279 0.03773645
 0.03752353 0.03735252 0.03721333 0.03710452 0.03701318 0.03694047 0.03688388 0.036844 0.03682335 0.03681566
 0.03681709 0.03680959 0.0367761 0.03669421 0.03653987 0.03630999 0.03598926 0.03561064 0.03517649 0.0347382
 0.03430769 0.03391855 0.03357928 0.03329026 0.03305342 0.03284521 0.03266426 0.03247542 0.03227759 0.03204379
 0.03177927 0.031495 0.03120209 0.03094603 0.03072567 0.03056891 0.03044884 0.03033962 0.03021089 0.03001371
 0.02975358 0.02940884 0.02902669 0.02862071 0.02824315 0.02791776 0.02766121 0.02748776 0.02736433 0.0272925
 0.02720615 0.02710001 0.02691956 0.0266623 0.02633041 0.02592876 0.02551245 0.02508594 0.02470437 0.02436224
 0.0240724 0.023823 0.02359364 0.02337699 0.02315157 0.02291856 0.02267042 0.02241266 0.02214707 0.02187784
 0.02160782 0.0213383 0.0210705 0.02080395 0.02053926 0.02027304 0.02000556 0.01972839 0.01944088 0.01913528
 0.01881125 0.01847233 0.01811975 0.01776896 0.0174209 0.01708946 0.0167729 0.01647311 0.01618715 0.01590907
 0.01563766 0.01536863 0.01510136 0.01483467 0.01456515 0.01429085 0.01400617 0.01370722 0.01339268 0.01305973
 0.01271548 0.01235993 0.01200544 0.0116537 0.01131457 0.01098938 0.01067973 0.01038567 0.01009729 0.009813551
 0.009518337 0.009212086 0.00888757 0.008548749 0.008205285 0.00786039 0.007527772 0.007204296 0.006891957 0.006584569
 0.006274601 0.005962486 0.005643137 0.005328472 0.005020925 0.004738736 0.004489539 0.004282129 0.004124697 0.00399364
 0.003891175 0.003759266 0.003593341 0.003341734 0.003001685 0.00257737 0.002073881 0.001553664 0.001023673 0.0005577406
 0.0001531666 -0.0001544994 -0.0003846205 -0.0005586493 -0.0007063471 -0.0008859845 -0.001111744 -0.001431142 -0.001816852 -0.002271286
 -0.002741561 -0.003197911 -0.00361632 -0.003974639 -0.004297256 -0.004586246 -0.004863046 -0.005135989 -0.005378586 -0.005590398
 -0.005727964 -0.005788991 -0.005779062 -0.005703728 -0.005633694 -0.005576911 -0.005618791 -0.005755382 -0.006024867 -0.006404017
 -0.0068625 -0.007369635 -0.00786001 -0.00832311 -0.008714754 -0.009058261 -0.009354825 -0.009634996 -0.009920528 -0.01021021
 -0.0105126 -0.01080203 -0.01107111 -0.01131624 -0.01153256 -0.01174806 -0.0119656 -0.01219731 -0.01244399 -0.01267559
 -0.01289051 -0.0130574 -0.01318093 -0.01327224 -0.01333858 -0.01341411 -0.01349647 -0.01359846 -0.01371126 -0.01382322
 -0.01393581 -0.01404129 -0.01415791 -0.01429458 -0.01447433 -0.01471328 -0.01501945 -0.01540471 -0.01584649 -0.01634766
 -0.01685435 -0.01736078 -0.01780987 -0.01819392 -0.01849822 -0.01872149 -0.01890874 -0.019064 -0.01925378 -0.0194769
 -0.01976343 -0.02010191 -0.02046859 -0.02085093 -0.021205 -0.02153046 -0.02180382 -0.02203834 -0.02223831 -0.02242088
 -0.02260127 -0.02278934 -0.02299674 -0.02321862 -0.02345889 -0.02369762 -0.02393129 -0.02414097 -0.02432028 -0.02447944
 -0.02461655 -0.02477468 -0.02495617 -0.02519409 -0.02548648 -0.02581353 -0.02616884 -0.02649992 -0.0268097 -0.02707667
 -0.02731731 -0.027562 -0.02782005 -0.02812739 -0.02846745 -0.02883884 -0.02921392 -0.02956783 -0.02989032 -0.03016631
 -0.03040425 -0.0306049 -0.03077243 -0.03090926 -0.03101036 -0.03107382 -0.03110606 -0.03110577 -0.03110269 -0.03109836
 -0.03113249 -0.03120633 -0.03134654 -0.03155017 -0.03181526 -0.03213289 -0.03247153 -0.03281965 -0.03313307 -0.03340664
 -0.03360898 -0.03374829 -0.03381891 -0.03383905 -0.03382056 -0.03377981 -0.03372991 -0.03367638 -0.03362518 -0.03357295
 -0.03351985 -0.03346279 -0.0334012 -0.03333436 -0.03326289 -0.03317708 -0.03307655 -0.03293534 -0.03275215 -0.03250127
 -0.03218546 -0.03180693 -0.03137454 -0.03092198 -0.03045685 -0.03001633 -0.02959927 -0.02922174 -0.02887638 -0.02856098
 -0.02826842 -0.02799342 -0.0277274 -0.02746702 -0.02719632 -0.02690944 -0.02659163 -0.02623474 -0.02584803 -0.02542776
 -0.02501409 -0.02460975 -0.02425793 -0.02396159 -0.02373083 -0.02356418 -0.02343809 -0.02335122 -0.02328202 -0.02323412
 -0.02321137 -0.02321499 -0.02325505 -0.02331842 -0.0233907 -0.02345092 -0.02346556 -0.0234299 -0.02332306 -0.02316618
 -0.02296411 -0.02273965 -0.02250669 -0.0222615 -0.02200914 -0.02172461 -0.02140449 -0.02102973 -0.02059686 -0.02010786
 -0.01956238 -0.01898195 -0.01836837 -0.01775363 -0.01713816 -0.01654371 -0.01596333 -0.01538475 -0.01479488 -0.01415173
 -0.0134537 -0.0126673 -0.01182809 -0.01094663 -0.0101117 -0.009380641 -0.008881596 -0.008696945 -0.008928671 -0.009651897
 -0.01084649 -0.01254899 -0.01457722 -0.01692294 -0.0193211 -0.02174474 -0.02398757 -0.02603417 -0.0278177 -0.02934048
 -0.03064166 -0.03172829 -0.03266447 -0.03345434 -0.03414479 -0.03474249 -0.03528531 -0.03578411 -0.03627619 -0.03676465
 -0.03727217 -0.03778479 -0.03830053 -0.0387996 -0.03926828 -0.03970045 -0.04008882 -0.04043999 -0.04075524 -0.04103574
 -0.04128307 -0.04148853 -0.04165139 -0.04176448 -0.04182718 -0.04184094 -0.04180671 -0.04173936 -0.04164318 -0.04155347
 -0.04147637 -0.04145725 -0.04149438 -0.04161078 -0.04179072 -0.04201929 -0.04227641 -0.04253067 -0.04277141 -0.0429787
 -0.04314983 -0.04327919 -0.04336251 -0.04339904 -0.0433774 -0.04329753 -0.04313522 -0.04288857 -0.04252225 -0.04202998
 -0.0414087 -0.04065559 -0.0398773 -0.03908648 -0.03851688 -0.03818388 -0.03832255 -0.03891008 -0.04000222 -0.0415207
 -0.04330076 -0.04525468 -0.04714272 -0.04893545 -0.05048695 -0.05183954 -0.052975 -0.05395714 -0.05482169 -0.05560217
 -0.05632325 -0.0569876 -0.0576002 -0.05815969 -0.05866545 -0.05912342 -0.05953361 -0.05990663 -0.060243 -0.06055738
 -0.06085061 -0.06113823 -0.06142033 -0.06170565 -0.0619924 -0.06227884 -0.06256159 -0.06283112 -0.0630844 -0.06331013
 -0.06351091 -0.06368241 -0.06383701 -0.06398237 -0.06413333 -0.06430297 -0.06449245 -0.06470909 -0.06493469 -0.06516749
 -0.06538339 -0.06557707 -0.06573706 -0.06586 -0.06595628 -0.066026 -0.06609317 -0.06615868 -0.06623888 -0.06633225
 -0.06643501 -0.06654579 -0.06665479 -0.06676657 -0.06688752 -0.06702419 -0.06719471 -0.06739435 -0.06762858 -0.0678792
 -0.06813291 -0.06837361 -0.06858598 -0.06876811 -0.06891424 -0.06903175 -0.06912054 -0.06919199 -0.06924651 -0.06930354
 -0.06936482 -0.0694506 -0.06956273 -0.06970239 -0.06986873 -0.07004081 -0.07021724 -0.07037713 -0.07052186 -0.07064619
 -0.07075229 -0.0708435 -0.07092088 -0.07098652 -0.07104462 -0.07109986 -0.0711602 -0.07123591 -0.07132717 -0.07144122
 -0.07156098 -0.07168262 -0.07178611 -0.07186177 -0.07191388 -0.07193822 -0.07196547 -0.07199857 -0.07206266 -0.07216035
 -0.07228364 -0.07243127 -0.07257368 -0.07271037 -0.07282299 -0.07291503 -0.07299156 -0.07305638 -0.0731234 -0.07319202
 -0.07326867 -0.07334863 -0.07342872 -0.07350405 -0.07356817 -0.07362133 -0.07365965 -0.07369225 -0.07372028 -0.07375836
 -0.0738109 -0.07388786 -0.0739933 -0.07412301 -0.07427821 -0.07444137 -0.07461149 -0.0747695 -0.07491488 -0.07504083
 -0.07514881 -0.07524701 -0.07533722 -0.07543221 -0.07553141 -0.07564063 -0.07575646 -0.07587542 -0.07599401 -0.07610574
 -0.07620978 -0.07630233 -0.07638635 -0.076462 -0.07653426 -0.07660542 -0.07667842 -0.07675494 -0.07683453 -0.07691732
 -0.07700285 -0.07709088 -0.07718334 -0.07728036 -0.07738402 -0.07749423 -0.07760787 -0.07772393 -0.07783265 -0.07793304
 -0.07801461 -0.07807908 -0.07812449 -0.07815626 -0.07818341 -0.0782114 -0.07825207 -0.07830617 -0.0783795 -0.07846821
 -0.07857186 -0.07868586 -0.07880802 -0.07893581 -0.0790685 -0.07920265 -0.07933819 -0.07946807 -0.07959168 -0.07970139
 -0.07979635 -0.07987802 -0.07994694 -0.08001767 -0.08009116 -0.08018287 -0.08029067 -0.08041433 -0.0805489 -0.08067951
 -0.08080425 -0.08091097 -0.08100384 -0.08108318 -0.08115415 -0.08122265 -0.08128898 -0.08135559 -0.08141967 -0.08148007
 -0.08153665 -0.08158837 -0.08163933 -0.08168996 -0.0817448 -0.08180469 -0.08187015 -0.08194137 -0.08201641 -0.08209521
 -0.08217731 -0.08226278 -0.08235253 -0.08244599 -0.08254131 -0.08263732 -0.08272931 -0.08281743 -0.08289918 -0.08297644
 -0.08305069 -0.08312353 -0.08319744 -0.08327191 -0.08334756 -0.08342284 -0.08349735 -0.08356926 -0.08363785 -0.08370234
 -0.08376203 -0.08381932 -0.08387417 -0.08393141 -0.08399139 -0.08405765 -0.08413024 -0.08420822 -0.08429108 -0.08437415
 -0.08445682 -0.08453339 -0.08460421 -0.08466673 -0.08472285 -0.08477484 -0.08482509 -0.08487821 -0.08493454 -0.08499638
 -0.08506234 -0.08513218 -0.08520471 -0.08527942 -0.08535511 -0.08543202 -0.08550593 -0.08557653 -0.08563761 -0.08568804
 -0.08572629 -0.08575187 -0.08577145 -0.08578547 -0.08580375 -0.08582631 -0.08585787 -0.08589742 -0.08594281 -0.08599317
 -0.08604465 -0.08609737 -0.08614992 -0.08620229 -0.08625419 -0.08630471 -0.08635254 -0.08639791 -0.08643981 -0.08648133
 -0.08652313 -0.08656953 -0.08662236 -0.08668257 -0.08675142 -0.08682408 -0.08690055 -0.08697237 -0.08703885 -0.08709443
 -0.08713901 -0.08717526 -0.08720392 -0.08723316 -0.08726317 -0.08729962 -0.08734111 -0.08738653 -0.08743443 -0.08748088
 -0.08752643 -0.08757005 -0.08761299 -0.08765677 -0.08770015 -0.0877436 -0.08778296 -0.08781603 -0.08784138 -0.08785674
 -0.08786838 -0.08787643 -0.087891 -0.08791376 -0.08794852 -0.08799607 -0.08805025 -0.08811069 -0.08816805 -0.08822231
 -0.08826955 -0.08831071 -0.08834821 -0.08838294 -0.08841892 -0.08845627 -0.08849719 -0.08854117 -0.08858855 -0.08863838
 -0.0886902 -0.08874211 -0.08879291 -0.08884055 -0.08888322 -0.08892198 -0.08895598 -0.08899026 -0.08902558 -0.08906683
 -0.08911524 -0.08916947 -0.0892298 -0.08928829 -0.08934453 -0.08939151 -0.08942969 -0.08946054 -0.08948565 -0.08951393
 -0.08954584 -0.08958837 -0.08963875 -0.08969508 -0.0897533 -0.08980613 -0.08985265 -0.08988819 -0.08991646 -0.08993819
 -0.08995805 -0.08997863 -0.09000217 -0.09003022 -0.09006239 -0.09009908 -0.09013841 -0.09018023 -0.09022261 -0.09026541
 -0.09030696 -0.09034718 -0.09038444 -0.09041866 -0.09044821 -0.09047329 -0.09049369 -0.09051047 -0.09052673 -0.09054383
 -0.09056634 -0.09059455 -0.09063164 -0.09067494 -0.09072379 -0.09077299 -0.09081872 -0.09085735 -0.0908849 -0.09090482
 -0.09091612 -0.09092832 -0.0909434 -0.09096772 -0.09100323 -0.09104635 -0.09109721 -0.09114689 -0.09119496 -0.09123507
 -0.09126744 -0.09129161 -0.09130839 -0.09132126 -0.09133124 -0.09134337 -0.09135809 -0.0913794 -0.09140588 -0.09143782
 -0.09147197 -0.09150517 -0.09153501 -0.091558 -0.09157589 -0.09158773 -0.09159906 -0.09161157 -0.09162899 -0.09165302
 -0.09168199 -0.09171624 -0.09175113 -0.09178629 -0.09181867 -0.09184811 -0.09187395 -0.09189622 -0.0919149 -0.09193034
 -0.09194408 -0.09195706 -0.09197336 -0.09199323 -0.0920198 -0.09205104 -0.09208597 -0.09212083 -0.09215093 -0.09217492
 -0.09218938 -0.0921976 -0.09219968 -0.09220108 -0.09220388 -0.09221052 -0.09222235 -0.09223788 -0.09225723 -0.09227791
 -0.0922998 -0.09232008 -0.09233857 -0.09235062 -0.09235623 -0.09235319 -0.09234305 -0.09233207 -0.09232333 -0.09232999
 -0.09235439 -0.09240833 -0.09249191 -0.09261075 -0.0927629 -0.09294894 -0.09316507 -0.09340873 -0.09367714 -0.09396655
 -0.09428238 -0.09462351 -0.09500472 -0.09542898 -0.09590832 -0.09644733 -0.09703275 -0.09766565 -0.09830356 -0.09894405
 -0.09953257 -0.1000664 -0.1004985 -0.1008265 -0.1010129 -0.1010572 -0.1009328 -0.1006502 -0.1002085 -0.09964436
 -0.09900561 -0.09834346 -0.09773254 -0.09719735 -0.09678234 -0.09648307 -0.09630954 -0.09624834 -0.09630078 -0.09643915
 -0.09666496 -0.09691355 -0.09717879 -0.09738638 -0.09752634 -0.09759824 -0.09760204 -0.09758794 -0.09755572 -0.09751839
 -0.09747146 -0.09739449 -0.09728917 -0.09714823 -0.09698103 -0.09680563 -0.09662753 -0.09646674 -0.09631466 -0.0961714
 -0.09602268 -0.09585504 -0.09566889 -0.09545647 -0.09523823 -0.09501886 -0.09481726 -0.09464043 -0.09448902 -0.09436505
 -0.09425871 -0.09416948 -0.09408767 -0.09401273 -0.09393554 -0.0938557 -0.09376507 -0.09366437 -0.09355245 -0.0934321
 -0.09331169 -0.09319444 -0.0930923 -0.09300549 -0.09294101 -0.09289379 -0.09286208 -0.09283804 -0.09281504 -0.09278873
 -0.09275419 -0.09271354 -0.09266597 -0.0926162 -0.0925651 -0.09251655 -0.09247115 -0.09243191 -0.09239922 -0.09237457
 -0.09235808 -0.09234839 -0.09234532 -0.09234605 -0.09235044 -0.09235644 -0.09236375 -0.09237047 -0.09237597 -0.09237757
 -0.09237553 -0.09236858 -0.09235846 -0.09234643 -0.09233434 -0.09232422 -0.09231634 -0.09231171 -0.09230885 -0.0923078
 -0.09230565 -0.09230183 -0.09229361 -0.09228031 -0.09226174 -0.09223764 -0.0922113 -0.09218292 -0.09215738 -0.09213483
 -0.09211846 -0.09210782 -0.09210228 -0.09210069 -0.09209871 -0.0920955 -0.09208664 -0.09207266 -0.09205206 -0.09202657
 -0.09199744 -0.0919662 -0.09193446 -0.09190304 -0.0918728 -0.09184402 -0.09181682 -0.09179185 -0.0917692 -0.09174988
 -0.09173427 -0.09172177 -0.09171258 -0.09170298 -0.09169278 -0.09167945 -0.09166333 -0.09164821 -0.09163468 -0.09162899
 -0.09162993 -0.09163708 -0.09164783 -0.09165558 -0.09165926 -0.09165369 -0.09164032 -0.09161855 -0.09159075 -0.09155813
 -0.09152377 -0.09148924 -0.09145796 -0.09143166 -0.09141148 -0.09139827 -0.09139064 -0.0913885 -0.09139081 -0.09139755
 -0.09140696 -0.09141893 -0.09142743 -0.09143212 -0.09142647 -0.0914114 -0.09138863 -0.09136051 -0.09133663 -0.09131807
 -0.09131303 -0.09131915 -0.09133684 -0.09136199 -0.09139013 -0.09141818 -0.09144219 -0.09146091 -0.09147271 -0.09147707
 -0.0914735 -0.09146172 -0.0914412 -0.09141396 -0.09137968 -0.0913443 -0.09130818 -0.09127866 -0.09125623 -0.09124388
 -0.09124125 -0.09124387 -0.09125085 -0.09125411 -0.09125385 -0.09124608 -0.09123269 -0.09121631 -0.09119871 -0.09118463
 -0.09117343 -0.09116634 -0.09116197 -0.09115907 -0.09115849 -0.09116002 -0.09116583 -0.0911773 -0.09119309 -0.09121401
 -0.09123374 -0.09125148 -0.09126168 -0.09126338 -0.09125734 -0.09124351 -0.09122778 -0.09121041 -0.09119625 -0.09118515
 -0.09117861 -0.09117652 -0.0911794 -0.09118705 -0.09120006 -0.09121612 -0.0912322 -0.09124471 -0.09124732 -0.09124081
 -0.09122186 -0.09119835 -0.09117322 -0.09115428 -0.09114639 -0.09114825 -0.09116162 -0.09117778 -0.09119574 -0.09120748
 -0.0912119 -0.09120652 -0.0911911 -0.0911691 -0.09114105 -0.09111558 -0.0910932 -0.09108209 -0.09108107 -0.09109069
 -0.09110815 -0.09112647 -0.09114444 -0.09115613 -0.09116349 -0.0911665 -0.09116727 -0.09116832 -0.0911683 -0.09116744
 -0.09116319 -0.09115413 -0.09114081 -0.09112268 -0.09110274 -0.09108146 -0.09106041 -0.09103978 -0.09102076 -0.0910034
 -0.09099217 -0.09098724 -0.09099289 -0.0910081 -0.09102885 -0.09105291 -0.09106892 -0.09107681 -0.09106945 -0.09105109
 -0.09102542 -0.09099712 -0.09097441 -0.09095649 -0.0909465 -0.09093916 -0.09093192 -0.09092248 -0.09090833 -0.0908932
 -0.09087739 -0.09086537 -0.09085833 -0.09085611 -0.090859 -0.0908639 -0.09087063 -0.0908758 -0.09087916 -0.09087645
 -0.09086759 -0.09084945 -0.09082337 -0.09079228 -0.09075876 -0.09073132 -0.09071031 -0.09070143 -0.09070071 -0.0907061
 -0.09071269 -0.09071485 -0.09071246 -0.0907028 -0.09069094 -0.09067833 -0.09066862 -0.09066409 -0.09066107 -0.0906597
 -0.09065343 -0.09064116 -0.09062327 -0.09059958 -0.09057812 -0.09055914 -0.09054772 -0.09054282 -0.09053981 -0.09053735
 -0.09052718 -0.09051002 -0.09048287 -0.09044856 -0.09041045 -0.09037147 -0.09033681 -0.09030749 -0.09028637 -0.09027254
 -0.09026646 -0.09026628 -0.09027153 -0.09028018 -0.090292 -0.09030367 -0.09031487 -0.09032115 -0.09032189 -0.09031488
 -0.09029988 -0.09027868 -0.09025151 -0.09022269 -0.09019257 -0.09016576 -0.09014213 -0.09012428 -0.09011067 -0.09009914
 -0.09008724 -0.0900691 -0.09004461 -0.09001027 -0.08996972 -0.0899245 -0.08987878 -0.08983559 -0.08979684 -0.08976412
 -0.08973749 -0.08971772 -0.08970217 -0.08969107 -0.08967817 -0.08966293 -0.08963949 -0.08960733 -0.08956734 -0.08951988
 -0.08947188 -0.08942384 -0.08938276 -0.08934804 -0.08932149 -0.08930113 -0.08928282 -0.08926469 -0.08924083 -0.08921224
 -0.08917708 -0.08913882 -0.08910023 -0.08906253 -0.08902834 -0.08899388 -0.08895852 -0.08891798 -0.08887021 -0.08881666
 -0.08875663 -0.08869636 -0.0886365 -0.08858141 -0.08853148 -0.08848511 -0.08844209 -0.0883985 -0.08835448 -0.08830922
 -0.08826331 -0.08821895 -0.08817615 -0.08813583 -0.08809828 -0.08806403 -0.08803451 -0.08801241 -0.08799666 -0.08798926
 -0.08798227 -0.08797236 -0.08795054 -0.08791047 -0.08785489 -0.08778144 -0.08770377 -0.08762401 -0.08755209 -0.08748992
 -0.0874372 -0.0873941 -0.08735616 -0.08732324 -0.08729294 -0.08726536 -0.08724035 -0.08721788 -0.08719783 -0.08717977
 -0.08716293 -0.08714598 -0.08712686 -0.08710258 -0.08706876 -0.08702254 -0.08695844 -0.08687995 -0.08678533 -0.08668646
 -0.0865875 -0.08649841 -0.08642434 -0.08636291 -0.08631559 -0.08627139 -0.08622915 -0.08618132 -0.08612715 -0.08606859
 -0.08600591 -0.08594496 -0.08588585 -0.08583233 -0.08578398 -0.0857412 -0.08570324 -0.08566853 -0.08563602 -0.08560336
 -0.0855689 -0.08552977 -0.08548427 -0.0854295 -0.08536586 -0.08529181 -0.08521145 -0.08512555 -0.08503967 -0.08495566
 -0.0848764 -0.08480296 -0.08473531 -0.0846737 -0.08461631 -0.08456306 -0.08451062 -0.08445891 -0.08440662 -0.08435428
 -0.08430563 -0.08426092 -0.08422431 -0.08419328 -0.08416414 -0.08413191 -0.08408447 -0.0840214 -0.08393454 -0.08383285
 -0.08372065 -0.08360845 -0.08350538 -0.08341264 -0.08333453 -0.08326303 -0.08319701 -0.08312828 -0.08305433 -0.08297524
 -0.08289015 -0.08280624 -0.08272396 -0.08264989 -0.08258417 -0.08252861 -0.08248241 -0.08244071 -0.08240158 -0.08235371
 -0.08229659 -0.08222124 -0.08213232 -0.08203414 -0.0819317 -0.08183477 -0.08174217 -0.08165629 -0.08157489 -0.0814963
 -0.08142216 -0.08135317 -0.08128934 -0.08123239 -0.08117393 -0.08111348 -0.08103889 -0.08094817 -0.08083797 -0.08070757
 -0.08056529 -0.08041173 -0.08025957 -0.08010922 -0.07996988 -0.07984094 -0.07972471 -0.07961997 -0.07952476 -0.07943784
 -0.07935683 -0.07927871 -0.07919916 -0.07911381 -0.07901579 -0.07890686 -0.07878382 -0.07865746 -0.07853196 -0.07841408
 -0.07830863 -0.0782088 -0.07811486 -0.07801513 -0.07790755 -0.07779081 -0.07766435 -0.0775373 -0.07741001 -0.07728921
 -0.07717402 -0.07706037 -0.07694647 -0.0768211 -0.07668494 -0.07653327 -0.07636973 -0.07619993 -0.07602477 -0.07584849
 -0.0756688 -0.07548402 -0.0752954 -0.07510164 -0.07490974 -0.07472243 -0.07454477 -0.07437976 -0.07422542 -0.07408277
 -0.07394379 -0.07380857 -0.0736611 -0.0735003 -0.07331083 -0.07309252 -0.07285031 -0.07258595 -0.07231721 -0.07204401
 -0.07177542 -0.07150992 -0.07124773 -0.07098778 -0.0707285 -0.07046817 -0.07020354 -0.06993418 -0.06965759 -0.06937707
 -0.06909525 -0.06881031 -0.06852552 -0.06822448 -0.06790294 -0.06754833 -0.06715349 -0.06673764 -0.06630097 -0.06587368
 -0.06545859 -0.06506275 -0.06468617 -0.06432167 -0.06396888 -0.063623 -0.06328256 -0.06293986 -0.06259048 -0.06221712
 -0.06181742 -0.06137491 -0.06089881 -0.06039268 -0.05987179 -0.05935366 -0.05884332 -0.05835013 -0.0578717 -0.05740872
 -0.05696014 -0.05652642 -0.05610416 -0.05569631 -0.05527795 -0.05484995 -0.05435563 -0.05379018 -0.05312188 -0.05235175
 -0.05155082 -0.0507238 -0.0499482 -0.04921282 -0.04850419 -0.04781058 -0.04708733 -0.04633613 -0.04553873 -0.04470183
 -0.04383219 -0.04292071 -0.04196951 -0.0409431 -0.03981983 -0.03856974 -0.03715791 -0.03563406 -0.03399178 -0.03234718
 -0.03072601 -0.02918928 -0.0277533 -0.02640118 -0.02513435 -0.02390394 -0.02270656 -0.02146613 -0.02017599 -0.01873295
 -0.01715002 -0.01541685 -0.01358811 -0.01183837 -0.01017528 -0.008716259 -0.007399444 -0.006181818 -0.00502266 -0.003858166
 -0.002692657 -0.001508757 -0.0003226992 0.0008603517 0.002035247 0.003203673 0.00434153 0.005446116 0.006485967 0.007453051
 0.008361699 0.009211753 0.0100335 0.01082744 0.011576 0.0122762 0.01288913 0.0134191 0.01386541 0.0142377
 0.01456669 0.01485504 0.01512525 0.01537016 0.01558612 0.0157748 0.01593239 0.01607436 0.01621139 0.01634995
 0.01650044 0.01664583 0.01678533 0.01689291 0.01696252 0.0169794 0.01693962 0.01684524 0.01669504 0.01651481
 0.01630602 0.01610239 0.01590295 0.0157112 0.01552376 0.01532358 0.0151129 0.01488611 0.01465576 0.01444309
 0.0142641 0.01415372 0.01411361 0.01415897 0.0142845 0.0144867 0.01477611 0.01515773 0.01563605 0.01622128
 0.01687684 0.01759778 0.01834846 0.0191197 0.01992417 0.02076151 0.02165838 0.02261573 0.02363539 0.02471614
 0.02584598 0.02702479 0.02824673 0.02951092 0.03081155 0.03214767 0.03351273 0.03491096 0.03634565 0.03782076
 0.03934345 0.04090976 0.04251923 0.04416759 0.04585098 0.04757357 0.04933478 0.05114412 0.05300478 0.05491693
 0.05688485 0.05887379 0.06088335 0.06284545 0.06475655 0.06655885 0.06825025 0.06979381 0.07118148 0.07235177
 0.07329807 0.07395644 0.07434972 0.07449009 0.07441501 0.07418457 0.07382619 0.07338836 0.0728903 0.07236573
 0.07180335 0.07122594 0.07054126 0.06974702 0.06865945 0.06722334 0.06539307 0.06311321 0.06076311 0.05837185
 0.05619789 0.05425074 0.05239735 0.05063078 0.04882991 0.0470083 0.04517843 0.04335055 0.04157846 0.03983064
 0.03808958 0.0362603 0.03418682 0.03181787 0.02896738 0.02585801 0.02257844 0.01935459 0.01637484 0.01354889
 0.01088637 0.008285738 0.005704734 0.003207022 0.0007916165 -0.001441607 -0.00347963 -0.005336005 -0.007011911 -0.008599589
 -0.01010176 -0.01158141 -0.013031 -0.01444445 -0.0158108 -0.01708835 -0.01827761 -0.01935487 -0.02033651 -0.02123454
 -0.02207028 -0.02286851 -0.02364993 -0.02443294 -0.02524381 -0.02610248 -0.02701595 -0.02801067 -0.02899168 -0.02994952
 -0.03076348 -0.03140059 -0.03190934 -0.03228776 -0.03264172 -0.03297612 -0.03332238 -0.03367635 -0.03399913 -0.0342889
 -0.03451204 -0.03467941 -0.03481213 -0.03491466 -0.03501461 -0.03509266 -0.03513355 -0.0351132 -0.03499283 -0.03478075
 -0.03446544 -0.03407718 -0.03362915 -0.03313984 -0.03262052 -0.03207088 -0.03149585 -0.03087486 -0.03020875 -0.02945316
 -0.02860339 -0.02763673 -0.02655261 -0.0254377 -0.02430049 -0.02327218 -0.02234815 -0.02156971 -0.02092606 -0.02040126
 -0.01999213 -0.01968836 -0.01947917 -0.01935317 -0.01927422 -0.01920871 -0.0191005 -0.0188913 -0.01856774 -0.01808642
 -0.01753489 -0.01693422 -0.01635229 -0.01581925 -0.01531004 -0.01482739 -0.01432501 -0.01379792 -0.01323039 -0.01262155
 -0.01198939 -0.01133489 -0.01067688 -0.01001211 -0.009333377 -0.008633912 -0.007885123 -0.007086725 -0.00621915 -0.005297375
 -0.004337863 -0.003348909 -0.002353445 -0.001330923 -0.0002744426 0.0008377343 0.002024809 0.003275406 0.00459365 0.005948775
 0.007331291 0.008737061 0.01016101 0.01163177 0.0131531 0.01472548 0.0163488 0.01793465 0.0194761 0.02085966
 0.02208801 0.02312048 0.02396168 0.02461196 0.02505981 0.02528145 0.02525924 0.02494938 0.02435619 0.02345842
 0.02229366 0.02087785 0.01925984 0.01746982 0.01553537 0.01347291 0.011293 0.008992233 0.006623617 0.004184917
 0.001797318 -0.000527981 -0.002704249 -0.004726367 -0.006619843 -0.008388924 -0.010099 -0.01174587 -0.01333991 -0.01486857
 -0.01628879 -0.01760202 -0.01878442 -0.01985738 -0.02084339 -0.02176403 -0.02265319 -0.02351997 -0.02438334 -0.02524134
 -0.02609951 -0.02694733 -0.027784 -0.02859305 -0.0293702 -0.03010513 -0.03079402 -0.03144445 -0.03205639 -0.03264355
 -0.0332067 -0.0337393 -0.03423936 -0.03467758 -0.03505372 -0.03534945 -0.03557075 -0.03572936 -0.03583017 -0.03589178
 -0.03591289 -0.03589963 -0.03584936 -0.03575949 -0.03563391 -0.03547134 -0.03528676 -0.03508438 -0.03488791 -0.0347052
 -0.03455918 -0.03445712 -0.0344112 -0.03442523 -0.03449884 -0.03463309 -0.03481647 -0.03504842 -0.03531179 -0.03560575
 -0.03591617 -0.0362419 -0.0365703 -0.03689774 -0.03720512 -0.03748804 -0.03772489 -0.03791756 -0.03805729 -0.03815366
 -0.03821383 -0.03824689 -0.03826325 -0.03826487 -0.03825589 -0.03823478 -0.03820114 -0.03815647 -0.03809985 -0.03803935
 -0.03797545 -0.03791927 -0.03787192 -0.03784121 -0.03782766 -0.03783403 -0.03786023 -0.03790578 -0.03796978 -0.03804747
 -0.03813614 -0.0382232 -0.03830698 -0.03837534 -0.03843259 -0.03847913 -0.03852315 -0.03857512 -0.03863817 -0.03871998
 -0.03881517 -0.03892408 -0.0390373 -0.0391522 -0.03925895 -0.03935491 -0.03943227 -0.03948872 -0.03952483 -0.0395398
 -0.03954358 -0.0395367 -0.03952934 -0.03952147 -0.03951453 -0.03950732 -0.03949314 -0.03947105 -0.0394336 -0.03938171
 -0.03931342 -0.03923125 -0.03913869 -0.03903717 -0.03893074 -0.03881694 -0.03869575 -0.03856288 -0.03841564 -0.03825236
 -0.03807092 -0.03787469 -0.03766281 -0.03744532 -0.03722277 -0.03700989 -0.03680819 -0.03662904 -0.03647327 -0.03634169
 -0.03623384 -0.03614292 -0.03606841 -0.0360039 -0.03594909 -0.03589996 -0.03585543 -0.03581075 -0.0357654 -0.0357152
 -0.03566357 -0.03561138 -0.03556629 -0.03553482 -0.03552223 -0.03553468 -0.03556906 -0.03562654 -0.03569941 -0.03578573
 -0.03588105 -0.03598406 -0.03609449 -0.03621228 -0.03633652 -0.0364672 -0.03660022 -0.03673525 -0.03686632 -0.03699325
 -0.03711154 -0.03722199 -0.03732508 -0.03742197 -0.03751683 -0.03760781 -0.0376947 -0.03777263 -0.0378349 -0.03788049
 -0.03790439 -0.03791336 -0.0379096 -0.03789955 -0.03788736 -0.03787163 -0.03785274 -0.03782865 -0.03779806 -0.03776736
 -0.03773685 -0.03771504 -0.03770257 -0.03769702 -0.03769762 -0.03769081 -0.03767616 -0.03764346 -0.03759478 -0.03753262
 -0.03745948 -0.03738408 -0.03730479 -0.03722407 -0.03713622 -0.03703592 -0.03691706 -0.03677314 -0.0365993 -0.03639086
 -0.03614588 -0.03586104 -0.03554263 -0.0351905 -0.03481636 -0.03442286 -0.03401325 -0.03358901 -0.03314045 -0.03266707
 -0.03216125 -0.0316233 -0.03105843 -0.03046806 -0.02986416 -0.02924772 -0.02862877 -0.02800793 -0.02739223 -0.02678072
 -0.02617609 -0.02557398 -0.02497081 -0.02436122 -0.02373859 -0.02310261 -0.02244881 -0.02178714 -0.02111773 -0.02046054
 -0.01982026 -0.01921435 -0.01864821 -0.01812051 -0.01763304 -0.0171666 -0.0167202 -0.0162728 -0.01582354 -0.0153574
 -0.014874 -0.01436266 -0.01382432 -0.01325613 -0.01266102 -0.01204554 -0.01141086 -0.01076281 -0.01009933 -0.009419194
 -0.008723397 -0.008010742 -0.007287611 -0.00655657 -0.005825178 -0.005095295 -0.004378966 -0.003676898 -0.003012518 -0.002389114
 -0.001830233 -0.00134024 -0.0009180627 -0.0005644684 -0.0002490872 2.98997E-05 0.0003073835 0.0005823189 0.0008651006 0.001150783
 0.001423604 0.001682646 0.001914447 0.002127876 0.002333047 0.002536821 0.00275586 0.002981528 0.00321286 0.003438855
 0.00364788 0.003850898 0.004045809 0.004259218 0.004498485 0.004779435 0.005107452 0.005480797 0.00590023 0.006358579
 0.006855379 0.007387097 0.007953786 0.008557593 0.009198275 0.009876914 0.01058976 0.01132476 0.01207247 0.01280414
 0.01350691 0.01414562 0.01470876 0.01516636 0.0155169 0.01574463 0.01586608 0.01588291 0.01582291 0.01569646
 0.01552771 0.01532371 0.01510683 0.01488019 0.01467209 0.01448629 0.01434008 0.01423541 0.01416056 0.01411459
 0.01407709 0.01404949 0.01403286 0.01403048 0.01405823 0.01411475 0.01420605 0.0143256 0.01446474 0.01461655
 0.01476886 0.01491692 0.01505289 0.01517304 0.01527457 0.01534991 0.01539711 0.01540346 0.01536419 0.01527529
 0.01513296 0.0149524 0.01473439 0.01449719 0.01424233 0.01397267 0.01368813 0.01338527 0.01306446 0.01272786
 0.01237515 0.01200619 0.01162006 0.01121241 0.01078669 0.01034697 0.00989731 0.009447875 0.008991205 0.008527116
 0.008039127 0.007516601 0.006950148 0.006332118 0.005663496 0.00494363 0.004171977 0.003349072 0.00246919 0.001531359
 0.0005349132 -0.0005206416 -0.001622664 -0.002770064 -0.003940847 -0.005133477 -0.006326952 -0.007519221 -0.008691979 -0.009840518
 -0.01094284 -0.01199478 -0.01297576 -0.01389085 -0.01473581 -0.01552376 -0.01626545 -0.01696942 -0.01764452 -0.01829316
 -0.01891683 -0.01952264 -0.02011221 -0.02069396 -0.02127096 -0.02183978 -0.02240071 -0.02294597 -0.02347479 -0.0239895
 -0.02449018 -0.02497962 -0.02545635 -0.02590963 -0.02633791 -0.0267273 -0.0270802 -0.0273961 -0.02767815 -0.02793354
 -0.02816033 -0.02835963 -0.02852706 -0.02865737 -0.0287529 -0.02881092 -0.02884377 -0.02885534 -0.02885791 -0.02885718
 -0.02885354 -0.02884869 -0.02883615 -0.02881483 -0.02878536 -0.02874755 -0.02870744 -0.02866512 -0.02862031 -0.02857275
 -0.02851938 -0.02846149 -0.0284038 -0.02834655 -0.02829465 -0.02824347 -0.0281863 -0.02811932 -0.02803263 -0.02793025
 -0.02781153 -0.02768355 -0.02755142 -0.02741704 -0.02728277 -0.02714768 -0.02701166 -0.0268753 -0.02673908 -0.02660105
 -0.02646162 -0.0263126 -0.02615337 -0.02597804 -0.0257869 -0.02559061 -0.02539171 -0.02521676 -0.02506665 -0.02496191
 -0.02489665 -0.02486556 -0.0248605 -0.02486157 -0.02486778 -0.02486877 -0.02486815 -0.02486786 -0.02486422 -0.0248574
 -0.02483722 -0.02479902 -0.02473679 -0.02464721 -0.02453013 -0.02438455 -0.02421357 -0.02401653 -0.02380526 -0.02358017
 -0.02336196 -0.02315144 -0.02296147 -0.02279045 -0.02263094 -0.02247973 -0.0223178 -0.02214409 -0.02194458 -0.02172244
 -0.02147618 -0.02121224 -0.02093819 -0.0206608 -0.02038856 -0.02012752 -0.01988382 -0.0196615 -0.01946515 -0.01929117
 -0.01914156 -0.01900182 -0.01886981 -0.01873213 -0.01858604 -0.01843136 -0.0182678 -0.01809878 -0.01792425 -0.01773951
 -0.01754489 -0.01733976 -0.01712748 -0.01692445 -0.0167314 -0.01656237 -0.01640834 -0.01625827 -0.01610332 -0.01592184
 -0.01572302 -0.01550434 -0.01528671 -0.01508683 -0.01490619 -0.01475534 -0.01460783 -0.01445743 -0.01428491 -0.014081
 -0.01386326 -0.0136313 -0.01341597 -0.01322034 -0.01304845 -0.01289995 -0.01275432 -0.01261108 -0.01245716 -0.0122943
 -0.01212497 -0.01194866 -0.01176549 -0.01157318 -0.01136495 -0.01114496 -0.01091388 -0.01068263 -0.01046321 -0.01025964
 -0.01008156 -0.009917785 -0.009766284 -0.009614792 -0.009456753 -0.009296263 -0.009132395 -0.008974684 -0.008825633 -0.008678325
 -0.008532722 -0.008374814 -0.00820435 -0.008026836 -0.007843549 -0.00767055 -0.007505322 -0.007344519 -0.007183724 -0.007005334
 -0.006812536 -0.006602265 -0.006381874 -0.006162757 -0.005943676 -0.005728532 -0.005511725 -0.005287638 -0.005062749 -0.004836336
 -0.004623642 -0.004431558 -0.004259615 -0.004112317 -0.003964946 -0.003815165 -0.003639937 -0.003436071 -0.00321421 -0.002975314
 -0.002753057 -0.00254716 -0.002369853 -0.002215597 -0.002062255 -0.001907869 -0.001732473 -0.001542924 -0.001344356 -0.001142066
 -0.0009470962 -0.0007586883 -0.0005789716 -0.0004098159 -0.0002531186 -0.0001100805 1.530977E-05 0.0001348051 0.0002502821 0.0003760205
 0.0005175202 0.000670178 0.0008354476 0.0009950979 0.001147634 0.001282669 0.001399909 0.001503567 0.00159467 0.001684709
 0.001774438 0.001874085 0.001982666 0.002102771 0.002232434 0.002368691 0.002510354 0.002655119 0.002800431 0.002942609
 0.003080901 0.003210856 0.00334258 0.003479135 0.003630915 0.003806139 0.003990308 0.004184019 0.004359901 0.0045125
 0.004639788 0.004740354 0.00483202 0.004915426 0.00499311 0.005065003 0.005128019 0.005187396 0.005267884 0.005375676
 0.005546998 0.005775943 0.006071044 0.006415421 0.006789132 0.007175815 0.007550962 0.007906849 0.00822919 0.008521021
 0.008780211 0.009011257 0.009216295 0.009392962 0.009539885 0.009662014 0.009757805 0.009850595 0.009942291 0.01004862
 0.01017011 0.01029823 0.01043266 0.01056628 0.01070069 0.01084226 0.01098937 0.01114025 0.01129237 0.01143635
 0.01157873 0.01172515 0.0118817 0.01206159 0.01225291 0.0124539 0.0126451 0.01281535 0.0129572 0.01306523
 0.01313952 0.01317791 0.01318862 0.01316987 0.01315185 0.01313628 0.01315877 0.01322087 0.01332881 0.01348074
 0.01365902 0.01386205 0.01407327 0.01429104 0.01450166 0.0147037 0.01488656 0.0150518 0.0151973 0.01532482
 0.01543251 0.01553104 0.015618 0.01573458 0.01589698 0.01614844 0.01652611 0.01696268 0.01746066 0.01789214
 0.01822769 0.01848431 0.01865778 0.0188295 0.01900302 0.01920244 0.01942548 0.01965439 0.01988747 0.02010953
 0.02031635 0.02048934 0.020618 0.02066693 0.0206374 0.02050916 0.02030661 0.02004522 0.01975363 0.01945906
 0.01917333 0.01891136 0.01866793 0.01844281 0.01823667 0.01804427 0.01789893 0.01780351 0.0177965 0.01788485
 0.01803824 0.01825466 0.01843411 0.01857376 0.01860481 0.01853817 0.01839579 0.01819333 0.0179956 0.01780741
 0.01767343 0.01758562 0.01755354 0.01756083 0.01759426 0.01763914 0.0176792 0.017711 0.01773183 0.01772933
 0.01770196 0.01762513 0.01748621 0.01730832 0.01708587 0.01690372 0.01676981 0.01673185 0.01679214 0.01691397
 0.01709525 0.01729983 0.01753031 0.01778754 0.01806606 0.01834897 0.01862676 0.01886511 0.01906997 0.01923407
 0.01936957 0.01948938 0.01959472 0.01969101 0.01977565 0.01984795 0.01990839 0.01995629 0.01999485 0.02002158
 0.02005694 0.02010137 0.02018992 0.02032668 0.02052297 0.02077934 0.02106544 0.02137763 0.02166551 0.02192389
 0.02209623 0.02218273 0.0221454 0.022007 0.02179394 0.02154327 0.02133134 0.02116395 0.02108574 0.02106252
 0.021081 0.02111788 0.02115348 0.02119142 0.02122982 0.02126964 0.02131065 0.02135456 0.02140136 0.02145635
 0.02152229 0.02156726 0.02158953 0.02153084 0.02139244 0.02117119 0.02087796 0.02057683 0.02027073 0.0200082
 0.019775 0.01956093 0.01935566 0.01913103 0.01890248 0.01866959 0.01846845 0.0183302 0.01826693 0.01831
 0.01839598 0.01852025 0.01858081 0.01854541 0.01838689 0.018086 0.01772238 0.01729958 0.01691288 0.01656761
 0.0162944 0.01609033 0.0159265 0.01579691 0.01565059 0.01548824 0.01527836 0.01504075 0.01480356 0.01459019
 0.01446155 0.01440061 0.01442181 0.01447376 0.01451814 0.01452949 0.01447679 0.01437885 0.01423451 0.01406784
 0.01388641 0.01369471 0.0134945 0.0132857 0.01306705 0.01286182 0.01267128</values></Ydata></AB><ScSm><Ydata ylabel="Single channel"><values byteorder="INTEL" format="FLOAT32" numvalues="1814"> 0.07044628 0.07045405 0.07052805 0.0706904 0.07091203 0.07112838 0.0712841 0.0713675 0.07139562 0.07137728
 0.07132223 0.07128394 0.07134512 0.07153562 0.071785 0.07197045 0.07201424 0.07195293 0.07191581 0.07199904
 0.07213488 0.07211553 0.07178842 0.0712316 0.07070334 0.07040659 0.07036301 0.07056136 0.07108325 0.07186491
 0.07243012 0.07223147 0.07134253 0.07048521 0.07023266 0.07046001 0.07068171 0.07060871 0.07023903 0.06974988
 0.06954594 0.07014864 0.07168397 0.07346153 0.07422578 0.07295231 0.06958048 0.06523697 0.06181479 0.06096023
 0.06291671 0.06619447 0.06868529 0.0693417 0.0686792 0.0677132 0.06686597 0.0660983 0.0656146 0.06589445
 0.06703043 0.06828805 0.06848818 0.06701466 0.06454802 0.06258242 0.06206439 0.06280151 0.06426298 0.06615782
 0.06762175 0.06675361 0.06248488 0.05694788 0.05452526 0.05768251 0.06433693 0.0698964 0.0713461 0.06893665
 0.06484859 0.06138529 0.06010797 0.06141528 0.06446634 0.06787719 0.07056135 0.07178707 0.07099251 0.06827163
 0.06485378 0.06251124 0.06247296 0.06494205 0.06905068 0.07293667 0.07458918 0.07333407 0.0702842 0.0671656
 0.06517939 0.06499928 0.06694115 0.07063302 0.07499766 0.07887572 0.08149732 0.08255725 0.08227791 0.08126897
 0.08006351 0.07903097 0.07870273 0.07944526 0.08059846 0.08072433 0.0791709 0.07694069 0.07565857 0.07589062
 0.07669088 0.07675532 0.07574607 0.07407932 0.07163049 0.0677091 0.06263521 0.05816219 0.05572117 0.05532855
 0.05663086 0.05946526 0.06263217 0.06382215 0.06214843 0.0597611 0.05971467 0.06270953 0.06673086 0.06950245
 0.07058927 0.07124269 0.07278588 0.07526089 0.07725765 0.07697986 0.07402753 0.07040234 0.06909548 0.07115227
 0.07466574 0.07712247 0.07805391 0.07876322 0.0800449 0.0809503 0.07977141 0.07606781 0.07176726 0.06998113
 0.07229302 0.07717021 0.0810757 0.08109099 0.07688174 0.07076745 0.06590963 0.06412595 0.06540622 0.06911518
 0.07469032 0.08100849 0.08610293 0.0882713 0.08732059 0.08445483 0.08090147 0.07677669 0.07174957 0.06694414
 0.06516725 0.06825484 0.07473122 0.08104211 0.08472693 0.08564734 0.0846097 0.08185152 0.07726694 0.07186286
 0.06823572 0.06855701 0.07195969 0.07503025 0.07538261 0.07383253 0.07264258 0.07270198 0.07319471 0.07333019
 0.07346599 0.0744881 0.07654032 0.07868304 0.07980475 0.07963741 0.07880233 0.07808526 0.07772361 0.07723755
 0.07610327 0.0747916 0.07471533 0.07668319 0.07979012 0.08234888 0.08358318 0.08391024 0.08381782 0.08300506
 0.08082141 0.07749727 0.07464701 0.07407282 0.07601996 0.07902397 0.08143538 0.08260565 0.08272494 0.0822242
 0.08148637 0.08072381 0.08003777 0.07968453 0.08001397 0.08097021 0.08197504 0.08250571 0.08252406 0.0822224
 0.08165231 0.08079003 0.07979693 0.07903447 0.07880852 0.07913701 0.07978277 0.08046651 0.08097336 0.08112071
 0.08082115 0.08021467 0.0795825 0.07909228 0.07874811 0.07857166 0.0786539 0.07898705 0.07938546 0.07964145
 0.07968833 0.07957798 0.07936823 0.07908159 0.07874179 0.07841375 0.07820113 0.07817911 0.07830645 0.07844664
 0.07852133 0.07858789 0.07870257 0.07877684 0.07866968 0.0783838 0.0780756 0.07788706 0.07783531 0.0778502
 0.07784727 0.07774383 0.07746228 0.07699796 0.0765005 0.07621504 0.07628584 0.07664929 0.07713304 0.07758769
 0.07790788 0.0780358 0.078005 0.07791188 0.07780248 0.07763681 0.07738367 0.07711022 0.07696019 0.07704479
 0.07734202 0.07770613 0.07798798 0.07813036 0.07815757 0.07813624 0.07815322 0.0782503 0.07835732 0.07835835
 0.07824157 0.07812372 0.07811322 0.07819451 0.07825984 0.07823077 0.07814057 0.07809795 0.07817136 0.07832612
 0.07848221 0.07860701 0.07872966 0.07887626 0.07900861 0.0790422 0.07894033 0.07877573 0.07866299 0.07864002
 0.07866244 0.07870498 0.07880279 0.07897627 0.07916775 0.07928951 0.07931799 0.07931299 0.07934031 0.07939299
 0.07940461 0.07933365 0.07921294 0.07911427 0.07908445 0.0791202 0.07918492 0.07923676 0.07924874 0.07921675
 0.07915524 0.07908358 0.07901389 0.07895622 0.07893604 0.07898942 0.07911867 0.07925723 0.07930435 0.07921229
 0.07903534 0.07888159 0.07881264 0.07879498 0.07875006 0.07864007 0.07849437 0.07836464 0.07827616 0.07822037
 0.07817466 0.07812499 0.07808571 0.07810201 0.07821086 0.0783838 0.07852524 0.07855268 0.07847467 0.0783731
 0.07831942 0.07832858 0.07837929 0.07844903 0.07853302 0.07864495 0.0787897 0.0789313 0.07901652 0.07904087
 0.07906106 0.07913563 0.07928335 0.07949507 0.07973848 0.07994894 0.08006835 0.08011013 0.08015108 0.08024785
 0.08039144 0.08054797 0.08070827 0.08088129 0.08106639 0.08125818 0.0814691 0.08172669 0.08204507 0.08240391
 0.08275273 0.08303967 0.08325279 0.08344276 0.08369166 0.08404413 0.08446847 0.08488785 0.08524759 0.08555363
 0.0858499 0.08616352 0.08648247 0.08679355 0.08712234 0.0875095 0.08795513 0.08841428 0.08884694 0.08925048
 0.08964396 0.0900417 0.09044763 0.09086524 0.09130545 0.0917782 0.09226964 0.09273608 0.09313709 0.09347567
 0.09379879 0.09416218 0.09459324 0.09506743 0.09551121 0.0958555 0.09611031 0.09636782 0.09670436 0.09709585
 0.09746128 0.09777667 0.0981039 0.09850362 0.09895846 0.09940094 0.09979264 0.100153 0.1005182 0.1008894
 0.1012254 0.1014871 0.1016863 0.1018804 0.1021163 0.1023994 0.1027258 0.1031135 0.1035707 0.1040534
 0.1044881 0.1048328 0.1050956 0.1053092 0.1055105 0.1057303 0.1059764 0.1062319 0.106482 0.1067228
 0.1069383 0.1071059 0.1072434 0.107414 0.1076615 0.1079707 0.1083133 0.1086949 0.1091225 0.1095601
 0.1099645 0.1103541 0.1107878 0.1112685 0.111713 0.1120403 0.1122545 0.1124145 0.1125613 0.1127184
 0.1129337 0.113262 0.113702 0.11419 0.1146604 0.1150901 0.1154856 0.1158542 0.1161907 0.1164803
 0.1167103 0.1168841 0.1170266 0.1171782 0.1173815 0.1176595 0.1179914 0.1183194 0.1185872 0.1187654
 0.1188385 0.1188006 0.118685 0.1185724 0.1185256 0.1185157 0.1184377 0.1182015 0.117788 0.1172235
 0.1165319 0.11573 0.1148559 0.1139835 0.1132053 0.1125997 0.112215 0.1120834 0.112236 0.1126806
 0.1133557 0.1141284 0.114847 0.1153866 0.1156459 0.115549 0.1150832 0.1143242 0.1133966 0.1124114
 0.1114413 0.110519 0.1096355 0.1087651 0.1079326 0.1072575 0.1069198 0.1070841 0.1078575 0.1092764
 0.1112764 0.1136569 0.1161159 0.1183725 0.1202842 0.1218592 0.1231814 0.124342 0.1254145 0.1264384
 0.1274064 0.1282881 0.1290766 0.1297953 0.1304619 0.1310645 0.1315746 0.1319712 0.1322576 0.1324679
 0.1326442 0.1327988 0.1329117 0.1329729 0.1330058 0.1330313 0.1330244 0.1329182 0.1326455 0.1321732
 0.1315229 0.1307917 0.1301794 0.1299886 0.130537 0.1319836 0.1341936 0.1367848 0.1393278 0.1415262
 0.1432627 0.1445571 0.1455111 0.1462535 0.14689 0.1474814 0.1480532 0.1486111 0.1491502 0.1496677
 0.1501696 0.1506655 0.1511619 0.1516602 0.1521527 0.1526219 0.1530577 0.1534767 0.1539161 0.1543969
 0.1549001 0.1553849 0.1558357 0.1562791 0.1567426 0.1572092 0.1576351 0.1580071 0.1583591 0.1587342
 0.1591533 0.1596121 0.1600843 0.1605281 0.1609129 0.1612456 0.1615595 0.1618812 0.1622165 0.1625613
 0.1629124 0.1632682 0.1636283 0.1639979 0.1643862 0.1647902 0.1651813 0.1655217 0.1658032 0.1660612
 0.1663421 0.1666602 0.1669909 0.1673027 0.167593 0.1678945 0.168244 0.1686398 0.1690345 0.1693773
 0.1696587 0.1699108 0.1701721 0.1704609 0.1707758 0.1711091 0.1714517 0.1717927 0.1721227 0.1724402
 0.1727518 0.1730646 0.1733809 0.1736993 0.1740184 0.1743383 0.17466 0.1749855 0.1753202 0.1756742
 0.176055 0.1764539 0.1768416 0.1771859 0.1774758 0.1777267 0.177964 0.1782084 0.1784733 0.1787644
 0.1790772 0.1794001 0.1797246 0.1800483 0.1803705 0.1806884 0.1810015 0.1813152 0.1816358 0.181961
 0.1822832 0.1826017 0.1829253 0.1832574 0.1835864 0.1838975 0.1841906 0.1844816 0.1847841 0.1850967
 0.1854056 0.1856999 0.1859817 0.1862608 0.1865447 0.1868339 0.1871261 0.1874199 0.187715 0.1880124
 0.1883126 0.1886131 0.1889094 0.1891989 0.1894822 0.1897619 0.1900408 0.1903216 0.1906074 0.1909013
 0.1912025 0.1915022 0.1917893 0.1920623 0.1923316 0.1926081 0.1928941 0.1931851 0.1934742 0.1937553
 0.1940286 0.1943015 0.1945834 0.1948778 0.1951792 0.1954758 0.1957603 0.1960353 0.1963099 0.1965911
 0.1968825 0.1971827 0.1974845 0.1977816 0.1980755 0.1983691 0.1986589 0.1989443 0.1992343 0.1995374
 0.199849 0.2001586 0.20046 0.2007521 0.2010344 0.2013054 0.2015634 0.2018118 0.2020613 0.2023213
 0.2025894 0.2028565 0.203117 0.2033723 0.2036275 0.2038891 0.2041589 0.2044336 0.2047131 0.2050024
 0.2053004 0.2055981 0.2058887 0.2061721 0.206452 0.2067335 0.2070191 0.207305 0.2075899 0.2078797
 0.208175 0.2084639 0.2087391 0.2090093 0.2092858 0.209572 0.209864 0.210154 0.2104362 0.2107173
 0.2110091 0.2113084 0.2116011 0.2118827 0.2121579 0.2124308 0.2127058 0.2129871 0.2132719 0.213556
 0.2138405 0.2141228 0.2143953 0.2146626 0.214939 0.2152262 0.2155154 0.2158047 0.2160942 0.2163784
 0.2166575 0.2169402 0.2172286 0.217519 0.2178102 0.218096 0.2183691 0.2186377 0.2189106 0.2191651
 0.2193371 0.2192838 0.2186632 0.216804 0.2126916 0.2051676 0.1933851 0.1773402 0.1580666 0.1372749
 0.116723 0.09775613 0.08116972 0.06731173 0.05625684 0.04792117 0.04213053 0.03873218 0.03771649 0.03934881
 0.04431117 0.05329734 0.06549241 0.0772335 0.08344001 0.08162352 0.07426238 0.06654068 0.06204489 0.06103423
 0.06197812 0.06355904 0.06535238 0.06760027 0.07072669 0.07485338 0.07977052 0.08545324 0.09232458 0.100714
 0.1101917 0.1197436 0.1286487 0.1370469 0.1455967 0.1546739 0.1639761 0.1728228 0.1806998 0.1875131
 0.1934786 0.1988849 0.2039328 0.2087152 0.2132738 0.2176003 0.2215439 0.224773 0.2269326 0.2279123
 0.2279779 0.2276241 0.2272843 0.2271604 0.2272729 0.2275898 0.228085 0.2287359 0.2295211 0.2304169
 0.2313878 0.2323925 0.2333988 0.234381 0.2353149 0.236185 0.2369879 0.2377213 0.2383835 0.2389809
 0.2395272 0.2400333 0.2405084 0.24096 0.2413903 0.241799 0.2421914 0.242573 0.2429399 0.2432813
 0.2435888 0.2438609 0.2441049 0.2443372 0.244575 0.2448242 0.2450794 0.2453329 0.2455809 0.2458242
 0.2460646 0.246302 0.2465369 0.2467744 0.2470212 0.2472762 0.2475324 0.2477866 0.2480402 0.2482919
 0.2485373 0.2487744 0.2490027 0.2492211 0.2494317 0.2496418 0.2498594 0.2500893 0.2503291 0.2505693
 0.2508034 0.2510415 0.251301 0.2515838 0.2518734 0.2521538 0.2524191 0.2526719 0.252921 0.2531734
 0.2534205 0.2536423 0.2538329 0.2540124 0.2542136 0.2544603 0.2547491 0.2550485 0.2553229 0.2555641
 0.2557879 0.256008 0.2562228 0.2564258 0.2566223 0.2568401 0.2571112 0.2574336 0.2577678 0.2580827
 0.2583781 0.2586605 0.2589312 0.2592002 0.259471 0.2597154 0.2599018 0.2600537 0.2602527 0.2605721
 0.2610057 0.261463 0.2618475 0.2621397 0.2623912 0.2626601 0.2629736 0.263305 0.2635453 0.2635799
 0.2634658 0.2634602 0.2637839 0.2644017 0.2650919 0.2656708 0.2661014 0.2664408 0.2667456 0.2670129
 0.2671817 0.2672031 0.2671377 0.2671762 0.2675025 0.2681046 0.2687691 0.2692981 0.2696621 0.2699249
 0.2701332 0.2703137 0.2704313 0.2703202 0.2698569 0.269283 0.2691489 0.2697783 0.2708982 0.2719318
 0.2725736 0.2729453 0.2732621 0.2735655 0.2737978 0.2738566 0.2734587 0.2722981 0.2706463 0.2695225
 0.2698505 0.2715271 0.2735956 0.2752053 0.2761447 0.2766207 0.2768927 0.2771043 0.277179 0.276816
 0.2758277 0.2746066 0.274036 0.2746766 0.276136 0.2774912 0.2782311 0.2785282 0.2787473 0.2790323
 0.2792038 0.2787106 0.2769458 0.2741494 0.2718546 0.2718107 0.2742763 0.277708 0.2802887 0.2814888
 0.2819211 0.2819981 0.2813174 0.2793813 0.2763474 0.272952 0.2702745 0.2695928 0.2715415 0.2750514
 0.2779544 0.2791228 0.2794207 0.2802745 0.2819673 0.2836505 0.2844474 0.284134 0.2829843 0.2812828
 0.2791861 0.2771764 0.2763393 0.2775965 0.2805908 0.2838075 0.2859756 0.2870337 0.2874757 0.2868754
 0.283584 0.2767132 0.2686189 0.2642511 0.2667831 0.2742934 0.2818348 0.2862996 0.288117 0.2889264
 0.2893772 0.2889568 0.2862868 0.279871 0.2704581 0.2625372 0.2613043 0.2675169 0.2766339 0.2830565
 0.2839478 0.279529 0.2720634 0.2651782 0.2623878 0.2649665 0.2713934 0.2788562 0.2849396 0.2882871
 0.2885873 0.2864425 0.2833187 0.2811885 0.281105 0.2816412 0.2799706 0.2754431 0.2706791 0.2677289
 0.2648996 0.2598801 0.2547984 0.2548118 0.2614006 0.2698983 0.2747391 0.2750984 0.2738872 0.272446
 0.2682519 0.2585578 0.2456031 0.2366945 0.2378102 0.247398 0.2577665 0.2626118 0.2620219 0.2602111
 0.2599015 0.259561 0.2555823 0.2469937 0.237833 0.2337555 0.2360259 0.2403895 0.2421129 0.2397681
 0.2335756 0.2238711 0.2138069 0.2103291 0.2183073 0.2345662 0.250386 0.2586921 0.2566381 0.2440249
 0.22426 0.2063976 0.2007407 0.2096245 0.22458 0.2341259 0.232891 0.2225761 0.2070213 0.189562
 0.1745402 0.1677913 0.1731445 0.1885247 0.2060576 0.2160137 0.212184 0.1966781 0.1802637 0.1746146
 0.1817417 0.1926627 0.1974923 0.1944093 0.1882229 0.1841365 0.1847333 0.1896079 0.1958203 0.2006219
 0.2036381 0.2038347 0.1965785 0.1792202 0.1585468 0.1463232 0.1470632 0.1557075 0.167051 0.1804015
 0.1934675 0.1991674 0.1936219 0.1835311 0.1804846 0.1886612 0.2012424 0.2087355 0.2083497 0.2045022
 0.2019434 0.2006743 0.1983254 0.1956606 0.1967792 0.2034723 0.2121101 0.2176993 0.2190904 0.2185358
 0.2178719 0.2171399 0.2158782 0.21393 0.2113459 0.2085223 0.2060975 0.2042217 0.2024145 0.2002964
 0.1975926 0.1931143 0.1850625 0.1736958 0.162946 0.1573613 0.1573549 0.1595265 0.1616313 0.163868
 0.164267 0.1573963 0.1415258 0.1244984 0.1180443 0.1264729 0.1434561 0.1591726 0.1677322 0.1676792
 0.1591856 0.144491 0.1304874 0.1265255 0.1367896 0.1563126 0.1763225 0.1917628 0.2018189 0.2058012
 0.2024421 0.1930822 0.1828477 0.1777301 0.1809825 0.1916767 0.2049672 0.2132939 0.2100834 0.1963293
 0.1835719 0.1853878 0.2030865 0.2234625 0.2336296 0.2340835 0.233441 0.2350489 0.2353434 0.233285
 0.2341076 0.2421195 0.2543372 0.2634239 0.2641364 0.2553837 0.2394981 0.2227151 0.2135629 0.2160528
 0.2251348 0.2321971 0.2334091 0.229217 0.2192284 0.2043065 0.1919794 0.1919212 0.2047089 0.2205009
 0.2302302 0.2338694 0.2363459 0.2390681 0.2382565 0.2307178 0.219185 0.2106257 0.2093442 0.2132115
 0.2172561 0.2189054 0.2180505 0.214101 0.2063387 0.1971341 0.1919743 0.1947241 0.2036711 0.2131763
 0.2187716 0.2199964 0.2190096 0.2178423 0.2170264 0.2158118 0.2135894 0.2117043 0.2131694 0.2193545
 0.2276672 0.2341636 0.2380477 0.2419089 0.2476605 0.253879 0.257508 0.2571847 0.2545605 0.2529068
 0.254514 0.2588583 0.2629693 0.2639631 0.2617872 0.259518 0.2605183 0.2652251 0.2710963 0.2754898
 0.277814 0.2789845 0.2798814 0.2806072 0.2804386 0.2783988 0.2747022 0.2716101 0.2718424 0.2758761
 0.2814713 0.2859471 0.2883103 0.2891347 0.2891479 0.2884567 0.2869388 0.2849202 0.2831986 0.2824284
 0.2826581 0.2834938 0.2845211 0.285486 0.2862656 0.2868409 0.2872597 0.2875624 0.2877787 0.2879715
 0.2881878 0.2883676 0.288409 0.2883513 0.2883903 0.2886541 0.289034 0.2893021 0.2893206 0.2890452
 0.2883947 0.2872762 0.2857423 0.283984 0.282117 0.2801008 0.2779903 0.2762217 0.2754921 0.2762399
 0.2782393 0.2807371 0.2829789 0.2845934 0.2855779 0.2860858 0.28629 0.2863444 0.2863523 0.2863385
 0.2862758 0.2861463 0.2859642 0.2857497 0.2855089 0.2852518 0.2850098 0.2848126 0.28465 0.2844661
 0.2841911 0.2837847 0.2832636 0.2826864 0.2820989 0.2814861 0.280784 0.2799375 0.2789459 0.2778647
 0.2767769 0.2757547 0.2748188 0.2739214 0.2729811 0.2719406 0.2707697 0.2694257 0.2678769 0.2661939
 0.264553 0.2630918 0.2617905 0.2605204 0.2591672 0.2576778 0.2560432 0.2542909 0.252476 0.2506431
 0.2487963 0.2469153 0.2449887 0.2430247 0.2410338 0.2390116 0.2369425 0.2348153 0.2326316 0.230397
 0.2280978 0.2256742 0.2230105 0.2199659 0.2164238 0.2123204 0.2076601 0.2025426 0.1971691 0.1917847
 0.1865883 0.1816911 0.1771549 0.1730566 0.1695048 0.1665932 0.1643572 0.1627957 0.1619179 0.1617423
 0.1622562 0.1634016 0.1650908 0.1672096 0.1696084 0.1721088 0.1745296 0.1767282 0.1786511 0.1803642
 0.1820131 0.1837214 0.1855058 0.1872884 0.1889815 0.1905379 0.1919222 0.1930861 0.1940072 0.1947244
 0.1952987 0.1957591 0.1961093 0.1963639 0.1965521 0.1966965 0.1968098 0.1969124 0.1970446 0.1972539
 0.1975636 0.1979614 0.1984288 0.198972 0.1996123 0.2003595 0.2012013 0.202109 0.2030512 0.2040196
 0.2050432 0.206171 0.2074511 0.2089324 0.2106661 0.212683 0.2149649 0.2174399 0.2200013 0.222531
 0.2249074 0.2270101 0.2287496 0.2301052 0.2311212 0.2318653 0.2324035 0.2327961 0.2330828 0.2332686
 0.2333453 0.233318 0.2331962 0.2329776 0.2326542 0.232227 0.2317072 0.2311146 0.2304747 0.2298086
 0.2291277 0.2284371 0.2277434 0.2270569 0.2263875 0.2257328 0.2250777 0.2244148 0.223753 0.2230947
 0.222418 0.2216934 0.2208988 0.2200101 0.2190026 0.2178733 0.216642 0.2153227 0.2139061 0.212378
 0.2107505 0.2090661 0.2073654 0.2056526 0.2039016 0.2020854 0.2001782 0.1981496 0.1959946 0.1937702
 0.1915711 0.1894725 0.1875049 0.1856657 0.1839331 0.1822816 0.1806986 0.1791797 0.1777185 0.1763143
 0.1749778 0.1737185 0.1725339 0.1714161 0.17036 0.1693697 0.1684641 0.1676624 0.1669595 0.1663351
 0.1657832 0.1653106 0.1649184 0.1646124 0.1644124 0.1643155 0.1642629 0.1641709 0.1639925 0.1637404
 0.1634636 0.1632072 0.1629868 0.1627939 0.1626112 0.162404 0.1621045 0.161628 0.1609019 0.1598744
 0.1585218 0.1568693 0.1549954 0.1530112 0.1510414 0.1492086 0.1476062 0.1462816 0.1452401 0.1444443
 0.1438153 0.1432735 0.1427971 0.1424434 0.1423026 0.1423974 0.1426062 0.1427259 0.1426624 0.1425338
 0.1425539 0.1428441 0.1433736 0.1440212 0.1446553 0.1451877 0.145587 0.1458525 0.1459934 0.1460289
 0.1459759 0.1458354 0.1456133 0.1453348 0.1450162 0.1446501 0.144229 0.1437487 0.1431933 0.1425512
 0.1418289 0.141025 0.140126 0.139132 0.1380402 0.1368317 0.1355541 0.1343995 0.133629 0.1334107
 0.133728 0.1344037 0.1352247 0.1360768 0.1369038 0.1375321 0.1377268 0.13757 0.1376386 0.13858
 0.140489 0.1428026 0.1448006 0.1461075 0.1467191 0.146734 0.1462137 0.145206 0.1437285 0.1417564
 0.1393208 0.1365516 0.1335819 0.1305286 0.12757 0.1248958 0.1226024 0.1207194 0.1192533 0.1182374
 0.1177851 0.1175305 0.1156478 0.1097895 0.1006887 0.09380385 0.09474848 0.1029799 0.1121549 0.116845
 0.1168834 0.1151482 0.1136254 0.1126225 0.1120683 0.1121328 0.1129383 0.1143059 0.1158097 0.1170318
 0.1178068 0.1181675 0.1180684 0.1171906 0.1148868 0.1103675 0.1033313 0.09457666 0.08575916 0.07841748
 0.07326983 0.0702206 0.06869002 0.06796297 0.06753874 0.06734207 0.06762096 0.06863511 0.07043293 0.07288792
 0.07584324 0.07909089 0.08225476 0.08491996 0.08695059 0.08852312 0.08980659 0.09076124 0.09126669 0.09129362
 0.09091671 0.09026331 0.08947499 0.08865011 0.08778392 0.08678855 0.08563576 0.08449894 0.08366892 0.08327544
 0.08317792 0.08316882 0.08316408 0.08315925 0.08314259 0.08311191 0.08309288 0.08313058 0.08330475 0.08369032
 0.08424655 0.08480422 0.08519819 0.08538333 0.08543195 0.08541859 0.08527356 0.08483442 0.08414206 0.08351827
 0.08313902 0.08270487 0.08182906 0.08064072 0.07970997 0.07941909 0.0796314 0.07994185 0.08005238 0.07990696
 0.07966334 0.07961962 0.08001009 0.08070961</values></Ydata></ScSm><ScRf><Ydata ylabel="Single channel"><values byteorder="INTEL" format="FLOAT32" numvalues="1820"> 0.06071026 0.06087392 0.06096842 0.06099018 0.06096707 0.06095499 0.06101251 0.06116134 0.06136822 0.06156579
 0.06169925 0.06176085 0.06177427 0.06175258 0.06170015 0.06165657 0.06169366 0.06184309 0.0620473 0.06219912
 0.06222943 0.06216832 0.06212704 0.06219006 0.0623 0.06227433 0.06197634 0.0614736 0.06099528 0.06072121
 0.06066844 0.06082509 0.06126672 0.06194669 0.0624528 0.06229797 0.06153056 0.0607712 0.06052352 0.06069062
 0.06086119 0.06078944 0.06047136 0.06005273 0.05987694 0.06039458 0.06171977 0.06326057 0.063929 0.06282647
 0.05988623 0.05608273 0.05307295 0.05230577 0.05400071 0.05685559 0.05902486 0.05959271 0.05901398 0.05818164
 0.05746331 0.05681195 0.05638955 0.05660977 0.05756517 0.05863278 0.05879357 0.05750853 0.05536516 0.05366092
 0.05321606 0.05385774 0.0551203 0.05675185 0.0580079 0.0572455 0.05354039 0.0487375 0.04663024 0.04935589
 0.05511599 0.0599343 0.06119321 0.05910555 0.0555655 0.05257361 0.05147336 0.05259222 0.05519626 0.05810153
 0.06038777 0.06143243 0.06075033 0.05841836 0.05548906 0.05347984 0.05344383 0.05555947 0.05908635 0.06242394
 0.06384055 0.06275545 0.06012494 0.0574307 0.05570481 0.05553174 0.05719109 0.06036738 0.06413238 0.06748141
 0.0697414 0.07064309 0.07038377 0.06950348 0.06846968 0.06759208 0.06731202 0.06793754 0.06890579 0.06898923
 0.06763424 0.06570525 0.06459639 0.06478934 0.06546937 0.06551714 0.0646417 0.06319804 0.06107963 0.05769741
 0.05332968 0.04948287 0.04738655 0.04705936 0.04820529 0.05068674 0.05346183 0.05452525 0.05309828 0.05102562
 0.05094112 0.05346125 0.05687025 0.05922397 0.06015142 0.06072097 0.06205796 0.06418858 0.06589656 0.06564003
 0.06308339 0.05995946 0.05884802 0.06064252 0.0636867 0.06580803 0.06661001 0.06722848 0.06835082 0.0691512
 0.06815526 0.06499562 0.06134183 0.05985768 0.061877 0.06606992 0.0694108 0.06941076 0.06578905 0.06054045
 0.05638643 0.05489035 0.05604006 0.05929172 0.06417212 0.0697225 0.0742428 0.07624094 0.0755154 0.07308576
 0.07002526 0.06646384 0.06213487 0.05802075 0.05656402 0.05936198 0.06512137 0.07073309 0.07404718 0.0749477
 0.07413964 0.0718153 0.06786241 0.06317198 0.06006699 0.06049243 0.06366971 0.0665385 0.06696083 0.06567097
 0.06470251 0.06485592 0.06539774 0.06562127 0.06586228 0.06693207 0.06895696 0.07107039 0.0722489 0.07223986
 0.07160812 0.07107782 0.07087293 0.07055417 0.06964393 0.068588 0.06869563 0.07070248 0.07375394 0.07628136
 0.07757093 0.0780178 0.07807621 0.07745937 0.07555464 0.07258151 0.07006277 0.06969737 0.07171793 0.07474275
 0.07720808 0.07849301 0.07877782 0.07847792 0.0779594 0.07742 0.07695292 0.07680313 0.07730447 0.07840003
 0.07953401 0.08020913 0.0803943 0.08027163 0.07988037 0.07919511 0.0783848 0.0778125 0.077773 0.07827425
 0.07908395 0.07993704 0.08062652 0.08096308 0.08084314 0.0803965 0.07991152 0.07957129 0.07938609 0.07937291
 0.07961854 0.08011366 0.08066875 0.0810719 0.08125793 0.08128582 0.08122087 0.0810862 0.08089723 0.0807124
 0.0806419 0.08076993 0.08104763 0.08132217 0.08151747 0.08171457 0.08198529 0.08222781 0.08227299 0.0821093
 0.08190292 0.0818125 0.08185934 0.08196822 0.08205634 0.08204971 0.08187163 0.08150832 0.08110389 0.08091024
 0.08108754 0.08158939 0.08224879 0.08289708 0.08339144 0.08364612 0.08369584 0.08365905 0.0836028 0.0834948
 0.08330107 0.08308733 0.0830055 0.08317904 0.0835878 0.08407243 0.08446486 0.08469662 0.08479297 0.08483307
 0.08492118 0.08510704 0.08530748 0.08538364 0.08531731 0.0852432 0.08528541 0.08541618 0.08550136 0.08546019
 0.08535865 0.08534062 0.08547693 0.08570416 0.0859144 0.08607388 0.08623429 0.08644092 0.08664526 0.08672629
 0.08662024 0.08641266 0.08625625 0.08620983 0.08622015 0.08625403 0.08636057 0.08657163 0.08680888 0.08694921
 0.08696249 0.08693959 0.08697711 0.08706285 0.08709499 0.08700084 0.08681249 0.08663152 0.08654368 0.08656728
 0.08665617 0.08673681 0.08675329 0.08669505 0.08659083 0.08647823 0.08638029 0.08631667 0.08633041 0.0864709
 0.08671969 0.08694842 0.08699705 0.08681843 0.08653202 0.08631814 0.08625773 0.086277 0.08623793 0.08606933
 0.08581132 0.08555526 0.08536225 0.08523478 0.08514151 0.08505818 0.08499841 0.08501141 0.08512875 0.08529578
 0.08537956 0.08528071 0.08503237 0.08476411 0.0845809 0.08450115 0.08448564 0.08448569 0.08447911 0.08449118
 0.08456007 0.08466174 0.08470831 0.08464897 0.08453523 0.08446643 0.08450905 0.08467222 0.08490105 0.08508067
 0.0851111 0.08500859 0.08489356 0.08486392 0.08491685 0.08499855 0.08508092 0.08516762 0.08526132 0.08536068
 0.08548065 0.08564994 0.08588072 0.08614551 0.08638611 0.0865512 0.08663962 0.08671408 0.08686069 0.08712046
 0.08745617 0.08778585 0.08804889 0.08824566 0.08841934 0.08860277 0.08879299 0.08898421 0.089204 0.08948664
 0.08982054 0.09015518 0.09045802 0.09073709 0.09101197 0.09128962 0.09157199 0.09187288 0.09222062 0.09263473
 0.09308431 0.09348096 0.09374426 0.09388092 0.09398746 0.09417736 0.09450195 0.09490921 0.09526551 0.09545948
 0.09551723 0.09558491 0.09577009 0.09603506 0.09628254 0.09650755 0.09680343 0.09722421 0.09769519 0.09808066
 0.09831597 0.0984569 0.09860749 0.09881015 0.09901195 0.09914149 0.09920473 0.09927768 0.09941096 0.0995893
 0.09979942 0.1000815 0.1004668 0.100902 0.1012872 0.1015721 0.101776 0.1019328 0.1020575 0.102151
 0.102207 0.1022268 0.1022435 0.1023034 0.1024048 0.1024896 0.1025205 0.1025352 0.1025998 0.1027412
 0.1029524 0.1032276 0.1035493 0.1038665 0.1041392 0.1044027 0.1047303 0.1051174 0.1054499 0.1056247
 0.1056639 0.1056675 0.1056886 0.1057169 0.1057656 0.105897 0.1061476 0.106479 0.1068269 0.1071657
 0.1075054 0.1078468 0.1081589 0.1083926 0.1085129 0.1085278 0.1084944 0.1084963 0.1086044 0.1088399
 0.1091607 0.109489 0.109762 0.1099533 0.1100516 0.1100526 0.1099968 0.109982 0.1100883 0.110284
 0.1104369 0.1104249 0.1102142 0.109834 0.1093175 0.1086927 0.1080138 0.1073662 0.1068301 0.106445
 0.1062201 0.1061774 0.1063666 0.1068127 0.1074544 0.1081604 0.1088097 0.1093259 0.1096343 0.1096447
 0.1093175 0.1087225 0.1079985 0.1072682 0.1065988 0.106002 0.1054414 0.1048761 0.1043455 0.1040061
 0.1040557 0.1046146 0.1056663 0.1070718 0.1086156 0.110074 0.1112988 0.112268 0.1130563 0.1137542
 0.1144169 0.1150731 0.1157438 0.1164224 0.1170588 0.1176021 0.1180578 0.1184754 0.1188844 0.1192705
 0.1196071 0.1198835 0.1201103 0.1203168 0.1205243 0.1207057 0.1207961 0.1207671 0.1206653 0.1205557
 0.1204469 0.1202908 0.120034 0.1196598 0.1192131 0.1188151 0.1186454 0.1188705 0.1195521 0.1206082
 0.1218699 0.1231843 0.1244572 0.12561 0.1265503 0.127222 0.1276616 0.1279712 0.1282438 0.1285267
 0.1288313 0.1291465 0.1294517 0.1297358 0.1300071 0.1302868 0.1305936 0.1309295 0.1312686 0.13157
 0.1318175 0.132045 0.1323128 0.1326544 0.1330434 0.1334195 0.1337523 0.1340681 0.1343993 0.1347206
 0.134973 0.1351455 0.1352973 0.1354968 0.1357715 0.1361112 0.1364795 0.1368178 0.1370771 0.1372616
 0.1374227 0.1376065 0.1378235 0.1380661 0.1383267 0.1385934 0.1388481 0.13909 0.1393478 0.1396465
 0.1399609 0.1402251 0.140403 0.1405326 0.1406857 0.1408945 0.1411312 0.1413519 0.1415476 0.1417533
 0.1420111 0.1423223 0.1426354 0.1428873 0.1430553 0.14317 0.143284 0.1434348 0.143629 0.1438501
 0.1440752 0.1442889 0.1444898 0.1446871 0.1448914 0.1451059 0.1453248 0.1455417 0.1457552 0.1459656
 0.1461717 0.1463729 0.1465783 0.1468082 0.1470815 0.1473909 0.1476967 0.1479529 0.148142 0.1482807
 0.148397 0.1485131 0.1486454 0.1488077 0.1490052 0.1492265 0.1494468 0.1496463 0.1498268 0.1500067
 0.1502009 0.1504113 0.1506321 0.1508578 0.1510852 0.1513145 0.1515478 0.1517821 0.1520066 0.152211
 0.1523961 0.152574 0.1527593 0.1529571 0.1531585 0.1533516 0.1535337 0.1537127 0.1538966 0.1540889
 0.1542892 0.1544932 0.1546948 0.1548902 0.1550812 0.1552719 0.155466 0.1556639 0.1558618 0.1560539
 0.1562389 0.1564206 0.1566033 0.1567919 0.1569916 0.1572035 0.1574207 0.1576338 0.157839 0.1580392
 0.1582395 0.1584415 0.1586415 0.1588359 0.159027 0.1592212 0.1594214 0.1596239 0.1598216 0.1600113
 0.1601977 0.1603905 0.1605934 0.1608018 0.1610114 0.1612232 0.1614371 0.1616489 0.1618578 0.1620675
 0.1622823 0.1625048 0.1627344 0.1629643 0.1631848 0.1633948 0.1636015 0.1638091 0.1640135 0.1642076
 0.1643868 0.1645538 0.1647192 0.1648949 0.1650831 0.1652755 0.1654607 0.1656327 0.165797 0.1659693
 0.16616 0.1663637 0.1665679 0.1667678 0.1669676 0.167173 0.1673854 0.1676003 0.1678117 0.1680188
 0.1682232 0.1684244 0.168624 0.1688295 0.1690436 0.1692587 0.1694687 0.1696753 0.1698801 0.1700818
 0.1702816 0.1704844 0.1706943 0.1709133 0.1711368 0.1713521 0.1715517 0.1717441 0.171942 0.1721491
 0.1723636 0.1725807 0.1727927 0.1729973 0.1732034 0.173416 0.1736276 0.1738333 0.1740379 0.1742443
 0.1744516 0.174663 0.1748798 0.1750972 0.1753126 0.1755267 0.175737 0.1759446 0.1761588 0.1763806
 0.1765999 0.1768141 0.177025 0.1772157 0.177338 0.1772808 0.1767744 0.1752779 0.1719596 0.1658623
 0.1562867 0.1432325 0.1275521 0.1106494 0.09395906 0.0785681 0.06511122 0.05386478 0.04489316 0.03813418
 0.03344699 0.03070254 0.02988737 0.03121335 0.03523073 0.04249851 0.05235631 0.06184328 0.06685326 0.06537637
 0.05942097 0.05318328 0.04956009 0.0487502 0.04951046 0.05078392 0.05223981 0.05407481 0.05662018 0.05996528
 0.06394575 0.06855446 0.07413743 0.08095101 0.08863649 0.09637232 0.1035808 0.1103802 0.1173083 0.1246769
 0.1322442 0.1394519 0.1458677 0.1514045 0.1562405 0.1606236 0.1647272 0.1686261 0.1723476 0.1758785
 0.1790914 0.1817153 0.1834644 0.1842535 0.1843009 0.1840102 0.183736 0.183643 0.1837439 0.1840076
 0.1844112 0.1849387 0.1855776 0.1863135 0.1871184 0.1879539 0.1887865 0.1895907 0.1903484 0.1910548
 0.1917146 0.1923279 0.1928895 0.1934001 0.1938677 0.1943003 0.1947038 0.1950827 0.1954394 0.1957795
 0.1961107 0.1964312 0.1967288 0.196997 0.1972415 0.1974705 0.1976899 0.1979074 0.1981294 0.1983528
 0.1985703 0.1987771 0.1989722 0.1991597 0.1993507 0.199555 0.1997687 0.1999787 0.2001769 0.2003639
 0.2005464 0.2007329 0.2009302 0.2011393 0.2013576 0.2015799 0.201796 0.2019928 0.202167 0.2023322
 0.2025084 0.2027052 0.2029151 0.203121 0.2033159 0.2035106 0.2037182 0.203936 0.2041525 0.204365
 0.204579 0.2047955 0.2050125 0.2052275 0.2054305 0.2056046 0.2057454 0.205878 0.2060429 0.206262
 0.2065172 0.2067645 0.2069746 0.2071552 0.2073335 0.2075256 0.2077242 0.2079091 0.2080712 0.2082339
 0.2084371 0.2086899 0.2089592 0.2092139 0.2094553 0.2096938 0.2099304 0.2101681 0.2104066 0.2106204
 0.2107761 0.2108866 0.2110268 0.2112765 0.2116417 0.2120382 0.2123692 0.2126145 0.2128261 0.2130577
 0.213326 0.2136008 0.2137932 0.2138154 0.2137201 0.2137235 0.214009 0.2145413 0.2151235 0.2155972
 0.2159407 0.2162159 0.2164733 0.2167015 0.2168427 0.2168626 0.2168218 0.2168746 0.2171573 0.2176521
 0.2181946 0.2186389 0.2189654 0.2192164 0.2194168 0.2195809 0.2196802 0.2195839 0.2191963 0.2187205
 0.2186117 0.2191373 0.2200726 0.2209412 0.2214864 0.2218031 0.2220721 0.2223403 0.2225662 0.222659
 0.2223765 0.2214631 0.2201383 0.2192358 0.2195189 0.2209143 0.2226427 0.2239998 0.2248002 0.2252099
 0.2254496 0.2256486 0.2257463 0.225489 0.2247182 0.2237601 0.2233438 0.2239251 0.2251737 0.2263291
 0.2269767 0.2272635 0.2274884 0.2277647 0.2279436 0.2275728 0.2261507 0.2238742 0.2220144 0.2220226
 0.2241098 0.2269921 0.2291639 0.2301897 0.2305776 0.2306692 0.2301359 0.228571 0.2261059 0.2233498
 0.2211982 0.2207094 0.2223998 0.2253702 0.2278209 0.2288271 0.2291158 0.2298709 0.2313227 0.2327645
 0.2334695 0.233253 0.2323435 0.2309811 0.2293025 0.2277113 0.2271006 0.2282207 0.2307672 0.2334878
 0.2353357 0.2362628 0.2366812 0.2362415 0.233578 0.2279518 0.2213147 0.2177709 0.2199501 0.226255
 0.232578 0.2363425 0.2379136 0.2386613 0.239123 0.2388616 0.2367238 0.2314679 0.2237231 0.2172242
 0.216285 0.2215264 0.2291724 0.2345804 0.2353994 0.2318056 0.2256724 0.2200236 0.2177983 0.2200654
 0.2255546 0.2319108 0.2371076 0.240008 0.2403537 0.2386514 0.2361352 0.2344669 0.2345268 0.2351025
 0.2338164 0.2301331 0.226262 0.2239203 0.2216784 0.2175902 0.2134441 0.213582 0.2192601 0.2265619
 0.2308079 0.2313013 0.2304804 0.2294552 0.2260861 0.218054 0.207256 0.1998838 0.2010191 0.2093653
 0.218403 0.2227716 0.2225287 0.2212461 0.2212452 0.2212287 0.2181116 0.2110541 0.2035246 0.2003883
 0.2027235 0.2068506 0.2086839 0.2069886 0.2019494 0.1938588 0.185466 0.1828247 0.1901937 0.2048264
 0.2191143 0.2268444 0.2254746 0.2147858 0.1977764 0.1824873 0.1780831 0.1866392 0.2006159 0.2097937
 0.2093768 0.2008348 0.1875407 0.1724776 0.159639 0.1544554 0.1605464 0.1760546 0.1936522 0.20416
 0.2016215 0.1879663 0.1734754 0.1693856 0.1776256 0.1894497 0.1952234 0.1931723 0.188012 0.1848966
 0.1864534 0.1923025 0.1994534 0.2051194 0.2089372 0.209791 0.2028124 0.1852257 0.1640793 0.1516007
 0.1525035 0.1615751 0.173452 0.1874376 0.2011293 0.2071089 0.2013014 0.1906853 0.187351 0.1956655
 0.2085384 0.2161031 0.2154847 0.2113251 0.208614 0.2073795 0.2051682 0.2027833 0.2044884 0.2121247
 0.2218934 0.2285951 0.2310349 0.2315513 0.2320503 0.232562 0.2325752 0.2318987 0.2305845 0.2290686
 0.2280449 0.2276783 0.2274485 0.2269456 0.2258455 0.2226937 0.2152196 0.2035282 0.1921299 0.1863678
 0.186754 0.1893371 0.1915785 0.1938269 0.1938333 0.185219 0.1658943 0.1449582 0.1360764 0.144282
 0.1622322 0.1785817 0.1866715 0.1851051 0.1743637 0.1570107 0.1403938 0.1343423 0.1431533 0.1614705
 0.1800103 0.1935596 0.201565 0.2036973 0.1988715 0.1884025 0.1772674 0.1712569 0.173452 0.182873
 0.1948049 0.2020093 0.1982682 0.1845675 0.1718196 0.1728104 0.1887834 0.207364 0.2164715 0.2165559
 0.2156813 0.2169922 0.2171557 0.215174 0.2159254 0.2234784 0.235116 0.2440161 0.24525 0.2377409
 0.2236289 0.2087522 0.201126 0.204485 0.2139683 0.2213428 0.2229376 0.2191714 0.2097126 0.1955118
 0.1839244 0.1842809 0.1970779 0.212781 0.2226533 0.2267075 0.2297254 0.2330435 0.2329386 0.226267
 0.2157065 0.2081149 0.2077474 0.2125348 0.2176072 0.2204395 0.2208767 0.218216 0.2116467 0.2035781
 0.1996708 0.2039126 0.2144666 0.225358 0.2317943 0.2331615 0.2316328 0.2293472 0.2269701 0.2238631
 0.2195071 0.215349 0.2145218 0.2184985 0.2247469 0.2293331 0.2314271 0.233577 0.2377076 0.2424747
 0.2449068 0.2436479 0.2402413 0.2377767 0.2384092 0.2416532 0.244746 0.2450043 0.2423788 0.2397459
 0.2402603 0.2443424 0.2496202 0.2536252 0.2558038 0.2570043 0.2580276 0.2589266 0.2589681 0.2571865
 0.2537464 0.2507388 0.2506983 0.2540913 0.2588742 0.2626098 0.2644402 0.264951 0.2648278 0.2641404
 0.2627388 0.2609058 0.2593715 0.2587315 0.2590128 0.2598307 0.2607873 0.2616431 0.2622867 0.2627141
 0.2629992 0.2632048 0.2633503 0.2634595 0.2635549 0.2635902 0.2634967 0.263337 0.26331 0.2635327
 0.2638857 0.2641394 0.2641655 0.2639384 0.2634005 0.2624689 0.2611808 0.2597006 0.2581378 0.2564672
 0.2547446 0.2533627 0.2529401 0.2538505 0.2558644 0.2582879 0.2604401 0.2619925 0.2629525 0.2634731
 0.263721 0.2638282 0.263863 0.2638264 0.2636964 0.2634741 0.2631848 0.2628496 0.2624764 0.262084
 0.261714 0.2614027 0.2611389 0.2608632 0.2605163 0.2600815 0.259584 0.259062 0.2585388 0.2580001
 0.2573909 0.2566478 0.2557533 0.2547638 0.2537828 0.2528964 0.2521163 0.2513799 0.2506113 0.2497776
 0.2488754 0.2478841 0.2467816 0.2456197 0.2445349 0.2436462 0.2429529 0.2423496 0.2417187 0.2409849
 0.2401164 0.2391231 0.2380532 0.2369622 0.2358736 0.2347738 0.2336311 0.232409 0.2310794 0.229638
 0.2281054 0.2265111 0.2248858 0.2232535 0.2216031 0.2198608 0.2179006 0.2155837 0.212789 0.2094334
 0.2054973 0.2010501 0.1962482 0.1913001 0.1864128 0.1817508 0.1774308 0.173545 0.1701813 0.1674214
 0.1653242 0.1639154 0.1631976 0.1631705 0.1638352 0.165175 0.1671312 0.1695937 0.1724066 0.1753878
 0.1783578 0.1811709 0.1837474 0.1860969 0.1882947 0.1904019 0.1924051 0.1942438 0.1958793 0.1973124
 0.198551 0.1995953 0.2004533 0.2011495 0.2017169 0.2021888 0.2025946 0.2029567 0.2032837 0.2035688
 0.2038028 0.2039921 0.2041601 0.2043306 0.2045176 0.2047315 0.204983 0.205285 0.2056545 0.2061041
 0.2066195 0.2071652 0.2077194 0.2082905 0.2088949 0.2095415 0.21025 0.2110639 0.2120297 0.2131647
 0.2144451 0.2158168 0.2172105 0.2185493 0.2197542 0.2207589 0.2215221 0.22203 0.222294 0.2223521
 0.222257 0.2220518 0.2217578 0.2213846 0.2209381 0.2204207 0.2198394 0.2192123 0.2185561 0.2178707
 0.2171531 0.2164222 0.2157132 0.2150436 0.2143978 0.2137529 0.21311 0.2124884 0.2118968 0.2113236
 0.2107549 0.2101871 0.2096205 0.2090515 0.2084757 0.2078843 0.2072525 0.2065406 0.2057177 0.2047807
 0.203747 0.2026334 0.2014437 0.2001725 0.1988112 0.1973564 0.1958166 0.1942112 0.1925541 0.1908388
 0.1890393 0.1871335 0.1851361 0.1831133 0.1811556 0.1793279 0.1776405 0.1760614 0.1745531 0.1731044
 0.1717318 0.1704508 0.1692539 0.1681226 0.1670463 0.1660176 0.1650241 0.1640627 0.1631491 0.1623068
 0.1615561 0.1609122 0.1603753 0.1599245 0.1595319 0.1591895 0.1589197 0.1587594 0.1587205 0.1587626
 0.1588177 0.1588393 0.1588113 0.1587271 0.1585954 0.1584536 0.1583416 0.1582675 0.1582125 0.158144
 0.1580034 0.157701 0.1571406 0.1562567 0.1550391 0.1535309 0.1518063 0.1499625 0.1481292 0.1464417
 0.1449856 0.143791 0.1428698 0.1422058 0.1417228 0.1413263 0.1409914 0.1407825 0.1407818 0.1409928
 0.141293 0.1415091 0.1415737 0.1415929 0.1417426 0.142132 0.1427572 0.1435199 0.1442805 0.1449347
 0.1454461 0.1458094 0.1460304 0.1461429 0.1461828 0.1461477 0.1460225 0.1458198 0.1455607 0.1452518
 0.1448975 0.1444962 0.1440271 0.1434738 0.1428359 0.1421086 0.1412916 0.1403996 0.1394145 0.1382856
 0.1370567 0.1359402 0.1352044 0.1350208 0.1354039 0.1362158 0.1372462 0.1383451 0.1394126 0.1402453
 0.1405998 0.1405631 0.1407224 0.1417465 0.1437594 0.1462049 0.1483381 0.1497664 0.1504907 0.1506073
 0.1501686 0.1492342 0.1478375 0.1459367 0.1435317 0.1407408 0.1377006 0.134544 0.1314893 0.1287687
 0.126486 0.1246526 0.1232565 0.1223175 0.1219427 0.1217523 0.1198569 0.1138352 0.1044884 0.09751264
 0.09870338 0.1074342 0.1171016 0.1220948 0.122254 0.1205625 0.1190787 0.1181017 0.1175203 0.1174993
 0.1181981 0.1194748 0.1209092 0.1220659 0.1227757 0.1231074 0.1230518 0.1222455 0.1199141 0.1151717
 0.1077407 0.09852952 0.0893019 0.08165335 0.07630664 0.07314296 0.07155267 0.0707823 0.0702953 0.07002562
 0.07027753 0.07134858 0.07327336 0.07590342 0.07907666 0.08256479 0.08595046 0.08879371 0.09096247 0.09264518
 0.09401691 0.09503557 0.0955776 0.09562857 0.0952937 0.09471423 0.0940136 0.09325349 0.09238492 0.09129377
 0.08998656 0.08871812 0.08782682 0.08742407 0.08733581 0.0873413 0.08735251 0.08736604 0.08737187 0.08734494
 0.08727372 0.08720608 0.08727164 0.08758144 0.0880819 0.08857559 0.08890088 0.08905165 0.08912492 0.08915173
 0.08897566 0.08839892 0.08751881 0.08673882 0.08626333 0.08575975 0.08479109 0.08347492 0.08243024 0.08209652
 0.08232972 0.08266206 0.08275121 0.08254597 0.08222743 0.08210897 0.0824329 0.08308323 0.08358353 0.08354339
</values></Ydata></ScRf><Data_Parameters_AB><parameter name="DPF">1</parameter><parameter name="NPT">3497</parameter><parameter name="FXV">3996</parameter><parameter name="LXV">500</parameter><parameter name="CSF">1</parameter><parameter name="MXY">0.0744900926947594</parameter><parameter name="MNY">-0.101057164371014</parameter><parameter name="DAT">31/05/2022</parameter><parameter name="TIM">11:52:55.357 (GMT+2)</parameter><parameter name="DXU">WN</parameter></Data_Parameters_AB><AB__Qtest><MainReport name="Quality Test Report"><Header><Line><Legend>Test result ok/not ok [1/0]: </Legend><Value>0</Value></Line><Line><Legend>Method file: </Legend><Value>C:\Users\Public\Documents\Bruker\OPUS_8.2.28\QT\IRBT_v3_default.QT</Value></Line></Header><Matrix><Line><Legend></Legend><Legend>min</Legend><Legend>max</Legend><Legend>measured</Legend></Line><Line><Value>Absorption (X-Range 1):</Value><Value>0.400000</Value><Value>2.000000</Value><Value>0.124590</Value></Line><Line><Value>Noise (X-Range 4):</Value><Value></Value><Value>0.000300</Value><Value>0.000053</Value></Line><Line><Value>Signal/Noise (X-Range 2):</Value><Value>200.000000</Value><Value></Value><Value>34.993152</Value></Line><Line><Value>Signal/Noise (X-Range 3):</Value><Value>40.000000</Value><Value></Value><Value>35.766694</Value></Line><Line><Value>Water vapour (X-Range 5):</Value><Value></Value><Value>0.000300</Value><Value>0.000033</Value></Line><Line><Value>Signal/Water (X-Range 2):</Value><Value>100.000000</Value><Value></Value><Value>55.911426</Value></Line><Line><Value>Signal/Water (X-Range 3):</Value><Value>20.000000</Value><Value></Value><Value>57.147377</Value></Line><Line><Value>Fringes (X-Range 6):</Value><Value></Value><Value>0.000100</Value><Value>0.000052</Value></Line></Matrix></MainReport></AB__Qtest><Data_Parameters_ScSm><parameter name="DPF">1</parameter><parameter name="NPT">1814</parameter><parameter name="FXV">3996.33169228125</parameter><parameter name="LXV">499.541461535156</parameter><parameter name="CSF">1</parameter><parameter name="MXY">0.289377212524414</parameter><parameter name="MNY">0.0377164930105209</parameter><parameter name="DAT">31/05/2022</parameter><parameter name="TIM">11:52:55.357 (GMT+2)</parameter><parameter name="DXU">WN</parameter></Data_Parameters_ScSm><Data_Parameters_ScRf><parameter name="DPF">1</parameter><parameter name="NPT">1820</parameter><parameter name="FXV">4004.04661832813</parameter><parameter name="LXV">495.683998511719</parameter><parameter name="CSF">1</parameter><parameter name="MXY">0.264950960874557</parameter><parameter name="MNY">0.0298873707652092</parameter><parameter name="DAT">31/05/2022</parameter><parameter name="TIM">11:52:28.539 (GMT+2)</parameter><parameter name="DXU">WN</parameter></Data_Parameters_ScRf><Optic_Parameters_Rf><parameter name="APR">0</parameter><parameter name="APT">Open</parameter><parameter name="BMS">KBr</parameter><parameter name="DTC">RT-DLaTGS_IR-Biotyper [Microplate reader]</parameter><parameter name="HPF">0</parameter><parameter name="LPF">10.0</parameter><parameter name="LPV">4000</parameter><parameter name="PGR">0</parameter><parameter name="RCH">Module port</parameter><parameter name="RDX">0</parameter><parameter name="SRC">MIR</parameter><parameter name="VEL">10.0</parameter><parameter name="SON">Off</parameter></Optic_Parameters_Rf><Acquisition_Parameters_Rf><parameter name="ADT">1</parameter><parameter name="AQM">DD</parameter><parameter name="CFE">0</parameter><parameter name="COR">0</parameter><parameter name="DEL">0</parameter><parameter name="DLY">0</parameter><parameter name="HFW">8000</parameter><parameter name="LFW">0</parameter><parameter name="NSR">32</parameter><parameter name="PLF">AB</parameter><parameter name="RES">6</parameter><parameter name="RGN">-1</parameter><parameter name="STR">0</parameter><parameter name="TCL">MakeCompatibleScalar (0, {WSV=1.000000, ARV=0});</parameter><parameter name="TDL">37</parameter><parameter name="RPO">0</parameter></Acquisition_Parameters_Rf><FT_-_Parameters_Rf><parameter name="APF">B3</parameter><parameter name="HFQ">500</parameter><parameter name="LFQ">4000</parameter><parameter name="NLI">0</parameter><parameter name="PHR">24</parameter><parameter name="PHZ">ML</parameter><parameter name="SPZ">NO</parameter><parameter name="ZFF">1</parameter></FT_-_Parameters_Rf><Optic_Parameters_><parameter name="APR">0</parameter><parameter name="APT">Open</parameter><parameter name="BMS">KBr</parameter><parameter name="CHN">Module port</parameter><parameter name="DTC">RT-DLaTGS_IR-Biotyper [Microplate reader]</parameter><parameter name="HPF">0</parameter><parameter name="LPF">10.0</parameter><parameter name="LPV">4000</parameter><parameter name="PGN">0</parameter><parameter name="RDX">0</parameter><parameter name="SRC">MIR</parameter><parameter name="VEL">10.0</parameter><parameter name="SON">Off</parameter></Optic_Parameters_><FT_-_Parameters_><parameter name="APF">B3</parameter><parameter name="HFQ">500</parameter><parameter name="LFQ">4000</parameter><parameter name="NLI">0</parameter><parameter name="PHR">24</parameter><parameter name="PHZ">ML</parameter><parameter name="SPZ">NO</parameter><parameter name="ZFF">1</parameter></FT_-_Parameters_><Acquisition_Parameters_><parameter name="ADT">1</parameter><parameter name="AQM">DD</parameter><parameter name="CFE">0</parameter><parameter name="COR">0</parameter><parameter name="DEL">0</parameter><parameter name="DLY">0</parameter><parameter name="HFW">8000</parameter><parameter name="LFW">0</parameter><parameter name="NSS">32</parameter><parameter name="PLF">AB</parameter><parameter name="RES">6</parameter><parameter name="SOT">0</parameter><parameter name="TCL">MakeCompatibleScalar (0, {WSV=1.000000, ARV=0});</parameter><parameter name="TDL">37</parameter><parameter name="SPO">0</parameter><parameter name="SGN">-1</parameter></Acquisition_Parameters_><Instrument_Parameters_Rf><parameter name="HFL">15800.168544</parameter><parameter name="LFL">0</parameter><parameter name="LWN">15800.168544</parameter><parameter name="ABP">32197</parameter><parameter name="SSP">1</parameter><parameter name="ARG">2</parameter><parameter name="ASG">2</parameter><parameter name="ASS">32</parameter><parameter name="GFW">16</parameter><parameter name="GBW">16</parameter><parameter name="BFW">0</parameter><parameter name="BBW">0</parameter><parameter name="PKA">7263</parameter><parameter name="PKL">4996</parameter><parameter name="PRA">7447</parameter><parameter name="PRL">5001</parameter><parameter name="P2A">1</parameter><parameter name="P2L">1</parameter><parameter name="P2R">1</parameter><parameter name="P2K">1</parameter><parameter name="DAQ">0</parameter><parameter name="AG2">1</parameter><parameter name="SSM">1</parameter><parameter name="RSN">25511</parameter><parameter name="CRR">0</parameter><parameter name="SRT">1653997948.539</parameter><parameter name="DUR">19.6379852294922</parameter><parameter name="TSC">28.9</parameter><parameter name="MVD">0.216468051075935</parameter><parameter name="AN1">0.225826870830844</parameter><parameter name="AN2">0</parameter><parameter name="VSN">2.485 Apr  4 2017</parameter><parameter name="SRN">0085</parameter><parameter name="CAM">0</parameter><parameter name="INS">IR-Biotyper</parameter><parameter name="FOC">69</parameter><parameter name="RDY">1</parameter><parameter name="ARS">32</parameter></Instrument_Parameters_Rf><Sample_Parameters_><parameter name="BLD"></parameter><parameter name="CNM">Admin</parameter><parameter name="CPY"></parameter><parameter name="DPM"></parameter><parameter name="EXP">IRBT_v3_32Scans.XPM</parameter><parameter name="LCT"></parameter><parameter name="SFM">Microplate, HTS-XT</parameter><parameter name="SNM">220531-1021(v.3)_FBG21M (D_1)_A11_b638753a-cdc4-4dc8-a4f8-a24131f4909c.0</parameter><parameter name="XPP">C:\Users\Public\Documents\Bruker\OPUS_8.2.28\XPM</parameter><parameter name="IST">OK</parameter><parameter name="CPG">1252</parameter><parameter name="UID">8a10c35c-cfab-4251-9417-ea84bc3d9173</parameter></Sample_Parameters_><Instrument_Parameters_><parameter name="HFL">15800.168544</parameter><parameter name="LFL">0</parameter><parameter name="LWN">15800.168544</parameter><parameter name="ABP">32197</parameter><parameter name="SSP">1</parameter><parameter name="ASG">2</parameter><parameter name="ARG">2</parameter><parameter name="ASS">32</parameter><parameter name="GFW">16</parameter><parameter name="GBW">16</parameter><parameter name="BFW">0</parameter><parameter name="BBW">0</parameter><parameter name="PKA">8067</parameter><parameter name="PKL">4988</parameter><parameter name="PRA">8287</parameter><parameter name="PRL">4993</parameter><parameter name="P2A">1</parameter><parameter name="P2L">1</parameter><parameter name="P2R">1</parameter><parameter name="P2K">1</parameter><parameter name="DAQ">0</parameter><parameter name="AG2">1</parameter><parameter name="SSM">1</parameter><parameter name="RSN">13381</parameter><parameter name="CRR">0</parameter><parameter name="SRT">1653997975.357</parameter><parameter name="DUR">19.6379852294922</parameter><parameter name="TSC">28.9</parameter><parameter name="MVD">0.544885396957397</parameter><parameter name="AN1">0.22580436638337</parameter><parameter name="AN2">0</parameter><parameter name="VSN">2.485 Apr  4 2017</parameter><parameter name="SRN">0085</parameter><parameter name="CAM">0</parameter><parameter name="INS">IR-Biotyper</parameter><parameter name="FOC">69</parameter><parameter name="RDY">1</parameter></Instrument_Parameters_><History/></OPUSDataFile>
