<?xml version="1.0" encoding="UTF-8" ?>
<OPUSDataFile><AB><Ydata ylabel="Absorbance Units"><values byteorder="INTEL" format="FLOAT32" numvalues="3497"> -0.05580815 -0.05585343 -0.05590036 -0.05595031 -0.05598184 -0.05599386 -0.05598297 -0.05595039 -0.05590999 -0.05586404
 -0.05583275 -0.05581669 -0.05582993 -0.05586869 -0.05593291 -0.05601449 -0.0561012 -0.05618501 -0.05625171 -0.05629884
 -0.056318 -0.05631622 -0.05629266 -0.05626247 -0.05623038 -0.0562092 -0.05620429 -0.05621465 -0.056242 -0.0562747
 -0.05631178 -0.05634531 -0.0563748 -0.05640062 -0.05642274 -0.05644131 -0.05645568 -0.05646157 -0.05645914 -0.05644625
 -0.05642458 -0.05639694 -0.05636479 -0.05633184 -0.05629854 -0.05626645 -0.05623667 -0.05621031 -0.05618875 -0.05617343
 -0.05616347 -0.05615971 -0.05615734 -0.0561557 -0.05614909 -0.0561361 -0.05611622 -0.05608872 -0.05606219 -0.05603707
 -0.05602537 -0.05602731 -0.0560492 -0.05608972 -0.05614476 -0.05621184 -0.05628021 -0.05634759 -0.05640282 -0.0564461
 -0.05647144 -0.0564837 -0.05648538 -0.0564827 -0.05648303 -0.05648449 -0.05648987 -0.0564895 -0.05647947 -0.05645723
 -0.05641922 -0.05637744 -0.05633236 -0.05630063 -0.05628382 -0.05629468 -0.05633401 -0.05640667 -0.05651144 -0.05663486
 -0.05677169 -0.05688257 -0.05696424 -0.05697823 -0.05693729 -0.0568497 -0.05673582 -0.05663617 -0.05655508 -0.05651647
 -0.05650877 -0.05653245 -0.05657025 -0.05661356 -0.05664819 -0.05666501 -0.05666506 -0.05664456 -0.05661995 -0.05659314
 -0.05657835 -0.05657815 -0.05658769 -0.05660689 -0.05662026 -0.0566279 -0.05662757 -0.05662173 -0.05662515 -0.05663869
 -0.05667508 -0.05672963 -0.05679887 -0.05687455 -0.05694049 -0.05699357 -0.05702164 -0.05703122 -0.05702363 -0.05700469
 -0.05697857 -0.05694634 -0.05690775 -0.05686969 -0.05683174 -0.05681081 -0.05680944 -0.0568415 -0.05691024 -0.05700458
 -0.05712447 -0.05720873 -0.05725484 -0.05720771 -0.0570784 -0.05691129 -0.05671749 -0.0565646 -0.05644966 -0.05639994
 -0.05640634 -0.05646965 -0.05657093 -0.05669303 -0.0568072 -0.05688248 -0.05690788 -0.05685915 -0.05677165 -0.0566489
 -0.05653994 -0.05646209 -0.05642382 -0.05643228 -0.05646277 -0.05651351 -0.05656502 -0.05661591 -0.056666 -0.05671539
 -0.05676694 -0.0568189 -0.05686157 -0.05689208 -0.05689279 -0.05686558 -0.05680398 -0.05671661 -0.05661467 -0.05650664
 -0.0564074 -0.05632051 -0.05625353 -0.05620798 -0.0561862 -0.05619018 -0.05622206 -0.05627908 -0.05636347 -0.05645897
 -0.056565 -0.05665587 -0.0567289 -0.05676576 -0.05676508 -0.05672454 -0.05664477 -0.05653524 -0.05639775 -0.05624768
 -0.05608772 -0.05593575 -0.05579479 -0.05568201 -0.05559733 -0.05555033 -0.05553419 -0.05554699 -0.05557514 -0.05560818
 -0.05563192 -0.0556341 -0.05561182 -0.05555806 -0.05548703 -0.05539869 -0.05531777 -0.05524828 -0.05520893 -0.05520312
 -0.05523032 -0.05529093 -0.05536789 -0.05545992 -0.05554396 -0.05561961 -0.05567179 -0.05570338 -0.05571721 -0.05571694
 -0.055714 -0.05570852 -0.05570617 -0.05570536 -0.05570441 -0.05570785 -0.05571567 -0.05574225 -0.05579544 -0.05588672
 -0.05602778 -0.05620134 -0.05641228 -0.0566057 -0.05677309 -0.05687212 -0.0568934 -0.05686165 -0.05677768 -0.05667624
 -0.0565571 -0.05641316 -0.05624553 -0.05605589 -0.05585266 -0.05567168 -0.05551688 -0.05542028 -0.05537242 -0.05537596
 -0.05540809 -0.05544061 -0.05546079 -0.05544157 -0.05540051 -0.05533892 -0.05527822 -0.05523057 -0.05519538 -0.05517851
 -0.05515621 -0.05512575 -0.05506441 -0.05496736 -0.05484455 -0.05469582 -0.05455782 -0.0544322 -0.05434942 -0.05430816
 -0.05431646 -0.05436755 -0.05444205 -0.05452737 -0.05457834 -0.05459307 -0.05454119 -0.05444279 -0.05431184 -0.05416234
 -0.05401523 -0.05386423 -0.05371225 -0.05354884 -0.05336745 -0.05317374 -0.052965 -0.05276298 -0.05257102 -0.05240628
 -0.05227273 -0.05216207 -0.05207467 -0.05197241 -0.05185369 -0.05168531 -0.05147285 -0.05124068 -0.05099613 -0.05078654
 -0.05060501 -0.0504573 -0.050334 -0.05021935 -0.05011078 -0.0500004 -0.04988292 -0.04975416 -0.04960083 -0.0494132
 -0.04918533 -0.0489109 -0.04859515 -0.04823913 -0.04784276 -0.04740475 -0.04693426 -0.04643035 -0.04592169 -0.04541017
 -0.04491517 -0.04443699 -0.04397768 -0.04353754 -0.04312051 -0.04272632 -0.04235866 -0.04201145 -0.04167079 -0.04133023
 -0.04096928 -0.0405908 -0.04019181 -0.03977133 -0.03933248 -0.03885784 -0.03833423 -0.03776247 -0.03713135 -0.03648119
 -0.03582147 -0.03517969 -0.03456452 -0.03397606 -0.03341566 -0.03287689 -0.03235942 -0.03185725 -0.0313702 -0.03089584
 -0.03043411 -0.0299864 -0.02954797 -0.02910361 -0.02864028 -0.02811023 -0.02751535 -0.02682516 -0.02607821 -0.02531361
 -0.02455682 -0.02385216 -0.023185 -0.02256114 -0.02195606 -0.02136037 -0.02075901 -0.02014462 -0.01951605 -0.01887133
 -0.01821632 -0.017552 -0.01687731 -0.01619253 -0.01548471 -0.01475362 -0.01399501 -0.01321191 -0.01242618 -0.01164057
 -0.01087993 -0.01014143 -0.009430191 -0.008741857 -0.008071435 -0.007413688 -0.006761476 -0.006106323 -0.005436177 -0.004752353
 -0.004048248 -0.003341486 -0.002640214 -0.001948075 -0.001273607 -0.00058581 0.0001197292 0.000868409 0.001667678 0.002489493
 0.003333096 0.004151136 0.004942535 0.005695926 0.006413909 0.007111582 0.00779107 0.008469365 0.00914665 0.009833073
 0.01052557 0.01122295 0.01192277 0.01261817 0.0133173 0.0140225 0.01474938 0.0155111 0.01630799 0.01714839
 0.0180082 0.01888265 0.01975064 0.02060625 0.02144442 0.02226347 0.02306564 0.02385078 0.02462695 0.02539472
 0.02616636 0.02694219 0.02773047 0.02853057 0.02934494 0.03017137 0.0310065 0.0318447 0.0326739 0.03348919
 0.03427665 0.03504113 0.03578035 0.03650559 0.03722347 0.03794141 0.03866394 0.03939595 0.0401398 0.04089786
 0.04167243 0.04245465 0.04324447 0.04402633 0.04479886 0.04555778 0.04630331 0.04704487 0.04778301 0.04852681
 0.04927532 0.05002961 0.05078742 0.05154301 0.05229444 0.05303412 0.05376421 0.05448393 0.05519741 0.05591056
 0.05661869 0.05732215 0.05801079 0.05867744 0.05932703 0.05995674 0.0605864 0.06122018 0.06186716 0.06252988
 0.06320291 0.06388594 0.06457755 0.06527764 0.06598601 0.06670114 0.06740988 0.06811075 0.0687888 0.06944651
 0.07008281 0.07070174 0.07131078 0.0719124 0.07251293 0.07311385 0.07371963 0.07432783 0.07493988 0.07554743
 0.07614741 0.07673282 0.07729968 0.07785002 0.07838195 0.07890851 0.07942981 0.07996901 0.08052787 0.08112332
 0.08175528 0.08240921 0.08308138 0.0837317 0.08436003 0.08494216 0.08548564 0.08600011 0.08649224 0.08698127
 0.08746649 0.08795557 0.08844429 0.08893128 0.08941313 0.08988645 0.09035185 0.09080711 0.09126034 0.091713
 0.09217397 0.09264645 0.09312829 0.09362064 0.09411078 0.09459804 0.09506717 0.09551743 0.09593675 0.09632631
 0.09668992 0.09703258 0.09738029 0.0977359 0.09812481 0.09853917 0.09897706 0.0994259 0.09986591 0.1002927
 0.1006935 0.1010721 0.1014269 0.1017629 0.1020815 0.1023886 0.1026862 0.1029784 0.103267 0.1035506
 0.103829 0.1041028 0.1043717 0.1046479 0.1049319 0.1052362 0.10556 0.1059025 0.1062616 0.1066272
 0.1069966 0.1073574 0.1077043 0.1080208 0.1083036 0.1085381 0.108734 0.1088918 0.109033 0.1091726
 0.1093237 0.1094997 0.1096906 0.1098978 0.1101018 0.1102972 0.1104819 0.1106532 0.1108268 0.1110039
 0.1111884 0.1113796 0.1115545 0.1117116 0.1118253 0.1118979 0.1119273 0.1119189 0.1118865 0.1118352
 0.1117801 0.1117279 0.1116945 0.1116847 0.1117118 0.1117689 0.1118571 0.1119625 0.1120773 0.1121985
 0.1123227 0.1124547 0.1125976 0.1127405 0.1128843 0.1129994 0.1130833 0.1131153 0.1130946 0.113028
 0.1129178 0.1127876 0.1126385 0.1124877 0.1123349 0.1121864 0.1120459 0.1119229 0.1118247 0.1117689
 0.1117505 0.1117773 0.1118231 0.1118739 0.1119052 0.1118969 0.1118558 0.1117758 0.1116864 0.1115939
 0.1115141 0.111452 0.1113956 0.1113447 0.1112764 0.1111894 0.1110681 0.1109131 0.1107231 0.1105023
 0.110268 0.1100286 0.109818 0.1096441 0.109543 0.1095087 0.1095558 0.1096526 0.109779 0.10989
 0.1099448 0.1099266 0.1098065 0.1096239 0.1093789 0.1091363 0.1089114 0.1087381 0.1086255 0.1085697
 0.1085712 0.1086259 0.1087339 0.1089026 0.1091294 0.1093965 0.1096928 0.1099537 0.1101689 0.1102654
 0.1102546 0.1101161 0.1098906 0.1096255 0.1093642 0.1091761 0.1090621 0.1090574 0.1091052 0.109194
 0.1092508 0.1092456 0.1091479 0.1089381 0.1086499 0.1082809 0.1079012 0.1075163 0.1071824 0.1069019
 0.1066832 0.1065231 0.1063932 0.1062912 0.10619 0.1060939 0.106002 0.1059199 0.1058624 0.1058229
 0.1058039 0.1057802 0.1057298 0.1056238 0.1054305 0.1051487 0.1047613 0.1043084 0.103795 0.1032752
 0.1027623 0.1022883 0.1018609 0.1014867 0.1011674 0.1008961 0.1006722 0.1004677 0.1002796 0.1000622
 0.09981696 0.09952212 0.09919007 0.09885026 0.09851158 0.09821492 0.09794475 0.09770039 0.09745146 0.09716162
 0.09682307 0.09640827 0.09595432 0.09546472 0.09500068 0.09458515 0.09425152 0.09402002 0.09385478 0.09375998
 0.0936456 0.09350438 0.09326623 0.092928 0.09249949 0.09198652 0.09145763 0.09091632 0.09041904 0.08995934
 0.089546 0.08917074 0.08881831 0.08848682 0.08816724 0.08785859 0.08755967 0.08726025 0.0869548 0.08662808
 0.08626851 0.08587673 0.08544534 0.08500183 0.08454967 0.084119 0.08371722 0.08334202 0.08299544 0.08264492
 0.08228888 0.08190352 0.08149022 0.08105688 0.0806071 0.08016545 0.07973198 0.07932141 0.07892834 0.07854892
 0.07817562 0.07779454 0.07740251 0.07698941 0.07655914 0.0761108 0.07565042 0.0751808 0.07470611 0.07422766
 0.07375112 0.07327737 0.07281429 0.07236402 0.07192476 0.0714973 0.07106667 0.07063213 0.07018381 0.06972285
 0.06925999 0.06879728 0.06835309 0.06792525 0.06751743 0.06712363 0.0667318 0.06633828 0.06593128 0.06551172
 0.06507564 0.06462658 0.06416333 0.06369793 0.0632313 0.06279153 0.06238758 0.06204414 0.06177524 0.06155684
 0.06139442 0.06120623 0.06098619 0.06065829 0.0602185 0.05967025 0.0590203 0.05835143 0.05767224 0.05707741
 0.05656205 0.05616662 0.05586574 0.0556271 0.05541545 0.05515762 0.05484066 0.05441007 0.05390408 0.05332471
 0.05273883 0.0521866 0.05169288 0.05128635 0.05092242 0.05059712 0.050263 0.04990599 0.04954762 0.04918578
 0.04888706 0.04865493 0.04851329 0.04845686 0.04842652 0.04841167 0.04831778 0.04814607 0.04784409 0.04743401
 0.04693709 0.04638311 0.04583292 0.04529443 0.04480677 0.04434623 0.04390718 0.04346821 0.04300854 0.04254685
 0.04208129 0.04164798 0.0412603 0.04091356 0.04061331 0.04031431 0.04001191 0.03968529 0.03933308 0.03899042
 0.0386598 0.038385 0.03816213 0.03799213 0.03786544 0.03774843 0.03763596 0.03749801 0.03733753 0.03714537
 0.0369278 0.03669005 0.03643211 0.03615998 0.03585798 0.03552203 0.03512984 0.03466799 0.03414231 0.0335432
 0.03292748 0.0322989 0.03173156 0.03123491 0.03083198 0.03052466 0.03025748 0.03002548 0.02974591 0.02942083
 0.02901598 0.02854679 0.02804912 0.02753824 0.02707198 0.02664777 0.02629144 0.02598341 0.02571227 0.02545869
 0.02520232 0.02493664 0.02465074 0.02435136 0.02403646 0.02372244 0.02341257 0.0231212 0.02285349 0.02259946
 0.02236054 0.02209982 0.02181527 0.02148215 0.02110252 0.02070029 0.02028041 0.01988915 0.01952123 0.01918541
 0.01886602 0.01852614 0.01816343 0.01774965 0.01730955 0.0168582 0.01642428 0.01604023 0.01570739 0.01543938
 0.01521532 0.01502948 0.01486977 0.01472985 0.01461662 0.01453079 0.01447588 0.01445422 0.01444195 0.01443801
 0.01439348 0.01430617 0.01413339 0.01387901 0.01354196 0.01313477 0.01270109 0.01225402 0.01184819 0.01148712
 0.01120236 0.01098875 0.01085303 0.01078732 0.01078965 0.01084672 0.01095463 0.01108962 0.01124447 0.01139222
 0.01152397 0.01162723 0.01169594 0.01174477 0.01177248 0.01181946 0.01188788 0.01202661 0.01223679 0.01254545
 0.01294752 0.01342689 0.01397358 0.0145415 0.01512498 0.01568502 0.01622589 0.01673675 0.01722496 0.01769631
 0.0181524 0.0185969 0.0190286 0.01944567 0.01985508 0.02025735 0.02066558 0.02108455 0.02151589 0.02196304
 0.02240692 0.02284697 0.02325495 0.02362914 0.02395001 0.02421721 0.02442357 0.02456904 0.02464914 0.02466423
 0.02461001 0.02449381 0.02432577 0.02412682 0.02393391 0.0237718 0.02368786 0.02368601 0.02379183 0.02397944
 0.02424296 0.0245543 0.02489739 0.0252724 0.02567357 0.02612093 0.02661753 0.02717452 0.0277942 0.02847243
 0.02920917 0.02999521 0.03082979 0.0316995 0.03260349 0.03352693 0.03447412 0.03545006 0.03646735 0.03756249
 0.03873913 0.0400357 0.04140761 0.04284623 0.04422176 0.04545629 0.04634904 0.04677439 0.04656999 0.0456176
 0.04394791 0.04150457 0.03856593 0.03514531 0.03164148 0.02809514 0.02481526 0.02182492 0.0192245 0.01701017
 0.01511719 0.01353429 0.0121556 0.01097754 0.009932564 0.009018557 0.008200867 0.007467553 0.006784325 0.006136623
 0.005489966 0.004846451 0.004191585 0.003546938 0.002920146 0.002331036 0.001791493 0.001302846 0.0008687703 0.0004812138
 0.0001385059 -0.0001598077 -0.0004147314 -0.0006160625 -0.0007632299 -0.000846509 -0.0008665632 -0.0008323112 -0.0007493426 -0.000658364
 -0.0005683299 -0.0005378713 -0.0005687213 -0.0007002287 -0.0009169732 -0.001215085 -0.001565149 -0.001932653 -0.002286709 -0.002590874
 -0.002822916 -0.002959787 -0.002992104 -0.002911361 -0.00271371 -0.002400272 -0.001950419 -0.001364615 -0.0005971798 0.0003598166
 0.001511474 0.00286206 0.004248977 0.005652373 0.006706126 0.007385202 0.007314236 0.006528907 0.004937587 0.002663892
 -3.304529E-05 -0.003016128 -0.005910692 -0.008668818 -0.01106201 -0.01314905 -0.01489559 -0.01639421 -0.01769318 -0.01884751
 -0.01989374 -0.02084512 -0.02171161 -0.02249721 -0.02320275 -0.02383824 -0.02440411 -0.02491576 -0.02537402 -0.02579867
 -0.02619084 -0.02657121 -0.02694029 -0.02731238 -0.02768586 -0.02806323 -0.02843975 -0.02880512 -0.02915345 -0.02946748
 -0.02974889 -0.02998848 -0.03020265 -0.03039978 -0.03060181 -0.03082658 -0.03107883 -0.03137007 -0.03167645 -0.03199695
 -0.0322946 -0.03256156 -0.03277941 -0.03294273 -0.03306982 -0.03316098 -0.03325623 -0.03335693 -0.03348732 -0.03364456
 -0.03381892 -0.03400712 -0.03418816 -0.03436586 -0.03453856 -0.03471412 -0.03490856 -0.03512102 -0.03536059 -0.0356136
 -0.03587251 -0.036122 -0.03634968 -0.03655005 -0.03671627 -0.03685419 -0.03696218 -0.0370557 -0.0371356 -0.03722509
 -0.03732691 -0.03745798 -0.03762012 -0.03780702 -0.03801756 -0.03822682 -0.0384342 -0.03862248 -0.03879483 -0.03895547
 -0.03910743 -0.03926246 -0.03941857 -0.03957839 -0.03973692 -0.03988879 -0.0400303 -0.04015638 -0.04026483 -0.04035274
 -0.04041981 -0.0404631 -0.040492 -0.04050564 -0.04052665 -0.04055825 -0.04062256 -0.04072384 -0.04086247 -0.04103941
 -0.04123056 -0.04143452 -0.04162411 -0.04179992 -0.0419535 -0.04208796 -0.0422123 -0.04232812 -0.04244535 -0.04256159
 -0.04267751 -0.04278911 -0.04289087 -0.04298169 -0.04305729 -0.04312202 -0.04317576 -0.04322799 -0.04328151 -0.04334766
 -0.04343015 -0.04353663 -0.04367007 -0.04382859 -0.0440133 -0.04421146 -0.0444225 -0.0446285 -0.04482867 -0.04500936
 -0.04517082 -0.04530812 -0.045423 -0.04551921 -0.04560062 -0.04567884 -0.04575913 -0.04585782 -0.04597541 -0.04612214
 -0.04628807 -0.04646977 -0.04665209 -0.04682361 -0.04697811 -0.04710783 -0.04722086 -0.04731709 -0.04740869 -0.04749821
 -0.04759235 -0.04769246 -0.0477994 -0.04791341 -0.04803293 -0.0481578 -0.04828459 -0.0484127 -0.04853606 -0.048654
 -0.04876001 -0.04885472 -0.04893561 -0.04900591 -0.04906994 -0.04913214 -0.04920005 -0.04927681 -0.04936819 -0.04947474
 -0.04959881 -0.04973884 -0.04989563 -0.05006396 -0.05024376 -0.05042462 -0.050605 -0.0507745 -0.05093129 -0.05107267
 -0.05119807 -0.05131302 -0.05141789 -0.05152091 -0.05162248 -0.05172954 -0.0518423 -0.05196587 -0.05209948 -0.05224477
 -0.05239814 -0.0525544 -0.0527081 -0.05284921 -0.05297583 -0.05308073 -0.05317003 -0.05324424 -0.05331347 -0.05338282
 -0.05345683 -0.05353872 -0.05362588 -0.05371826 -0.05381349 -0.05391108 -0.05401173 -0.0541155 -0.05422159 -0.05432991
 -0.05443826 -0.05454689 -0.05465688 -0.05476865 -0.05488516 -0.05500541 -0.0551281 -0.05525184 -0.05537254 -0.0554913
 -0.05560757 -0.05572372 -0.05584289 -0.05596323 -0.05608563 -0.05620402 -0.0563154 -0.05641761 -0.05650802 -0.05659296
 -0.0566728 -0.05675588 -0.05684382 -0.05693695 -0.05703568 -0.05713218 -0.05722613 -0.05731181 -0.05738992 -0.05746393
 -0.05753505 -0.0576111 -0.05769176 -0.05778049 -0.05787545 -0.05797455 -0.05807658 -0.05817914 -0.05828125 -0.05838186
 -0.0584781 -0.0585677 -0.05864914 -0.05871964 -0.05878494 -0.05884503 -0.05891058 -0.05898434 -0.05906965 -0.05916823
 -0.05927164 -0.05937949 -0.05948248 -0.05958039 -0.05967369 -0.05976283 -0.05985297 -0.05994323 -0.0600325 -0.06011899
 -0.06019592 -0.06026422 -0.06032133 -0.06037192 -0.06042122 -0.06047343 -0.06053553 -0.06060641 -0.06068862 -0.06077597
 -0.06086696 -0.06095415 -0.06103476 -0.06110501 -0.06116269 -0.0612122 -0.06125296 -0.06129739 -0.06134631 -0.06141106
 -0.06149193 -0.06158874 -0.06170023 -0.06181487 -0.06193117 -0.06203586 -0.0621289 -0.0622028 -0.06225947 -0.06229807
 -0.06232347 -0.06234129 -0.06235795 -0.06238214 -0.06241662 -0.0624673 -0.06252949 -0.06260315 -0.06268141 -0.06276193
 -0.06284097 -0.06291751 -0.06298883 -0.0630546 -0.06311154 -0.06315921 -0.06319885 -0.06323066 -0.06326151 -0.06329154
 -0.06332499 -0.0633611 -0.0633979 -0.06343576 -0.06347381 -0.06351493 -0.06356473 -0.06362525 -0.06370313 -0.0637952
 -0.06390207 -0.06401643 -0.0641337 -0.064248 -0.06435478 -0.0644538 -0.06454361 -0.06462742 -0.0647056 -0.06478114
 -0.06485448 -0.06492753 -0.06500045 -0.06507492 -0.06515095 -0.0652277 -0.06530474 -0.06537735 -0.06544538 -0.06550498
 -0.06555736 -0.06560411 -0.06564663 -0.06568873 -0.06573106 -0.06577596 -0.06582418 -0.06587698 -0.06593577 -0.06600226
 -0.06607606 -0.06615802 -0.0662451 -0.06633692 -0.06642924 -0.06652146 -0.06660867 -0.06669025 -0.06676164 -0.06682222
 -0.06687243 -0.06691238 -0.06694889 -0.06698248 -0.0670208 -0.06706361 -0.06711359 -0.06717017 -0.06723289 -0.06730152
 -0.06737567 -0.06745421 -0.06753623 -0.06761813 -0.06769619 -0.06776698 -0.0678258 -0.06787494 -0.0679125 -0.06794818
 -0.06798414 -0.06803028 -0.0680902 -0.06816337 -0.06825126 -0.06834242 -0.06843622 -0.06852032 -0.06859419 -0.06865433
 -0.06870145 -0.0687416 -0.06877594 -0.06881387 -0.06885509 -0.0689045 -0.06895927 -0.06901596 -0.06907159 -0.0691191
 -0.06916009 -0.06919219 -0.06922195 -0.06925327 -0.06929094 -0.06933966 -0.06939624 -0.06946165 -0.06952769 -0.06959235
 -0.06965213 -0.06970549 -0.06975804 -0.06980997 -0.06986931 -0.06993638 -0.07001047 -0.0700906 -0.07016593 -0.07023587
 -0.07029071 -0.07033262 -0.07036304 -0.07038561 -0.07040935 -0.0704356 -0.07047106 -0.07051338 -0.07056306 -0.07061606
 -0.07066961 -0.07072097 -0.07076767 -0.07080995 -0.07084693 -0.07088142 -0.07091379 -0.07094686 -0.07098119 -0.07101787
 -0.07105714 -0.0710981 -0.0711407 -0.07118198 -0.07122187 -0.0712581 -0.07129169 -0.07132594 -0.07136361 -0.07141521
 -0.07148318 -0.07157885 -0.07170098 -0.07185368 -0.07203201 -0.0722317 -0.07245075 -0.07268356 -0.07293937 -0.0732192
 -0.07353891 -0.07390615 -0.07432179 -0.07479096 -0.07528993 -0.07581622 -0.07634864 -0.07688366 -0.07743504 -0.07800335
 -0.07860459 -0.07923285 -0.07983292 -0.08038776 -0.08077258 -0.08098368 -0.08093199 -0.08064891 -0.08014958 -0.07949122
 -0.07876375 -0.07801902 -0.07734915 -0.07677077 -0.07632695 -0.07600947 -0.07582569 -0.07576164 -0.07581817 -0.07596631
 -0.07620775 -0.07647356 -0.07675718 -0.07697956 -0.07713009 -0.07720795 -0.07721309 -0.07720072 -0.07717166 -0.07715143
 -0.07713754 -0.07712875 -0.07712493 -0.07712679 -0.07713224 -0.07713915 -0.07714017 -0.07712326 -0.07708228 -0.07700484
 -0.07689185 -0.07673815 -0.07655267 -0.07633584 -0.0761054 -0.07586612 -0.0756367 -0.07542263 -0.07523353 -0.07507253
 -0.07493661 -0.07482626 -0.07473068 -0.0746493 -0.07457183 -0.0744984 -0.07442769 -0.07436084 -0.07430384 -0.07425685
 -0.07422431 -0.07420402 -0.07419373 -0.07419014 -0.0741872 -0.0741825 -0.07417074 -0.07415197 -0.07412355 -0.07408973
 -0.07405107 -0.0740144 -0.07398257 -0.07395852 -0.07394429 -0.0739361 -0.07393388 -0.07393232 -0.07393066 -0.07392932
 -0.0739283 -0.07393346 -0.073945 -0.07396776 -0.07400098 -0.07404311 -0.07409257 -0.07414311 -0.07419378 -0.07423907
 -0.07427955 -0.07431395 -0.07434247 -0.07436545 -0.07438114 -0.0743881 -0.07438578 -0.07437216 -0.07435249 -0.07432703
 -0.07430501 -0.07428866 -0.07428433 -0.07429405 -0.07431548 -0.07434912 -0.0743847 -0.07442167 -0.07444926 -0.07446753
 -0.07447433 -0.07447116 -0.0744659 -0.07445948 -0.07446025 -0.07446614 -0.07447681 -0.0744893 -0.07449761 -0.07450285
 -0.07450264 -0.07450265 -0.07450672 -0.0745182 -0.07454149 -0.0745717 -0.07460886 -0.07464486 -0.07467709 -0.07470386
 -0.07472397 -0.0747417 -0.07475744 -0.07477255 -0.07478712 -0.07479718 -0.07480269 -0.07480138 -0.07479399 -0.07478366
 -0.07477129 -0.07476179 -0.07475542 -0.07475512 -0.07476086 -0.07477406 -0.07479403 -0.07482091 -0.07485288 -0.07488868
 -0.07492656 -0.07496502 -0.07500381 -0.07504227 -0.07508169 -0.07512221 -0.07516522 -0.07521119 -0.07525931 -0.0753099
 -0.0753575 -0.07540183 -0.07543503 -0.07545706 -0.07546496 -0.07545991 -0.07544729 -0.07542863 -0.07541251 -0.07539929
 -0.0753943 -0.07539661 -0.07540719 -0.07542448 -0.07544743 -0.07547368 -0.07550114 -0.0755278 -0.07555134 -0.07557329
 -0.07559285 -0.07561541 -0.07564236 -0.07567667 -0.07571987 -0.07576659 -0.07581671 -0.07586188 -0.07590158 -0.07593486
 -0.07596221 -0.07599067 -0.07602057 -0.07605758 -0.07610095 -0.07615077 -0.07620633 -0.07626634 -0.07632948 -0.07639401
 -0.07645608 -0.07651066 -0.07655482 -0.07658312 -0.07659925 -0.07660238 -0.07660122 -0.0765988 -0.07660108 -0.07661047
 -0.07662819 -0.07665495 -0.07668968 -0.07673252 -0.07677986 -0.07683151 -0.07688156 -0.07692983 -0.07697253 -0.07701018
 -0.07704399 -0.07707474 -0.07710605 -0.07713807 -0.07717315 -0.07721058 -0.07725064 -0.07729167 -0.07733202 -0.0773701
 -0.07740352 -0.07743338 -0.07745883 -0.07748405 -0.07751042 -0.07754096 -0.07757731 -0.07761753 -0.07766188 -0.07770595
 -0.07774923 -0.07778984 -0.07782765 -0.07786354 -0.07789753 -0.07792975 -0.07796001 -0.07798683 -0.07801046 -0.07803056
 -0.07804872 -0.07806836 -0.07809153 -0.07812347 -0.07816489 -0.07821959 -0.07828475 -0.07836051 -0.07844052 -0.07852164
 -0.07859826 -0.07866681 -0.07872749 -0.07877917 -0.07882602 -0.07886872 -0.07890927 -0.07894812 -0.07898357 -0.07901554
 -0.07904262 -0.07906483 -0.07908234 -0.07909534 -0.07910481 -0.07911161 -0.07911918 -0.07912916 -0.07914793 -0.07917511
 -0.07921407 -0.07926087 -0.07931221 -0.07936452 -0.07941292 -0.07945814 -0.07949883 -0.07953793 -0.07957666 -0.07961548
 -0.07965498 -0.07969383 -0.07973165 -0.07976923 -0.07980645 -0.0798461 -0.07988835 -0.07993466 -0.07998492 -0.08003734
 -0.08009162 -0.08014479 -0.08019684 -0.08024618 -0.08029301 -0.0803371 -0.08037847 -0.08041667 -0.08045268 -0.08048704
 -0.08052198 -0.08055987 -0.08060107 -0.08064751 -0.08069495 -0.08074244 -0.08078571 -0.08082265 -0.08085507 -0.08088249
 -0.0809105 -0.08093981 -0.08097237 -0.08100837 -0.08104572 -0.08108442 -0.0811244 -0.08116604 -0.0812125 -0.08126327
 -0.08131882 -0.08137694 -0.08143204 -0.08148295 -0.08152407 -0.08155782 -0.08158445 -0.08160756 -0.08163109 -0.08165451
 -0.08167914 -0.08170199 -0.08172147 -0.08173848 -0.08175226 -0.08176778 -0.08178584 -0.08180954 -0.08183951 -0.08187465
 -0.08191492 -0.08195875 -0.08200602 -0.08205554 -0.08210687 -0.08215678 -0.08220448 -0.08224492 -0.082278 -0.08230029
 -0.0823136 -0.08231883 -0.08231974 -0.08232112 -0.08232615 -0.08233998 -0.08236141 -0.08239222 -0.08242688 -0.08246385
 -0.08249792 -0.0825272 -0.08254948 -0.082564 -0.08257046 -0.08256859 -0.08256032 -0.08254566 -0.08253049 -0.08251518
 -0.08250697 -0.08250584 -0.08251543 -0.08253469 -0.08256158 -0.08259443 -0.08262792 -0.08266068 -0.08268756 -0.08270875
 -0.08272188 -0.08272919 -0.08273152 -0.08273157 -0.08273156 -0.08273184 -0.08273342 -0.0827345 -0.08273449 -0.08273334
 -0.08273043 -0.08272973 -0.08273159 -0.08273964 -0.08275427 -0.08277277 -0.08279473 -0.08281218 -0.08282495 -0.08282757
 -0.08282132 -0.08280803 -0.08278986 -0.08277342 -0.08276025 -0.0827568 -0.08276211 -0.08277867 -0.08280169 -0.08282875
 -0.08285324 -0.08286994 -0.08287703 -0.08287112 -0.08285818 -0.0828387 -0.08282018 -0.08280441 -0.08279385 -0.08278926
 -0.08278846 -0.08279139 -0.08279491 -0.08279899 -0.08280265 -0.08280635 -0.08281286 -0.08282259 -0.08283909 -0.08286149
 -0.08288975 -0.08292197 -0.08295473 -0.08298638 -0.08301353 -0.08303487 -0.08304807 -0.08305247 -0.08304644 -0.08303194
 -0.08300874 -0.08298135 -0.08295086 -0.08292092 -0.08289248 -0.08286701 -0.08284492 -0.08282556 -0.08280896 -0.08279261
 -0.08277642 -0.08275882 -0.0827402 -0.08272277 -0.08270688 -0.08269577 -0.08268836 -0.08268356 -0.08267982 -0.08267327
 -0.08266434 -0.08265173 -0.08263675 -0.08262064 -0.08260264 -0.0825827 -0.08255989 -0.08253306 -0.08250499 -0.0824758
 -0.08245005 -0.08242904 -0.08241312 -0.08240294 -0.08239307 -0.08238322 -0.08236822 -0.08234817 -0.08232605 -0.08230296
 -0.08228904 -0.08228443 -0.08229645 -0.08232177 -0.08235646 -0.08239399 -0.08241998 -0.08243068 -0.08241294 -0.08237251
 -0.08230832 -0.08223157 -0.0821493 -0.08206763 -0.08199209 -0.08191988 -0.08185158 -0.08178241 -0.08171059 -0.08163925
 -0.08156779 -0.08150744 -0.08145895 -0.08143091 -0.08142332 -0.08143368 -0.0814603 -0.0814895 -0.0815184 -0.08152664
 -0.08151399 -0.08146692 -0.0813928 -0.08129845 -0.08119286 -0.08109205 -0.08099768 -0.08091733 -0.08084858 -0.08079188
 -0.08074535 -0.08070885 -0.08067886 -0.08065527 -0.08063082 -0.08060433 -0.08056942 -0.08052509 -0.0804686 -0.08039962
 -0.08031845 -0.08022531 -0.08012541 -0.08001969 -0.07991827 -0.07982145 -0.07973657 -0.07966214 -0.07959811 -0.07954213
 -0.07949007 -0.0794393 -0.0793848 -0.07932458 -0.07925379 -0.07917576 -0.07908958 -0.0790043 -0.07892404 -0.07885331
 -0.07879596 -0.07874512 -0.07870103 -0.07865125 -0.07859407 -0.07852313 -0.07843755 -0.07834218 -0.07823741 -0.07813247
 -0.07802694 -0.07792213 -0.07781575 -0.07769746 -0.07756705 -0.07741673 -0.07725168 -0.07707849 -0.07690144 -0.07673018
 -0.07656356 -0.07640397 -0.07624932 -0.07609825 -0.07595176 -0.07580939 -0.07567461 -0.07554845 -0.0754331 -0.07533053
 -0.07523341 -0.07514309 -0.07503269 -0.07490049 -0.0747204 -0.0744924 -0.07423298 -0.07394552 -0.07366838 -0.07339952
 -0.07315117 -0.07291628 -0.07268045 -0.07243893 -0.07217399 -0.0718881 -0.07157485 -0.07124514 -0.07090555 -0.07056925
 -0.07024923 -0.06994443 -0.06966343 -0.06937824 -0.06908423 -0.06874935 -0.06836221 -0.06793058 -0.06745173 -0.06695901
 -0.06645506 -0.06595398 -0.06545627 -0.06496453 -0.06447968 -0.06401256 -0.06356203 -0.06313162 -0.06271315 -0.06228486
 -0.06183871 -0.06134367 -0.06080828 -0.06022787 -0.05962248 -0.05901255 -0.05840322 -0.057806 -0.05721375 -0.0566245
 -0.05603807 -0.05545289 -0.0548758 -0.0543112 -0.0537442 -0.05317867 -0.05254963 -0.0518527 -0.05102725 -0.05007333
 -0.04905044 -0.04796656 -0.04692479 -0.04591648 -0.04495439 -0.04402484 -0.04309207 -0.04215213 -0.04118188 -0.04017761
 -0.03913078 -0.03802143 -0.03683493 -0.0355322 -0.03408244 -0.03246208 -0.03063551 -0.02866403 -0.02654374 -0.02440312
 -0.02226957 -0.02022004 -0.01827221 -0.01642874 -0.01469287 -0.01302676 -0.01142695 -0.009802415 -0.008142417 -0.006297738
 -0.004281471 -0.002051694 0.0003182584 0.002610626 0.004808619 0.006747532 0.008508957 0.01014529 0.01171218 0.01329649
 0.01488664 0.01650298 0.0181174 0.01971632 0.02130154 0.02287525 0.02441985 0.0259367 0.02738095 0.02874285
 0.03003033 0.03124192 0.0324203 0.0335663 0.03466499 0.03571166 0.03665074 0.03748659 0.03820863 0.038831
 0.03939333 0.03990141 0.04039105 0.04084919 0.04126839 0.04164751 0.04197519 0.04227649 0.04256717 0.04285859
 0.04316808 0.04346688 0.04375299 0.04398551 0.04415412 0.04424021 0.04423765 0.04415744 0.04399819 0.04380795
 0.04358932 0.04339573 0.04322504 0.04307728 0.04294649 0.0428013 0.04264257 0.04245275 0.04224477 0.04203321
 0.04183967 0.04170276 0.04163365 0.04165753 0.04177833 0.042 0.04234492 0.04282435 0.04345468 0.04425395
 0.0451791 0.04622754 0.04734136 0.04850822 0.04972871 0.05100075 0.05235317 0.05378709 0.05531205 0.05692791
 0.05863563 0.06043713 0.06234434 0.06435654 0.06647917 0.06870729 0.07103162 0.07345206 0.07596363 0.07856991
 0.08127436 0.08407475 0.08697166 0.08995914 0.09303355 0.09619474 0.09944049 0.1027788 0.106213 0.1097391
 0.1133632 0.1170264 0.1207273 0.1243617 0.1279245 0.1313458 0.1346239 0.1377265 0.1406353 0.143241
 0.1455202 0.1473209 0.1486807 0.1495967 0.150138 0.1504116 0.1504496 0.1503236 0.1500474 0.1496526
 0.1491408 0.148544 0.1477659 0.1468159 0.1454518 0.1436053 0.1411983 0.1381544 0.134973 0.1316921
 0.1286528 0.1258674 0.1231397 0.12046 0.1176533 0.1147408 0.1117485 0.1086955 0.105678 0.1026543
 0.09961525 0.09642846 0.09287777 0.08890662 0.08426822 0.07929492 0.07414099 0.06909562 0.06442144 0.05994985
 0.05567428 0.05145218 0.04721613 0.04308934 0.03907449 0.035335 0.03189295 0.0287171 0.0258052 0.02300652
 0.0203183 0.0176553 0.01503257 0.01248494 0.01002943 0.007745089 0.005626766 0.003708182 0.001961362 0.0003621852
 -0.001123047 -0.002534128 -0.003907338 -0.005271767 -0.006680899 -0.008170379 -0.009766914 -0.01152246 -0.01327784 -0.01502287
 -0.01652586 -0.01772716 -0.0186938 -0.01941933 -0.02010016 -0.02074551 -0.02143867 -0.02217321 -0.02290209 -0.02361737
 -0.02424632 -0.02480095 -0.02528538 -0.02570947 -0.02610737 -0.02645695 -0.02674361 -0.02693374 -0.02697749 -0.02688001
 -0.02662147 -0.02624031 -0.02575036 -0.02518206 -0.02455128 -0.02386417 -0.02313008 -0.02231901 -0.02143279 -0.02040237
 -0.01921994 -0.01785929 -0.01632004 -0.01474643 -0.01315121 -0.01173537 -0.01049132 -0.009479895 -0.008684286 -0.008079857
 -0.007657415 -0.007391564 -0.007261404 -0.007234554 -0.007264846 -0.007301167 -0.007278453 -0.007128056 -0.006826526 -0.006320615
 -0.005700927 -0.00498533 -0.004256292 -0.003548098 -0.002838403 -0.002132159 -0.001372342 -0.0005530241 0.0003474843 0.001330315
 0.002363842 0.00344595 0.00453824 0.005646479 0.006779538 0.007952455 0.009223491 0.01059774 0.01212606 0.0137794
 0.0155357 0.01736546 0.01921534 0.02110803 0.02303929 0.02504736 0.02715937 0.02936747 0.03168057 0.03405941
 0.03649097 0.0389778 0.04151211 0.04415685 0.04691936 0.04981836 0.05285455 0.05587018 0.05885029 0.06155931
 0.06399933 0.06606456 0.06776538 0.06909197 0.07002825 0.07053644 0.07058959 0.07011928 0.06913452 0.06760481
 0.06558985 0.0631156 0.06026056 0.05706944 0.05360169 0.04988341 0.0459652 0.04184784 0.03764986 0.03337517
 0.02922712 0.02522633 0.02149803 0.01804978 0.01482822 0.01182648 0.008936748 0.006165386 0.003492236 0.0009360277
 -0.001441848 -0.003642843 -0.005631458 -0.007438002 -0.009092974 -0.01062876 -0.01209404 -0.01350579 -0.01489375 -0.01625958
 -0.0176139 -0.01894558 -0.02025463 -0.02152364 -0.02274777 -0.02391889 -0.02503334 -0.02610145 -0.0271236 -0.02811337
 -0.02907156 -0.02998684 -0.03085653 -0.03164129 -0.03233963 -0.03292049 -0.03338908 -0.03374717 -0.03400104 -0.03416701
 -0.03424708 -0.03425151 -0.03418084 -0.03403777 -0.03382748 -0.03355031 -0.03322516 -0.03285504 -0.03248043 -0.03211101
 -0.03179957 -0.03155911 -0.03143239 -0.03142938 -0.03156514 -0.03184413 -0.03224479 -0.0327662 -0.03336052 -0.03402527
 -0.03471725 -0.03543543 -0.03615344 -0.03686834 -0.03755687 -0.03821351 -0.03881304 -0.03935336 -0.03981876 -0.0402124
 -0.04053154 -0.04078081 -0.04096211 -0.04108185 -0.0411416 -0.04115454 -0.04112352 -0.04106766 -0.0409909 -0.04091265
 -0.04083619 -0.04077676 -0.0407364 -0.04072169 -0.04073315 -0.04076549 -0.04081799 -0.04087952 -0.04094986 -0.04102185
 -0.04109675 -0.0411748 -0.04125833 -0.04135257 -0.04146033 -0.04158885 -0.04173896 -0.04191563 -0.04211488 -0.04233606
 -0.04257279 -0.04282173 -0.04307759 -0.04333844 -0.04359785 -0.04385494 -0.04409979 -0.04433082 -0.04454014 -0.04472638
 -0.04489016 -0.0450314 -0.04515741 -0.04526851 -0.04537109 -0.04546465 -0.04554975 -0.04562489 -0.04568529 -0.0457288
 -0.04574801 -0.04574112 -0.04570143 -0.04562927 -0.04552107 -0.04538196 -0.04521364 -0.04502445 -0.04481965 -0.04460381
 -0.0443803 -0.04414881 -0.0439086 -0.04366559 -0.04341885 -0.04318664 -0.04297052 -0.04278683 -0.04263675 -0.0425186
 -0.04243153 -0.04236161 -0.04230816 -0.04225984 -0.0422172 -0.04217601 -0.04213762 -0.04210241 -0.04207347 -0.04205546
 -0.04205288 -0.04207367 -0.04211823 -0.04219143 -0.04228591 -0.04239953 -0.04252397 -0.04265419 -0.04279134 -0.0429337
 -0.04308951 -0.04326044 -0.0434484 -0.04365448 -0.04386977 -0.04409384 -0.04431522 -0.04453349 -0.04474123 -0.04493847
 -0.04512139 -0.045291 -0.04544837 -0.04559609 -0.04574133 -0.04588536 -0.04603488 -0.04618639 -0.04633907 -0.04648738
 -0.04662598 -0.04675282 -0.04686455 -0.04696351 -0.04704931 -0.04712648 -0.04719582 -0.04726201 -0.04732618 -0.04738956
 -0.04745264 -0.04751244 -0.04756882 -0.04761899 -0.04766294 -0.04770071 -0.0477322 -0.047757 -0.04777465 -0.04778316
 -0.04778222 -0.04777044 -0.04774695 -0.04771039 -0.04765802 -0.04758683 -0.04749222 -0.04737013 -0.04721507 -0.04702309
 -0.04678984 -0.04651179 -0.04619092 -0.04582589 -0.04542569 -0.04499172 -0.04453037 -0.044043 -0.04352672 -0.04298146
 -0.04240176 -0.0417876 -0.04113846 -0.04045479 -0.0397392 -0.03899202 -0.0382155 -0.03741061 -0.03658036 -0.0357272
 -0.03485565 -0.03397064 -0.03307857 -0.03218712 -0.03130415 -0.03043695 -0.02959209 -0.02877264 -0.02798142 -0.02721897
 -0.02648617 -0.02578183 -0.02510656 -0.02445429 -0.02382476 -0.02320977 -0.02260882 -0.02201535 -0.02142857 -0.02083572
 -0.02023418 -0.01959927 -0.01892933 -0.01820313 -0.01742409 -0.01658989 -0.01570538 -0.01477856 -0.01381148 -0.01280895
 -0.01177444 -0.01071032 -0.009626013 -0.008525236 -0.007423162 -0.006322896 -0.005250399 -0.004208889 -0.003238862 -0.002346434
 -0.001570222 -0.0009166258 -0.0003938245 -3.543059E-06 0.0002888136 0.000486527 0.0006512078 0.0007856352 0.0009415697 0.00111393
 0.001312166 0.001524831 0.00172516 0.001908855 0.002052572 0.002165309 0.002247402 0.002312457 0.002371264 0.002436815
 0.002517976 0.002628848 0.002777043 0.002971136 0.003216123 0.003509452 0.003851376 0.004238779 0.004670469 0.005154372
 0.00569072 0.006295287 0.006968675 0.007723189 0.008556508 0.009461199 0.01042807 0.01141837 0.01241857 0.01337374
 0.01427413 0.01507762 0.01577836 0.01635353 0.01679758 0.01709576 0.01725384 0.01726463 0.01715853 0.01694135
 0.01665637 0.01631503 0.01595358 0.01557928 0.01522111 0.01488247 0.01458925 0.01434345 0.01416001 0.01403897
 0.01397867 0.0139774 0.01402237 0.01411132 0.01422812 0.01437158 0.01452962 0.01470366 0.01489132 0.01509259
 0.01530926 0.01553284 0.01575949 0.01597274 0.01616353 0.01631368 0.01641439 0.01645125 0.01641744 0.01631057
 0.01612708 0.01588168 0.01557476 0.01522792 0.01484261 0.01443473 0.01400508 0.01356692 0.01312135 0.01268337
 0.01225292 0.01183831 0.01143754 0.01104932 0.01067226 0.010304 0.009941654 0.009583457 0.00921837 0.008839297
 0.008427285 0.007970868 0.007450137 0.006854914 0.006170143 0.005389285 0.00450583 0.003516725 0.002424906 0.001229935
 -6.100786E-05 -0.001447704 -0.002917815 -0.004469994 -0.006077765 -0.007737456 -0.009409675 -0.01108969 -0.0127376 -0.01434816
 -0.01588708 -0.01735017 -0.01871189 -0.01997574 -0.02113293 -0.02219713 -0.02317622 -0.02408572 -0.0249367 -0.02574154
 -0.02650641 -0.02724494 -0.02796128 -0.02866853 -0.02937034 -0.03007082 -0.03077114 -0.03146993 -0.03216714 -0.03286317
 -0.0335578 -0.03424688 -0.03492836 -0.03558473 -0.03621254 -0.03678694 -0.03730684 -0.03775458 -0.03813539 -0.03844847
 -0.0387056 -0.03892161 -0.03910646 -0.03927641 -0.03943037 -0.03957351 -0.03969842 -0.03980209 -0.0398832 -0.03993996
 -0.0399764 -0.03999281 -0.03999338 -0.0399782 -0.03995469 -0.03992331 -0.03989193 -0.03986062 -0.03982706 -0.03979078
 -0.03974588 -0.03969397 -0.03963992 -0.03958394 -0.03953177 -0.03947663 -0.03940819 -0.03932055 -0.03919824 -0.03904819
 -0.03886962 -0.0386752 -0.03847463 -0.0382697 -0.03806543 -0.03785292 -0.03763068 -0.037391 -0.0371317 -0.03685096
 -0.03654785 -0.0362261 -0.03588565 -0.03553718 -0.03518157 -0.03483681 -0.03450483 -0.03420909 -0.03395193 -0.03375705
 -0.03362383 -0.03356522 -0.03357358 -0.03364282 -0.03375905 -0.03390235 -0.03405876 -0.03420813 -0.03434298 -0.03445208
 -0.03453529 -0.03459025 -0.03461728 -0.03461739 -0.03458412 -0.03451661 -0.03440818 -0.03425675 -0.0340695 -0.03384632
 -0.03360656 -0.033351 -0.03309232 -0.03282963 -0.0325605 -0.03228405 -0.03199401 -0.03169245 -0.03138178 -0.03106518
 -0.03075133 -0.03043869 -0.03013038 -0.0298194 -0.02949913 -0.02916785 -0.02881852 -0.02846555 -0.02811172 -0.02777629
 -0.02746793 -0.0271874 -0.02693857 -0.02670394 -0.02648162 -0.02626 -0.02603764 -0.02581859 -0.02560304 -0.02539561
 -0.02519569 -0.02499928 -0.02480617 -0.02461266 -0.02442025 -0.02423211 -0.02404821 -0.02387189 -0.0236976 -0.02352047
 -0.02333169 -0.02312029 -0.02288312 -0.02261214 -0.0223165 -0.02199633 -0.02166778 -0.02133611 -0.02101069 -0.02069524
 -0.02038821 -0.02008992 -0.01979746 -0.01951046 -0.01923194 -0.01896195 -0.01870153 -0.01844921 -0.01819242 -0.01792926
 -0.01764173 -0.01733388 -0.01700622 -0.01666871 -0.01634368 -0.01603297 -0.01575358 -0.0154893 -0.01523224 -0.01496311
 -0.01466272 -0.01433336 -0.0139662 -0.01358757 -0.01320219 -0.01283806 -0.01250316 -0.01220618 -0.01195102 -0.01172428
 -0.01152578 -0.01133213 -0.01114219 -0.01093651 -0.01071501 -0.01046807 -0.01019742 -0.009904901 -0.009594822 -0.009281171
 -0.008967005 -0.008667324 -0.008377647 -0.008098507 -0.007823554 -0.007543455 -0.007264445 -0.006985864 -0.006720936 -0.006479024
 -0.006255141 -0.006053844 -0.005848574 -0.005634709 -0.005391688 -0.005114421 -0.00480728 -0.004469478 -0.004122048 -0.003766017
 -0.003419897 -0.00308315 -0.002758141 -0.002443021 -0.002128696 -0.001816725 -0.001505808 -0.001201501 -0.0009154194 -0.0006497871
 -0.0004143269 -0.0002046597 -2.10894E-05 0.0001442456 0.000294506 0.0004426711 0.0005938893 0.0007635611 0.0009596234 0.001181813
 0.001434179 0.001696451 0.001966468 0.002228406 0.002480251 0.002724475 0.002961143 0.003193624 0.003421041 0.003635621
 0.003836651 0.004015779 0.004174594 0.004312768 0.004434212 0.004545817 0.004653428 0.004768509 0.004894617 0.005040486
 0.005204253 0.005386672 0.005587465 0.005806299 0.006044683 0.006305383 0.006578038 0.006862726 0.007139695 0.007405505
 0.007653738 0.007883162 0.00809971 0.008303554 0.008494073 0.008671795 0.00883921 0.009001094 0.009182771 0.009389212
 0.009652092 0.009966956 0.0103431 0.01076562 0.0112189 0.01168467 0.01213766 0.01256951 0.01296248 0.01332931
 0.01367087 0.01400229 0.01433366 0.01465056 0.01495381 0.01521576 0.01542979 0.01560294 0.01573373 0.01585952
 0.01598207 0.01612575 0.01629027 0.01648108 0.01669755 0.01694128 0.01720897 0.01749265 0.01778585 0.01807014
 0.01834301 0.01859226 0.01881946 0.0190229 0.01920112 0.01935244 0.01947636 0.01957077 0.0196415 0.01968924
 0.01972202 0.01974055 0.01975717 0.01977266 0.01980533 0.01985707 0.01993503 0.02003953 0.0201659 0.02031516
 0.02049711 0.02071295 0.020978 0.02128479 0.02161757 0.02196784 0.02230557 0.02263644 0.02295624 0.0232715
 0.02358978 0.02390854 0.02422314 0.02454902 0.02488707 0.02527166 0.02572368 0.02622193 0.02677284 0.02730702
 0.02780883 0.02828924 0.02874613 0.02922701 0.02973372 0.03026036 0.03080263 0.03131045 0.03178133 0.03217591
 0.03249609 0.03272829 0.03287352 0.03292631 0.03288988 0.03276533 0.03255939 0.03227697 0.03193117 0.03152744
 0.03109378 0.03064342 0.03020283 0.02978608 0.02939682 0.02903726 0.02871225 0.0284206 0.02818607 0.02801172
 0.02789733 0.02784257 0.02780143 0.02777195 0.02771525 0.02763557 0.02753559 0.02742119 0.02731107 0.02721298
 0.02715143 0.02713546 0.02720175 0.0273198 0.02749076 0.02762446 0.02765123 0.02752181 0.02716895 0.02666958
 0.02602268 0.02535568 0.02469839 0.02413176 0.02367505 0.02334682 0.0231528 0.02305961 0.02306559 0.0231254
 0.0232401 0.02340985 0.02363724 0.02394224 0.02431458 0.02473084 0.02517821 0.02561295 0.02603674 0.02643542
 0.02680749 0.02715109 0.02744973 0.02768869 0.02786329 0.02796273 0.02800486 0.02799257 0.02794434 0.02786333
 0.02777025 0.02766648 0.02758418 0.02752672 0.02751079 0.02753731 0.02759511 0.0276833 0.02778884 0.02791057
 0.02803692 0.0281639 0.02826878 0.02835497 0.02841503 0.02846382 0.02852422 0.02859955 0.02870563 0.02883086
 0.02896864 0.02911909 0.02928198 0.02945335 0.02964005 0.02979999 0.02992529 0.02997956 0.02995057 0.02986412
 0.0297201 0.02956398 0.02939812 0.02922621 0.02904697 0.02884291 0.02861639 0.02837094 0.02811331 0.02786843
 0.02764167 0.02746112 0.0273199 0.02722553 0.0271529 0.02707728 0.0269793 0.02682969 0.02664158 0.02641213
 0.02616317 0.02590541 0.02563708 0.02535973 0.02506897 0.02476296 0.02445081 0.02413367 0.02381011 0.02348008
 0.02313979 0.02279117 0.02245969 0.02214651 0.02187565 0.02163799 0.02141277 0.02119423 0.02095204 0.02070172
 0.02045375 0.02022564 0.02004591 0.01991026 0.01982731 0.01978059 0.01976455 0.01976345 0.01977004 0.01977651
 0.01977755 0.01978263 0.01979313 0.01981315 0.01984559 0.01985312 0.01983376</values></Ydata></AB><ScSm><Ydata ylabel="Single channel"><values byteorder="INTEL" format="FLOAT32" numvalues="1814"> 0.06935638 0.06936619 0.06944054 0.06959717 0.06980862 0.07001598 0.07016672 0.07024753 0.0702731 0.07025046
 0.07018587 0.07012861 0.070163 0.07032941 0.07056959 0.07076326 0.07082269 0.07077134 0.07073435 0.07081364
 0.07094739 0.07092623 0.07059249 0.0700233 0.06947986 0.06916615 0.06910189 0.06927568 0.06977364 0.07053943
 0.07110307 0.07091732 0.07004671 0.06919931 0.06894088 0.06915134 0.06935637 0.06927663 0.06891435 0.06844187
 0.06824679 0.06883094 0.07031828 0.07204266 0.07278235 0.07153121 0.06822114 0.06395183 0.060581 0.05972646
 0.06162912 0.0648296 0.06726167 0.06789824 0.06724483 0.06629848 0.06547409 0.06472918 0.0642553 0.06451631
 0.06560698 0.06682044 0.06701156 0.06557548 0.0631699 0.06125236 0.06075003 0.06147331 0.06289568 0.06472689
 0.06612653 0.06524873 0.06105894 0.05564064 0.0532688 0.05634645 0.06283984 0.06826814 0.06968883 0.06734332
 0.06335481 0.05996701 0.05870225 0.05995186 0.06290124 0.06620742 0.06881563 0.07001154 0.06924205 0.06659346
 0.06326157 0.0609718 0.06091957 0.06330342 0.06728302 0.07105095 0.07265325 0.07143421 0.06847231 0.06543706
 0.06349014 0.063291 0.06515624 0.068727 0.07295255 0.07670595 0.07924384 0.08027103 0.07999886 0.07901572
 0.07784066 0.07683488 0.07651296 0.07722604 0.07833084 0.07843532 0.0769147 0.07474662 0.0735043 0.07372952
 0.07450001 0.07454987 0.07355062 0.07190755 0.06950836 0.06569313 0.06077138 0.05643263 0.05405901 0.05367301
 0.05493993 0.05770027 0.06078234 0.06193949 0.06030872 0.05797508 0.05790264 0.06077401 0.06464101 0.0673039
 0.06834466 0.06897156 0.07045764 0.07283829 0.07474919 0.07445677 0.07158101 0.06806336 0.06679519 0.06877889
 0.07216183 0.07451072 0.07537551 0.07602161 0.07722151 0.07806266 0.07690232 0.07332034 0.06916865 0.06742818
 0.06961277 0.07425109 0.07795198 0.07791801 0.07383145 0.06792068 0.06321943 0.06146975 0.06265679 0.06616212
 0.07143938 0.07741622 0.08222131 0.08423351 0.08326532 0.08046051 0.07699332 0.07298951 0.068147 0.06353004
 0.06178544 0.06463755 0.07068172 0.0765577 0.07994994 0.08073918 0.07969061 0.07702675 0.07264814 0.06750418
 0.06403426 0.06427248 0.06739901 0.07020847 0.07046507 0.06893757 0.0677458 0.06771663 0.06808239 0.06810915
 0.06814156 0.06901217 0.07085136 0.07277583 0.07374638 0.0735148 0.07266031 0.07191119 0.07148795 0.07095286
 0.06982808 0.0685447 0.06839384 0.07011119 0.07286359 0.07510711 0.07613672 0.0763388 0.07616185 0.07533723
 0.07328004 0.07019923 0.06754785 0.06694487 0.0686074 0.07121693 0.07329211 0.07425271 0.07427174 0.07373653
 0.07298777 0.0722127 0.07150619 0.0711067 0.07132691 0.07210393 0.07291269 0.07329296 0.07321899 0.07286048
 0.07226022 0.07140337 0.07044253 0.06969669 0.06942386 0.06962968 0.07010886 0.07062838 0.07100468 0.07106974
 0.0707385 0.07013509 0.06951253 0.06902134 0.06866348 0.06845082 0.06845329 0.06866099 0.06892037 0.06906216
 0.06903346 0.06887743 0.06863965 0.06833508 0.06798275 0.06764243 0.06740861 0.06734585 0.0674106 0.06747518
 0.06747146 0.06746263 0.06751256 0.06754355 0.06741732 0.0671244 0.06680419 0.066589 0.0664954 0.06645828
 0.06640346 0.06626448 0.06597979 0.06554666 0.06509233 0.06482619 0.06486993 0.06516512 0.06556121 0.06592952
 0.06617846 0.06625722 0.06619775 0.06608829 0.06596996 0.06580669 0.06557101 0.06531903 0.06516842 0.06521052
 0.06542973 0.06570718 0.06591772 0.06601445 0.06602313 0.06600396 0.06602749 0.06612219 0.06622259 0.06622595
 0.06611979 0.06600614 0.06598467 0.06604664 0.06609792 0.06607093 0.06600274 0.06599431 0.06609596 0.06625696
 0.06639516 0.0664871 0.06657261 0.06668767 0.06680584 0.06685113 0.06678244 0.06665681 0.06657568 0.06657465
 0.06661133 0.06665848 0.06674833 0.06690537 0.06708314 0.0672038 0.06724474 0.06725774 0.06730026 0.06736641
 0.06740026 0.06736729 0.06729302 0.06723267 0.06722166 0.0672566 0.06730859 0.06734741 0.0673594 0.06734835
 0.06732362 0.06729002 0.06724825 0.06720582 0.06718931 0.06723424 0.06734491 0.06746516 0.06751022 0.06744131
 0.06730404 0.06718586 0.06713489 0.06712365 0.06709112 0.06701012 0.06690482 0.06681243 0.06674713 0.06670181
 0.06666559 0.06663333 0.06661403 0.06663726 0.06673211 0.06688193 0.06701405 0.06705888 0.06701805 0.06695764
 0.06693871 0.06697167 0.067031 0.06709385 0.06716447 0.06726879 0.06741601 0.06756614 0.06766156 0.06769755
 0.06773308 0.06782595 0.06798646 0.06819396 0.06841677 0.06860931 0.06873351 0.06880283 0.06887685 0.06899837
 0.06915777 0.06932536 0.06949286 0.06966937 0.06985807 0.07005733 0.07027671 0.07053445 0.07083745 0.07116877
 0.07149269 0.07177315 0.07200077 0.07221065 0.0724644 0.0728011 0.07320267 0.07360893 0.0739688 0.07427962
 0.07457612 0.07488261 0.07519003 0.07549079 0.0758148 0.07620108 0.07664175 0.07708549 0.07749553 0.07787955
 0.07826371 0.07866197 0.07907452 0.07949908 0.07993564 0.08038274 0.08082885 0.08125058 0.08162962 0.08197269
 0.0823098 0.08267391 0.08308198 0.08351991 0.08393854 0.08428589 0.08456402 0.08483902 0.08517159 0.08554992
 0.08591668 0.08625206 0.08659595 0.0869854 0.0874024 0.08779981 0.08815895 0.08850393 0.0888657 0.08924399
 0.08960319 0.08990458 0.09014548 0.09036343 0.09059951 0.09087051 0.09118575 0.09156521 0.09201158 0.09247717
 0.09289201 0.09322329 0.09348767 0.09371766 0.09394121 0.09418089 0.09444426 0.09471834 0.094987 0.0952413
 0.09546819 0.09565764 0.0958336 0.09604746 0.09632386 0.09664112 0.09697836 0.0973482 0.09775931 0.09817911
 0.09857164 0.09895641 0.09938614 0.0998611 0.1003037 0.1006376 0.1008631 0.1010351 0.1011966 0.1013726
 0.1016018 0.1019243 0.1023343 0.1027795 0.1032109 0.1036137 0.103993 0.1043487 0.1046717 0.1049498
 0.1051765 0.1053584 0.1055187 0.1056926 0.1059145 0.1061941 0.106499 0.1067732 0.1069774 0.1071042
 0.1071517 0.1071115 0.1069996 0.1068749 0.1067914 0.1067309 0.1066074 0.1063416 0.1059129 0.1053434
 0.1046573 0.1038754 0.1030368 0.1022094 0.1014727 0.1008923 0.1005117 0.1003686 0.1005031 0.100927
 0.1015787 0.1023241 0.1030112 0.103515 0.103741 0.1036266 0.1031677 0.1024342 0.1015352 0.10057
 0.09960513 0.09866875 0.09774898 0.09682147 0.09590885 0.09511428 0.09459195 0.09449874 0.09497876 0.09614953
 0.0980335 0.1004721 0.1031352 0.1056628 0.1078295 0.1095954 0.1110376 0.1122647 0.1133706 0.1144108
 0.1153904 0.1162869 0.1170935 0.1178285 0.1185072 0.1191204 0.1196437 0.1200556 0.1203548 0.1205701
 0.120743 0.1208922 0.1210087 0.1210913 0.1211608 0.1212233 0.1212337 0.1211117 0.1207885 0.1202356
 0.11947 0.1185676 0.1177124 0.1172371 0.1175542 0.118935 0.1212894 0.1241716 0.1270331 0.1294898
 0.1314065 0.1328262 0.1338748 0.1346931 0.1353908 0.1360291 0.1366363 0.1372258 0.1378 0.1383521
 0.1388743 0.1393687 0.1398513 0.1403419 0.1408412 0.141325 0.1417727 0.1421967 0.1426326 0.1431021
 0.1435917 0.1440715 0.1445297 0.1449829 0.1454467 0.1459039 0.1463199 0.1466873 0.1470389 0.1474145
 0.1478323 0.1482862 0.1487495 0.1491814 0.1495536 0.1498755 0.1501845 0.1505107 0.1508608 0.1512266
 0.1515983 0.1519657 0.1523201 0.1526629 0.1530094 0.1533732 0.1537432 0.1540869 0.1543834 0.154649
 0.154921 0.1552217 0.1555428 0.1558602 0.1561626 0.1564669 0.1568031 0.1571791 0.1575636 0.1579127
 0.1582114 0.1584839 0.1587657 0.1590732 0.1593981 0.1597233 0.1600384 0.1603451 0.1606546 0.1609779
 0.1613163 0.1616591 0.1619923 0.1623101 0.162618 0.1629279 0.163248 0.1635786 0.1639169 0.1642669
 0.1646369 0.1650207 0.1653896 0.1657139 0.1659915 0.1662483 0.1665113 0.1667893 0.1670764 0.1673682
 0.1676669 0.1679766 0.1682962 0.1686211 0.1689494 0.1692813 0.1696131 0.1699364 0.1702475 0.1705533
 0.170867 0.171197 0.1715401 0.1718819 0.1722061 0.1725067 0.172794 0.1730867 0.1733965 0.1737159
 0.1740258 0.1743156 0.1745965 0.1748885 0.1751975 0.175512 0.1758196 0.1761182 0.1764112 0.1766985
 0.1769783 0.1772538 0.177533 0.1778231 0.1781239 0.1784306 0.1787363 0.179034 0.1793201 0.179602
 0.1798938 0.1802009 0.1805145 0.1808242 0.1811282 0.1814268 0.1817168 0.1819956 0.1822678 0.1825423
 0.1828246 0.1831134 0.1834036 0.183691 0.1839733 0.1842498 0.184526 0.1848121 0.1851128 0.1854204
 0.1857247 0.1860221 0.1863132 0.1866005 0.1868897 0.1871859 0.1874891 0.1877963 0.1881041 0.1884046
 0.1886911 0.1889696 0.189254 0.1895487 0.189845 0.1901353 0.1904192 0.1906993 0.1909768 0.1912506
 0.1915209 0.1917931 0.1920708 0.1923474 0.1926143 0.1928761 0.1931463 0.193431 0.1937258 0.1940222
 0.1943116 0.194591 0.1948683 0.1951539 0.195451 0.1957579 0.1960715 0.1963834 0.1966847 0.1969766
 0.1972656 0.1975527 0.1978368 0.1981224 0.1984152 0.1987167 0.1990233 0.1993282 0.1996279 0.1999313
 0.2002487 0.2005724 0.2008839 0.2011761 0.2014544 0.2017269 0.2020047 0.2022954 0.2025913 0.2028772
 0.2031516 0.2034246 0.2037049 0.2039974 0.2043014 0.2046088 0.2049157 0.2052277 0.2055413 0.2058421
 0.2061282 0.2064125 0.2066998 0.2069865 0.2072752 0.2075677 0.2078574 0.2081429 0.208426 0.2086894
 0.2088796 0.2088612 0.2083031 0.206564 0.2026818 0.1955589 0.1843889 0.16916 0.1508438 0.1310625
 0.1114963 0.09343618 0.07764216 0.06443989 0.05389832 0.04594323 0.04041649 0.03717755 0.03621951 0.03779443
 0.04254849 0.05113989 0.06279255 0.07401361 0.07995136 0.07822476 0.07119768 0.063822 0.05952408 0.05855242
 0.05945037 0.06096871 0.06270617 0.0648858 0.06789718 0.07184902 0.07655008 0.08199275 0.08858469 0.09662634
 0.1056926 0.1148172 0.1233261 0.1313613 0.1395488 0.1482445 0.157161 0.1656489 0.1732107 0.179748
 0.1854641 0.190639 0.1954719 0.2000573 0.2044369 0.2086002 0.2123969 0.2155044 0.2175828 0.2185341
 0.2186206 0.2183173 0.2180322 0.2179487 0.2180796 0.2183946 0.2188759 0.2195125 0.220291 0.2211885
 0.2221623 0.2231605 0.2241446 0.2250946 0.2259994 0.2268524 0.2276474 0.2283759 0.2290367 0.2296441
 0.2302141 0.2307497 0.231249 0.2317168 0.2321595 0.232579 0.2329764 0.2333517 0.2337006 0.2340207
 0.2343202 0.2346144 0.2349127 0.2352138 0.235509 0.2357908 0.2360618 0.2363335 0.2366139 0.2368993
 0.2371781 0.237441 0.2376888 0.2379317 0.2381812 0.2384385 0.2386952 0.2389458 0.2391929 0.239443
 0.2397024 0.2399742 0.240252 0.2405235 0.2407861 0.241051 0.2413282 0.2416155 0.2419034 0.2421815
 0.2424451 0.2427037 0.2429768 0.2432727 0.2435798 0.2438832 0.2441783 0.2444684 0.2447581 0.2450489
 0.2453309 0.2455856 0.2458068 0.2460164 0.2462538 0.2465439 0.2468742 0.2472029 0.2474986 0.2477663
 0.2480308 0.2483055 0.2485831 0.2488473 0.2490943 0.2493498 0.2496532 0.2500107 0.2503853 0.2507429
 0.2510814 0.2514086 0.2517268 0.2520441 0.2523621 0.2526507 0.2528731 0.2530456 0.2532501 0.2535731
 0.2540256 0.254521 0.2549531 0.2552944 0.2555976 0.2559242 0.2562993 0.2566917 0.2569923 0.2570879
 0.2570344 0.2570875 0.2574674 0.2581365 0.2588693 0.2594857 0.2599605 0.2603576 0.2607245 0.2610444
 0.2612571 0.2613282 0.2613236 0.2614193 0.2617848 0.2624156 0.2631212 0.263713 0.264149 0.2644772
 0.2647436 0.2649826 0.2651597 0.2651001 0.2646743 0.264128 0.2640228 0.264694 0.2658756 0.2669863
 0.2677047 0.2681364 0.268493 0.2688273 0.2690952 0.2692025 0.2688706 0.2677947 0.2662359 0.2651936
 0.2655771 0.2672853 0.2693746 0.2710052 0.2719713 0.2724864 0.2728129 0.2730877 0.2732214 0.2729086
 0.2719693 0.2708022 0.2702876 0.2709806 0.2724894 0.2738923 0.274675 0.275005 0.2752483 0.2755585
 0.2757746 0.275363 0.2737169 0.2710485 0.2688518 0.2688525 0.2713168 0.2747316 0.2773105 0.2785357
 0.2790122 0.2791454 0.2785391 0.276702 0.2737828 0.270501 0.2679238 0.2673216 0.2693218 0.272856
 0.2757698 0.2769502 0.2772673 0.278147 0.2798735 0.2816019 0.2824557 0.2822035 0.2811101 0.2794611
 0.2774267 0.2754968 0.2747439 0.2760669 0.2790999 0.2823403 0.2845349 0.2856281 0.2861114 0.2855605
 0.2823407 0.2755739 0.2676019 0.2633381 0.2659284 0.2734555 0.280995 0.2854539 0.2872619 0.2880633
 0.2885241 0.2881481 0.2855607 0.2792538 0.2699513 0.2621134 0.2609197 0.2671377 0.2762539 0.2826944
 0.2836307 0.2792779 0.2718866 0.2650738 0.2623487 0.2649813 0.271447 0.2789358 0.2850412 0.2884133
 0.2887416 0.2866268 0.2835346 0.2814372 0.2813902 0.2819752 0.2803732 0.2759275 0.2712374 0.268332
 0.2655168 0.2604997 0.2554301 0.2554699 0.2620893 0.270613 0.2754749 0.2758533 0.2746612 0.2732406
 0.2690688 0.2593979 0.2464643 0.2375698 0.238691 0.2482841 0.258669 0.2635398 0.2629668 0.2611486
 0.260809 0.2604328 0.2564294 0.247827 0.2386458 0.2345252 0.2367295 0.241011 0.2426388 0.2401909
 0.233906 0.224136 0.2140259 0.2104905 0.2183665 0.234468 0.2500942 0.2582056 0.255996 0.2433008
 0.2235232 0.2056407 0.1998451 0.2084294 0.2230051 0.2322264 0.2307998 0.2204109 0.2048427 0.1873798
 0.1723057 0.1653576 0.1702591 0.1849221 0.2016244 0.2109136 0.2068154 0.1914155 0.1751395 0.1692635
 0.1757325 0.185885 0.1901838 0.1868707 0.1805895 0.1763467 0.1765934 0.1809157 0.1865111 0.190767
 0.1933208 0.1932072 0.1860865 0.1694872 0.1498147 0.1381493 0.1387291 0.1467649 0.1573235 0.1697362
 0.1818731 0.1871293 0.1818886 0.172423 0.169567 0.177215 0.1889761 0.1959729 0.1956103 0.1920316
 0.1896692 0.1884942 0.1862605 0.1836627 0.1845235 0.1905149 0.1982504 0.2030761 0.2039301 0.2029182
 0.201739 0.2004031 0.1984624 0.1957847 0.1924523 0.188854 0.1855742 0.1827429 0.1799287 0.1768003
 0.173136 0.1679552 0.1597894 0.1489376 0.138798 0.1332575 0.1326656 0.1340993 0.135591 0.137277
 0.1375214 0.1317801 0.1186024 0.1045713 0.0995243 0.1070682 0.1219036 0.1358047 0.1437938 0.1445311
 0.1380006 0.1260274 0.1146146 0.1120418 0.1221153 0.1405635 0.1596755 0.1749083 0.1853568 0.1901818
 0.1881123 0.1803665 0.1716973 0.167706 0.1714955 0.1822631 0.1954732 0.203951 0.2014061 0.1887683
 0.177102 0.1794485 0.197046 0.2171534 0.2273583 0.2281801 0.2279624 0.2299112 0.2305322 0.2288137
 0.2298643 0.2378753 0.2499031 0.258761 0.2593361 0.2505875 0.2348052 0.2180723 0.2087198 0.2107079
 0.2191899 0.2258393 0.2269468 0.2229243 0.2133376 0.1989564 0.1870331 0.1869335 0.1992212 0.2143608
 0.2235652 0.2268012 0.2288284 0.231016 0.2297532 0.2220015 0.210391 0.2015812 0.1996731 0.2026235
 0.205676 0.2063666 0.204617 0.1999462 0.1917407 0.1821951 0.1763375 0.1777186 0.1848397 0.1926668
 0.1972431 0.198231 0.1976233 0.1972419 0.1975148 0.1976882 0.1971208 0.1969607 0.1999214 0.2072277
 0.2164327 0.2238344 0.2286989 0.233483 0.2399849 0.2468182 0.2510446 0.2513665 0.2494051 0.2483577
 0.2504678 0.2552307 0.2597483 0.2611989 0.2595225 0.2577209 0.2590787 0.2640074 0.269989 0.274416
 0.276714 0.2777973 0.27854 0.2790594 0.2786892 0.2765388 0.2728894 0.2700089 0.270574 0.275012
 0.2810537 0.2860008 0.2888377 0.2901089 0.2905098 0.2901171 0.2887906 0.2868644 0.2851673 0.2843898
 0.2846103 0.2854556 0.2865165 0.2875234 0.2883323 0.288923 0.2893664 0.2897285 0.2900437 0.2903626
 0.2907223 0.2910659 0.2912962 0.2914463 0.2916994 0.2921756 0.2927621 0.2932207 0.2933993 0.2932475
 0.2926918 0.2916487 0.2901687 0.2884284 0.286532 0.2844409 0.2822247 0.2803444 0.2795309 0.2802549
 0.2822984 0.2848845 0.2872205 0.2889066 0.2899302 0.2904546 0.2906767 0.2907744 0.2908574 0.2909371
 0.290971 0.2909366 0.2908519 0.2907358 0.2905865 0.2904081 0.2902382 0.2901192 0.2900472 0.2899634
 0.2897946 0.2894996 0.2890907 0.288619 0.288128 0.2876075 0.2869988 0.286246 0.2853443 0.2843469
 0.2833363 0.2823808 0.2814949 0.2806294 0.2797098 0.2786861 0.2775258 0.2761747 0.2745911 0.2728449
 0.27112 0.2695613 0.2681459 0.2667338 0.265201 0.2634941 0.2616088 0.2595766 0.2574571 0.2553098
 0.2531647 0.2510275 0.2488941 0.2467547 0.2445912 0.2423844 0.2401273 0.2378262 0.2354847 0.2330847
 0.2305779 0.2278849 0.2249004 0.22151 0.2176166 0.2131625 0.2081605 0.2027328 0.1971118 0.1915686
 0.1863139 0.1814491 0.1769989 0.172988 0.1694927 0.16662 0.1644446 0.1629822 0.1622174 0.1621319
 0.1627038 0.16389 0.1656082 0.1677271 0.1700773 0.1724777 0.1747586 0.1767925 0.1785446 0.1800995
 0.1816147 0.1832209 0.18495 0.186744 0.1885159 0.190193 0.1917104 0.1929991 0.194016 0.1947762
 0.195337 0.1957524 0.1960524 0.1962517 0.1963636 0.1964098 0.1964264 0.1964638 0.1965772 0.1968094
 0.1971718 0.1976462 0.1982127 0.1988674 0.1996101 0.2004276 0.2012956 0.202187 0.2030827 0.2039902
 0.2049506 0.2060251 0.2072853 0.2088135 0.2106859 0.2129373 0.2155416 0.218415 0.2214298 0.2244335
 0.2272705 0.2298001 0.231923 0.2336109 0.2349055 0.2358818 0.2366176 0.2371842 0.2376339 0.2379886
 0.2382508 0.2384182 0.2384835 0.2384326 0.2382503 0.2379282 0.2374744 0.2369255 0.2363308 0.2357168
 0.2350796 0.2344117 0.2337196 0.2330201 0.2323324 0.2316651 0.2310035 0.2303236 0.2296195 0.2288983
 0.2281547 0.2273665 0.2265052 0.2255389 0.2244405 0.2232036 0.2218385 0.2203499 0.2187369 0.217014
 0.2152212 0.2134127 0.2116389 0.2099253 0.2082576 0.2065799 0.2048063 0.2028587 0.200725 0.198482
 0.1962422 0.1940829 0.192031 0.1900867 0.1882347 0.1864514 0.184726 0.1830691 0.1814951 0.1800057
 0.1785924 0.1772455 0.1759589 0.174732 0.1735734 0.1725065 0.17156 0.1707391 0.1700112 0.1693418
 0.1687341 0.1682121 0.1677856 0.1674549 0.1672243 0.1670754 0.1669466 0.166768 0.1665075 0.166178
 0.1658176 0.1654666 0.1651462 0.1648499 0.1645572 0.164242 0.1638588 0.1633296 0.1625549 0.161451
 0.1599919 0.1582217 0.1562322 0.1541418 0.1520894 0.1502037 0.1485593 0.1471783 0.1460665 0.1452072
 0.144532 0.1439537 0.1434447 0.1430627 0.1428883 0.1429271 0.1430549 0.14309 0.1429566 0.1427679
 0.1427198 0.1429279 0.1433714 0.1439441 0.1445249 0.1450278 0.1454114 0.1456575 0.1457637 0.1457532
 0.1456561 0.1454814 0.1452263 0.1448992 0.1445134 0.1440822 0.1436194 0.1431164 0.1425327 0.1418408
 0.1410534 0.1401899 0.1392559 0.1382517 0.1371489 0.1358972 0.134541 0.1333015 0.1324689 0.1322118
 0.1324919 0.133111 0.1338521 0.1346167 0.1353735 0.1359611 0.136132 0.1359475 0.1359806 0.1368892
 0.1387703 0.1410452 0.142977 0.1441927 0.1447084 0.1446454 0.1440786 0.1430566 0.14159 0.1396467
 0.1372551 0.134542 0.1316299 0.128624 0.1257036 0.123071 0.1208217 0.1189616 0.1174773 0.1164105
 0.1158925 0.1155677 0.1136386 0.1078096 0.09881242 0.09198749 0.09280397 0.1007126 0.1095194 0.1139477
 0.1138638 0.1120972 0.11059 0.1096262 0.1091097 0.1091922 0.1100042 0.1113881 0.1129252 0.1141931
 0.1150322 0.1154905 0.1155202 0.1147711 0.1125653 0.108123 0.1011847 0.09257438 0.08392383 0.07672727
 0.07169272 0.06875918 0.06737445 0.06679747 0.0664717 0.06629963 0.06656051 0.06755931 0.06936204 0.07182778
 0.07477142 0.07796215 0.08102314 0.08356515 0.08548751 0.08698851 0.08823773 0.08918364 0.08969527 0.08974256
 0.08940656 0.08881448 0.08809088 0.08731021 0.08645716 0.08545262 0.08428068 0.08311643 0.08224747 0.08180778
 0.08166704 0.08162554 0.0816073 0.0816184 0.0816448 0.08165783 0.08165525 0.0816849 0.08185093 0.08223458
 0.08277389 0.08328846 0.0836413 0.0838322 0.08394799 0.08403128 0.08396522 0.08356656 0.08289039 0.08228026
 0.08191441 0.08148184 0.08059637 0.07940996 0.07851741 0.07830109 0.07859758 0.07897304 0.07912286 0.07900231
 0.07876886 0.07869686 0.0790095 0.07962608</values></Ydata></ScSm><ScRf><Ydata ylabel="Single channel"><values byteorder="INTEL" format="FLOAT32" numvalues="1820"> 0.06070938 0.06087086 0.06096894 0.06100275 0.06099485 0.0609912 0.06104403 0.06117856 0.06137235 0.06156646
 0.06170411 0.06176659 0.06176845 0.06172516 0.06165273 0.0615996 0.06163684 0.06179087 0.06200238 0.06216509
 0.06220742 0.06215418 0.06211553 0.06218112 0.06229876 0.06228544 0.06200075 0.06150989 0.06104092 0.06077189
 0.06071907 0.06087273 0.06131112 0.06198787 0.06249046 0.06233364 0.06156793 0.06081301 0.06056876 0.06073552
 0.06090274 0.0608279 0.06050998 0.06009491 0.05992274 0.06043927 0.0617557 0.06328177 0.06393525 0.06282505
 0.05989115 0.05611046 0.05313272 0.05238904 0.05408298 0.05691414 0.05905532 0.05960631 0.05902218 0.05818842
 0.05747006 0.05682223 0.05640624 0.05663114 0.05758652 0.05865259 0.0588172 0.05754413 0.05541513 0.05371899
 0.05327401 0.05391128 0.0551656 0.05678136 0.05801773 0.0572464 0.05355413 0.04877797 0.04668991 0.04941244
 0.05515173 0.05994903 0.06120025 0.059118 0.05558726 0.05260216 0.05150699 0.05263083 0.05523685 0.0581377
 0.06041505 0.06145116 0.06076237 0.05842493 0.05549386 0.05348991 0.05346265 0.05558077 0.05909934 0.06242498
 0.06383628 0.06275432 0.06012942 0.05743816 0.05571244 0.05553804 0.05719407 0.06036385 0.06411978 0.06746165
 0.06972291 0.0706358 0.07038974 0.06951566 0.06848391 0.06761654 0.0673587 0.06800555 0.06897943 0.06905365
 0.06768848 0.0657585 0.06465524 0.06485219 0.06553121 0.06557549 0.06469619 0.06324648 0.06111804 0.0577249
 0.05335185 0.04950911 0.04742259 0.04710048 0.04823761 0.0506981 0.05345315 0.05450967 0.05308974 0.05103077
 0.05096095 0.05349496 0.05691428 0.05927044 0.06019218 0.06075432 0.06209035 0.06422901 0.0659498 0.06570518
 0.06315595 0.06003084 0.05890534 0.06067612 0.06370038 0.06581734 0.06662744 0.06725374 0.06837776 0.06917977
 0.06819165 0.06504243 0.06139271 0.05990228 0.06190871 0.06608905 0.06942374 0.06942771 0.06581972 0.06058785
 0.05644493 0.0549527 0.05610482 0.05936004 0.06423748 0.06976903 0.07425711 0.07622392 0.07548129 0.07305321
 0.07001112 0.06647994 0.06218246 0.05808673 0.05662763 0.05940918 0.06515339 0.07076138 0.07408053 0.07498416
 0.07417098 0.07183935 0.06788865 0.06321076 0.06011445 0.06053248 0.06369212 0.06655005 0.06697649 0.06569882
 0.06474045 0.06489851 0.06544217 0.06566797 0.06591266 0.06698579 0.06901078 0.07111986 0.07229146 0.07227689
 0.07164441 0.07111903 0.0709222 0.07061005 0.06970063 0.06863706 0.06872921 0.07071704 0.07375179 0.07626736
 0.07754819 0.07798851 0.0780467 0.07744166 0.0755606 0.07261403 0.07011236 0.069748 0.07175742 0.07476916
 0.07722777 0.07851361 0.07880272 0.07850505 0.07798378 0.07743821 0.07696612 0.07681568 0.07731934 0.07841637
 0.07954915 0.08022214 0.08040762 0.08028981 0.07990724 0.07923071 0.07842441 0.07784932 0.07780251 0.07829583
 0.0790986 0.07994487 0.08062689 0.08095595 0.08082873 0.080375 0.07988498 0.07954516 0.07936619 0.07936075
 0.07961054 0.08010532 0.0806587 0.0810629 0.08125433 0.08128864 0.0812244 0.08108222 0.0808831 0.08069122
 0.08061358 0.0807291 0.08099565 0.08127598 0.08149861 0.08172925 0.08201902 0.08225865 0.08228733 0.08210711
 0.08189306 0.08180517 0.08186097 0.08198069 0.0820788 0.08207959 0.08190523 0.08154275 0.08113925 0.08094878
 0.08112885 0.08162656 0.082271 0.08289672 0.08336994 0.08361404 0.08366798 0.08364659 0.08360681 0.08350652
 0.08331028 0.08309005 0.08300366 0.08317603 0.08358741 0.08407904 0.08448001 0.08471526 0.08480678 0.08483849
 0.08492304 0.0851131 0.08532017 0.08539778 0.08532645 0.08524706 0.08529037 0.08542968 0.08552618 0.08549187
 0.08538662 0.08535551 0.08547905 0.08570294 0.085918 0.08608163 0.08624066 0.08644417 0.08665018 0.08673927
 0.08664314 0.08644056 0.08628006 0.08622058 0.08621343 0.08623317 0.08633579 0.08655287 0.0867995 0.08694832
 0.08696993 0.08695239 0.08698316 0.08704743 0.08705678 0.08695558 0.08677723 0.08660848 0.0865234 0.08654539
 0.08664112 0.08673739 0.08676278 0.08669462 0.08656992 0.08644518 0.08635092 0.08629777 0.08631769 0.08645928
 0.08671155 0.08695213 0.08701865 0.08685555 0.08657707 0.0863662 0.08630706 0.08632211 0.08626847 0.08607931
 0.08580569 0.08554488 0.08535503 0.0852332 0.08514571 0.08506764 0.08501097 0.08502314 0.08513623 0.08529852
 0.08538011 0.0852823 0.08503656 0.08477043 0.08458857 0.0845108 0.08449948 0.08450548 0.08450338 0.08451373
 0.08457164 0.08465466 0.08468159 0.08460902 0.08449158 0.08442725 0.0844797 0.08465429 0.08489066 0.08507059
 0.08509785 0.08499576 0.08488558 0.08485895 0.08490889 0.08498645 0.08507328 0.08517621 0.08528788 0.08539057
 0.08549322 0.08563703 0.08585277 0.08611994 0.08637386 0.08655494 0.08665799 0.08674307 0.08689401 0.08715225
 0.08748248 0.08780351 0.08805529 0.08824043 0.08840492 0.08858272 0.08876916 0.08895436 0.08916337 0.08943532
 0.08976848 0.09011544 0.09043468 0.09072434 0.0910044 0.09128793 0.09157772 0.09188275 0.09222881 0.09263735
 0.09307943 0.09346682 0.09372042 0.09385086 0.09395732 0.09415078 0.09447701 0.09488146 0.09523413 0.09542965
 0.09549706 0.09558159 0.09578754 0.09607215 0.09633198 0.09655802 0.09684432 0.09724929 0.09770425 0.0980798
 0.09831591 0.09846735 0.09863127 0.09884284 0.09904753 0.09917782 0.09924263 0.099315 0.09944002 0.09960181
 0.09979358 0.1000638 0.1004487 0.100895 0.1012959 0.1015884 0.101783 0.1019212 0.1020353 0.1021341
 0.1022019 0.1022264 0.1022377 0.1022897 0.1023893 0.1024809 0.1025228 0.1025451 0.1026097 0.1027471
 0.1029553 0.1032279 0.1035441 0.1038546 0.1041245 0.1043894 0.1047186 0.1051045 0.1054353 0.105611
 0.1056537 0.1056589 0.1056751 0.1056922 0.1057295 0.1058563 0.1061113 0.1064535 0.1068154 0.1071686
 0.1075219 0.1078781 0.1082061 0.1084504 0.1085675 0.1085675 0.1085198 0.108517 0.1086271 0.1088651
 0.1091904 0.1095285 0.109812 0.1100031 0.1100848 0.1100604 0.1099829 0.1099566 0.1100599 0.1102564
 0.1104117 0.1104045 0.1102027 0.1098361 0.1093337 0.1087167 0.1080328 0.1073662 0.1068031 0.106397
 0.1061703 0.1061462 0.1063608 0.106823 0.1074659 0.1081644 0.1088057 0.109317 0.1096246 0.1096403
 0.1093257 0.1087474 0.1080358 0.1073057 0.1066239 0.1060114 0.1054428 0.1048805 0.1043576 0.1040223
 0.1040689 0.1046195 0.1056605 0.1070557 0.1085919 0.1100471 0.1112738 0.1122506 0.1130521 0.113763
 0.1144261 0.1150631 0.1157063 0.1163728 0.1170245 0.1175964 0.1180704 0.1184887 0.1188939 0.1192843
 0.1196297 0.1199088 0.1201302 0.1203315 0.1205426 0.1207376 0.1208456 0.1208275 0.1207203 0.1205888
 0.1204531 0.1202794 0.1200202 0.1196545 0.1192191 0.1188306 0.1186684 0.1189004 0.1195874 0.1206443
 0.1219024 0.1232135 0.1244864 0.1256401 0.1265771 0.1272389 0.1276646 0.1279619 0.128228 0.1285107
 0.1288203 0.1291482 0.1294744 0.1297778 0.1300501 0.1303081 0.1305882 0.1309148 0.1312646 0.1315781
 0.1318221 0.1320326 0.132286 0.1326258 0.133022 0.133405 0.1337383 0.134048 0.1343703 0.1346881
 0.1349491 0.1351398 0.1353104 0.1355251 0.135814 0.1361671 0.1365418 0.1368736 0.1371166 0.1372861
 0.1374435 0.1376346 0.13786 0.1380987 0.1383403 0.1385854 0.1388356 0.1390986 0.13939 0.1397111
 0.140024 0.1402717 0.1404333 0.1405503 0.1406872 0.1408736 0.1410907 0.1413054 0.1415082 0.1417235
 0.1419835 0.1422903 0.1426018 0.1428615 0.1430444 0.1431735 0.1432956 0.1434466 0.1436355 0.1438522
 0.144081 0.1443059 0.1445139 0.1447038 0.1448906 0.1450922 0.1453107 0.1455338 0.1457511 0.1459633
 0.1461762 0.1463915 0.1466113 0.1468471 0.1471142 0.1474088 0.1476971 0.1479391 0.1481222 0.1482656
 0.1483946 0.1485239 0.1486623 0.1488194 0.1490017 0.1492063 0.1494221 0.1496361 0.1498401 0.1500341
 0.1502248 0.150422 0.150632 0.1508541 0.151084 0.15132 0.1515608 0.1517967 0.152013 0.1522054
 0.1523853 0.1525678 0.1527599 0.1529575 0.1531491 0.153325 0.1534905 0.1536647 0.153862 0.1540771
 0.1542915 0.1544929 0.1546828 0.1548706 0.1550612 0.1552528 0.1554423 0.155632 0.1558255 0.1560228
 0.1562217 0.1564218 0.1566238 0.1568269 0.1570286 0.1572281 0.1574273 0.1576288 0.1578306 0.1580275
 0.158219 0.1584118 0.1586114 0.1588144 0.1590133 0.1592049 0.1593938 0.1595884 0.1597935 0.1600034
 0.1602069 0.1603981 0.1605815 0.1607663 0.1609619 0.1611751 0.1614055 0.1616422 0.161872 0.1620888
 0.1622972 0.1625055 0.1627174 0.1629307 0.163144 0.1633608 0.1635845 0.1638132 0.164042 0.1642634
 0.1644675 0.1646469 0.1648055 0.1649567 0.1651134 0.1652831 0.1654651 0.1656493 0.1658253 0.1659948
 0.1661709 0.1663652 0.1665786 0.1668009 0.1670184 0.1672239 0.1674208 0.1676145 0.1678074 0.1680024
 0.1682037 0.1684115 0.1686248 0.168844 0.1690657 0.1692799 0.1694819 0.1696763 0.1698691 0.1700652
 0.1702711 0.1704903 0.1707185 0.1709484 0.1711724 0.1713828 0.1715791 0.1717726 0.1719727 0.1721777
 0.1723836 0.1725911 0.1728005 0.1730106 0.1732209 0.1734276 0.173627 0.173826 0.174036 0.1742561
 0.1744761 0.17469 0.1748962 0.1750976 0.1753059 0.1755281 0.1757526 0.1759657 0.176171 0.1763783
 0.176589 0.1768029 0.1770177 0.177214 0.1773447 0.1772958 0.1767908 0.1752881 0.171965 0.165875
 0.1563226 0.1433054 0.12767 0.1108085 0.09414314 0.07876083 0.06531002 0.05407847 0.04512407 0.03836686
 0.03365894 0.03088587 0.03005707 0.03139368 0.03543671 0.04273205 0.05261515 0.06212553 0.06715228 0.06567888
 0.05971488 0.05346512 0.04983233 0.04901576 0.04977279 0.0510473 0.05250318 0.05432712 0.05684767 0.06016444
 0.06412792 0.06873831 0.07433763 0.0811709 0.08886921 0.0966092 0.1038199 0.110625 0.1175587 0.1249213
 0.1324637 0.1396327 0.1460108 0.1515242 0.1563532 0.1607377 0.1648403 0.1687293 0.1724333 0.1759469
 0.1791506 0.1817717 0.1835153 0.1842919 0.184326 0.1840291 0.1837543 0.1836585 0.183753 0.1840159
 0.1844342 0.1849905 0.1856576 0.1864049 0.1871986 0.1880103 0.1888237 0.1896248 0.1903918 0.1911067
 0.1917664 0.1923745 0.1929313 0.1934368 0.1938948 0.1943144 0.1947081 0.1950845 0.1954434 0.1957844
 0.1961141 0.1964354 0.1967393 0.197015 0.197264 0.1974967 0.197722 0.1979432 0.1981576 0.1983606
 0.1985523 0.1987401 0.1989321 0.1991339 0.1993483 0.1995717 0.1997947 0.2000112 0.2002213 0.2004247
 0.2006185 0.2008049 0.200992 0.2011838 0.2013761 0.2015658 0.2017554 0.201948 0.2021427 0.2023379
 0.2025328 0.2027255 0.2029111 0.2030874 0.2032637 0.2034597 0.2036871 0.203936 0.2041832 0.2044122
 0.2046208 0.2048178 0.2050169 0.2052254 0.2054327 0.2056169 0.2057686 0.2059069 0.2060696 0.2062832
 0.2065362 0.2067858 0.2069992 0.2071826 0.2073644 0.2075591 0.2077596 0.2079524 0.2081363 0.2083324
 0.2085654 0.2088295 0.2090867 0.209313 0.2095217 0.209733 0.209951 0.2101759 0.2104052 0.2106161
 0.2107804 0.2109113 0.2110746 0.2113349 0.2116892 0.212061 0.212372 0.2126119 0.2128264 0.2130617
 0.2133368 0.2136274 0.2138418 0.2138809 0.2137891 0.2137823 0.2140486 0.2145596 0.2151283 0.2156052
 0.2159665 0.2162587 0.2165185 0.2167396 0.2168815 0.2169136 0.216881 0.216926 0.2171921 0.2176752
 0.2182121 0.2186473 0.2189579 0.2191942 0.2193908 0.2195661 0.2196894 0.2196216 0.2192549 0.2187837
 0.2186671 0.219184 0.2201166 0.2209863 0.221534 0.2218567 0.2221356 0.2224095 0.2226281 0.2226999
 0.2223936 0.2214683 0.2201522 0.2192774 0.2195966 0.2210225 0.2227644 0.2241144 0.2248963 0.2252912
 0.2255281 0.2257317 0.2258321 0.2255723 0.2247958 0.2238297 0.2234046 0.2239797 0.225224 0.2263692
 0.2269953 0.227255 0.2274605 0.2277336 0.2279265 0.2275847 0.226204 0.223973 0.2221448 0.2221531
 0.2242081 0.2270448 0.2291807 0.2301907 0.2305805 0.2306865 0.2301759 0.2286366 0.2261936 0.2234503
 0.2212976 0.2207911 0.2224522 0.2253957 0.2278332 0.2288367 0.229121 0.2298653 0.2313089 0.2327563
 0.2334785 0.2332788 0.2323793 0.2310243 0.2293566 0.2277782 0.227177 0.2282984 0.2308355 0.2335365
 0.2353629 0.2362785 0.2366986 0.2362659 0.2336079 0.2279872 0.2213561 0.2178128 0.2199842 0.2262813
 0.232605 0.2363742 0.2379439 0.2386834 0.2391386 0.2388765 0.236741 0.2314886 0.22375 0.217261
 0.2163341 0.2215891 0.2292503 0.2346732 0.2355057 0.2319271 0.2258132 0.2201828 0.2179635 0.2202185
 0.225684 0.2320172 0.2371979 0.2400863 0.2404223 0.2387157 0.2362006 0.2345305 0.2345808 0.2351491
 0.2338713 0.2302102 0.2263567 0.2240168 0.2217681 0.2176794 0.2135445 0.2136989 0.2193919 0.2267037
 0.2309498 0.2314286 0.2305813 0.2295313 0.2261509 0.2181216 0.207334 0.1999736 0.2011171 0.2094607
 0.2184829 0.2228333 0.2225859 0.2213196 0.2213484 0.2213615 0.2182631 0.2112063 0.203658 0.2004925
 0.2028059 0.2069342 0.2087922 0.207131 0.2021178 0.1940393 0.18565 0.1830052 0.1903544 0.2049448
 0.2191821 0.2268829 0.2255246 0.2148807 0.1979221 0.1826624 0.1782579 0.1867974 0.2007612 0.2099365
 0.2095181 0.2009697 0.1876725 0.1726212 0.1598071 0.1546431 0.1607327 0.1762202 0.1937952 0.2042958
 0.2017695 0.1881377 0.1736671 0.1695829 0.1778118 0.1896189 0.195385 0.193339 0.1881858 0.1850703
 0.186622 0.1924681 0.1996177 0.2052779 0.2090862 0.2099365 0.2029666 0.1853948 0.1642592 0.1517859
 0.1526923 0.1617629 0.1736245 0.1875776 0.2012318 0.2071871 0.2013758 0.1907659 0.1874312 0.1957348
 0.2085989 0.2161721 0.2155787 0.2114463 0.2087519 0.2075226 0.2053104 0.2029233 0.204627 0.2122649
 0.2220369 0.2287376 0.2311665 0.2316673 0.2321557 0.2326627 0.2326668 0.2319703 0.2306324 0.2291013
 0.2280746 0.2277115 0.2274848 0.2269814 0.2258812 0.2227355 0.2152764 0.2036057 0.1922304 0.1864926
 0.1869016 0.1894959 0.1917256 0.1939386 0.1939024 0.1852633 0.1659479 0.1450502 0.1362156 0.1444585
 0.162431 0.1787933 0.1868936 0.1853372 0.1746034 0.1572528 0.1406316 0.1345724 0.1433784 0.161696
 0.1802343 0.1937739 0.2017648 0.2038855 0.1990514 0.188573 0.1774274 0.1714101 0.1736039 0.1830257
 0.1949572 0.2021593 0.198415 0.1847095 0.1719536 0.1729348 0.1889031 0.2074882 0.2166035 0.2166863
 0.2157966 0.2170898 0.2172483 0.2152769 0.2160407 0.2235941 0.2352228 0.2441194 0.2453646 0.2378803
 0.2238022 0.2089589 0.2013462 0.2046854 0.214124 0.22145 0.2230089 0.2192321 0.2097985 0.1956476
 0.184096 0.1844429 0.1971931 0.2128482 0.2226972 0.226752 0.2297736 0.233079 0.232947 0.2262573
 0.2157088 0.208157 0.2078397 0.2126703 0.2177641 0.2205867 0.2209914 0.2183027 0.2117323 0.2036831
 0.1997866 0.20401 0.2145247 0.2253841 0.2318163 0.2332048 0.2317074 0.2294506 0.2270953 0.2240014
 0.2196495 0.2154878 0.2146497 0.2186091 0.2248402 0.2294193 0.2315173 0.2336685 0.2377856 0.2425306
 0.2449511 0.2437037 0.2403263 0.2378906 0.2385335 0.241764 0.2448344 0.2450872 0.2424822 0.2398722
 0.2403786 0.2444156 0.2496374 0.2536052 0.2557724 0.256975 0.2580028 0.2589103 0.2589701 0.2572157
 0.2538012 0.2508053 0.2507583 0.2541327 0.2588965 0.2626198 0.2644428 0.2649451 0.2648115 0.2641197
 0.2627312 0.2609286 0.2594278 0.2588075 0.2590914 0.2599044 0.2608581 0.2617172 0.2623738 0.2628246
 0.2631319 0.2633407 0.2634625 0.263532 0.2635915 0.2636086 0.2635126 0.2633514 0.2633144 0.263528
 0.26389 0.2641708 0.2642204 0.2639934 0.263437 0.2624955 0.261231 0.2598071 0.2583022 0.256655
 0.2549107 0.2534827 0.2530199 0.2539138 0.2559359 0.2583849 0.2605695 0.2621505 0.2631251 0.2636375
 0.2638498 0.2639002 0.2638789 0.2638135 0.2636893 0.2634876 0.2632078 0.2628627 0.2624685 0.2620543
 0.2616705 0.2613629 0.2611232 0.2608803 0.260554 0.2601147 0.2595932 0.2590464 0.2585099 0.2579639
 0.2573446 0.2565984 0.2557266 0.2547826 0.2538407 0.2529632 0.2521678 0.2514142 0.2506412 0.2498159
 0.2489265 0.2479426 0.2468392 0.2456754 0.2445971 0.2437207 0.24303 0.2424083 0.2417429 0.2409782
 0.2401023 0.239133 0.2381086 0.2370599 0.2359847 0.2348623 0.2336771 0.2324172 0.2310683 0.2296245
 0.2280954 0.2265014 0.2248728 0.2232387 0.2215891 0.2198461 0.2178845 0.2155733 0.212796 0.2094624
 0.2055406 0.2010924 0.1962744 0.191299 0.186378 0.1816823 0.1773396 0.1734518 0.1701041 0.1673615
 0.1652684 0.1638518 0.1631275 0.1631084 0.1638018 0.1651836 0.1671743 0.1696423 0.1724324 0.175388
 0.1783575 0.1811974 0.1838036 0.1861619 0.1883487 0.1904433 0.192442 0.1942804 0.1959179 0.1973595
 0.1986085 0.1996499 0.200486 0.2011603 0.2017306 0.2022306 0.2026626 0.2030205 0.203313 0.2035599
 0.2037771 0.2039747 0.2041656 0.2043605 0.204562 0.204774 0.2050118 0.2052999 0.2056616 0.2061087
 0.2066299 0.2071942 0.2077753 0.2083689 0.2089843 0.2096319 0.2103311 0.2111252 0.2120688 0.2131929
 0.2144756 0.2158496 0.2172324 0.2185472 0.2197247 0.2207071 0.2214604 0.221977 0.2222701 0.2223693
 0.2223141 0.22214 0.2218684 0.2215098 0.2210684 0.220543 0.2199379 0.2192753 0.2185895 0.2179037
 0.2172182 0.2165245 0.2158251 0.2151343 0.2144607 0.2138019 0.2131573 0.2125335 0.2119348 0.2113557
 0.2107862 0.2102128 0.2096217 0.2090137 0.2084086 0.2078151 0.207199 0.2065005 0.2056839 0.2047566
 0.2037423 0.202649 0.2014685 0.2001949 0.1988327 0.1973917 0.1958801 0.1943058 0.1926787 0.1909986
 0.1892385 0.1873565 0.185348 0.1832836 0.1812758 0.179404 0.1776815 0.1760802 0.174568 0.1731259
 0.1717514 0.1704487 0.1692184 0.1680606 0.1669821 0.1659812 0.1650309 0.1640997 0.163191 0.1623489
 0.1616173 0.1609977 0.1604546 0.1599606 0.1595229 0.1591603 0.1588802 0.1586961 0.1586347 0.158691
 0.158796 0.1588585 0.1588317 0.1587273 0.1585845 0.1584389 0.158311 0.1582119 0.1581435 0.1580749
 0.1579278 0.1576072 0.1570424 0.1561921 0.1550352 0.1535779 0.1518673 0.1500042 0.1481395 0.1464284
 0.1449675 0.1437899 0.1428971 0.1422545 0.1417777 0.141384 0.1410592 0.1408544 0.1408304 0.1409959
 0.1412605 0.1414711 0.1415498 0.1415847 0.1417492 0.1421561 0.1427954 0.1435608 0.1443152 0.1449599
 0.1454562 0.145799 0.1460075 0.1461284 0.1461951 0.1461932 0.1461001 0.1459247 0.145683 0.1453791
 0.1450176 0.1445911 0.1440712 0.1434488 0.1427503 0.1419961 0.1411912 0.140337 0.1393919 0.1382812
 0.1370407 0.1359014 0.1351603 0.134997 0.1354044 0.1362179 0.1372228 0.1382892 0.1393408 0.1401834
 0.1405707 0.1405842 0.1408019 0.141875 0.1439112 0.1463526 0.1484649 0.1498685 0.1505792 0.1507075
 0.1503018 0.149393 0.1479872 0.146047 0.143601 0.1407901 0.1377546 0.1346205 0.1315956 0.1288988
 0.1266263 0.1247939 0.1233991 0.1224655 0.1221012 0.1219307 0.120065 0.114068 0.104713 0.09768128
 0.0987864 0.1074431 0.1170795 0.122087 0.1222874 0.1206433 0.1191992 0.1182504 0.1176917 0.117692
 0.1184023 0.1196704 0.1210814 0.1222187 0.1229244 0.1232595 0.1231974 0.1223644 0.1199939 0.1152195
 0.1077732 0.09855805 0.08933532 0.0817094 0.07640055 0.07326242 0.07165909 0.07084155 0.07029821 0.06998002
 0.07019532 0.07124792 0.07318468 0.07586022 0.07909393 0.08262923 0.08603671 0.08888745 0.09106244 0.09274877
 0.09411414 0.09511409 0.09562506 0.09563399 0.09525364 0.09463312 0.09389709 0.09311371 0.09225538 0.09122056
 0.08999068 0.08877459 0.08789158 0.0874773 0.08739102 0.08741557 0.0874382 0.08743679 0.0874111 0.08736107
 0.08728836 0.08723375 0.08731276 0.08763197 0.08814577 0.0886616 0.08900323 0.08914073 0.08917031 0.08915552
 0.08897462 0.08843189 0.08759271 0.08682056 0.08630224 0.08572687 0.08470266 0.0833738 0.08234616 0.08203284
 0.08228566 0.08265395 0.08280671 0.08268285 0.08243938 0.08236834 0.0827053 0.08334361 0.08382478 0.08377314
</values></Ydata></ScRf><Data_Parameters_AB><parameter name="DPF">1</parameter><parameter name="NPT">3497</parameter><parameter name="FXV">3996</parameter><parameter name="LXV">500</parameter><parameter name="CSF">1</parameter><parameter name="MXY">0.150449603796005</parameter><parameter name="MNY">-0.083052471280098</parameter><parameter name="DAT">31/05/2022</parameter><parameter name="TIM">11:31:00.749 (GMT+2)</parameter><parameter name="DXU">WN</parameter></Data_Parameters_AB><AB__Qtest><MainReport name="Quality Test Report"><Header><Line><Legend>Test result ok/not ok [1/0]: </Legend><Value>0</Value></Line><Line><Legend>Method file: </Legend><Value>C:\Users\Public\Documents\Bruker\OPUS_8.2.28\QT\IRBT_v3_default.QT</Value></Line></Header><Matrix><Line><Legend></Legend><Legend>min</Legend><Legend>max</Legend><Legend>measured</Legend></Line><Line><Value>Absorption (X-Range 1):</Value><Value>0.400000</Value><Value>2.000000</Value><Value>0.154084</Value></Line><Line><Value>Noise (X-Range 4):</Value><Value></Value><Value>0.000300</Value><Value>0.000044</Value></Line><Line><Value>Signal/Noise (X-Range 2):</Value><Value>200.000000</Value><Value></Value><Value>58.283536</Value></Line><Line><Value>Signal/Noise (X-Range 3):</Value><Value>40.000000</Value><Value></Value><Value>62.214364</Value></Line><Line><Value>Water vapour (X-Range 5):</Value><Value></Value><Value>0.000300</Value><Value>0.000075</Value></Line><Line><Value>Signal/Water (X-Range 2):</Value><Value>100.000000</Value><Value></Value><Value>33.855588</Value></Line><Line><Value>Signal/Water (X-Range 3):</Value><Value>20.000000</Value><Value></Value><Value>36.138917</Value></Line><Line><Value>Fringes (X-Range 6):</Value><Value></Value><Value>0.000100</Value><Value>0.000068</Value></Line></Matrix></MainReport></AB__Qtest><Data_Parameters_ScSm><parameter name="DPF">1</parameter><parameter name="NPT">1814</parameter><parameter name="FXV">3996.33169228125</parameter><parameter name="LXV">499.541461535156</parameter><parameter name="CSF">1</parameter><parameter name="MXY">0.293399304151535</parameter><parameter name="MNY">0.0362195074558258</parameter><parameter name="DAT">31/05/2022</parameter><parameter name="TIM">11:31:00.749 (GMT+2)</parameter><parameter name="DXU">WN</parameter></Data_Parameters_ScSm><Data_Parameters_ScRf><parameter name="DPF">1</parameter><parameter name="NPT">1820</parameter><parameter name="FXV">4004.04661832813</parameter><parameter name="LXV">495.683998511719</parameter><parameter name="CSF">1</parameter><parameter name="MXY">0.264945089817047</parameter><parameter name="MNY">0.030057068914175</parameter><parameter name="DAT">31/05/2022</parameter><parameter name="TIM">11:30:34.895 (GMT+2)</parameter><parameter name="DXU">WN</parameter></Data_Parameters_ScRf><Optic_Parameters_Rf><parameter name="APR">0</parameter><parameter name="APT">Open</parameter><parameter name="BMS">KBr</parameter><parameter name="DTC">RT-DLaTGS_IR-Biotyper [Microplate reader]</parameter><parameter name="HPF">0</parameter><parameter name="LPF">10.0</parameter><parameter name="LPV">4000</parameter><parameter name="PGR">0</parameter><parameter name="RCH">Module port</parameter><parameter name="RDX">0</parameter><parameter name="SRC">MIR</parameter><parameter name="VEL">10.0</parameter><parameter name="SON">Off</parameter></Optic_Parameters_Rf><Acquisition_Parameters_Rf><parameter name="ADT">1</parameter><parameter name="AQM">DD</parameter><parameter name="CFE">0</parameter><parameter name="COR">0</parameter><parameter name="DEL">0</parameter><parameter name="DLY">0</parameter><parameter name="HFW">8000</parameter><parameter name="LFW">0</parameter><parameter name="NSR">32</parameter><parameter name="PLF">AB</parameter><parameter name="RES">6</parameter><parameter name="RGN">-1</parameter><parameter name="STR">0</parameter><parameter name="TCL">MakeCompatibleScalar (0, {WSV=1.000000, ARV=0});</parameter><parameter name="TDL">37</parameter><parameter name="RPO">0</parameter></Acquisition_Parameters_Rf><FT_-_Parameters_Rf><parameter name="APF">B3</parameter><parameter name="HFQ">500</parameter><parameter name="LFQ">4000</parameter><parameter name="NLI">0</parameter><parameter name="PHR">24</parameter><parameter name="PHZ">ML</parameter><parameter name="SPZ">NO</parameter><parameter name="ZFF">1</parameter></FT_-_Parameters_Rf><Optic_Parameters_><parameter name="APR">0</parameter><parameter name="APT">Open</parameter><parameter name="BMS">KBr</parameter><parameter name="CHN">Module port</parameter><parameter name="DTC">RT-DLaTGS_IR-Biotyper [Microplate reader]</parameter><parameter name="HPF">0</parameter><parameter name="LPF">10.0</parameter><parameter name="LPV">4000</parameter><parameter name="PGN">0</parameter><parameter name="RDX">0</parameter><parameter name="SRC">MIR</parameter><parameter name="VEL">10.0</parameter><parameter name="SON">Off</parameter></Optic_Parameters_><FT_-_Parameters_><parameter name="APF">B3</parameter><parameter name="HFQ">500</parameter><parameter name="LFQ">4000</parameter><parameter name="NLI">0</parameter><parameter name="PHR">24</parameter><parameter name="PHZ">ML</parameter><parameter name="SPZ">NO</parameter><parameter name="ZFF">1</parameter></FT_-_Parameters_><Acquisition_Parameters_><parameter name="ADT">1</parameter><parameter name="AQM">DD</parameter><parameter name="CFE">0</parameter><parameter name="COR">0</parameter><parameter name="DEL">0</parameter><parameter name="DLY">0</parameter><parameter name="HFW">8000</parameter><parameter name="LFW">0</parameter><parameter name="NSS">32</parameter><parameter name="PLF">AB</parameter><parameter name="RES">6</parameter><parameter name="SOT">0</parameter><parameter name="TCL">MakeCompatibleScalar (0, {WSV=1.000000, ARV=0});</parameter><parameter name="TDL">37</parameter><parameter name="SPO">0</parameter><parameter name="SGN">-1</parameter></Acquisition_Parameters_><Instrument_Parameters_Rf><parameter name="HFL">15800.168544</parameter><parameter name="LFL">0</parameter><parameter name="LWN">15800.168544</parameter><parameter name="ABP">32197</parameter><parameter name="SSP">1</parameter><parameter name="ARG">2</parameter><parameter name="ASG">2</parameter><parameter name="ASS">32</parameter><parameter name="GFW">16</parameter><parameter name="GBW">16</parameter><parameter name="BFW">0</parameter><parameter name="BBW">0</parameter><parameter name="PKA">7267</parameter><parameter name="PKL">4996</parameter><parameter name="PRA">7447</parameter><parameter name="PRL">5001</parameter><parameter name="P2A">1</parameter><parameter name="P2L">1</parameter><parameter name="P2R">1</parameter><parameter name="P2K">1</parameter><parameter name="DAQ">0</parameter><parameter name="AG2">1</parameter><parameter name="SSM">1</parameter><parameter name="RSN">25463</parameter><parameter name="CRR">0</parameter><parameter name="SRT">1653996634.896</parameter><parameter name="DUR">19.6379852294922</parameter><parameter name="TSC">28.9</parameter><parameter name="MVD">0.222410798072815</parameter><parameter name="AN1">0.225796575348302</parameter><parameter name="AN2">0</parameter><parameter name="VSN">2.485 Apr  4 2017</parameter><parameter name="SRN">0085</parameter><parameter name="CAM">0</parameter><parameter name="INS">IR-Biotyper</parameter><parameter name="FOC">69</parameter><parameter name="RDY">1</parameter><parameter name="ARS">32</parameter></Instrument_Parameters_Rf><Sample_Parameters_><parameter name="BLD"></parameter><parameter name="CNM">Admin</parameter><parameter name="CPY"></parameter><parameter name="DPM"></parameter><parameter name="EXP">IRBT_v3_32Scans.XPM</parameter><parameter name="LCT"></parameter><parameter name="SFM">Microplate, HTS-XT</parameter><parameter name="SNM">220531-1021(v.3)_FBG21M (D_1)_A8_8d84e434-e416-4730-846a-5b50229e8797.0</parameter><parameter name="XPP">C:\Users\Public\Documents\Bruker\OPUS_8.2.28\XPM</parameter><parameter name="IST">OK</parameter><parameter name="CPG">1252</parameter><parameter name="UID">d8314260-adff-4f94-bb51-26c1a00a0377</parameter></Sample_Parameters_><Instrument_Parameters_><parameter name="HFL">15800.168544</parameter><parameter name="LFL">0</parameter><parameter name="LWN">15800.168544</parameter><parameter name="ABP">32197</parameter><parameter name="SSP">1</parameter><parameter name="ASG">2</parameter><parameter name="ARG">2</parameter><parameter name="ASS">32</parameter><parameter name="GFW">16</parameter><parameter name="GBW">16</parameter><parameter name="BFW">0</parameter><parameter name="BBW">0</parameter><parameter name="PKA">7751</parameter><parameter name="PKL">4988</parameter><parameter name="PRA">7986</parameter><parameter name="PRL">4993</parameter><parameter name="P2A">1</parameter><parameter name="P2L">1</parameter><parameter name="P2R">1</parameter><parameter name="P2K">1</parameter><parameter name="DAQ">0</parameter><parameter name="AG2">1</parameter><parameter name="SSM">1</parameter><parameter name="RSN">13357</parameter><parameter name="CRR">0</parameter><parameter name="SRT">1653996660.749</parameter><parameter name="DUR">19.6369934082031</parameter><parameter name="TSC">28.9</parameter><parameter name="MVD">0.198579251766205</parameter><parameter name="AN1">0.225791957948474</parameter><parameter name="AN2">0</parameter><parameter name="VSN">2.485 Apr  4 2017</parameter><parameter name="SRN">0085</parameter><parameter name="CAM">0</parameter><parameter name="INS">IR-Biotyper</parameter><parameter name="FOC">69</parameter><parameter name="RDY">1</parameter></Instrument_Parameters_><History/></OPUSDataFile>
