<?xml version="1.0" encoding="UTF-8" ?>
<OPUSDataFile><AB><Ydata ylabel="Absorbance Units"><values byteorder="INTEL" format="FLOAT32" numvalues="3497"> -0.09186269 -0.09179372 -0.09173548 -0.09168796 -0.09165254 -0.09162927 -0.0916052 -0.09157986 -0.09154264 -0.09149531
 -0.09144233 -0.09138655 -0.09134098 -0.09130523 -0.09128579 -0.09127863 -0.09128028 -0.09128707 -0.09129348 -0.09129765
 -0.09129672 -0.0912889 -0.09127234 -0.09124689 -0.09121113 -0.09116986 -0.09112316 -0.09107952 -0.09104024 -0.09101123
 -0.09099346 -0.0909863 -0.09098978 -0.09099699 -0.09100764 -0.09101541 -0.09102143 -0.09102874 -0.09103965 -0.09106519
 -0.09110416 -0.09116136 -0.0912293 -0.09129909 -0.09136185 -0.0914032 -0.0914209 -0.09140696 -0.0913673 -0.09130197
 -0.0912199 -0.09112367 -0.09102228 -0.09091782 -0.090819 -0.0907274 -0.09064917 -0.09058519 -0.09053737 -0.09050583
 -0.09048738 -0.09048142 -0.0904794 -0.09048086 -0.09047759 -0.09047157 -0.09046475 -0.09046096 -0.09047087 -0.09049542
 -0.09054302 -0.09060725 -0.09068652 -0.0907675 -0.09084053 -0.09089204 -0.09091065 -0.09089473 -0.09083777 -0.09075648
 -0.09065197 -0.09054761 -0.09044735 -0.09036587 -0.09030508 -0.09027208 -0.09026736 -0.09029869 -0.09036601 -0.09047286
 -0.09061497 -0.0907715 -0.09093175 -0.09104374 -0.09110486 -0.09107577 -0.09097693 -0.09082213 -0.09063651 -0.09045662
 -0.09029137 -0.09016255 -0.09006187 -0.08999211 -0.08993862 -0.08989515 -0.08985777 -0.08982247 -0.08979926 -0.08978958
 -0.08979897 -0.08982933 -0.08986688 -0.08991097 -0.08994162 -0.08995911 -0.08996312 -0.08995655 -0.08995836 -0.08996891
 -0.09000223 -0.09005101 -0.09010638 -0.09015717 -0.09017802 -0.0901695 -0.0901174 -0.09004071 -0.08994963 -0.0898603
 -0.08978739 -0.0897281 -0.08968528 -0.08965094 -0.08962092 -0.08960421 -0.08959962 -0.08963197 -0.08970492 -0.0898231
 -0.0899877 -0.09011777 -0.09020732 -0.09013972 -0.08992996 -0.08961397 -0.08921691 -0.08885592 -0.08853466 -0.08832204
 -0.08820727 -0.08821003 -0.08829883 -0.08845258 -0.08862108 -0.08875439 -0.08882834 -0.08880333 -0.08872025 -0.08858142
 -0.08844206 -0.08832239 -0.08822627 -0.08816008 -0.08809824 -0.08803768 -0.0879731 -0.08790375 -0.08785005 -0.08781295
 -0.08781125 -0.0878425 -0.08790244 -0.08798362 -0.08805639 -0.08811366 -0.08812018 -0.08807996 -0.08798036 -0.0878372
 -0.08766292 -0.08747443 -0.08728909 -0.08711914 -0.08697561 -0.0868661 -0.08679748 -0.08676639 -0.08677629 -0.08680638
 -0.0868549 -0.08689735 -0.08693068 -0.08694345 -0.08693481 -0.08689526 -0.08682425 -0.08671036 -0.08655569 -0.08636662
 -0.08614933 -0.08593081 -0.0857155 -0.08552912 -0.08537054 -0.08525041 -0.08516346 -0.08510867 -0.08507796 -0.08506569
 -0.0850618 -0.08505976 -0.08505087 -0.08502998 -0.08499354 -0.08493848 -0.08486978 -0.08478636 -0.08470345 -0.0846222
 -0.08455825 -0.08451279 -0.08448691 -0.08447974 -0.08447625 -0.08447505 -0.08445854 -0.08442833 -0.08438019 -0.08431885
 -0.08425443 -0.08418995 -0.08413716 -0.08409206 -0.0840566 -0.08402006 -0.0839719 -0.08391175 -0.08383093 -0.0837521
 -0.08368095 -0.08364031 -0.08364145 -0.08367578 -0.08374651 -0.08382204 -0.08389948 -0.08395614 -0.08399069 -0.08397306
 -0.08390165 -0.08374132 -0.08349948 -0.08320702 -0.0828793 -0.08259754 -0.08236256 -0.08222389 -0.08215974 -0.08215985
 -0.08218887 -0.08219428 -0.08216726 -0.08207329 -0.08194458 -0.08179092 -0.08163723 -0.08150072 -0.08137387 -0.08126129
 -0.08113518 -0.08099052 -0.08081258 -0.08059666 -0.08036587 -0.08012103 -0.07990129 -0.07970789 -0.07956409 -0.07946764
 -0.07941792 -0.07940573 -0.07939761 -0.0793784 -0.0792848 -0.07912411 -0.07887085 -0.07856277 -0.07824092 -0.07792175
 -0.07764165 -0.07737857 -0.07713207 -0.07687252 -0.07658351 -0.07626441 -0.07590681 -0.07554191 -0.07517343 -0.07482978
 -0.07451661 -0.07422836 -0.07396581 -0.07368452 -0.07338247 -0.07301807 -0.07259727 -0.07214311 -0.07166394 -0.07121057
 -0.07077671 -0.07037135 -0.06998558 -0.06960732 -0.06923036 -0.06884675 -0.06843884 -0.06799044 -0.06748344 -0.06689334
 -0.06624481 -0.06553736 -0.06481426 -0.06409425 -0.0633687 -0.06264125 -0.06188304 -0.06108918 -0.06026404 -0.05940735
 -0.05853479 -0.05764699 -0.05675345 -0.05585564 -0.05496962 -0.0540957 -0.05324638 -0.05241517 -0.05159105 -0.05076822
 -0.04993098 -0.04907637 -0.04820212 -0.04728354 -0.04630261 -0.04522675 -0.04401261 -0.04271054 -0.04131754 -0.03993622
 -0.03860458 -0.03733821 -0.0361517 -0.03500257 -0.03388734 -0.03277594 -0.03166578 -0.03055016 -0.02942954 -0.02831716
 -0.02721322 -0.02613195 -0.02506088 -0.02396063 -0.02280725 -0.02149936 -0.02006134 -0.01846975 -0.01681232 -0.01520854
 -0.01367525 -0.01228951 -0.01097799 -0.009718169 -0.008447763 -0.007126368 -0.00575609 -0.004323335 -0.002872785 -0.001411918
 3.408619E-05 0.001458563 0.002879115 0.004295894 0.00574755 0.007234865 0.008769729 0.01034644 0.01192511 0.01350224
 0.01503844 0.01654197 0.01801551 0.01946752 0.02091543 0.02236325 0.02382172 0.02529677 0.02680045 0.02832587
 0.02987724 0.03142898 0.03296587 0.03449278 0.03599907 0.03754047 0.03912829 0.04078798 0.04253107 0.04428976
 0.04606066 0.0477704 0.04941819 0.05100971 0.05255022 0.05408398 0.05561248 0.05716768 0.05874248 0.06033661
 0.06193577 0.06350824 0.06505639 0.06655855 0.06805586 0.06957531 0.0711584 0.07285602 0.07462865 0.07648499
 0.07833024 0.08013005 0.08186381 0.08351424 0.08513231 0.08672218 0.08832253 0.08993678 0.09157737 0.09324455
 0.09493956 0.09666031 0.09839156 0.1001299 0.1018504 0.1035557 0.105238 0.1069066 0.1085757 0.1102522
 0.1119542 0.113676 0.1154232 0.1171759 0.1189231 0.1206507 0.1223443 0.1240202 0.1256771 0.1273469
 0.1290376 0.1307569 0.1325086 0.134276 0.1360586 0.1378407 0.1396214 0.1413808 0.1431182 0.1448139
 0.1464743 0.1481168 0.1497512 0.1514207 0.1531163 0.1548457 0.156586 0.1583051 0.159998 0.1616433
 0.1632594 0.1648514 0.1664374 0.1680294 0.1696271 0.171237 0.172836 0.174422 0.1759681 0.1774677
 0.1789357 0.1803712 0.18183 0.183314 0.1848464 0.1864222 0.1880058 0.189595 0.1911599 0.1927064
 0.1942391 0.1957556 0.1972548 0.1987291 0.2001628 0.2015643 0.2029341 0.2042864 0.2056343 0.206975
 0.2083113 0.2096361 0.2109456 0.2122449 0.2135343 0.214819 0.2161 0.2173759 0.218647 0.2199046
 0.221148 0.2223514 0.2235142 0.2246169 0.2256687 0.2267007 0.2277258 0.2288032 0.2299273 0.2311199
 0.2323592 0.2336239 0.2348977 0.2361576 0.2373948 0.238597 0.2397597 0.2408744 0.2419546 0.2430003
 0.244035 0.2450653 0.2460954 0.2471276 0.2481551 0.2491773 0.250197 0.251214 0.2522207 0.2532147
 0.2541683 0.2550824 0.2559448 0.2567626 0.2575505 0.2583131 0.2590647 0.2598101 0.2605595 0.2613236
 0.2621189 0.2629448 0.2638105 0.2646952 0.2655924 0.2664843 0.2673642 0.268223 0.2690599 0.269857
 0.2706117 0.2713144 0.2719629 0.2725844 0.2731805 0.2737846 0.2743946 0.2750062 0.2756158 0.2762023
 0.2767693 0.2773167 0.2778511 0.2783881 0.2789263 0.279474 0.2800187 0.2805537 0.2810614 0.2815252
 0.2819439 0.2823054 0.2826414 0.2829564 0.2832879 0.283648 0.2840377 0.2844617 0.2848862 0.2853092
 0.2856966 0.2860471 0.2863439 0.2865882 0.2867803 0.2869237 0.2870342 0.2871157 0.2871878 0.2872526
 0.2873222 0.2874003 0.2874967 0.2876157 0.2877671 0.2879455 0.288152 0.2883748 0.2886079 0.2888476
 0.2890927 0.2893373 0.2895843 0.2898011 0.2899857 0.2900951 0.2901247 0.2900649 0.289916 0.289715
 0.2894658 0.2892213 0.2889812 0.2887734 0.2885913 0.2884267 0.288277 0.2881287 0.2879927 0.2878796
 0.2877962 0.2877618 0.2877528 0.2877642 0.2877583 0.2877106 0.2876186 0.2874683 0.2873021 0.287125
 0.2869793 0.2868742 0.286812 0.2867954 0.2867873 0.2867856 0.2867408 0.2866524 0.2864939 0.2862723
 0.2860059 0.285708 0.2854296 0.2851796 0.2850057 0.2848991 0.2848751 0.2849009 0.2849534 0.2849935
 0.284981 0.2849138 0.2847698 0.2846013 0.2844171 0.2842752 0.2841931 0.284184 0.2842532 0.284393
 0.2846021 0.2848973 0.2852789 0.2857605 0.2863352 0.2869471 0.2875784 0.2881074 0.2885259 0.2887329
 0.2887561 0.2885919 0.2883051 0.2879853 0.2876934 0.2875363 0.2875096 0.2876629 0.287908 0.2882257
 0.2885045 0.2886993 0.2887596 0.2886565 0.2884298 0.2880754 0.2876815 0.2872553 0.2868622 0.2865052
 0.2861908 0.2859167 0.2856585 0.2854185 0.285194 0.2849938 0.2848475 0.284754 0.2847352 0.2847619
 0.2848099 0.2848254 0.2847458 0.2845294 0.284117 0.2835237 0.2827274 0.2818052 0.2807705 0.2797162
 0.2786649 0.2776778 0.2767683 0.2759567 0.2752477 0.2746233 0.274082 0.2735626 0.2730607 0.2725061
 0.2719059 0.2712561 0.2705775 0.2699406 0.2693455 0.2688413 0.2683811 0.2679205 0.2674055 0.2667487
 0.2659623 0.2650068 0.2639764 0.2628979 0.2618806 0.2609739 0.2602143 0.2596331 0.2591564 0.2587871
 0.2583833 0.257933 0.25733 0.2565694 0.2556638 0.2546223 0.2535535 0.2524652 0.2514593 0.2505273
 0.2496965 0.2489486 0.2482559 0.2476053 0.2469644 0.2463275 0.245678 0.2450104 0.2443162 0.2435919
 0.2428304 0.2420433 0.2412289 0.2404173 0.2396144 0.2388446 0.2381152 0.2374159 0.236748 0.2360727
 0.2353881 0.234663 0.2338982 0.2330932 0.2322525 0.2313995 0.2305387 0.2296986 0.2288795 0.2280984
 0.2273478 0.2266254 0.2259188 0.2252132 0.2245002 0.2237672 0.2230156 0.2222415 0.2214537 0.2206539
 0.219851 0.2190479 0.2182475 0.2174512 0.2166544 0.2158568 0.2150528 0.214242 0.2134251 0.2126025
 0.2117794 0.2109556 0.2101329 0.2093097 0.2084817 0.2076477 0.2068017 0.2059462 0.2050808 0.2042137
 0.2033523 0.2025073 0.2016875 0.2009043 0.2001631 0.1994799 0.1988618 0.1983174 0.1978574 0.1974421
 0.1970752 0.1966559 0.1961761 0.1955448 0.1947573 0.1938238 0.1927536 0.1916597 0.1905534 0.1895607
 0.1886757 0.1879524 0.1873594 0.1868583 0.1864039 0.1859051 0.185341 0.1846395 0.183842 0.1829449
 0.1820274 0.1811347 0.1803004 0.1795578 0.1788642 0.1782152 0.1775737 0.1769252 0.1763144 0.1757415
 0.175287 0.174955 0.1747508 0.1746657 0.1745954 0.1745261 0.1743199 0.173981 0.1734415 0.1727361
 0.1719051 0.1709949 0.1701027 0.1692431 0.1684803 0.1677783 0.1671324 0.1665015 0.1658527 0.1651987
 0.1645304 0.1638934 0.1633023 0.1627595 0.1622728 0.1617915 0.1613107 0.1608054 0.1602742 0.1597612
 0.1592693 0.1588528 0.1585057 0.1582224 0.1579897 0.157756 0.1575168 0.1572331 0.1569146 0.1565598
 0.1561779 0.1557838 0.1553677 0.1549337 0.1544496 0.1539003 0.1532597 0.1525064 0.1516645 0.1507249
 0.1497736 0.148819 0.1479556 0.1471961 0.1465642 0.1460619 0.1456164 0.1452207 0.1447637 0.1442457
 0.1436067 0.1428641 0.1420455 0.141175 0.1403252 0.1395057 0.1387693 0.1381022 0.137513 0.136975
 0.136472 0.1359785 0.1354756 0.1349532 0.1343997 0.1338295 0.1332418 0.1326636 0.1321012 0.1315566
 0.1310335 0.1304915 0.1299288 0.1293057 0.1286243 0.1279024 0.1271483 0.1264247 0.1257309 0.1251026
 0.1245223 0.1239654 0.1234171 0.1228359 0.1222312 0.1215933 0.1209466 0.120308 0.1196921 0.119113
 0.1185714 0.1180699 0.1176112 0.1171956 0.1168312 0.1165205 0.1162597 0.1160507 0.1158624 0.1156934
 0.1154926 0.1152578 0.1149468 0.1145633 0.1141041 0.113581 0.1130328 0.1124739 0.111958 0.1114936
 0.1111197 0.1108342 0.1106519 0.1105592 0.1105526 0.1106107 0.1107218 0.1108673 0.111037 0.1112232
 0.111421 0.1116334 0.1118589 0.1121109 0.1123892 0.1127251 0.1131203 0.1136172 0.1142168 0.1149414
 0.1157857 0.1167292 0.1177621 0.1188379 0.1199514 0.1210655 0.1221817 0.1232861 0.1243815 0.1254661
 0.1265415 0.127608 0.1286667 0.1297197 0.1307631 0.1317996 0.1328093 0.1337915 0.1347097 0.1355594
 0.1363037 0.1369381 0.1374417 0.1378129 0.1380504 0.1381551 0.1381416 0.1380127 0.1377932 0.137487
 0.1371203 0.1367008 0.1362555 0.1358024 0.1353797 0.1350137 0.1347512 0.1346054 0.1346093 0.1347436
 0.1350118 0.1353754 0.1358209 0.1363194 0.1368607 0.1374292 0.1380225 0.13862 0.1392207 0.1397925
 0.1403339 0.1408108 0.1412214 0.1415337 0.1417455 0.1418265 0.1417779 0.141585 0.1412575 0.1408111
 0.140258 0.1396318 0.1389261 0.138158 0.1372837 0.1362831 0.1350875 0.1336516 0.131935 0.1298971
 0.1275833 0.1249794 0.1222262 0.1193353 0.1164838 0.1136913 0.1110847 0.1086739 0.1064861 0.1045185
 0.1027236 0.1010967 0.09958383 0.09818652 0.09688374 0.09567492 0.09455276 0.09350441 0.09250583 0.09154221
 0.09058112 0.08962928 0.08867466 0.08774903 0.08686523 0.08605473 0.08533531 0.08471489 0.08420154 0.08378216
 0.08345647 0.08320752 0.08303307 0.08292645 0.08288705 0.08291674 0.08301414 0.08316057 0.08334669 0.08350231
 0.08361254 0.08357734 0.0833964 0.08300909 0.08244452 0.08171967 0.08087938 0.07998455 0.07906904 0.07818314
 0.07733964 0.07656085 0.0758443 0.07519522 0.07460316 0.07406677 0.07357553 0.07312743 0.07271657 0.07234395
 0.07198714 0.07164616 0.0712388 0.07075721 0.07005572 0.0691283 0.06785037 0.06624494 0.06432141 0.06214074
 0.05986019 0.05754034 0.05537159 0.05335764 0.05159433 0.05002008 0.04861925 0.04732141 0.04607435 0.04485691
 0.04364217 0.04245369 0.04129206 0.04018287 0.03913203 0.03814745 0.03723143 0.03637918 0.03559081 0.03485033
 0.03415641 0.03348355 0.03283089 0.03217874 0.03152968 0.03088268 0.03024282 0.02962304 0.02902659 0.02846696
 0.02794081 0.02745252 0.02698857 0.02654131 0.02609192 0.02562549 0.02513611 0.02461253 0.02407693 0.02352944
 0.02300841 0.02252197 0.02208867 0.02171448 0.02137498 0.02106953 0.02075173 0.02042033 0.02005354 0.01965534
 0.01924562 0.01882749 0.01842796 0.01803933 0.01765617 0.01726667 0.01684244 0.01638755 0.0158898 0.0153733
 0.01485362 0.01435411 0.0138957 0.01348269 0.01312448 0.01280842 0.01253519 0.01228193 0.01204662 0.01179873
 0.01153464 0.01123153 0.01088702 0.01050872 0.01009818 0.009689841 0.009285263 0.008913662 0.008571671 0.008261614
 0.007977395 0.007703376 0.007436372 0.00716238 0.006882985 0.006593465 0.006299547 0.006003279 0.005713955 0.005437099
 0.005181512 0.004953818 0.004752057 0.004580546 0.004417769 0.004262609 0.004083288 0.003875233 0.003624358 0.003328605
 0.003007611 0.002662974 0.00232893 0.002005326 0.0017077 0.001431874 0.001168025 0.0009131003 0.0006521983 0.0003881351
 0.0001182124 -0.0001512696 -0.0004128364 -0.0006628588 -0.000892964 -0.00110985 -0.001311372 -0.001517732 -0.001735148 -0.0019856
 -0.002278791 -0.002617067 -0.003005861 -0.003420227 -0.003859182 -0.004288858 -0.004706617 -0.005095446 -0.005455292 -0.005791703
 -0.006106098 -0.00641229 -0.006710387 -0.007008195 -0.007304716 -0.007600932 -0.007896492 -0.008191124 -0.008484917 -0.008778227
 -0.009070124 -0.009359743 -0.009646827 -0.009930246 -0.01021263 -0.01049486 -0.01077895 -0.01106665 -0.01135406 -0.01164114
 -0.01192157 -0.01219426 -0.01245819 -0.01271313 -0.01296268 -0.01320683 -0.01344374 -0.01367254 -0.01388459 -0.01408019
 -0.0142545 -0.01441182 -0.01456074 -0.01470745 -0.01486835 -0.0150459 -0.01525158 -0.01548117 -0.01573613 -0.01600767
 -0.01629137 -0.01657846 -0.01686421 -0.01714299 -0.01741173 -0.01767006 -0.01791695 -0.01815628 -0.01838826 -0.01861732
 -0.01884382 -0.01906947 -0.01929426 -0.01951691 -0.01973718 -0.01995245 -0.02016262 -0.02036542 -0.02056187 -0.02075303
 -0.0209415 -0.02113295 -0.02132895 -0.02153528 -0.02174862 -0.02196929 -0.02218968 -0.02240489 -0.02261003 -0.02280036
 -0.0229794 -0.02314605 -0.02330987 -0.02347238 -0.02364169 -0.02381935 -0.02400663 -0.02420389 -0.02440685 -0.02461533
 -0.02482601 -0.02503911 -0.02525529 -0.02547461 -0.02569811 -0.0259246 -0.02615133 -0.02637685 -0.02659656 -0.02681096
 -0.02701804 -0.02722089 -0.02742123 -0.02762297 -0.02782904 -0.02804215 -0.02826458 -0.02849609 -0.02873785 -0.02898531
 -0.02923849 -0.02948906 -0.02973602 -0.02997292 -0.03019897 -0.03041575 -0.03062354 -0.03083123 -0.03103937 -0.03125678
 -0.0314828 -0.03171975 -0.03196548 -0.03221552 -0.03246698 -0.03271199 -0.03294893 -0.03317136 -0.03338153 -0.0335778
 -0.03376735 -0.03395364 -0.03414451 -0.03434489 -0.03455716 -0.03478419 -0.03502067 -0.0352668 -0.0355128 -0.03575752
 -0.0359934 -0.03621962 -0.03643519 -0.03664019 -0.03683943 -0.03703318 -0.03722613 -0.03741796 -0.0376098 -0.03780096
 -0.03798988 -0.03817638 -0.03835913 -0.03853881 -0.03871552 -0.03889074 -0.0390657 -0.03924216 -0.03942172 -0.03960523
 -0.03979352 -0.03998674 -0.04018533 -0.04038819 -0.04059577 -0.0408033 -0.04101067 -0.04120973 -0.04139976 -0.041577
 -0.04174149 -0.04189957 -0.04205198 -0.04220859 -0.04236881 -0.04253557 -0.0427065 -0.04287596 -0.04304234 -0.04319907
 -0.04334712 -0.04348447 -0.04361434 -0.04373867 -0.04386153 -0.04398585 -0.04411555 -0.04425315 -0.0444008 -0.0445604
 -0.04472952 -0.04490902 -0.04509006 -0.04527205 -0.04544385 -0.0456043 -0.04575026 -0.0458818 -0.04600725 -0.04612747
 -0.0462542 -0.04638724 -0.0465319 -0.04668705 -0.04685197 -0.04702586 -0.04720701 -0.04739425 -0.04758573 -0.04777924
 -0.04797172 -0.04816252 -0.04834937 -0.04853556 -0.04872203 -0.04891165 -0.04910663 -0.04930333 -0.0495022 -0.04969472
 -0.0498797 -0.05005221 -0.0502115 -0.05036042 -0.05049923 -0.05063556 -0.05077003 -0.0509115 -0.05106024 -0.05122304
 -0.05139799 -0.0515838 -0.05177597 -0.05196414 -0.05214604 -0.05231194 -0.05246714 -0.05261219 -0.05275582 -0.05290552
 -0.05306246 -0.053231 -0.05340259 -0.05357571 -0.05374208 -0.05389873 -0.0540464 -0.05418414 -0.05431954 -0.05445308
 -0.05459137 -0.05473466 -0.05488409 -0.05503925 -0.05519668 -0.05535596 -0.05551331 -0.05566847 -0.05581881 -0.05596382
 -0.0561012 -0.05623048 -0.05634959 -0.05645965 -0.05656048 -0.0566549 -0.05674472 -0.05683217 -0.05691867 -0.05700562
 -0.05709333 -0.05718468 -0.05728013 -0.05738318 -0.05749486 -0.05761313 -0.05773824 -0.05786138 -0.05798211 -0.05809369
 -0.05819671 -0.05829491 -0.05838948 -0.05848916 -0.05859314 -0.05870383 -0.0588188 -0.05893327 -0.05904718 -0.05915791
 -0.05926732 -0.05937719 -0.05948636 -0.05959545 -0.05970021 -0.0597983 -0.05988846 -0.0599691 -0.06004323 -0.06011107
 -0.06017592 -0.06023803 -0.06030155 -0.06036669 -0.06043961 -0.06052056 -0.060611 -0.06071012 -0.06080982 -0.0609093
 -0.0609993 -0.06108142 -0.06115583 -0.0612247 -0.06129366 -0.06136181 -0.06143064 -0.06149769 -0.06155999 -0.06161878
 -0.06167299 -0.06172753 -0.0617849 -0.06184704 -0.06191644 -0.06198748 -0.0620597 -0.06212639 -0.06218598 -0.06223892
 -0.06228485 -0.06232998 -0.06237463 -0.06242228 -0.06247285 -0.06252603 -0.06258225 -0.06264323 -0.06271024 -0.06278827
 -0.06287859 -0.06298576 -0.06311209 -0.0632619 -0.06343977 -0.06365176 -0.06390196 -0.0641961 -0.06453314 -0.06491371
 -0.06533728 -0.06580149 -0.06631702 -0.06688496 -0.06751999 -0.06822746 -0.06899191 -0.06981533 -0.07063515 -0.07144789
 -0.07217426 -0.0728116 -0.07330588 -0.07365626 -0.07382987 -0.07382677 -0.07362402 -0.07323519 -0.07266723 -0.07196268
 -0.07118182 -0.0703787 -0.06963544 -0.0689778 -0.06845187 -0.0680586 -0.06780906 -0.06770142 -0.06773991 -0.06791081
 -0.06822211 -0.06860261 -0.06905203 -0.06943777 -0.06974667 -0.06990689 -0.06991502 -0.06982186 -0.06963332 -0.06943323
 -0.06922284 -0.0690538 -0.06891911 -0.06882527 -0.06875933 -0.06869467 -0.06862431 -0.06852348 -0.06839675 -0.06823996
 -0.06805817 -0.06785424 -0.0676306 -0.0673869 -0.06713356 -0.06687223 -0.0666192 -0.06637917 -0.06615905 -0.06596159
 -0.06578092 -0.06561689 -0.06546246 -0.06531729 -0.06518029 -0.06505173 -0.06493433 -0.06482805 -0.06473414 -0.06465189
 -0.06457968 -0.06451676 -0.06446085 -0.06441114 -0.06436555 -0.06432317 -0.06428181 -0.06424224 -0.06420338 -0.06416946
 -0.0641422 -0.06412529 -0.06412166 -0.06412753 -0.06414358 -0.06416001 -0.06417528 -0.06418374 -0.06418432 -0.06418055
 -0.06417257 -0.06416794 -0.06416684 -0.06417405 -0.06418916 -0.0642125 -0.06424315 -0.06427829 -0.06431678 -0.0643547
 -0.06439104 -0.06442261 -0.06444842 -0.06446604 -0.06447533 -0.06447464 -0.06446695 -0.06445219 -0.06443721 -0.06442421
 -0.06441881 -0.06442348 -0.06443709 -0.06446064 -0.06448581 -0.06451218 -0.06452943 -0.06453699 -0.06453039 -0.06451023
 -0.0644825 -0.06444855 -0.06441962 -0.0643956 -0.06438264 -0.06437848 -0.06438097 -0.0643881 -0.06439552 -0.06440271
 -0.06440759 -0.06440968 -0.06440817 -0.06440207 -0.06439025 -0.06437384 -0.0643525 -0.06432964 -0.06430607 -0.06428411
 -0.06426451 -0.06424639 -0.06422981 -0.06421275 -0.06419512 -0.06417683 -0.06415803 -0.06414082 -0.06412511 -0.06411159
 -0.06409951 -0.06408644 -0.06407205 -0.0640538 -0.06403326 -0.06401158 -0.06399084 -0.06397447 -0.06396181 -0.06395429
 -0.06394809 -0.06394165 -0.06393165 -0.06391596 -0.06389531 -0.06386892 -0.06384105 -0.06381213 -0.06378634 -0.06376419
 -0.06374726 -0.06373566 -0.06372765 -0.06372293 -0.06371764 -0.06371129 -0.063699 -0.06368068 -0.06365292 -0.06361686
 -0.06357287 -0.06352369 -0.06347381 -0.0634257 -0.06338435 -0.06334969 -0.06332409 -0.06330424 -0.06328931 -0.06327534
 -0.06326029 -0.0632435 -0.06322396 -0.06320448 -0.0631855 -0.0631683 -0.06315334 -0.06313717 -0.06311963 -0.06309643
 -0.06306764 -0.06303287 -0.0629927 -0.06295037 -0.06290657 -0.06286545 -0.06282757 -0.06279661 -0.06277213 -0.0627558
 -0.06274496 -0.0627377 -0.06273029 -0.06271887 -0.062702 -0.06267712 -0.06264678 -0.0626108 -0.06257409 -0.06253789
 -0.06250545 -0.06247793 -0.0624536 -0.06243272 -0.06240886 -0.06238164 -0.06234665 -0.06230422 -0.06225847 -0.0622104
 -0.06216891 -0.06213363 -0.06210874 -0.06209157 -0.06207802 -0.06206516 -0.06204595 -0.06201967 -0.06198209 -0.0619355
 -0.06187977 -0.06181896 -0.06175478 -0.06169193 -0.06163242 -0.06157977 -0.06153557 -0.06149983 -0.06147326 -0.06145161
 -0.06143475 -0.06141623 -0.06139565 -0.06136879 -0.06133572 -0.06129716 -0.0612537 -0.06120925 -0.06116451 -0.06112421
 -0.06108867 -0.06106147 -0.06104148 -0.06102922 -0.06102109 -0.0610136 -0.06100231 -0.06098177 -0.06095165 -0.0609087
 -0.06085981 -0.060806 -0.06075656 -0.06071478 -0.0606828 -0.06066249 -0.06064641 -0.0606342 -0.06061745 -0.06059559
 -0.0605674 -0.06053312 -0.06049676 -0.06045846 -0.06042099 -0.06038419 -0.06034884 -0.06031508 -0.06028384 -0.06025476
 -0.06022805 -0.06020206 -0.06017478 -0.06014546 -0.06011189 -0.06007693 -0.06004074 -0.06000892 -0.05998395 -0.05996833
 -0.05996433 -0.05996669 -0.0599757 -0.05998046 -0.05997979 -0.05996685 -0.05994102 -0.05990631 -0.05986334 -0.05982311
 -0.05978588 -0.05975917 -0.0597415 -0.05973163 -0.05972699 -0.05972045 -0.0597105 -0.05969063 -0.0596624 -0.05962406
 -0.05958063 -0.05953524 -0.05949316 -0.05945889 -0.05943301 -0.05941802 -0.05940781 -0.05940191 -0.05939193 -0.0593762
 -0.05935043 -0.05931352 -0.05926904 -0.05921707 -0.0591663 -0.05911712 -0.05907689 -0.05904512 -0.05902253 -0.05900754
 -0.05899446 -0.05898175 -0.05896203 -0.05893592 -0.05890019 -0.05885853 -0.0588136 -0.05877003 -0.05873302 -0.05870407
 -0.05868641 -0.05867691 -0.05867596 -0.05867707 -0.05867903 -0.05867491 -0.05866333 -0.05863964 -0.05860289 -0.05855379
 -0.05849225 -0.05842312 -0.05834675 -0.05826959 -0.05819214 -0.05812101 -0.05805645 -0.05800356 -0.05796099 -0.05792854
 -0.05790312 -0.05787921 -0.05785457 -0.05782355 -0.05778724 -0.05774418 -0.05769739 -0.05764833 -0.05759886 -0.05755071
 -0.05750191 -0.05745277 -0.05739857 -0.05733842 -0.05726961 -0.05719136 -0.05710702 -0.05701669 -0.05692735 -0.05683922
 -0.05675602 -0.05667737 -0.0566024 -0.0565307 -0.05646012 -0.05639072 -0.05632165 -0.05625276 -0.0561834 -0.05611346
 -0.05604228 -0.05597067 -0.05589878 -0.05582841 -0.05576111 -0.05569652 -0.05563566 -0.0555745 -0.05551223 -0.05544528
 -0.05537247 -0.05529477 -0.05521207 -0.05512664 -0.0550387 -0.05494707 -0.05485171 -0.05475146 -0.05464682 -0.05454118
 -0.05443483 -0.05433135 -0.05422959 -0.05412808 -0.0540262 -0.05392155 -0.05381544 -0.05370872 -0.053602 -0.05349673
 -0.05339109 -0.0532844 -0.0531752 -0.05306233 -0.05294683 -0.05282859 -0.05270947 -0.05258973 -0.0524712 -0.05235412
 -0.05223977 -0.05212828 -0.05201989 -0.05191462 -0.05181281 -0.05171446 -0.05162013 -0.05152927 -0.05143994 -0.05135125
 -0.05125915 -0.05116465 -0.05106758 -0.05096952 -0.05087379 -0.05077733 -0.05067942 -0.05057454 -0.0504575 -0.0503308
 -0.05019269 -0.05005286 -0.04991425 -0.04978092 -0.04965524 -0.04953086 -0.04940754 -0.04927747 -0.04913995 -0.04899571
 -0.04884511 -0.04869659 -0.04855034 -0.04841225 -0.04828074 -0.04815228 -0.04802529 -0.04789244 -0.04775586 -0.04761562
 -0.04747534 -0.04734094 -0.0472111 -0.04708796 -0.04696557 -0.04684045 -0.04670982 -0.0465708 -0.04642605 -0.0462753
 -0.04612349 -0.0459714 -0.04582319 -0.04567971 -0.04554056 -0.04540593 -0.04526938 -0.04513075 -0.04498688 -0.04483898
 -0.04469515 -0.04455626 -0.04443198 -0.04431853 -0.04421186 -0.04410458 -0.04397944 -0.04383533 -0.04365999 -0.04346583
 -0.04325835 -0.04305268 -0.04286184 -0.04268756 -0.04253662 -0.04239486 -0.04226025 -0.04211763 -0.04196237 -0.04179457
 -0.04161277 -0.04142905 -0.04124413 -0.041068 -0.04090089 -0.04074592 -0.04060202 -0.04046351 -0.04032735 -0.04017683
 -0.04001081 -0.03981455 -0.03959556 -0.03936053 -0.03911812 -0.0388844 -0.038659 -0.03844727 -0.03824671 -0.03805644
 -0.03787725 -0.03771034 -0.03755203 -0.03740319 -0.03725197 -0.03709628 -0.03692725 -0.03674304 -0.03654396 -0.03632975
 -0.03610515 -0.03587054 -0.03563429 -0.03539694 -0.03516731 -0.03494444 -0.03472899 -0.03451923 -0.03431019 -0.03410209
 -0.03389372 -0.03368398 -0.03347212 -0.03325362 -0.03302211 -0.03278065 -0.03252618 -0.0322733 -0.03202847 -0.03179848
 -0.03158957 -0.03138948 -0.03119787 -0.03099753 -0.03078574 -0.03055683 -0.03030988 -0.03005143 -0.02978179 -0.02950817
 -0.0292298 -0.02894356 -0.02864764 -0.02833021 -0.02799419 -0.02764014 -0.02727571 -0.02691804 -0.02656734 -0.02623332
 -0.02590739 -0.02558412 -0.02525916 -0.02492617 -0.02459024 -0.02425219 -0.02391609 -0.02358424 -0.02325443 -0.02292752
 -0.0225956 -0.02225914 -0.021898 -0.02151069 -0.02108122 -0.0206099 -0.02011782 -0.01960731 -0.01910971 -0.01862142
 -0.0181425 -0.01766748 -0.01717908 -0.01667763 -0.01615532 -0.01561499 -0.01505734 -0.01448469 -0.01389848 -0.01330358
 -0.01270624 -0.01210013 -0.01149066 -0.01084388 -0.01015048 -0.009386002 -0.008536627 -0.007638556 -0.006693141 -0.005746732
 -0.004804236 -0.00386104 -0.002916813 -0.001957655 -0.0009856931 -1.71865E-05 0.0009493509 0.001906676 0.002869671 0.003878684
 0.00494558 0.006123518 0.007389489 0.00874007 0.01013442 0.01152539 0.01290691 0.01425619 0.01559356 0.01692377
 0.01825933 0.01960467 0.02096729 0.02234179 0.02378003 0.02527993 0.02696496 0.02884658 0.03097112 0.03333442
 0.03572978 0.03814748 0.04039979 0.0425183 0.04455742 0.04654631 0.04860616 0.05073231 0.05297146 0.0553134
 0.05774742 0.0603115 0.06301768 0.0659638 0.06922216 0.07284638 0.07692409 0.08128984 0.085943 0.09058578
 0.09514575 0.09949523 0.1035963 0.1075036 0.1112149 0.1148545 0.1184317 0.1221662 0.1260798 0.1304998
 0.1353861 0.1407812 0.1465074 0.1520009 0.1572386 0.1618377 0.1660165 0.1699374 0.1737506 0.1776947
 0.1817485 0.1859782 0.1903032 0.1946936 0.1991229 0.2035898 0.2080178 0.2123992 0.2166211 0.2206543
 0.2245585 0.2283337 0.2321009 0.2358613 0.2395108 0.2430349 0.2462331 0.2491367 0.251781 0.2542357
 0.2567582 0.2593366 0.2621172 0.2649398 0.2676014 0.2700777 0.2722226 0.274202 0.2761125 0.2779894
 0.2799058 0.2817315 0.2834335 0.2849409 0.2862169 0.2873286 0.2882751 0.2891651 0.2900093 0.2908429
 0.2916654 0.2923913 0.2930167 0.2934688 0.2937551 0.2938787 0.2938425 0.2936538 0.2933159 0.2928291
 0.2922218 0.2915283 0.2907913 0.2900656 0.2893805 0.2887658 0.2882597 0.2878795 0.2876804 0.2876896
 0.2879132 0.2883644 0.2889935 0.2897943 0.2907423 0.2918341 0.2930732 0.2944593 0.2959746 0.2976166
 0.2993528 0.3011821 0.3030833 0.3050533 0.3070709 0.3091327 0.3112168 0.3133342 0.3154873 0.317699
 0.3199922 0.3223874 0.3249052 0.3275594 0.3303633 0.3333169 0.336427 0.3396714 0.3430511 0.3465216
 0.350081 0.3536579 0.3572461 0.3607892 0.364286 0.3677985 0.3713383 0.37507 0.3789687 0.3830184
 0.3871306 0.3909919 0.3945902 0.3977253 0.4004802 0.4029186 0.4050379 0.4068793 0.4083633 0.4094316
 0.4100771 0.4102927 0.4100426 0.4093623 0.4079887 0.4058648 0.4028132 0.3987304 0.3941778 0.3891911
 0.3842711 0.3794364 0.3745017 0.3694537 0.3640795 0.3584071 0.3524785 0.3463211 0.3400773 0.3336817
 0.327105 0.3201695 0.3125236 0.304252 0.2951091 0.285855 0.2770089 0.2689459 0.2621507 0.256095
 0.2507041 0.2455264 0.2404048 0.235332 0.2302735 0.2253916 0.2207038 0.216213 0.2119182 0.2076734
 0.2034754 0.1992295 0.1949556 0.1907073 0.1865094 0.1824808 0.1786118 0.1749476 0.1714496 0.1680787
 0.1648056 0.1615925 0.158398 0.1552106 0.1519006 0.1484153 0.1446052 0.1403308 0.1358719 0.1312022
 0.1269678 0.1233073 0.1202378 0.1177955 0.1155343 0.1134332 0.1112054 0.1088622 0.1064356 0.1039552
 0.1016108 0.09938626 0.09733099 0.09540607 0.09353037 0.09172467 0.0899695 0.0883377 0.08691086 0.08570705
 0.0847811 0.0840774 0.08358057 0.08325022 0.08306149 0.08302695 0.08313747 0.08345176 0.08396957 0.08480156
 0.08595824 0.08751982 0.08948898 0.09168888 0.09409586 0.09636614 0.09850503 0.1003626 0.10197 0.1033586
 0.1045396 0.1055493 0.106397 0.1070955 0.1076984 0.1082509 0.1088472 0.1095847 0.1104762 0.1115909
 0.112771 0.1139736 0.1150935 0.1160801 0.1169873 0.1178124 0.1186394 0.1194768 0.1203597 0.1212899
 0.1222439 0.1232197 0.1241831 0.1251406 0.126106 0.1271005 0.1282003 0.1294277 0.1308773 0.1325437
 0.1344604 0.1366127 0.1389815 0.1416019 0.1444852 0.1476898 0.15126 0.1551892 0.1594949 0.1641119
 0.1690149 0.1742291 0.1797346 0.1857312 0.1922372 0.1993969 0.2072172 0.215369 0.2238094 0.2318972
 0.2396333 0.2466958 0.2531278 0.2589374 0.264093 0.2685495 0.2722035 0.2748632 0.2764772 0.2768894
 0.2761684 0.2742972 0.2714107 0.2675659 0.2628889 0.2574278 0.2512931 0.2444924 0.2372403 0.2295402
 0.2217921 0.2140317 0.206577 0.1994465 0.1926099 0.1860539 0.1795835 0.173212 0.1669079 0.1607216
 0.1548247 0.1492293 0.1440667 0.1392828 0.1348512 0.1307134 0.1267904 0.1230544 0.1194579 0.1159939
 0.1126437 0.1094195 0.106318 0.1033689 0.1005798 0.09796645 0.09553493 0.09327104 0.0911737 0.08923445
 0.08745275 0.08586033 0.08445955 0.08329374 0.08235765 0.08164584 0.08114374 0.08079764 0.08059564 0.08048428
 0.08045629 0.0804785 0.0805428 0.08063003 0.0807285 0.08082685 0.08090589 0.08095656 0.08095165 0.08088177
 0.08071923 0.08045719 0.08007003 0.07955343 0.07888546 0.07806242 0.07708567 0.07595498 0.07470921 0.07335173
 0.07193573 0.07046483 0.06898528 0.06750283 0.0660616 0.0646681 0.06336149 0.06214025 0.06102125 0.05999503
 0.05905671 0.05819985 0.05741612 0.05670754 0.05607288 0.05551531 0.05503831 0.05463282 0.05430163 0.05401288
 0.05376486 0.05351092 0.05324664 0.05293528 0.05257444 0.05215332 0.0516726 0.05113992 0.05055686 0.04993627
 0.04927993 0.04860077 0.0479005 0.04718946 0.0464689 0.0457446 0.04501931 0.04429847 0.04358348 0.0428797
 0.0421789 0.04148024 0.04076855 0.04003662 0.03928043 0.03849452 0.03769572 0.03688462 0.03608499 0.03529953
 0.03454054 0.03380895 0.03310366 0.03242467 0.03177059 0.03114299 0.03055086 0.02999649 0.02949413 0.0290428
 0.02864816 0.0283062 0.0280119 0.02776444 0.0275598 0.02740154 0.02729225 0.0272313 0.02722138 0.02725269
 0.02732386 0.02742 0.02753806 0.0276629 0.02779197 0.02791291 0.02802407 0.02811995 0.02820012 0.02826343
 0.02830954 0.02833332 0.02833403 0.02830369 0.02824328 0.02815156 0.02803123 0.02788839 0.02772495 0.02754731
 0.02735516 0.02715131 0.02693281 0.02669962 0.02644442 0.02616425 0.02584974 0.02549599 0.02510005 0.02465864
 0.02417993 0.02366402 0.02312342 0.02255963 0.02197868 0.0213811 0.02076357 0.02012591 0.01946388 0.01877843
 0.0180733 0.01735047 0.01661925 0.01588109 0.01514374 0.01440892 0.01368232 0.01296672 0.01226784 0.01158675
 0.010927 0.01028602 0.009663398 0.009056554 0.008463986 0.00788589 0.007321992 0.006773081 0.00623946 0.005720212
 0.005215478 0.004721978 0.004239559 0.003762697 0.003291321 0.00282325 0.00235955 0.001906284 0.001464569 0.001042402
 0.000639122 0.00025612 -0.0001052707 -0.000444226 -0.0007536339 -0.00102503 -0.00125175 -0.001424161 -0.001542928 -0.001606012
 -0.001614603 -0.00157084 -0.001466331 -0.001300202 -0.001060862 -0.0007451416 -0.0003528777 0.0001174556 0.0006505501 0.001245743
 0.001879312 0.002550004 0.003235205 0.003934749 0.004635433 0.005339695 0.006048619 0.006767535 0.0075101 0.008281326
 0.009097985 0.009957721 0.01086793 0.01181403 0.01278919 0.01377221 0.01474994 0.01570542 0.01662881 0.01751183
 0.01834965 0.01914306 0.01989031 0.02060169 0.02127792 0.02192928 0.02255659 0.02315947 0.02373801 0.0242915
 0.02482282 0.02535078 0.02588059 0.02644425 0.02704224 0.02769382 0.02839253 0.0291364 0.02991753 0.030725
 0.0315545 0.03239797 0.03325615 0.03412658 0.03501349 0.03591856 0.03684267 0.03778751 0.03874709 0.03972126
 0.04070096 0.04168567 0.04266379 0.04363474 0.04458156 0.04550382 0.0463923 0.04724942 0.048088 0.04891083
 0.04973859 0.05056682 0.05139632 0.05221678 0.05300975 0.05376864 0.05447608 0.05513459 0.05573737 0.05629847
 0.05681989 0.05732878 0.05783387 0.05836509 0.05893318 0.05955172 0.06022661 0.06095073 0.06172441 0.06253514
 0.06338201 0.06426194 0.06517502 0.06612508 0.06711102 0.06812806 0.06917212 0.07022414 0.0712802 0.07232028
 0.07334267 0.07433707 0.07529787 0.07621691 0.07708116 0.0778777 0.07859402 0.07921886 0.07974617 0.08017048
 0.08049129 0.08070518 0.08082424 0.08084697 0.08080513 0.0807012 0.08056914 0.08041157 0.08024335 0.08006477
 0.07987763 0.07968233 0.07948312 0.07928022 0.07907737 0.07887312 0.07866543 0.07845311 0.07823347 0.07800483
 0.07776526 0.07750972 0.07723338 0.07693201 0.07660116 0.0762407 0.07585039 0.07542732 0.07497182 0.0744754
 0.07393611 0.07335049 0.07271663 0.0720465 0.0713403 0.0706252 0.06990298 0.06920729 0.06853906 0.067922
 0.06735374 0.06683697 0.06636886 0.06594222 0.06555766 0.06521373 0.06490955 0.06464648 0.06441437 0.06420836
 0.06400855 0.0638059 0.0635709 0.06329375 0.06293608 0.06248673 0.06191299 0.06120523 0.06035608 0.05936157
 0.05824106 0.05699499 0.05565884 0.05423488 0.05276587 0.05125397 0.04973608 0.04821188 0.04669968 0.04519793
 0.04371118 0.04223923 0.04078422 0.03934496 0.03792089 0.03651065 0.03511033 0.03372732 0.03236233 0.03103127
 0.02974196 0.0285014 0.02731607 0.02617383 0.02507523 0.02399789 0.02293971 0.02188008 0.0208174 0.01973815
 0.01864191 0.01752395 0.0163845 0.01522342 0.0140406 0.01283496 0.01160701 0.01035675 0.009086864 0.007801491
 0.006505419 0.005205168 0.003908509 0.002623998 0.001359233 0.0001240158 -0.001087096 -0.002270571 -0.003447137 -0.004622689
 -0.005809456 -0.007013518 -0.008222226 -0.009435516 -0.01063468 -0.01181822 -0.01297891 -0.01411616 -0.01521975 -0.01628694
 -0.01729043 -0.01822778 -0.01907164 -0.01982591 -0.02048554 -0.02106003 -0.02156479 -0.02200847 -0.02240959 -0.0227711
 -0.02310295 -0.0234027 -0.02367228 -0.02390652 -0.02410503 -0.0242582 -0.02436479 -0.02440939 -0.02438842 -0.02429363
 -0.02412173 -0.0238872 -0.0235902 -0.02326084 -0.02290083 -0.02254039 -0.02218231 -0.02186073 -0.02158173 -0.02139102
 -0.02129303 -0.02132704 -0.02148696 -0.02178311 -0.02219835 -0.02271716 -0.02331617 -0.02397231 -0.02465664 -0.0253483
 -0.02601445 -0.02663839 -0.02718996 -0.02765728 -0.02802104 -0.02827401 -0.0284158 -0.02844381 -0.02837722 -0.02821682
 -0.0279888 -0.02769438 -0.02735334 -0.02696632 -0.0265473 -0.02609694 -0.02562564 -0.02513405 -0.02462779 -0.02411088
 -0.02359118 -0.02307901 -0.02259245 -0.02213663 -0.02172797 -0.02135123 -0.02100476 -0.02066315 -0.02031252 -0.01994494
 -0.01955161 -0.01914859 -0.01873663 -0.01833587 -0.01794934 -0.01758657 -0.01724861 -0.01693812 -0.01665525 -0.01640254
 -0.0161797 -0.01598648 -0.01582048 -0.01567158 -0.01553517 -0.01539252 -0.01524028 -0.01506247 -0.01485903 -0.01462323
 -0.01435612 -0.01405563 -0.01372532 -0.01336533 -0.01298427 -0.01258604 -0.01217662 -0.0117604 -0.0113314 -0.01088901
 -0.01042795 -0.009945397 -0.009458112 -0.008966361 -0.00850297 -0.008069317 -0.007685406 -0.007349648 -0.007056126 -0.006802144
 -0.006571533 -0.006364008 -0.006170872 -0.005991979 -0.005825039 -0.005664476 -0.005503541 -0.005331979 -0.005137608 -0.004913139
 -0.004649212 -0.004345676 -0.003999116 -0.003615246 -0.0031929 -0.002747547 -0.002279748 -0.001816362 -0.001361098 -0.0009319278
 -0.0005316051 -0.0001468374 0.0002233946 0.0006094077 0.001010704 0.001436331 0.001881163 0.002324531 0.0027637 0.003177284
 0.003571027 0.003945364 0.004309228 0.00467697 0.005050361 0.005438154 0.005833923 0.006234881 0.006639238 0.007042699
 0.007456148 0.00788162 0.008330123 0.008806045 0.009304957 0.009827708 0.01036102 0.01090366 0.01145118 0.0120036
 0.01256918 0.0131487 0.0137535 0.01438231 0.01503616 0.01571051 0.01639183 0.01707692 0.01775056 0.01841717
 0.01907606 0.01973346 0.0203981 0.02106529 0.02173733 0.02239937 0.02304555 0.02366344 0.02424726 0.02479304
 0.02529806 0.02576688 0.02619924 0.02660444 0.02698335 0.02733945 0.02767286 0.02798109 0.02826552 0.02853744
 0.02880066 0.02908223 0.02938066 0.02970792 0.03005504 0.03040786 0.03076204 0.03110336 0.03143593 0.03175939
 0.03207597 0.03238716 0.0326942 0.03299676 0.03330093 0.03361037 0.03392079 0.03423492 0.0345292 0.03480041
 0.03503389 0.03522689 0.03539643 0.03554356 0.03569749 0.03585859 0.03604118 0.03624386 0.03646612 0.0367089
 0.03697306 0.03726447 0.03759611 0.03797212 0.03840913 0.03889415 0.03942505 0.03997437 0.04051986 0.04105143
 0.04155389 0.04204416 0.04252581 0.04300771 0.04349563 0.04397349 0.044439 0.044886 0.04531243 0.04574167
 0.04617496 0.04663916 0.04713386 0.04766604 0.04823146 0.04881443 0.04940683 0.04997557 0.05051319 0.05098651
 0.05139535 0.05172455 0.0519786 0.05215605 0.05226316 0.05230039 0.05228455 0.05221985 0.05213382 0.05203582
 0.05194647 0.05187254 0.05182162 0.05179566 0.05179821 0.05182998 0.05188807 0.05197234 0.0520794 0.05221048
 0.05237929 0.05258527 0.05283723 0.05312455 0.0534163 0.05370594 0.05395743 0.05418682 0.05440307 0.05462043
 0.05486215 0.05512077 0.05539071 0.05568964 0.05600966 0.0564262 0.05697238 0.05765716 0.05851291 0.05938146
 0.06024241 0.06099591 0.06162667 0.06216524 0.06261285 0.06301366 0.06336799 0.06369542 0.06399183 0.0642491
 0.06445681 0.06457639 0.06460087 0.06449264 0.06425891 0.06389464 0.06340747 0.06280328 0.06208873 0.06125906
 0.06035821 0.05939437 0.05844803 0.0575488 0.05674646 0.05606417 0.05548676 0.05501803 0.05461592 0.05427741
 0.05396753 0.05368428 0.05339564 0.05309967 0.05276415 0.05238781 0.05194572 0.05144002 0.05086051 0.05021903
 0.04953331 0.04882211 0.0481264 0.04744545 0.04679969 0.04616542 0.04552625 0.0448822 0.04422218 0.04357674
 0.04295483 0.04237468 0.04184154 0.04136762 0.04095318 0.04062576 0.04038873 0.04024724 0.04020146 0.04022061
 0.04030498 0.04044696 0.04065192 0.04094911 0.04133684 0.04182797 0.04241066 0.04306559 0.04378055 0.04452946
 0.04530158 0.04607487 0.04684629 0.04760306 0.04835857 0.0491166 0.04988732 0.05067833 0.05147973 0.05228909
 0.05310601 0.05392695 0.05477997 0.05566724 0.05661139 0.05761356 0.05866486 0.05976239 0.06087276 0.06198714
 0.06304204 0.06402449 0.06485277 0.06552856 0.06601017 0.06631829 0.06646895 0.06647501 0.06635653 0.06612065
 0.06576966 0.06533869 0.06484105 0.06432164 0.06380345 0.06329307 0.06279817 0.06230465 0.06180934 0.06131839
 0.06083156 0.06036275 0.05991269 0.05948331 0.05907463 0.05868755 0.05832174 0.0579772 0.05765093 0.05733304
 0.05701993 0.05670052 0.05636756 0.05600658 0.05560728 0.05514624 0.05463823 0.05407786 0.05351064 0.05296422
 0.05244949 0.05199027 0.05152293 0.05104008 0.05047155 0.04980154 0.04901774 0.04811561 0.04712066 0.04603411
 0.04488758 0.04368266 0.04244726 0.04118165 0.03989758 0.03860182 0.03731437 0.03606399 0.03492652 0.03392663
 0.03315399 0.032573 0.0321911 0.03193192 0.03173573 0.0315607 0.03136404 0.03114753 0.03090335 0.03063666
 0.03034713 0.03004118 0.02972002 0.02938776 0.02904708 0.02866435 0.02823779</values></Ydata></AB><ScSm><Ydata ylabel="Single channel"><values byteorder="INTEL" format="FLOAT32" numvalues="1814"> 0.07532349 0.075313 0.07537596 0.07553766 0.07576433 0.07598346 0.07613341 0.07620125 0.076208 0.07616694
 0.07608841 0.07602477 0.0760615 0.07623574 0.07648121 0.07667001 0.07671373 0.07664403 0.07659733 0.07668015
 0.07682342 0.07680251 0.07644776 0.07583848 0.07525152 0.07490598 0.07482753 0.075011 0.07555313 0.07638774
 0.07699628 0.07678257 0.07582214 0.07488809 0.07459337 0.07480681 0.07501805 0.07492878 0.0745399 0.07403184
 0.07382036 0.07444827 0.07604793 0.077895 0.07867017 0.07729556 0.0737064 0.06909163 0.06545451 0.06453872
 0.0665973 0.0700448 0.07264886 0.07331094 0.07258713 0.07155415 0.07065502 0.06984301 0.06932819 0.06961344
 0.07079912 0.07211724 0.07232759 0.07077603 0.06817172 0.06608461 0.0655143 0.06626512 0.06778491 0.06976792
 0.07129678 0.07036264 0.06584463 0.05999799 0.05743507 0.06073424 0.0676926 0.07349104 0.07498303 0.07244371
 0.06815463 0.06451557 0.06315264 0.06448512 0.06764238 0.07118498 0.07397754 0.07524821 0.07440221 0.0715374
 0.06794478 0.06548044 0.06542541 0.06798533 0.07224895 0.07627195 0.07796309 0.07663155 0.07344352 0.07018836
 0.06810343 0.06788828 0.06987879 0.07369005 0.07819668 0.08219016 0.0848725 0.08593136 0.08560377 0.08452846
 0.08326058 0.08217939 0.08182717 0.08257344 0.08372892 0.08381049 0.08215802 0.07982008 0.07847542 0.07869788
 0.07950081 0.07953696 0.07845977 0.07669605 0.07411525 0.07001382 0.06473637 0.06009744 0.05756978 0.05716483
 0.05850949 0.06142405 0.06466816 0.06586997 0.06412262 0.06163649 0.06154896 0.06458072 0.06866711 0.07147636
 0.07256097 0.07319599 0.07473159 0.07721397 0.07920462 0.07886608 0.07579085 0.07203075 0.07064456 0.07269549
 0.07623056 0.07868019 0.07956207 0.08020195 0.08141108 0.0822328 0.08094569 0.07711251 0.07267949 0.07077651
 0.07299218 0.0777799 0.0815804 0.08146426 0.0771037 0.07082993 0.06581213 0.06387168 0.06499076 0.06851029
 0.07384773 0.07989013 0.08470777 0.08663287 0.08547914 0.08243022 0.07870013 0.07443178 0.06932656 0.06445998
 0.06250314 0.06519268 0.07109949 0.07681847 0.08000992 0.08056529 0.07927744 0.07639842 0.07184705 0.0665542
 0.06290156 0.06288163 0.06570496 0.06824248 0.06829639 0.06659822 0.06520844 0.06494293 0.06507333 0.06489104
 0.06470805 0.06530291 0.06680267 0.06838418 0.06907213 0.06862934 0.06759419 0.0666462 0.06599826 0.06525858
 0.06399062 0.06258006 0.06219812 0.06351135 0.06575532 0.06752302 0.06817977 0.06808544 0.06765833 0.06667517
 0.06462111 0.06166743 0.05908113 0.05828934 0.05949113 0.06152688 0.06309096 0.06367585 0.06343825 0.06272158
 0.06183182 0.06094268 0.0601317 0.05957555 0.05951168 0.05988667 0.06028599 0.06034674 0.06004269 0.05949753
 0.05874274 0.05777665 0.05673743 0.05589652 0.05546378 0.05542139 0.05557441 0.05573294 0.05577621 0.05559214
 0.05511035 0.05441479 0.05370168 0.05310323 0.05263546 0.05230024 0.0521267 0.05209292 0.0520869 0.05198679
 0.0517544 0.05143115 0.0510642 0.05066533 0.05023912 0.04982512 0.04949395 0.04929142 0.04918242 0.04907525
 0.04892863 0.0487984 0.04872928 0.04864529 0.04842526 0.04806108 0.04766788 0.04735347 0.0471361 0.04697344
 0.04681268 0.04660241 0.04629569 0.04588655 0.0454569 0.04515047 0.0450622 0.04516747 0.04536955 0.04557047
 0.04568445 0.04565673 0.04550945 0.04531873 0.0451241 0.04490399 0.04464487 0.04439168 0.04422316 0.04419481
 0.04429355 0.04443859 0.04453994 0.04455678 0.04450207 0.0444237 0.04438473 0.04441226 0.04445203 0.04441905
 0.044303 0.04418312 0.04413376 0.04414801 0.04415966 0.04412174 0.04405705 0.04403128 0.04407765 0.04416332
 0.04423504 0.04427729 0.0443153 0.04437407 0.04444131 0.04447126 0.04443581 0.04436785 0.0443301 0.04434498
 0.04438712 0.0444404 0.04452177 0.04463993 0.04476329 0.04484729 0.0448821 0.04489943 0.04493127 0.04497046
 0.04498236 0.0449513 0.04490156 0.04487211 0.04488171 0.04491925 0.04495903 0.04498303 0.04498992 0.044984
 0.04496271 0.04492097 0.04486044 0.04479003 0.04472634 0.04469346 0.04470525 0.04474087 0.04475231 0.0447069
 0.04461771 0.04452742 0.04446547 0.04442446 0.0443774 0.04431153 0.04423927 0.04418008 0.04414292 0.04412594
 0.04412132 0.04411786 0.04411248 0.0441249 0.04418742 0.04430759 0.04444853 0.04456134 0.04463418 0.04469634
 0.04477705 0.04487696 0.04498142 0.04508618 0.04520322 0.04534573 0.04550817 0.04566316 0.045789 0.04589981
 0.04603298 0.04620669 0.04640717 0.04661531 0.04682166 0.04701507 0.04718386 0.04733601 0.04749718 0.04768003
 0.04787128 0.04805534 0.04823607 0.04842739 0.04863454 0.04885567 0.04909478 0.04936178 0.0496597 0.0499762
 0.0502866 0.05056617 0.05080929 0.05104158 0.05130535 0.05162499 0.05198607 0.05234883 0.05268157 0.05298325
 0.05327632 0.05357834 0.053887 0.05419888 0.05453022 0.05490103 0.05530342 0.05570621 0.05609084 0.05646653
 0.05684874 0.05723877 0.05762886 0.05801578 0.05840284 0.0587922 0.05918001 0.05955967 0.05992918 0.06029314
 0.06065793 0.06102853 0.06140852 0.06179436 0.06216685 0.06250165 0.06279951 0.06309702 0.06343022 0.06379075
 0.06413577 0.06444275 0.06473588 0.06505169 0.06539655 0.06575143 0.0661042 0.0664596 0.06682142 0.06717856
 0.06750941 0.06779608 0.06803856 0.06825927 0.06848949 0.06875073 0.06905252 0.06939882 0.06978047 0.07016584
 0.07051751 0.07081968 0.07107973 0.07131289 0.07154009 0.0717885 0.07207243 0.07237901 0.07268263 0.07296305
 0.07320568 0.07341024 0.07361157 0.07386476 0.07419151 0.07456134 0.07493826 0.0753212 0.07572036 0.07612213
 0.0765083 0.07689632 0.07732308 0.0777846 0.07822256 0.07858452 0.07887372 0.07912427 0.07935526 0.07957835
 0.07983045 0.08015849 0.08056985 0.08102326 0.08147044 0.08188926 0.08227688 0.08263037 0.08294182 0.08320487
 0.08342089 0.0836014 0.08376718 0.08394404 0.08415344 0.08439747 0.08465013 0.08487 0.08502507 0.08509996
 0.08508155 0.08495823 0.08474594 0.08449848 0.08426496 0.08403499 0.08374238 0.08332568 0.08277198 0.08210233
 0.08133753 0.0804967 0.07962333 0.07879506 0.07809743 0.07758936 0.07729734 0.07723781 0.07742758 0.07785769
 0.07846248 0.07912965 0.07974164 0.08019896 0.0804162 0.08033169 0.07994312 0.07932312 0.07858543 0.07783602
 0.07714944 0.07656308 0.0760776 0.07568288 0.07540771 0.07534212 0.07560219 0.07627761 0.07740702 0.07896864
 0.08086252 0.08290938 0.08490315 0.08669537 0.08824261 0.0895824 0.09077606 0.09187466 0.092914 0.09390902
 0.09484704 0.09570397 0.09647247 0.09716414 0.09778541 0.09832466 0.09876207 0.09908336 0.09929153 0.09941734
 0.09951317 0.0996265 0.09978232 0.09999108 0.1002557 0.1005581 0.1008475 0.1010571 0.1011349 0.1010679
 0.1008971 0.1007292 0.1007409 0.1011509 0.1021386 0.1037388 0.1057937 0.1080198 0.1101428 0.1119944
 0.1135241 0.1147598 0.1157689 0.1166285 0.1174009 0.1181219 0.1188058 0.1194601 0.1200935 0.1207138
 0.121322 0.1219158 0.1224979 0.1230751 0.1236449 0.1241938 0.1247133 0.1252161 0.1257285 0.1262678
 0.1268276 0.1273854 0.1279248 0.1284497 0.1289715 0.1294883 0.1299853 0.1304559 0.1309097 0.131364
 0.1318348 0.1323316 0.1328443 0.133342 0.1337977 0.1342135 0.1346116 0.1350084 0.1354069 0.1358088
 0.1362178 0.136632 0.1370437 0.1374496 0.1378573 0.1382731 0.1386871 0.1390763 0.1394279 0.1397568
 0.1400948 0.1404625 0.1408526 0.141242 0.1416202 0.1420033 0.1424165 0.1428652 0.1433261 0.1437689
 0.1441805 0.1445685 0.1449496 0.1453379 0.1457408 0.1461555 0.1465718 0.1469803 0.1473809 0.1477816
 0.1481887 0.1486 0.1490095 0.1494137 0.1498122 0.150205 0.1505909 0.150968 0.1513375 0.1517113
 0.152109 0.1525366 0.1529695 0.1533688 0.1537168 0.1540288 0.154332 0.1546447 0.1549747 0.155323
 0.1556853 0.1560539 0.1564212 0.1567814 0.1571341 0.1574857 0.1578456 0.1582161 0.1585893 0.1589551
 0.1593125 0.1596715 0.160042 0.160422 0.160798 0.1611587 0.1615056 0.161852 0.1622104 0.1625807
 0.1629497 0.1633051 0.1636513 0.1640045 0.1643742 0.1647543 0.1651336 0.1655075 0.1658771 0.1662453
 0.1666147 0.1669877 0.1673664 0.1677497 0.1681335 0.1685134 0.1688886 0.1692597 0.1696283 0.1699998
 0.1703813 0.170772 0.1711619 0.1715436 0.1719196 0.1722948 0.1726691 0.173039 0.1734013 0.1737537
 0.1740983 0.1744432 0.1747977 0.175166 0.1755428 0.175916 0.1762771 0.1766293 0.1769813 0.1773359
 0.1776912 0.1780467 0.1784029 0.1787579 0.1791102 0.1794612 0.1798143 0.1801753 0.1805468 0.1809205
 0.1812829 0.1816333 0.1819856 0.1823506 0.1827241 0.1830941 0.1834514 0.1837955 0.1841317 0.1844656
 0.1848029 0.1851498 0.1855069 0.1858628 0.1862052 0.1865373 0.1868718 0.1872174 0.1875776 0.187952
 0.1883311 0.1887036 0.1890692 0.1894342 0.1897978 0.1901542 0.1905024 0.190845 0.1911884 0.1915433
 0.1919138 0.1922889 0.1926543 0.1930067 0.1933504 0.1936905 0.1940309 0.194371 0.1947076 0.195043
 0.1953836 0.1957267 0.1960629 0.1963891 0.1967089 0.197027 0.1973498 0.1976812 0.1980159 0.1983493
 0.1986837 0.1990159 0.199335 0.1996418 0.1999497 0.2002632 0.2005778 0.2008954 0.2012189 0.2015437
 0.2018686 0.2021969 0.2025243 0.2028429 0.2031528 0.2034558 0.203751 0.2040434 0.2043328 0.2045954
 0.2047799 0.204763 0.2042275 0.20254 0.1987456 0.191761 0.1807991 0.1658642 0.1479251 0.1285729
 0.1094353 0.0917576 0.07628307 0.06334428 0.05301714 0.04522453 0.0398046 0.03662017 0.03567061 0.03720886
 0.04186972 0.0502926 0.06170634 0.07268415 0.07848301 0.0767867 0.06991632 0.06271186 0.05851349 0.05755537
 0.05841234 0.05987093 0.06154934 0.06367018 0.06661105 0.07047381 0.07507019 0.08039141 0.08683285 0.09468745
 0.1035433 0.1124576 0.1207671 0.1286072 0.1365938 0.1450811 0.153789 0.1620787 0.169463 0.1758488
 0.1814349 0.1864901 0.1912045 0.1956719 0.1999391 0.2040007 0.2077108 0.2107495 0.2127781 0.2136966
 0.2137638 0.213452 0.2131689 0.2130963 0.2132404 0.2135615 0.2140373 0.2146585 0.2154137 0.2162775
 0.2172049 0.218149 0.2190826 0.2199933 0.2208672 0.22169 0.2224535 0.2231538 0.2237905 0.2243688
 0.2248957 0.2253785 0.2258297 0.2262615 0.2266754 0.2270661 0.2274339 0.2277834 0.2281129 0.2284171
 0.2286957 0.2289525 0.2291924 0.2294219 0.2296467 0.2298676 0.2300844 0.230301 0.2305234 0.230754
 0.2309879 0.2312138 0.2314213 0.2316131 0.2318032 0.2320001 0.2322002 0.2323986 0.2325966 0.2327958
 0.2329961 0.2331977 0.2333984 0.2335926 0.2337787 0.2339634 0.2341554 0.2343578 0.2345664 0.2347718
 0.2349693 0.2351678 0.2353802 0.2356052 0.2358306 0.2360514 0.236267 0.2364717 0.2366636 0.236855
 0.237053 0.2372428 0.2374059 0.2375505 0.23771 0.2379097 0.2381401 0.2383663 0.2385665 0.2387513
 0.2389413 0.2391392 0.2393313 0.2395062 0.2396677 0.2398409 0.2400559 0.240312 0.2405754 0.2408225
 0.2410609 0.2413009 0.2415402 0.2417808 0.2420217 0.2422346 0.2423851 0.2424903 0.2426307 0.2428866
 0.24326 0.2436629 0.2439975 0.2442439 0.2444554 0.2446927 0.244982 0.2452915 0.2455093 0.2455218
 0.2453855 0.2453522 0.2456391 0.2462131 0.2468554 0.2473848 0.2477688 0.2480703 0.2483466 0.2485933
 0.2487489 0.2487636 0.2486895 0.248703 0.2489803 0.249518 0.2501208 0.2505984 0.2509151 0.2511294
 0.2512916 0.251433 0.2515218 0.251404 0.2509649 0.250425 0.2502887 0.2508536 0.2518685 0.2527997
 0.2533644 0.2536792 0.2539496 0.254214 0.2544088 0.2544292 0.2540148 0.2528943 0.2513272 0.2502559
 0.2505317 0.2520563 0.2539393 0.2553851 0.2561955 0.2565727 0.2567732 0.2569355 0.2569749 0.2565933
 0.2556132 0.2544143 0.2538332 0.2543912 0.2557099 0.2569154 0.2575289 0.2577226 0.2578526 0.2580572
 0.2581612 0.2576459 0.2559488 0.2532946 0.251104 0.2509947 0.2532011 0.2562918 0.2585876 0.2596014
 0.2599004 0.2598741 0.2591671 0.2573271 0.2544892 0.2513208 0.2488114 0.2481325 0.2498595 0.2530064
 0.2555846 0.2565634 0.2567394 0.257422 0.2588708 0.2603114 0.2609452 0.2605637 0.2594106 0.2577502
 0.2557393 0.2538251 0.2529951 0.2540813 0.2567449 0.2595952 0.2614784 0.2623504 0.2626637 0.2620248
 0.2589338 0.252588 0.2451331 0.2410704 0.2432838 0.2500235 0.2567871 0.2607461 0.2622883 0.2629082
 0.2632072 0.2627226 0.260194 0.2542606 0.2456116 0.2383226 0.2370905 0.242587 0.2506966 0.2563614
 0.2570317 0.2529202 0.2460725 0.2397589 0.2371494 0.2393865 0.2450846 0.2517016 0.2570639 0.2599485
 0.2600759 0.2580009 0.2550529 0.2530005 0.2527889 0.2531482 0.2515443 0.2473761 0.242976 0.2401797
 0.2374812 0.2328249 0.2281213 0.2279721 0.2336865 0.2410951 0.2452325 0.2453611 0.2440807 0.2426014
 0.2386889 0.2299031 0.2182302 0.2101395 0.210911 0.2191679 0.2281153 0.2321778 0.2314203 0.2295578
 0.22899 0.2283698 0.2245416 0.2166669 0.2082676 0.2042664 0.2057692 0.2090746 0.2100547 0.2074803
 0.2015937 0.1927197 0.1835405 0.1799476 0.1860462 0.199092 0.2116668 0.2178116 0.2152067 0.2037852
 0.1864353 0.1706263 0.1647955 0.1708407 0.1818411 0.1884409 0.1863045 0.1768892 0.1633721 0.1484194
 0.1353569 0.1285866 0.1309186 0.1406754 0.1519203 0.1575269 0.1531103 0.1403028 0.1267801 0.1207453
 0.1236477 0.1293345 0.1309989 0.1273453 0.1216215 0.117289 0.1159517 0.117293 0.11949 0.1208259
 0.1210402 0.1196536 0.1141721 0.1031274 0.09033339 0.08243848 0.08199216 0.08607244 0.09161679 0.09816656
 0.1045556 0.1070625 0.1036272 0.09780224 0.0957476 0.09970633 0.1060999 0.1099334 0.1097552 0.107908
 0.1068723 0.106584 0.1057234 0.1046464 0.1054919 0.1091871 0.1137917 0.1166535 0.1171819 0.1166078
 0.1159321 0.1151883 0.114146 0.1127403 0.1109997 0.1091107 0.1073759 0.10585 0.1042843 0.1025104
 0.1004276 0.09747197 0.09275236 0.08635297 0.080145 0.07635716 0.07527862 0.07533455 0.0754496 0.07575829
 0.07545778 0.07209647 0.06484551 0.05726968 0.05476331 0.05935299 0.06818676 0.07675549 0.08225451 0.08380304
 0.08120546 0.0753786 0.06984673 0.06962419 0.07703678 0.08943895 0.1020935 0.1122898 0.1195568 0.1233433
 0.1227469 0.1184791 0.1136025 0.1118102 0.1152301 0.1234411 0.1334718 0.1404139 0.1398236 0.1322611
 0.1254939 0.128759 0.1428846 0.1586866 0.167266 0.1690979 0.170264 0.1729937 0.1746206 0.1744451
 0.1763909 0.183636 0.1938869 0.2015832 0.2027175 0.1963881 0.1842991 0.1711687 0.1635152 0.1644987
 0.1704628 0.1750225 0.1753169 0.1716793 0.1638292 0.1523843 0.1428682 0.1424138 0.1514708 0.1628018
 0.1697142 0.1721549 0.1737216 0.1754561 0.1746192 0.1688796 0.1601763 0.1534897 0.1518536 0.1536423
 0.1551922 0.1546185 0.1519033 0.1467853 0.1388819 0.1297643 0.122971 0.1210157 0.1229562 0.1254691
 0.1260168 0.1245646 0.1226304 0.1215131 0.1214941 0.1220543 0.1227234 0.1241412 0.1279465 0.1348357
 0.1431381 0.1503975 0.1561482 0.1620122 0.1690878 0.1762742 0.1814253 0.1835743 0.1838736 0.1846835
 0.1877083 0.1925963 0.1971567 0.1992156 0.1986697 0.1977667 0.1990374 0.2028753 0.2074374 0.2107909
 0.2125501 0.2134636 0.2142312 0.2149472 0.2150773 0.2138947 0.2115826 0.2098947 0.2109315 0.2150495
 0.2204846 0.2251061 0.2280782 0.229793 0.2307833 0.2311058 0.230638 0.2296219 0.2287 0.2284349
 0.2289337 0.2299524 0.2312008 0.2324806 0.233682 0.2347786 0.2357941 0.2367386 0.2376084 0.2384351
 0.23926 0.2400626 0.2407902 0.241481 0.2422781 0.2432665 0.2443471 0.2453256 0.2460708 0.2465106
 0.2465402 0.2460686 0.2451528 0.2439695 0.2426193 0.2410662 0.2393655 0.2379131 0.237339 0.2380485
 0.2398604 0.2421284 0.244201 0.2457536 0.2467736 0.247389 0.2477565 0.2480204 0.2482787 0.248565
 0.2488703 0.2491803 0.2494928 0.2498076 0.2501234 0.2504559 0.2508456 0.2513265 0.2518837 0.2524537
 0.2529614 0.2533577 0.2536358 0.2538252 0.2539589 0.2540338 0.2540047 0.2538239 0.2534911 0.2530656
 0.2526308 0.2522433 0.2519031 0.251558 0.2511357 0.2505783 0.2498473 0.2489035 0.2477229 0.2463559
 0.2449323 0.2435627 0.2422477 0.2409115 0.2394938 0.2379749 0.236343 0.2345839 0.2327036 0.2307346
 0.2287178 0.2266828 0.2246431 0.2226026 0.2205615 0.2185164 0.2164639 0.214411 0.2123695 0.2103277
 0.2082261 0.2059639 0.2034282 0.2005209 0.1971639 0.1932981 0.1889047 0.1840469 0.1788828 0.1736242
 0.1684752 0.1635943 0.159086 0.1550167 0.151447 0.1484498 0.1460917 0.1444077 0.1433998 0.1430466
 0.1433048 0.1441087 0.1453738 0.1469999 0.1488666 0.150831 0.1527384 0.1544576 0.1559297 0.1571912
 0.1583402 0.1594647 0.1605939 0.1617127 0.1628102 0.1638908 0.1649369 0.1658937 0.1667161 0.1674113
 0.168019 0.168568 0.1690692 0.1695317 0.1699675 0.1703862 0.170795 0.1712048 0.1716393 0.1721339
 0.1727187 0.1733994 0.174159 0.1749716 0.1758088 0.1766431 0.1774521 0.1782216 0.1789484 0.1796443
 0.1803347 0.1810634 0.1819127 0.1830029 0.1844426 0.1862697 0.1884382 0.190844 0.1933569 0.1958525
 0.1982348 0.2004356 0.2024107 0.2041466 0.2056552 0.2069507 0.2080407 0.2089425 0.2096922 0.2103369
 0.2109213 0.2114756 0.2120119 0.2125375 0.213063 0.213591 0.2141115 0.2146191 0.2151206 0.2156219
 0.2161251 0.2166367 0.217159 0.2176813 0.2181901 0.2186738 0.2191015 0.2194186 0.2195804 0.2195844
 0.21946 0.2192284 0.2188721 0.218345 0.2176122 0.2166695 0.2155251 0.2141852 0.2126662 0.2110063
 0.2092612 0.2075048 0.2058226 0.2042779 0.2028795 0.2015786 0.2002795 0.1988626 0.1972432 0.1954295
 0.1935057 0.1915575 0.1896237 0.1877054 0.1857977 0.1839116 0.1820731 0.1803053 0.1786233 0.1770448
 0.1755799 0.1742059 0.1728792 0.171583 0.1703461 0.169214 0.168216 0.167358 0.1666247 0.1659891
 0.1654254 0.1649176 0.1644659 0.1640886 0.1637999 0.1635778 0.1633633 0.1630932 0.1627312 0.1622836
 0.1618038 0.1613654 0.1610148 0.1607521 0.1605511 0.1603644 0.1601082 0.1596697 0.1589416 0.1578528
 0.156387 0.15459 0.1525572 0.1504137 0.1482958 0.1463267 0.1445939 0.1431502 0.1420161 0.1411508
 0.1404479 0.1398068 0.1392152 0.1387462 0.1384785 0.1384056 0.1383991 0.1382854 0.1379994 0.1376527
 0.1374308 0.1374425 0.1376698 0.1380107 0.1383442 0.1385828 0.1386851 0.1386378 0.1384574 0.1382006
 0.1379231 0.1376279 0.1372891 0.1369038 0.1364852 0.1360311 0.1355263 0.1349529 0.1342922 0.1335414
 0.1327189 0.1318392 0.1309033 0.1299082 0.1288302 0.1276364 0.1263769 0.1252375 0.1244523 0.1241714
 0.124398 0.1249878 0.1257264 0.1264678 0.1271459 0.1276232 0.127701 0.1274397 0.1273495 0.1280305
 0.129588 0.1315071 0.1331151 0.1340678 0.1343808 0.1341708 0.1335235 0.1325132 0.1311669 0.1294387
 0.1273186 0.1248978 0.1222786 0.1195509 0.1168766 0.1144482 0.1123618 0.1106254 0.1092317 0.1082309
 0.1077516 0.1074577 0.1056764 0.1002816 0.09194764 0.08560519 0.08631063 0.09357676 0.101704 0.1058147
 0.1057551 0.1041196 0.1027249 0.1018781 0.1015073 0.1017325 0.1026548 0.1041337 0.1057839 0.107179
 0.108122 0.1086489 0.1087561 0.1081575 0.106223 0.1022073 0.09585907 0.08794378 0.07998057 0.07336748
 0.06877003 0.06611357 0.06484824 0.06427382 0.06390983 0.06372043 0.06399423 0.06500533 0.0667831 0.06916058
 0.0719363 0.0748799 0.07764737 0.07990505 0.08158527 0.08286469 0.08386301 0.08450344 0.08467159 0.08436911
 0.08369619 0.08278285 0.08175181 0.08068465 0.07959249 0.07843838 0.07723875 0.07616101 0.0754471 0.07518725
 0.07524083 0.07541472 0.07561992 0.07582846 0.07600398 0.07612278 0.07619517 0.07627039 0.07645285 0.07684088
 0.07740225 0.07797716 0.07842578 0.07872526 0.07893822 0.07910752 0.07915241 0.07893346 0.07851237 0.07820031
 0.07815254 0.07806811 0.07755995 0.07672302 0.07607256 0.07596733 0.07629872 0.07670781 0.07692485 0.07690103
 0.07678416 0.0768439 0.07729498 0.07804595</values></Ydata></ScSm><ScRf><Ydata ylabel="Single channel"><values byteorder="INTEL" format="FLOAT32" numvalues="1820"> 0.06065721 0.06081774 0.06091869 0.06095767 0.06095966 0.06096945 0.0610331 0.06117093 0.06136171 0.0615516
 0.06168797 0.06175347 0.06176213 0.06172759 0.06166247 0.06161193 0.06164707 0.06179847 0.06200998 0.06217334
 0.06221354 0.06215639 0.06211585 0.0621812 0.06229441 0.06226772 0.06196249 0.06145063 0.06096695 0.06069369
 0.06064927 0.06082425 0.06129178 0.06199337 0.06250462 0.06234004 0.06156246 0.06080401 0.06056614 0.06074062
 0.06090691 0.060819 0.06048173 0.06005239 0.05987912 0.0604054 0.06173151 0.06325783 0.06390373 0.06278811
 0.05985537 0.05607427 0.05308558 0.05232555 0.05401228 0.05685193 0.05901087 0.05957957 0.05900811 0.05817919
 0.05745634 0.05679768 0.05637173 0.05659339 0.0575526 0.05862498 0.0587935 0.05752101 0.05539158 0.05369475
 0.05324669 0.0538786 0.05513096 0.056754 0.05800451 0.05724379 0.05355009 0.04876241 0.04666318 0.04938451
 0.05513364 0.05994397 0.06120145 0.05911501 0.05557491 0.05258221 0.05148179 0.05260009 0.0552034 0.05811197
 0.06040817 0.06146382 0.06078247 0.0584353 0.05548226 0.05345561 0.05341638 0.05553722 0.0590679 0.06240652
 0.0638274 0.06275341 0.06013928 0.05746223 0.05574791 0.05557439 0.05722172 0.06038241 0.06413487 0.06747465
 0.06972878 0.07063034 0.07037432 0.06949292 0.06845196 0.06757074 0.06729838 0.06793685 0.06891136 0.06899233
 0.06763513 0.06571141 0.06461237 0.06481203 0.065492 0.06553583 0.06465852 0.06322001 0.06111436 0.05774816
 0.05339335 0.04955215 0.04745276 0.04711293 0.04823662 0.05069069 0.05344265 0.05449528 0.05307084 0.05100923
 0.05093919 0.05347435 0.05689679 0.05925972 0.06019025 0.06075774 0.06209147 0.06422192 0.06593372 0.0656819
 0.06312703 0.06000016 0.0588816 0.06066801 0.06370901 0.06583588 0.06664816 0.06727314 0.06839587 0.06919742
 0.06820874 0.06505659 0.06140007 0.05990179 0.06190633 0.0660955 0.06944604 0.0694635 0.06586093 0.06062944
 0.05648753 0.05499544 0.05613861 0.05937212 0.06422435 0.06974354 0.07424064 0.07623045 0.07550827 0.07308599
 0.07003441 0.06648579 0.06217264 0.05807137 0.05662111 0.05942243 0.06518605 0.07080057 0.07410927 0.07499294
 0.07416172 0.0718198 0.06786482 0.06318527 0.06008855 0.06050642 0.06366499 0.06652182 0.06694907 0.06567301
 0.06471357 0.06486827 0.06541148 0.06564183 0.06589042 0.06696071 0.06897922 0.07108802 0.07227008 0.07226998
 0.07164514 0.07111676 0.0709123 0.07059692 0.0696933 0.0686435 0.06875287 0.07075494 0.07379395 0.07630154
 0.07756963 0.07800421 0.07806662 0.07746635 0.07558122 0.07262391 0.07011347 0.06974475 0.07174854 0.07474905
 0.07719433 0.07847155 0.07875936 0.07846531 0.0779506 0.07741495 0.07695453 0.07681154 0.07731495 0.07840916
 0.07954421 0.0802237 0.08041067 0.08028312 0.07988359 0.07919338 0.07838534 0.07782197 0.07779372 0.07830192
 0.07910869 0.07994841 0.08061884 0.08093718 0.08080417 0.08035101 0.07986562 0.0795307 0.07935642 0.07935836
 0.07961882 0.08012305 0.08068001 0.08108154 0.08126645 0.08129296 0.0812223 0.08107658 0.0808762 0.08068585
 0.08061619 0.08074722 0.08102806 0.08130848 0.0815133 0.08171824 0.08198883 0.0822226 0.08225504 0.08208036
 0.08186933 0.08178197 0.08183679 0.08195521 0.08205431 0.08206054 0.08189461 0.08154021 0.08114193 0.08095094
 0.08112353 0.08161315 0.08225951 0.08289866 0.08338585 0.08363535 0.08368948 0.08367069 0.08363531 0.08353406
 0.08332847 0.08309591 0.08300196 0.08317344 0.08358485 0.08407176 0.08446537 0.08469937 0.08480088 0.08484826
 0.08494195 0.08512835 0.08532608 0.08540133 0.08533739 0.08526404 0.08530087 0.08542308 0.08550382 0.08546442
 0.08536468 0.08534312 0.08547415 0.08570273 0.08592315 0.08609506 0.08626258 0.08646857 0.08666557 0.08673347
 0.08661018 0.08638629 0.08622147 0.08617824 0.08620091 0.08625042 0.08637106 0.0865918 0.08683291 0.08697186
 0.08698043 0.0869491 0.08697215 0.08703968 0.08705907 0.08696529 0.08678837 0.08662078 0.08654022 0.08656179
 0.08663995 0.08670454 0.08670464 0.08663505 0.08652847 0.08642249 0.08633563 0.08628258 0.08630565 0.08645634
 0.08671663 0.08695523 0.08700836 0.08682738 0.08653629 0.08632447 0.0862774 0.08631383 0.08628261 0.08610713
 0.08583331 0.08556059 0.08535347 0.08521452 0.08511363 0.08502969 0.08497806 0.0850056 0.08513797 0.08531509
 0.08540206 0.08530109 0.08504847 0.08477679 0.08459297 0.08451575 0.08450481 0.08450937 0.08450587 0.08452103
 0.08459558 0.08470425 0.08475335 0.08468774 0.08456212 0.08448401 0.08452486 0.08469068 0.08491888 0.08509065
 0.08510993 0.08499987 0.08488269 0.08485179 0.08489996 0.08497448 0.08505258 0.08514077 0.08523711 0.08533238
 0.0854412 0.08560324 0.08584239 0.08613146 0.08640148 0.08658852 0.0866836 0.08674902 0.08687846 0.08712442
 0.08745629 0.08778977 0.08805765 0.08825619 0.08842953 0.0886145 0.0888102 0.08900792 0.08923027 0.08950986
 0.08983675 0.09016077 0.09044833 0.09071027 0.09097349 0.09125102 0.09154516 0.0918652 0.09223284 0.09266062
 0.0931128 0.09350191 0.09375506 0.09388782 0.09399861 0.09419321 0.09451374 0.09490845 0.09525412 0.0954491
 0.09551869 0.09560017 0.09579377 0.09606082 0.09630664 0.09652919 0.09682503 0.09725073 0.09773056 0.09812415
 0.09836385 0.09850664 0.09865901 0.0988642 0.09906954 0.09920328 0.09926749 0.09933285 0.09945099 0.09961537
 0.09981997 0.1001038 0.1004944 0.1009387 0.101337 0.101633 0.1018385 0.1019891 0.1021075 0.1021978
 0.1022487 0.1022576 0.1022621 0.1023162 0.102422 0.1025197 0.1025661 0.1025911 0.1026552 0.1027874
 0.1029878 0.1032555 0.1035731 0.1038871 0.1041559 0.1044129 0.1047316 0.1051093 0.1054344 0.1056054
 0.1056445 0.1056521 0.105681 0.1057188 0.105774 0.1059058 0.1061523 0.1064818 0.1068371 0.1071937
 0.1075557 0.1079162 0.1082375 0.1084662 0.1085676 0.1085579 0.108506 0.1085024 0.1086169 0.1088656
 0.1092019 0.1095455 0.1098305 0.1100255 0.1101145 0.1100951 0.1100164 0.1099856 0.1100844 0.1102779
 0.1104327 0.1104288 0.1102318 0.1098656 0.1093573 0.1087324 0.1080448 0.1073804 0.106823 0.1064215
 0.1061955 0.1061682 0.106377 0.1068321 0.1074693 0.1081668 0.1088144 0.1093393 0.1096649 0.109697
 0.1093895 0.1088046 0.1080764 0.1073285 0.1066348 0.1060174 0.1054492 0.1048915 0.1043759 0.1040467
 0.1040947 0.1046424 0.1056816 0.1070796 0.1086216 0.1100789 0.1112996 0.1122641 0.1130544 0.1137624
 0.1144341 0.1150894 0.1157545 0.1164373 0.1170907 0.1176478 0.1180973 0.1184923 0.1188851 0.1192793
 0.1196422 0.1199409 0.1201722 0.1203725 0.1205813 0.1207788 0.1208907 0.1208731 0.120767 0.1206444
 0.1205263 0.1203721 0.1201268 0.1197667 0.1193292 0.1189323 0.1187582 0.1189783 0.1196552 0.1207022
 0.1219482 0.123247 0.1245145 0.125675 0.1266279 0.1273055 0.1277387 0.1280326 0.1282869 0.1285535
 0.1288449 0.1291523 0.1294586 0.1297522 0.1300351 0.1303214 0.13063 0.1309687 0.1313137 0.1316187
 0.1318606 0.1320755 0.1323358 0.1326828 0.1330861 0.1334734 0.1338052 0.1341069 0.1344178 0.1347242
 0.1349759 0.1351592 0.1353219 0.1355255 0.1358026 0.136151 0.1365328 0.1368798 0.1371379 0.1373175
 0.1374792 0.1376718 0.1378994 0.1381432 0.1383888 0.1386297 0.1388664 0.1391115 0.1393879 0.1397024
 0.14002 0.1402798 0.1404513 0.140571 0.1407089 0.1409025 0.1411321 0.141357 0.1415659 0.1417877
 0.1420589 0.1423778 0.1426924 0.1429401 0.1431007 0.1432095 0.143323 0.1434762 0.1436706 0.1438875
 0.1441071 0.1443191 0.1445235 0.1447282 0.1449411 0.1451609 0.1453781 0.1455865 0.1457899 0.1459959
 0.1462052 0.1464125 0.1466217 0.1468544 0.1471334 0.1474503 0.1477566 0.1479986 0.1481615 0.1482744
 0.1483794 0.1485045 0.1486589 0.1488394 0.1490365 0.1492404 0.1494453 0.1496493 0.1498539 0.1500629
 0.1502762 0.1504885 0.1506957 0.1509016 0.1511154 0.1513441 0.1515845 0.1518238 0.1520467 0.1522472
 0.1524307 0.1526093 0.1527941 0.1529894 0.1531892 0.1533838 0.1535719 0.1537608 0.1539533 0.1541428
 0.1543249 0.1545059 0.1546957 0.1548949 0.155095 0.1552873 0.1554713 0.1556539 0.1558437 0.1560462
 0.1562596 0.1564723 0.1566708 0.1568542 0.1570351 0.1572255 0.1574267 0.1576333 0.1578422 0.1580517
 0.1582606 0.1584679 0.1586721 0.1588705 0.1590615 0.1592484 0.1594375 0.1596319 0.1598282 0.1600218
 0.1602158 0.1604177 0.1606274 0.1608351 0.1610359 0.1612383 0.1614523 0.1616778 0.1619077 0.1621338
 0.1623512 0.1625603 0.162766 0.1629728 0.1631837 0.1634024 0.1636306 0.1638624 0.1640868 0.1642942
 0.1644797 0.1646473 0.164808 0.1649702 0.1651343 0.1653009 0.1654748 0.1656575 0.1658454 0.1660377
 0.1662352 0.1664332 0.1666262 0.1668179 0.1670177 0.1672291 0.1674459 0.1676555 0.1678509 0.1680385
 0.1682304 0.1684294 0.1686316 0.1688371 0.1690479 0.169259 0.1694635 0.169663 0.1698653 0.1700778
 0.1703027 0.170534 0.1707635 0.1709903 0.171215 0.1714302 0.1716302 0.1718244 0.1720245 0.1722294
 0.1724325 0.172635 0.1728397 0.1730462 0.1732536 0.1734606 0.1736651 0.1738713 0.1740873 0.1743116
 0.1745339 0.1747475 0.1749532 0.1751588 0.1753757 0.1756058 0.1758367 0.1760602 0.1762818 0.176502
 0.1767119 0.1769108 0.1771061 0.1772874 0.1774104 0.1773602 0.1768568 0.1753519 0.1720165 0.1659073
 0.1563406 0.1433209 0.1276894 0.110831 0.09416881 0.0787896 0.06533301 0.05408013 0.04509997 0.0383346
 0.03364493 0.03090245 0.03009626 0.03144045 0.03548156 0.04277003 0.05264066 0.06213561 0.06715289 0.06568015
 0.05971881 0.05346351 0.04981992 0.04900029 0.04976742 0.05105632 0.05252073 0.05434857 0.05687616 0.06020519
 0.06418 0.06879406 0.07438774 0.08120975 0.08889803 0.09663543 0.1038517 0.1106651 0.1176048 0.1249721
 0.1325231 0.1397073 0.1461061 0.1516412 0.1564865 0.1608728 0.164957 0.1688121 0.1724816 0.1759747
 0.1791745 0.1818011 0.1835517 0.1843326 0.1843669 0.1840675 0.1837933 0.1837075 0.1838206 0.1841005
 0.1845227 0.185067 0.1857128 0.1864385 0.1872177 0.1880257 0.1888457 0.1896576 0.1904319 0.1911471
 0.1918009 0.1923984 0.1929443 0.1934458 0.1939116 0.1943467 0.1947556 0.1951449 0.1955165 0.1958689
 0.1962023 0.1965177 0.1968128 0.1970876 0.1973453 0.1975855 0.1978053 0.1980095 0.1982103 0.198416
 0.1986264 0.1988382 0.1990493 0.1992589 0.1994658 0.1996668 0.1998612 0.2000568 0.200263 0.2004767
 0.2006835 0.2008757 0.2010598 0.2012459 0.2014364 0.2016274 0.2018148 0.2019991 0.2021855 0.2023804
 0.2025853 0.2027952 0.2029999 0.2031896 0.203367 0.2035512 0.2037593 0.2039866 0.2042137 0.2044297
 0.2046363 0.2048389 0.2050429 0.2052515 0.2054562 0.2056385 0.2057919 0.2059385 0.2061153 0.2063416
 0.2065998 0.2068488 0.2070615 0.2072461 0.2074274 0.2076188 0.2078157 0.2080067 0.2081879 0.2083724
 0.20858 0.2088117 0.2090491 0.2092867 0.2095358 0.2097931 0.210038 0.2102662 0.2104884 0.2106943
 0.2108565 0.2109834 0.2111401 0.2113948 0.2117479 0.2121233 0.2124414 0.2126881 0.212905 0.2131326
 0.2133875 0.2136501 0.2138421 0.213877 0.2137971 0.2138032 0.2140718 0.2145781 0.2151464 0.2156314
 0.2160055 0.2163106 0.2165816 0.21681 0.2169528 0.2169826 0.2169538 0.2170142 0.2173028 0.2178038
 0.2183464 0.218776 0.2190759 0.2193012 0.2194861 0.2196422 0.2197342 0.2196319 0.2192481 0.2187899
 0.2187074 0.2192603 0.2202207 0.2211102 0.2216685 0.2219888 0.222253 0.2225083 0.2227122 0.2227743
 0.2224601 0.2215264 0.2202031 0.2193245 0.2196427 0.2210669 0.2228051 0.2241526 0.2249363 0.2253373
 0.2255825 0.225795 0.2259012 0.2256371 0.2248414 0.2238476 0.2233993 0.2239636 0.2252072 0.2263575
 0.2269941 0.2272695 0.2274912 0.2277751 0.22797 0.2276215 0.2262295 0.2239883 0.2221573 0.2221726
 0.2242435 0.2271011 0.2292542 0.2302669 0.23064 0.2307178 0.2301839 0.22864 0.2262126 0.2234932
 0.221356 0.2208509 0.2225073 0.2254483 0.2278844 0.2288851 0.2291691 0.2299188 0.2313661 0.2328044
 0.2335091 0.2332999 0.2324071 0.2310636 0.2293953 0.2278024 0.2271858 0.2283038 0.2308517 0.2335712
 0.2354152 0.2363425 0.2367707 0.2363487 0.233705 0.2280955 0.221469 0.2179305 0.2201127 0.2264185
 0.2327342 0.2364783 0.238022 0.2387514 0.2392147 0.2389686 0.2368443 0.2315933 0.2238524 0.2173661
 0.2164455 0.2216991 0.229344 0.2347416 0.2355499 0.2319513 0.2258217 0.2201829 0.2179661 0.2202312
 0.2257067 0.2320439 0.2372233 0.2401106 0.2404508 0.2387541 0.2362517 0.2345964 0.2346646 0.2352488
 0.2339738 0.2302955 0.2264145 0.2240539 0.2218006 0.2177206 0.2136017 0.2137762 0.2194861 0.2268003
 0.2310303 0.2314842 0.2306182 0.2295641 0.2261946 0.2181869 0.2074231 0.2000799 0.2012311 0.2095788
 0.2186097 0.2229745 0.2227386 0.2214698 0.2214777 0.2214577 0.2183273 0.2112533 0.2037069 0.2005536
 0.2028747 0.2069984 0.2088442 0.2071743 0.2021625 0.1940922 0.185711 0.1830742 0.1904382 0.2050512
 0.219308 0.2270139 0.2256483 0.2149966 0.1980359 0.1827751 0.178362 0.1868821 0.2008195 0.2099715
 0.2095421 0.2009967 0.1877124 0.1726778 0.1598774 0.1547172 0.1608003 0.1762802 0.1938562 0.2043668
 0.2018512 0.1882233 0.1737501 0.1696608 0.1778847 0.1896871 0.1954484 0.1933977 0.1882392 0.1851173
 0.1866617 0.1924996 0.1996418 0.2052999 0.2091139 0.2099718 0.2030019 0.185422 0.1642786 0.1518021
 0.1527086 0.1617845 0.1736621 0.1876414 0.2013229 0.2072979 0.2014959 0.1908878 0.1875517 0.1958508
 0.2087004 0.2162439 0.2156147 0.2114584 0.2087617 0.2075452 0.2053477 0.2029677 0.2046667 0.2122888
 0.2220437 0.2287408 0.2311888 0.2317233 0.2322412 0.2327604 0.2327613 0.2320536 0.2306981 0.2291421
 0.22809 0.2277162 0.2275024 0.2270279 0.225953 0.2228166 0.2153566 0.2036882 0.1923203 0.1865825
 0.1869728 0.1895359 0.191743 0.1939629 0.1939646 0.1853719 0.1660827 0.1451827 0.1363338 0.1445689
 0.162541 0.1789003 0.1869904 0.185421 0.1746773 0.1573203 0.1406925 0.1346222 0.1434155 0.161728
 0.1802738 0.1938238 0.2018149 0.2039264 0.1990838 0.1885996 0.1774437 0.1714143 0.1736115 0.1830651
 0.1950471 0.2022937 0.1985683 0.1848531 0.1720696 0.1730208 0.1889715 0.2075621 0.2167054 0.2168224
 0.2159485 0.2172304 0.2173673 0.2153891 0.2161648 0.223728 0.2353436 0.2442074 0.2454218 0.2379236
 0.223843 0.2089951 0.2013726 0.2047071 0.2141588 0.2215192 0.2231216 0.2193751 0.2099437 0.1957732
 0.1842012 0.1845433 0.1973075 0.2129863 0.2228531 0.226908 0.2299169 0.2332153 0.2330947 0.226429
 0.2159001 0.2083505 0.2080135 0.2128049 0.2178506 0.2206354 0.2210277 0.2183466 0.2117825 0.203729
 0.199832 0.2040727 0.2146122 0.2254821 0.2319082 0.2332902 0.2317934 0.2295346 0.2271685 0.2240659
 0.2197202 0.2155748 0.2147468 0.2187033 0.2249279 0.2295084 0.2316179 0.2337862 0.2379189 0.2426682
 0.2450738 0.2437949 0.240383 0.237923 0.2385579 0.2417971 0.2448877 0.2451613 0.242567 0.2399566
 0.2404594 0.2444963 0.2497214 0.2536924 0.2558622 0.2570683 0.2580963 0.2589942 0.2590393 0.257283
 0.2538927 0.2509372 0.2509215 0.2543004 0.2590448 0.2627436 0.2645558 0.2650671 0.264952 0.2642667
 0.2628528 0.2609898 0.2594147 0.2587408 0.2590138 0.2598516 0.2608418 0.2617323 0.2624146 0.2628887
 0.2632136 0.2634276 0.2635457 0.2636206 0.2637087 0.2637681 0.2637008 0.2635339 0.2634577 0.2636156
 0.2639277 0.2641846 0.2642462 0.2640591 0.2635453 0.2626201 0.2613322 0.2598614 0.2583216 0.2566735
 0.2549507 0.2535371 0.2530675 0.253947 0.2559707 0.2584444 0.2606604 0.2622546 0.2632121 0.2636856
 0.2638593 0.2638927 0.2638831 0.2638443 0.2637392 0.2635417 0.2632654 0.2629378 0.2625718 0.2621783
 0.2617924 0.2614586 0.2611834 0.2609206 0.2606103 0.26022 0.2597529 0.2592357 0.2586955 0.2581283
 0.2574902 0.2567313 0.255845 0.2548807 0.2539193 0.253031 0.2522318 0.2514739 0.250693 0.2498603
 0.2489665 0.2479785 0.2468703 0.2457077 0.2446432 0.2437872 0.2431089 0.2424832 0.2418027 0.2410212
 0.2401315 0.2391516 0.2381231 0.2370843 0.2360359 0.2349452 0.2337752 0.232505 0.2311342 0.2296789
 0.2281561 0.2265754 0.2249532 0.2233171 0.2216653 0.2199227 0.2179551 0.215623 0.212815 0.2094561
 0.2055251 0.2010845 0.1962897 0.1913526 0.1864776 0.1818186 0.1774866 0.1735831 0.1702108 0.1674535
 0.1653603 0.1639502 0.1632288 0.1632009 0.1638691 0.1652137 0.1671699 0.1696229 0.1724242 0.1754082
 0.1784017 0.1812427 0.1838286 0.186164 0.1883382 0.1904279 0.1924256 0.1942731 0.1959331 0.1974025
 0.198676 0.1997378 0.2005897 0.2012675 0.2018243 0.2023023 0.2027201 0.2030844 0.2034032 0.2036801
 0.2039082 0.2040873 0.2042416 0.2044072 0.204604 0.2048312 0.2050882 0.2053901 0.2057607 0.2062077
 0.2067099 0.2072389 0.2077882 0.208368 0.2089804 0.2096246 0.2103245 0.2111337 0.2121043 0.2132524
 0.214548 0.2159276 0.2173157 0.2186384 0.2198245 0.220812 0.2215609 0.2220594 0.2223212 0.2223823
 0.2222923 0.2220932 0.2218067 0.2214429 0.22101 0.2205146 0.2199604 0.2193543 0.2187064 0.2180218
 0.2173028 0.2165654 0.2158451 0.2151733 0.2145464 0.2139313 0.2133036 0.212671 0.2120525 0.2114526
 0.2108635 0.2102818 0.2097119 0.2091551 0.2086026 0.2080311 0.2074006 0.2066662 0.2058044 0.2048303
 0.2037795 0.2026713 0.2014962 0.2002379 0.1988944 0.197473 0.1959763 0.1944027 0.1927566 0.1910431
 0.1892481 0.1873412 0.185321 0.1832578 0.1812657 0.1794244 0.1777382 0.1761658 0.17467 0.1732379
 0.1718767 0.1705963 0.1693921 0.1682462 0.1671461 0.1660921 0.1650881 0.1641379 0.1632506 0.1624414
 0.1617249 0.1611027 0.1605581 0.1600678 0.1596237 0.1592394 0.1589398 0.1587531 0.1586951 0.1587394
 0.1588143 0.1588475 0.1588091 0.158711 0.1585836 0.1584575 0.1583531 0.158279 0.1582313 0.1581762
 0.1580378 0.1577215 0.1571474 0.1562648 0.1550605 0.1535697 0.1518636 0.1500297 0.1481812 0.1464573
 0.1449808 0.143814 0.1429531 0.1423347 0.1418575 0.1414426 0.1410892 0.1408654 0.140848 0.141044
 0.1413382 0.1415503 0.141598 0.1415899 0.1417259 0.1421316 0.1427901 0.1435788 0.1443542 0.1450263
 0.1455632 0.145946 0.1461688 0.14627 0.1462999 0.146266 0.1461513 0.1459575 0.1456977 0.1453851
 0.1450354 0.1446405 0.1441586 0.143567 0.1428858 0.142134 0.1413151 0.1404337 0.1394593 0.13833
 0.1370832 0.1359391 0.1351842 0.1349986 0.135388 0.1362011 0.1372247 0.1383183 0.1393939 0.1402532
 0.1406498 0.1406629 0.1408664 0.1419111 0.1439118 0.146327 0.1484406 0.1498742 0.1506171 0.1507469
 0.1503086 0.1493622 0.1479391 0.146 0.1435632 0.1407743 0.1377801 0.1346933 0.1316995 0.1290109
 0.1267323 0.1248849 0.1234635 0.1224897 0.1220759 0.1218601 0.1199731 0.113991 0.104682 0.09771356
 0.09889033 0.1076148 0.1172884 0.1222763 0.1224036 0.1206716 0.11917 0.1182151 0.1176872 0.117722
 0.1184429 0.1196918 0.121073 0.1221961 0.1229091 0.1232534 0.1231876 0.1223523 0.1200042 0.1152768
 0.107881 0.09869996 0.08948355 0.08183441 0.07648876 0.0733251 0.07171296 0.07088552 0.07032147 0.06998844
 0.07021709 0.07131019 0.07328574 0.07596125 0.07913904 0.08258057 0.08589643 0.08869368 0.09086996 0.09260546
 0.09403902 0.09509172 0.09562477 0.09563412 0.09524858 0.09462847 0.09390292 0.09313406 0.09227978 0.09123284
 0.08998606 0.08875778 0.08785704 0.08740501 0.08727147 0.08727309 0.08731832 0.08736718 0.08738139 0.08734334
 0.08726725 0.0872103 0.08729052 0.08761092 0.08812247 0.08862643 0.08894482 0.08906122 0.08908997 0.08909732
 0.08894809 0.08843184 0.08760734 0.08684141 0.08632841 0.08575419 0.08470885 0.08332768 0.08223706 0.08188149
 0.08212206 0.08249402 0.08265263 0.08253522 0.08230279 0.08224889 0.08260418 0.08324897 0.08371148 0.08361883
</values></Ydata></ScRf><Data_Parameters_AB><parameter name="DPF">1</parameter><parameter name="NPT">3497</parameter><parameter name="FXV">3996</parameter><parameter name="LXV">500</parameter><parameter name="CSF">1</parameter><parameter name="MXY">0.410292685031891</parameter><parameter name="MNY">-0.0918626934289932</parameter><parameter name="DAT">31/05/2022</parameter><parameter name="TIM">11:29:13.032 (GMT+2)</parameter><parameter name="DXU">WN</parameter></Data_Parameters_AB><AB__Qtest><MainReport name="Quality Test Report"><Header><Line><Legend>Test result ok/not ok [1/0]: </Legend><Value>0</Value></Line><Line><Legend>Method file: </Legend><Value>C:\Users\Public\Documents\Bruker\OPUS_8.2.28\QT\IRBT_v3_default.QT</Value></Line></Header><Matrix><Line><Legend></Legend><Legend>min</Legend><Legend>max</Legend><Legend>measured</Legend></Line><Line><Value>Absorption (X-Range 1):</Value><Value>0.400000</Value><Value>2.000000</Value><Value>0.371863</Value></Line><Line><Value>Noise (X-Range 4):</Value><Value></Value><Value>0.000300</Value><Value>0.000069</Value></Line><Line><Value>Signal/Noise (X-Range 2):</Value><Value>200.000000</Value><Value></Value><Value>84.204101</Value></Line><Line><Value>Signal/Noise (X-Range 3):</Value><Value>40.000000</Value><Value></Value><Value>36.832814</Value></Line><Line><Value>Water vapour (X-Range 5):</Value><Value></Value><Value>0.000300</Value><Value>0.000056</Value></Line><Line><Value>Signal/Water (X-Range 2):</Value><Value>100.000000</Value><Value></Value><Value>104.512538</Value></Line><Line><Value>Signal/Water (X-Range 3):</Value><Value>20.000000</Value><Value></Value><Value>45.716193</Value></Line><Line><Value>Fringes (X-Range 6):</Value><Value></Value><Value>0.000100</Value><Value>0.000073</Value></Line></Matrix></MainReport></AB__Qtest><Data_Parameters_ScSm><parameter name="DPF">1</parameter><parameter name="NPT">1814</parameter><parameter name="FXV">3996.33169228125</parameter><parameter name="LXV">499.541461535156</parameter><parameter name="CSF">1</parameter><parameter name="MXY">0.263207167387009</parameter><parameter name="MNY">0.0356706082820892</parameter><parameter name="DAT">31/05/2022</parameter><parameter name="TIM">11:29:13.032 (GMT+2)</parameter><parameter name="DXU">WN</parameter></Data_Parameters_ScSm><Data_Parameters_ScRf><parameter name="DPF">1</parameter><parameter name="NPT">1820</parameter><parameter name="FXV">4004.04661832813</parameter><parameter name="LXV">495.683998511719</parameter><parameter name="CSF">1</parameter><parameter name="MXY">0.265067130327225</parameter><parameter name="MNY">0.0300962589681149</parameter><parameter name="DAT">31/05/2022</parameter><parameter name="TIM">11:28:47.177 (GMT+2)</parameter><parameter name="DXU">WN</parameter></Data_Parameters_ScRf><Optic_Parameters_Rf><parameter name="APR">0</parameter><parameter name="APT">Open</parameter><parameter name="BMS">KBr</parameter><parameter name="DTC">RT-DLaTGS_IR-Biotyper [Microplate reader]</parameter><parameter name="HPF">0</parameter><parameter name="LPF">10.0</parameter><parameter name="LPV">4000</parameter><parameter name="PGR">0</parameter><parameter name="RCH">Module port</parameter><parameter name="RDX">0</parameter><parameter name="SRC">MIR</parameter><parameter name="VEL">10.0</parameter><parameter name="SON">Off</parameter></Optic_Parameters_Rf><Acquisition_Parameters_Rf><parameter name="ADT">1</parameter><parameter name="AQM">DD</parameter><parameter name="CFE">0</parameter><parameter name="COR">0</parameter><parameter name="DEL">0</parameter><parameter name="DLY">0</parameter><parameter name="HFW">8000</parameter><parameter name="LFW">0</parameter><parameter name="NSR">32</parameter><parameter name="PLF">AB</parameter><parameter name="RES">6</parameter><parameter name="RGN">-1</parameter><parameter name="STR">0</parameter><parameter name="TCL">MakeCompatibleScalar (0, {WSV=1.000000, ARV=0});</parameter><parameter name="TDL">37</parameter><parameter name="RPO">0</parameter></Acquisition_Parameters_Rf><FT_-_Parameters_Rf><parameter name="APF">B3</parameter><parameter name="HFQ">500</parameter><parameter name="LFQ">4000</parameter><parameter name="NLI">0</parameter><parameter name="PHR">24</parameter><parameter name="PHZ">ML</parameter><parameter name="SPZ">NO</parameter><parameter name="ZFF">1</parameter></FT_-_Parameters_Rf><Optic_Parameters_><parameter name="APR">0</parameter><parameter name="APT">Open</parameter><parameter name="BMS">KBr</parameter><parameter name="CHN">Module port</parameter><parameter name="DTC">RT-DLaTGS_IR-Biotyper [Microplate reader]</parameter><parameter name="HPF">0</parameter><parameter name="LPF">10.0</parameter><parameter name="LPV">4000</parameter><parameter name="PGN">0</parameter><parameter name="RDX">0</parameter><parameter name="SRC">MIR</parameter><parameter name="VEL">10.0</parameter><parameter name="SON">Off</parameter></Optic_Parameters_><FT_-_Parameters_><parameter name="APF">B3</parameter><parameter name="HFQ">500</parameter><parameter name="LFQ">4000</parameter><parameter name="NLI">0</parameter><parameter name="PHR">24</parameter><parameter name="PHZ">ML</parameter><parameter name="SPZ">NO</parameter><parameter name="ZFF">1</parameter></FT_-_Parameters_><Acquisition_Parameters_><parameter name="ADT">1</parameter><parameter name="AQM">DD</parameter><parameter name="CFE">0</parameter><parameter name="COR">0</parameter><parameter name="DEL">0</parameter><parameter name="DLY">0</parameter><parameter name="HFW">8000</parameter><parameter name="LFW">0</parameter><parameter name="NSS">32</parameter><parameter name="PLF">AB</parameter><parameter name="RES">6</parameter><parameter name="SOT">0</parameter><parameter name="TCL">MakeCompatibleScalar (0, {WSV=1.000000, ARV=0});</parameter><parameter name="TDL">37</parameter><parameter name="SPO">0</parameter><parameter name="SGN">-1</parameter></Acquisition_Parameters_><Instrument_Parameters_Rf><parameter name="HFL">15800.168544</parameter><parameter name="LFL">0</parameter><parameter name="LWN">15800.168544</parameter><parameter name="ABP">32197</parameter><parameter name="SSP">1</parameter><parameter name="ARG">2</parameter><parameter name="ASG">2</parameter><parameter name="ASS">32</parameter><parameter name="GFW">16</parameter><parameter name="GBW">16</parameter><parameter name="BFW">0</parameter><parameter name="BBW">0</parameter><parameter name="PKA">7266</parameter><parameter name="PKL">4996</parameter><parameter name="PRA">7450</parameter><parameter name="PRL">5001</parameter><parameter name="P2A">1</parameter><parameter name="P2L">1</parameter><parameter name="P2R">1</parameter><parameter name="P2K">1</parameter><parameter name="DAQ">0</parameter><parameter name="AG2">1</parameter><parameter name="SSM">1</parameter><parameter name="RSN">25459</parameter><parameter name="CRR">0</parameter><parameter name="SRT">1653996527.178</parameter><parameter name="DUR">19.6389923095703</parameter><parameter name="TSC">28.9</parameter><parameter name="MVD">5.06070137023926</parameter><parameter name="AN1">0.225827701677482</parameter><parameter name="AN2">0</parameter><parameter name="VSN">2.485 Apr  4 2017</parameter><parameter name="SRN">0085</parameter><parameter name="CAM">0</parameter><parameter name="INS">IR-Biotyper</parameter><parameter name="FOC">69</parameter><parameter name="RDY">1</parameter><parameter name="ARS">32</parameter></Instrument_Parameters_Rf><Sample_Parameters_><parameter name="BLD"></parameter><parameter name="CNM">Admin</parameter><parameter name="CPY"></parameter><parameter name="DPM"></parameter><parameter name="EXP">IRBT_v3_32Scans.XPM</parameter><parameter name="LCT"></parameter><parameter name="SFM">Microplate, HTS-XT</parameter><parameter name="SNM">220531-1021(v.3)_FBG21M (D_4)_G7_ad2f16e6-c744-4d17-b03e-a3e9c7abfb47.0</parameter><parameter name="XPP">C:\Users\Public\Documents\Bruker\OPUS_8.2.28\XPM</parameter><parameter name="IST">OK</parameter><parameter name="CPG">1252</parameter><parameter name="UID">d113939d-3c76-40e6-8c6d-3091f2e246ab</parameter></Sample_Parameters_><Instrument_Parameters_><parameter name="HFL">15800.168544</parameter><parameter name="LFL">0</parameter><parameter name="LWN">15800.168544</parameter><parameter name="ABP">32197</parameter><parameter name="SSP">1</parameter><parameter name="ASG">2</parameter><parameter name="ARG">2</parameter><parameter name="ASS">32</parameter><parameter name="GFW">16</parameter><parameter name="GBW">16</parameter><parameter name="BFW">0</parameter><parameter name="BBW">0</parameter><parameter name="PKA">6943</parameter><parameter name="PKL">4988</parameter><parameter name="PRA">7214</parameter><parameter name="PRL">4993</parameter><parameter name="P2A">1</parameter><parameter name="P2L">1</parameter><parameter name="P2R">1</parameter><parameter name="P2K">1</parameter><parameter name="DAQ">0</parameter><parameter name="AG2">1</parameter><parameter name="SSM">1</parameter><parameter name="RSN">13355</parameter><parameter name="CRR">0</parameter><parameter name="SRT">1653996553.032</parameter><parameter name="DUR">19.6379852294922</parameter><parameter name="TSC">28.9</parameter><parameter name="MVD">0.288332343101501</parameter><parameter name="AN1">0.225795863339301</parameter><parameter name="AN2">0</parameter><parameter name="VSN">2.485 Apr  4 2017</parameter><parameter name="SRN">0085</parameter><parameter name="CAM">0</parameter><parameter name="INS">IR-Biotyper</parameter><parameter name="FOC">69</parameter><parameter name="RDY">1</parameter></Instrument_Parameters_><History/></OPUSDataFile>
