<?xml version="1.0" encoding="UTF-8" ?>
<OPUSDataFile><AB><Ydata ylabel="Absorbance Units"><values byteorder="INTEL" format="FLOAT32" numvalues="3497"> -0.09355529 -0.09358261 -0.09361629 -0.09365722 -0.09369272 -0.09372215 -0.09373393 -0.09372804 -0.09370016 -0.09365258
 -0.09359541 -0.09353255 -0.09348328 -0.09344902 -0.09344371 -0.09346388 -0.09351135 -0.09357901 -0.09366069 -0.093748
 -0.0938329 -0.09390927 -0.09397081 -0.09401872 -0.09405088 -0.09407482 -0.09409185 -0.09410813 -0.09412505 -0.09414414
 -0.09416559 -0.09419139 -0.09422166 -0.09426061 -0.09430794 -0.09436134 -0.09441908 -0.09446927 -0.09451132 -0.09453525
 -0.09454507 -0.09454439 -0.09453915 -0.09454188 -0.09455255 -0.09457798 -0.09461004 -0.09464451 -0.09467527 -0.09469598
 -0.09471102 -0.09472005 -0.09472989 -0.09474339 -0.09475785 -0.09477354 -0.09478506 -0.09479131 -0.09479799 -0.09480538
 -0.09482562 -0.09485853 -0.09490532 -0.0949636 -0.09501938 -0.09507123 -0.09510567 -0.09512515 -0.09512819 -0.0951189
 -0.09510312 -0.09508433 -0.09506901 -0.09505822 -0.09505662 -0.09505814 -0.09506223 -0.09505828 -0.09504036 -0.09501021
 -0.09496367 -0.09492388 -0.09489307 -0.0948956 -0.09493506 -0.09501341 -0.09513102 -0.09526721 -0.09542025 -0.09556256
 -0.09569266 -0.0957873 -0.09584688 -0.09585807 -0.09582729 -0.09576047 -0.09567035 -0.09558063 -0.09549995 -0.09545004
 -0.09542619 -0.09543508 -0.09545928 -0.09549192 -0.09551723 -0.09552472 -0.09551956 -0.09549859 -0.09548263 -0.09547524
 -0.09548642 -0.09551889 -0.0955587 -0.09560525 -0.09563947 -0.09566166 -0.09567205 -0.09567334 -0.09568303 -0.09570175
 -0.09574267 -0.09580124 -0.09587435 -0.09595433 -0.09602631 -0.09608715 -0.09612565 -0.09614671 -0.09615036 -0.09614199
 -0.09612455 -0.09610158 -0.09607304 -0.09604974 -0.09603208 -0.0960406 -0.09607822 -0.09616378 -0.09630147 -0.09647951
 -0.09669807 -0.09686983 -0.09699022 -0.09696504 -0.09680961 -0.09657513 -0.09628084 -0.09602988 -0.09582028 -0.09569972
 -0.09565593 -0.09569357 -0.09579015 -0.09592541 -0.09606957 -0.0961903 -0.09627465 -0.09629963 -0.09628905 -0.09624369
 -0.09619808 -0.09616386 -0.09614851 -0.09615676 -0.09617611 -0.09620562 -0.09623726 -0.09627046 -0.09630605 -0.09634396
 -0.09638322 -0.09642334 -0.0964601 -0.09649393 -0.09652514 -0.0965522 -0.09657401 -0.09658259 -0.09656238 -0.09651139
 -0.09641498 -0.0962928 -0.09615186 -0.09602207 -0.09592289 -0.09587045 -0.09587924 -0.09593889 -0.09605367 -0.09618946
 -0.0963426 -0.09647765 -0.09659008 -0.09666298 -0.09669495 -0.096684 -0.09663064 -0.09654171 -0.09641941 -0.09628018
 -0.09612807 -0.09598684 -0.0958601 -0.09577041 -0.09571537 -0.09570442 -0.09572458 -0.09576646 -0.09581199 -0.09584133
 -0.0958489 -0.09582113 -0.09577633 -0.09571613 -0.09566648 -0.09563626 -0.09563277 -0.09566092 -0.09570501 -0.09576438
 -0.09582024 -0.09587134 -0.09590883 -0.09593275 -0.09594338 -0.09594176 -0.09593458 -0.0959231 -0.09591593 -0.0959131
 -0.09591924 -0.09593342 -0.09595645 -0.09598662 -0.0960222 -0.09606185 -0.09610169 -0.09614825 -0.09620139 -0.09627692
 -0.09638257 -0.09652258 -0.09670573 -0.09689929 -0.09710236 -0.09726349 -0.09737571 -0.09742191 -0.09740036 -0.0973179
 -0.09717503 -0.09697695 -0.09672882 -0.0964661 -0.09619889 -0.09598789 -0.09583501 -0.09578133 -0.09581041 -0.09592043
 -0.09607268 -0.09621762 -0.09633139 -0.09636632 -0.09634839 -0.09627681 -0.0961867 -0.09609494 -0.09601122 -0.0959437
 -0.09588204 -0.09582598 -0.09576367 -0.09569272 -0.09561774 -0.09553859 -0.09547447 -0.09542622 -0.09541034 -0.09542535
 -0.09547132 -0.09554178 -0.09561278 -0.0956753 -0.09568915 -0.09566046 -0.0955762 -0.09546012 -0.09533885 -0.09522345
 -0.09513759 -0.09506808 -0.0950167 -0.09495974 -0.09488659 -0.09478745 -0.09465361 -0.09450281 -0.09433532 -0.09417734
 -0.09403268 -0.09390949 -0.09380896 -0.093716 -0.09362971 -0.09353186 -0.09342407 -0.09330949 -0.0931906 -0.09308007
 -0.09297698 -0.09288406 -0.09280226 -0.09273392 -0.09268149 -0.09265175 -0.09263774 -0.09263998 -0.09263834 -0.09262125
 -0.09257408 -0.09248627 -0.09235881 -0.09219077 -0.09198043 -0.09172686 -0.09143157 -0.09109307 -0.09073098 -0.09034631
 -0.0899611 -0.08957635 -0.08920803 -0.08885784 -0.08854615 -0.08827396 -0.08805942 -0.08789583 -0.08777629 -0.08769016
 -0.08761305 -0.08754281 -0.08746853 -0.08738596 -0.08729547 -0.08716884 -0.08698896 -0.08673707 -0.08638965 -0.08598898
 -0.08553904 -0.08509137 -0.08465891 -0.08425439 -0.08388197 -0.08353145 -0.08320239 -0.08288639 -0.08258372 -0.08230203
 -0.08204263 -0.08182213 -0.08163562 -0.08147677 -0.08132859 -0.08114 -0.08090264 -0.08056504 -0.08015972 -0.07970538
 -0.07923763 -0.07880238 -0.0783959 -0.07803322 -0.077689 -0.07735598 -0.07701519 -0.07665701 -0.07628556 -0.07589856
 -0.07551295 -0.07513122 -0.07475739 -0.07439235 -0.07402044 -0.07364084 -0.0732368 -0.07280971 -0.07236195 -0.07189682
 -0.07142947 -0.07096243 -0.07050976 -0.07007372 -0.06966656 -0.06928492 -0.06893317 -0.06859614 -0.06826194 -0.06791849
 -0.06755067 -0.06716806 -0.06677111 -0.06636951 -0.06597067 -0.06555655 -0.06512518 -0.06465866 -0.06415088 -0.0636323
 -0.06310394 -0.06261621 -0.06217008 -0.06177374 -0.06142272 -0.06108543 -0.0607583 -0.0604075 -0.06003634 -0.05963435
 -0.05921188 -0.05878377 -0.05835758 -0.05795306 -0.05756261 -0.05719048 -0.0568146 -0.0564216 -0.05599866 -0.05553097
 -0.05503869 -0.05452194 -0.05401249 -0.053518 -0.05304901 -0.05260933 -0.05218573 -0.05177787 -0.05136411 -0.05094361
 -0.05050329 -0.05004386 -0.04956539 -0.04906854 -0.04855591 -0.04802792 -0.04748465 -0.04693212 -0.04637929 -0.04583818
 -0.04533007 -0.04485831 -0.04443815 -0.04405397 -0.04370296 -0.0433626 -0.04302158 -0.04266909 -0.04229756 -0.04191336
 -0.04151556 -0.04111726 -0.04072082 -0.04032673 -0.03993575 -0.03953054 -0.03911031 -0.03865929 -0.0381794 -0.03767883
 -0.03716185 -0.0366529 -0.03615252 -0.035676 -0.03521912 -0.03478069 -0.03435729 -0.03394254 -0.03353827 -0.03314303
 -0.03276178 -0.03239899 -0.03205197 -0.03172449 -0.03139763 -0.03106846 -0.03071317 -0.0303249 -0.02989963 -0.02943407
 -0.02894822 -0.02844298 -0.02794297 -0.0274492 -0.02697571 -0.02652246 -0.02609546 -0.02569425 -0.02532093 -0.02497339
 -0.02464808 -0.02434005 -0.02403863 -0.02373855 -0.02342718 -0.02310479 -0.02276553 -0.02241645 -0.0220607 -0.02170296
 -0.02134754 -0.02099058 -0.02063117 -0.02026865 -0.01990081 -0.01954072 -0.01918984 -0.01885794 -0.0185466 -0.01824256
 -0.01794492 -0.0176305 -0.01730017 -0.01695009 -0.0165849 -0.01622413 -0.01587105 -0.01554718 -0.01524863 -0.01498008
 -0.01473083 -0.01448799 -0.01424363 -0.01398266 -0.01371047 -0.01342352 -0.01313722 -0.01285818 -0.01259507 -0.01235357
 -0.01212934 -0.01192323 -0.01172578 -0.01153622 -0.01134474 -0.01115057 -0.01094535 -0.01072888 -0.01050241 -0.01026669
 -0.01003015 -0.009791414 -0.009549114 -0.009299998 -0.00903117 -0.008746427 -0.008444077 -0.00813697 -0.007843277 -0.007569656
 -0.007332761 -0.00712294 -0.006939612 -0.006770596 -0.006607465 -0.006453803 -0.006308032 -0.006179783 -0.006073259 -0.00597931
 -0.005899224 -0.005805548 -0.005696144 -0.00555347 -0.005377223 -0.005175525 -0.004950092 -0.004719901 -0.004485582 -0.004259416
 -0.004042046 -0.00384099 -0.003658399 -0.003503503 -0.003374289 -0.003275137 -0.003193754 -0.003121722 -0.003043158 -0.002942316
 -0.002818752 -0.002662987 -0.002499987 -0.002333861 -0.002192693 -0.00208642 -0.002011015 -0.001970105 -0.001928445 -0.001883231
 -0.001814433 -0.001721983 -0.001630472 -0.001542329 -0.00149297 -0.001478044 -0.001496729 -0.001539387 -0.001574494 -0.001599846
 -0.001592901 -0.001563005 -0.001513215 -0.00145448 -0.001400465 -0.001352783 -0.001319354 -0.00128958 -0.001262362 -0.00122136
 -0.001159874 -0.001073199 -0.0009554618 -0.0008289841 -0.0006935961 -0.0005899035 -0.0005213555 -0.0005129545 -0.00056523 -0.0006630391
 -0.0008029575 -0.0009450457 -0.001088951 -0.001210737 -0.001315442 -0.001408362 -0.001488923 -0.00156188 -0.001616222 -0.001635532
 -0.001618661 -0.001550516 -0.001458197 -0.001352402 -0.001265983 -0.001222574 -0.001219764 -0.001267749 -0.001329566 -0.001399292
 -0.001447417 -0.001466578 -0.001462706 -0.001434513 -0.001412966 -0.001399654 -0.001425277 -0.001489167 -0.001598644 -0.001747785
 -0.001912213 -0.002084213 -0.002225195 -0.002335412 -0.002393504 -0.002411458 -0.002396046 -0.002362445 -0.002328848 -0.002304032
 -0.002301118 -0.002318338 -0.002360472 -0.002414619 -0.002479423 -0.002536226 -0.002580726 -0.002600976 -0.002594183 -0.002559358
 -0.002496264 -0.002403543 -0.002281083 -0.002123806 -0.001933375 -0.001721584 -0.001495894 -0.001299831 -0.00114099 -0.001070515
 -0.001081376 -0.001190647 -0.001369887 -0.001588807 -0.001812402 -0.001990292 -0.002111823 -0.002144411 -0.002121954 -0.00204481
 -0.001973004 -0.001926643 -0.001944691 -0.002044686 -0.002213334 -0.002454895 -0.00272002 -0.003005227 -0.003268821 -0.003508894
 -0.003713777 -0.003884439 -0.004027106 -0.00414217 -0.004234634 -0.004303958 -0.004350024 -0.004374441 -0.00437796 -0.004369069
 -0.004356889 -0.004359171 -0.004396054 -0.004484652 -0.00464724 -0.004879163 -0.005190719 -0.005547026 -0.005942553 -0.006332897
 -0.006706696 -0.007038843 -0.007322454 -0.007559765 -0.00774935 -0.007913147 -0.008052438 -0.008200561 -0.008358679 -0.0085535
 -0.008780422 -0.009031671 -0.009296932 -0.009536209 -0.009748111 -0.009903686 -0.01002257 -0.01011882 -0.01021843 -0.01035848
 -0.01054103 -0.01078741 -0.01106448 -0.01136633 -0.01164671 -0.01188697 -0.01206556 -0.01216797 -0.01222305 -0.01222814
 -0.01225074 -0.01229617 -0.01241977 -0.01262408 -0.01290623 -0.01326155 -0.0136371 -0.01402857 -0.01438376 -0.01470613
 -0.01497847 -0.01520864 -0.01540507 -0.01557491 -0.01573154 -0.0158826 -0.01603995 -0.01621168 -0.01640865 -0.01663035
 -0.01688297 -0.01714957 -0.01742795 -0.0176945 -0.0179423 -0.01816257 -0.01835085 -0.01852281 -0.01867876 -0.0188432
 -0.01901737 -0.01921382 -0.01943192 -0.01966852 -0.01992191 -0.02018183 -0.02044635 -0.02070395 -0.02095316 -0.02118403
 -0.02139883 -0.02159478 -0.02177987 -0.02196022 -0.02214638 -0.02234834 -0.02257165 -0.02282365 -0.02309878 -0.02339907
 -0.02370792 -0.02402273 -0.02432645 -0.02461559 -0.02488444 -0.02513176 -0.02536173 -0.02557451 -0.02577422 -0.02596116
 -0.02613914 -0.02630973 -0.02648322 -0.02666179 -0.02685955 -0.02707471 -0.02731175 -0.02756404 -0.02782303 -0.02808396
 -0.02833705 -0.0285843 -0.02882466 -0.02905899 -0.02929063 -0.02950766 -0.02970765 -0.02987651 -0.03000629 -0.03011248
 -0.03019177 -0.03029609 -0.03042945 -0.03063801 -0.03092422 -0.03128143 -0.03170496 -0.03213651 -0.03256977 -0.03293712
 -0.0332403 -0.03344407 -0.03356577 -0.03362157 -0.03364193 -0.03368213 -0.03376242 -0.0339348 -0.03417987 -0.03450865
 -0.034869 -0.03523626 -0.03557561 -0.03586301 -0.03611043 -0.03631468 -0.03650082 -0.0366752 -0.03683067 -0.03696855
 -0.03705787 -0.03709704 -0.03707715 -0.03700172 -0.03691059 -0.03681197 -0.03677499 -0.03680149 -0.03694043 -0.03717562
 -0.03749919 -0.03788213 -0.03827282 -0.03865625 -0.0389893 -0.03928806 -0.03954909 -0.03979582 -0.04004486 -0.0402917
 -0.04054183 -0.04077214 -0.0409753 -0.04115052 -0.04129396 -0.04143067 -0.04156323 -0.04170195 -0.0418475 -0.04197867
 -0.04209456 -0.04217613 -0.04222712 -0.04225951 -0.04227852 -0.04231039 -0.04235416 -0.04242183 -0.04250731 -0.04260536
 -0.04271271 -0.04282137 -0.04293701 -0.04305855 -0.04320087 -0.0433706 -0.04358186 -0.04384479 -0.04415159 -0.04450793
 -0.04487308 -0.0452438 -0.0455707 -0.04584729 -0.04606037 -0.0462088 -0.04633202 -0.04643338 -0.04656904 -0.04673764
 -0.04696237 -0.04723346 -0.04752922 -0.04783974 -0.04812918 -0.0483968 -0.04862368 -0.04881743 -0.04897862 -0.04911698
 -0.04923949 -0.04935552 -0.04947172 -0.04959425 -0.04972839 -0.04986963 -0.05001898 -0.05016486 -0.05030438 -0.05043862
 -0.05056618 -0.0507075 -0.05086369 -0.05104686 -0.05125542 -0.05146917 -0.05168555 -0.05187554 -0.05204486 -0.05219724
 -0.05234328 -0.05251402 -0.05270702 -0.05293723 -0.05318493 -0.05343279 -0.05366642 -0.05386418 -0.05403421 -0.05417362
 -0.0542975 -0.05441369 -0.05451962 -0.05461816 -0.05469336 -0.05474217 -0.05475914 -0.05474187 -0.05470875 -0.05466059
 -0.05463343 -0.05462912 -0.05468203 -0.05479028 -0.05496255 -0.05518993 -0.05544625 -0.0557202 -0.05597031 -0.05619285
 -0.05636128 -0.05648121 -0.05654857 -0.05657072 -0.05655221 -0.05649863 -0.05641286 -0.05630336 -0.05617205 -0.05603251
 -0.05588778 -0.05575074 -0.0556245 -0.05551289 -0.05541779 -0.05532556 -0.05523568 -0.05511535 -0.05496282 -0.05474504
 -0.05446474 -0.05411981 -0.05372015 -0.05330083 -0.05287112 -0.05247325 -0.05210636 -0.05178989 -0.05151448 -0.05127733
 -0.05106803 -0.05087844 -0.05069759 -0.05051911 -0.0503295 -0.05012177 -0.04988977 -0.04962729 -0.04935018 -0.04905712
 -0.04878403 -0.04853391 -0.04833985 -0.04820416 -0.04813576 -0.04813356 -0.04818178 -0.04827774 -0.0483969 -0.04853729
 -0.04867956 -0.0488211 -0.04894737 -0.04905291 -0.04912189 -0.04915071 -0.04912557 -0.04905545 -0.04893884 -0.04879835
 -0.04864544 -0.04849893 -0.04837134 -0.04826097 -0.04817173 -0.04808807 -0.04800765 -0.0479209 -0.0478259 -0.04772567
 -0.04762019 -0.04751971 -0.04742534 -0.04735497 -0.04731098 -0.04731899 -0.04737894 -0.04750744 -0.04769606 -0.04793428
 -0.04820906 -0.04849125 -0.0487775 -0.04904785 -0.04931663 -0.04958545 -0.04987899 -0.05021056 -0.05060093 -0.05106287
 -0.05160063 -0.05222191 -0.05290416 -0.05364886 -0.05440719 -0.05517552 -0.05590169 -0.05658206 -0.05719236 -0.05773332
 -0.05821711 -0.05864664 -0.05904784 -0.05942076 -0.05977942 -0.06012196 -0.06044959 -0.06076352 -0.06106582 -0.0613596
 -0.06165077 -0.06193735 -0.06222135 -0.06249485 -0.06275407 -0.06299249 -0.06320684 -0.06339282 -0.06354952 -0.06367021
 -0.06375371 -0.06379443 -0.06379089 -0.06374887 -0.06366844 -0.06356588 -0.06344239 -0.0633181 -0.06319541 -0.06309934
 -0.06303377 -0.0630283 -0.06308337 -0.06321864 -0.06342391 -0.0636941 -0.06400905 -0.06434387 -0.06467842 -0.06498612
 -0.06525944 -0.06548317 -0.06566929 -0.06581615 -0.06594763 -0.06606963 -0.06619991 -0.06634366 -0.06650233 -0.06667686
 -0.06686313 -0.06706068 -0.06727719 -0.06751379 -0.0677923 -0.06811361 -0.06849713 -0.0689379 -0.06942996 -0.06996021
 -0.07049208 -0.07101415 -0.07148481 -0.07191092 -0.07227927 -0.07261466 -0.07293422 -0.07325591 -0.07359979 -0.07395768
 -0.07433384 -0.07470603 -0.07506838 -0.07540832 -0.07572171 -0.07600914 -0.07627001 -0.07650817 -0.07672378 -0.07692184
 -0.07710284 -0.07727613 -0.0774424 -0.07761167 -0.07778324 -0.0779605 -0.07814052 -0.07831788 -0.07848893 -0.07864383
 -0.0787825 -0.07889871 -0.07900002 -0.07908873 -0.07917808 -0.07927705 -0.07939257 -0.07953282 -0.07968658 -0.07985504
 -0.080014 -0.08015897 -0.0802749 -0.08035792 -0.08041853 -0.08045681 -0.08049821 -0.08054344 -0.08060516 -0.08068125
 -0.08076162 -0.08084489 -0.08091791 -0.08098551 -0.08105296 -0.08112743 -0.08122705 -0.08134927 -0.08150188 -0.0816696
 -0.08184306 -0.08200584 -0.08214413 -0.08225295 -0.08232491 -0.08236829 -0.08238178 -0.08238389 -0.08237623 -0.08238322
 -0.08240796 -0.08246604 -0.08255924 -0.08267802 -0.08282102 -0.08295948 -0.08309241 -0.08319805 -0.0832792 -0.08333545
 -0.08337124 -0.08339824 -0.08341945 -0.08344588 -0.08347844 -0.08352367 -0.08357832 -0.08364383 -0.08371011 -0.08377249
 -0.08381978 -0.08384433 -0.08384734 -0.08382452 -0.08379488 -0.08375984 -0.08374415 -0.0837516 -0.08379104 -0.08386395
 -0.08395405 -0.08406009 -0.08415545 -0.08424031 -0.08430266 -0.08434641 -0.08438185 -0.08441267 -0.08445595 -0.08450919
 -0.08457763 -0.08465237 -0.0847241 -0.0847852 -0.0848231 -0.08484191 -0.08483697 -0.08482643 -0.08481552 -0.08482328
 -0.08485784 -0.08492232 -0.0850207 -0.08513828 -0.08527458 -0.08540948 -0.08554149 -0.08565723 -0.08575638 -0.08583527
 -0.08589461 -0.08593787 -0.08596615 -0.08598565 -0.08599748 -0.08600765 -0.08601765 -0.08603308 -0.08605481 -0.08608716
 -0.08612781 -0.08617675 -0.0862298 -0.08628353 -0.08633814 -0.08639175 -0.08645031 -0.08651591 -0.08658925 -0.08667255
 -0.08675353 -0.08683152 -0.08689087 -0.08693009 -0.08694788 -0.08694474 -0.08693492 -0.08691926 -0.08691145 -0.08690993
 -0.08691484 -0.08692436 -0.08693203 -0.08694011 -0.08694915 -0.08696353 -0.08699064 -0.08702964 -0.08708413 -0.08714663
 -0.0872134 -0.08727892 -0.08733843 -0.08739533 -0.08744898 -0.08750632 -0.08756919 -0.08763848 -0.08771519 -0.08779225
 -0.08786935 -0.08793707 -0.0879951 -0.08803896 -0.0880693 -0.08808924 -0.08810009 -0.08810937 -0.08811785 -0.08813176
 -0.08815074 -0.08817733 -0.08821029 -0.08824938 -0.08829249 -0.08833791 -0.08838306 -0.08842572 -0.08846443 -0.08849777
 -0.08852625 -0.08854945 -0.08856957 -0.08858683 -0.08860379 -0.08862084 -0.0886394 -0.08865964 -0.08868146 -0.08870482
 -0.08872888 -0.08875369 -0.08877929 -0.08880591 -0.08883448 -0.088865 -0.08889812 -0.08893333 -0.08897004 -0.08900759
 -0.08904498 -0.08908138 -0.0891158 -0.0891472 -0.08917475 -0.0891973 -0.08921359 -0.08922507 -0.08923084 -0.08923776
 -0.08924657 -0.08926557 -0.0892964 -0.08933981 -0.08939636 -0.08945587 -0.08951777 -0.08957 -0.08961276 -0.08964232
 -0.08966005 -0.08967002 -0.08967346 -0.08967593 -0.08967802 -0.08968341 -0.08969241 -0.08970708 -0.08972702 -0.08975305
 -0.0897832 -0.08981682 -0.08985102 -0.08988452 -0.08991473 -0.08994046 -0.08996106 -0.08997586 -0.08998702 -0.08999452
 -0.09000238 -0.09001095 -0.09002223 -0.09003621 -0.09005048 -0.09006476 -0.09007515 -0.09008221 -0.09008612 -0.09008844
 -0.0900941 -0.09010354 -0.09012076 -0.09014348 -0.09017028 -0.09019875 -0.09022533 -0.09025091 -0.09027456 -0.09029898
 -0.09032557 -0.09035476 -0.0903874 -0.0904213 -0.0904564 -0.09048962 -0.09052071 -0.09054602 -0.09056523 -0.09057565
 -0.09057724 -0.09057262 -0.09056233 -0.09055302 -0.09054463 -0.09054073 -0.09053998 -0.09054017 -0.09054031 -0.09053703
 -0.09053083 -0.09052082 -0.09050836 -0.09049431 -0.09048014 -0.09046692 -0.09045618 -0.09044886 -0.09044588 -0.09044778
 -0.09045453 -0.09046613 -0.0904828 -0.09050468 -0.09053104 -0.09056199 -0.09059326 -0.09062458 -0.09064977 -0.09066882
 -0.09067862 -0.09068009 -0.09067568 -0.09066679 -0.090659 -0.09065297 -0.09065319 -0.09065867 -0.09067038 -0.09068584
 -0.09070276 -0.09071992 -0.090735 -0.09075011 -0.09076563 -0.09078348 -0.09080534 -0.09082753 -0.09085014 -0.09086614
 -0.09087422 -0.09087286 -0.09086145 -0.09084819 -0.09083354 -0.09082759 -0.0908302 -0.09084412 -0.09086806 -0.09089712
 -0.09093017 -0.09096111 -0.09098981 -0.09101349 -0.09103148 -0.0910419 -0.09104352 -0.0910337 -0.09101419 -0.09098377
 -0.09095002 -0.09091567 -0.09088834 -0.09087227 -0.09086625 -0.0908719 -0.09087989 -0.09088909 -0.09089331 -0.09089162
 -0.09088753 -0.09088129 -0.09088109 -0.09088711 -0.09090432 -0.09093173 -0.09096756 -0.09100964 -0.09105057 -0.09108821
 -0.09111379 -0.09112811 -0.09112737 -0.09111657 -0.09109895 -0.09107993 -0.09106503 -0.09105484 -0.09105213 -0.09105197
 -0.09105375 -0.09105146 -0.09104333 -0.09102759 -0.09100306 -0.09097546 -0.09094497 -0.09092028 -0.09090177 -0.09089196
 -0.09089017 -0.0908902 -0.09089146 -0.09088719 -0.09087862 -0.09086592 -0.09085112 -0.09083892 -0.09082987 -0.09082735
 -0.09082954 -0.09083637 -0.09084438 -0.09085131 -0.0908541 -0.09085003 -0.09084012 -0.09082334 -0.09080492 -0.09078573
 -0.09077013 -0.0907592 -0.09075206 -0.09074885 -0.09074594 -0.09074315 -0.09073841 -0.09073173 -0.09072271 -0.0907113
 -0.09069694 -0.09067965 -0.09065872 -0.09063522 -0.09061061 -0.09058714 -0.09056903 -0.0905571 -0.09055478 -0.0905588
 -0.09056874 -0.09057877 -0.09058584 -0.09058648 -0.09057835 -0.09056254 -0.09053854 -0.09050965 -0.09047601 -0.09044214
 -0.09040835 -0.0903795 -0.09035585 -0.09034023 -0.09033258 -0.09033324 -0.09034231 -0.09036051 -0.09038826 -0.09042751
 -0.090478 -0.09053995 -0.09061334 -0.09069695 -0.09079449 -0.09090754 -0.09104484 -0.09121262 -0.09141883 -0.09167068
 -0.09196566 -0.09230651 -0.09267997 -0.09308369 -0.09350721 -0.09394842 -0.0944043 -0.09487525 -0.09534688 -0.09581813
 -0.09624402 -0.09662168 -0.09690303 -0.09708966 -0.09716625 -0.09713488 -0.09699581 -0.09674655 -0.09637285 -0.09589509
 -0.09532603 -0.09471837 -0.09413354 -0.09360631 -0.09318565 -0.09287183 -0.09267911 -0.09259363 -0.09261767 -0.09272122
 -0.09290543 -0.09310363 -0.09330939 -0.09344643 -0.09350441 -0.09348377 -0.09338461 -0.0932707 -0.09314378 -0.09304472
 -0.09296923 -0.09291615 -0.09287865 -0.09283268 -0.09277584 -0.09268748 -0.09257701 -0.09244959 -0.09231513 -0.09219131
 -0.0920682 -0.09194695 -0.09180792 -0.0916369 -0.09143863 -0.09120651 -0.09097153 -0.09073968 -0.09053385 -0.0903603
 -0.09021517 -0.09009952 -0.08999447 -0.08989903 -0.08979658 -0.08968727 -0.08956749 -0.08943907 -0.08931016 -0.08918212
 -0.08906458 -0.08895625 -0.0888595 -0.08877134 -0.08868811 -0.08860759 -0.08852572 -0.08844233 -0.08835547 -0.08826736
 -0.08817784 -0.08809196 -0.08801112 -0.0879405 -0.08788221 -0.08783577 -0.08780231 -0.08777326 -0.08774818 -0.08771644
 -0.08767749 -0.08762787 -0.08756824 -0.08750565 -0.08744123 -0.08738548 -0.08733772 -0.0873019 -0.08727509 -0.08725256
 -0.08723214 -0.0872077 -0.08717996 -0.0871472 -0.08711112 -0.08707258 -0.08703246 -0.08699111 -0.08695025 -0.08691014
 -0.08687394 -0.08684278 -0.08681685 -0.08679697 -0.08677783 -0.08675914 -0.08673473 -0.08670427 -0.0866679 -0.08662598
 -0.08658349 -0.08654038 -0.086499 -0.08645854 -0.08641705 -0.0863748 -0.08633109 -0.08628749 -0.08624671 -0.08620868
 -0.08617504 -0.08614333 -0.08611195 -0.08607979 -0.08604516 -0.08601041 -0.08597624 -0.08594353 -0.08591338 -0.0858819
 -0.08584874 -0.08580977 -0.08576424 -0.08571402 -0.08565917 -0.08560702 -0.08555786 -0.0855175 -0.08548515 -0.08545944
 -0.08543883 -0.08541691 -0.08539335 -0.0853637 -0.08532956 -0.08529163 -0.0852512 -0.08521023 -0.08516887 -0.0851275
 -0.08508719 -0.08504828 -0.08501262 -0.08498156 -0.08495338 -0.08492846 -0.08490206 -0.08487324 -0.08484073 -0.08480403
 -0.08476721 -0.08473047 -0.0846957 -0.08466262 -0.0846275 -0.08459017 -0.08454725 -0.08449995 -0.08445071 -0.08440103
 -0.08435605 -0.08431548 -0.08428153 -0.08425222 -0.08422607 -0.08420182 -0.08417757 -0.08415408 -0.08413114 -0.08411002
 -0.08409151 -0.08407494 -0.0840608 -0.08404549 -0.08402883 -0.08400561 -0.08397523 -0.08393526 -0.08388548 -0.08383019
 -0.0837699 -0.08371343 -0.08366094 -0.08361837 -0.08358459 -0.08355871 -0.08353953 -0.08352353 -0.08351069 -0.08349952
 -0.08349019 -0.08348261 -0.08347607 -0.08347028 -0.0834638 -0.08345613 -0.08344513 -0.08343014 -0.0834088 -0.08338007
 -0.08334444 -0.08330123 -0.08325593 -0.08320884 -0.08316664 -0.08312978 -0.08310062 -0.08307892 -0.08306169 -0.0830483
 -0.0830335 -0.08301701 -0.08299476 -0.08296731 -0.08293361 -0.08289541 -0.08285494 -0.0828141 -0.08277647 -0.08274163
 -0.08271141 -0.08268166 -0.08265088 -0.0826147 -0.08257034 -0.08251889 -0.082459 -0.08239842 -0.08233793 -0.08228549
 -0.08224221 -0.08221018 -0.0821896 -0.08217665 -0.08217095 -0.08216661 -0.08216339 -0.08215647 -0.08214639 -0.08213229
 -0.08211526 -0.08209787 -0.08207999 -0.08206346 -0.08204557 -0.08202393 -0.08199616 -0.08195838 -0.08191325 -0.08186012
 -0.08180568 -0.0817525 -0.08170456 -0.0816643 -0.08162843 -0.08159727 -0.08156384 -0.08152729 -0.08148496 -0.08143658
 -0.08138731 -0.0813376 -0.08129572 -0.08126146 -0.08123798 -0.08122382 -0.08121531 -0.08121095 -0.08120493 -0.08119698
 -0.08118389 -0.08116633 -0.08114374 -0.08111715 -0.08108699 -0.08105481 -0.08102137 -0.08098858 -0.08095744 -0.08092866
 -0.08090287 -0.08087892 -0.08085673 -0.08083505 -0.08081363 -0.08079334 -0.08077421 -0.08075756 -0.08074325 -0.08072935
 -0.08071535 -0.08069688 -0.08067381 -0.08064314 -0.08060548 -0.08056054 -0.08050951 -0.08045369 -0.08039576 -0.08033893
 -0.08028687 -0.08024428 -0.08021127 -0.08019049 -0.08017625 -0.08016735 -0.08015741 -0.08014394 -0.08012611 -0.08010291
 -0.08007834 -0.08005276 -0.08002882 -0.08000676 -0.07998497 -0.07996326 -0.07993789 -0.07990891 -0.07987463 -0.07983602
 -0.07979584 -0.07975518 -0.07971847 -0.07968527 -0.07965716 -0.07963239 -0.07960927 -0.07958694 -0.07956363 -0.07954065
 -0.07951819 -0.07949773 -0.07948044 -0.07946492 -0.07945175 -0.07943585 -0.07941666 -0.07938852 -0.07935057 -0.07930148
 -0.07924104 -0.07917318 -0.0790982 -0.07902214 -0.07894543 -0.07887394 -0.07880795 -0.07875203 -0.0787053 -0.07866848
 -0.07863898 -0.07861252 -0.07858709 -0.07855764 -0.07852568 -0.07849019 -0.07845489 -0.07842214 -0.07839287 -0.0783691
 -0.07834612 -0.07832369 -0.07829445 -0.07825678 -0.07820756 -0.07814564 -0.07807712 -0.07800224 -0.07793163 -0.07786556
 -0.07780947 -0.07776254 -0.07772174 -0.07768591 -0.07764857 -0.07760969 -0.07756545 -0.07751743 -0.07746653 -0.07741463
 -0.0773647 -0.07731741 -0.07727475 -0.07723556 -0.07720004 -0.07716584 -0.07713263 -0.07709641 -0.07705633 -0.07700798
 -0.07694989 -0.07688304 -0.07680676 -0.07672971 -0.07665236 -0.07658315 -0.07652211 -0.07646841 -0.07642122 -0.07637377
 -0.07632613 -0.07627473 -0.07622085 -0.07616605 -0.07611158 -0.07606058 -0.07601338 -0.07597221 -0.07593548 -0.07590345
 -0.07587177 -0.07583806 -0.07579888 -0.07575148 -0.07569757 -0.07563668 -0.0755729 -0.07550703 -0.07544111 -0.07537546
 -0.07531101 -0.07524781 -0.07518751 -0.07513011 -0.07507547 -0.07502335 -0.0749718 -0.07492089 -0.07486985 -0.07481914
 -0.0747698 -0.07472183 -0.074676 -0.07463136 -0.07458755 -0.07454217 -0.0744932 -0.07443827 -0.07437459 -0.07430386
 -0.07422506 -0.0741447 -0.07406431 -0.07398919 -0.07392121 -0.07385886 -0.07380252 -0.07374651 -0.0736905 -0.07363019
 -0.07356554 -0.07349657 -0.07342373 -0.07335049 -0.07327724 -0.07320772 -0.07314124 -0.07307817 -0.07301677 -0.07295366
 -0.07288852 -0.07281881 -0.07274697 -0.07267427 -0.07260284 -0.07253525 -0.07246937 -0.07240547 -0.07233918 -0.07226869
 -0.07219405 -0.07211432 -0.07203458 -0.07195532 -0.07188019 -0.07180956 -0.07174221 -0.07167813 -0.07161616 -0.07155672
 -0.07150312 -0.0714552 -0.07141529 -0.07138056 -0.0713451 -0.07130475 -0.07124791 -0.07117499 -0.07107982 -0.07096998
 -0.07084936 -0.07072673 -0.07060903 -0.07050015 -0.07040435 -0.07031892 -0.07024495 -0.07017425 -0.07010565 -0.07003198
 -0.06995174 -0.06986598 -0.06977449 -0.06968559 -0.06959966 -0.0695239 -0.06945743 -0.06939729 -0.0693408 -0.06927441
 -0.06919703 -0.06909642 -0.06897818 -0.06884632 -0.06870847 -0.06857762 -0.06845491 -0.06834679 -0.06824957 -0.06816252
 -0.06808321 -0.06801046 -0.06794272 -0.06788 -0.06781811 -0.06775683 -0.06768937 -0.06761487 -0.06752848 -0.06742965
 -0.06731921 -0.06719743 -0.06707154 -0.06694216 -0.06681781 -0.06669821 -0.06658682 -0.06648242 -0.06638325 -0.0662884
 -0.06619565 -0.06610377 -0.06601075 -0.06591429 -0.06581077 -0.0657014 -0.06558431 -0.06546677 -0.06535171 -0.0652435
 -0.06514577 -0.0650517 -0.06496126 -0.0648637 -0.06475709 -0.06464035 -0.06451298 -0.06438317 -0.06425118 -0.06412138
 -0.06399272 -0.06385817 -0.0637167 -0.06355871 -0.06338681 -0.06320278 -0.06301141 -0.06282389 -0.06264064 -0.06246793
 -0.06230165 -0.06213987 -0.06197998 -0.06181868 -0.06165854 -0.06149961 -0.06134551 -0.06119821 -0.06105592 -0.06091979
 -0.06078017 -0.06063662 -0.06047513 -0.06029432 -0.06009215 -0.05986916 -0.05964444 -0.05941877 -0.05920812 -0.05900979
 -0.05881987 -0.05863539 -0.05844479 -0.05824908 -0.05804414 -0.05783356 -0.05762076 -0.05740799 -0.05719907 -0.05699367
 -0.05679405 -0.05659452 -0.05639512 -0.05618294 -0.05595374 -0.05570013 -0.05541775 -0.05511755 -0.0548002 -0.05447669
 -0.05414826 -0.0538111 -0.05346518 -0.05311091 -0.05274985 -0.05239752 -0.05205295 -0.05172314 -0.05139907 -0.05105813
 -0.05069203 -0.05026736 -0.04979685 -0.04927931 -0.04874215 -0.0482147 -0.04770498 -0.04723062 -0.04677944 -0.04635049
 -0.04593159 -0.04551864 -0.04510512 -0.04469109 -0.0442605 -0.04381416 -0.04331108 -0.04274781 -0.04210009 -0.04136882
 -0.04061273 -0.03983617 -0.03910762 -0.03841802 -0.0377602 -0.03712283 -0.03646631 -0.03579032 -0.03507442 -0.03432506
 -0.03354624 -0.03273347 -0.03189096 -0.03099137 -0.03001883 -0.02894982 -0.02775683 -0.0264804 -0.02511611 -0.02375515
 -0.02241775 -0.02115211 -0.01997069 -0.01886397 -0.01783324 -0.0168455 -0.01589838 -0.01493731 -0.01395738 -0.01288368
 -0.01172508 -0.01047225 -0.009162433 -0.007913592 -0.006730187 -0.005690516 -0.004751119 -0.003880091 -0.003048931 -0.002212275
 -0.001373517 -0.000521414 0.0003354879 0.001193526 0.002055854 0.002925995 0.003790519 0.004649333 0.005477474 0.006269041
 0.00703286 0.007768756 0.008496813 0.009217053 0.009905447 0.01055889 0.0111349 0.01163785 0.01206523 0.01242739
 0.01275617 0.01305506 0.01334923 0.01363076 0.01389623 0.01414581 0.01437559 0.01459565 0.01481508 0.01502919
 0.01524181 0.01543246 0.01559527 0.01571638 0.01579089 0.01581709 0.01579344 0.01572562 0.0156131 0.01547813
 0.01532202 0.01517532 0.01503714 0.01491104 0.01479331 0.01466591 0.0145294 0.01437362 0.01420667 0.01403906
 0.01388178 0.01375671 0.01366655 0.01362171 0.01362259 0.013669 0.0137729 0.01394097 0.01417734 0.01449117
 0.01485172 0.01525497 0.0156703 0.01608977 0.01652453 0.01697394 0.01746775 0.01800718 0.01860358 0.01925546
 0.01995202 0.02069125 0.02145737 0.02225007 0.02305961 0.0238878 0.0247333 0.02559922 0.02649037 0.02740662
 0.02834995 0.02931838 0.03030956 0.03132742 0.03237267 0.03345086 0.03456598 0.03571174 0.03689001 0.03807956
 0.03927904 0.0404606 0.04162146 0.04274786 0.04383963 0.04492181 0.04599729 0.04711191 0.04825648 0.04941382
 0.05055989 0.05160086 0.05253886 0.05332684 0.05399171 0.05456029 0.05503463 0.05543171 0.05573306 0.05592867
 0.05601163 0.05598254 0.05581312 0.05550849 0.05497774 0.05419468 0.05313372 0.05176386 0.0503019 0.04876481
 0.04729548 0.04589892 0.0444814 0.04303822 0.04148503 0.03983162 0.03808786 0.03626226 0.03439741 0.03247233
 0.03047359 0.02835072 0.02599798 0.0234508 0.02064735 0.01781786 0.01512534 0.01267518 0.01061044 0.00876898
 0.00712518 0.005548919 0.003992969 0.002463611 0.000952282 -0.0004921461 -0.001863988 -0.003168235 -0.004405378 -0.005618198
 -0.006807002 -0.007990638 -0.00916417 -0.01031025 -0.01142606 -0.01249189 -0.01351126 -0.01448211 -0.01540917 -0.01629841
 -0.01715399 -0.01798012 -0.01878682 -0.01957761 -0.02037659 -0.021197 -0.02205398 -0.0229715 -0.02388007 -0.0247763
 -0.02555341 -0.02618431 -0.02669703 -0.02708817 -0.02745018 -0.02778743 -0.02814272 -0.02851337 -0.02888237 -0.02924596
 -0.02957308 -0.02986764 -0.03012773 -0.03035569 -0.03055976 -0.03073043 -0.03085722 -0.03093025 -0.0309313 -0.03086657
 -0.03073275 -0.03054418 -0.03030729 -0.03003178 -0.02972287 -0.02938358 -0.0290182 -0.02861227 -0.02816803 -0.02764077
 -0.02702668 -0.02628928 -0.02542723 -0.02450159 -0.0235203 -0.02260027 -0.02173806 -0.02097527 -0.0203004 -0.01969402
 -0.01915458 -0.01867029 -0.01824073 -0.01786742 -0.01752963 -0.01721276 -0.0168783 -0.01648688 -0.01603542 -0.01549692
 -0.01493746 -0.01437631 -0.01385337 -0.01338947 -0.01295671 -0.01255531 -0.01214688 -0.01172715 -0.01128298 -0.0108136
 -0.01033075 -0.009835084 -0.0093394 -0.008841229 -0.008334952 -0.007814251 -0.007254854 -0.006651901 -0.00597946 -0.005243531
 -0.004441325 -0.003581966 -0.002677888 -0.00172442 -0.0007217188 0.0003343035 0.001451742 0.002609377 0.003804765 0.005006197
 0.006202515 0.007392135 0.008569887 0.009768146 0.01099035 0.01224915 0.01354512 0.01481558 0.01605441 0.01716637
 0.0181515 0.01896323 0.01960361 0.02005946 0.0203224 0.02036734 0.02018516 0.01974451 0.01905753 0.01811797
 0.01696239 0.01561306 0.01410801 0.0124742 0.01072792 0.008880115 0.006938171 0.004897495 0.002807705 0.0006675357
 -0.00141791 -0.003438802 -0.005321491 -0.007061609 -0.008676104 -0.01016831 -0.01158804 -0.01293309 -0.01421663 -0.01543082
 -0.01655224 -0.0175815 -0.01850452 -0.01933504 -0.02008746 -0.02077738 -0.02142802 -0.02204796 -0.02265177 -0.02324047
 -0.02381921 -0.02438326 -0.02493303 -0.02545979 -0.02596146 -0.02643213 -0.02686977 -0.02727779 -0.02765617 -0.02801102
 -0.02834271 -0.02864456 -0.0289154 -0.02913725 -0.02931044 -0.02942674 -0.02948961 -0.02950702 -0.02948156 -0.02942306
 -0.02933292 -0.02921665 -0.02907774 -0.02892143 -0.02875235 -0.02857441 -0.02839492 -0.02821597 -0.02805294 -0.02790969
 -0.02780641 -0.02774911 -0.02774839 -0.0278083 -0.0279223 -0.02809098 -0.02829622 -0.02853704 -0.0287939 -0.02906597
 -0.02933825 -0.0296099 -0.02986874 -0.03011328 -0.03033146 -0.0305227 -0.0306788 -0.03080199 -0.03089173 -0.03095175
 -0.03098601 -0.03099757 -0.03098965 -0.0309654 -0.03092665 -0.03087783 -0.03082096 -0.03075865 -0.03069216 -0.03062117
 -0.03054547 -0.03046701 -0.03038544 -0.03030952 -0.03023971 -0.03018871 -0.03015683 -0.03015162 -0.0301715 -0.03021131
 -0.03026799 -0.03032699 -0.03038782 -0.03044031 -0.0304897 -0.03053955 -0.0305962 -0.03066968 -0.03075979 -0.03087153
 -0.03099687 -0.03113409 -0.03127181 -0.03140599 -0.03152665 -0.03162991 -0.03171333 -0.03177471 -0.03182326 -0.03185923
 -0.03189632 -0.03193537 -0.03198265 -0.03203784 -0.03209724 -0.03215987 -0.03221824 -0.03227115 -0.03231055 -0.0323351
 -0.03233739 -0.03231722 -0.03227062 -0.03219908 -0.0321024 -0.03198329 -0.03184303 -0.03168625 -0.03151449 -0.03133592
 -0.031153 -0.03097525 -0.03080546 -0.03064998 -0.0305108 -0.03038728 -0.03027996 -0.03018213 -0.03009342 -0.03000732
 -0.02992389 -0.02984304 -0.02976546 -0.02969594 -0.02963436 -0.02958323 -0.02954105 -0.02950526 -0.02947472 -0.02944617
 -0.02941953 -0.02939358 -0.02936829 -0.02934306 -0.02931855 -0.02929395 -0.02927373 -0.02925825 -0.02925605 -0.02926959
 -0.0293037 -0.02936089 -0.02943381 -0.02952272 -0.02961166 -0.02969971 -0.0297741 -0.02983472 -0.02987852 -0.02990637
 -0.02992197 -0.02992693 -0.02992909 -0.02992993 -0.02993807 -0.0299517 -0.0299728 -0.02999589 -0.03001443 -0.03002685
 -0.03002765 -0.0300236 -0.03001713 -0.03001348 -0.03001752 -0.03002202 -0.03002701 -0.03002047 -0.02999925 -0.02996347
 -0.02991189 -0.02985784 -0.02980205 -0.02975549 -0.0297179 -0.02968582 -0.02965764 -0.02962034 -0.02957382 -0.02950986
 -0.0294312 -0.02934054 -0.02924077 -0.02913853 -0.02903434 -0.02893196 -0.02882948 -0.02872735 -0.02862101 -0.02850915
 -0.02838413 -0.02824341 -0.02807874 -0.02788752 -0.02766463 -0.02740857 -0.02711809 -0.02679237 -0.0264372 -0.02605269
 -0.02565525 -0.02524588 -0.02484322 -0.02444663 -0.02406147 -0.02368473 -0.02330715 -0.02292717 -0.02253516 -0.02213341
 -0.0217211 -0.02130204 -0.02088097 -0.02045951 -0.02004103 -0.0196248 -0.01921045 -0.01880025 -0.01839307 -0.01799924
 -0.01762095 -0.01726783 -0.01694371 -0.01664115 -0.01636098 -0.01608106 -0.01580003 -0.01550326 -0.01519083 -0.01486487
 -0.01452601 -0.01418005 -0.01382607 -0.01346329 -0.01309055 -0.01270399 -0.01230411 -0.01188981 -0.0114626 -0.01102398
 -0.01057493 -0.01011682 -0.009650032 -0.009173788 -0.008693295 -0.008207449 -0.007733144 -0.007273353 -0.00684763 -0.006461564
 -0.006115831 -0.005812912 -0.00552972 -0.005265103 -0.004992425 -0.004711042 -0.004409586 -0.004089888 -0.003758676 -0.003419217
 -0.00308852 -0.00276783 -0.002470481 -0.002192568 -0.001933323 -0.001688491 -0.001451349 -0.001222413 -0.001000532 -0.0007846174
 -0.0005752082 -0.0003659866 -0.0001537746 6.249053E-05 0.0002843571 0.0005079109 0.0007313503 0.0009611933 0.001197197 0.001454141
 0.001733116 0.002038569 0.002370317 0.002723417 0.00309778 0.003491323 0.003903229 0.004330634 0.004769368 0.005207837
 0.005640382 0.006052212 0.006437658 0.006784351 0.007087071 0.007336298 0.00753222 0.007670595 0.00775927 0.007799892
 0.007800953 0.007764515 0.007698826 0.007604262 0.007496103 0.007375606 0.007259582 0.007149393 0.00705003 0.006961331
 0.006878429 0.00680085 0.006723275 0.006645141 0.006561082 0.006471214 0.00637202 0.006266527 0.006158833 0.006051064
 0.005949722 0.00584937 0.00574886 0.005638781 0.005512805 0.005365881 0.00519432 0.004996378 0.004770711 0.004517503
 0.004235743 0.003931641 0.003605156 0.003268018 0.002920907 0.002575977 0.002233886 0.001906592 0.001594214 0.00130437
 0.001034775 0.0007805587 0.000537965 0.0002936877 4.683101E-05 -0.0002109182 -0.0004777628 -0.0007544314 -0.00103993 -0.00133315
 -0.001634922 -0.00194411 -0.002266321 -0.002601675 -0.002962716 -0.00335307 -0.003781234 -0.004251039 -0.004755532 -0.00529508
 -0.005855345 -0.00643533 -0.007026355 -0.007628028 -0.008234515 -0.008845133 -0.00945188 -0.01005402 -0.01064449 -0.01122229
 -0.01178137 -0.01232059 -0.01283389 -0.0133237 -0.01378987 -0.01423731 -0.01467213 -0.01509214 -0.01549917 -0.01588545
 -0.01624614 -0.01658407 -0.01689679 -0.01719964 -0.01749536 -0.01779372 -0.01809735 -0.01839953 -0.01870029 -0.01898333
 -0.01924785 -0.0194791 -0.01967764 -0.01984017 -0.01996966 -0.02007738 -0.02016571 -0.02024813 -0.02032276 -0.02039262
 -0.02045449 -0.02050478 -0.02054262 -0.02056579 -0.0205747 -0.0205683 -0.02054957 -0.02051849 -0.02048178 -0.02044219
 -0.02040023 -0.02035782 -0.02030483 -0.02023983 -0.02015918 -0.02006199 -0.019963 -0.01986293 -0.01977628 -0.01970178
 -0.01963548 -0.01957501 -0.01950697 -0.01943177 -0.01934308 -0.01924375 -0.01913605 -0.01902327 -0.01891063 -0.01880061
 -0.01869762 -0.01860183 -0.01851497 -0.01843525 -0.01836263 -0.01829434 -0.01823016 -0.0181651 -0.01809837 -0.01802499
 -0.01794389 -0.0178559 -0.01776095 -0.01766199 -0.01755905 -0.01745058 -0.01733694 -0.01721918 -0.01709996 -0.01699212
 -0.0168973 -0.01682882 -0.01678217 -0.01675556 -0.01674267 -0.0167329 -0.01672583 -0.01671691 -0.01670839 -0.01670212
 -0.01669399 -0.01668449 -0.01666274 -0.01662567 -0.01656522 -0.01647825 -0.01636706 -0.0162308 -0.01607983 -0.01591484
 -0.01574347 -0.01556595 -0.01538381 -0.01519745 -0.01501068 -0.01482487 -0.01464926 -0.01448312 -0.01433015 -0.01418646
 -0.01404534 -0.01390559 -0.01376095 -0.01361668 -0.01347554 -0.01334204 -0.01322192 -0.01311058 -0.01300895 -0.01290619
 -0.01279879 -0.01268129 -0.01255075 -0.012413 -0.01226791 -0.01212583 -0.0119876 -0.0118589 -0.01173993 -0.01163223
 -0.01153553 -0.01144922 -0.01137141 -0.01129375 -0.01121286 -0.01111307 -0.01099561 -0.01085336 -0.01069433 -0.01052768
 -0.01035693 -0.01019157 -0.0100236 -0.009850297 -0.009665678 -0.009462981 -0.009252884 -0.009035561 -0.008828616 -0.008636544
 -0.008465384 -0.008317399 -0.008185981 -0.008070942 -0.007963774 -0.007864008 -0.00776346 -0.007661255 -0.007545986 -0.007417059
 -0.007264118 -0.007090122 -0.00689691 -0.006691263 -0.006488063 -0.006291282 -0.006114924 -0.005953902 -0.005810031 -0.005672457
 -0.005534234 -0.005388571 -0.005228983 -0.005059076 -0.004877103 -0.004694673 -0.004513766 -0.004343745 -0.004187016 -0.004040284
 -0.003903854 -0.003765522 -0.003624809 -0.003475434 -0.003318188 -0.003158029 -0.002995773 -0.002838155 -0.00268473 -0.002537507
 -0.002396 -0.002259925 -0.002129611 -0.00200487 -0.001887626 -0.001779886 -0.001682473 -0.001599344 -0.001520734 -0.001446181
 -0.001355516 -0.001241184 -0.001094959 -0.0009105979 -0.0007056242 -0.0004804183 -0.0002601095 -4.688837E-05 0.0001459632 0.0003178718
 0.0004640151 0.0005851002 0.000683977 0.0007643636 0.0008452798 0.0009312098 0.001047528 0.001192364 0.001376027 0.0015898
 0.001826453 0.002076159 0.002327075 0.002571249 0.002799565 0.00300859 0.003193665 0.003357357 0.003499607 0.003622676
 0.003727156 0.003813324 0.003880321 0.003936997 0.003983445 0.00403852 0.004103036 0.004187443 0.0042903 0.004401889
 0.004519555 0.004624088 0.004716112 0.004785471 0.004838923 0.004884936 0.004931277 0.004995656 0.005074413 0.005173641
 0.005277908 0.005376766 0.005464587 0.005531912 0.005594083 0.005653628 0.005725326 0.005814957 0.005917967 0.006035561
 0.006152868 0.006268902 0.006370131 0.006455953 0.006520132 0.006563969 0.006597462 0.006623477 0.0066627 0.006714923
 0.006790663 0.006887376 0.007003836 0.007140155 0.007297222 0.007471828 0.007663097 0.007861868 0.008060144 0.008256442
 0.008446438 0.008637235 0.008831716 0.009028187 0.009226929 0.009424467 0.009618757 0.009822888 0.010038 0.01027103
 0.01052191 0.01076786 0.01100748 0.01121661 0.01139806 0.01155402 0.0116877 0.01181098 0.01192406 0.0120323
 0.01213706 0.01224377 0.0123499 0.01245747 0.01255542 0.01263495 0.01269367 0.01272473 0.01274231 0.01275037
 0.01275633 0.01276378 0.01276817 0.01276818 0.01277031 0.01277474 0.01279229 0.01282332 0.01286146 0.01290695
 0.0129582 0.0130195 0.01311501 0.01324452 0.01342382 0.01364162 0.013881 0.01413246 0.01437194 0.01460169
 0.01481269 0.01501711 0.01521735 0.01543556 0.01568468 0.01597409 0.01632192 0.01667211 0.01701778 0.01729869
 0.01749744 0.0176475 0.01774925 0.01785091 0.01795466 0.01807075 0.01819895 0.01834055 0.01849552 0.01866847
 0.01885236 0.01902881 0.01918615 0.01928689 0.01933149 0.01930144 0.01920937 0.01906014 0.0188696 0.01864731
 0.01841575 0.01818765 0.01798045 0.0178069 0.01765626 0.01752981 0.01740735 0.01728427 0.01716341 0.01704436
 0.01693611 0.01683897 0.01674398 0.01665087 0.016553 0.01645219 0.01635632 0.016265 0.01618018 0.01610236
 0.01602935 0.01597271 0.01595091 0.01596831 0.01604587 0.01615444 0.01628316 0.01639525 0.01646804 0.0164845
 0.01643317 0.01631019 0.01610717 0.01585617 0.01555489 0.01528039 0.01504015 0.014876 0.01478999 0.01475004
 0.01475499 0.01478006 0.01482993 0.01492232 0.01505423 0.01522723 0.0154302 0.01563699 0.01584421 0.01603549
 0.0162101 0.01636183 0.01648919 0.01658429 0.01666388 0.01673095 0.01681245 0.01692198 0.01706018 0.0172336
 0.01741524 0.01760297 0.01776801 0.01790748 0.01800237 0.01805166 0.01806486 0.01804571 0.01804455 0.01806231
 0.01813603 0.01825161 0.01837941 0.01850815 0.01858963 0.01863992 0.01866107 0.01867566 0.01871523 0.01877595
 0.01886956 0.01897314 0.01907958 0.0191652 0.01922036 0.01922896 0.01918164 0.0190922 0.0189581 0.0188205
 0.01868358 0.01856749 0.01847343 0.01838897 0.01831377 0.01824126 0.01817106 0.01810091 0.01802467 0.01791755
 0.01777923 0.01759059 0.01736953 0.01713571 0.01690536 0.01670772 0.01654003 0.01641028 0.01631014 0.01623753
 0.01618513 0.01615211 0.01612347 0.01609567 0.01605722 0.01600435 0.01594311 0.01587334 0.01580635 0.01574276
 0.01569113 0.0156516 0.01563025 0.01562379 0.01561799 0.01560551 0.01554942 0.01545275 0.01529855 0.01510713
 0.01490499 0.01470466 0.0145363 0.01438678 0.01425797 0.01412877 0.01398699 0.01382408 0.01363091 0.01341948
 0.01318645 0.01296885 0.01276994 0.01263369 0.01256585 0.01257563 0.01266382</values></Ydata></AB><ScSm><Ydata ylabel="Single channel"><values byteorder="INTEL" format="FLOAT32" numvalues="1814"> 0.0755246 0.07555195 0.07564759 0.07583208 0.07606999 0.07629085 0.07644084 0.07651706 0.07654478 0.07653289
 0.07648444 0.07644831 0.07650946 0.07670307 0.07696061 0.07715666 0.07720974 0.0771551 0.0771249 0.07721843
 0.07736672 0.07735753 0.07703754 0.07648841 0.07596886 0.07567602 0.07562751 0.07581713 0.07633625 0.07712521
 0.07770421 0.0775214 0.07664946 0.07580926 0.0755699 0.07580324 0.07602455 0.07594649 0.07556705 0.07506523
 0.07485092 0.07544962 0.07698725 0.07877182 0.07954273 0.07826097 0.07484847 0.07043443 0.06694648 0.0660747
 0.06807404 0.07141927 0.07395141 0.07460065 0.0738989 0.07289271 0.07202727 0.07127251 0.07082807 0.07115681
 0.07233411 0.07361771 0.0738229 0.07232276 0.06979868 0.06777383 0.06723136 0.06798775 0.06949461 0.07143717
 0.07291155 0.0719537 0.06747353 0.06170254 0.05919356 0.0624858 0.06939349 0.07515814 0.07668684 0.07425398
 0.07008709 0.06652719 0.06517972 0.06648013 0.06958595 0.07308252 0.07585308 0.07713709 0.07634266 0.07355899
 0.07005267 0.06764479 0.06758764 0.07008202 0.07424372 0.07817978 0.07984717 0.07856709 0.07547629 0.07232261
 0.07031789 0.07015224 0.07215512 0.07593607 0.08037618 0.08429547 0.08693856 0.08801945 0.08776128 0.08676256
 0.08554842 0.08449313 0.08414527 0.08488289 0.08603477 0.08614342 0.08455921 0.0823101 0.08103954 0.0813049
 0.08213472 0.08220831 0.08118971 0.07949401 0.07697177 0.0729108 0.06765958 0.06303482 0.06050169 0.06007076
 0.06139246 0.06431887 0.06761578 0.06888598 0.06718883 0.06470953 0.06457669 0.06753042 0.07155176 0.07434888
 0.07547865 0.07619117 0.07781082 0.08037435 0.08244607 0.08218791 0.07917944 0.0754576 0.07408026 0.0761243
 0.07965469 0.08211745 0.08303827 0.08373983 0.08502656 0.08593918 0.08475126 0.08101456 0.07667489 0.07488256
 0.07724844 0.082224 0.08621795 0.08625665 0.08199042 0.07577679 0.07084014 0.06903784 0.07035597 0.0741335
 0.07978761 0.08618294 0.091338 0.09353309 0.0925681 0.08966058 0.08606184 0.08190046 0.07684593 0.07203256
 0.07028815 0.07344561 0.07998691 0.08631423 0.08996513 0.09083283 0.08974485 0.08692706 0.08225236 0.0767398
 0.07304043 0.07337366 0.07685965 0.08002614 0.08045086 0.07896529 0.07785498 0.07799193 0.07851902 0.07863368
 0.07872745 0.0797285 0.08178993 0.08395247 0.08509 0.08493846 0.08412442 0.08342675 0.08307332 0.08258633
 0.08145621 0.08016967 0.08014564 0.08218373 0.0853603 0.08797279 0.0892387 0.08957651 0.08948174 0.08866867
 0.08650288 0.08321914 0.08041908 0.07988533 0.08185382 0.08486558 0.08728172 0.08846066 0.08859794 0.08812709
 0.087424 0.08668747 0.08601353 0.08566482 0.08599694 0.08695334 0.08795679 0.08848956 0.08851504 0.0882228
 0.08766447 0.08681985 0.08585073 0.08511204 0.0849001 0.08522755 0.08586143 0.08653466 0.08704349 0.08720831
 0.08693662 0.08635883 0.08574702 0.08526641 0.0849259 0.08475047 0.08482738 0.08514561 0.08552633 0.08577472
 0.0858314 0.0857446 0.08556213 0.08529759 0.08497225 0.08465528 0.08445539 0.08444732 0.08458532 0.08473131
 0.08481184 0.0848907 0.08502531 0.08512203 0.08503363 0.08476035 0.0844605 0.08427918 0.08423465 0.08425724
 0.08426601 0.08418462 0.08393748 0.08351255 0.08304799 0.08278457 0.0828736 0.08326319 0.08378638 0.08428825
 0.08465238 0.08481389 0.08480811 0.08473888 0.08465877 0.08452851 0.08431086 0.08406468 0.08393037 0.08402447
 0.08433472 0.08472194 0.08503558 0.08521049 0.08526261 0.08525733 0.08528894 0.085409 0.08555101 0.08559389
 0.08551686 0.08543199 0.08544989 0.08555721 0.0856424 0.08562291 0.08553779 0.08550828 0.08560763 0.08579281
 0.08597308 0.08611446 0.0862542 0.08642707 0.08659443 0.08665955 0.08657169 0.08640292 0.08628269 0.08626352
 0.08630127 0.08636041 0.08646933 0.08665021 0.08684894 0.08697803 0.08701413 0.08702032 0.08706448 0.08713555
 0.08716089 0.08709707 0.08697762 0.08687395 0.08683472 0.08686386 0.08692953 0.0869829 0.08698507 0.08693056
 0.08684478 0.08675633 0.08667675 0.08661394 0.08659982 0.08667882 0.08684722 0.08701465 0.08705917 0.08693689
 0.08672789 0.08656202 0.08650024 0.08649226 0.08644458 0.08631579 0.08614179 0.08598572 0.08588156 0.08582127
 0.08577636 0.08572756 0.08568894 0.08570802 0.08582306 0.08600305 0.08614527 0.08616052 0.08605952 0.08593588
 0.08587219 0.08588368 0.08593957 0.08600736 0.08608038 0.08617964 0.08631864 0.08646018 0.08653975 0.08654482
 0.08653782 0.08659013 0.08672739 0.08693786 0.08718318 0.08739358 0.0875077 0.08753911 0.08756895 0.08765934
 0.0878024 0.08795927 0.08811511 0.08827949 0.08845796 0.08864798 0.08885637 0.08910403 0.08940659 0.08975113
 0.09009179 0.09037565 0.09058812 0.09077758 0.09102388 0.09137079 0.09178899 0.09220456 0.09256236 0.09286522
 0.09315595 0.09346427 0.09378275 0.09410107 0.09444213 0.09483634 0.0952726 0.09570628 0.09611294 0.09650663
 0.09690789 0.09731845 0.09773058 0.09814769 0.09859031 0.09907719 0.09959146 0.1000735 0.1004682 0.1007815
 0.1010773 0.1014235 0.1018446 0.1023061 0.1027291 0.1030476 0.1032797 0.103523 0.1038527 0.10424
 0.1046055 0.1049341 0.1052915 0.1057274 0.1062025 0.1066337 0.1069848 0.1072935 0.1076167 0.1079654
 0.1082955 0.1085584 0.1087585 0.10895 0.1091767 0.1094396 0.1097353 0.1100925 0.1105316 0.1110079
 0.1114386 0.1117795 0.1120464 0.1122732 0.1124827 0.112688 0.1128897 0.1130809 0.1132673 0.1134632
 0.1136578 0.1138201 0.1139553 0.1141178 0.1143495 0.1146386 0.1149615 0.1153243 0.1157304 0.1161425
 0.1165209 0.1168892 0.11731 0.1177858 0.1182249 0.1185355 0.1187206 0.1188513 0.1189786 0.1191195
 0.119307 0.1195897 0.119974 0.12041 0.1208443 0.1212604 0.1216641 0.1220524 0.1224037 0.1226874
 0.1228833 0.1230018 0.123088 0.1232036 0.1233992 0.1236855 0.1240206 0.1243347 0.1245773 0.124731
 0.1247855 0.1247309 0.1245987 0.1244744 0.1244285 0.1244344 0.1243824 0.1241747 0.1237857 0.1232367
 0.1225475 0.1217336 0.1208413 0.1199617 0.1192023 0.1186443 0.118331 0.1182915 0.118555 0.1191157
 0.119887 0.1207187 0.1214687 0.1220381 0.1223445 0.1223091 0.1219075 0.1212113 0.120354 0.1194631
 0.1186253 0.1178782 0.1172117 0.1166089 0.1161196 0.1158878 0.1160887 0.1168356 0.1181326 0.1198734
 0.121861 0.1238571 0.1256652 0.1272012 0.1284944 0.1296227 0.130651 0.1316225 0.1325725 0.1335145
 0.1344188 0.1352372 0.1359539 0.1365931 0.1371789 0.1377054 0.138147 0.1384817 0.1387148 0.1388879
 0.1390516 0.1392176 0.1393552 0.1394451 0.13951 0.1395755 0.1396187 0.1395753 0.1393899 0.1390583
 0.1386471 0.1383 0.1382207 0.1386102 0.1395698 0.1410383 0.1428231 0.144704 0.1465107 0.148124
 0.1494575 0.1504792 0.1512381 0.151837 0.1523697 0.1528865 0.1534016 0.1539095 0.1543989 0.1548636
 0.1553091 0.1557505 0.1562057 0.1566824 0.1571634 0.1576152 0.1580217 0.1584083 0.1588221 0.1592876
 0.1597833 0.1602639 0.1607082 0.1611374 0.1615764 0.1620087 0.1623933 0.1627213 0.1630305 0.1633673
 0.1637555 0.1641932 0.1646514 0.1650785 0.1654352 0.1657308 0.1660106 0.1663093 0.16663 0.1669627
 0.167304 0.167653 0.1680016 0.1683434 0.1686867 0.1690421 0.1693965 0.1697156 0.16998 0.1702114
 0.170452 0.1707265 0.1710265 0.1713275 0.1716183 0.1719168 0.1722536 0.1726342 0.1730216 0.1733637
 0.1736389 0.1738712 0.1741024 0.1743565 0.1746327 0.17492 0.1752103 0.1754971 0.1757784 0.1760611
 0.1763557 0.1766636 0.1769749 0.1772803 0.1775758 0.1778592 0.1781297 0.1783932 0.1786638 0.1789613
 0.1792997 0.1796695 0.1800319 0.1803446 0.1805967 0.1808118 0.1810204 0.1812417 0.1814849 0.181753
 0.1820395 0.1823302 0.1826141 0.1828891 0.183158 0.183424 0.1836906 0.1839615 0.1842376 0.1845164
 0.1847972 0.185084 0.1853803 0.1856814 0.1859757 0.1862539 0.1865146 0.1867658 0.1870211 0.1872884
 0.1875598 0.1878184 0.1880596 0.1882965 0.1885429 0.1888007 0.1890669 0.1893423 0.1896257 0.1899094
 0.190184 0.1904462 0.1906999 0.1909507 0.1912019 0.1914553 0.1917124 0.1919726 0.1922333 0.1924919
 0.192748 0.1930018 0.1932529 0.1935023 0.1937522 0.1940048 0.1942616 0.1945232 0.1947875 0.195051
 0.1953129 0.1955742 0.1958337 0.1960892 0.1963407 0.1965891 0.196835 0.1970807 0.1973296 0.1975835
 0.1978428 0.1981074 0.1983751 0.1986417 0.1989056 0.1991674 0.1994289 0.1996944 0.1999687 0.2002519
 0.2005389 0.2008251 0.2011062 0.2013747 0.201625 0.2018597 0.2020857 0.202308 0.2025293 0.2027512
 0.2029763 0.203207 0.2034411 0.2036715 0.2038986 0.2041351 0.2043902 0.2046552 0.2049167 0.2051708
 0.2054202 0.2056663 0.20591 0.2061519 0.2063929 0.206638 0.2068927 0.2071545 0.2074159 0.2076756
 0.207936 0.2081971 0.2084602 0.2087266 0.2089905 0.2092457 0.2094948 0.2097423 0.2099886 0.2102382
 0.2104972 0.2107612 0.2110205 0.2112735 0.2115217 0.2117629 0.2120005 0.212244 0.212496 0.2127538
 0.2130183 0.2132857 0.2135441 0.2137909 0.2140357 0.2142843 0.2145372 0.2147982 0.2150652 0.2153265
 0.2155783 0.2158274 0.2160768 0.2163269 0.2165818 0.2168373 0.2170812 0.2173133 0.2175394 0.2177437
 0.2178751 0.2178009 0.2171818 0.2153389 0.2112389 0.2036979 0.1918477 0.1756816 0.1562517 0.1352973
 0.1146026 0.0955285 0.07887799 0.06499989 0.05396421 0.04567486 0.03993811 0.0365801 0.03557676 0.03718925
 0.04210138 0.05100849 0.06310074 0.0747343 0.08085947 0.07900873 0.07165088 0.06393678 0.05942339 0.0583659
 0.05925727 0.06081388 0.06262667 0.06491739 0.06807369 0.07220699 0.07713353 0.08285151 0.08977009 0.09818678
 0.1076651 0.1172149 0.1261372 0.1345665 0.1431395 0.1522173 0.1614977 0.1703079 0.1781392 0.1848998
 0.1908079 0.1961543 0.2011421 0.2058687 0.210383 0.214679 0.218595 0.2217805 0.2238696 0.2247593
 0.2247349 0.2243077 0.2239152 0.2237526 0.2238322 0.2241192 0.2245904 0.2252276 0.22601 0.226907
 0.2278704 0.2288509 0.2298217 0.2307703 0.231679 0.2325281 0.2333074 0.2340141 0.2346523 0.2352363
 0.235782 0.2362928 0.2367636 0.2371913 0.2375793 0.237938 0.2382844 0.2386285 0.2389624 0.2392698
 0.2395429 0.2397863 0.2400102 0.2402252 0.2404389 0.2406537 0.2408687 0.2410831 0.2412966 0.2415101
 0.2417246 0.2419388 0.2421507 0.2423612 0.242572 0.2427791 0.2429771 0.2431704 0.2433693 0.2435754
 0.2437826 0.2439871 0.2441896 0.2443886 0.244581 0.2447683 0.244958 0.2451581 0.2453707 0.2455888
 0.2458067 0.2460302 0.2462671 0.2465107 0.2467466 0.2469729 0.2471979 0.247425 0.2476527 0.2478794
 0.2480967 0.2482873 0.2484461 0.2485952 0.2487702 0.2489899 0.2492372 0.2494736 0.2496763 0.2498596
 0.2500526 0.2502658 0.2504839 0.250683 0.2508558 0.2510303 0.25125 0.2515226 0.2518075 0.2520683
 0.2523108 0.252556 0.2528113 0.2530745 0.2533317 0.2535464 0.253691 0.2537984 0.253958 0.2542418
 0.2546349 0.2550414 0.2553716 0.2556187 0.2558399 0.2560871 0.256377 0.2566798 0.2569 0.2569397
 0.2568502 0.2568543 0.2571418 0.2576807 0.2582794 0.2587845 0.2591717 0.2594919 0.2597851 0.2600375
 0.2601966 0.2602283 0.2601889 0.2602363 0.2605236 0.261043 0.2616172 0.2620794 0.2624054 0.2626506
 0.2628559 0.2630404 0.2631626 0.263067 0.2626468 0.2621262 0.2619994 0.262553 0.2635438 0.26446
 0.2650283 0.2653543 0.2656308 0.2659026 0.2661256 0.2662064 0.2658797 0.2648582 0.2633808 0.2623675
 0.2626551 0.2641532 0.2659996 0.2674274 0.2682489 0.2686603 0.2689043 0.2691098 0.2691963 0.2688811
 0.2679939 0.2668957 0.2663882 0.2669734 0.2682905 0.2695048 0.2701586 0.2704087 0.2705844 0.2708211
 0.2709673 0.2705293 0.2689528 0.2664463 0.2643923 0.26437 0.2666076 0.2697037 0.2720168 0.2730781
 0.2734509 0.2735122 0.2729032 0.2711763 0.268456 0.2653731 0.2628927 0.2622116 0.2639598 0.2671826
 0.2698799 0.2709867 0.2712709 0.2720361 0.2735549 0.2750671 0.2757822 0.275499 0.2744621 0.2729176
 0.2710013 0.2691627 0.2684064 0.2695708 0.2723124 0.2752372 0.2771917 0.2781336 0.2785224 0.277968
 0.2749638 0.2687026 0.2613397 0.2573881 0.2597279 0.266591 0.2734614 0.2775161 0.27916 0.2798953
 0.2803183 0.279963 0.2775546 0.2716845 0.2630066 0.2556579 0.2544711 0.2601886 0.2686224 0.2745746
 0.2754064 0.2713352 0.2644757 0.2581807 0.2556673 0.2580741 0.2639817 0.2708142 0.2763751 0.2794322
 0.2797055 0.2777534 0.2749189 0.272996 0.2729385 0.2734441 0.2719349 0.2678168 0.2634771 0.260767
 0.2581089 0.2533926 0.2486251 0.248595 0.2546653 0.2625114 0.2669951 0.2673668 0.2663067 0.2650165
 0.261127 0.2520952 0.2400285 0.2317354 0.2327711 0.2416815 0.2513183 0.2558451 0.2553679 0.2537955
 0.253618 0.2533822 0.2497559 0.2418934 0.2335852 0.2300519 0.2323652 0.236473 0.2379596 0.2355555
 0.2295301 0.2202483 0.2107169 0.2074714 0.2150218 0.2302879 0.2450527 0.2527426 0.2507645 0.2389428
 0.2204497 0.2037722 0.198565 0.2069736 0.2210264 0.2299949 0.2288871 0.219249 0.2045766 0.1879911
 0.173711 0.1673779 0.1726274 0.1874433 0.2043419 0.2140833 0.210715 0.1961945 0.1808128 0.175765
 0.1829417 0.1936606 0.1984388 0.1956155 0.1898795 0.1862055 0.1869986 0.1918199 0.197851 0.2024913
 0.2054161 0.2056074 0.1985193 0.1815524 0.1613531 0.1494651 0.1503218 0.1588973 0.1699657 0.1828183
 0.1953573 0.2008342 0.1954766 0.1856908 0.1826588 0.1904611 0.2025579 0.2097918 0.2094499 0.2057794
 0.2033594 0.2021838 0.1999676 0.1974812 0.1987363 0.2054906 0.2142147 0.2200294 0.2217732 0.2216047
 0.2213122 0.2209537 0.2200869 0.2185635 0.216446 0.2141226 0.212194 0.2107862 0.2094394 0.2078222
 0.2056976 0.2018547 0.1943738 0.183355 0.1726674 0.1669278 0.1666369 0.1684165 0.1700319 0.1717379
 0.1716276 0.1642844 0.1479676 0.1305214 0.1236798 0.1317381 0.1483553 0.1637344 0.1720623 0.1719888
 0.1637444 0.1494847 0.1358636 0.131979 0.1419231 0.1608112 0.1799969 0.1945343 0.2037752 0.2072499
 0.2038004 0.1946483 0.1846729 0.179669 0.1827994 0.1931304 0.2059411 0.2139693 0.2109315 0.1977395
 0.1853812 0.1868842 0.2036271 0.2230558 0.2328007 0.2332619 0.2326959 0.2343912 0.2349667 0.2333155
 0.234278 0.2419247 0.2535154 0.2621946 0.2630228 0.2549198 0.2400151 0.2241631 0.2154574 0.2177493
 0.2262745 0.2328472 0.2338133 0.2295917 0.2198116 0.205324 0.1933656 0.1932164 0.2054282 0.2205639
 0.2299193 0.2334385 0.2358168 0.2384145 0.2376584 0.2305315 0.2196485 0.2116409 0.2105782 0.2143817
 0.2182861 0.21987 0.2190896 0.215409 0.2081292 0.1995032 0.1947803 0.1976459 0.206429 0.2157168
 0.2212487 0.2225972 0.2218084 0.2207931 0.2200575 0.218916 0.2168066 0.2149843 0.2162748 0.2219799
 0.2296761 0.2356437 0.2391178 0.2425501 0.2477822 0.2534981 0.2568083 0.2564021 0.2538055 0.2520666
 0.2533218 0.2571051 0.2606963 0.2614452 0.2592877 0.2570274 0.2577463 0.2618647 0.2670777 0.2709787
 0.2730308 0.2740766 0.27492 0.2756442 0.2755837 0.2738573 0.2706625 0.2680258 0.2683668 0.2720783
 0.2771226 0.2810983 0.2831495 0.2838273 0.2837916 0.2831222 0.2816979 0.2798167 0.2782072 0.277463
 0.2776239 0.2783265 0.279191 0.2799932 0.2806355 0.2811126 0.2814714 0.2817451 0.2819523 0.2821451
 0.2823713 0.2825863 0.2826968 0.2827216 0.2828212 0.28311 0.2835028 0.2838047 0.2838861 0.2836892
 0.2831257 0.282109 0.2806886 0.279028 0.277216 0.2752191 0.2731293 0.271409 0.2707433 0.2715383
 0.273555 0.2760555 0.2783014 0.2799206 0.2809038 0.2814041 0.2815931 0.2816153 0.2815703 0.2814942
 0.2813736 0.2811891 0.2809427 0.2806489 0.2803193 0.2799698 0.2796307 0.27933 0.2790631 0.2787864
 0.2784418 0.2779945 0.277459 0.276888 0.2763206 0.2757352 0.2750582 0.2742265 0.2732424 0.2721766
 0.2711228 0.2701425 0.2692353 0.268349 0.267424 0.2664271 0.2653336 0.2640954 0.2626818 0.2611643
 0.259705 0.2584206 0.2572873 0.2561961 0.2550548 0.2538127 0.2524451 0.2509606 0.2494059 0.2478296
 0.2462467 0.2446423 0.2429961 0.2412969 0.2395397 0.2377193 0.2358287 0.2338698 0.2318599 0.2298185
 0.2277334 0.2255332 0.2230941 0.2202778 0.2169694 0.2130971 0.2086546 0.2037306 0.1985036 0.1931869
 0.1879704 0.1829998 0.1783889 0.1742389 0.1706456 0.1676892 0.1654193 0.1638586 0.1630148 0.162883
 0.1634436 0.164661 0.166467 0.168743 0.1713292 0.1740504 0.1767299 0.1792103 0.1814059 0.1833454
 0.1851405 0.1868945 0.1886327 0.1903102 0.1918735 0.1932971 0.1945652 0.1956525 0.1965501 0.1972918
 0.1979309 0.1985019 0.1990174 0.1994814 0.1998935 0.2002543 0.2005763 0.2008858 0.2012118 0.2015781
 0.201998 0.2024739 0.2030062 0.2035993 0.204258 0.2049806 0.2057568 0.2065679 0.2073972 0.2082452
 0.2091306 0.2100784 0.2111226 0.2123152 0.2137103 0.2153339 0.2171701 0.2191626 0.2212168 0.2232176
 0.2250561 0.2266459 0.2279334 0.2289105 0.22961 0.2300767 0.2303512 0.2304742 0.2304832 0.2303981
 0.2302207 0.2299456 0.229569 0.2290971 0.2285468 0.2279314 0.2272569 0.2265396 0.2258087 0.2250821
 0.224359 0.2236401 0.2229332 0.2222378 0.2215459 0.2208555 0.2201715 0.2194933 0.2188121 0.2181193
 0.2174129 0.2166915 0.2159364 0.2151101 0.2141848 0.2131596 0.2120406 0.2108201 0.209491 0.2080598
 0.2065392 0.2049449 0.2033025 0.2016328 0.1999266 0.1981484 0.1962622 0.1942523 0.1921388 0.1899827
 0.1878653 0.185849 0.1839563 0.1821751 0.180481 0.1788643 0.1773356 0.1758982 0.1745302 0.1732103
 0.1719483 0.1707678 0.1696686 0.1686248 0.1676217 0.1666797 0.165837 0.1651095 0.1644785 0.1639168
 0.1634119 0.1629624 0.1625784 0.1622903 0.1621232 0.1620495 0.1619945 0.1618972 0.1617446 0.1615522
 0.1613406 0.1611289 0.1609261 0.1607269 0.1605222 0.1602988 0.1600195 0.1596084 0.1589631 0.1579924
 0.1566604 0.1550077 0.1531317 0.1511565 0.1492137 0.1474208 0.145858 0.1445734 0.1435898 0.1428765
 0.1423361 0.1418704 0.1414624 0.1411765 0.1410831 0.1411766 0.1413423 0.1414233 0.1413618 0.1412674
 0.1413241 0.1416424 0.1421997 0.1428767 0.1435331 0.1440761 0.1444762 0.1447329 0.1448573 0.1448822
 0.1448418 0.1447395 0.1445664 0.1443295 0.1440375 0.1436871 0.1432779 0.1428088 0.1422622 0.1416266
 0.1409152 0.1401403 0.1392983 0.1383792 0.1373517 0.1361765 0.1349058 0.1337474 0.1329685 0.1327431
 0.1330775 0.1338173 0.1347426 0.1357093 0.1366438 0.1373737 0.1376555 0.1375435 0.1376005 0.1384942
 0.1403493 0.1426125 0.144559 0.1458167 0.1463912 0.1463854 0.145865 0.1448866 0.143463 0.1415363
 0.1391022 0.13629 0.1332652 0.1301745 0.1272014 0.1245269 0.1222384 0.1203565 0.1188785 0.1178368
 0.1173537 0.1170688 0.1151539 0.1092707 0.1001831 0.09336823 0.09441213 0.1027216 0.111936 0.1166511
 0.116721 0.1150177 0.113516 0.1125234 0.1119707 0.1120306 0.1128354 0.1142161 0.11574 0.116977
 0.1177722 0.1181892 0.1181939 0.1174332 0.1152029 0.1106873 0.1036135 0.0948343 0.08603333 0.07873394
 0.07362361 0.07059175 0.06906003 0.06831781 0.067872 0.06766479 0.06796259 0.06902935 0.07090279 0.0734401
 0.07646416 0.07974517 0.08290245 0.08554818 0.08758244 0.08918482 0.09048896 0.09142347 0.09187914 0.09187261
 0.09151688 0.09093615 0.09022857 0.08944381 0.08856353 0.08752856 0.08634542 0.08518972 0.08432733 0.08387466
 0.08370907 0.08365246 0.08363749 0.08366151 0.0837042 0.08373906 0.08375394 0.08376758 0.08386943 0.08417284
 0.08467153 0.08520643 0.08560658 0.08581828 0.08589891 0.08589939 0.08573822 0.08526862 0.08455088 0.08389968
 0.08347324 0.08297949 0.08205408 0.08082629 0.07985181 0.07952617 0.07975166 0.08013729 0.08035267 0.08029614
 0.08009551 0.08003022 0.08033057 0.08090918</values></Ydata></ScSm><ScRf><Ydata ylabel="Single channel"><values byteorder="INTEL" format="FLOAT32" numvalues="1820"> 0.06057489 0.06072851 0.06083059 0.06087848 0.0608893 0.06090376 0.06097032 0.06111152 0.06130458 0.06149448
 0.06163191 0.06170383 0.0617232 0.06169744 0.0616352 0.0615838 0.06161752 0.06176517 0.06196779 0.06212083
 0.06215748 0.06210499 0.06206791 0.06212773 0.06223507 0.06222381 0.06196738 0.06152372 0.06109799 0.06085355
 0.06080946 0.06095938 0.06137307 0.06200333 0.06246684 0.06231733 0.06160764 0.06091735 0.06071103 0.06089208
 0.06107115 0.06101321 0.06071192 0.06030881 0.06013632 0.06062303 0.06187048 0.06331134 0.0639189 0.06285706
 0.06007672 0.05650131 0.05368751 0.05299274 0.05461602 0.0573215 0.05936355 0.05988058 0.05930941 0.0585008
 0.05781102 0.05720621 0.05684158 0.05709437 0.05803306 0.05906178 0.05922177 0.05800457 0.05596095 0.05432168
 0.05387976 0.05448632 0.05569873 0.05726241 0.05844699 0.05766735 0.05404351 0.04937639 0.04734491 0.0500076
 0.05560372 0.06028148 0.06152694 0.059556 0.05617881 0.05330038 0.05221793 0.05327023 0.05576622 0.05856606
 0.06077857 0.06179829 0.06115163 0.05891149 0.05609481 0.05415994 0.05411103 0.05611748 0.05947893 0.06267022
 0.0640302 0.06299721 0.06048743 0.05792221 0.05628992 0.05614952 0.05776533 0.06082356 0.06442225 0.06760258
 0.06974302 0.07060784 0.0703869 0.06957971 0.06861631 0.06778685 0.06751491 0.06809791 0.06900465 0.06907661
 0.06779881 0.06599529 0.06497945 0.06519333 0.06585537 0.06590641 0.0650789 0.06370759 0.06166941 0.05838577
 0.05413657 0.05039316 0.04834565 0.04800585 0.04909215 0.05148653 0.05418869 0.05524765 0.05388638 0.05186677
 0.05173042 0.0540938 0.05733494 0.05959985 0.06052342 0.0611105 0.06242915 0.06450768 0.06618422 0.0659738
 0.06354086 0.0605371 0.05943589 0.06110387 0.06397139 0.06597227 0.0667279 0.06731592 0.0683918 0.06917615
 0.0682629 0.06528294 0.0618104 0.06039404 0.0623346 0.06638047 0.06963129 0.06968081 0.06624074 0.06122047
 0.05723932 0.0558078 0.05691827 0.06004358 0.06472018 0.07002619 0.07434091 0.07624601 0.07555284 0.07323748
 0.07032844 0.06694954 0.06283958 0.0589313 0.05755699 0.06023943 0.06573479 0.07106917 0.07419752 0.075023
 0.07422398 0.0719768 0.06816477 0.06363963 0.06063143 0.06101042 0.0640404 0.06680401 0.06726475 0.06612122
 0.06529615 0.06552309 0.06607749 0.06628208 0.06647363 0.06744578 0.06933133 0.07131203 0.07242009 0.07241707
 0.07183258 0.07134389 0.07115956 0.07086765 0.07002321 0.06905153 0.0691859 0.07110931 0.07400455 0.0763914
 0.07760487 0.07802549 0.0780869 0.07752426 0.07576416 0.07300906 0.07067934 0.07035844 0.07225672 0.07507831
 0.07736668 0.07855506 0.07882461 0.07856511 0.0781092 0.07763156 0.07721615 0.0770898 0.07755698 0.0785602
 0.07958931 0.08019412 0.08035068 0.08022669 0.07985936 0.07922842 0.0784909 0.0779801 0.07796303 0.07843833
 0.07918446 0.07995766 0.08057411 0.08086623 0.08074214 0.08032236 0.07987267 0.07956444 0.07941066 0.07942324
 0.07966912 0.08012965 0.08063313 0.08099465 0.08116124 0.08118746 0.08112888 0.08100165 0.08082058 0.08064649
 0.08058482 0.08070803 0.08096492 0.08121751 0.08140348 0.0815983 0.08185881 0.08208086 0.08210734 0.08193685
 0.08173528 0.08165628 0.08171713 0.08183847 0.08193332 0.08192887 0.08175766 0.08141453 0.08103931 0.08086623
 0.08103897 0.08150963 0.08212374 0.08272776 0.08318971 0.08343147 0.08349162 0.08348276 0.08345611 0.0833666
 0.08318318 0.082982 0.08291347 0.08308788 0.08348079 0.08394571 0.08432695 0.08455266 0.08463794 0.08466077
 0.08473344 0.08491211 0.08511322 0.08519408 0.08513428 0.08506826 0.08511943 0.0852584 0.08535124 0.08531845
 0.08522307 0.08520166 0.08532146 0.08552545 0.08571734 0.0858705 0.08603583 0.08625326 0.08646917 0.08655822
 0.08645193 0.08623315 0.08605907 0.08599836 0.08600372 0.08603911 0.0861477 0.0863586 0.08659446 0.0867348
 0.08675156 0.08673327 0.08677071 0.0868506 0.08687928 0.08679219 0.08661915 0.08645135 0.08636657 0.08638281
 0.086458 0.08652251 0.0865227 0.08645087 0.08634186 0.08623901 0.08616387 0.08612619 0.08615889 0.08630854
 0.08656055 0.08679099 0.08684075 0.08665998 0.08636627 0.08614305 0.08607762 0.08609809 0.08606123 0.0858902
 0.08562607 0.08536543 0.08517177 0.08504609 0.08495627 0.0848797 0.08482973 0.08485019 0.08496585 0.08512096
 0.08518955 0.0850814 0.08483379 0.08457519 0.0844082 0.08434775 0.08434828 0.08435473 0.08434354 0.0843434
 0.08439714 0.08448577 0.08452693 0.08447179 0.08436786 0.08430873 0.0843588 0.08452771 0.0847608 0.08494376
 0.08497823 0.08487955 0.08476375 0.08472745 0.08477414 0.0848578 0.0849503 0.0850468 0.0851404 0.08522594
 0.08532231 0.08546831 0.08568703 0.08595623 0.08621504 0.0864038 0.08651091 0.08659075 0.0867288 0.08697404
 0.08729853 0.08762257 0.08788033 0.0880662 0.08822354 0.08839323 0.08858191 0.08878522 0.08902247 0.08931919
 0.08966126 0.08999813 0.09029624 0.09056684 0.09083837 0.09112188 0.09141117 0.09170905 0.09204449 0.09244716
 0.09289075 0.09328069 0.09353051 0.09365121 0.09374827 0.09393767 0.09426636 0.09467938 0.09504467 0.09525134
 0.09532072 0.09539387 0.09558014 0.09585055 0.0961136 0.09635939 0.09667107 0.09709954 0.09757532 0.09796481
 0.09819721 0.0983228 0.09844954 0.09862998 0.09881966 0.09895046 0.09902558 0.09911299 0.0992554 0.09943508
 0.09964073 0.09991412 0.1002874 0.1007091 0.1010814 0.1013551 0.1015505 0.1017054 0.1018364 0.1019386
 0.1019966 0.1020082 0.1020132 0.1020669 0.1021715 0.1022674 0.1023134 0.1023412 0.1024102 0.1025436
 0.1027376 0.1029933 0.1033012 0.1036144 0.1038892 0.1041491 0.1044596 0.1048222 0.1051393 0.1053199
 0.1053844 0.105419 0.1054622 0.1055003 0.1055536 0.1056903 0.1059424 0.1062642 0.1065939 0.1069169
 0.107252 0.1076018 0.1079317 0.1081826 0.1083067 0.1083082 0.1082554 0.1082455 0.1083497 0.1085796
 0.10889 0.1092115 0.1094892 0.1096936 0.1098019 0.1098011 0.1097312 0.109697 0.1097889 0.1099823
 0.1101442 0.1101448 0.1099425 0.1095634 0.1090405 0.1084042 0.1077123 0.107054 0.1065118 0.106127
 0.1059097 0.1058784 0.1060734 0.1065114 0.107134 0.1078233 0.108471 0.1090027 0.1093381 0.1093796
 0.1090799 0.1084997 0.1077717 0.1070191 0.1063175 0.1056911 0.1051145 0.1045506 0.1040327 0.1037045
 0.103753 0.1042957 0.1053227 0.1067073 0.1082436 0.1097077 0.110943 0.1119216 0.1127207 0.1134347
 0.1141117 0.1147665 0.1154167 0.1160724 0.1167044 0.1172644 0.1177396 0.1181611 0.1185595 0.1189363
 0.1192771 0.1195693 0.1198119 0.1200249 0.1202306 0.1204113 0.1205093 0.1204901 0.1203875 0.1202647
 0.1201456 0.1199963 0.1197608 0.1194096 0.1189791 0.1185889 0.1184162 0.1186242 0.1192771 0.1203028
 0.1215451 0.1228591 0.1241477 0.1253193 0.1262679 0.1269342 0.1273624 0.1276646 0.1279366 0.1282228
 0.1285312 0.1288519 0.1291651 0.1294553 0.1297245 0.1299932 0.130289 0.1306237 0.1309731 0.1312883
 0.1315428 0.1317681 0.1320307 0.1323693 0.1327564 0.133128 0.1334536 0.1337614 0.1340846 0.1344001
 0.1346516 0.1348273 0.1349821 0.1351845 0.1354675 0.1358224 0.1362033 0.1365386 0.1367776 0.1369382
 0.1370895 0.1372838 0.137523 0.1377833 0.1380466 0.1383038 0.1385507 0.1387976 0.1390695 0.1393769
 0.1396876 0.1399436 0.1401176 0.140245 0.1403904 0.1405865 0.1408131 0.1410296 0.1412236 0.1414275
 0.1416861 0.1420036 0.1423252 0.1425801 0.1427428 0.1428489 0.1429566 0.1431022 0.1432894 0.143505
 0.143734 0.1439629 0.1441813 0.1443896 0.1445986 0.1448162 0.1450358 0.1452426 0.1454318 0.1456158
 0.1458124 0.1460282 0.1462585 0.1465037 0.1467755 0.147073 0.1473617 0.1475958 0.1477639 0.1478962
 0.1480283 0.1481731 0.1483297 0.1484988 0.1486831 0.1488823 0.1490928 0.1493086 0.1495222 0.1497277
 0.1499251 0.1501186 0.1503137 0.1505137 0.1507214 0.1509402 0.1511701 0.151404 0.1516303 0.1518414
 0.1520373 0.1522242 0.1524119 0.1526064 0.1528022 0.1529879 0.1531618 0.1533373 0.1535278 0.1537334
 0.1539425 0.1541446 0.1543376 0.1545273 0.1547209 0.1549203 0.1551231 0.1553254 0.1555245 0.1557186
 0.1559083 0.1560965 0.1562859 0.1564792 0.1566775 0.1568782 0.157076 0.1572693 0.1574627 0.1576626
 0.1578692 0.158076 0.1582763 0.1584708 0.1586652 0.1588606 0.159052 0.1592363 0.1594161 0.1595965
 0.159783 0.1599808 0.1601893 0.1604012 0.1606129 0.1608276 0.1610486 0.1612732 0.1614975 0.1617189
 0.1619355 0.1621488 0.1623625 0.1625764 0.1627874 0.1629978 0.1632119 0.1634276 0.1636361 0.1638313
 0.1640122 0.1641826 0.1643497 0.1645187 0.1646895 0.1648608 0.1650354 0.1652173 0.165409 0.1656106
 0.1658159 0.1660149 0.1662035 0.166388 0.1665753 0.1667706 0.1669789 0.1671987 0.1674179 0.1676268
 0.1678294 0.1680358 0.1682488 0.1684632 0.1686699 0.1688626 0.1690459 0.169233 0.169433 0.1696447
 0.1698605 0.170071 0.1702722 0.1704742 0.1706916 0.1709241 0.1711565 0.1713756 0.1715794 0.1717747
 0.1719732 0.1721814 0.1723937 0.1726027 0.1728116 0.1730244 0.1732387 0.173452 0.1736647 0.1738745
 0.1740826 0.1742968 0.1745185 0.1747392 0.1749564 0.1751762 0.1753972 0.1756117 0.1758181 0.1760176
 0.1762118 0.1764082 0.1766111 0.176803 0.1769354 0.1768935 0.1763972 0.1748942 0.1715448 0.1653863
 0.1557171 0.1425378 0.1267034 0.1096224 0.09274498 0.07718908 0.06362008 0.05232361 0.04334982 0.03661539
 0.03196309 0.02924962 0.02844818 0.02976612 0.03376351 0.04101426 0.05086321 0.0603415 0.06533243 0.06382466
 0.05783413 0.0515642 0.04791284 0.04707867 0.04782327 0.04909676 0.0505698 0.05243213 0.05500638 0.05838037
 0.06239772 0.06706154 0.07271974 0.07961971 0.08739296 0.09521659 0.1025179 0.1094165 0.1164437 0.123898
 0.1315264 0.1387699 0.1452099 0.1507755 0.1556503 0.1600737 0.1642084 0.1681252 0.1718545 0.1753901
 0.1786108 0.1812453 0.1829996 0.1837785 0.1837988 0.1834735 0.1831697 0.1830581 0.1831512 0.183418
 0.1838372 0.1843906 0.1850559 0.1858071 0.1866125 0.1874408 0.1882701 0.1890831 0.189862 0.1905934
 0.1912692 0.1918821 0.1924332 0.1929393 0.1934166 0.1938648 0.1942775 0.1946581 0.1950159 0.195357
 0.1956837 0.1959955 0.196289 0.1965618 0.1968146 0.1970491 0.1972691 0.1974817 0.1976906 0.1978939
 0.1980931 0.1982953 0.1985029 0.1987107 0.1989169 0.1991261 0.1993414 0.1995585 0.1997695 0.1999678
 0.2001532 0.2003338 0.2005174 0.2007033 0.2008871 0.2010718 0.2012666 0.2014745 0.2016858 0.2018873
 0.2020758 0.20226 0.2024479 0.202637 0.2028231 0.2030129 0.2032165 0.2034327 0.2036547 0.2038804
 0.2041077 0.2043283 0.2045368 0.2047373 0.2049316 0.2051128 0.2052773 0.2054376 0.2056154 0.2058243
 0.2060588 0.2062966 0.2065188 0.2067242 0.2069227 0.2071186 0.2073055 0.2074738 0.2076256 0.2077849
 0.2079831 0.2082247 0.2084833 0.2087373 0.2089878 0.2092388 0.209487 0.2097351 0.209983 0.2102054
 0.2103706 0.2104924 0.21064 0.2108808 0.2112138 0.2115656 0.2118627 0.212097 0.2123118 0.2125457
 0.2128103 0.2130828 0.2132857 0.2133366 0.2132762 0.2132932 0.2135532 0.2140347 0.2145786 0.2150528
 0.2154266 0.2157297 0.215991 0.21621 0.2163561 0.2164047 0.2163961 0.216457 0.2167173 0.2171769
 0.217691 0.2181147 0.2184193 0.2186488 0.2188417 0.2190179 0.2191408 0.2190776 0.2187413 0.2183282
 0.2182604 0.2187798 0.2196773 0.2205153 0.2210548 0.221375 0.2216373 0.2218896 0.2221059 0.2222084
 0.2219667 0.2211372 0.2199275 0.21912 0.2194203 0.2207435 0.2223513 0.2235928 0.2243168 0.2246994
 0.2249502 0.2251736 0.2252945 0.2250719 0.2243642 0.2234788 0.2230956 0.2236446 0.2248231 0.2259169
 0.2265269 0.2267856 0.2269812 0.2272334 0.2274111 0.2270927 0.2258083 0.2237355 0.222046 0.2220759
 0.2240165 0.2266841 0.2286947 0.2296512 0.2300235 0.2301288 0.2296685 0.2282667 0.2260254 0.2234745
 0.2214296 0.2209065 0.2224448 0.2252398 0.2275934 0.228595 0.2288926 0.2295961 0.230944 0.232295
 0.2329744 0.2328047 0.2319923 0.2307527 0.2292047 0.2277226 0.2271502 0.2282013 0.2305953 0.2331542
 0.2348916 0.2357638 0.2361608 0.235753 0.2332557 0.227981 0.2217723 0.2184834 0.2205704 0.2265212
 0.232477 0.2360212 0.2374969 0.2381965 0.238642 0.238435 0.2364732 0.2315418 0.224204 0.2180121
 0.2171084 0.2221201 0.229449 0.2346406 0.2354394 0.2320324 0.2262296 0.2209066 0.2188302 0.2209873
 0.2261667 0.2321524 0.2370459 0.2397811 0.2401184 0.2385401 0.2362052 0.2346638 0.2347366 0.2352893
 0.2340917 0.2306414 0.2270127 0.2248037 0.222642 0.2186996 0.2147191 0.2148536 0.2202846 0.2272581
 0.2313134 0.2318009 0.2310468 0.2300882 0.2268586 0.2191459 0.2087925 0.2017414 0.2028407 0.2108148
 0.2194164 0.2235535 0.223329 0.2221594 0.222214 0.2222119 0.219226 0.2125168 0.2054323 0.2025809
 0.2049061 0.2088334 0.2104688 0.2086747 0.2036492 0.1956976 0.1875271 0.1850103 0.192194 0.206315
 0.2199969 0.2273302 0.2259656 0.2157137 0.1994227 0.1848026 0.1806568 0.1889496 0.2024039 0.2112203
 0.2108296 0.2026134 0.1897246 0.1750169 0.1624496 0.1573767 0.1632952 0.1783528 0.1954482 0.2057083
 0.2033343 0.1901533 0.1761377 0.1722045 0.1801954 0.1915838 0.1970519 0.1949721 0.1899742 0.1870107
 0.1885326 0.1941262 0.2009328 0.2063204 0.2099679 0.2107733 0.2039735 0.1868552 0.1662939 0.154238
 0.1552992 0.1643228 0.1759388 0.1894154 0.2025431 0.2082818 0.2027005 0.1924589 0.1891895 0.1971495
 0.2095588 0.2169129 0.2164025 0.2124579 0.2098603 0.2086255 0.2064023 0.2040084 0.2056011 0.2129699
 0.2224283 0.2289284 0.2312969 0.2317844 0.2322308 0.2326652 0.2326003 0.2318722 0.2305503 0.2290452
 0.2279944 0.2275467 0.227223 0.2266517 0.2255277 0.2224549 0.2152562 0.2040305 0.193111 0.1876429
 0.1881232 0.190734 0.1930058 0.1952471 0.1952517 0.1868339 0.1680029 0.1476449 0.1390634 0.1471313
 0.1646558 0.1805577 0.188367 0.1867836 0.1763304 0.1594974 0.1433887 0.1375548 0.1462237 0.164225
 0.1824912 0.195876 0.2038193 0.2060383 0.201492 0.1914264 0.1806718 0.1749027 0.1771353 0.1863637
 0.1979587 0.2049313 0.2013107 0.1880238 0.1755603 0.1763043 0.1915725 0.2094769 0.2182941 0.2183697
 0.21749 0.2187811 0.2190868 0.2173703 0.2181728 0.2253246 0.2362842 0.2446448 0.2457635 0.2385889
 0.2250977 0.2108155 0.2033948 0.2064391 0.215349 0.22229 0.223768 0.2201673 0.2111195 0.197489
 0.1863308 0.1866382 0.1989188 0.214011 0.2234912 0.2273387 0.2301322 0.2331773 0.2329529 0.2264884
 0.2163632 0.2091362 0.2088585 0.2135093 0.2183895 0.2210818 0.2214702 0.2189083 0.2126246 0.2049245
 0.2012187 0.2052968 0.2153739 0.2257423 0.2318596 0.2331702 0.2317472 0.2296169 0.2274182 0.2245641
 0.2205581 0.2167253 0.2159811 0.219716 0.2255804 0.229897 0.231884 0.2339327 0.2378609 0.2424157
 0.2448007 0.2437251 0.2406176 0.2383611 0.2389711 0.2420077 0.2449156 0.2452077 0.2428273 0.240421
 0.2409012 0.2446688 0.2495534 0.2532869 0.2553514 0.256515 0.2575086 0.2583855 0.2584793 0.2569111
 0.2538387 0.2511777 0.2512323 0.2544029 0.2588086 0.262234 0.2639145 0.2643877 0.264269 0.2636189
 0.2623101 0.2606073 0.2591753 0.2585594 0.2587965 0.2595435 0.260428 0.2612138 0.2617947 0.2621791
 0.2624439 0.2626402 0.2627708 0.2628551 0.2629285 0.2629682 0.2629192 0.262827 0.262849 0.2630732
 0.2633913 0.2636083 0.263612 0.2633666 0.2628102 0.2618807 0.2606326 0.259215 0.2577004 0.2560419
 0.2543021 0.2528871 0.2524202 0.2532824 0.2552652 0.2576942 0.2598802 0.2614655 0.2624361 0.2629414
 0.26315 0.2632008 0.2631879 0.2631435 0.2630441 0.2628503 0.2625514 0.2621756 0.2617679 0.2613707
 0.2610188 0.2607291 0.2604783 0.2602064 0.259859 0.2594236 0.2589255 0.2583989 0.2578649 0.2573166
 0.2567115 0.2559922 0.2551347 0.2541832 0.2532327 0.2523677 0.2516034 0.2508827 0.2501327 0.2493137
 0.248405 0.247374 0.2462118 0.2450055 0.2439195 0.2430661 0.2424109 0.2418187 0.241166 0.2403959
 0.239504 0.2385173 0.2374783 0.2364194 0.2353453 0.2342409 0.2330814 0.2318343 0.230475 0.2290109
 0.2274759 0.2258986 0.2242923 0.2226657 0.2210085 0.2192579 0.2172933 0.2149737 0.2121799 0.2088357
 0.20492 0.2004852 0.1956712 0.1906877 0.1857605 0.1810753 0.1767613 0.1729075 0.1695847 0.1668573
 0.164782 0.1633963 0.1627132 0.1627328 0.1634479 0.1648278 0.1668023 0.1692629 0.172071 0.1750601
 0.1780486 0.1808749 0.183445 0.1857643 0.1879136 0.1899672 0.191926 0.1937359 0.1953524 0.1967646
 0.1979717 0.1989737 0.1997896 0.2004635 0.2010425 0.2015523 0.2019964 0.2023744 0.2026955 0.2029704
 0.2032024 0.203395 0.2035626 0.2037231 0.2038893 0.2040741 0.2042973 0.2045846 0.204961 0.2054361
 0.2059886 0.2065747 0.2071617 0.207749 0.2083573 0.2090098 0.2097284 0.210539 0.2114759 0.2125722
 0.2138346 0.2152221 0.2166525 0.2180279 0.2192573 0.2202717 0.2210323 0.2215305 0.2217853 0.2218426
 0.2217585 0.2215707 0.2212873 0.2209083 0.2204465 0.2199259 0.2193688 0.2187851 0.2181685 0.2175063
 0.2168 0.2160736 0.2153605 0.2146781 0.2140196 0.2133719 0.2127398 0.2121393 0.2115681 0.2110007
 0.2104184 0.2098285 0.2092458 0.208672 0.2080986 0.2075107 0.2068792 0.2061646 0.2053428 0.2044187
 0.2034072 0.2023098 0.2011189 0.1998362 0.1984751 0.1970463 0.1955519 0.1939921 0.1923662 0.1906623
 0.1888546 0.1869265 0.1849038 0.1828641 0.1808991 0.1790662 0.1773717 0.1757923 0.174301 0.1728818
 0.1715325 0.1702531 0.1690342 0.1678636 0.1667425 0.1656837 0.1646919 0.1637588 0.1628797 0.1620677
 0.1613464 0.1607235 0.160179 0.1596889 0.1592541 0.158895 0.158628 0.1584658 0.1584197 0.1584727
 0.1585631 0.1586185 0.1586012 0.1585158 0.1583898 0.1582533 0.1581267 0.1580203 0.1579372 0.1578585
 0.1577231 0.1574353 0.1568968 0.1560364 0.1548329 0.153323 0.1515874 0.1497357 0.147902 0.1462167
 0.144767 0.1435947 0.1427156 0.1420971 0.141643 0.1412553 0.1409135 0.1406794 0.1406365 0.1408064
 0.1410887 0.1413087 0.1413792 0.1413926 0.1415274 0.1418998 0.1425125 0.1432777 0.1440653 0.1447671
 0.1453291 0.14573 0.1459706 0.1460849 0.1461098 0.14605 0.1459074 0.1457108 0.1454806 0.1452009
 0.1448482 0.1444114 0.1438883 0.1432914 0.1426361 0.1419113 0.1411 0.1402084 0.1392241 0.1381039
 0.1368842 0.1357602 0.1349978 0.1347864 0.1351557 0.1359616 0.13698 0.138065 0.1391361 0.1400021
 0.1404079 0.1404152 0.1405973 0.1416341 0.1436694 0.1461464 0.1482975 0.1497114 0.1503944 0.1504663
 0.150002 0.1490663 0.1476693 0.1457322 0.1432429 0.1403518 0.1372411 0.1340587 0.1310006 0.1282634
 0.1259313 0.1240265 0.12257 0.1216069 0.1212412 0.1210727 0.1192021 0.1132164 0.1039217 0.09700152
 0.09822954 0.1069679 0.1166193 0.1215888 0.1217304 0.1200355 0.1185632 0.1176111 0.1170675 0.1170965
 0.1178489 0.1191712 0.1206428 0.1218414 0.1226006 0.1229676 0.1229083 0.1220639 0.1196957 0.114953
 0.1075625 0.09841382 0.08925578 0.08168291 0.07641277 0.07330582 0.07173218 0.07093896 0.07041038 0.07010505
 0.07034165 0.07141675 0.07335442 0.07599533 0.07916778 0.08263572 0.08598641 0.08880234 0.09097052 0.09267133
 0.09405665 0.09507753 0.09562495 0.09569535 0.09538169 0.09479818 0.0940562 0.09324557 0.09237078 0.09134288
 0.09013283 0.08893314 0.08805231 0.08761774 0.08748318 0.08744025 0.08740331 0.08737773 0.08737075 0.08736993
 0.08735562 0.08734226 0.08741884 0.08768461 0.08812219 0.08858745 0.08893114 0.08910464 0.08916233 0.08915
 0.08897058 0.08846226 0.08769112 0.08699172 0.08653422 0.08601846 0.0850542 0.08374979 0.08267473 0.08226395
 0.08243898 0.08279026 0.08295777 0.08282666 0.0825364 0.08240102 0.08268784 0.08331589 0.08383463 0.08384253
</values></Ydata></ScRf><Data_Parameters_AB><parameter name="DPF">1</parameter><parameter name="NPT">3497</parameter><parameter name="FXV">3996</parameter><parameter name="LXV">500</parameter><parameter name="CSF">1</parameter><parameter name="MXY">0.0560116283595562</parameter><parameter name="MNY">-0.0974219143390656</parameter><parameter name="DAT">27/05/2022</parameter><parameter name="TIM">12:02:35.111 (GMT+2)</parameter><parameter name="DXU">WN</parameter></Data_Parameters_AB><AB__Qtest><MainReport name="Quality Test Report"><Header><Line><Legend>Test result ok/not ok [1/0]: </Legend><Value>0</Value></Line><Line><Legend>Method file: </Legend><Value>C:\Users\Public\Documents\Bruker\OPUS_8.2.28\QT\IRBT_v3_default.QT</Value></Line></Header><Matrix><Line><Legend></Legend><Legend>min</Legend><Legend>max</Legend><Legend>measured</Legend></Line><Line><Value>Absorption (X-Range 1):</Value><Value>0.400000</Value><Value>2.000000</Value><Value>0.106297</Value></Line><Line><Value>Noise (X-Range 4):</Value><Value></Value><Value>0.000300</Value><Value>0.000061</Value></Line><Line><Value>Signal/Noise (X-Range 2):</Value><Value>200.000000</Value><Value></Value><Value>23.612643</Value></Line><Line><Value>Signal/Noise (X-Range 3):</Value><Value>40.000000</Value><Value></Value><Value>17.680732</Value></Line><Line><Value>Water vapour (X-Range 5):</Value><Value></Value><Value>0.000300</Value><Value>0.000041</Value></Line><Line><Value>Signal/Water (X-Range 2):</Value><Value>100.000000</Value><Value></Value><Value>34.948182</Value></Line><Line><Value>Signal/Water (X-Range 3):</Value><Value>20.000000</Value><Value></Value><Value>26.168584</Value></Line><Line><Value>Fringes (X-Range 6):</Value><Value></Value><Value>0.000100</Value><Value>0.000048</Value></Line></Matrix></MainReport></AB__Qtest><Data_Parameters_ScSm><parameter name="DPF">1</parameter><parameter name="NPT">1814</parameter><parameter name="FXV">3996.33169228125</parameter><parameter name="LXV">499.541461535156</parameter><parameter name="CSF">1</parameter><parameter name="MXY">0.283886134624481</parameter><parameter name="MNY">0.0355767607688904</parameter><parameter name="DAT">27/05/2022</parameter><parameter name="TIM">12:02:35.111 (GMT+2)</parameter><parameter name="DXU">WN</parameter></Data_Parameters_ScSm><Data_Parameters_ScRf><parameter name="DPF">1</parameter><parameter name="NPT">1820</parameter><parameter name="FXV">4004.04661832813</parameter><parameter name="LXV">495.683998511719</parameter><parameter name="CSF">1</parameter><parameter name="MXY">0.264387667179108</parameter><parameter name="MNY">0.0284481775015593</parameter><parameter name="DAT">27/05/2022</parameter><parameter name="TIM">12:02:09.114 (GMT+2)</parameter><parameter name="DXU">WN</parameter></Data_Parameters_ScRf><Optic_Parameters_Rf><parameter name="APR">0</parameter><parameter name="APT">Open</parameter><parameter name="BMS">KBr</parameter><parameter name="DTC">RT-DLaTGS_IR-Biotyper [Microplate reader]</parameter><parameter name="HPF">0</parameter><parameter name="LPF">10.0</parameter><parameter name="LPV">4000</parameter><parameter name="PGR">0</parameter><parameter name="RCH">Module port</parameter><parameter name="RDX">0</parameter><parameter name="SRC">MIR</parameter><parameter name="VEL">10.0</parameter><parameter name="SON">Off</parameter></Optic_Parameters_Rf><Acquisition_Parameters_Rf><parameter name="ADT">1</parameter><parameter name="AQM">DD</parameter><parameter name="CFE">0</parameter><parameter name="COR">0</parameter><parameter name="DEL">0</parameter><parameter name="DLY">0</parameter><parameter name="HFW">8000</parameter><parameter name="LFW">0</parameter><parameter name="NSR">32</parameter><parameter name="PLF">AB</parameter><parameter name="RES">6</parameter><parameter name="RGN">-1</parameter><parameter name="STR">0</parameter><parameter name="TCL">MakeCompatibleScalar (0, {WSV=1.000000, ARV=0});</parameter><parameter name="TDL">37</parameter><parameter name="RPO">0</parameter></Acquisition_Parameters_Rf><FT_-_Parameters_Rf><parameter name="APF">B3</parameter><parameter name="HFQ">500</parameter><parameter name="LFQ">4000</parameter><parameter name="NLI">0</parameter><parameter name="PHR">24</parameter><parameter name="PHZ">ML</parameter><parameter name="SPZ">NO</parameter><parameter name="ZFF">1</parameter></FT_-_Parameters_Rf><Optic_Parameters_><parameter name="APR">0</parameter><parameter name="APT">Open</parameter><parameter name="BMS">KBr</parameter><parameter name="CHN">Module port</parameter><parameter name="DTC">RT-DLaTGS_IR-Biotyper [Microplate reader]</parameter><parameter name="HPF">0</parameter><parameter name="LPF">10.0</parameter><parameter name="LPV">4000</parameter><parameter name="PGN">0</parameter><parameter name="RDX">0</parameter><parameter name="SRC">MIR</parameter><parameter name="VEL">10.0</parameter><parameter name="SON">Off</parameter></Optic_Parameters_><FT_-_Parameters_><parameter name="APF">B3</parameter><parameter name="HFQ">500</parameter><parameter name="LFQ">4000</parameter><parameter name="NLI">0</parameter><parameter name="PHR">24</parameter><parameter name="PHZ">ML</parameter><parameter name="SPZ">NO</parameter><parameter name="ZFF">1</parameter></FT_-_Parameters_><Acquisition_Parameters_><parameter name="ADT">1</parameter><parameter name="AQM">DD</parameter><parameter name="CFE">0</parameter><parameter name="COR">0</parameter><parameter name="DEL">0</parameter><parameter name="DLY">0</parameter><parameter name="HFW">8000</parameter><parameter name="LFW">0</parameter><parameter name="NSS">32</parameter><parameter name="PLF">AB</parameter><parameter name="RES">6</parameter><parameter name="SOT">0</parameter><parameter name="TCL">MakeCompatibleScalar (0, {WSV=1.000000, ARV=0});</parameter><parameter name="TDL">37</parameter><parameter name="SPO">0</parameter><parameter name="SGN">-1</parameter></Acquisition_Parameters_><Instrument_Parameters_Rf><parameter name="HFL">15800.168544</parameter><parameter name="LFL">0</parameter><parameter name="LWN">15800.168544</parameter><parameter name="ABP">32197</parameter><parameter name="SSP">1</parameter><parameter name="ARG">2</parameter><parameter name="ASG">2</parameter><parameter name="ASS">32</parameter><parameter name="GFW">16</parameter><parameter name="GBW">16</parameter><parameter name="BFW">0</parameter><parameter name="BBW">0</parameter><parameter name="PKA">7266</parameter><parameter name="PKL">4996</parameter><parameter name="PRA">7450</parameter><parameter name="PRL">5001</parameter><parameter name="P2A">1</parameter><parameter name="P2L">1</parameter><parameter name="P2R">1</parameter><parameter name="P2K">1</parameter><parameter name="DAQ">0</parameter><parameter name="AG2">1</parameter><parameter name="SSM">1</parameter><parameter name="RSN">24924</parameter><parameter name="CRR">0</parameter><parameter name="SRT">1653652929.114</parameter><parameter name="DUR">19.635986328125</parameter><parameter name="TSC">27.9</parameter><parameter name="MVD">0.439118832349777</parameter><parameter name="AN1">0.225777051145048</parameter><parameter name="AN2">0</parameter><parameter name="VSN">2.485 Apr  4 2017</parameter><parameter name="SRN">0085</parameter><parameter name="CAM">0</parameter><parameter name="INS">IR-Biotyper</parameter><parameter name="FOC">69</parameter><parameter name="RDY">1</parameter><parameter name="ARS">32</parameter></Instrument_Parameters_Rf><Sample_Parameters_><parameter name="BLD"></parameter><parameter name="CNM">Admin</parameter><parameter name="CPY"></parameter><parameter name="DPM"></parameter><parameter name="EXP">IRBT_v3_32Scans.XPM</parameter><parameter name="LCT"></parameter><parameter name="SFM">Microplate, HTS-XT</parameter><parameter name="SNM">220527-1039(v.2)_GFG29M (D_8)_F8_eedaeab8-fd80-4316-b6f4-e65f0f0595a8.0</parameter><parameter name="XPP">C:\Users\Public\Documents\Bruker\OPUS_8.2.28\XPM</parameter><parameter name="IST">OK</parameter><parameter name="CPG">1252</parameter><parameter name="UID">4eaddc0b-a5d9-4aea-9141-03a490d9cb24</parameter></Sample_Parameters_><Instrument_Parameters_><parameter name="HFL">15800.168544</parameter><parameter name="LFL">0</parameter><parameter name="LWN">15800.168544</parameter><parameter name="ABP">32197</parameter><parameter name="SSP">1</parameter><parameter name="ASG">2</parameter><parameter name="ARG">2</parameter><parameter name="ASS">32</parameter><parameter name="GFW">16</parameter><parameter name="GBW">16</parameter><parameter name="BFW">0</parameter><parameter name="BBW">0</parameter><parameter name="PKA">8137</parameter><parameter name="PKL">4988</parameter><parameter name="PRA">8427</parameter><parameter name="PRL">4993</parameter><parameter name="P2A">1</parameter><parameter name="P2L">1</parameter><parameter name="P2R">1</parameter><parameter name="P2K">1</parameter><parameter name="DAQ">0</parameter><parameter name="AG2">1</parameter><parameter name="SSM">1</parameter><parameter name="RSN">13088</parameter><parameter name="CRR">0</parameter><parameter name="SRT">1653652955.112</parameter><parameter name="DUR">19.635986328125</parameter><parameter name="TSC">27.9</parameter><parameter name="MVD">0.188392609357834</parameter><parameter name="AN1">0.225809080669972</parameter><parameter name="AN2">0</parameter><parameter name="VSN">2.485 Apr  4 2017</parameter><parameter name="SRN">0085</parameter><parameter name="CAM">0</parameter><parameter name="INS">IR-Biotyper</parameter><parameter name="FOC">69</parameter><parameter name="RDY">1</parameter></Instrument_Parameters_><History/></OPUSDataFile>
