<?xml version="1.0" encoding="UTF-8" ?>
<OPUSDataFile><AB><Ydata ylabel="Absorbance Units"><values byteorder="INTEL" format="FLOAT32" numvalues="3497"> -0.02286498 -0.02290718 -0.02293987 -0.02296363 -0.02296902 -0.02295557 -0.02292494 -0.02287786 -0.02282385 -0.0227636
 -0.02270578 -0.02265025 -0.02260061 -0.02255735 -0.02252318 -0.02249906 -0.02248878 -0.02248991 -0.02250263 -0.02252014
 -0.02253667 -0.0225497 -0.02255415 -0.02255807 -0.02256299 -0.02257669 -0.02260354 -0.0226352 -0.02267222 -0.02269704
 -0.02270748 -0.0226997 -0.02267339 -0.02264485 -0.02261484 -0.02259847 -0.0225939 -0.02259834 -0.02260897 -0.02261359
 -0.02261237 -0.02259922 -0.02257665 -0.02254559 -0.02250952 -0.02247146 -0.02243775 -0.02241357 -0.0224054 -0.02242001
 -0.02245327 -0.02250785 -0.02256714 -0.02262772 -0.02267688 -0.02271092 -0.02273252 -0.02274139 -0.02274384 -0.02274023
 -0.02272804 -0.02270729 -0.02267594 -0.02263616 -0.0225999 -0.0225694 -0.02256103 -0.02257119 -0.02260097 -0.02264234
 -0.0226826 -0.02271614 -0.02273074 -0.02272683 -0.02269974 -0.02265497 -0.02259235 -0.0225236 -0.0224514 -0.02239094
 -0.02234674 -0.02232689 -0.02233456 -0.02236402 -0.0224155 -0.02247738 -0.022549 -0.02262185 -0.02269555 -0.02276401
 -0.02282574 -0.02286857 -0.0228907 -0.02287626 -0.0228307 -0.02275622 -0.02266593 -0.02258361 -0.02251536 -0.02248041
 -0.02247111 -0.02248975 -0.0225214 -0.02255838 -0.02259095 -0.02261246 -0.02262418 -0.02262514 -0.0226182 -0.02260402
 -0.02258146 -0.0225502 -0.02251279 -0.02246931 -0.02242823 -0.02238969 -0.0223572 -0.02233016 -0.02230578 -0.022285
 -0.02226946 -0.0222615 -0.02226879 -0.02229014 -0.02232925 -0.02237814 -0.02242937 -0.02247548 -0.02250637 -0.02252368
 -0.02252389 -0.02251638 -0.02250304 -0.02249463 -0.02249452 -0.02250791 -0.02253711 -0.02257778 -0.02263096 -0.02267637
 -0.02271301 -0.02270589 -0.02265542 -0.02255979 -0.02242622 -0.02230237 -0.02218959 -0.02211882 -0.02208486 -0.0220904
 -0.02213012 -0.02219833 -0.02228574 -0.02238221 -0.02247226 -0.02254004 -0.02257587 -0.02256521 -0.02252289 -0.02244775
 -0.02236885 -0.02229482 -0.02223744 -0.02220153 -0.02217969 -0.02217171 -0.02217064 -0.02217604 -0.02218686 -0.02220297
 -0.02222223 -0.02224403 -0.0222628 -0.02227905 -0.0222917 -0.02230162 -0.02231149 -0.02231916 -0.02232181 -0.0223184
 -0.02230464 -0.02228635 -0.02226651 -0.0222511 -0.02224546 -0.02224869 -0.02226225 -0.02228194 -0.02230729 -0.02233348
 -0.02236087 -0.02237713 -0.02238187 -0.02235419 -0.02229266 -0.02219251 -0.02205555 -0.02191093 -0.0217617 -0.02164397
 -0.02155538 -0.02150719 -0.02149291 -0.02150171 -0.02152922 -0.02156213 -0.02160096 -0.02164152 -0.02168414 -0.02173013
 -0.02177179 -0.02180683 -0.02182317 -0.02181384 -0.02177883 -0.02171339 -0.0216383 -0.02155543 -0.021488 -0.02143968
 -0.02141294 -0.02140834 -0.02141234 -0.02142442 -0.02143405 -0.0214425 -0.02145292 -0.02146725 -0.02149593 -0.02153725
 -0.02159384 -0.02165923 -0.02172368 -0.02178123 -0.0218186 -0.02183922 -0.02183771 -0.02183092 -0.0218258 -0.0218394
 -0.02188248 -0.02195446 -0.02206097 -0.02217889 -0.02230752 -0.02241129 -0.02248636 -0.0225072 -0.02247172 -0.02237667
 -0.02222375 -0.02204175 -0.02183584 -0.02165714 -0.02150573 -0.021411 -0.02136567 -0.02136668 -0.02140542 -0.02146654
 -0.02154116 -0.02161202 -0.0216748 -0.02171829 -0.02174746 -0.02176141 -0.02176794 -0.02177077 -0.02177164 -0.02177315
 -0.02176763 -0.02175442 -0.02172473 -0.02167652 -0.0216161 -0.02154347 -0.02147901 -0.02142354 -0.02139293 -0.02138587
 -0.02140248 -0.0214382 -0.02147586 -0.02150998 -0.02151497 -0.02149426 -0.02143973 -0.0213632 -0.02127798 -0.02118761
 -0.0211012 -0.0210141 -0.02092439 -0.02083403 -0.02074065 -0.02065789 -0.02058876 -0.0205446 -0.02052964 -0.02053828
 -0.02057177 -0.0206081 -0.02064617 -0.02065773 -0.02064235 -0.02059112 -0.02050859 -0.02042406 -0.02034079 -0.0202904
 -0.0202669 -0.02027038 -0.02029434 -0.02032655 -0.02036441 -0.02040084 -0.02043184 -0.02045217 -0.02045762 -0.02044236
 -0.02041137 -0.02036491 -0.02030942 -0.0202492 -0.02017467 -0.02008444 -0.01997212 -0.01983478 -0.0196929 -0.0195474
 -0.01942465 -0.01932507 -0.01925446 -0.01921098 -0.01918386 -0.01917168 -0.01916276 -0.01915733 -0.01915001 -0.01914181
 -0.01913279 -0.01912197 -0.01911017 -0.01909025 -0.01905791 -0.0190022 -0.01891152 -0.0187931 -0.01864218 -0.01848804
 -0.01833896 -0.01821026 -0.01810821 -0.01802529 -0.01796198 -0.01790347 -0.01784867 -0.01779069 -0.01772983 -0.01767478
 -0.01762635 -0.01759697 -0.01758249 -0.01757469 -0.01756339 -0.01751294 -0.01742576 -0.01728137 -0.01710845 -0.01693771
 -0.01678571 -0.01668558 -0.01661885 -0.01658776 -0.01655952 -0.01652034 -0.01645046 -0.01633736 -0.01619354 -0.01601725
 -0.01583548 -0.01565166 -0.01547892 -0.01531865 -0.01516891 -0.01502943 -0.01489388 -0.01476212 -0.0146298 -0.01449766
 -0.01436606 -0.01423681 -0.01411522 -0.01400229 -0.01390381 -0.01381611 -0.01373836 -0.01366251 -0.01358013 -0.01348872
 -0.01338216 -0.01326818 -0.01314907 -0.01302927 -0.01291245 -0.01279047 -0.01266218 -0.01252182 -0.01236726 -0.01220995
 -0.01205043 -0.01190205 -0.01176495 -0.01163769 -0.01151943 -0.01140269 -0.01128779 -0.01117226 -0.01105684 -0.01094235
 -0.01082942 -0.01071951 -0.01061335 -0.01051308 -0.0104173 -0.01032711 -0.01023586 -0.01014028 -0.01003364 -0.009910699
 -0.009774334 -0.00962311 -0.009466635 -0.009306379 -0.009150027 -0.008998693 -0.008856952 -0.008725238 -0.008605653 -0.00849814
 -0.008400474 -0.008311958 -0.008226359 -0.008142527 -0.008052196 -0.007954512 -0.007842345 -0.007716632 -0.007574836 -0.007420829
 -0.007258602 -0.007091555 -0.006925097 -0.006758214 -0.006591974 -0.006424296 -0.006252793 -0.006083245 -0.005915203 -0.005761954
 -0.00562643 -0.005515268 -0.005431045 -0.005362496 -0.005309412 -0.005250115 -0.005183798 -0.005097935 -0.004993824 -0.004876598
 -0.00474808 -0.004619719 -0.004490815 -0.004365383 -0.004241653 -0.004117411 -0.003993069 -0.003867668 -0.003743659 -0.003623247
 -0.003507428 -0.003398756 -0.003292928 -0.003189928 -0.003081037 -0.002963422 -0.002832227 -0.002684495 -0.002528038 -0.002362594
 -0.002203922 -0.002053315 -0.001917858 -0.00179749 -0.001685221 -0.001580335 -0.001473144 -0.001364764 -0.001254958 -0.00114575
 -0.00104342 -0.000947894 -0.0008630111 -0.000785284 -0.0007121321 -0.0006389098 -0.0005601014 -0.000473465 -0.0003752739 -0.0002671953
 -0.0001482316 -2.365087E-05 0.00010576 0.0002332526 0.0003576149 0.000472617 0.00057695 0.0006702061 0.0007518867 0.0008318661
 0.0009107687 0.001002702 0.001107244 0.001227836 0.001361358 0.001495108 0.00162676 0.001741331 0.001842118 0.001927344
 0.002003994 0.002081656 0.00216334 0.002256922 0.002358147 0.002467113 0.002577769 0.002687463 0.002792032 0.002889951
 0.002977585 0.003053932 0.003116836 0.003165329 0.003203784 0.003232193 0.003260718 0.003289859 0.003328252 0.003375936
 0.003436823 0.003510684 0.003598908 0.003700633 0.003815116 0.003939145 0.004066716 0.004193299 0.004309457 0.004414232
 0.004501885 0.004577522 0.00464217 0.004702496 0.004762483 0.00482344 0.004887194 0.004950528 0.005012607 0.005073793
 0.00513345 0.005198122 0.005268348 0.005347512 0.005435492 0.005524 0.005612054 0.005686314 0.005747978 0.005794482
 0.005830301 0.00586796 0.005909872 0.005969394 0.006040376 0.006121198 0.006201791 0.00626961 0.006324687 0.006359903
 0.006389395 0.006418062 0.006456104 0.006510293 0.006573343 0.006645725 0.006714948 0.006778722 0.006835556 0.006884991
 0.0069309 0.006973331 0.007010018 0.007040689 0.007061137 0.007072512 0.007077909 0.007079293 0.007084412 0.007094073
 0.007113964 0.007143167 0.007183346 0.007231676 0.007286286 0.007343963 0.007401158 0.007458839 0.00751581 0.007576627
 0.007643492 0.007714906 0.007792625 0.007864059 0.007928162 0.007971472 0.007992444 0.007990085 0.007964601 0.007928608
 0.007883255 0.007844764 0.007813048 0.007796842 0.00779402 0.00780253 0.007820655 0.007842991 0.007871006 0.007904162
 0.007945172 0.007997653 0.008060014 0.008133934 0.008211823 0.008291567 0.008363534 0.008424316 0.008467264 0.008489556
 0.00849258 0.008475038 0.008449186 0.00841559 0.008390345 0.008374123 0.00837326 0.008386756 0.008406987 0.008432969
 0.008454902 0.008474629 0.008492419 0.008511326 0.008539161 0.008574621 0.008620997 0.00867098 0.00871885 0.008757471
 0.008778643 0.00878361 0.008768979 0.008744913 0.008713599 0.008684556 0.00866088 0.008644056 0.008634892 0.008631208
 0.008632584 0.008643209 0.008663409 0.008704307 0.008765887 0.008853568 0.008964255 0.009086151 0.009213981 0.00932421
 0.009415263 0.009470059 0.009495519 0.009492663 0.009473539 0.0094518 0.009432819 0.009427596 0.009427084 0.009431389
 0.009425548 0.009403401 0.009360946 0.009294168 0.009214914 0.009123457 0.009036904 0.008956756 0.008894033 0.008849255
 0.0088256 0.008822452 0.008835238 0.008862157 0.008891526 0.008922059 0.008942532 0.008954986 0.008958064 0.008954879
 0.008951106 0.008944213 0.008935389 0.008916565 0.008881835 0.008827342 0.008747508 0.008649627 0.008533309 0.008412478
 0.00828969 0.008177192 0.008077079 0.007996821 0.007937423 0.00790028 0.0078854 0.007886636 0.007903212 0.007924816
 0.007950742 0.007972262 0.007988576 0.007993164 0.007984129 0.007954024 0.007902017 0.007822004 0.007718753 0.007592974
 0.007455253 0.007312665 0.007175112 0.007049705 0.006940182 0.006850039 0.006776882 0.006721543 0.00667705 0.006643114
 0.006609402 0.006575035 0.006531909 0.006479645 0.006418149 0.00634816 0.00627772 0.006207773 0.006147954 0.00609772
 0.006061277 0.006035512 0.006016362 0.005999337 0.005975429 0.005942904 0.005895148 0.00583643 0.005766456 0.00569377
 0.005622675 0.005558578 0.005505703 0.005459853 0.005422057 0.005380698 0.005334036 0.005275019 0.005202191 0.005123043
 0.005037968 0.004960572 0.004890662 0.004830626 0.004778687 0.00472535 0.004671186 0.00461216 0.004552029 0.004498128
 0.004451123 0.004417187 0.00439026 0.00436696 0.004339666 0.00430123 0.004248499 0.004177105 0.00408981 0.003985509
 0.003872157 0.003750439 0.003631701 0.003517531 0.003417214 0.003332003 0.003263492 0.003211763 0.003169854 0.003136979
 0.003101568 0.003063472 0.003014887 0.002958264 0.00289702 0.002835179 0.002784433 0.002744954 0.002724273 0.002715135
 0.002713651 0.002710145 0.002695051 0.002666098 0.002617205 0.002558108 0.002489441 0.002425967 0.002372162 0.002332742
 0.002311046 0.002291946 0.002275025 0.002237142 0.002177092 0.002088718 0.001973794 0.001852242 0.001726674 0.001623433
 0.001540613 0.001486899 0.001456057 0.001438335 0.001428362 0.001412746 0.001390461 0.001354589 0.001308045 0.001250452
 0.001186041 0.001117282 0.001045593 0.0009726691 0.0008956973 0.0008135418 0.000728038 0.0006375989 0.0005581737 0.0004907073
 0.0004540463 0.0004492159 0.0004731224 0.0005234766 0.0005702382 0.0006111537 0.0006161607 0.0005886367 0.0005230249 0.0004268607
 0.0003145633 0.0001921797 7.606194E-05 -3.180741E-05 -0.0001225757 -0.0001977638 -0.0002548036 -0.0002989664 -0.0003316172 -0.0003595579
 -0.0003855978 -0.0004136555 -0.0004455793 -0.0004809451 -0.0005201565 -0.0005607008 -0.0006024388 -0.0006425975 -0.0006810177 -0.0007159992
 -0.0007476796 -0.0007774463 -0.0008055907 -0.000834938 -0.0008648336 -0.0008947272 -0.0009232295 -0.0009465321 -0.0009644037 -0.0009741684
 -0.0009778036 -0.0009758744 -0.0009720817 -0.0009686518 -0.000970891 -0.0009817032 -0.001006294 -0.001048056 -0.001106005 -0.001182113
 -0.00126557 -0.001355434 -0.001439554 -0.001516154 -0.001584653 -0.001644913 -0.001708037 -0.001774412 -0.001852542 -0.001940966
 -0.002035611 -0.002133972 -0.002224903 -0.002307092 -0.002371604 -0.002419088 -0.002445619 -0.002455202 -0.002448624 -0.002436262
 -0.002424991 -0.002427133 -0.002452787 -0.002502753 -0.00258288 -0.002676381 -0.002781482 -0.002877768 -0.002960663 -0.00302527
 -0.003069783 -0.003105257 -0.003132223 -0.003162155 -0.003194968 -0.003231558 -0.003271155 -0.00330893 -0.003345651 -0.003380952
 -0.003417384 -0.003461504 -0.003513654 -0.003578856 -0.003652314 -0.00373126 -0.003809162 -0.003879155 -0.003939798 -0.003987597
 -0.004026138 -0.004056361 -0.004079621 -0.00409709 -0.004105497 -0.004104227 -0.004092388 -0.004069176 -0.004043156 -0.00401473
 -0.003998822 -0.003995867 -0.004015504 -0.004056333 -0.004115169 -0.004189108 -0.004265692 -0.00434332 -0.004411262 -0.004470921
 -0.004519817 -0.004559818 -0.004593042 -0.004618116 -0.004635204 -0.004641075 -0.004632841 -0.004612733 -0.004579234 -0.004542221
 -0.004503562 -0.004472453 -0.004451692 -0.004439261 -0.004436008 -0.004429112 -0.004417898 -0.004388636 -0.004341146 -0.004269998
 -0.004176847 -0.004068672 -0.003948548 -0.003831991 -0.003720099 -0.003625059 -0.003542178 -0.003469757 -0.003401218 -0.003326196
 -0.00324636 -0.003157574 -0.003069497 -0.002987927 -0.002914151 -0.002853393 -0.002789683 -0.002720359 -0.002630356 -0.002514404
 -0.002381139 -0.002229553 -0.002085891 -0.001951701 -0.00184399 -0.001762349 -0.001702154 -0.001661618 -0.001626479 -0.00159684
 -0.00156517 -0.001533536 -0.001503554 -0.001476412 -0.001455748 -0.001439601 -0.001428264 -0.001416154 -0.001399631 -0.001371896
 -0.001327928 -0.001264488 -0.001178243 -0.001072242 -0.0009459513 -0.000806077 -0.0006534508 -0.0004942896 -0.0003291749 -0.0001638787
 1.259399E-06 0.0001590536 0.0003091385 0.0004448808 0.0005662935 0.0006704124 0.000757099 0.000824675 0.0008719814 0.000895161
 0.0008935052 0.0008632622 0.0008064133 0.0007233215 0.000617497 0.0004925849 0.0003489139 0.0001889856 7.404215E-06 -0.0001970124
 -0.0004301064 -0.0006952305 -0.0009875601 -0.00130897 -0.001638837 -0.001976003 -0.00229482 -0.002593554 -0.002859187 -0.00309199
 -0.003296339 -0.003473508 -0.003634076 -0.003778578 -0.003914284 -0.004041796 -0.004166201 -0.004288051 -0.004411507 -0.00453425
 -0.004655835 -0.004771905 -0.004877792 -0.004973406 -0.005055988 -0.00513166 -0.005202398 -0.005272063 -0.005343475 -0.005410948
 -0.005474591 -0.005524594 -0.005559698 -0.005575739 -0.00557228 -0.005552349 -0.005516377 -0.005471766 -0.00541953 -0.005370021
 -0.005324285 -0.00529237 -0.005273848 -0.005273446 -0.005288456 -0.005316926 -0.005354696 -0.005396556 -0.005437575 -0.005472105
 -0.005496325 -0.005505617 -0.005501367 -0.005482026 -0.005454005 -0.00541854 -0.00538136 -0.00534384 -0.00530788 -0.005273473
 -0.005245359 -0.005223628 -0.005222348 -0.005242493 -0.005302357 -0.005401949 -0.00555142 -0.005747548 -0.005984609 -0.006255798
 -0.006541531 -0.006834497 -0.00711223 -0.007371983 -0.00759996 -0.007800477 -0.007971374 -0.008121288 -0.008254293 -0.008378116
 -0.008497424 -0.008613997 -0.008730205 -0.00884077 -0.008945343 -0.009037793 -0.009116879 -0.009184556 -0.009240706 -0.009295305
 -0.009348737 -0.009408299 -0.009473228 -0.00954162 -0.009612184 -0.009678509 -0.0097403 -0.009793162 -0.009838277 -0.009875238
 -0.009906658 -0.009935366 -0.009964192 -0.009997186 -0.0100339 -0.01007633 -0.01011933 -0.01016158 -0.01019784 -0.01022559
 -0.01024594 -0.01025791 -0.01026866 -0.01027877 -0.01029515 -0.01031836 -0.01034949 -0.01038832 -0.01043055 -0.01047558
 -0.0105171 -0.01055487 -0.0105842 -0.01060584 -0.01061877 -0.01062527 -0.01062873 -0.0106319 -0.0106402 -0.01065363
 -0.01067548 -0.01070039 -0.01072689 -0.01074769 -0.01075856 -0.01075852 -0.01074445 -0.01072718 -0.01070699 -0.01070081
 -0.01071097 -0.01074536 -0.01080504 -0.01087936 -0.01096729 -0.01104778 -0.01112053 -0.01117274 -0.01120666 -0.01122482
 -0.01122965 -0.01122939 -0.01122451 -0.01121956 -0.01121472 -0.0112116 -0.01121154 -0.01121643 -0.01122655 -0.01124333
 -0.01126412 -0.01128839 -0.01131309 -0.01133705 -0.01135945 -0.01137977 -0.01139904 -0.01141736 -0.01143527 -0.01145289
 -0.01146887 -0.01148308 -0.01149256 -0.01149741 -0.01149666 -0.01149164 -0.01148735 -0.01148551 -0.0114943 -0.01151238
 -0.01154243 -0.01157897 -0.01161607 -0.01164908 -0.01167033 -0.01168199 -0.01168173 -0.01167771 -0.01167267 -0.01167319
 -0.01168249 -0.01170028 -0.0117278 -0.01175847 -0.01179188 -0.01182049 -0.01184367 -0.01185872 -0.0118658 -0.01186936
 -0.01187001 -0.011875 -0.01188389 -0.01189902 -0.01191859 -0.01193863 -0.01195796 -0.01197168 -0.01198152 -0.01198692
 -0.01199225 -0.01200132 -0.01201729 -0.01204434 -0.01207999 -0.01212551 -0.01217275 -0.01222004 -0.01225922 -0.01228806
 -0.012304 -0.01230592 -0.01229857 -0.01228202 -0.01226617 -0.01225154 -0.01224853 -0.01225671 -0.01227845 -0.01231112
 -0.01234451 -0.01237612 -0.01239208 -0.01239521 -0.01238267 -0.01236261 -0.01234486 -0.0123352 -0.01234431 -0.0123687
 -0.01241108 -0.01246083 -0.01251436 -0.01256234 -0.01260069 -0.01262718 -0.01263991 -0.01264398 -0.01263928 -0.0126353
 -0.01263265 -0.01263964 -0.0126565 -0.0126852 -0.01272482 -0.01276881 -0.01281572 -0.0128551 -0.01288717 -0.01290606
 -0.01291528 -0.01291841 -0.01291974 -0.01292726 -0.01294156 -0.01296739 -0.01299971 -0.01303736 -0.01307381 -0.0131057
 -0.01312974 -0.01314383 -0.01314875 -0.01314392 -0.01313284 -0.01311559 -0.01309766 -0.01307938 -0.01306697 -0.01306066
 -0.01306407 -0.01307664 -0.01309543 -0.01311937 -0.01314164 -0.01316234 -0.01317783 -0.01318969 -0.01319952 -0.01320822
 -0.01321802 -0.01322813 -0.013238 -0.01324874 -0.01326005 -0.01327592 -0.0132987 -0.01332858 -0.01336787 -0.01340702
 -0.01344521 -0.01347043 -0.01348031 -0.01347449 -0.01345227 -0.01342693 -0.01339915 -0.013382 -0.01337494 -0.01337914
 -0.01339302 -0.01340966 -0.01342869 -0.0134453 -0.0134602 -0.01347302 -0.013483 -0.01348903 -0.01349025 -0.01348426
 -0.01347457 -0.01346162 -0.0134525 -0.0134511 -0.0134597 -0.01348133 -0.01350891 -0.01354204 -0.01357148 -0.01359566
 -0.01361183 -0.01361946 -0.01362196 -0.01361949 -0.01361602 -0.01361168 -0.01360892 -0.01360786 -0.01361052 -0.01361653
 -0.01362626 -0.01363825 -0.01364977 -0.01365953 -0.01366402 -0.01366423 -0.01365961 -0.01365196 -0.01364264 -0.01363176
 -0.01361943 -0.01360654 -0.01359246 -0.01358235 -0.01357706 -0.01358112 -0.01359601 -0.01361694 -0.01364389 -0.01366641
 -0.01368416 -0.01369488 -0.01369954 -0.01370654 -0.01371605 -0.01373445 -0.01375865 -0.01378275 -0.01380355 -0.01381018
 -0.0138052 -0.01378584 -0.01376065 -0.01373718 -0.01372126 -0.01372125 -0.01373209 -0.01375506 -0.01377873 -0.01379916
 -0.0138116 -0.01381321 -0.01380979 -0.01380151 -0.01379553 -0.01379259 -0.01379383 -0.01379928 -0.01380723 -0.01381761
 -0.01382961 -0.01384267 -0.01385415 -0.01386267 -0.01386211 -0.01385279 -0.01383098 -0.01380123 -0.01376768 -0.01373644
 -0.01371568 -0.01370728 -0.01371648 -0.01373791 -0.01377151 -0.01380799 -0.01384458 -0.01387411 -0.01389411 -0.01390346
 -0.01390107 -0.01389275 -0.01387866 -0.01386793 -0.01386096 -0.01386271 -0.01387254 -0.01388642 -0.01390328 -0.01391528
 -0.01392303 -0.01392376 -0.01391999 -0.01391573 -0.01391269 -0.01391563 -0.01392344 -0.01393724 -0.013954 -0.01397233
 -0.01398872 -0.01400129 -0.01400741 -0.01400548 -0.01399588 -0.01397774 -0.01395607 -0.01393113 -0.01390962 -0.01389218
 -0.0138818 -0.01387857 -0.01388115 -0.01388936 -0.01390117 -0.01391639 -0.01393354 -0.0139515 -0.01396597 -0.0139759
 -0.01397574 -0.01396847 -0.01395468 -0.01394138 -0.01393678 -0.013943 -0.01396707 -0.01399846 -0.01403544 -0.01406345
 -0.01407567 -0.01407089 -0.01404546 -0.01401442 -0.01397909 -0.01395365 -0.0139399 -0.01393682 -0.01394427 -0.0139523
 -0.01396101 -0.01396749 -0.01397307 -0.01398385 -0.01399942 -0.01402269 -0.01405041 -0.01407673 -0.01409973 -0.01411295
 -0.01411893 -0.01411775 -0.01411226 -0.01410513 -0.01409598 -0.01408497 -0.01407257 -0.01405809 -0.01404617 -0.01403785
 -0.01403597 -0.01404174 -0.01405066 -0.01406259 -0.01407147 -0.01407705 -0.01407926 -0.01407832 -0.01407676 -0.01407398
 -0.01406804 -0.01405841 -0.01404132 -0.01401899 -0.01399391 -0.01396945 -0.0139529 -0.01394286 -0.01394199 -0.01394385
 -0.01394373 -0.01394013 -0.01392898 -0.01391891 -0.01391183 -0.01391513 -0.01393264 -0.01395739 -0.01398984 -0.01401533
 -0.01403233 -0.01403608 -0.01402642 -0.01401125 -0.01399119 -0.0139757 -0.01396469 -0.01396244 -0.01396882 -0.0139855
 -0.01401278 -0.01405235 -0.01410388 -0.01416814 -0.01424318 -0.01432762 -0.01441868 -0.01451357 -0.01461169 -0.01471139
 -0.0148154 -0.01492487 -0.01503942 -0.015161 -0.01527782 -0.01538905 -0.01547964 -0.01554725 -0.01559813 -0.01563274
 -0.01567937 -0.01573765 -0.01581583 -0.01590622 -0.01597083 -0.01600361 -0.01595953 -0.01584879 -0.01566731 -0.01543861
 -0.01519661 -0.01495944 -0.01476175 -0.01460424 -0.0144992 -0.01443933 -0.01442382 -0.01444714 -0.01450802 -0.01459965
 -0.01472286 -0.01485807 -0.01500469 -0.01512974 -0.01522998 -0.01528706 -0.01530006 -0.01527462 -0.01521141 -0.01511915
 -0.01499868 -0.01485707 -0.01469835 -0.01453779 -0.01438309 -0.0142596 -0.01417057 -0.0141362 -0.0141448 -0.01419554
 -0.01426461 -0.01433472 -0.01438752 -0.01440593 -0.01439379 -0.01434574 -0.01428221 -0.01420656 -0.0141363 -0.01407514
 -0.01402858 -0.01399787 -0.01397887 -0.01397137 -0.01396636 -0.01396339 -0.01395436 -0.01393979 -0.01391801 -0.01389051
 -0.0138616 -0.01383212 -0.01380649 -0.01378387 -0.01376503 -0.01374848 -0.01373258 -0.0137172 -0.01370133 -0.01368663
 -0.01367382 -0.01366376 -0.0136573 -0.01365295 -0.0136505 -0.01364868 -0.01364703 -0.01364694 -0.01364849 -0.01365293
 -0.0136603 -0.01366791 -0.01367539 -0.01367726 -0.01367354 -0.013661 -0.01364082 -0.01361487 -0.01358535 -0.0135582
 -0.01353492 -0.01352121 -0.01351554 -0.01351927 -0.01352776 -0.01353819 -0.01354625 -0.01354853 -0.01354424 -0.0135318
 -0.01351387 -0.01349023 -0.01346622 -0.01344233 -0.01342497 -0.01341488 -0.01341546 -0.01342691 -0.01344616 -0.01347267
 -0.01349874 -0.01352407 -0.01354274 -0.01355547 -0.01356145 -0.01356185 -0.01355912 -0.01355366 -0.01354745 -0.01353978
 -0.01353026 -0.01351931 -0.01350641 -0.01349437 -0.01348456 -0.01347884 -0.01347899 -0.01348216 -0.01348833 -0.01349289
 -0.01349489 -0.01349331 -0.01348789 -0.01347969 -0.01346877 -0.01345382 -0.01343483 -0.01341088 -0.01338291 -0.01335589
 -0.01333119 -0.01331687 -0.01331234 -0.01332128 -0.01333969 -0.01336341 -0.01338736 -0.01340396 -0.01341086 -0.01340266
 -0.0133826 -0.01335008 -0.01331161 -0.01326935 -0.013228 -0.01318929 -0.01315457 -0.01312419 -0.01309947 -0.01308046
 -0.01306946 -0.01306661 -0.01307253 -0.01308696 -0.01310674 -0.01313121 -0.01315486 -0.01317719 -0.01319331 -0.01320356
 -0.01320602 -0.01320207 -0.01319283 -0.01318027 -0.01316699 -0.01315456 -0.01314523 -0.01313921 -0.01313779 -0.01313842
 -0.01314107 -0.01314079 -0.01313626 -0.01312465 -0.01310474 -0.01307971 -0.01304947 -0.01302091 -0.01299443 -0.01297481
 -0.01296199 -0.01295608 -0.01295647 -0.01295971 -0.01296504 -0.01296762 -0.01296753 -0.01296181 -0.01295262 -0.0129417
 -0.01293218 -0.01292877 -0.0129322 -0.01294555 -0.01296554 -0.01299184 -0.01301926 -0.01304587 -0.01306782 -0.01308355
 -0.01309226 -0.0130932 -0.01308945 -0.01308108 -0.01307308 -0.01306575 -0.01306125 -0.01305934 -0.01305671 -0.01305299
 -0.01304367 -0.01302968 -0.01301173 -0.01299178 -0.01297519 -0.01296272 -0.0129588 -0.01296145 -0.01297063 -0.01298289
 -0.01299557 -0.01300604 -0.01301209 -0.01301248 -0.01300613 -0.01299319 -0.01297311 -0.01294839 -0.01291889 -0.01288998
 -0.01286205 -0.01284097 -0.01282716 -0.0128213 -0.01282292 -0.01282502 -0.01282706 -0.01282138 -0.01280954 -0.0127928
 -0.01277441 -0.01276372 -0.01276114 -0.01277296 -0.01279461 -0.01282342 -0.01285478 -0.01288316 -0.01290881 -0.01293008
 -0.01294924 -0.0129676 -0.01298329 -0.01299669 -0.01300269 -0.0130002 -0.01298766 -0.01296438 -0.01293539 -0.01290092
 -0.0128677 -0.01283584 -0.01280771 -0.01278284 -0.01275888 -0.01273601 -0.01271317 -0.01269191 -0.01267566 -0.01266551
 -0.01266567 -0.01267432 -0.01269163 -0.01271369 -0.01273747 -0.0127599 -0.01277844 -0.01279139 -0.01279757 -0.01279608
 -0.01278619 -0.01276886 -0.01274364 -0.012715 -0.01268312 -0.01265433 -0.01262902 -0.01261152 -0.0126018 -0.0126
 -0.01260555 -0.01261486 -0.01262739 -0.0126391 -0.01265007 -0.0126584 -0.01266444 -0.01266807 -0.01266921 -0.01266751
 -0.01266348 -0.01265685 -0.01265008 -0.0126443 -0.01264197 -0.01264478 -0.01265196 -0.01266402 -0.01267794 -0.01269315
 -0.01270835 -0.01272333 -0.01273805 -0.01275256 -0.01276392 -0.01277181 -0.01277039 -0.01275985 -0.01273796 -0.01270637
 -0.01267008 -0.0126313 -0.0125986 -0.0125724 -0.01255819 -0.01255334 -0.01255753 -0.01256609 -0.01257505 -0.01258087
 -0.01257973 -0.01257234 -0.01255732 -0.01253934 -0.01251912 -0.01250162 -0.0124879 -0.01248026 -0.01247922 -0.01248406
 -0.01249481 -0.01250953 -0.01252813 -0.01254898 -0.01257183 -0.01259451 -0.01261589 -0.01263045 -0.01263687 -0.01262784
 -0.01260518 -0.01256723 -0.01252022 -0.01247094 -0.01242474 -0.01238989 -0.0123645 -0.01235087 -0.01234228 -0.01233631
 -0.0123293 -0.01231923 -0.01230737 -0.01229357 -0.01227971 -0.01226599 -0.01225331 -0.01224172 -0.01223247 -0.01222559
 -0.01222223 -0.01222206 -0.01222332 -0.01222524 -0.01222347 -0.01221798 -0.01220578 -0.01218886 -0.01216893 -0.01214907
 -0.01213421 -0.01212499 -0.01212458 -0.01212967 -0.01213938 -0.01215017 -0.0121602 -0.01216821 -0.01217356 -0.01217554
 -0.01217398 -0.01216803 -0.0121573 -0.01214459 -0.01212999 -0.01211862 -0.01211054 -0.01210647 -0.01210573 -0.01210343
 -0.01209964 -0.01209144 -0.01208065 -0.01207083 -0.01206295 -0.01206146 -0.01206368 -0.01206886 -0.01207209 -0.01206835
 -0.01205598 -0.01203079 -0.0119991 -0.01196132 -0.01192787 -0.01190232 -0.01188849 -0.0118887 -0.01189666 -0.01191218
 -0.01192691 -0.01194021 -0.01194874 -0.01195253 -0.01195261 -0.01194903 -0.01194274 -0.01193356 -0.01192113 -0.01190568
 -0.01188738 -0.01186721 -0.01184688 -0.01182752 -0.01181174 -0.01179884 -0.01178981 -0.0117814 -0.01177194 -0.01175899
 -0.0117403 -0.01171832 -0.01169278 -0.01166882 -0.01164761 -0.01163106 -0.01161979 -0.01161159 -0.01160635 -0.01160233
 -0.01159959 -0.01159975 -0.01160284 -0.01161027 -0.01162133 -0.01163392 -0.01164691 -0.01165605 -0.01166096 -0.01165898
 -0.0116502 -0.01163363 -0.0116096 -0.01157756 -0.01153941 -0.01149518 -0.01144979 -0.01140483 -0.01136558 -0.01133422
 -0.01131196 -0.01129982 -0.01129488 -0.01129706 -0.01130234 -0.01131041 -0.01131913 -0.01132847 -0.01133886 -0.01135035
 -0.01136376 -0.01137848 -0.01139238 -0.01140454 -0.01141069 -0.01141187 -0.01140748 -0.01140038 -0.01139494 -0.01139063
 -0.01138984 -0.01138714 -0.01137957 -0.01136421 -0.01133763 -0.01130474 -0.01126551 -0.01122808 -0.0111943 -0.01116737
 -0.0111482 -0.01113457 -0.01112638 -0.01112198 -0.01112133 -0.01112475 -0.01113176 -0.01113924 -0.01114561 -0.01114183
 -0.01112773 -0.01109656 -0.01105271 -0.01100112 -0.01094635 -0.01089761 -0.01085406 -0.01081837 -0.01078809 -0.01076161
 -0.01073997 -0.01072285 -0.01071298 -0.01071193 -0.01071733 -0.01072983 -0.01074142 -0.01075123 -0.01075291 -0.01074575
 -0.0107309 -0.01070856 -0.01068404 -0.01065755 -0.01063326 -0.01061079 -0.01059071 -0.01057252 -0.01055476 -0.01053779
 -0.01052148 -0.01050651 -0.01049421 -0.01048369 -0.01047515 -0.01046592 -0.01045429 -0.01043868 -0.0104174 -0.01039219
 -0.01036265 -0.01033316 -0.01030414 -0.01028107 -0.01026475 -0.01025854 -0.01026296 -0.01027469 -0.01029334 -0.01030902
 -0.01032095 -0.01031778 -0.01029994 -0.010262 -0.01020772 -0.01014448 -0.01007676 -0.01001761 -0.009967429 -0.009933049
 -0.009910812 -0.009900196 -0.009896254 -0.009895646 -0.009895147 -0.009892219 -0.009886668 -0.009877962 -0.00986642 -0.009852413
 -0.009833685 -0.009810243 -0.00977762 -0.009735347 -0.009683711 -0.009622982 -0.009561947 -0.009500823 -0.009445664 -0.009395313
 -0.009347445 -0.009301313 -0.009252874 -0.009203633 -0.009154457 -0.009107359 -0.009066042 -0.009030062 -0.009000858 -0.00897589
 -0.00895471 -0.008932582 -0.008908556 -0.008874142 -0.008826477 -0.008760307 -0.008672315 -0.008571711 -0.008458587 -0.008347502
 -0.008239822 -0.008138556 -0.008043682 -0.007950703 -0.007859639 -0.007769059 -0.007679186 -0.00759074 -0.007502944 -0.007413458
 -0.007322488 -0.007228424 -0.007134147 -0.007043761 -0.006957185 -0.006877342 -0.006798598 -0.006717815 -0.006631781 -0.006536909
 -0.006437395 -0.006333273 -0.006231037 -0.006133273 -0.006036335 -0.005941458 -0.005830956 -0.005703462 -0.005547322 -0.005362749
 -0.005169637 -0.004969466 -0.004785348 -0.004614354 -0.004454321 -0.00430225 -0.004147553 -0.003990336 -0.003826426 -0.003655221
 -0.003476242 -0.003282916 -0.003070693 -0.002828303 -0.002545588 -0.002220063 -0.001842669 -0.001436172 -0.001002922 -0.0005748128
 -0.0001601827 0.0002294282 0.0005906445 0.0009263394 0.001236318 0.001526225 0.001796633 0.002062161 0.002325331 0.002616943
 0.002936715 0.003305007 0.003708686 0.004117065 0.00452225 0.004888718 0.005226912 0.00553735 0.005828945 0.006112041
 0.006387982 0.006659332 0.006930714 0.007203766 0.007486113 0.007783315 0.008086032 0.008395033 0.00869038 0.008968323
 0.009226973 0.009465475 0.009694032 0.009912843 0.01011847 0.01031 0.01047567 0.01061779 0.01074015 0.01084854
 0.01096428 0.01108741 0.01123311 0.01138626 0.01153035 0.01165654 0.01174526 0.01180778 0.01184549 0.01187014
 0.01188889 0.01190371 0.01191766 0.01192572 0.01192777 0.01191702 0.01189274 0.01184821 0.01178262 0.01169576
 0.01158783 0.0114711 0.01134622 0.01122461 0.01110537 0.01098977 0.01087706 0.01076551 0.01065516 0.01054527
 0.01043625 0.01032819 0.01022195 0.01011783 0.01001843 0.0099249 0.0098416 0.009770815 0.009715567 0.009678018
 0.009656191 0.009650466 0.009656164 0.009672708 0.009696896 0.009728508 0.009763715 0.009802307 0.009840352 0.009878103
 0.009916254 0.009955878 0.01000275 0.01005765 0.01012626 0.01020815 0.01030564 0.01041675 0.01054031 0.0106726
 0.01080963 0.0109483 0.01108419 0.01121939 0.0113527 0.01149066 0.01163533 0.01179046 0.01195835 0.01213383
 0.01231716 0.01249754 0.01267393 0.01284103 0.01299872 0.01315462 0.01330929 0.01347315 0.01364334 0.01381127
 0.01397209 0.01410286 0.01420769 0.01428256 0.01433737 0.01438705 0.01443327 0.01448511 0.01453595 0.01458318
 0.01462354 0.01465511 0.01467519 0.01468604 0.01466899 0.01462189 0.01451992 0.01435471 0.01415223 0.01391268
 0.01368409 0.01346838 0.01326623 0.01307586 0.01287813 0.01267299 0.01245054 0.01221204 0.01195774 0.01168551
 0.0113929 0.01107235 0.01070744 0.01030453 0.009853411 0.009395264 0.008960031 0.008564652 0.008235104 0.007936443
 0.007662636 0.007384078 0.00709017 0.006781018 0.006453921 0.006124077 0.005792696 0.005468417 0.005151664 0.004843184
 0.004543341 0.004256184 0.003982732 0.003731276 0.003501129 0.003295527 0.003110701 0.002940833 0.002780676 0.002619713
 0.002454774 0.002278273 0.002090111 0.001888328 0.001672178 0.001440646 0.001193823 0.0009274749 0.0006612169 0.0003963826
 0.0001628188 -3.20571E-05 -0.0001943951 -0.0003231158 -0.0004427796 -0.0005545237 -0.0006684114 -0.0007835242 -0.0008920466 -0.000993582
 -0.00108074 -0.001156769 -0.001229227 -0.001299807 -0.001378206 -0.001458845 -0.001538397 -0.001608805 -0.001658253 -0.001687765
 -0.001693003 -0.001681203 -0.001656001 -0.001618492 -0.001571278 -0.001507477 -0.001426819 -0.001318947 -0.001182481 -0.001008351
 -0.00079496 -0.0005463494 -0.000262893 2.371912E-05 0.0003115185 0.0005664486 0.000790471 0.0009769649 0.001129116 0.001254376
 0.001353769 0.001432544 0.001492241 0.001535739 0.001569074 0.001597815 0.001632596 0.001683921 0.001755427 0.001856086
 0.001968847 0.002089979 0.002204881 0.002307398 0.002401655 0.002487141 0.002571168 0.002654772 0.002736026 0.002814844
 0.002884443 0.002945067 0.002997132 0.003042306 0.003090009 0.003141892 0.003209274 0.003291076 0.003391976 0.003506311
 0.0036271 0.003750245 0.003866403 0.003980585 0.004092344 0.004210767 0.004341367 0.004486538 0.004649858 0.004824425
 0.005009294 0.005198527 0.005390309 0.005587853 0.005791339 0.006003811 0.006225382 0.006441873 0.006651738 0.00683089
 0.006979785 0.007088449 0.007159268 0.007195722 0.007198453 0.007170787 0.007112067 0.007021608 0.006901835 0.006753822
 0.006583744 0.006397136 0.006196409 0.005986302 0.005759432 0.005514724 0.005243492 0.004940867 0.004616213 0.004267636
 0.003925473 0.003592419 0.003290317 0.003020449 0.002776318 0.002556672 0.002342969 0.00213559 0.001926656 0.001719235
 0.001520357 0.001331533 0.001161095 0.001005748 0.0008644582 0.0007323613 0.0006032425 0.0004750167 0.0003434004 0.000210165
 7.461286E-05 -5.941488E-05 -0.0001910272 -0.000315966 -0.0004330968 -0.0005393838 -0.0006338479 -0.0007174244 -0.000789769 -0.0008569466
 -0.000919276 -0.0009841027 -0.001051431 -0.001123554 -0.001199267 -0.001272836 -0.001342698 -0.001400112 -0.001444727 -0.001470956
 -0.001480252 -0.00147173 -0.001449046 -0.001415001 -0.001375426 -0.001335018 -0.001300023 -0.001275503 -0.001263031 -0.001265707
 -0.001277053 -0.001296695 -0.001315644 -0.001331934 -0.001343398 -0.001349103 -0.001356066 -0.001364628 -0.00138374 -0.001413491
 -0.001457416 -0.001514449 -0.001580844 -0.001654001 -0.001722879 -0.001785052 -0.001827828 -0.00185381 -0.001859768 -0.001854023
 -0.001845094 -0.001838464 -0.001843586 -0.001854934 -0.001873771 -0.001888075 -0.001892868 -0.001883537 -0.001855963 -0.001820081
 -0.001775832 -0.001739813 -0.001713857 -0.001706744 -0.001719124 -0.001746177 -0.001787169 -0.001830486 -0.00187591 -0.001915903
 -0.001951763 -0.001984215 -0.002014572 -0.002047179 -0.002080613 -0.002115411 -0.002147313 -0.002171441 -0.002185175 -0.002183056
 -0.002170026 -0.002145734 -0.002120567 -0.002098759 -0.002085412 -0.002084028 -0.002088691 -0.002099334 -0.002107678 -0.002112546
 -0.002113144 -0.002109339 -0.002105196 -0.002100633 -0.002095175 -0.002088235 -0.002075285 -0.002056982 -0.002032908 -0.002005066
 -0.001978758 -0.001953906 -0.00193393 -0.001914884 -0.001893734 -0.001866491 -0.001827789 -0.001779219 -0.001718677 -0.001653988
 -0.001586823 -0.001526573 -0.001476436 -0.001439665 -0.001418402 -0.001405142 -0.001399806 -0.001389864 -0.001374526 -0.001348946
 -0.001313581 -0.001275245 -0.001234531 -0.001199092 -0.001167812 -0.001140505 -0.001115856 -0.001089703 -0.001063398 -0.001036797
 -0.001012968 -0.0009957256 -0.0009865254 -0.0009883541 -0.000999887 -0.001021554 -0.001050615 -0.001086195 -0.001126052 -0.001169432
 -0.00121517 -0.001263039 -0.001311938 -0.001361851 -0.001410427 -0.001457521 -0.001501382 -0.001542039 -0.001579856 -0.00161494
 -0.001648359 -0.00167978 -0.001708413 -0.001734021 -0.001755164 -0.001772886 -0.001787678 -0.001802313 -0.001820122 -0.001843643
 -0.001876807 -0.001918501 -0.001970539 -0.002026319 -0.002084492 -0.002136693 -0.002180106 -0.002211498 -0.002229234 -0.002236981
 -0.002234709 -0.002228552 -0.002218881 -0.002210152 -0.002202492 -0.002198279 -0.002197439 -0.002200827 -0.00220809 -0.002218673
 -0.002231578 -0.002244483 -0.002255448 -0.002260516 -0.002257069 -0.002240243 -0.002208897 -0.002159733 -0.002094988 -0.002014333
 -0.00192248 -0.00182124 -0.001713652 -0.001601287 -0.001483389 -0.001360236 -0.001229468 -0.001090719 -0.0009440352 -0.0007893539
 -0.0006295602 -0.000464788 -0.0002976225 -0.0001278732 4.441442E-05 0.0002197056 0.0003995192 0.0005847431 0.0007781977 0.0009810084
 0.001196985 0.00142523 0.001667449 0.001918589 0.002175554 0.00243257 0.002684944 0.002931182 0.003169558 0.003400322
 0.003623992 0.003836809 0.00403844 0.004224047 0.004392578 0.004546647 0.004686199 0.004822243 0.004955365 0.005096466
 0.005245304 0.005405809 0.005576629 0.005754574 0.005938418 0.006122956 0.006308713 0.006493535 0.006680252 0.006871194
 0.007069585 0.007279485 0.007501133 0.007737227 0.007981936 0.008234809 0.008485849 0.008732555 0.008966647 0.009185718
 0.009388831 0.009575118 0.009750534 0.009915312 0.0100787 0.01024115 0.01041076 0.01058715 0.01077206 0.01096375
 0.01115588 0.01134758 0.01153241 0.01171266 0.01188928 0.01206511 0.01224495 0.01242789 0.0126156 0.01280409
 0.01299142 0.01317489 0.01335259 0.01352462 0.01369004 0.01385257 0.01401246 0.0141747 0.01434011 0.01450907
 0.01468175 0.01485434 0.01502687 0.01520014 0.0153748 0.01555682 0.01574554 0.01594247 0.01614438 0.01634384
 0.01653742 0.01671533 0.0168761 0.01701323 0.01712862 0.01722087 0.0172949 0.01735352 0.01739942 0.01743569
 0.0174577 0.01746458 0.01745321 0.01742101 0.01737962 0.01732911 0.01729038 0.01726499 0.01726205 0.01728111
 0.01731087 0.01734969 0.01737922 0.0174005 0.01740675 0.01740293 0.01739871 0.01739855 0.01741722 0.0174512
 0.01750438 0.01756535 0.01762542 0.01767588 0.01770759 0.01772126 0.01771473 0.01769166 0.01765309 0.01759945
 0.01753084 0.01744809 0.01735084 0.01724517 0.01713137 0.01701706 0.01690237 0.01678949 0.01667756 0.01656103
 0.01643915 0.01630476 0.01615989 0.01600576 0.01584626 0.01569038 0.0155376 0.01539299 0.01524885 0.01510027
 0.01494047 0.01476253 0.01456761 0.01435328 0.01412719 0.01389016 0.01365244 0.0134158 0.01318941 0.01297536
 0.01277107 0.01257698 0.01237352 0.01215958 0.01191341 0.01163593 0.0113233 0.01097941 0.01061863 0.01024429
 0.009873777 0.009506313 0.009149984 0.008798962 0.008449664 0.008094891 0.007725704 0.007341363 0.006936466 0.006520635
 0.006095202 0.005673958 0.005261042 0.004865929 0.004491612 0.004139876 0.003811993 0.003500796 0.0032061 0.002914735
 0.002626201 0.002331861 0.002032888 0.001734294 0.001438438 0.001158463 0.0008952792 0.0006584261 0.0004470169 0.0002637703
 0.0001076131 -2.108562E-05 -0.0001252778 -0.000205361 -0.0002706712 -0.0003251924 -0.0003826385 -0.0004504555 -0.0005347637 -0.0006415385
 -0.0007592438 -0.0008883913 -0.001007133 -0.001112583 -0.001192402 -0.001244983 -0.001278368 -0.001293323 -0.001308349 -0.001323658
 -0.001349913 -0.001384789 -0.001423695 -0.001464284 -0.001496119 -0.001521611 -0.001539102 -0.001555252 -0.001578912 -0.001613224
 -0.001666439 -0.001732321 -0.00181063 -0.001891023 -0.001968544 -0.002037984 -0.002096052 -0.002144305 -0.002182183 -0.002213884
 -0.002239841 -0.002263376 -0.002284866 -0.002303689 -0.002319679 -0.002327926 -0.002328355 -0.002317809 -0.002297271 -0.0022694
 -0.002235393 -0.00220002 -0.002163942 -0.00213045 -0.002100332 -0.002076358 -0.00205784 -0.002046108 -0.002037075 -0.002028528
 -0.002017346 -0.002000188 -0.001981442 -0.00196112 -0.001946316 -0.001939295 -0.001939214 -0.001947054 -0.001953001 -0.001956445
 -0.001948765 -0.001929723 -0.001897998 -0.001854076 -0.001801628 -0.001740872 -0.001674695 -0.001602971 -0.001526074 -0.001445585
 -0.001363757 -0.001284734 -0.00121511 -0.001157864 -0.001119762 -0.001096923 -0.00109057 -0.001090642 -0.001092932 -0.001090511
 -0.001079367 -0.001061226 -0.001035286 -0.001007125 -0.0009775319 -0.0009487009 -0.0009209603 -0.0008926609 -0.0008637806 -0.0008344225
 -0.0008048783 -0.0007780005 -0.000753711 -0.0007333074 -0.0007161365 -0.0007004773 -0.0006868886 -0.0006755323 -0.0006674489 -0.0006649583
 -0.0006663639 -0.0006713746 -0.0006768086 -0.0006794792 -0.000680892 -0.0006798528 -0.0006826447 -0.0006918055 -0.0007076743 -0.0007322676
 -0.0007550124 -0.0007751774 -0.000780781 -0.0007705485 -0.0007434539 -0.0006997021 -0.0006491179 -0.0005921974 -0.0005377714 -0.0004850219
 -0.0004343124 -0.0003853736 -0.0003363338 -0.0002903473 -0.0002528748 -0.0002266951 -0.000220648 -0.0002282862 -0.0002489349 -0.0002690178
 -0.0002779828 -0.0002712938 -0.0002412988 -0.0001993936 -0.0001474311 -9.558892E-05 -4.820128E-05 1.298582E-06 5.306162E-05 0.0001155798
 0.000190379 0.0002637434 0.0003346412 0.0003743962 0.0003833388 0.0003511282 0.0002830773 0.0001992616 0.000104425 2.485754E-05
 -4.145008E-05 -8.556445E-05 -0.000112338 -0.0001264506 -0.0001272584 -0.0001175018 -9.055059E-05 -4.248213E-05 3.073034E-05 0.000134564
 0.000260262 0.0004097389 0.0005583713 0.0007028516 0.0008157776 0.0008917339 0.0009252181 0.0009140617 0.0008851923 0.000840135
 0.0008139619 0.0008059249 0.0008238671 0.0008629107 0.0009017934 0.0009398964 0.0009611452 0.0009748326 0.0009924901 0.001022338
 0.001085785 0.001173406 0.001288055 0.00140597 0.00151095 0.001589266 0.001626278 0.001632898 0.00160722 0.00157136
 0.001529626 0.001497552 0.001477956 0.001478409 0.00149986 0.001545133 0.001614148 0.001698277 0.001795761 0.001885814
 0.001967428 0.002022964 0.002056214 0.002068757 0.00206681 0.002065335 0.00206525 0.002075624 0.00209153 0.0021097
 0.002130914 0.002152331 0.002183645 0.002231069 0.002292342 0.00237333 0.002444918 0.002502965 0.002518207 0.002482831
 0.002407919 0.002291911 0.002182933 0.002083362 0.002034777 0.002035906 0.002090792 0.002193782 0.002319135 0.002461784
 0.002592025 0.002709018 0.002795943 0.002856055 0.002886172 0.002892109 0.002877048 0.002850474 0.002818322 0.002792647
 0.002780611 0.002789754 0.002825063 0.002885145 0.002971624 0.003075982 0.003198565 0.003321608 0.003444354 0.003539907
 0.003607034 0.003631308 0.003615244 0.003578948 0.003527216 0.003497047 0.003487153 0.003514493 0.003571403 0.003649205
 0.003742708 0.003840304 0.00393991 0.004036631 0.004125254 0.004201202 0.004259279 0.004294381 0.004309538 0.00430312
 0.00428577 0.004258945 0.004234061 0.004213214 0.004201428 0.004199857 0.004201141 0.004204832 0.00419648 0.004175928
 0.004136011 0.004078288 0.004006328 0.003923215 0.003838808 0.003759578 0.003703856 0.003677257 0.00369975 0.003763283
 0.003869273 0.004001972 0.004148232 0.00430532 0.004469058 0.004638399 0.00481984 0.004975656 0.005098968 0.005158223
 0.005141841 0.005086422 0.004993139 0.004909631 0.00483813 0.004793978 0.004775858 0.004774075 0.004787571 0.004805077
 0.004828626 0.004859677 0.004899045 0.004951444 0.00501114 0.005072535 0.005127645 0.005163438 0.005182889 0.005180872
 0.005172651 0.005165106 0.005166983 0.005185192 0.005212032 0.005247033 0.005282757 0.005317368 0.005352727 0.005389199
 0.005422541 0.005452453 0.005465205 0.00546069 0.005433321 0.005384041 0.005316127 0.005228315 0.005116828 0.004982788
 0.004821714 0.004648339 0.004481271 0.004338211 0.004251416 0.004211124 0.004227418 0.004264005 0.004304349 0.004325612
 0.004309071 0.004277371 0.0042256 0.004215437 0.004255365 0.004390804 0.004630277 0.004940379 0.005319267 0.005681098
 0.006023952 0.006297972 0.006509048 0.006664467 0.006769395 0.006844533 0.006892005 0.006925559 0.006948027 0.006970146
 0.006992214 0.007019199 0.00704835 0.007078393 0.007109606 0.007141876 0.007175285 0.007209836 0.007245262 0.007279328
 0.007324953 0.007383038 0.007470947 0.007592203 0.007728974 0.007880248 0.007991407 0.008061189 0.008054904 0.007980353
 0.007860987 0.007710214 0.007586299 0.007496634 0.007491385 0.00755936 0.007712957 0.007916743 0.008138862 0.008345674
 0.008493902 0.008592157 0.008626934 0.008637939 0.008638667 0.008646967 0.00867382 0.008701594 0.008730218 0.008735473
 0.008714935 0.008654635 0.008553752 0.008412004 0.008231449 0.008036049 0.007830665 0.00765689 0.007515007 0.007431658
 0.007396086 0.007399432 0.007424947 0.007441274 0.007439642 0.007394195 0.0073154 0.007200115 0.007068928 0.006934294
 0.00680045 0.006674048 0.006543471 0.006404561 0.006263073 0.0061177 0.005988705 0.005879547 0.005778879 0.005686207
 0.005561601 0.005406097 0.00521975 0.005011878 0.004839541 0.004705969 0.004658646 0.004681521 0.004763422 0.004881867
 0.004992746 0.005089988 0.005146971 0.005173522 0.005169983 0.005141961 0.005095734 0.005022204 0.004920122 0.004778584
 0.004590958 0.004371439 0.004117011 0.003874406 0.003646877 0.003483584 0.003387463</values></Ydata></AB><ScSm><Ydata ylabel="Single channel"><values byteorder="INTEL" format="FLOAT32" numvalues="1814"> 0.06400412 0.06401902 0.06409065 0.06424106 0.06444412 0.06463799 0.06476784 0.06482287 0.06482551 0.06479175
 0.06473163 0.06468903 0.0647365 0.0649033 0.06512706 0.06529326 0.06532684 0.0652601 0.06521463 0.06528348
 0.06540766 0.065395 0.06510019 0.06458923 0.06409648 0.06380937 0.06375101 0.06391372 0.06437463 0.06508063
 0.06560293 0.06544057 0.06464834 0.06387109 0.06362982 0.06382087 0.06401144 0.06394047 0.06360421 0.06316026
 0.06296851 0.06349313 0.06484814 0.0664226 0.06710014 0.06596397 0.06295139 0.05906131 0.05598553 0.0552027
 0.05693783 0.05986067 0.06208232 0.06266209 0.06206241 0.06119782 0.06044931 0.0597745 0.05934259 0.05957647
 0.0605673 0.06167291 0.06184683 0.06053545 0.05833909 0.0565865 0.05612131 0.05677286 0.05806912 0.05975068
 0.06104315 0.060244 0.05639764 0.05141662 0.04923037 0.05205078 0.05801356 0.06300496 0.06432243 0.06218565
 0.0585409 0.05544444 0.05428839 0.05542623 0.05811088 0.06111998 0.06349759 0.06459277 0.06389547 0.06148127
 0.0584438 0.056361 0.05632335 0.05850872 0.06214781 0.06559129 0.06705642 0.06594411 0.06323917 0.06046825
 0.05869259 0.05851103 0.06021074 0.06346823 0.06732951 0.07076454 0.07308761 0.07402492 0.07377452 0.07288311
 0.07182573 0.07092007 0.07062332 0.07125807 0.07225027 0.07233824 0.07095043 0.06897443 0.06784482 0.06805797
 0.06877384 0.06883546 0.06793822 0.06644608 0.06425106 0.06074955 0.05623269 0.0522573 0.05009019 0.04974397
 0.0509101 0.05345551 0.05631971 0.05743723 0.05599402 0.05388347 0.05382396 0.05645502 0.06000176 0.06244928
 0.06341089 0.06399095 0.06535366 0.06752916 0.06926817 0.0689871 0.06634399 0.06312405 0.06198152 0.06383303
 0.0669708 0.06915618 0.06997772 0.07060203 0.07174034 0.07255135 0.07151981 0.06825597 0.06446567 0.06289725
 0.06494674 0.06926023 0.07271492 0.07272892 0.06899992 0.0635796 0.05927639 0.05771177 0.05888055 0.06221546
 0.06721437 0.07288672 0.07749543 0.07952003 0.07875822 0.07625546 0.07311018 0.06945178 0.06500246 0.06076687
 0.05924904 0.06208795 0.06796095 0.07368521 0.07705909 0.0779622 0.07711658 0.07472438 0.07067452 0.06587014
 0.06267083 0.06306213 0.06626615 0.0691747 0.06960075 0.06827345 0.06725417 0.06736404 0.06786951 0.06805922
 0.06827222 0.06932545 0.0713429 0.07344811 0.07461053 0.07457894 0.0739219 0.07336266 0.07312125 0.07275501
 0.07178561 0.07066534 0.07071856 0.07269079 0.07571821 0.07821314 0.07945613 0.07985528 0.07987885 0.07924064
 0.07731831 0.07432096 0.07176565 0.07135098 0.07331344 0.0762773 0.07868494 0.0799197 0.08016305 0.07982801
 0.07927642 0.07870199 0.07819471 0.07799607 0.07843813 0.07946802 0.08053887 0.08115926 0.08129688 0.08113134
 0.08070369 0.07999074 0.07915765 0.07855918 0.07848322 0.07893574 0.0796864 0.08047417 0.08109765 0.08137494
 0.08120891 0.08072884 0.0802151 0.07984383 0.07962476 0.07957543 0.07977857 0.08022234 0.08072345 0.08108097
 0.0812345 0.08123736 0.0811438 0.08097021 0.08073561 0.08050723 0.08039878 0.08049168 0.08073744 0.08098809
 0.08116492 0.08133402 0.08155477 0.08173113 0.08171327 0.08150363 0.08126711 0.08115235 0.08117327 0.08125389
 0.08131444 0.08128408 0.08108839 0.08071427 0.08030339 0.08010118 0.0802591 0.08072374 0.08132713 0.08190829
 0.08233989 0.08255158 0.08258191 0.08253723 0.0824673 0.08233371 0.08211119 0.08187491 0.08177424 0.0819236
 0.08230165 0.08275629 0.08312266 0.08332713 0.0833924 0.08340335 0.08346939 0.08363731 0.08381948 0.08387753
 0.08379404 0.08369996 0.08371776 0.08382592 0.08389779 0.08385178 0.08374505 0.08371402 0.08382934 0.08403246
 0.08421902 0.08435419 0.08448767 0.08466795 0.08485532 0.08493581 0.08484313 0.08465033 0.08449674 0.08443781
 0.0844288 0.08444621 0.08453915 0.08473225 0.08494531 0.0850638 0.08506751 0.08504708 0.0850894 0.08517395
 0.08520044 0.08510409 0.08492055 0.08474422 0.0846494 0.08465107 0.08471219 0.08477204 0.08478055 0.0847246
 0.0846277 0.08452381 0.08443411 0.0843754 0.08438474 0.08450538 0.08472125 0.08491823 0.08495161 0.08477622
 0.08449993 0.08429 0.08422335 0.08423214 0.08418998 0.08403514 0.08380675 0.08358372 0.08341291 0.08329137
 0.08319304 0.08310303 0.08304037 0.0830535 0.08317173 0.08334319 0.08344257 0.08337512 0.08317007 0.08294855
 0.08280928 0.08276688 0.08277845 0.08279407 0.08279484 0.08281006 0.08287913 0.08298028 0.08303316 0.08299482
 0.08291756 0.08289395 0.08298008 0.08317485 0.08341978 0.08360802 0.08365294 0.08357558 0.08348806 0.08347785
 0.08354072 0.08363038 0.08372702 0.08383608 0.08395448 0.08407272 0.08420275 0.08437818 0.08461922 0.08490276
 0.08516951 0.08536514 0.08548592 0.08559057 0.08575932 0.08603051 0.08637178 0.08671056 0.08699317 0.08722088
 0.0874325 0.08765395 0.08787583 0.088089 0.08832163 0.08861218 0.08895495 0.08930242 0.08962009 0.08991391
 0.09020564 0.09050535 0.09081446 0.09114389 0.09151958 0.09195733 0.09242214 0.09282817 0.0931057 0.09327032
 0.09341525 0.09364087 0.0939883 0.09440734 0.09477618 0.0949934 0.09508353 0.09518377 0.09539746 0.09569107
 0.09596865 0.09621494 0.09651145 0.0969163 0.09737551 0.09777188 0.0980418 0.09822784 0.09841923 0.09865104
 0.09887281 0.09902149 0.09910731 0.09920147 0.09934817 0.09953319 0.0997493 0.1000396 0.1004358 0.1008861
 0.1012905 0.1015918 0.1017998 0.1019481 0.1020634 0.102161 0.1022397 0.1022935 0.1023428 0.1024274
 0.1025509 0.1026664 0.1027417 0.1028076 0.1029191 0.103097 0.1033324 0.1036177 0.1039389 0.1042567
 0.1045423 0.104829 0.1051797 0.1055849 0.1059362 0.1061367 0.1062065 0.1062396 0.1062874 0.1063438
 0.1064244 0.106588 0.1068654 0.1072177 0.1075837 0.1079386 0.1082901 0.1086391 0.1089575 0.1091987
 0.1093294 0.1093609 0.1093531 0.1093863 0.1095223 0.1097746 0.1101003 0.1104257 0.1106937 0.1108821
 0.1109802 0.1109784 0.1109077 0.1108585 0.1109127 0.1110496 0.1111497 0.1110963 0.1108501 0.1104326
 0.1098752 0.1092084 0.1084822 0.1077716 0.1071563 0.1066938 0.1064153 0.1063468 0.1065219 0.10695
 0.1075702 0.1082619 0.1089091 0.1094303 0.1097421 0.1097457 0.1093933 0.108749 0.1079531 0.1071377
 0.1063816 0.1057061 0.1050828 0.1044766 0.1039282 0.1035895 0.1036521 0.1042356 0.10533 0.1068048
 0.1084498 0.1100412 0.111424 0.1125618 0.1135123 0.1143522 0.1151276 0.1158646 0.1165915 0.11732
 0.118016 0.1186267 0.1191415 0.1196015 0.1200459 0.120474 0.1208558 0.1211622 0.1213917 0.1215811
 0.1217731 0.1219576 0.1220709 0.1220711 0.1219888 0.1218829 0.1217683 0.1216059 0.1213454 0.1209647
 0.1205018 0.1200788 0.1198887 0.1201179 0.1208453 0.1219969 0.1234006 0.1248866 0.1263336 0.1276399
 0.1287043 0.1294752 0.1299968 0.1303741 0.1306983 0.1310163 0.1313481 0.1316982 0.1320545 0.1323985
 0.1327233 0.1330407 0.1333739 0.1337369 0.1341119 0.1344544 0.1347353 0.1349802 0.1352555 0.1356071
 0.1360147 0.1364139 0.1367677 0.1370988 0.1374392 0.1377691 0.1380384 0.1382402 0.1384275 0.1386581
 0.1389554 0.139311 0.1396919 0.1400444 0.1403258 0.140542 0.1407365 0.1409452 0.1411754 0.1414225
 0.1416849 0.1419601 0.1422384 0.1425167 0.1428072 0.1431192 0.1434282 0.1436841 0.1438641 0.1440049
 0.1441682 0.1443812 0.1446225 0.1448594 0.1450846 0.1453218 0.1456003 0.1459212 0.1462445 0.1465161
 0.1467136 0.146862 0.1470062 0.1471757 0.1473762 0.1476005 0.1478355 0.1480652 0.1482814 0.1484919
 0.1487139 0.1489546 0.1492036 0.1494436 0.1496661 0.1498744 0.150077 0.1502816 0.1504988 0.1507467
 0.1510388 0.151361 0.1516692 0.1519223 0.1521147 0.1522724 0.1524246 0.1525862 0.1527604 0.1529473
 0.1531488 0.1533681 0.153604 0.153846 0.1540798 0.1543007 0.1545165 0.1547375 0.1549667 0.1551989
 0.1554286 0.1556569 0.1558883 0.1561215 0.1563474 0.1565588 0.1567594 0.1569599 0.1571701 0.1573903
 0.1576101 0.1578176 0.158014 0.1582132 0.1584258 0.1586471 0.158864 0.1590686 0.1592641 0.1594602
 0.1596638 0.1598735 0.1600832 0.1602889 0.1604919 0.1606949 0.1608995 0.1611059 0.1613146 0.1615267
 0.1617412 0.1619536 0.1621607 0.1623662 0.1625762 0.1627907 0.1630031 0.1632083 0.1634066 0.1636021
 0.1637998 0.1640016 0.1642048 0.1644071 0.1646128 0.1648281 0.1650519 0.1652758 0.1654923 0.1657032
 0.1659178 0.1661414 0.1663683 0.1665908 0.1668109 0.167035 0.1672613 0.1674827 0.1676979 0.1679114
 0.1681274 0.1683491 0.1685788 0.1688124 0.1690391 0.1692489 0.1694397 0.1696185 0.1697959 0.1699766
 0.1701586 0.1703408 0.1705255 0.1707142 0.1709075 0.1711079 0.1713155 0.1715265 0.1717392 0.1719552
 0.1721726 0.1723883 0.172604 0.1728219 0.1730371 0.1732444 0.1734459 0.1736461 0.1738487 0.1740568
 0.174271 0.1744884 0.1747092 0.1749341 0.1751573 0.175374 0.1755908 0.1758154 0.1760422 0.1762603
 0.1764672 0.1766683 0.1768735 0.1770917 0.1773213 0.1775523 0.1777796 0.1780048 0.1782261 0.1784411
 0.1786549 0.1788699 0.1790811 0.17929 0.1795055 0.1797283 0.1799516 0.1801754 0.1804014 0.1806231
 0.1808356 0.1810426 0.1812511 0.1814679 0.1816943 0.1819187 0.1821301 0.1823381 0.1825545 0.1827582
 0.1828921 0.1828427 0.1823424 0.180853 0.1775481 0.1714741 0.1619209 0.148858 0.133101 0.1160302
 0.09908324 0.08337438 0.06957509 0.05799216 0.0487099 0.04168192 0.03678481 0.03390855 0.03305573 0.0344501
 0.03865613 0.04624246 0.05651184 0.06638346 0.07159693 0.07007469 0.06390543 0.05743828 0.05367305 0.05281962
 0.05359593 0.05490502 0.05639756 0.05827875 0.06090272 0.06436718 0.06848967 0.07324149 0.07896842 0.08593986
 0.09379792 0.1017049 0.109069 0.1160066 0.1230557 0.1305188 0.1381462 0.1453889 0.1518354 0.157407
 0.1622699 0.1666564 0.1707393 0.1746053 0.1782941 0.1818004 0.1849991 0.1876141 0.1893519 0.190127
 0.1901641 0.1898704 0.189597 0.1895047 0.1896088 0.189883 0.1903027 0.1908422 0.1914781 0.192195
 0.1929764 0.1937986 0.1946335 0.1954483 0.1962136 0.1969191 0.1975746 0.1981896 0.198762 0.1992869
 0.1997641 0.2001973 0.2005955 0.2009701 0.201328 0.2016707 0.2019991 0.2023123 0.2026056 0.2028769
 0.203131 0.203373 0.2036013 0.2038115 0.2040038 0.2041868 0.2043737 0.2045738 0.2047875 0.2050114
 0.2052436 0.2054784 0.2057041 0.2059128 0.2061073 0.2062952 0.2064816 0.2066696 0.2068606 0.2070527
 0.2072442 0.2074377 0.2076348 0.2078318 0.208024 0.2082124 0.2084028 0.2086007 0.2088058 0.209012
 0.2092156 0.2094223 0.209639 0.2098614 0.2100807 0.2102977 0.2105195 0.2107469 0.2109746 0.2111968
 0.2114042 0.2115861 0.211742 0.2118909 0.2120617 0.2122723 0.2125112 0.2127431 0.2129429 0.2131198
 0.2133024 0.2135046 0.2137126 0.2139013 0.2140618 0.2142231 0.2144303 0.2146939 0.2149784 0.2152504
 0.2155105 0.2157675 0.216018 0.2162587 0.2164865 0.2166815 0.2168232 0.2169324 0.2170783 0.2173298
 0.2176913 0.218089 0.2184327 0.2186949 0.2189152 0.2191439 0.219405 0.2196777 0.2198765 0.2199097
 0.2198214 0.2198204 0.220092 0.2206136 0.2212017 0.2216981 0.2220666 0.2223549 0.2226143 0.2228476
 0.2230061 0.2230462 0.2230129 0.2230598 0.2233374 0.2238362 0.2243827 0.2248166 0.2251181 0.2253449
 0.225538 0.2257146 0.2258352 0.2257552 0.2253749 0.2249034 0.2248038 0.2253464 0.2263047 0.2271983
 0.2277672 0.2281016 0.2283739 0.2286246 0.228818 0.2288769 0.2285686 0.2276417 0.2263184 0.2254312
 0.2257337 0.2271422 0.2288757 0.2302316 0.2310242 0.2314214 0.2316512 0.2318494 0.2319537 0.2317019
 0.2309265 0.2299517 0.2295161 0.2300885 0.2313401 0.2324984 0.2331383 0.2334072 0.2336133 0.2338795
 0.2340617 0.2337044 0.2322974 0.2300285 0.2281651 0.2281636 0.2302455 0.2331304 0.2353042 0.2363247
 0.2367072 0.2368063 0.2362925 0.2347443 0.2322794 0.2295034 0.2273166 0.2267867 0.228441 0.2313882
 0.2338289 0.2348325 0.2351179 0.2358658 0.2373123 0.2387614 0.2394916 0.2393115 0.238435 0.2370869
 0.2353957 0.23377 0.2331232 0.2342265 0.2367797 0.2395177 0.2413824 0.2423277 0.242769 0.2423453
 0.2396699 0.2339975 0.2273021 0.2237254 0.2259171 0.232264 0.2386228 0.2423949 0.2439504 0.2446778
 0.2451282 0.244865 0.2427193 0.2374252 0.2296028 0.2230156 0.2220288 0.2272899 0.2349993 0.2404636
 0.2412978 0.2376791 0.2315035 0.2258193 0.2235801 0.2258535 0.231358 0.2377273 0.2429278 0.2458198
 0.2461474 0.2444237 0.2418858 0.2401931 0.2402264 0.2407786 0.2394729 0.2357712 0.2318824 0.2295212
 0.2272446 0.2230989 0.2188939 0.2190072 0.2247042 0.2320369 0.2362876 0.2367532 0.2358931 0.2348315
 0.2314151 0.2233053 0.2124079 0.2049532 0.2060529 0.2143977 0.2234292 0.2277657 0.2274808 0.2261709
 0.2261556 0.2261147 0.2229486 0.2158236 0.2082223 0.2050177 0.207285 0.2113352 0.2130755 0.2112692
 0.2060971 0.1978556 0.1893214 0.186586 0.1939106 0.208505 0.2227201 0.2303478 0.2288787 0.2181131
 0.2010383 0.1856655 0.1811338 0.189514 0.2032876 0.2122714 0.2116961 0.2030265 0.1896034 0.1743824
 0.1613505 0.1559238 0.161685 0.1767646 0.1938989 0.2040319 0.2013034 0.1876182 0.173089 0.168759
 0.176526 0.1878192 0.1932078 0.1909679 0.1857119 0.1824466 0.1836975 0.1890957 0.1957701 0.2010319
 0.204517 0.2051489 0.1982461 0.1811394 0.1606312 0.1485313 0.1493968 0.1581699 0.169615 0.1830297
 0.1961406 0.2018711 0.196322 0.1861823 0.1830545 0.1911356 0.2036119 0.2109913 0.2105015 0.2066064
 0.2041032 0.2030037 0.2009301 0.1986624 0.2003329 0.2077309 0.2171818 0.2236496 0.2259747 0.2264217
 0.2268349 0.2272383 0.2271323 0.2263364 0.2249155 0.2233045 0.2221733 0.2216681 0.2212756 0.2206026
 0.2193547 0.2161597 0.2088554 0.197535 0.1865013 0.1808718 0.181156 0.1835767 0.1856852 0.1878003
 0.1877741 0.1795121 0.1610269 0.1410505 0.1326857 0.1407432 0.158159 0.1740411 0.182007 0.1807153
 0.170601 0.1540972 0.1382844 0.1326864 0.1414984 0.1595571 0.1778639 0.1913455 0.1994411 0.2018048
 0.1973552 0.1873552 0.1766646 0.1709706 0.173317 0.182751 0.1946461 0.2018986 0.1983917 0.185072
 0.1726707 0.1738045 0.1897286 0.2082416 0.2173974 0.217608 0.2168251 0.2181789 0.2184176 0.2165665
 0.2174065 0.2249058 0.2363694 0.245088 0.246218 0.2386895 0.2245989 0.2097055 0.201927 0.2049645
 0.2140515 0.2211033 0.2225243 0.2187321 0.209385 0.1953782 0.1839028 0.1841244 0.1965654 0.2118943
 0.2215293 0.2254529 0.2283335 0.2314847 0.2312773 0.2246512 0.2142378 0.2067486 0.2063383 0.210961
 0.2158216 0.2184311 0.2186521 0.215839 0.209234 0.2011918 0.1972116 0.2011623 0.2112638 0.2217347
 0.227951 0.2293333 0.2279836 0.2259537 0.2238682 0.2211062 0.2171728 0.2134664 0.2129973 0.2171618
 0.2234919 0.2281839 0.2304539 0.2327859 0.2370405 0.2418927 0.2444397 0.2433643 0.2401837 0.2379235
 0.238687 0.2419867 0.2451119 0.2454463 0.2429618 0.2404822 0.241084 0.2451581 0.2503682 0.2542974
 0.2564173 0.2575774 0.2585747 0.2594666 0.2595366 0.2578375 0.2545235 0.2516325 0.2516404 0.2550042
 0.2597264 0.2634244 0.2652557 0.265786 0.265684 0.2650263 0.2636746 0.2618961 0.2603843 0.2597142
 0.259935 0.2607066 0.2616599 0.2625521 0.2632523 0.263737 0.2640648 0.2642907 0.2644366 0.2645382
 0.2646302 0.2646736 0.2645993 0.2644572 0.26443 0.2646335 0.2649685 0.2652242 0.2652639 0.2650354
 0.26447 0.263505 0.2622011 0.2607188 0.2591388 0.2574138 0.2556046 0.2541282 0.253626 0.2544818
 0.2564672 0.2588875 0.2610571 0.2626333 0.2636015 0.2640972 0.2642866 0.2643235 0.2643119 0.2642781
 0.2641927 0.2640255 0.2637782 0.2634743 0.2631364 0.2627868 0.262457 0.2621747 0.2619316 0.26168
 0.2613671 0.2609739 0.2605208 0.2600443 0.2595614 0.2590462 0.2584397 0.2576922 0.2568035 0.2558312
 0.2548638 0.2539765 0.2531883 0.2524491 0.2516826 0.2508382 0.2498906 0.2488069 0.2475716 0.2462599
 0.2450289 0.2439955 0.2431419 0.2423551 0.2415256 0.2405902 0.2395257 0.2383458 0.2370916 0.2357975
 0.2344678 0.2330922 0.2316677 0.2301968 0.2286774 0.2271025 0.2254628 0.2237527 0.2219833 0.2201818
 0.2183559 0.2164515 0.2143492 0.2119038 0.2089862 0.2055099 0.2014555 0.1968955 0.1919936 0.1869631
 0.1820057 0.1772761 0.1728902 0.1689482 0.1655394 0.1627306 0.1605647 0.1590694 0.1582631 0.1581513
 0.1587223 0.15994 0.1617328 0.1639896 0.1665698 0.169316 0.1720625 0.1746543 0.1769937 0.179088
 0.1810323 0.1829166 0.1847458 0.1864594 0.1880133 0.1894087 0.1906467 0.1916987 0.1925409 0.1931944
 0.1937154 0.1941533 0.1945297 0.1948498 0.1951198 0.1953488 0.1955438 0.1957138 0.1958779 0.1960624
 0.1962876 0.196564 0.1968972 0.1972922 0.1977564 0.1982975 0.1989104 0.1995706 0.2002538 0.2009605
 0.2017108 0.2025206 0.2034039 0.2043894 0.2055151 0.2067999 0.2082317 0.2097758 0.211384 0.21299
 0.2145078 0.2158491 0.2169528 0.2178044 0.21843 0.2188735 0.2191754 0.2193593 0.2194314 0.2193955
 0.2192676 0.2190693 0.2188079 0.2184725 0.2180531 0.217555 0.2169946 0.2163925 0.2157734 0.2151648
 0.2145872 0.2140424 0.2135146 0.2129853 0.2124468 0.2119028 0.2113586 0.2108145 0.2102671 0.2097146
 0.2091594 0.2085979 0.2080067 0.2073443 0.2065768 0.205697 0.204714 0.203632 0.2024477 0.2011635
 0.1997907 0.1983403 0.1968157 0.1952157 0.1935427 0.1918002 0.1899774 0.1880513 0.1860254 0.1839627
 0.18196 0.1800879 0.1783628 0.1767635 0.1752566 0.1738159 0.1724327 0.1711087 0.1698425 0.168633
 0.1674887 0.1664169 0.1654065 0.1644396 0.1635152 0.162655 0.1618904 0.1612415 0.1607017 0.1602424
 0.159836 0.1594748 0.1591766 0.1589784 0.1589064 0.1589356 0.1589919 0.1590044 0.1589465 0.1588298
 0.1586827 0.1585356 0.1584093 0.1583081 0.1582245 0.1581345 0.1579845 0.1576882 0.1571422 0.1562597
 0.1550185 0.1534766 0.1517285 0.1498669 0.1480047 0.1462874 0.1448379 0.1437003 0.1428486 0.1422185
 0.141728 0.1413124 0.1409613 0.1407202 0.1406521 0.1407714 0.1409848 0.1411359 0.1411593 0.1411632
 0.1413268 0.1417476 0.1423953 0.1431537 0.1438857 0.1445013 0.1449795 0.1453259 0.145545 0.1456573
 0.1456903 0.1456464 0.1455132 0.1452915 0.1449917 0.144629 0.1442288 0.1437991 0.1433135 0.1427504
 0.1421133 0.1413955 0.140577 0.1396576 0.1386357 0.137493 0.1362819 0.1351932 0.1344694 0.1342686
 0.134605 0.1353529 0.1363229 0.1373809 0.1384303 0.1392663 0.139644 0.1396398 0.1398122 0.1408001
 0.1427337 0.1451057 0.1472146 0.1486576 0.1493982 0.1495233 0.1491022 0.1481936 0.1468069 0.1448901
 0.1424658 0.1396937 0.1367412 0.1337352 0.1308544 0.1282918 0.1261367 0.1243979 0.1230584 0.1221303
 0.1217163 0.1214541 0.1195164 0.113546 0.1043084 0.09736219 0.0984124 0.1069028 0.1163813 0.121314
 0.1215052 0.1198692 0.1184256 0.1174657 0.1168767 0.1168183 0.1174453 0.1186205 0.1199456 0.1210174
 0.1216808 0.1219784 0.12186 0.1209625 0.118566 0.1138402 0.1065122 0.09745086 0.08837479 0.08085275
 0.075598 0.0724883 0.07091115 0.07011439 0.06956739 0.06921056 0.06936155 0.07034735 0.07222975 0.07485242
 0.07801215 0.08144549 0.08473434 0.08746848 0.08955353 0.09119712 0.09255894 0.09355945 0.09404755 0.09401193
 0.09358662 0.09294528 0.09222652 0.09149012 0.09068082 0.08967003 0.08843081 0.08718596 0.08627689 0.08584205
 0.08571894 0.08568131 0.08564809 0.08563771 0.08565428 0.08567231 0.08566996 0.08567116 0.08577409 0.08607933
 0.08656076 0.08706048 0.08742283 0.08760513 0.08767304 0.08767958 0.08752429 0.08703456 0.08627953 0.0856218
 0.08525017 0.08483548 0.08393922 0.08266397 0.0816135 0.08123602 0.08142682 0.08176002 0.0819059 0.08179992
 0.08160447 0.08161123 0.08203193 0.08272435</values></Ydata></ScSm><ScRf><Ydata ylabel="Single channel"><values byteorder="INTEL" format="FLOAT32" numvalues="1820"> 0.0604419 0.06059505 0.06069129 0.06072713 0.06072383 0.06072695 0.06078908 0.06093526 0.06113997 0.06133982
 0.06147826 0.06154279 0.0615529 0.06152189 0.06146064 0.06141607 0.06145995 0.06161623 0.06182117 0.06196965
 0.0619991 0.06194226 0.06190682 0.06197398 0.0620895 0.06207741 0.06180281 0.06132699 0.06086888 0.06060095
 0.06053986 0.06067947 0.06110149 0.06176269 0.06225583 0.06210282 0.06135649 0.0606289 0.06040813 0.06058821
 0.0607591 0.06068188 0.06036127 0.05994917 0.05978434 0.06030072 0.06159814 0.06309082 0.06372005 0.06262162
 0.05974241 0.05603534 0.05311107 0.05237692 0.0540435 0.05683656 0.05895177 0.05949588 0.05891725 0.05809165
 0.05738127 0.05674459 0.05634241 0.05657504 0.05752573 0.05858309 0.05875389 0.05751062 0.05541997 0.05374437
 0.05329097 0.05390365 0.055135 0.05673449 0.05796093 0.05719442 0.05353093 0.04879635 0.04673137 0.0494358
 0.05512666 0.0598814 0.06112608 0.05907464 0.05558909 0.05263608 0.05154359 0.0526415 0.05520833 0.05807599
 0.06033742 0.0613767 0.06070996 0.05841069 0.05552081 0.05353963 0.05350186 0.05557794 0.059039 0.06231521
 0.06370786 0.06264687 0.06007047 0.05743216 0.05574574 0.05558867 0.0572367 0.06037216 0.06407176 0.06734778
 0.06955226 0.07043286 0.07018164 0.06932004 0.06830579 0.06744954 0.0671871 0.06781457 0.06877293 0.06885868
 0.06753457 0.06565112 0.06457187 0.06476384 0.06542698 0.06546798 0.06460636 0.06318853 0.06110063 0.05775759
 0.05343766 0.04963309 0.04756058 0.0472395 0.04837813 0.05084153 0.05360249 0.05468039 0.05330042 0.05127565
 0.05120379 0.0536979 0.05706858 0.05939586 0.06031058 0.06086673 0.06217627 0.06426578 0.06593651 0.06567192
 0.06314723 0.06007335 0.0589892 0.06076956 0.06378168 0.06588836 0.06669769 0.06731958 0.06842405 0.0692012
 0.06820792 0.0650856 0.06147543 0.05999992 0.06197739 0.06610264 0.06939465 0.06939703 0.06582899 0.06065404
 0.05655414 0.05507338 0.0562047 0.05941287 0.06422517 0.0696889 0.07412829 0.07608111 0.0753576 0.07296506
 0.06995796 0.06646027 0.06220697 0.05816452 0.05673713 0.0594956 0.06516489 0.07068487 0.07394257 0.07482773
 0.0740357 0.07175441 0.06787099 0.06326048 0.06020801 0.06062745 0.06375352 0.06657692 0.06699592 0.06573262
 0.0647857 0.06494197 0.06548192 0.06571168 0.06595857 0.06701559 0.06900631 0.07108349 0.07224561 0.07224454
 0.07163242 0.07111776 0.07091817 0.07060035 0.06969631 0.06864846 0.06874701 0.07071365 0.0737038 0.07617296
 0.07742321 0.07785206 0.07791427 0.07732873 0.07548559 0.07258847 0.07012379 0.06975795 0.071725 0.07467731
 0.07708571 0.07834096 0.07861735 0.07832018 0.07780832 0.0772775 0.07682078 0.0766764 0.07716747 0.07823856
 0.0793516 0.08002348 0.0802175 0.08010071 0.07970822 0.07902388 0.07822444 0.07766804 0.07763623 0.07812846
 0.07891498 0.07973914 0.08040144 0.08071877 0.08059257 0.08015354 0.07968632 0.07936986 0.07920939 0.07921275
 0.07945797 0.07993783 0.08047583 0.08087143 0.08105972 0.08109157 0.08102445 0.08088069 0.08068289 0.08049777
 0.08043525 0.0805719 0.08085495 0.08113591 0.08134229 0.08154925 0.08181788 0.08204269 0.08206309 0.08188163
 0.08167291 0.08159277 0.08165355 0.08177383 0.08186936 0.08186562 0.08168593 0.08131987 0.08091685 0.08073001
 0.08091492 0.08141889 0.08207149 0.0827046 0.08318108 0.08342531 0.08347929 0.08345648 0.0834093 0.08329711
 0.08309446 0.08288147 0.08281134 0.08299454 0.08340111 0.08387637 0.08426298 0.08449524 0.08459184 0.08462623
 0.08470562 0.08488804 0.08509414 0.0851799 0.08511882 0.08504203 0.08507608 0.08519767 0.08527573 0.08523002
 0.08512469 0.08510283 0.08523697 0.0854648 0.08567638 0.08583611 0.08599785 0.08621028 0.0864242 0.08651382
 0.08641063 0.08619799 0.08602933 0.085967 0.08596355 0.08599112 0.08610004 0.08631861 0.08656469 0.08671509
 0.08674039 0.08672681 0.08676337 0.08683766 0.0868587 0.08676481 0.086587 0.08641498 0.08632547 0.08633965
 0.08642061 0.08649845 0.08651278 0.08644894 0.08633845 0.08622397 0.08612916 0.08607021 0.08608799 0.08623409
 0.08649499 0.08674428 0.08681558 0.08665042 0.08636339 0.08614093 0.08607155 0.0860808 0.08602716 0.08584291
 0.08557577 0.08531861 0.08512737 0.08500119 0.08490972 0.08482902 0.08477064 0.08478373 0.08490238 0.08507233
 0.08515762 0.08505639 0.08480318 0.08453232 0.08435412 0.08428918 0.08429486 0.08431596 0.08432586 0.08434775
 0.0844162 0.08450279 0.08452176 0.0844333 0.08430203 0.08423313 0.08428857 0.08446623 0.08470179 0.08487935
 0.08490531 0.08480108 0.08468626 0.08465627 0.08470908 0.08479328 0.08488047 0.084971 0.08506411 0.08515795
 0.08527027 0.08543301 0.08565846 0.08591793 0.08615613 0.08632709 0.08642852 0.0865135 0.08666112 0.08691603
 0.08724922 0.08758171 0.08784989 0.0880498 0.08822174 0.08839796 0.0885779 0.08875965 0.08897306 0.08925185
 0.08958183 0.08990995 0.09020521 0.09048343 0.09077132 0.09107202 0.09137463 0.09168482 0.09203547 0.0924549
 0.09291278 0.09331217 0.09356593 0.09368546 0.09377997 0.09397022 0.09430301 0.09471803 0.09507994 0.09528045
 0.09534525 0.09541619 0.09559894 0.09585801 0.0960988 0.09631839 0.09661275 0.09703719 0.09751388 0.09790181
 0.09813426 0.09826872 0.09841142 0.0986068 0.09880583 0.09894074 0.09901473 0.09909444 0.09922372 0.0993903
 0.09958922 0.09986484 0.1002476 0.1006838 0.1010744 0.1013661 0.1015709 0.1017202 0.1018357 0.1019259
 0.1019835 0.1020024 0.1020117 0.1020616 0.1021565 0.1022411 0.1022768 0.1022983 0.1023709 0.1025235
 0.1027498 0.103038 0.10336 0.1036603 0.1039058 0.1041436 0.104455 0.1048364 0.1051717 0.1053554
 0.1054066 0.1054222 0.1054525 0.1054854 0.1055325 0.1056579 0.1059018 0.1062298 0.1065792 0.1069235
 0.107273 0.1076293 0.1079572 0.1081975 0.1083089 0.1083064 0.1082617 0.1082645 0.1083781 0.1086137
 0.10893 0.109258 0.1095397 0.109744 0.1098506 0.1098514 0.109788 0.1097622 0.1098595 0.110052
 0.1102064 0.1101961 0.1099861 0.1096095 0.1090992 0.1084751 0.1077835 0.107113 0.1065571 0.1061668
 0.1059514 0.1059227 0.1061181 0.1065594 0.1071924 0.1078951 0.1085488 0.109074 0.109395 0.1094234
 0.1091166 0.108536 0.1078149 0.1070787 0.1064003 0.105795 0.1052286 0.1046635 0.1041386 0.1038024
 0.103844 0.1043847 0.1054183 0.1068147 0.1083573 0.1098152 0.1110369 0.1120053 0.1128026 0.1135185
 0.114196 0.1148514 0.1155052 0.1161635 0.1167888 0.1173312 0.1177873 0.1182 0.118602 0.1189879
 0.1193329 0.1196179 0.1198461 0.1200512 0.1202675 0.1204743 0.1205979 0.1205929 0.1204934 0.1203666
 0.1202373 0.1200747 0.1198291 0.119472 0.1190343 0.1186339 0.1184561 0.1186713 0.1193394 0.120377
 0.121621 0.122927 0.1242038 0.125369 0.1263238 0.1270073 0.1274518 0.1277567 0.1280163 0.1282832
 0.1285751 0.1288866 0.1291985 0.129495 0.1297764 0.1300592 0.1303655 0.1307037 0.13105 0.1313598
 0.1316107 0.1318346 0.1320962 0.1324328 0.132817 0.1331845 0.1335038 0.1338043 0.1341225 0.1344392
 0.1347 0.1348904 0.1350592 0.1352696 0.135555 0.1359105 0.136292 0.1366279 0.136867 0.1370266
 0.1371721 0.1373526 0.1375717 0.1378143 0.1380731 0.1383422 0.138609 0.1388689 0.1391369 0.1394264
 0.1397148 0.1399527 0.1401172 0.1402457 0.1404014 0.1406112 0.1408476 0.1410688 0.1412669 0.1414758
 0.1417362 0.1420497 0.1423664 0.1426236 0.1427985 0.1429225 0.1430485 0.1432083 0.1434023 0.1436153
 0.1438322 0.1440433 0.1442463 0.1444477 0.1446559 0.1448705 0.1450831 0.1452875 0.1454867 0.1456882
 0.1458949 0.1461023 0.1463089 0.1465305 0.1467939 0.1471022 0.147413 0.147668 0.1478444 0.147968
 0.148082 0.1482157 0.1483772 0.1485611 0.1487575 0.1489595 0.1491637 0.1493684 0.1495731 0.1497793
 0.1499874 0.1501945 0.1503977 0.1505982 0.1508014 0.151015 0.1512433 0.1514807 0.1517114 0.1519206
 0.1521077 0.1522871 0.1524768 0.1526816 0.1528886 0.1530832 0.1532666 0.1534509 0.1536401 0.1538283
 0.1540147 0.1542073 0.1544108 0.1546187 0.1548216 0.1550169 0.1552077 0.1553966 0.1555857 0.1557801
 0.1559837 0.1561918 0.1563929 0.1565827 0.1567685 0.1569583 0.1571536 0.1573539 0.1575602 0.1577689
 0.1579711 0.1581621 0.1583469 0.1585348 0.1587306 0.1589333 0.1591389 0.1593441 0.1595458 0.1597438
 0.1599427 0.1601472 0.1603526 0.1605502 0.160742 0.1609432 0.1611634 0.1613952 0.1616228 0.1618369
 0.1620396 0.162241 0.1624486 0.1626607 0.1628718 0.1630829 0.1632982 0.1635153 0.1637284 0.1639364
 0.1641406 0.1643376 0.1645205 0.1646852 0.1648365 0.1649877 0.1651535 0.165338 0.1655345 0.1657332
 0.165928 0.1661208 0.1663204 0.1665312 0.1667444 0.1669492 0.1671468 0.1673447 0.1675453 0.167749
 0.1679577 0.1681694 0.1683781 0.1685824 0.1687842 0.1689839 0.1691846 0.169394 0.1696135 0.1698337
 0.1700433 0.1702404 0.1704344 0.1706397 0.1708592 0.1710788 0.1712877 0.1714945 0.1717106 0.1719296
 0.1721385 0.1723365 0.1725322 0.1727332 0.1729427 0.1731569 0.1733702 0.173583 0.173797 0.1740082
 0.1742159 0.1744283 0.1746474 0.1748642 0.1750768 0.1752933 0.1755144 0.1757345 0.1759533 0.1761718
 0.1763848 0.1765895 0.1767846 0.1769582 0.1770755 0.1770342 0.1765642 0.1751308 0.1719271 0.1660276
 0.1567451 0.1440547 0.128756 0.1121946 0.09576479 0.08054242 0.0671761 0.0559659 0.04699384 0.0402065
 0.0354736 0.0326875 0.03186005 0.03321737 0.03730784 0.04467715 0.05464222 0.06421189 0.06925555 0.0677624
 0.0617627 0.05547779 0.05181915 0.05099196 0.05175492 0.05304616 0.05452538 0.0563831 0.05894834 0.06230446
 0.06627712 0.07085553 0.07639318 0.08315627 0.09078935 0.09846835 0.1056124 0.1123347 0.1191629 0.1263977
 0.1337997 0.1408327 0.1470927 0.1525021 0.1572244 0.1614856 0.1654505 0.1692012 0.1727777 0.1761765
 0.1792749 0.1818033 0.1834818 0.1842354 0.1842863 0.1840249 0.18378 0.183698 0.1837939 0.1840519
 0.1844587 0.184993 0.1856287 0.1863422 0.1871072 0.1878954 0.1886839 0.1894529 0.1901829 0.190865
 0.1915041 0.1921062 0.1926697 0.1931894 0.1936591 0.1940784 0.1944596 0.1948215 0.1951732 0.1955151
 0.1958498 0.1961769 0.1964829 0.1967523 0.1969857 0.1971993 0.1974103 0.1976256 0.1978424 0.1980567
 0.1982712 0.1984913 0.1987146 0.1989344 0.199148 0.1993552 0.1995544 0.1997463 0.1999365 0.2001287
 0.2003209 0.2005104 0.2006964 0.2008813 0.2010726 0.2012785 0.2014959 0.20171 0.2019085 0.2020922
 0.2022729 0.2024644 0.2026707 0.20288 0.2030776 0.2032637 0.2034499 0.203643 0.203843 0.2040531
 0.2042753 0.2045023 0.2047255 0.2049446 0.2051578 0.2053518 0.2055158 0.2056604 0.2058163 0.2060099
 0.206238 0.2064707 0.2066838 0.206882 0.2070838 0.2072927 0.2074945 0.2076764 0.2078419 0.2080148
 0.208221 0.2084607 0.2087089 0.2089477 0.2091811 0.2094143 0.2096467 0.2098842 0.2101268 0.2103473
 0.2105143 0.2106442 0.2108076 0.211072 0.2114346 0.2118161 0.2121312 0.2123639 0.2125623 0.2127806
 0.213045 0.2133338 0.213556 0.2136115 0.2135354 0.2135305 0.2137834 0.2142795 0.2148442 0.2153241
 0.2156849 0.2159713 0.2162276 0.2164503 0.2165924 0.2166168 0.2165702 0.2166023 0.2168648 0.2173584
 0.2179173 0.2183753 0.2186958 0.2189246 0.2191057 0.2192698 0.2193904 0.219328 0.2189773 0.2185313
 0.2184351 0.2189522 0.2198657 0.220712 0.2212438 0.2215604 0.2218425 0.2221288 0.2223641 0.2224516
 0.2221636 0.2212689 0.2199929 0.2191438 0.219451 0.2208314 0.2225235 0.2238426 0.2246118 0.2250025
 0.2252412 0.2254539 0.2255673 0.2253204 0.2245563 0.2235991 0.223171 0.2237299 0.2249575 0.2260976
 0.2267281 0.2269913 0.2271954 0.2274644 0.2276502 0.2273019 0.2259291 0.2237299 0.2219447 0.2219789
 0.2240268 0.2268329 0.2289333 0.2299132 0.2302812 0.2303807 0.2298897 0.2283982 0.2260196 0.223338
 0.221224 0.2207167 0.2223374 0.2252255 0.2276264 0.2286239 0.2289132 0.229647 0.231058 0.2324659
 0.2331663 0.2329779 0.232118 0.2308118 0.2291862 0.2276386 0.2270538 0.228172 0.2306891 0.2333682
 0.2351829 0.2360958 0.2365161 0.2360913 0.2334701 0.2279318 0.2214072 0.2179291 0.2200688 0.226253
 0.2324581 0.2361625 0.2377185 0.2384615 0.2389205 0.2386727 0.2365822 0.2314157 0.2237854 0.2173764
 0.2164526 0.2216343 0.2291987 0.2345626 0.2354022 0.2318871 0.2258616 0.2203046 0.2181121 0.2203369
 0.2257283 0.2319691 0.2370677 0.2399099 0.2402479 0.238582 0.2361167 0.2344734 0.2345197 0.2350822
 0.2338378 0.2302514 0.2264687 0.2241585 0.2219184 0.2178592 0.2137676 0.2139256 0.2195547 0.2267735
 0.2309564 0.2314192 0.230579 0.2295451 0.2262152 0.2183021 0.2076718 0.2004212 0.2015494 0.2097682
 0.2186545 0.2229446 0.2227142 0.2214789 0.2215018 0.2214885 0.2184081 0.211454 0.2040541 0.2009936
 0.2033168 0.2073879 0.2091846 0.2074955 0.2024968 0.1944752 0.1861617 0.1835487 0.1908289 0.2052636
 0.2193384 0.2269473 0.2256034 0.2150855 0.1983344 0.1832742 0.1789445 0.1873871 0.201161 0.2101951
 0.2097712 0.2013309 0.1881757 0.173243 0.1605096 0.1553775 0.1614269 0.1768032 0.1942503 0.2046835
 0.2021918 0.1886697 0.1743036 0.1702405 0.1783967 0.190104 0.195819 0.1937892 0.1886829 0.1855928
 0.1871128 0.1928726 0.1999247 0.2055165 0.2092824 0.210108 0.2031705 0.1857319 0.1647924 0.1524809
 0.1534611 0.1625279 0.1743136 0.1881144 0.2016005 0.2074898 0.2017617 0.1912846 0.187983 0.1961747
 0.2088691 0.21633 0.2157217 0.2116271 0.2089637 0.2077439 0.2055403 0.2031613 0.2048392 0.2123998
 0.2220799 0.2287253 0.2311421 0.2316382 0.232102 0.2325698 0.2325417 0.2318359 0.2305119 0.229001
 0.2279783 0.2275962 0.2273422 0.2268208 0.22572 0.2226054 0.2152352 0.2037099 0.1924753 0.1867993
 0.1871864 0.1897403 0.1919602 0.1941911 0.1942024 0.1856803 0.1665618 0.1458606 0.1371087 0.1452847
 0.1631063 0.1793309 0.1873684 0.1858447 0.1752355 0.1580656 0.1416027 0.1355959 0.1443321 0.1625215
 0.1809463 0.1944049 0.2023368 0.2044352 0.1996467 0.1892782 0.17826 0.1723347 0.1745514 0.1839188
 0.1957481 0.2028775 0.1991699 0.1856028 0.172962 0.1738993 0.1896708 0.2080568 0.2170949 0.217195
 0.2163155 0.2175898 0.2177588 0.2158367 0.216602 0.2240339 0.235455 0.2441719 0.2453542 0.2379439
 0.2240387 0.2093818 0.2018644 0.2051591 0.2144718 0.2216953 0.2232265 0.2194874 0.2101432 0.196113
 0.1846433 0.1849517 0.1975529 0.2130543 0.2228271 0.2268575 0.2298356 0.2330711 0.232911 0.22629
 0.2158751 0.2084298 0.2081292 0.2129008 0.2179168 0.2206845 0.2210709 0.2184064 0.2119042 0.2039442
 0.2001042 0.2043011 0.2147055 0.2254265 0.2317595 0.2331158 0.2316339 0.2294093 0.2270977 0.2240807
 0.219848 0.2158021 0.2149985 0.2188829 0.2249921 0.2294874 0.2315553 0.233683 0.2377517 0.2424453
 0.2448502 0.2436338 0.2403085 0.2379044 0.2385305 0.241705 0.2447253 0.2449799 0.2424317 0.2398857
 0.2404063 0.2443929 0.2495333 0.2534322 0.2555636 0.256762 0.2577999 0.2587125 0.2587767 0.2570609
 0.2537396 0.2508499 0.2508467 0.2541667 0.2588105 0.2624128 0.2641624 0.2646528 0.2645523 0.2639067
 0.2625517 0.260761 0.2592549 0.2586207 0.2588882 0.2596838 0.2606199 0.2614639 0.2621095 0.2625492
 0.2628393 0.2630254 0.2631318 0.2632107 0.2633101 0.263382 0.2633305 0.2631897 0.2631513 0.2633488
 0.2636859 0.2639457 0.2639936 0.2637863 0.2632547 0.2623236 0.261048 0.2596 0.258076 0.2564286
 0.2546996 0.2532814 0.2528042 0.2536654 0.2556628 0.2581143 0.2603233 0.2619325 0.2629279 0.263453
 0.2636713 0.2637237 0.2637051 0.2636428 0.2635147 0.2632967 0.2629941 0.2626334 0.2622421 0.2618461
 0.2614762 0.261158 0.2608853 0.2606128 0.2602842 0.2598689 0.2593752 0.2588395 0.2582944 0.2577353
 0.257113 0.2563713 0.2554973 0.2545384 0.2535772 0.2526872 0.2518893 0.251141 0.2503783 0.2495649
 0.2486841 0.2476987 0.2465818 0.2453991 0.2443074 0.2434277 0.2427424 0.2421333 0.2414861 0.2407377
 0.2398683 0.2388984 0.2378769 0.236838 0.2357715 0.2346487 0.2334594 0.2322049 0.230876 0.2294567
 0.227943 0.2263496 0.2247076 0.2230508 0.22138 0.2196299 0.2176764 0.2153791 0.2126166 0.2093022
 0.2054028 0.2009704 0.1961556 0.191174 0.1862425 0.1815346 0.1771815 0.1732878 0.1699359 0.1671875
 0.1650913 0.1636857 0.1629921 0.1630115 0.1637279 0.165105 0.1670749 0.169531 0.17233 0.1753056
 0.1782879 0.1811241 0.1837135 0.1860487 0.1882088 0.1902742 0.1922487 0.1940783 0.1957234 0.1971782
 0.1984383 0.1994917 0.2003471 0.2010417 0.201616 0.2020918 0.2024829 0.202815 0.2031211 0.2034113
 0.203665 0.2038646 0.2040251 0.2041792 0.2043495 0.2045489 0.2047931 0.2050997 0.2054795 0.2059308
 0.2064371 0.2069773 0.2075438 0.2081429 0.2087777 0.2094443 0.2101545 0.210951 0.2118922 0.2130149
 0.2143018 0.2156835 0.2170725 0.2183947 0.2195899 0.2206019 0.2213825 0.2219044 0.2221705 0.2222175
 0.2221056 0.2218895 0.2215977 0.2212397 0.2208197 0.2203362 0.2197822 0.2191576 0.2184777 0.217766
 0.2170439 0.2163305 0.2156415 0.2149801 0.2143335 0.213686 0.2130403 0.2124164 0.2118293 0.2112696
 0.2107117 0.2101385 0.2095558 0.2089797 0.208411 0.2078246 0.2071812 0.2064489 0.2056164 0.20469
 0.2036783 0.2025782 0.2013809 0.2000898 0.1987235 0.197297 0.1958085 0.1942475 0.1926097 0.1908935
 0.1890881 0.187179 0.1851769 0.1831387 0.1811498 0.1792808 0.177562 0.1759846 0.1745171 0.1731278
 0.1718037 0.1705445 0.1693428 0.1681839 0.1670658 0.1659994 0.1649911 0.164036 0.1631326 0.1622956
 0.1615527 0.1609257 0.1604078 0.1599668 0.1595739 0.1592234 0.1589323 0.1587347 0.158659 0.1586867
 0.1587427 0.1587475 0.1586732 0.1585446 0.1584054 0.158288 0.1582007 0.1581367 0.1580879 0.158031
 0.1579024 0.1576053 0.1570452 0.1561612 0.154944 0.1534379 0.1517227 0.1498969 0.148082 0.1464074
 0.1449638 0.1437867 0.1428769 0.1422023 0.1416909 0.141271 0.1409311 0.1407263 0.1407273 0.1409393
 0.1412385 0.1414343 0.1414528 0.1414319 0.1415902 0.1420332 0.142706 0.1434764 0.144226 0.1448925
 0.1454473 0.145856 0.1460936 0.1461886 0.1461967 0.146142 0.1460232 0.1458441 0.1456037 0.1452921
 0.144915 0.1444851 0.1439968 0.1434396 0.1428119 0.1421065 0.1413164 0.1404403 0.1394424 0.1382693
 0.136985 0.1358343 0.1351053 0.1349591 0.1353794 0.1362045 0.1372235 0.1382988 0.1393424 0.1401654
 0.1405425 0.1405643 0.1407936 0.1418644 0.1438877 0.1463216 0.1484417 0.1498661 0.1506035 0.1507616
 0.1503955 0.1495446 0.1482064 0.146316 0.1438861 0.1410809 0.1380833 0.1350363 0.132126 0.1295394
 0.1273518 0.1255659 0.1241698 0.1231893 0.1227513 0.1225114 0.1206207 0.1146719 0.1054201 0.09847549
 0.09958588 0.1081691 0.1177147 0.1226663 0.122848 0.1211993 0.1197515 0.1188003 0.1182345 0.118206
 0.1188551 0.1200419 0.1213806 0.1224763 0.1231667 0.1234869 0.1233865 0.122493 0.1200642 0.1152553
 0.1077963 0.09856999 0.08932272 0.08166403 0.07633476 0.07320286 0.07162087 0.07080998 0.07024534 0.06990257
 0.07012943 0.07124141 0.07325763 0.07599223 0.07924147 0.08274959 0.08610129 0.08888824 0.09101848 0.09270153
 0.09409946 0.09513137 0.09564352 0.09563422 0.09525211 0.09465928 0.09395611 0.09318031 0.0922986 0.09122998
 0.08998565 0.08879083 0.08794925 0.08755556 0.08744047 0.08740342 0.08737962 0.08737798 0.08738521 0.08736466
 0.08729471 0.08721842 0.08726606 0.08755721 0.08805365 0.08856457 0.08890873 0.08904581 0.08906168 0.08901778
 0.08880529 0.0882529 0.08744448 0.08673988 0.08630483 0.08580892 0.08484983 0.08356154 0.08253811 0.08219412
 0.08240251 0.08273457 0.08286162 0.08271275 0.0824444 0.08236045 0.08270529 0.08336766 0.08387494 0.08383644
</values></Ydata></ScRf><Data_Parameters_AB><parameter name="DPF">1</parameter><parameter name="NPT">3497</parameter><parameter name="FXV">3996</parameter><parameter name="LXV">500</parameter><parameter name="CSF">1</parameter><parameter name="MXY">0.0177212618291378</parameter><parameter name="MNY">-0.0229690223932266</parameter><parameter name="DAT">30/05/2022</parameter><parameter name="TIM">11:49:04.640 (GMT+2)</parameter><parameter name="DXU">WN</parameter></Data_Parameters_AB><AB__Qtest><MainReport name="Quality Test Report"><Header><Line><Legend>Test result ok/not ok [1/0]: </Legend><Value>0</Value></Line><Line><Legend>Method file: </Legend><Value>C:\Users\Public\Documents\Bruker\OPUS_8.2.28\QT\IRBT_v3_default.QT</Value></Line></Header><Matrix><Line><Legend></Legend><Legend>min</Legend><Legend>max</Legend><Legend>measured</Legend></Line><Line><Value>Absorption (X-Range 1):</Value><Value>0.400000</Value><Value>2.000000</Value><Value>0.024915</Value></Line><Line><Value>Noise (X-Range 4):</Value><Value></Value><Value>0.000300</Value><Value>0.000057</Value></Line><Line><Value>Signal/Noise (X-Range 2):</Value><Value>200.000000</Value><Value></Value><Value>9.056368</Value></Line><Line><Value>Signal/Noise (X-Range 3):</Value><Value>40.000000</Value><Value></Value><Value>11.479238</Value></Line><Line><Value>Water vapour (X-Range 5):</Value><Value></Value><Value>0.000300</Value><Value>0.000031</Value></Line><Line><Value>Signal/Water (X-Range 2):</Value><Value>100.000000</Value><Value></Value><Value>16.770474</Value></Line><Line><Value>Signal/Water (X-Range 3):</Value><Value>20.000000</Value><Value></Value><Value>21.257117</Value></Line><Line><Value>Fringes (X-Range 6):</Value><Value></Value><Value>0.000100</Value><Value>0.000057</Value></Line></Matrix></MainReport></AB__Qtest><Data_Parameters_ScSm><parameter name="DPF">1</parameter><parameter name="NPT">1814</parameter><parameter name="FXV">3996.33169228125</parameter><parameter name="LXV">499.541461535156</parameter><parameter name="CSF">1</parameter><parameter name="MXY">0.265785992145538</parameter><parameter name="MNY">0.0330557301640511</parameter><parameter name="DAT">30/05/2022</parameter><parameter name="TIM">11:49:04.640 (GMT+2)</parameter><parameter name="DXU">WN</parameter></Data_Parameters_ScSm><Data_Parameters_ScRf><parameter name="DPF">1</parameter><parameter name="NPT">1820</parameter><parameter name="FXV">4004.04661832813</parameter><parameter name="LXV">495.683998511719</parameter><parameter name="CSF">1</parameter><parameter name="MXY">0.264652848243713</parameter><parameter name="MNY">0.0318600535392761</parameter><parameter name="DAT">30/05/2022</parameter><parameter name="TIM">11:48:38.789 (GMT+2)</parameter><parameter name="DXU">WN</parameter></Data_Parameters_ScRf><Optic_Parameters_Rf><parameter name="APR">0</parameter><parameter name="APT">Open</parameter><parameter name="BMS">KBr</parameter><parameter name="DTC">RT-DLaTGS_IR-Biotyper [Microplate reader]</parameter><parameter name="HPF">0</parameter><parameter name="LPF">10.0</parameter><parameter name="LPV">4000</parameter><parameter name="PGR">0</parameter><parameter name="RCH">Module port</parameter><parameter name="RDX">0</parameter><parameter name="SRC">MIR</parameter><parameter name="VEL">10.0</parameter><parameter name="SON">Off</parameter></Optic_Parameters_Rf><Acquisition_Parameters_Rf><parameter name="ADT">1</parameter><parameter name="AQM">DD</parameter><parameter name="CFE">0</parameter><parameter name="COR">0</parameter><parameter name="DEL">0</parameter><parameter name="DLY">0</parameter><parameter name="HFW">8000</parameter><parameter name="LFW">0</parameter><parameter name="NSR">32</parameter><parameter name="PLF">AB</parameter><parameter name="RES">6</parameter><parameter name="RGN">-1</parameter><parameter name="STR">0</parameter><parameter name="TCL">MakeCompatibleScalar (0, {WSV=1.000000, ARV=0});</parameter><parameter name="TDL">37</parameter><parameter name="RPO">0</parameter></Acquisition_Parameters_Rf><FT_-_Parameters_Rf><parameter name="APF">B3</parameter><parameter name="HFQ">500</parameter><parameter name="LFQ">4000</parameter><parameter name="NLI">0</parameter><parameter name="PHR">24</parameter><parameter name="PHZ">ML</parameter><parameter name="SPZ">NO</parameter><parameter name="ZFF">1</parameter></FT_-_Parameters_Rf><Optic_Parameters_><parameter name="APR">0</parameter><parameter name="APT">Open</parameter><parameter name="BMS">KBr</parameter><parameter name="CHN">Module port</parameter><parameter name="DTC">RT-DLaTGS_IR-Biotyper [Microplate reader]</parameter><parameter name="HPF">0</parameter><parameter name="LPF">10.0</parameter><parameter name="LPV">4000</parameter><parameter name="PGN">0</parameter><parameter name="RDX">0</parameter><parameter name="SRC">MIR</parameter><parameter name="VEL">10.0</parameter><parameter name="SON">Off</parameter></Optic_Parameters_><FT_-_Parameters_><parameter name="APF">B3</parameter><parameter name="HFQ">500</parameter><parameter name="LFQ">4000</parameter><parameter name="NLI">0</parameter><parameter name="PHR">24</parameter><parameter name="PHZ">ML</parameter><parameter name="SPZ">NO</parameter><parameter name="ZFF">1</parameter></FT_-_Parameters_><Acquisition_Parameters_><parameter name="ADT">1</parameter><parameter name="AQM">DD</parameter><parameter name="CFE">0</parameter><parameter name="COR">0</parameter><parameter name="DEL">0</parameter><parameter name="DLY">0</parameter><parameter name="HFW">8000</parameter><parameter name="LFW">0</parameter><parameter name="NSS">32</parameter><parameter name="PLF">AB</parameter><parameter name="RES">6</parameter><parameter name="SOT">0</parameter><parameter name="TCL">MakeCompatibleScalar (0, {WSV=1.000000, ARV=0});</parameter><parameter name="TDL">37</parameter><parameter name="SPO">0</parameter><parameter name="SGN">-1</parameter></Acquisition_Parameters_><Instrument_Parameters_Rf><parameter name="HFL">15800.168544</parameter><parameter name="LFL">0</parameter><parameter name="LWN">15800.168544</parameter><parameter name="ABP">32197</parameter><parameter name="SSP">1</parameter><parameter name="ARG">2</parameter><parameter name="ASG">2</parameter><parameter name="ASS">32</parameter><parameter name="GFW">16</parameter><parameter name="GBW">16</parameter><parameter name="BFW">0</parameter><parameter name="BBW">0</parameter><parameter name="PKA">7296</parameter><parameter name="PKL">4996</parameter><parameter name="PRA">7465</parameter><parameter name="PRL">5001</parameter><parameter name="P2A">1</parameter><parameter name="P2L">1</parameter><parameter name="P2R">1</parameter><parameter name="P2K">1</parameter><parameter name="DAQ">0</parameter><parameter name="AG2">1</parameter><parameter name="SSM">1</parameter><parameter name="RSN">25254</parameter><parameter name="CRR">0</parameter><parameter name="SRT">1653911318.789</parameter><parameter name="DUR">19.6369934082031</parameter><parameter name="TSC">28.1</parameter><parameter name="MVD">0.323516994714737</parameter><parameter name="AN1">0.225813891905555</parameter><parameter name="AN2">0</parameter><parameter name="VSN">2.485 Apr  4 2017</parameter><parameter name="SRN">0085</parameter><parameter name="CAM">0</parameter><parameter name="INS">IR-Biotyper</parameter><parameter name="FOC">69</parameter><parameter name="RDY">1</parameter><parameter name="ARS">32</parameter></Instrument_Parameters_Rf><Sample_Parameters_><parameter name="BLD"></parameter><parameter name="CNM">Admin</parameter><parameter name="CPY"></parameter><parameter name="DPM"></parameter><parameter name="EXP">IRBT_v3_32Scans.XPM</parameter><parameter name="LCT"></parameter><parameter name="SFM">Microplate, HTS-XT</parameter><parameter name="SNM">220530-1021_GFG29M (D_13)_B7_0c8ddf76-f0f9-4db9-8db7-b8d1ea0e6b2b.0</parameter><parameter name="XPP">C:\Users\Public\Documents\Bruker\OPUS_8.2.28\XPM</parameter><parameter name="IST">OK</parameter><parameter name="CPG">1252</parameter><parameter name="UID">1a48ed85-7503-426c-a254-c87134981d4b</parameter></Sample_Parameters_><Instrument_Parameters_><parameter name="HFL">15800.168544</parameter><parameter name="LFL">0</parameter><parameter name="LWN">15800.168544</parameter><parameter name="ABP">32197</parameter><parameter name="SSP">1</parameter><parameter name="ASG">2</parameter><parameter name="ARG">2</parameter><parameter name="ASS">32</parameter><parameter name="GFW">16</parameter><parameter name="GBW">16</parameter><parameter name="BFW">0</parameter><parameter name="BBW">0</parameter><parameter name="PKA">7377</parameter><parameter name="PKL">4988</parameter><parameter name="PRA">7586</parameter><parameter name="PRL">5002</parameter><parameter name="P2A">1</parameter><parameter name="P2L">1</parameter><parameter name="P2R">1</parameter><parameter name="P2K">1</parameter><parameter name="DAQ">0</parameter><parameter name="AG2">1</parameter><parameter name="SSM">1</parameter><parameter name="RSN">13253</parameter><parameter name="CRR">0</parameter><parameter name="SRT">1653911344.64</parameter><parameter name="DUR">19.6369934082031</parameter><parameter name="TSC">28.1</parameter><parameter name="MVD">0.368976205587387</parameter><parameter name="AN1">0.225809798587104</parameter><parameter name="AN2">0</parameter><parameter name="VSN">2.485 Apr  4 2017</parameter><parameter name="SRN">0085</parameter><parameter name="CAM">0</parameter><parameter name="INS">IR-Biotyper</parameter><parameter name="FOC">69</parameter><parameter name="RDY">1</parameter></Instrument_Parameters_><History/></OPUSDataFile>
