<?xml version="1.0" encoding="UTF-8" ?>
<OPUSDataFile><AB><Ydata ylabel="Absorbance Units"><values byteorder="INTEL" format="FLOAT32" numvalues="3497"> -0.06164734 -0.06164446 -0.0616448 -0.06164893 -0.0616485 -0.06164308 -0.06162415 -0.06159241 -0.06155417 -0.06151117
 -0.06147806 -0.06145293 -0.06143805 -0.06142799 -0.06140983 -0.06138338 -0.0613398 -0.06128866 -0.06123618 -0.06119343
 -0.06117306 -0.06117407 -0.06120252 -0.06124293 -0.06129256 -0.06133299 -0.06135852 -0.06136196 -0.06133997 -0.06130087
 -0.06124441 -0.06118824 -0.0611333 -0.06109554 -0.06107518 -0.06107965 -0.06110793 -0.06115868 -0.06122947 -0.06131178
 -0.06140264 -0.06149073 -0.06157495 -0.06164788 -0.06171155 -0.0617657 -0.06181153 -0.06185107 -0.06188099 -0.06190074
 -0.06190515 -0.06189177 -0.06185928 -0.06180621 -0.06173625 -0.06164909 -0.06155305 -0.06144839 -0.06134839 -0.0612538
 -0.06118121 -0.06113115 -0.06111543 -0.06113237 -0.06117919 -0.06125134 -0.06133157 -0.06141562 -0.06148412 -0.06153709
 -0.06156399 -0.06157191 -0.06156326 -0.06154918 -0.06154002 -0.06154012 -0.06155746 -0.06158194 -0.06161313 -0.06163549
 -0.06164372 -0.06163527 -0.061607 -0.06157444 -0.06153806 -0.06152044 -0.06152291 -0.06156113 -0.06163448 -0.06174016
 -0.0618731 -0.06200256 -0.06212158 -0.06218487 -0.06219745 -0.06214347 -0.06204379 -0.06192607 -0.06180593 -0.06171558
 -0.06165183 -0.0616261 -0.06162018 -0.06162856 -0.06163205 -0.06161942 -0.06159213 -0.06154504 -0.06150181 -0.06146525
 -0.06145573 -0.06147694 -0.06152274 -0.06159309 -0.06166247 -0.06173024 -0.06178175 -0.06181923 -0.06184983 -0.06187526
 -0.06190701 -0.06194196 -0.06197877 -0.06201271 -0.06203346 -0.06204309 -0.06203837 -0.06202717 -0.06201651 -0.06200612
 -0.06199923 -0.06198854 -0.06196989 -0.06194736 -0.06191834 -0.06190298 -0.0619038 -0.06193925 -0.06201305 -0.0621175
 -0.06225278 -0.06235675 -0.06242632 -0.06239729 -0.06228054 -0.06211398 -0.06191079 -0.06174297 -0.061609 -0.06154235
 -0.06153308 -0.06158383 -0.06167318 -0.06178026 -0.06187935 -0.06193801 -0.06195727 -0.06192079 -0.06186618 -0.06180481
 -0.06176186 -0.06175125 -0.06175614 -0.06177674 -0.06178967 -0.06179124 -0.06178329 -0.06176562 -0.0617539 -0.06174816
 -0.0617512 -0.06176092 -0.06176429 -0.0617607 -0.06173977 -0.06170486 -0.06165905 -0.06160561 -0.06155158 -0.06149849
 -0.06144954 -0.06140941 -0.06138204 -0.06137361 -0.0613891 -0.06143038 -0.06150075 -0.06159404 -0.06171073 -0.06183806
 -0.06197501 -0.06210519 -0.06222763 -0.06232046 -0.06238239 -0.0623896 -0.06234211 -0.06223615 -0.0620761 -0.06188778
 -0.06167723 -0.06148091 -0.06130242 -0.06116986 -0.06108191 -0.06105182 -0.06106896 -0.06112999 -0.06121296 -0.06130079
 -0.06137108 -0.06140329 -0.06139695 -0.06134193 -0.06126536 -0.06117019 -0.06108965 -0.06103105 -0.06100713 -0.06102119
 -0.06106418 -0.06113581 -0.06122186 -0.06132152 -0.06142147 -0.0615203 -0.06160194 -0.0616655 -0.06169754 -0.06170122
 -0.06167651 -0.0616298 -0.061572 -0.0615083 -0.06144908 -0.0613978 -0.06135899 -0.06134012 -0.0613447 -0.06138494
 -0.06146828 -0.06159451 -0.061771 -0.06196316 -0.06216981 -0.06233712 -0.06245815 -0.06250994 -0.06249039 -0.06240167
 -0.06224443 -0.06202575 -0.06175145 -0.06146254 -0.061169 -0.06093337 -0.06075841 -0.06068685 -0.06070679 -0.06082535
 -0.06100674 -0.06121222 -0.06140777 -0.06154343 -0.06162762 -0.06164854 -0.0616304 -0.06158225 -0.0615127 -0.06142597
 -0.06132431 -0.06120706 -0.06108701 -0.06096467 -0.06085918 -0.06077185 -0.06071223 -0.06068036 -0.06067664 -0.06070055
 -0.06075082 -0.06082336 -0.06090453 -0.0609834 -0.06102222 -0.06101901 -0.06094592 -0.06082439 -0.06067015 -0.06050083
 -0.06034108 -0.06018684 -0.06004434 -0.05990036 -0.0597485 -0.05958955 -0.05941896 -0.05925829 -0.0591103 -0.05899444
 -0.05891493 -0.05886397 -0.05884197 -0.05880987 -0.0587659 -0.05867377 -0.05853833 -0.05837706 -0.05819736 -0.05804234
 -0.05790722 -0.05780131 -0.05771695 -0.05764337 -0.0575785 -0.05751705 -0.05745373 -0.05738541 -0.05729793 -0.05718154
 -0.05702878 -0.05683184 -0.05659876 -0.05633057 -0.05603245 -0.05570559 -0.05535192 -0.0549711 -0.05457256 -0.0541568
 -0.05373347 -0.05330328 -0.05287816 -0.05246031 -0.0520722 -0.05171464 -0.05140602 -0.05113896 -0.05090419 -0.05069208
 -0.05047849 -0.0502636 -0.05003953 -0.04980387 -0.04955797 -0.0492802 -0.04895571 -0.04857753 -0.04813055 -0.04765171
 -0.04714882 -0.04664801 -0.04615844 -0.0456721 -0.04518937 -0.04469851 -0.0441984 -0.04369485 -0.04318883 -0.04270164
 -0.04223346 -0.04179909 -0.04139131 -0.04099143 -0.04058478 -0.04011621 -0.03959011 -0.03897755 -0.03831878 -0.03765755
 -0.03701466 -0.03643356 -0.03589014 -0.03538467 -0.03488449 -0.03437271 -0.03384163 -0.03328073 -0.03271584 -0.03214985
 -0.03160605 -0.03109029 -0.03058637 -0.03009435 -0.02956994 -0.02901191 -0.02839955 -0.02773801 -0.02705793 -0.026364
 -0.02569512 -0.02504603 -0.02442242 -0.02381686 -0.02321727 -0.02262083 -0.02201884 -0.02141087 -0.02079191 -0.02016789
 -0.019539 -0.01891774 -0.01831246 -0.01771879 -0.01714253 -0.01654967 -0.01593423 -0.01527319 -0.01455874 -0.01382602
 -0.01307611 -0.0123671 -0.01170031 -0.01109116 -0.01053514 -0.01000469 -0.009494483 -0.008965609 -0.008419182 -0.007834827
 -0.007224573 -0.006601454 -0.005976262 -0.005373382 -0.004784323 -0.004214364 -0.003639521 -0.00304413 -0.002419218 -0.001751484
 -0.00106264 -0.0003555078 0.000347751 0.001040541 0.001722034 0.002390453 0.003056958 0.00372208 0.004398889 0.00508771
 0.005792459 0.006511544 0.007233759 0.007957645 0.008669783 0.009372251 0.01006432 0.01074775 0.01142682 0.01209917
 0.01276272 0.01341732 0.01406029 0.01469786 0.01533325 0.01597095 0.01661523 0.01726185 0.01791172 0.0185542
 0.01918731 0.01980363 0.02040086 0.02098639 0.02156014 0.02214256 0.0227344 0.02334737 0.02397962 0.02462051
 0.02526837 0.02590822 0.02654382 0.0271776 0.02781493 0.02846921 0.02913897 0.02983049 0.03053303 0.0312405
 0.03193897 0.03261624 0.03326924 0.03388995 0.03449431 0.03508401 0.03567929 0.03628598 0.03690652 0.03754302
 0.03818355 0.03882745 0.03946455 0.04009438 0.04071005 0.04131122 0.04189102 0.0424508 0.0429921 0.04351804
 0.044039 0.04455569 0.04507497 0.04559486 0.04611535 0.04663499 0.04715243 0.04766658 0.04817612 0.04868124
 0.04918068 0.04967938 0.05017899 0.05068122 0.05118818 0.05169006 0.05218578 0.05266832 0.05313645 0.05360266
 0.05406776 0.05455051 0.05505001 0.05556742 0.05609896 0.05662822 0.05715181 0.05765089 0.05812534 0.05856416
 0.05897339 0.0593548 0.05971953 0.06007938 0.06044023 0.06081197 0.06118757 0.06156735 0.0619403 0.06230205
 0.06265049 0.06298279 0.06330973 0.06363159 0.06396449 0.06430986 0.06467507 0.06506006 0.06545487 0.06585875
 0.06625976 0.06665986 0.06706266 0.0674693 0.06788774 0.06831153 0.06873213 0.06914215 0.06952472 0.06988431
 0.07021663 0.07053521 0.07084859 0.07116354 0.07148801 0.07181336 0.07213995 0.07245289 0.07274812 0.07302214
 0.07327233 0.07351401 0.07374787 0.07399349 0.07425151 0.0745264 0.07481716 0.07511625 0.07542331 0.07573341
 0.07604542 0.07635484 0.07665738 0.07694086 0.07720552 0.07744245 0.07766528 0.07788204 0.0781103 0.07836802
 0.07865258 0.07897367 0.07929952 0.07962427 0.07991357 0.08015572 0.08035193 0.0804976 0.08063045 0.08075328
 0.0808912 0.08104439 0.0811874 0.08131718 0.0813911 0.08141436 0.08138604 0.08132125 0.08126602 0.08123023
 0.08126071 0.08134843 0.08150589 0.08170564 0.08192732 0.08214269 0.08232138 0.0824651 0.08255793 0.0826444
 0.0827326 0.08287015 0.08307531 0.08333486 0.08365589 0.08396015 0.08424251 0.08443127 0.08452411 0.08452237
 0.08443212 0.08431319 0.08416885 0.084048 0.08394528 0.08386705 0.08381326 0.0837828 0.08378776 0.08384901
 0.08396444 0.08415034 0.0843677 0.08459891 0.08479956 0.08493658 0.085015 0.08502059 0.08500848 0.08498678
 0.08500477 0.08507361 0.08519267 0.0853649 0.08554249 0.08572274 0.08584522 0.08590974 0.08588704 0.08578684
 0.08563811 0.08545822 0.08531717 0.08522395 0.0852379 0.0853422 0.08554598 0.08580706 0.08608884 0.08635137
 0.08654933 0.08668316 0.08673255 0.0867435 0.08672475 0.08672111 0.08674713 0.08680852 0.08690844 0.08703987
 0.08720101 0.08741658 0.08768795 0.08805043 0.08849985 0.08901241 0.08957172 0.09008092 0.09052922 0.09082248
 0.0909813 0.09099346 0.09090903 0.09079489 0.09069327 0.09068098 0.09075143 0.09093615 0.09117516 0.09145457
 0.09169994 0.0918826 0.09196167 0.09191689 0.09176704 0.09150708 0.09120157 0.09085487 0.09052699 0.09022065
 0.08995167 0.08971829 0.08950613 0.0893162 0.08914522 0.08899911 0.08889727 0.08883972 0.08884234 0.08888608
 0.08895779 0.08901712 0.08902144 0.08893005 0.0886943 0.08831501 0.08776629 0.08711313 0.08636255 0.08560795
 0.08487191 0.08421192 0.08364311 0.08316247 0.08277293 0.08243367 0.08214246 0.08184787 0.08154852 0.08120868
 0.0808342 0.08043458 0.08002137 0.07964115 0.07929187 0.07899971 0.07873759 0.07847746 0.07819284 0.07783718
 0.07742187 0.07693 0.07641365 0.07588936 0.07541468 0.07501594 0.07471234 0.07452176 0.07439663 0.0743396
 0.07424957 0.07411843 0.07386429 0.07348347 0.0729868 0.07238206 0.07176013 0.071127 0.07056548 0.07006653
 0.06964608 0.06928785 0.06896277 0.06866229 0.06835943 0.06805509 0.06774036 0.06741787 0.06708741 0.06674975
 0.06640514 0.0660545 0.06569726 0.06533837 0.06497811 0.0646247 0.06427978 0.06394622 0.06362512 0.06330601
 0.06298831 0.06265464 0.06230499 0.06193283 0.06154112 0.06114234 0.06073993 0.06035321 0.05998072 0.05963039
 0.0592951 0.05896768 0.05864119 0.05830446 0.05795657 0.05759197 0.05721629 0.05683021 0.05644139 0.05605344
 0.05566759 0.05528651 0.05489955 0.054506 0.05409307 0.05365889 0.05320606 0.05273477 0.05226417 0.05179512
 0.05134385 0.05090917 0.0504925 0.05009253 0.04970532 0.04933101 0.04896878 0.04861727 0.04827506 0.04793783
 0.04759999 0.04725948 0.04691032 0.04656098 0.04621057 0.04588048 0.04557754 0.04531909 0.04511578 0.04494663
 0.04481598 0.04465465 0.04445754 0.04415862 0.04375438 0.04325156 0.04265695 0.0420551 0.04145423 0.04094886
 0.04053196 0.04023681 0.0400356 0.03988585 0.03975364 0.03956254 0.03930422 0.03892849 0.03847574 0.03795194
 0.03742155 0.03692375 0.03648425 0.03612992 0.03582585 0.03556956 0.03532374 0.03507713 0.03484881 0.03463733
 0.03449645 0.03442897 0.03444937 0.03455228 0.03467583 0.03480867 0.03485069 0.03480136 0.03459778 0.03426411
 0.03381871 0.03329989 0.03278 0.03227585 0.03184232 0.03145626 0.03111942 0.03080199 0.03048186 0.03016639
 0.0298496 0.02955935 0.02930581 0.02908267 0.02889405 0.02870082 0.02849833 0.02827759 0.0280379 0.02782381
 0.02763744 0.02752075 0.02746764 0.02746513 0.02750199 0.02752995 0.02754644 0.02751881 0.02745634 0.02735919
 0.02723759 0.02710656 0.02696197 0.02681127 0.02662951 0.02640738 0.02611897 0.02574597 0.02530391 0.02478313
 0.02425725 0.02373338 0.02329153 0.02294329 0.0226966 0.02255263 0.02243185 0.02232896 0.02215046 0.02190084
 0.02155513 0.02113116 0.02067929 0.02021337 0.01979557 0.01941985 0.01910716 0.01883856 0.01859958 0.018378
 0.01815779 0.01793865 0.01771624 0.01749272 0.01726786 0.01704411 0.0168214 0.01660546 0.01639841 0.0161951
 0.01599682 0.01577532 0.01552907 0.01523345 0.01489021 0.01451802 0.01412241 0.01375024 0.01339774 0.01307999
 0.01278117 0.01246788 0.012135 0.01175114 0.01133906 0.01090938 0.01049254 0.01012025 0.009797846 0.009541322
 0.009331061 0.009163419 0.009021736 0.008899591 0.008796215 0.008710671 0.008644092 0.008597581 0.008557777 0.008524106
 0.0084651 0.008378851 0.00823061 0.008021842 0.007740525 0.007396483 0.007016245 0.006615116 0.006243306 0.005910562
 0.005658325 0.005482131 0.005396185 0.005383034 0.005435858 0.005532259 0.00565872 0.005798891 0.005942731 0.006085947
 0.006224633 0.006363642 0.006502366 0.006651012 0.006809488 0.006998542 0.007219217 0.007506576 0.007862031 0.008314943
 0.008861105 0.009492062 0.01019581 0.01092353 0.01166564 0.0123711 0.0130442 0.01366644 0.01425289 0.01481437
 0.01536237 0.01591112 0.01646246 0.01702075 0.01758694 0.01816081 0.01874955 0.01935581 0.01998057 0.02062778
 0.0212719 0.0219129 0.02250263 0.02303826 0.02348195 0.02383379 0.02409079 0.02425547 0.02434309 0.02435347
 0.02429165 0.02416081 0.02396408 0.0237227 0.0234686 0.02323443 0.02307475 0.0230004 0.02304674 0.02318592
 0.02341486 0.02369769 0.02401553 0.02436465 0.0247365 0.02515614 0.02562664 0.02616712 0.02678153 0.02746131
 0.0282065 0.02898213 0.02978566 0.03057175 0.03133994 0.03206169 0.03274445 0.03339859 0.03403793 0.03470369
 0.03540207 0.03617233 0.03698768 0.03785312 0.03867725 0.03941395 0.03990332 0.04005378 0.03971784 0.03879742
 0.03729746 0.03516536 0.0326208 0.02967106 0.02664829 0.02358562 0.02074634 0.01815 0.01588548 0.01394952
 0.01228758 0.01088915 0.009658364 0.008590984 0.007621311 0.006748193 0.00593867 0.005186171 0.004465393 0.003769151
 0.003075594 0.002391095 0.001709803 0.001051963 0.0004270898 -0.0001482241 -0.0006633562 -0.00111755 -0.001507242 -0.001841929
 -0.002122779 -0.00235712 -0.002546686 -0.002686184 -0.002775584 -0.002797273 -0.002751359 -0.00263487 -0.002455257 -0.002259013
 -0.002060263 -0.001942284 -0.001908136 -0.002015464 -0.002241791 -0.002579639 -0.002991503 -0.003430012 -0.003863485 -0.004249574
 -0.004570143 -0.004803013 -0.004941904 -0.004978291 -0.004916362 -0.00475627 -0.004499604 -0.004148662 -0.003688087 -0.003114547
 -0.002432619 -0.00163997 -0.0008550477 -9.211812E-05 0.0003851638 0.0005597693 0.0001667744 -0.0007642375 -0.00228227 -0.004291923
 -0.006581402 -0.009047841 -0.01139996 -0.01360908 -0.01550569 -0.01714957 -0.01852785 -0.01972499 -0.02079153 -0.02176971
 -0.02269358 -0.02355812 -0.02436901 -0.02511194 -0.02578324 -0.02638603 -0.02691881 -0.02740187 -0.02783621 -0.02824697
 -0.0286351 -0.02901726 -0.02939288 -0.02976595 -0.03013521 -0.03049807 -0.03085313 -0.03119605 -0.03152445 -0.03183183
 -0.03211715 -0.03237429 -0.03260994 -0.03282482 -0.03303457 -0.03324845 -0.03347801 -0.0337335 -0.03400644 -0.0342999
 -0.03458728 -0.03486427 -0.03511122 -0.03532349 -0.03551129 -0.03567451 -0.03584305 -0.03601768 -0.03621231 -0.03642376
 -0.03663429 -0.03684182 -0.03702496 -0.03719136 -0.03734911 -0.03750974 -0.03770161 -0.03792249 -0.03818624 -0.03847209
 -0.03876797 -0.03905287 -0.03930783 -0.03953117 -0.03971467 -0.03987414 -0.04001117 -0.04014483 -0.04027888 -0.04042609
 -0.04058895 -0.04076874 -0.040966 -0.04116995 -0.04137992 -0.04158278 -0.04177906 -0.04196666 -0.04214726 -0.04232755
 -0.04250706 -0.04268852 -0.04286924 -0.04304477 -0.0432147 -0.04337601 -0.04353108 -0.04368195 -0.04382752 -0.04396883
 -0.04410049 -0.04421942 -0.04432616 -0.04441744 -0.04450919 -0.04460245 -0.0447195 -0.04486392 -0.04504173 -0.04525425
 -0.04548021 -0.04571804 -0.04593531 -0.04613215 -0.04629297 -0.04642271 -0.04653318 -0.04663082 -0.04674073 -0.04686318
 -0.04701351 -0.04718115 -0.04736047 -0.04753642 -0.04769136 -0.04782245 -0.04791765 -0.04799711 -0.04806357 -0.04814563
 -0.04825361 -0.04839811 -0.04858579 -0.04879982 -0.0490402 -0.04927956 -0.04951588 -0.04973254 -0.04992927 -0.05010664
 -0.05026597 -0.05041783 -0.05056314 -0.05071165 -0.05086293 -0.05102118 -0.05118475 -0.05135276 -0.05152321 -0.05169329
 -0.0518612 -0.05202391 -0.05218181 -0.05233358 -0.05248242 -0.0526292 -0.05277718 -0.05292794 -0.05308116 -0.05323747
 -0.05339326 -0.05354816 -0.05369964 -0.05384746 -0.05399134 -0.05413121 -0.05426591 -0.0543948 -0.05451226 -0.05461781
 -0.05470517 -0.05477686 -0.05483504 -0.05488646 -0.05494486 -0.05501583 -0.05511446 -0.05523751 -0.05538921 -0.05555904
 -0.05574188 -0.05592871 -0.05611385 -0.05629456 -0.05646868 -0.05663694 -0.05679923 -0.05695604 -0.05710752 -0.05725273
 -0.05739164 -0.05752233 -0.05764486 -0.05776071 -0.0578708 -0.05798372 -0.05810008 -0.05822844 -0.05836629 -0.05851179
 -0.05866039 -0.05880159 -0.0589346 -0.05905232 -0.0591604 -0.05926081 -0.05936104 -0.05946713 -0.0595814 -0.05970771
 -0.05984062 -0.05998017 -0.06011713 -0.06024951 -0.06037197 -0.06048293 -0.06058633 -0.0606821 -0.06078006 -0.06088058
 -0.0609897 -0.0611068 -0.06122919 -0.06135601 -0.06148134 -0.06160625 -0.06173033 -0.06185612 -0.06198912 -0.06212923
 -0.06228011 -0.06243651 -0.0625954 -0.06275049 -0.06289595 -0.06303111 -0.06315295 -0.06326755 -0.0633757 -0.06348434
 -0.06359532 -0.06371092 -0.06383202 -0.06395559 -0.06408157 -0.06420446 -0.06432401 -0.06443631 -0.06454155 -0.06463955
 -0.06473092 -0.06481815 -0.06490194 -0.06498524 -0.06506915 -0.06515708 -0.06525028 -0.06535222 -0.06546278 -0.06558397
 -0.06571243 -0.06584746 -0.06598317 -0.06611698 -0.06624404 -0.06636179 -0.06647021 -0.06656811 -0.06666124 -0.06674975
 -0.0668424 -0.06693988 -0.06704789 -0.06716651 -0.06729331 -0.06742741 -0.06755992 -0.06769022 -0.06781012 -0.0679208
 -0.06802107 -0.06811335 -0.06820215 -0.06828877 -0.06837742 -0.0684671 -0.0685583 -0.06864997 -0.06874101 -0.06883273
 -0.06892509 -0.06902069 -0.06912079 -0.06922481 -0.06933355 -0.06944171 -0.06954884 -0.06964955 -0.0697432 -0.06983089
 -0.06991284 -0.06999648 -0.07008208 -0.07017566 -0.07027604 -0.07038117 -0.07048896 -0.07059149 -0.07068855 -0.07077475
 -0.0708538 -0.07092793 -0.07100252 -0.07108421 -0.0711749 -0.07127938 -0.0713926 -0.07151473 -0.07163602 -0.07175355
 -0.07186025 -0.07195341 -0.07203384 -0.07210062 -0.07216208 -0.07221873 -0.07227907 -0.07234342 -0.07241359 -0.07248917
 -0.07256664 -0.07264619 -0.07272649 -0.07280896 -0.07289743 -0.07299269 -0.07309876 -0.07321424 -0.07333921 -0.07347127
 -0.07360808 -0.0737479 -0.07388899 -0.07402996 -0.07417019 -0.07430724 -0.07444052 -0.07456689 -0.07468557 -0.07479465
 -0.07489343 -0.07498404 -0.07506637 -0.07514699 -0.07522622 -0.07531098 -0.0754011 -0.0754985 -0.07560216 -0.07570823
 -0.07581568 -0.07591914 -0.07601865 -0.07611123 -0.07619862 -0.07628173 -0.07636306 -0.07644571 -0.07653037 -0.07661927
 -0.07670957 -0.07680093 -0.07688898 -0.07697191 -0.07704844 -0.07711733 -0.07718231 -0.07724322 -0.0773077 -0.07737632
 -0.07745581 -0.07754643 -0.07764846 -0.07776111 -0.07787663 -0.07799403 -0.07810385 -0.07820667 -0.07829875 -0.07838253
 -0.07846118 -0.07853735 -0.07861685 -0.07869963 -0.07878879 -0.07888023 -0.07897257 -0.07906058 -0.0791406 -0.07921268
 -0.07927497 -0.07933386 -0.07939028 -0.07945007 -0.07951459 -0.07958368 -0.07965763 -0.07973191 -0.0798063 -0.07987666
 -0.07994313 -0.08000517 -0.08006375 -0.08012336 -0.08018501 -0.08025504 -0.08033208 -0.08041731 -0.08050644 -0.0805937
 -0.08067551 -0.08074479 -0.08080366 -0.08085015 -0.08089126 -0.08092961 -0.08097138 -0.0810198 -0.08107516 -0.08113863
 -0.0812062 -0.08127747 -0.08134921 -0.08142094 -0.08149333 -0.08156636 -0.08164161 -0.08171885 -0.08179668 -0.08187443
 -0.08194768 -0.08201635 -0.08207727 -0.08213212 -0.08218254 -0.08223111 -0.08228306 -0.0823381 -0.08239876 -0.08246122
 -0.08252317 -0.08258308 -0.08263823 -0.08269382 -0.08275109 -0.08281402 -0.08288512 -0.08295798 -0.08303262 -0.08309832
 -0.08315381 -0.08319826 -0.08323172 -0.08326441 -0.08329684 -0.08333827 -0.08338821 -0.08344875 -0.08351954 -0.08360001
 -0.08369157 -0.08379638 -0.08391748 -0.08405995 -0.08422723 -0.08442465 -0.0846547 -0.08492059 -0.08522411 -0.0855663
 -0.08595055 -0.08637772 -0.08685233 -0.08737572 -0.08795039 -0.0885783 -0.08924973 -0.08996573 -0.0906899 -0.09142
 -0.09208924 -0.09269403 -0.09317127 -0.09352218 -0.09372155 -0.09377088 -0.09366175 -0.09339476 -0.09295464 -0.09237408
 -0.09168259 -0.09094718 -0.09025223 -0.08963618 -0.08915806 -0.08881684 -0.08862702 -0.08857899 -0.08867583 -0.08889415
 -0.08923936 -0.08963414 -0.09007446 -0.09044548 -0.09073384 -0.09090821 -0.09096708 -0.09097046 -0.0909204 -0.09085829
 -0.09078165 -0.09069636 -0.09060281 -0.09050536 -0.09040619 -0.09031281 -0.09022555 -0.0901489 -0.09008058 -0.09002222
 -0.08996422 -0.08990182 -0.08982175 -0.08971328 -0.08957923 -0.08941402 -0.08924197 -0.08906709 -0.08891118 -0.08877973
 -0.08867195 -0.08858911 -0.08851514 -0.08844924 -0.08837841 -0.08830321 -0.0882262 -0.08814941 -0.08808581 -0.08803593
 -0.08800941 -0.08800329 -0.08801648 -0.08804408 -0.08807803 -0.08811479 -0.08814714 -0.08817443 -0.08819328 -0.08820628
 -0.0882133 -0.08821909 -0.08822519 -0.08823536 -0.08825117 -0.08827223 -0.08829895 -0.08832826 -0.08835979 -0.08839326
 -0.08842865 -0.08847111 -0.08852092 -0.08858358 -0.08865834 -0.08874423 -0.08883937 -0.08893665 -0.08903509 -0.08912852
 -0.08921807 -0.08930316 -0.08938422 -0.0894622 -0.08953521 -0.08960202 -0.08966161 -0.08971226 -0.08975697 -0.08979627
 -0.08983333 -0.08986948 -0.08990391 -0.08993672 -0.08996671 -0.08999352 -0.0900203 -0.0900472 -0.09007855 -0.09011421
 -0.0901536 -0.09019607 -0.09023718 -0.09027721 -0.09031438 -0.09035033 -0.09038822 -0.09042875 -0.09047543 -0.09052567
 -0.09057837 -0.09062977 -0.09067567 -0.09071697 -0.09075157 -0.09078662 -0.09082402 -0.09087012 -0.090928 -0.09099454
 -0.09107073 -0.09114473 -0.09121563 -0.09127275 -0.09131543 -0.0913441 -0.09135964 -0.09137385 -0.09138758 -0.09141263
 -0.0914475 -0.09149369 -0.09154807 -0.09160349 -0.09165921 -0.09170997 -0.09175867 -0.09180664 -0.09185626 -0.09191114
 -0.09196813 -0.09202752 -0.09208254 -0.09213039 -0.09216818 -0.09219352 -0.09221191 -0.09222333 -0.09223665 -0.09225287
 -0.092276 -0.09230635 -0.09234171 -0.09238187 -0.09242345 -0.09246645 -0.09250914 -0.09255181 -0.09259449 -0.09263756
 -0.09268188 -0.09272783 -0.09277637 -0.09282758 -0.09288175 -0.09293916 -0.0930001 -0.09306487 -0.09313447 -0.09320617
 -0.09328011 -0.09335004 -0.09341422 -0.09346957 -0.09351458 -0.09355398 -0.09358791 -0.09362278 -0.093659 -0.09369671
 -0.09373574 -0.09377291 -0.09380861 -0.09384352 -0.09387831 -0.09391624 -0.0939566 -0.09399964 -0.09404352 -0.0940851
 -0.09412381 -0.09415711 -0.09418701 -0.09421366 -0.09424086 -0.09427055 -0.09430593 -0.09434908 -0.09439969 -0.09445879
 -0.09452165 -0.09458798 -0.09465169 -0.094712 -0.09476689 -0.09481619 -0.0948627 -0.09490657 -0.09495044 -0.09499391
 -0.0950356 -0.09507523 -0.09511059 -0.09514284 -0.09517363 -0.09520441 -0.09523889 -0.09527627 -0.09531755 -0.09536012
 -0.09540185 -0.09544198 -0.09547879 -0.09551484 -0.09555055 -0.0955888 -0.09563057 -0.09567666 -0.09572738 -0.09578251
 -0.09584204 -0.09590612 -0.09597476 -0.09604603 -0.09611962 -0.09619038 -0.09625802 -0.09631786 -0.09637054 -0.09641591
 -0.09645504 -0.09649069 -0.09652285 -0.09655278 -0.09658003 -0.09660408 -0.09662608 -0.09664629 -0.09666736 -0.09669077
 -0.09671862 -0.09675216 -0.09679192 -0.09683847 -0.09689082 -0.09694913 -0.09701065 -0.09707519 -0.09713972 -0.09720407
 -0.09726727 -0.09732929 -0.09738984 -0.09744852 -0.09750249 -0.09755149 -0.09759234 -0.09762654 -0.09765583 -0.09768261
 -0.09771237 -0.09774522 -0.09778428 -0.09782664 -0.09787078 -0.09791488 -0.09795667 -0.0979985 -0.09804078 -0.09808557
 -0.0981343 -0.09818355 -0.09823329 -0.09827798 -0.09831669 -0.09834986 -0.0983774 -0.09840535 -0.0984339 -0.0984665
 -0.09850264 -0.09854044 -0.09857967 -0.09861817 -0.09865668 -0.09869606 -0.09873687 -0.09878087 -0.0988273 -0.09887628
 -0.09892613 -0.09897562 -0.09902305 -0.09906671 -0.09910715 -0.09914351 -0.09917952 -0.09921586 -0.09925616 -0.09930156
 -0.0993514 -0.09940609 -0.09946027 -0.09951367 -0.09956086 -0.09960177 -0.09963478 -0.09966061 -0.09968289 -0.09970277
 -0.09972687 -0.09975526 -0.09979197 -0.09983524 -0.09988399 -0.09993598 -0.09998802 -0.1000388 -0.1000861 -0.1001294
 -0.1001676 -0.1002022 -0.1002329 -0.1002642 -0.100297 -0.1003348 -0.1003788 -0.1004267 -0.1004786 -0.1005273
 -0.1005724 -0.1006073 -0.1006322 -0.1006458 -0.1006491 -0.1006473 -0.1006422 -0.100643 -0.1006507 -0.1006725
 -0.100707 -0.1007555 -0.1008145 -0.1008809 -0.1009505 -0.1010189 -0.1010824 -0.1011373 -0.1011829 -0.1012178
 -0.1012451 -0.1012653 -0.1012808 -0.1012926 -0.1012998 -0.1013023 -0.1012993 -0.1012908 -0.1012788 -0.1012637
 -0.1012497 -0.1012373 -0.1012321 -0.1012341 -0.1012477 -0.1012711 -0.1013025 -0.1013387 -0.1013727 -0.1014042
 -0.1014294 -0.1014513 -0.101472 -0.1014917 -0.1015124 -0.1015286 -0.1015383 -0.101538 -0.1015251 -0.1015043
 -0.1014756 -0.1014477 -0.1014219 -0.1014036 -0.1013933 -0.1013919 -0.1013992 -0.1014129 -0.1014326 -0.1014538
 -0.1014757 -0.1014921 -0.101503 -0.1015045 -0.1014995 -0.1014907 -0.1014822 -0.1014816 -0.1014876 -0.1015041
 -0.101522 -0.1015375 -0.1015424 -0.1015305 -0.1015053 -0.1014649 -0.1014215 -0.101377 -0.1013396 -0.101311
 -0.1012918 -0.1012822 -0.1012788 -0.1012815 -0.1012878 -0.1012979 -0.1013119 -0.1013298 -0.1013522 -0.1013779
 -0.1014044 -0.1014297 -0.1014488 -0.1014605 -0.1014607 -0.1014498 -0.1014258 -0.1013914 -0.1013468 -0.1012982
 -0.1012478 -0.1012025 -0.101165 -0.1011368 -0.1011195 -0.1011077 -0.1011013 -0.101092 -0.1010792 -0.1010572
 -0.1010262 -0.1009879 -0.100943 -0.1008993 -0.100857 -0.100822 -0.1007933 -0.1007708 -0.1007538 -0.1007409
 -0.1007328 -0.1007308 -0.100733 -0.1007397 -0.1007444 -0.1007432 -0.1007313 -0.1007043 -0.1006656 -0.1006145
 -0.1005583 -0.1004981 -0.1004388 -0.1003811 -0.1003257 -0.1002729 -0.1002221 -0.1001734 -0.1001282 -0.1000867
 -0.1000533 -0.1000279 -0.100014 -0.1000093 -0.1000104 -0.1000124 -0.1000045 -0.09998381 -0.09994013 -0.09987833
 -0.09979781 -0.09970808 -0.09961517 -0.09952455 -0.09944111 -0.09936255 -0.09928963 -0.09921718 -0.09914369 -0.09906958
 -0.09899414 -0.09892439 -0.09886071 -0.09881043 -0.09877373 -0.09875316 -0.09874773 -0.09875191 -0.09876247 -0.09876283
 -0.09874985 -0.09870395 -0.09862948 -0.09852362 -0.09839643 -0.09826054 -0.09812187 -0.09799031 -0.09786836 -0.09775986
 -0.09766727 -0.09759339 -0.09753583 -0.09749634 -0.09746289 -0.09743447 -0.09739541 -0.09734356 -0.09726973 -0.09717283
 -0.09705473 -0.09691585 -0.09676751 -0.09661085 -0.09646037 -0.096316 -0.09618557 -0.09606725 -0.09595987 -0.09586176
 -0.09576934 -0.09568103 -0.09559365 -0.09550524 -0.09541225 -0.09531561 -0.09521396 -0.09511192 -0.09501196 -0.0949141
 -0.09482022 -0.09472258 -0.09461997 -0.09450652 -0.09438054 -0.09424701 -0.09410588 -0.09396945 -0.09383817 -0.09371924
 -0.09361122 -0.0935063 -0.09340096 -0.09327374 -0.0931255 -0.09294516 -0.0927414 -0.09252673 -0.09230606 -0.09209345
 -0.09188424 -0.09167895 -0.09147304 -0.09126167 -0.09104938 -0.09083591 -0.09062988 -0.09043434 -0.09025264 -0.09008749
 -0.08993059 -0.0897832 -0.08961856 -0.08943506 -0.08920428 -0.08892603 -0.08861223 -0.08826658 -0.08792775 -0.08759508
 -0.08728696 -0.08699738 -0.08671885 -0.0864452 -0.08616049 -0.08586207 -0.08553791 -0.08519311 -0.08482619 -0.08444877
 -0.08406945 -0.08369115 -0.08332217 -0.08294223 -0.08254846 -0.08211661 -0.08163788 -0.08111999 -0.08056139 -0.07998577
 -0.07939516 -0.07879579 -0.07818803 -0.07757635 -0.07696221 -0.07636276 -0.07577601 -0.07520545 -0.07464042 -0.07405135
 -0.07342958 -0.07273767 -0.07198849 -0.07118008 -0.07033793 -0.06948903 -0.06864079 -0.06780791 -0.06698478 -0.06617102
 -0.06536648 -0.06457125 -0.06378521 -0.06301352 -0.06222393 -0.06141889 -0.06051311 -0.0594998 -0.05832132 -0.05697871
 -0.05556929 -0.05410109 -0.05269591 -0.05133827 -0.05001791 -0.04871597 -0.04736767 -0.04597178 -0.04449562 -0.042943
 -0.04131474 -0.03958832 -0.03775579 -0.03575601 -0.03354398 -0.03108517 -0.02832082 -0.02536836 -0.02222786 -0.01911552
 -0.01608286 -0.0132295 -0.01058349 -0.008112179 -0.005817577 -0.00361832 -0.001508786 0.0006376579 0.002831774 0.005241944
 0.007846779 0.01066091 0.01359835 0.01638225 0.01900455 0.02128677 0.02333169 0.02521648 0.02701122 0.02882438
 0.03065642 0.03254084 0.03446006 0.03641069 0.03839101 0.04040832 0.04241997 0.0444239 0.04635059 0.04818558
 0.04993228 0.05158884 0.05319032 0.05473662 0.05618249 0.05752195 0.05867475 0.05964709 0.06042627 0.06102543
 0.06147875 0.06179351 0.0619971 0.06210183 0.06213237 0.06210944 0.06206164 0.06200439 0.06195702 0.0619256
 0.06192267 0.06192905 0.06194651 0.06193363 0.06188329 0.06175859 0.06155243 0.06125173 0.06085289 0.06039089
 0.05986795 0.05934469 0.05881892 0.05829445 0.05776158 0.05717313 0.05652441 0.05577222 0.05492704 0.05398196
 0.05296931 0.05193036 0.05089717 0.04992073 0.04900713 0.04817384 0.04742565 0.04676197 0.04621286 0.04578742
 0.04550876 0.04538827 0.04540753 0.04556681 0.04583776 0.04621775 0.04669506 0.04726908 0.04793346 0.04868728
 0.04951935 0.0504282 0.05140074 0.05243564 0.05352124 0.05465838 0.05584183 0.05707674 0.05836758 0.05972101
 0.06114492 0.06264526 0.06422802 0.06589832 0.06766057 0.06951546 0.0714651 0.07350463 0.07563553 0.07784181
 0.08012541 0.08243946 0.08478183 0.0870859 0.08934858 0.09153719 0.09365178 0.09569003 0.09763913 0.09943503
 0.1010565 0.1023882 0.1034504 0.1042224 0.1047532 0.1051105 0.1053181 0.105428 0.1054412 0.1053759
 0.1052204 0.1049878 0.10461 0.1040874 0.10327 0.102112 0.1005835 0.09863877 0.0966075 0.09451647
 0.09256434 0.09075799 0.08895416 0.08714651 0.08521665 0.08317792 0.08104209 0.07881971 0.07656663 0.07424854
 0.07184459 0.06925293 0.06629453 0.0629466 0.05902443 0.05483783 0.05055042 0.04640493 0.04263459 0.03907565
 0.0357199 0.03242091 0.02911801 0.02588297 0.02271315 0.01972379 0.01693027 0.01430793 0.01185501 0.00946099
 0.007124265 0.004787052 0.002461051 0.0001782246 -0.002049697 -0.004163423 -0.006168635 -0.00804493 -0.009812169 -0.01149006
 -0.01309898 -0.01466286 -0.01620955 -0.01775402 -0.0193569 -0.02105092 -0.022882 -0.02491339 -0.0269742 -0.02906117
 -0.03088365 -0.03237166 -0.03357374 -0.03447842 -0.03531729 -0.03610126 -0.03695005 -0.03785698 -0.03878526 -0.03972264
 -0.04057759 -0.04136008 -0.04205623 -0.04267977 -0.04326464 -0.04379265 -0.04425579 -0.04462112 -0.04484241 -0.04492315
 -0.04484429 -0.04463967 -0.04432222 -0.04391439 -0.04342883 -0.04286767 -0.04223727 -0.04151491 -0.04070273 -0.03974154
 -0.0386251 -0.03732198 -0.03583155 -0.03428665 -0.0327008 -0.03128184 -0.03002259 -0.02899182 -0.02816806 -0.02751388
 -0.02701847 -0.0266418 -0.0263757 -0.02619811 -0.02608252 -0.02600458 -0.02590672 -0.02573993 -0.02546259 -0.02501954
 -0.02447677 -0.02383801 -0.02319447 -0.02257702 -0.02199068 -0.02144432 -0.02089799 -0.0203485 -0.01977096 -0.01916411
 -0.01854411 -0.01791296 -0.01730235 -0.01670879 -0.01613296 -0.01556144 -0.01494977 -0.01428563 -0.01351282 -0.01264249
 -0.01166442 -0.01060081 -0.009479914 -0.008293006 -0.007047306 -0.005715864 -0.004281297 -0.002745774 -0.001100747 0.0006218258
 0.002412764 0.004266319 0.006174386 0.008187943 0.0103112 0.01258489 0.01501096 0.01750253 0.02004799 0.02247466
 0.02478124 0.02687329 0.028758 0.03041893 0.03184288 0.03299696 0.03385373 0.03435098 0.03448264 0.03421022
 0.03356173 0.03254228 0.03118979 0.02952537 0.02757307 0.02534341 0.02285866 0.02011339 0.01719149 0.01409182
 0.01098529 0.007887375 0.004927008 0.002111766 -0.0005787863 -0.003150124 -0.005684257 -0.00817526 -0.01063369 -0.01303996
 -0.01532531 -0.01748832 -0.01948342 -0.02133816 -0.02307522 -0.02472253 -0.02632296 -0.02788404 -0.02942916 -0.03094452
 -0.03243234 -0.03386656 -0.03523891 -0.03652843 -0.03772574 -0.038835 -0.0398529 -0.04080714 -0.0417 -0.04255381
 -0.04336992 -0.04413512 -0.04484672 -0.04546401 -0.04598729 -0.04639471 -0.04669486 -0.04690617 -0.04703735 -0.04711906
 -0.04715302 -0.04715599 -0.04712561 -0.04706418 -0.04697317 -0.04685064 -0.04671055 -0.0465554 -0.0464121 -0.046289
 -0.04621286 -0.04619234 -0.04623977 -0.04635976 -0.04654716 -0.04680279 -0.04710908 -0.04746511 -0.0478517 -0.0482681
 -0.04870112 -0.04914885 -0.04959517 -0.05003428 -0.05043714 -0.05079857 -0.05108906 -0.05131358 -0.05146421 -0.05155548
 -0.05160048 -0.05161175 -0.05160395 -0.05158219 -0.05155246 -0.05151838 -0.05148166 -0.05144785 -0.05141858 -0.05139751
 -0.0513858 -0.05138265 -0.05138792 -0.0514028 -0.0514273 -0.05147022 -0.0515322 -0.05162515 -0.0517481 -0.05190205
 -0.05208337 -0.05227918 -0.05248695 -0.05269306 -0.05289964 -0.05310367 -0.0533092 -0.05351995 -0.05373829 -0.05396752
 -0.0542081 -0.05446246 -0.05472543 -0.05499784 -0.05526565 -0.05552622 -0.0557657 -0.05598029 -0.05617069 -0.05633588
 -0.05648821 -0.05662837 -0.05676464 -0.05689684 -0.05702357 -0.05714386 -0.05725137 -0.05734487 -0.05741695 -0.05746588
 -0.05748373 -0.05746953 -0.05741744 -0.05732899 -0.05720223 -0.05704334 -0.05685538 -0.05664726 -0.05642512 -0.05619288
 -0.05595481 -0.05570569 -0.0554447 -0.05516841 -0.05487438 -0.05457408 -0.05426761 -0.0539748 -0.05369686 -0.05344448
 -0.05321735 -0.05301197 -0.05282723 -0.05265431 -0.05249295 -0.05233707 -0.05218804 -0.05204548 -0.05191244 -0.0517933
 -0.05169194 -0.0516146 -0.05156393 -0.05154426 -0.05155631 -0.05160192 -0.05167993 -0.05179063 -0.05193142 -0.05210221
 -0.05229839 -0.0525197 -0.05275916 -0.05301616 -0.05328419 -0.0535628 -0.05385016 -0.0541463 -0.05445252 -0.05476818
 -0.05509001 -0.05541657 -0.05574017 -0.05606088 -0.05637449 -0.05668273 -0.05698705 -0.05728794 -0.05758679 -0.05788312
 -0.05817669 -0.05846808 -0.0587577 -0.05904552 -0.05933237 -0.05961469 -0.05989223 -0.06015959 -0.06041592 -0.06065721
 -0.06088306 -0.0610898 -0.06127721 -0.06144131 -0.06158195 -0.06169643 -0.06178498 -0.06184743 -0.06188467 -0.06189961
 -0.06189378 -0.06187249 -0.06183692 -0.06179187 -0.06173681 -0.0616736 -0.06159952 -0.06151393 -0.06141119 -0.06128922
 -0.06113936 -0.06095794 -0.06073865 -0.0604782 -0.06017821 -0.05983761 -0.05946496 -0.05906082 -0.05863441 -0.05818631
 -0.05772484 -0.05725049 -0.05677193 -0.05628967 -0.05581172 -0.05533775 -0.05487156 -0.05441078 -0.05395165 -0.05349124
 -0.05302138 -0.05254401 -0.05205632 -0.0515666 -0.05108106 -0.05060536 -0.05014587 -0.04970003 -0.04926744 -0.04884885
 -0.04844241 -0.04805976 -0.04770305 -0.04737834 -0.04708799 -0.04681706 -0.04656495 -0.04630758 -0.04604414 -0.04576018
 -0.04545587 -0.04512586 -0.04476984 -0.04438357 -0.04396662 -0.04351512 -0.04303018 -0.04251121 -0.0419615 -0.04138431
 -0.04078401 -0.04016537 -0.03953113 -0.03888381 -0.03822598 -0.03755769 -0.03688703 -0.03621523 -0.03555314 -0.03490331
 -0.03426944 -0.03365237 -0.03305138 -0.03246634 -0.03190257 -0.03136022 -0.03084313 -0.03034968 -0.0298696 -0.02940201
 -0.02893596 -0.02847587 -0.02802807 -0.02759614 -0.02719235 -0.02681026 -0.02644898 -0.02609557 -0.02573907 -0.02536872
 -0.02497492 -0.02455276 -0.02409682 -0.02361093 -0.02309399 -0.02255593 -0.02199874 -0.02142688 -0.02084161 -0.02023855
 -0.0196174 -0.0189782 -0.01832166 -0.01766131 -0.01699905 -0.01635538 -0.01573102 -0.01514078 -0.01458206 -0.01405562
 -0.01355835 -0.0130823 -0.01263276 -0.01221025 -0.01182886 -0.01150272 -0.01123619 -0.01104142 -0.01089847 -0.01080569
 -0.01073129 -0.01066659 -0.01058834 -0.01049038 -0.01036335 -0.01020479 -0.01001804 -0.009802983 -0.009570408 -0.009320586
 -0.009058109 -0.008781968 -0.008485521 -0.008169788 -0.00783365 -0.007482824 -0.007132208 -0.006786229 -0.006461603 -0.006155612
 -0.005872489 -0.005605773 -0.00535049 -0.005104041 -0.004861431 -0.004629131 -0.004406501 -0.004208211 -0.004038124 -0.00390717
 -0.003819358 -0.003771162 -0.003763268 -0.003784709 -0.0038348 -0.003905686 -0.003996875 -0.004099867 -0.004213707 -0.004326394
 -0.004438404 -0.004544358 -0.004647447 -0.004753572 -0.004865508 -0.004991395 -0.005131966 -0.005291827 -0.005469688 -0.005666778
 -0.005879019 -0.006104015 -0.006339647 -0.006582523 -0.006840026 -0.007112585 -0.007411393 -0.007739169 -0.008099333 -0.00849284
 -0.00891847 -0.009376208 -0.009865722 -0.01038655 -0.01092909 -0.01149098 -0.01204918 -0.01260206 -0.01312941 -0.01363311
 -0.01410758 -0.01455642 -0.01498329 -0.01539233 -0.01578993 -0.01618021 -0.0165701 -0.01695856 -0.01734846 -0.01773251
 -0.0181079 -0.01847091 -0.01881872 -0.01915571 -0.01948196 -0.01980326 -0.02012012 -0.02043808 -0.02075735 -0.02108887
 -0.02143326 -0.02180315 -0.02219808 -0.02262088 -0.02306918 -0.0235338 -0.02401362 -0.02449957 -0.02499472 -0.02550038
 -0.02602026 -0.02656244 -0.0271214 -0.02769783 -0.02827705 -0.02884908 -0.02940728 -0.02994341 -0.03046784 -0.03098206
 -0.03149453 -0.03200888 -0.03251798 -0.03302149 -0.03351237 -0.03398976 -0.03445938 -0.03492132 -0.0353778 -0.03582711
 -0.03625584 -0.03666247 -0.03703233 -0.03736728 -0.03766501 -0.03792824 -0.03816158 -0.03836567 -0.03854351 -0.0386943
 -0.03881845 -0.03891471 -0.03898171 -0.03902095 -0.03903106 -0.03902036 -0.03898978 -0.03895168 -0.03890887 -0.03886786
 -0.0388307 -0.03879132 -0.03874976 -0.03869081 -0.03861395 -0.03851085 -0.03838383 -0.03824729 -0.03810608 -0.03799073
 -0.03790207 -0.03786031 -0.03785888 -0.03789498 -0.03796109 -0.03804587 -0.03814428 -0.03824949 -0.03835295 -0.03844957
 -0.03852558 -0.03857374 -0.03858531 -0.03855453 -0.0384859 -0.03837819 -0.03824411 -0.03808504 -0.03791082 -0.03772245
 -0.03752104 -0.03730661 -0.03707746 -0.03683446 -0.0365841 -0.03632808 -0.03607871 -0.03583489 -0.0356006 -0.03537201
 -0.03514266 -0.03491162 -0.03467424 -0.0344327 -0.03418792 -0.03394033 -0.0336906 -0.03343846 -0.03318295 -0.03292791
 -0.03267407 -0.03242538 -0.03218312 -0.03194699 -0.03171691 -0.03149416 -0.0312787 -0.03107609 -0.03088642 -0.03070971
 -0.03054479 -0.03038125 -0.03021795 -0.03004347 -0.02985885 -0.02966095 -0.02945215 -0.02923573 -0.02901343 -0.02878879
 -0.02856333 -0.02833919 -0.02811902 -0.02790514 -0.02769935 -0.02750398 -0.02731589 -0.02713586 -0.02695487 -0.02677155
 -0.02657725 -0.0263702 -0.02614981 -0.0259157 -0.02567376 -0.02542413 -0.02516719 -0.02490179 -0.02461674 -0.02431221
 -0.02398033 -0.02362769 -0.02326833 -0.02291171 -0.02258583 -0.02229046 -0.0220403 -0.02182268 -0.02163095 -0.0214533
 -0.0212786 -0.02110449 -0.02092731 -0.020747 -0.02056385 -0.02037333 -0.02017503 -0.01996276 -0.01973573 -0.01948893
 -0.01922173 -0.01893459 -0.01862789 -0.01831514 -0.01799825 -0.01770069 -0.01742299 -0.0171815 -0.0169724 -0.01679454
 -0.01663975 -0.01649248 -0.0163423 -0.01616751 -0.01596289 -0.01571231 -0.01542468 -0.01509783 -0.01475219 -0.01439546
 -0.01404662 -0.01371374 -0.01340553 -0.01312679 -0.0128713 -0.01264047 -0.01241269 -0.01218661 -0.01194084 -0.01167453
 -0.01138144 -0.01106162 -0.01071359 -0.01033638 -0.009922232 -0.009474438 -0.008995696 -0.008497392 -0.008003847 -0.007524933
 -0.007086679 -0.006689417 -0.006343941 -0.00604439 -0.005792347 -0.005574081 -0.005387021 -0.005207358 -0.005027195 -0.00482975
 -0.004607679 -0.004367448 -0.004107785 -0.003846862 -0.003586055 -0.003337735 -0.003102484 -0.002886795 -0.002690465 -0.002514691
 -0.002358134 -0.002214701 -0.002083444 -0.001958288 -0.001838993 -0.001723251 -0.001608322 -0.001489451 -0.001364055 -0.001227049
 -0.001079526 -0.0009217769 -0.0007513665 -0.0005674429 -0.0003669931 -0.0001444154 8.04882E-05 0.0003079769 0.0004996555 0.0006483505
 0.000744761 0.0007854221 0.0008096605 0.0008196107 0.0008634892 0.0009412179 0.001070683 0.001247772 0.001461682 0.001708184
 0.001967447 0.002239941 0.002515715 0.002800426 0.003099975 0.003413771 0.003747148 0.004086613 0.004424656 0.004750181
 0.005054711 0.005337525 0.005598105 0.005830309 0.006032786 0.006199887 0.006327626 0.006440199 0.006538261 0.0066616
 0.006811908 0.007000834 0.007226764 0.007476228 0.007748923 0.008037292 0.008341175 0.008659073 0.008984123 0.009302831
 0.009604437 0.009866296 0.01008418 0.01024201 0.01035003 0.01040684 0.01043492 0.01044442 0.01045243 0.01046879
 0.01049259 0.01052493 0.01056472 0.01061049 0.01067531 0.01076046 0.0108706 0.01100578 0.01115139 0.01130733
 0.01146795 0.01163385 0.01180859 0.01198614 0.0121478 0.01228994 0.01238959 0.0124617 0.01251833 0.01257431
 0.01265379 0.01275224 0.01287008 0.01301427 0.01318104 0.01340544 0.01370736 0.01406912 0.01450315 0.01490967
 0.01527182 0.01555556 0.0157533 0.01590598 0.01601553 0.01612381 0.01623204 0.01636971 0.01653316 0.01672341
 0.01692652 0.01709717 0.01722495 0.01725816 0.0172108 0.01707795 0.01688566 0.01666127 0.01641809 0.01617352
 0.01593556 0.01571061 0.01550936 0.01533853 0.01519562 0.01508211 0.01498874 0.01491317 0.01486036 0.01483105
 0.01482256 0.01483442 0.0148273 0.01479812 0.01469732 0.01452696 0.01426964 0.01393547 0.01354481 0.0131148
 0.01269247 0.01229124 0.01195931 0.01168177 0.0114658 0.01127935 0.01109393 0.01091204 0.01072298 0.01055217
 0.0104109 0.01029476 0.01020533 0.01013225 0.01007103 0.01004277 0.01004913 0.01010319 0.01020557 0.01034603
 0.01052596 0.01075998 0.01104934 0.01141494 0.01184427 0.0123067 0.01278884 0.01324082 0.01366821 0.0140574
 0.01441862 0.01475773 0.01508336 0.01539746 0.01572718 0.01608426 0.01649732 0.0169847 0.01753527 0.01815368
 0.01880374 0.01948082 0.02015899 0.02083628 0.02148341 0.02209869 0.02264489 0.02312258 0.02352671 0.02386197
 0.02415458 0.02440321 0.02461772 0.02479251 0.02491852 0.02499406 0.02501608 0.02497408 0.02485831 0.0246521
 0.02433203 0.02391482 0.02339174 0.02282239 0.02222189 0.02165035 0.02112639 0.02067667 0.02031166 0.02001303
 0.01978241 0.01956489 0.01935761 0.01912446 0.01886818 0.01861463 0.01836746 0.01816516 0.0179991 0.01785868
 0.01773588 0.01760271 0.0174664 0.01732782 0.01719039 0.01706206 0.01693267 0.01679445 0.01664831 0.0164896
 0.01633268 0.01618457 0.01604227 0.01591023 0.01576163 0.01559366 0.01538007 0.01511674 0.01480557 0.01444654
 0.01408725 0.01373101 0.01343717 0.01320012 0.01302088 0.01288423 0.01273302 0.01256619 0.0123474 0.01209614
 0.01182968 0.01155956 0.01130641 0.01107254 0.01086016 0.01068965 0.01057103 0.01052328 0.01056269 0.01066637
 0.01083703 0.0110243 0.01122135 0.0113882 0.01152003 0.01159621 0.01161532</values></Ydata></AB><ScSm><Ydata ylabel="Single channel"><values byteorder="INTEL" format="FLOAT32" numvalues="1814"> 0.07021421 0.07022573 0.07029412 0.07044142 0.0706436 0.07084414 0.07099169 0.07107046 0.07108976 0.07105377
 0.07097352 0.07090875 0.07094961 0.07112907 0.07137279 0.07155181 0.07158627 0.0715156 0.07147358 0.07155897
 0.07170342 0.07169482 0.07137522 0.07081944 0.07028516 0.06997558 0.06991406 0.07009341 0.07059926 0.07136899
 0.07192655 0.07172631 0.07084236 0.06999098 0.0697368 0.06995195 0.07015613 0.07006814 0.06969079 0.06920126
 0.06899785 0.06959036 0.07109773 0.07283955 0.07358417 0.07232418 0.06899227 0.06469098 0.06129058 0.06042767
 0.06234935 0.06558079 0.06803465 0.06867731 0.06802107 0.06706736 0.06622849 0.06546371 0.06497658 0.06524277
 0.06635489 0.06758982 0.06778535 0.0663315 0.06389549 0.06195128 0.0614382 0.06216986 0.06361715 0.06548329
 0.06691222 0.06603358 0.06180098 0.05632278 0.05392308 0.05703086 0.06358762 0.06906468 0.07049408 0.06812508
 0.06410122 0.06068429 0.05941079 0.06067818 0.06366443 0.06701107 0.06965031 0.07085969 0.07008116 0.06740285
 0.06403308 0.06171598 0.06166171 0.06407231 0.06809744 0.07190965 0.07353528 0.07231249 0.06933114 0.06627961
 0.06433126 0.06414583 0.06603479 0.06963497 0.07389222 0.07767434 0.08023155 0.08126603 0.08099283 0.08000508
 0.07882151 0.07780264 0.0774709 0.07818832 0.07930818 0.07941981 0.07788695 0.07569863 0.07444864 0.07468402
 0.07546864 0.07552173 0.07451377 0.07285517 0.07043025 0.0665725 0.06160045 0.05722616 0.05484286 0.05446449
 0.05574783 0.05853375 0.06164402 0.06281464 0.06117798 0.05884008 0.05878978 0.06171041 0.06562936 0.06832023
 0.06935899 0.06997361 0.07146456 0.07387626 0.07582483 0.07554547 0.07264645 0.06909315 0.06781623 0.0698323
 0.07326484 0.07564949 0.07653072 0.07718951 0.07840856 0.07926698 0.07810333 0.0744898 0.07029971 0.068556
 0.07079765 0.07553297 0.07931774 0.07930824 0.07517913 0.06919247 0.06443071 0.06266563 0.06388558 0.06746717
 0.0728592 0.07897092 0.08389492 0.08597912 0.08503242 0.08221681 0.07872087 0.07466626 0.06974889 0.06506707
 0.06333105 0.06629884 0.07252661 0.07857318 0.08206749 0.08288816 0.08182532 0.07911605 0.07465959 0.06942019
 0.0658901 0.06615633 0.06938653 0.07229856 0.07259592 0.07106023 0.06986455 0.06986407 0.07027905 0.07035558
 0.07043786 0.07137173 0.07329121 0.07529637 0.07632463 0.07611837 0.07526734 0.07451906 0.07410309 0.07357097
 0.07243201 0.07113499 0.07101729 0.07283954 0.07573719 0.07810877 0.07922012 0.07946746 0.0793146 0.07848684
 0.07638319 0.07322334 0.07051432 0.06993532 0.07171227 0.07447591 0.07668386 0.0777269 0.07778092 0.07725281
 0.07650852 0.07575084 0.07507136 0.07470206 0.07496263 0.07579815 0.07667272 0.07710564 0.07706428 0.0767255
 0.07613657 0.0752806 0.0743137 0.07357027 0.07332441 0.07358322 0.07412538 0.07469752 0.07510535 0.0751809
 0.07484363 0.0742245 0.07358529 0.07308275 0.07272068 0.07251394 0.0725392 0.07278869 0.07309926 0.07328682
 0.07329027 0.07315446 0.07293073 0.0726376 0.07229389 0.07195833 0.07172825 0.07167538 0.07176221 0.07186188
 0.07190153 0.07193495 0.07201468 0.07205752 0.07193157 0.0716403 0.0713309 0.07113434 0.07106258 0.07104962
 0.07102336 0.07091559 0.07065462 0.07022624 0.06975748 0.06947112 0.06950488 0.06980872 0.07023173 0.07063848
 0.07092575 0.0710301 0.07097666 0.07085699 0.07072303 0.07054834 0.07030682 0.07005121 0.06990142 0.06995695
 0.07020393 0.07051307 0.07074633 0.07085156 0.07085433 0.07081473 0.07080607 0.07086672 0.07094473 0.07094456
 0.07084823 0.07074487 0.07072714 0.07079114 0.07084946 0.07083049 0.07075764 0.07072292 0.07078306 0.07090592
 0.07102529 0.07111651 0.071201 0.07129543 0.07137118 0.07136886 0.07126587 0.0711225 0.0710296 0.0710139
 0.07103312 0.07105955 0.07111782 0.0712287 0.07135592 0.07143597 0.07144819 0.07143376 0.07143882 0.07145278
 0.0714234 0.07132865 0.07120892 0.07112323 0.07109348 0.07109734 0.07109898 0.07107635 0.07102555 0.0709506
 0.07085676 0.0707524 0.07064727 0.07054909 0.07047202 0.07044232 0.07047164 0.07052021 0.07050987 0.070393
 0.07020247 0.07002151 0.0699029 0.06982671 0.06973925 0.06962012 0.06949675 0.06940368 0.0693492 0.06932011
 0.06929804 0.06926895 0.06923763 0.06924017 0.06932024 0.06947605 0.06964251 0.06974547 0.06977068 0.0697667
 0.06978792 0.06985167 0.06994329 0.07004322 0.0701489 0.07027771 0.07043847 0.07059993 0.0707132 0.07077434
 0.07083651 0.07095112 0.07112406 0.07133307 0.07155068 0.07174195 0.0718783 0.07197267 0.07207532 0.07221981
 0.07239205 0.07256216 0.07272567 0.07289826 0.07308666 0.07328618 0.07350248 0.07375613 0.07405871 0.07439116
 0.07470969 0.07497475 0.0751835 0.07538162 0.07563525 0.07597779 0.07638068 0.07677838 0.07712316 0.0774186
 0.07770294 0.07800294 0.07831383 0.07862922 0.07897213 0.07937168 0.0798173 0.08026327 0.08067776 0.08106665
 0.08145005 0.08183775 0.0822316 0.08263712 0.08306342 0.08351154 0.08396357 0.08438855 0.0847661 0.08510335
 0.08542788 0.08577088 0.08615398 0.08657033 0.08697204 0.08730336 0.08756539 0.08782716 0.08814812 0.0885078
 0.0888413 0.08913209 0.08943117 0.08978277 0.09016733 0.09053472 0.09086885 0.09119666 0.09154335 0.09189644
 0.09221342 0.09246051 0.09264675 0.09281909 0.09302077 0.09326388 0.09354872 0.093887 0.0942798 0.09468664
 0.0950479 0.09533502 0.09556042 0.09575029 0.09593122 0.09612913 0.0963543 0.09659203 0.09682116 0.09702928
 0.09720547 0.09734674 0.09748405 0.09767179 0.09793304 0.09824133 0.0985698 0.09892642 0.09931815 0.099713
 0.1000773 0.1004345 0.1008412 0.1012991 0.1017299 0.1020555 0.1022748 0.102441 0.1025985 0.1027744
 0.1030072 0.103332 0.1037383 0.1041732 0.1045911 0.1049829 0.105359 0.105721 0.1060532 0.1063344
 0.1065546 0.1067247 0.106871 0.1070263 0.1072213 0.1074688 0.1077467 0.1080071 0.1082084 0.1083303
 0.1083576 0.1082767 0.1081082 0.107919 0.1077679 0.107638 0.107445 0.1071119 0.106619 0.1059866
 0.1052362 0.1043859 0.1034721 0.1025613 0.1017366 0.1010734 0.1006278 0.1004429 0.1005538 0.1009648
 0.1016149 0.1023775 0.1031024 0.1036542 0.1039228 0.1038345 0.1033834 0.102645 0.1017376 0.1007684
 0.0998105 0.09890197 0.09804448 0.09722314 0.09646178 0.09586021 0.09556431 0.09570843 0.0963946 0.09768965
 0.09957992 0.1019061 0.104377 0.106693 0.1086797 0.1103203 0.1116908 0.1128885 0.1139938 0.1150471
 0.1160388 0.1169387 0.1177402 0.1184662 0.119133 0.1197295 0.1202312 0.1206196 0.1208927 0.1210709
 0.1211904 0.1212813 0.1213595 0.1214407 0.1215423 0.1216561 0.1217266 0.1216721 0.1214276 0.1209749
 0.1203495 0.1196499 0.1190653 0.118892 0.119457 0.120934 0.1231908 0.1258307 0.1284086 0.1306273
 0.1323858 0.1337206 0.1347339 0.1355381 0.13622 0.1368348 0.1374164 0.1379844 0.1385415 0.1390796
 0.1395935 0.1400903 0.1405866 0.1410939 0.1416036 0.1420918 0.1425462 0.1429836 0.1434383 0.143932
 0.1444536 0.1449679 0.1454502 0.1459086 0.1463631 0.1468108 0.1472305 0.1476187 0.1479994 0.1484
 0.1488337 0.1493001 0.1497811 0.1502394 0.1506429 0.1509948 0.1513285 0.1516739 0.1520383 0.1524155
 0.1527978 0.1531785 0.1535521 0.1539223 0.1543055 0.1547128 0.1551273 0.1555107 0.1558409 0.1561357
 0.1564339 0.1567565 0.1570936 0.1574254 0.1577513 0.1580938 0.1584747 0.1588888 0.1593043 0.1596865
 0.1600231 0.160328 0.1606269 0.1609395 0.1612728 0.161624 0.1619843 0.1623426 0.1626917 0.1630349
 0.16338 0.1637295 0.1640775 0.1644191 0.1647564 0.1650961 0.1654428 0.1657939 0.1661442 0.1664977
 0.166867 0.1672541 0.1676372 0.1679864 0.168291 0.1685674 0.1688406 0.169126 0.169426 0.1697373
 0.1700553 0.170376 0.1706978 0.1710244 0.1713598 0.1717012 0.1720384 0.1723649 0.1726856 0.173012
 0.1733517 0.1737045 0.1740634 0.1744163 0.174753 0.1750718 0.1753806 0.1756908 0.1760109 0.1763421
 0.1766765 0.1770037 0.1773217 0.1776368 0.1779538 0.1782711 0.1785872 0.1789046 0.179226 0.1795494
 0.1798698 0.1801841 0.1804947 0.1808072 0.1811257 0.1814511 0.1817811 0.182111 0.1824345 0.1827492
 0.1830586 0.183368 0.183682 0.1840049 0.1843365 0.1846687 0.184992 0.1853046 0.1856107 0.1859145
 0.186218 0.1865234 0.1868338 0.1871524 0.1874779 0.187802 0.1881169 0.1884254 0.1887377 0.1890592
 0.1893868 0.1897161 0.190045 0.1903743 0.190707 0.1910443 0.1913828 0.1917178 0.1920476 0.1923721
 0.1926923 0.1930116 0.1933328 0.1936548 0.1939745 0.19429 0.1946003 0.1949073 0.1952164 0.1955311
 0.1958504 0.1961732 0.1964978 0.1968172 0.1971247 0.1974254 0.19773 0.1980423 0.19836 0.1986791
 0.1989939 0.1993017 0.1996095 0.1999278 0.2002577 0.2005928 0.2009244 0.2012451 0.2015568 0.2018734
 0.2022042 0.202542 0.2028759 0.2032039 0.2035281 0.2038526 0.2041838 0.2045204 0.2048501 0.2051653
 0.2054714 0.2057751 0.2060792 0.2063877 0.2067007 0.2070141 0.2073305 0.2076578 0.2079918 0.2083189
 0.2086332 0.208937 0.2092347 0.2095342 0.2098413 0.2101508 0.2104589 0.2107745 0.2111025 0.2114331
 0.211758 0.2120782 0.2123933 0.2127053 0.2130215 0.2133406 0.2136533 0.2139629 0.2142736 0.2145579
 0.2147515 0.2147232 0.2141571 0.2124104 0.2084869 0.2012351 0.1898099 0.1742033 0.1554283 0.135155
 0.1150936 0.09655369 0.08031739 0.06673537 0.05588991 0.04770289 0.04200646 0.03865901 0.03766318 0.03928724
 0.04420055 0.05307835 0.06510952 0.07668126 0.08279267 0.08100426 0.07376568 0.06617936 0.06176797 0.06078266
 0.0617182 0.0632806 0.06505682 0.06729144 0.0704014 0.07449798 0.07936959 0.08499561 0.09179465 0.1000838
 0.1094351 0.1188578 0.1276532 0.1359583 0.1444118 0.1533826 0.1625811 0.1713433 0.1791574 0.1859209
 0.1918417 0.1972051 0.2022106 0.2069511 0.2114705 0.2157629 0.2196797 0.2228949 0.2250641 0.2260858
 0.2262231 0.225958 0.2257109 0.2256761 0.2258691 0.2262542 0.2268053 0.2275044 0.228335 0.2292755
 0.2302894 0.2313357 0.2323857 0.2334174 0.234404 0.235324 0.2361728 0.236955 0.2376761 0.2383437
 0.2389657 0.239546 0.2400888 0.2406022 0.2410931 0.2415626 0.2420107 0.2424397 0.2428523 0.243248
 0.2436216 0.2439691 0.2442964 0.2446154 0.2449277 0.2452235 0.2455007 0.2457746 0.2460621 0.2463658
 0.2466765 0.2469838 0.2472824 0.2475761 0.2478718 0.2481707 0.2484701 0.2487727 0.2490831 0.2493937
 0.2496898 0.2499698 0.2502472 0.2505331 0.2508245 0.2511129 0.2513967 0.2516829 0.2519759 0.2522699
 0.2525594 0.2528536 0.2531672 0.2534992 0.2538345 0.2541635 0.2544841 0.2547946 0.2550979 0.2554008
 0.2556984 0.2559719 0.2562125 0.2564397 0.2566894 0.2569884 0.2573327 0.2576864 0.258012 0.2583032
 0.2585827 0.2588734 0.2591768 0.2594752 0.259756 0.2600383 0.2603604 0.2607282 0.261104 0.2614588
 0.2618017 0.2621456 0.2624868 0.2628272 0.263171 0.2634937 0.2637582 0.2639751 0.2642211 0.2645805
 0.2650624 0.2655806 0.2660305 0.2663839 0.266693 0.2670223 0.2674011 0.267796 0.2680909 0.2681717
 0.2681051 0.268159 0.2685574 0.2692597 0.2700357 0.2706977 0.2712094 0.2716264 0.2720011 0.2723313
 0.2725638 0.2726541 0.2726575 0.2727569 0.2731381 0.273795 0.2745176 0.2751092 0.2755446 0.2758906
 0.2761895 0.2764575 0.276648 0.2765911 0.2761713 0.2756463 0.2755789 0.2762943 0.2775122 0.2786425
 0.2793662 0.2798008 0.2801738 0.280547 0.2808697 0.2810239 0.2807024 0.2795912 0.2779787 0.2769111
 0.2773235 0.2790992 0.2812572 0.282934 0.283924 0.2844536 0.2847968 0.2850941 0.2852483 0.2849395
 0.2839804 0.2827851 0.2822636 0.2829841 0.2845348 0.2859663 0.2867614 0.2871058 0.2873774 0.2877215
 0.2879552 0.287516 0.2857779 0.2829739 0.2806647 0.2806452 0.2831926 0.286738 0.2894214 0.2906917
 0.2911692 0.291283 0.2906369 0.2887269 0.2857006 0.2822924 0.2795992 0.2789383 0.2809734 0.2846145
 0.2876338 0.2888672 0.289201 0.2901039 0.2918689 0.2936252 0.2944762 0.2941958 0.2930626 0.2913619
 0.2892551 0.2872459 0.2864553 0.2878224 0.2909595 0.2942924 0.2965182 0.297598 0.2980644 0.2974848
 0.2941518 0.2871379 0.2788606 0.2744099 0.277046 0.2847874 0.2925485 0.2971448 0.2990282 0.2998878
 0.3003893 0.2999982 0.2972851 0.2907022 0.2810238 0.2728834 0.2716367 0.2780577 0.2874568 0.2940605
 0.2949517 0.2903723 0.2826695 0.2755926 0.2727638 0.2754765 0.2821347 0.2898309 0.2960936 0.2995425
 0.2998555 0.297643 0.2944141 0.2922101 0.2921263 0.292695 0.2909966 0.2863481 0.2814383 0.2783728
 0.2754118 0.2701944 0.2649347 0.2649448 0.2717274 0.2804597 0.2854122 0.2857466 0.2844663 0.2829483
 0.2785867 0.2685525 0.2551615 0.2459402 0.2470313 0.2568297 0.2674327 0.2723742 0.2717473 0.2698671
 0.2695049 0.269072 0.2648744 0.2559392 0.2464222 0.2421131 0.2442826 0.2485444 0.2500432 0.2473442
 0.2407186 0.2305377 0.2200174 0.2162196 0.224066 0.240277 0.2559642 0.2639651 0.2614467 0.2482637
 0.2278876 0.2094343 0.2032276 0.2115672 0.2259352 0.2348397 0.2329423 0.2219843 0.2058242 0.1877778
 0.1721043 0.1644793 0.168571 0.1823069 0.1980887 0.2066571 0.2021906 0.1867471 0.1704906 0.1643788
 0.1702911 0.1798302 0.18376 0.1803615 0.1740851 0.1697239 0.1696174 0.1733762 0.1783413 0.1820353
 0.1841373 0.1837829 0.1769031 0.1611637 0.1426175 0.1317438 0.132536 0.140429 0.1507338 0.1628144
 0.1746226 0.1798326 0.1749867 0.1661036 0.1635876 0.1712006 0.1828325 0.1899665 0.1901179 0.1872948
 0.1857703 0.1854647 0.1841502 0.1825197 0.1843539 0.1912785 0.1998907 0.2055498 0.2072148 0.2070097
 0.2066532 0.2061737 0.2051263 0.2033695 0.200978 0.1983417 0.1960407 0.1941805 0.1922977 0.1900527
 0.187215 0.1826943 0.174817 0.1638188 0.1533682 0.1477249 0.1472948 0.1489091 0.1504646 0.1521615
 0.1522287 0.1456847 0.1309263 0.1151404 0.109082 0.1167025 0.1322216 0.1466782 0.1547047 0.1549594
 0.1475481 0.1344658 0.1220412 0.1189399 0.1290783 0.1478807 0.1672183 0.1823847 0.19257 0.1970369
 0.1945154 0.1862371 0.1770728 0.1727859 0.1765765 0.1876294 0.2012859 0.2101551 0.2077341 0.1949486
 0.1831753 0.1858392 0.2042008 0.225116 0.2358035 0.2368374 0.2368445 0.2391091 0.2399855 0.2384208
 0.2397136 0.2482145 0.2608774 0.2702472 0.2709959 0.2620085 0.2456504 0.2282637 0.2185344 0.2205912
 0.2293983 0.236293 0.2373953 0.2331113 0.2230071 0.2079364 0.1954816 0.1953869 0.2082345 0.2241207
 0.233925 0.2376195 0.240151 0.2429251 0.2421401 0.2345917 0.2230268 0.2144375 0.2131282 0.2169327
 0.2208315 0.2222274 0.2210129 0.2166124 0.2083259 0.1985236 0.192653 0.1945303 0.2024521 0.2108704
 0.2154411 0.2157952 0.2141261 0.2124657 0.2113663 0.2101356 0.2081969 0.2068206 0.2088695 0.2156211
 0.2245212 0.2317159 0.2364293 0.2411868 0.2478341 0.2549322 0.2594359 0.2599726 0.2581585 0.2572281
 0.2594519 0.2643067 0.2688386 0.2701781 0.2682793 0.2662293 0.2674132 0.2722813 0.2782841 0.2827729
 0.2851688 0.2864086 0.2873842 0.2882005 0.2881284 0.2861784 0.2825645 0.2795774 0.2799762 0.2842434
 0.2900972 0.2948013 0.2973295 0.2982524 0.298304 0.2975959 0.2960176 0.2939251 0.2921543 0.291381
 0.2916488 0.2925463 0.2936493 0.2947069 0.2956035 0.2963237 0.2969151 0.2974136 0.2978347 0.2982232
 0.2986244 0.2989961 0.2992517 0.2994254 0.2996995 0.3001956 0.300801 0.301276 0.3014684 0.3013241
 0.3007562 0.299663 0.2980889 0.2962267 0.294213 0.2920369 0.2897719 0.2878575 0.2869948 0.2876371
 0.2895703 0.2920343 0.2942502 0.2958195 0.2967261 0.2971335 0.2972408 0.2972268 0.2972088 0.2972195
 0.297237 0.2972352 0.2972058 0.2971486 0.2970676 0.2969892 0.2969637 0.2970253 0.2971516 0.2972717
 0.2973112 0.2972313 0.2970452 0.2968045 0.2965504 0.2962631 0.2958652 0.2952824 0.2945035 0.2935875
 0.2926266 0.2916943 0.2908081 0.2899262 0.2889875 0.2879544 0.2867999 0.2854705 0.2839228 0.2822217
 0.280544 0.2790374 0.2777002 0.2764229 0.275101 0.2736797 0.2721365 0.270475 0.2687283 0.2669432
 0.265154 0.2633665 0.2615612 0.2597176 0.2578319 0.2559031 0.2539115 0.2518348 0.2496777 0.2474594
 0.2451626 0.2427033 0.2399523 0.2367785 0.2330723 0.228755 0.2238087 0.2183202 0.2124836 0.2065432
 0.2007256 0.1952095 0.190124 0.1855648 0.181615 0.1783509 0.1758229 0.1740429 0.1729989 0.1726742
 0.1730481 0.1740831 0.1757088 0.1778109 0.1802415 0.1828387 0.1854399 0.1878976 0.190122 0.1921223
 0.1939892 0.1958149 0.1976184 0.199343 0.2009166 0.2022968 0.2034611 0.2043861 0.2050669 0.2055388
 0.2058569 0.2060622 0.2061817 0.2062444 0.2062785 0.2062972 0.2062945 0.2062623 0.2062194 0.2062212
 0.2063245 0.2065476 0.2068737 0.2072856 0.2077772 0.2083389 0.2089531 0.2096039 0.2102889 0.211019
 0.211808 0.212669 0.2136303 0.2147436 0.2160609 0.2176012 0.2193445 0.2212387 0.2231984 0.2251132
 0.2268738 0.2283942 0.2296251 0.2305616 0.2312355 0.2316876 0.231953 0.2320691 0.2320771 0.2320096
 0.231887 0.231726 0.2315429 0.2313501 0.2311518 0.2309462 0.2307386 0.2305466 0.2303791 0.2302175
 0.2300409 0.2298586 0.2296934 0.2295451 0.2293941 0.2292286 0.2290438 0.228826 0.2285554 0.2282194
 0.2278133 0.2273265 0.226731 0.2259921 0.2250963 0.2240637 0.2229229 0.2216834 0.2203351 0.2188656
 0.2172768 0.2155968 0.2138716 0.2121339 0.210383 0.2085934 0.2067219 0.2047141 0.2025434 0.2002596
 0.1979766 0.1958027 0.1937847 0.1919038 0.1901113 0.1883758 0.1867026 0.1851073 0.1835843 0.1821166
 0.1806988 0.1793354 0.1780307 0.1767929 0.1756365 0.1745772 0.173629 0.1728008 0.1720878 0.171472
 0.1709323 0.1704515 0.1700251 0.1696754 0.169434 0.1692936 0.1691941 0.1690632 0.1688598 0.1685843
 0.1682693 0.1679554 0.167659 0.1673672 0.167068 0.1667571 0.1664017 0.1659161 0.1651864 0.1641227
 0.1626992 0.1609573 0.1589777 0.156864 0.1547521 0.1527952 0.1511094 0.1497417 0.1486838 0.1478827
 0.1472429 0.1466698 0.1461392 0.1457141 0.1454853 0.1454744 0.1455752 0.1456144 0.1455084 0.1453493
 0.1453148 0.1455166 0.1459369 0.1464649 0.1469712 0.1473779 0.1476706 0.1478514 0.1479161 0.1478787
 0.1477677 0.1475893 0.1473302 0.1469923 0.1465943 0.1461546 0.1456857 0.1451816 0.1446105 0.1439458
 0.1431899 0.1423504 0.1414245 0.1404106 0.1392958 0.138063 0.1367742 0.1356269 0.1348663 0.1346444
 0.1349507 0.1356254 0.1364569 0.1373146 0.1381335 0.1387508 0.1389425 0.1387834 0.1388415 0.1397724
 0.1416809 0.1439897 0.1459521 0.1471849 0.1476973 0.1476048 0.1469943 0.1459502 0.1445036 0.1425931
 0.140202 0.1374531 0.1345001 0.1314623 0.1285053 0.1258266 0.1235447 0.12169 0.1202498 0.1192521
 0.1188219 0.1185942 0.1167269 0.1108644 0.1017505 0.09485313 0.09578186 0.1039947 0.1131665 0.1178833
 0.1179633 0.1162576 0.114751 0.1137686 0.1132369 0.1132991 0.1140642 0.1153745 0.1168292 0.1180144
 0.1187634 0.1191238 0.1190646 0.1182486 0.1159843 0.1114597 0.104395 0.09562515 0.08681647 0.07949661
 0.07437885 0.07136998 0.0698766 0.06915268 0.06868119 0.06840956 0.06863371 0.06964888 0.07149889 0.07401711
 0.07700317 0.0802322 0.0833423 0.08594581 0.08792374 0.08944345 0.09064169 0.09144871 0.09174381 0.09152873
 0.09091784 0.09006588 0.08912298 0.08818156 0.08722728 0.08617171 0.08499698 0.08388774 0.08313918 0.08287857
 0.08295263 0.08312443 0.08327519 0.08338763 0.08346534 0.08351848 0.08355543 0.08359486 0.08372051 0.08404174
 0.08454649 0.08507507 0.08547306 0.08571015 0.08584514 0.08590145 0.08576843 0.08529918 0.08458307 0.08396114
 0.08358347 0.08312562 0.08221366 0.08101022 0.080104 0.07987323 0.08016668 0.08055831 0.08072288 0.08058287
 0.08029146 0.08015741 0.08044076 0.0810616</values></Ydata></ScSm><ScRf><Ydata ylabel="Single channel"><values byteorder="INTEL" format="FLOAT32" numvalues="1820"> 0.06062238 0.06078044 0.06087735 0.06091668 0.06092228 0.06093295 0.06099155 0.06112115 0.06130473 0.06148997
 0.06162536 0.06169698 0.06172016 0.06170208 0.06164553 0.06159241 0.06161903 0.06176218 0.06196817 0.06213007
 0.06217491 0.06212796 0.06209717 0.06216456 0.06227186 0.06224007 0.06193908 0.06143831 0.06096125 0.06068318
 0.06062597 0.06078656 0.06124055 0.0619323 0.06244454 0.0622961 0.0615421 0.06079931 0.0605609 0.06072556
 0.060887 0.0608063 0.06048196 0.06005855 0.05987676 0.06038339 0.06169008 0.06320909 0.06386435 0.06276941
 0.05985902 0.05609576 0.0531192 0.05236515 0.05405039 0.05688189 0.05903052 0.05959265 0.05902152 0.0581983
 0.0574818 0.0568258 0.05639739 0.05661177 0.0575599 0.05862073 0.05878321 0.05751375 0.05539298 0.05370405
 0.0532612 0.05389802 0.05515477 0.0567776 0.05802294 0.05725914 0.05357123 0.04879541 0.04670309 0.04941694
 0.05514504 0.05993271 0.06118112 0.05910585 0.05558906 0.05261608 0.05152167 0.0526337 0.05522603 0.05812458
 0.06041357 0.06146675 0.06079298 0.05846766 0.05554529 0.05354268 0.05350764 0.05561269 0.05911809 0.06243297
 0.06383732 0.06275439 0.06013555 0.0574545 0.05573657 0.05556165 0.05720908 0.0603683 0.06411688 0.06745323
 0.06970593 0.07060552 0.07034542 0.06946264 0.06842948 0.06756308 0.06730185 0.0679408 0.06890919 0.06898493
 0.06762439 0.06569603 0.06459217 0.06479308 0.06548511 0.06554903 0.06469007 0.06325862 0.06114831 0.05777438
 0.05341724 0.04958094 0.04749238 0.04716895 0.04831289 0.05078642 0.05355351 0.0546165 0.05319617 0.05112792
 0.0510385 0.05354713 0.056946 0.0592951 0.06022065 0.0607857 0.06211357 0.06423404 0.06593805 0.0656893
 0.06314975 0.06004015 0.0589277 0.06070695 0.06373695 0.0658575 0.06666701 0.06728685 0.06840026 0.06919251
 0.06820042 0.06505322 0.06140703 0.05991802 0.06192484 0.06610776 0.06944855 0.06946135 0.0658631 0.06063892
 0.0564984 0.05500134 0.05614055 0.05937509 0.06422904 0.06974501 0.07423468 0.07621971 0.07550186 0.07309219
 0.07005268 0.06650782 0.06219123 0.05808368 0.05662054 0.05939396 0.06511784 0.07070024 0.07400354 0.07490946
 0.07411432 0.07180985 0.06788979 0.06323969 0.06015924 0.06057437 0.0637164 0.06655698 0.06698032 0.06571437
 0.06476969 0.06493069 0.0654664 0.06568317 0.06592347 0.06699136 0.06900369 0.07109771 0.07226469 0.07226095
 0.07164531 0.07112902 0.0709289 0.07060808 0.06969489 0.06863702 0.0687405 0.07073651 0.07376853 0.07626966
 0.07753265 0.07796244 0.07802062 0.07742079 0.07554525 0.07260419 0.07010667 0.06973939 0.07173564 0.07472905
 0.07717362 0.07845552 0.07875057 0.07846507 0.07795888 0.07742883 0.07696854 0.07681988 0.07731373 0.07839811
 0.07952707 0.08020549 0.08039331 0.08026405 0.07985941 0.07916418 0.07835349 0.07778664 0.07774927 0.07824464
 0.07904423 0.07988943 0.08057486 0.08090834 0.08078468 0.08033586 0.0798537 0.07952327 0.07935297 0.07935333
 0.07960303 0.08009068 0.08063398 0.08103149 0.08122203 0.08125885 0.08119765 0.08105682 0.08085541 0.08065878
 0.08057971 0.08070122 0.08097634 0.08125819 0.08147209 0.08169036 0.08197278 0.08221266 0.08224487 0.08206508
 0.08184584 0.08175094 0.08180394 0.08192621 0.08202638 0.08202285 0.08183898 0.08146828 0.08106223 0.08087359
 0.08105691 0.08155815 0.08220625 0.08283459 0.08330832 0.08355165 0.08360526 0.08358469 0.08354624 0.08344772
 0.08325478 0.08303949 0.08295707 0.08312935 0.08353596 0.08401985 0.08441186 0.08463959 0.08472904 0.08476509
 0.08485574 0.08504994 0.08526246 0.08535087 0.08529109 0.08521463 0.08524971 0.08537485 0.08545737 0.08541417
 0.08531086 0.08529387 0.08543503 0.08566679 0.0858739 0.0860192 0.08616073 0.08635701 0.08656812 0.08666848
 0.08658019 0.08637737 0.08621255 0.08615279 0.08615264 0.08618133 0.08628671 0.0864986 0.08673756 0.08688037
 0.08689658 0.08687495 0.08690989 0.08699082 0.0870211 0.08693148 0.08675301 0.08658377 0.08650661 0.08653816
 0.0866309 0.08670872 0.08671311 0.08663602 0.08651651 0.08640195 0.08631323 0.08625728 0.08626822 0.08639963
 0.08664435 0.08688051 0.08694497 0.08678243 0.08650579 0.08629302 0.08622602 0.08623414 0.0861849 0.08601342
 0.0857625 0.08551949 0.08533709 0.0852112 0.0851108 0.08501801 0.08495284 0.0849666 0.08508977 0.08526582
 0.08535865 0.08526397 0.08501214 0.08473712 0.0845531 0.08448285 0.0844809 0.08448775 0.08447704 0.08447908
 0.0845378 0.08462879 0.08466191 0.08459064 0.08447635 0.08442285 0.08448867 0.08466867 0.08489986 0.08507052
 0.08508967 0.08498061 0.08486634 0.08484327 0.08490306 0.08498555 0.0850623 0.08514366 0.0852374 0.08533861
 0.08545472 0.08561327 0.08583354 0.08609546 0.08634117 0.08651331 0.086605 0.08667893 0.08682527 0.08708655
 0.08742142 0.08774322 0.08799284 0.08817826 0.08835 0.08854038 0.08873656 0.08892204 0.08912439 0.08938965
 0.08971722 0.09005681 0.09036995 0.0906623 0.09095392 0.09124936 0.0915464 0.09185778 0.0922127 0.09262861
 0.09307137 0.09345445 0.09370524 0.09383751 0.09394789 0.09414315 0.09446698 0.09486492 0.09520853 0.09539565
 0.09545818 0.09554076 0.09574455 0.09602585 0.096284 0.09651322 0.09680855 0.09722726 0.09769666 0.09808043
 0.09831354 0.098453 0.09860297 0.09880321 0.09899957 0.0991246 0.09918822 0.09926345 0.09939402 0.09956327
 0.0997642 0.1000434 0.1004335 0.1008782 0.1012715 0.1015549 0.1017447 0.1018846 0.1020029 0.102102
 0.1021634 0.1021806 0.1021937 0.1022585 0.1023727 0.1024687 0.1025031 0.1025165 0.102581 0.1027256
 0.1029376 0.1032046 0.1035123 0.103821 0.1040965 0.1043656 0.1046918 0.1050722 0.1054019 0.105581
 0.1056257 0.1056303 0.1056494 0.1056774 0.1057287 0.1058624 0.106113 0.1064443 0.1067949 0.1071386
 0.1074829 0.1078292 0.1081492 0.1083932 0.1085208 0.1085354 0.1084944 0.1084852 0.1085822 0.108809
 0.1091253 0.1094528 0.1097266 0.1099181 0.1100148 0.1100126 0.109952 0.1099325 0.1100383 0.1102406
 0.1104032 0.1103958 0.1101818 0.1097982 0.1092873 0.1086748 0.1080005 0.1073403 0.1067822 0.1063838
 0.1061638 0.106137 0.1063386 0.1067862 0.1074208 0.1081187 0.1087666 0.1092918 0.1096173 0.109645
 0.1093272 0.1087315 0.1080015 0.1072668 0.1065966 0.1060002 0.1054401 0.1048784 0.1043556 0.1040219
 0.1040684 0.104618 0.1056639 0.1070704 0.1086152 0.1100671 0.1112791 0.112238 0.1130268 0.1137371
 0.1144143 0.1150745 0.1157369 0.116406 0.1170418 0.1175891 0.1180426 0.1184509 0.118855 0.1192499
 0.1196037 0.1198917 0.1201172 0.1203165 0.1205242 0.1207177 0.1208249 0.1208062 0.1207026 0.1205813
 0.1204597 0.1202998 0.1200542 0.1197034 0.1192799 0.1188926 0.1187178 0.1189285 0.1195928 0.1206281
 0.1218643 0.1231554 0.1244183 0.1255791 0.1265387 0.1272292 0.1276785 0.127988 0.128255 0.1285303
 0.1288258 0.1291333 0.1294378 0.1297272 0.1300004 0.1302701 0.1305608 0.1308889 0.1312379 0.1315619
 0.1318301 0.1320641 0.1323249 0.1326559 0.1330374 0.1334067 0.1337271 0.1340254 0.1343407 0.134656
 0.1349156 0.1351058 0.1352791 0.1354989 0.1357883 0.1361307 0.136486 0.1368036 0.1370518 0.1372453
 0.1374284 0.1376305 0.1378511 0.138082 0.1383226 0.1385699 0.1388163 0.1390659 0.1393408 0.1396514
 0.1399639 0.1402176 0.1403845 0.1405048 0.1406496 0.1408543 0.1410932 0.1413168 0.1415083 0.1417035
 0.1419538 0.1422684 0.1425948 0.1428625 0.1430424 0.1431641 0.1432826 0.1434355 0.1436288 0.1438474
 0.1440716 0.1442865 0.144488 0.1446842 0.1448871 0.1450999 0.1453133 0.145518 0.1457156 0.145916
 0.1461266 0.1463458 0.1465711 0.1468129 0.147089 0.1473949 0.1476893 0.1479237 0.1480865 0.1482083
 0.1483276 0.1484644 0.1486212 0.1487945 0.1489817 0.149181 0.1493887 0.1495972 0.1498005 0.1500008
 0.1502044 0.1504143 0.1506271 0.1508386 0.1510487 0.1512631 0.151488 0.1517206 0.1519478 0.1521565
 0.1523465 0.1525308 0.1527239 0.1529262 0.1531227 0.1533015 0.1534697 0.1536458 0.1538382 0.1540382
 0.1542346 0.1544257 0.1546172 0.1548143 0.1550176 0.1552245 0.1554335 0.1556447 0.1558558 0.1560619
 0.1562593 0.1564488 0.1566352 0.156825 0.1570225 0.157225 0.1574252 0.1576194 0.1578107 0.1580039
 0.1582012 0.1584017 0.1586017 0.1587984 0.158993 0.1591892 0.159388 0.1595882 0.1597889 0.1599899
 0.1601916 0.160395 0.1605994 0.1608023 0.1610046 0.1612139 0.1614347 0.1616611 0.1618819 0.1620905
 0.16229 0.1624915 0.1627053 0.1629317 0.1631609 0.1633843 0.1636019 0.1638169 0.1640275 0.1642263
 0.1644069 0.1645721 0.1647319 0.1648941 0.1650614 0.165237 0.1654246 0.1656213 0.1658188 0.1660125
 0.1662023 0.1663892 0.1665771 0.1667705 0.1669684 0.1671657 0.1673619 0.1675621 0.1677714 0.1679915
 0.1682181 0.16844 0.1686484 0.1688456 0.1690391 0.1692341 0.1694346 0.1696434 0.1698559 0.1700653
 0.1702733 0.1704854 0.1707015 0.1709173 0.1711287 0.1713321 0.1715294 0.1717299 0.1719394 0.1721545
 0.1723705 0.1725852 0.1727955 0.1730025 0.1732139 0.1734321 0.1736487 0.1738584 0.1740638 0.1742656
 0.1744654 0.1746702 0.1748823 0.175096 0.1753109 0.1755317 0.1757541 0.1759703 0.1761837 0.1763997
 0.1766148 0.1768245 0.1770255 0.1772033 0.17732 0.1772689 0.1767752 0.1752954 0.1720051 0.1659572
 0.156455 0.1434914 0.1279055 0.1110832 0.09444518 0.07907677 0.06562369 0.05437361 0.04539359 0.03862057
 0.03391782 0.03116392 0.03034991 0.03168947 0.03573629 0.043051 0.05296392 0.06249405 0.06751724 0.06602123
 0.06002846 0.05375461 0.05010965 0.04929516 0.05006282 0.05134687 0.05280954 0.05464736 0.05719568 0.06054319
 0.06451887 0.06911356 0.07468098 0.08148485 0.08916548 0.09689811 0.1041076 0.1109142 0.1178496 0.1252125
 0.1327525 0.1399146 0.146281 0.1517793 0.156592 0.1609582 0.1650388 0.1689024 0.1725779 0.17606
 0.1792308 0.1818248 0.1835536 0.1843273 0.1843634 0.1840673 0.1837918 0.1836958 0.1837912 0.1840524
 0.1844609 0.1849976 0.1856435 0.1863814 0.187183 0.1880104 0.1888342 0.1896375 0.1904051 0.1911215
 0.1917771 0.1923706 0.1929114 0.1934155 0.1938902 0.1943265 0.1947154 0.195067 0.1954055 0.1957488
 0.1960962 0.1964308 0.1967364 0.1970116 0.1972656 0.1975035 0.1977257 0.1979347 0.1981366 0.1983363
 0.1985392 0.1987496 0.1989668 0.1991858 0.1994022 0.1996128 0.1998163 0.2000154 0.200214 0.2004109
 0.2006029 0.2007915 0.2009792 0.201165 0.2013482 0.2015341 0.2017266 0.2019245 0.2021247 0.2023248
 0.202522 0.2027168 0.2029135 0.2031142 0.2033188 0.2035314 0.2037551 0.2039813 0.204197 0.2044024
 0.204606 0.2048105 0.2050138 0.2052177 0.2054204 0.2056097 0.2057749 0.2059243 0.2060863 0.2062888
 0.2065316 0.2067819 0.2070039 0.2071902 0.2073594 0.2075295 0.2077056 0.2078823 0.2080573 0.2082455
 0.2084724 0.2087406 0.2090201 0.2092851 0.2095363 0.2097785 0.2100071 0.2102248 0.2104398 0.2106378
 0.2107912 0.2109096 0.2110595 0.2113126 0.2116714 0.2120555 0.2123763 0.2126167 0.2128239 0.213046
 0.2133021 0.2135711 0.2137699 0.2138073 0.2137267 0.213736 0.2140166 0.2145396 0.2151193 0.2156032
 0.2159633 0.2162486 0.2165061 0.2167339 0.2168829 0.2169104 0.2168611 0.2168897 0.2171531 0.2176492
 0.2182034 0.2186471 0.2189533 0.2191788 0.2193662 0.2195345 0.2196499 0.2195744 0.219208 0.2187481
 0.2186453 0.2191702 0.2201115 0.221003 0.2215807 0.2219193 0.2221854 0.2224274 0.2226157 0.2226724
 0.2223668 0.2214544 0.2201584 0.2193021 0.2196268 0.2210411 0.2227644 0.2241044 0.2248877 0.2252864
 0.2255238 0.2257266 0.2258251 0.2255603 0.2247821 0.2238294 0.223431 0.224029 0.2252811 0.2264245
 0.2270475 0.2273016 0.2274951 0.2277552 0.227943 0.227604 0.2262253 0.2239885 0.2221492 0.2221494
 0.2242061 0.227056 0.2292089 0.2302252 0.2306013 0.2306816 0.2301524 0.2286147 0.2261929 0.2234799
 0.2213532 0.2208581 0.2225151 0.2254473 0.2278745 0.2288689 0.2291412 0.2298707 0.2313004 0.2327369
 0.2334552 0.2332643 0.2323852 0.231047 0.2293761 0.2277768 0.2271551 0.2282702 0.2308114 0.233517
 0.2353432 0.2362556 0.2366769 0.2362601 0.2336408 0.2280772 0.2215009 0.2179807 0.2201267 0.2263629
 0.2326269 0.2363678 0.2379431 0.2387051 0.239183 0.2389375 0.2368156 0.2315798 0.2238618 0.2173872
 0.2164566 0.2216901 0.229324 0.2347248 0.2355433 0.2319573 0.2258429 0.2202196 0.2180125 0.2202758
 0.2257364 0.2320529 0.2372196 0.2401123 0.2404712 0.2387923 0.236294 0.2346237 0.2346625 0.2352231
 0.233957 0.230327 0.2265046 0.224176 0.2219201 0.2178225 0.2136838 0.213828 0.2194929 0.2267664
 0.2309868 0.2314686 0.2306482 0.2296324 0.2262855 0.2182947 0.20755 0.2002173 0.201351 0.209652
 0.2186297 0.2229609 0.2227201 0.2214671 0.2214994 0.2215092 0.218421 0.2114026 0.2039075 0.2007739
 0.2030755 0.2071602 0.2089715 0.2072787 0.2022546 0.1941896 0.1858324 0.1832151 0.1905624 0.2051214
 0.2193194 0.2269907 0.2256185 0.2149836 0.1980636 0.1828571 0.1784838 0.1870075 0.200923 0.2100598
 0.209645 0.2011386 0.187893 0.1728782 0.1600813 0.1549185 0.1609899 0.1764366 0.1939622 0.204433
 0.201918 0.1883325 0.1739121 0.1698469 0.1780541 0.1898205 0.195555 0.193497 0.1883446 0.1852316
 0.1867781 0.1926074 0.1997355 0.2053795 0.209178 0.210023 0.2030627 0.1855264 0.1644388 0.1519979
 0.1529125 0.161981 0.1738356 0.1877674 0.2013922 0.2073391 0.2015565 0.1909881 0.1876675 0.1959437
 0.2087599 0.2162935 0.2156827 0.2115508 0.2088649 0.2076459 0.2054438 0.2030601 0.2047489 0.2123494
 0.2220772 0.2287525 0.2311902 0.2317254 0.2322473 0.2327596 0.2327329 0.2319882 0.230613 0.2290685
 0.2280438 0.2276858 0.2274622 0.2269571 0.2258453 0.2226852 0.2152312 0.2035983 0.1922747 0.1865677
 0.1869727 0.1895449 0.1917585 0.1939757 0.1939733 0.1854018 0.1661719 0.1453411 0.1365229 0.1447321
 0.1626529 0.1789832 0.1870907 0.1855769 0.1749062 0.1576238 0.1410587 0.1350206 0.143801 0.1620623
 0.1805516 0.1940746 0.2020778 0.2042212 0.199406 0.1889382 0.1777953 0.1717754 0.1739625 0.1833734
 0.1952932 0.2024953 0.1987736 0.1851036 0.1723629 0.1733106 0.189207 0.2077254 0.2168114 0.2168949
 0.2160089 0.2173028 0.2174745 0.21553 0.2163048 0.2238228 0.2353782 0.2442093 0.2454366 0.2379835
 0.2239563 0.2091517 0.2015451 0.204854 0.2142445 0.2215406 0.2231129 0.2193859 0.2100093 0.1958919
 0.1843318 0.1846327 0.1973303 0.2129612 0.2228208 0.2268979 0.2299313 0.2332354 0.2330984 0.2264094
 0.2158703 0.2083273 0.2080013 0.2128012 0.2178619 0.2206742 0.2210973 0.2184378 0.2118868 0.203842
 0.1999427 0.2041629 0.2146729 0.2255231 0.231944 0.2333236 0.2318196 0.2295554 0.2271947 0.2241092
 0.2197864 0.2156597 0.2148345 0.2187737 0.2249703 0.2295239 0.2316085 0.2337493 0.237859 0.2426093
 0.2450538 0.2438431 0.240499 0.2380743 0.2386987 0.241895 0.2449394 0.2451854 0.2425835 0.2399712
 0.240466 0.2444906 0.2497082 0.253678 0.2558455 0.2570447 0.2580693 0.2589755 0.2590359 0.2572889
 0.2538944 0.2509243 0.2508891 0.2542472 0.2589724 0.2626595 0.2644745 0.2650031 0.2649118 0.2642502
 0.262865 0.2610431 0.2595114 0.2588559 0.2591059 0.2598961 0.2608459 0.2617132 0.2623711 0.2628065
 0.2630926 0.2632931 0.2634261 0.2635186 0.2635989 0.2636256 0.2635341 0.2633884 0.2633824 0.2636243
 0.2639899 0.2642515 0.2642787 0.2640396 0.2634774 0.2625231 0.2612286 0.2597617 0.2582214 0.2565686
 0.2548518 0.2534655 0.2530358 0.2539435 0.2559638 0.2584049 0.2605836 0.2621644 0.2631443 0.2636653
 0.2638882 0.2639508 0.2639418 0.2638842 0.2637599 0.2635522 0.263265 0.262914 0.2625178 0.2621041
 0.2617164 0.2613931 0.2611313 0.2608773 0.2605619 0.2601478 0.2596473 0.2591042 0.2585544 0.2579888
 0.2573522 0.2565901 0.2557012 0.2547455 0.253808 0.2529514 0.2521827 0.251452 0.2506945 0.2498745
 0.2489755 0.247967 0.2468339 0.2456485 0.2445623 0.2436865 0.2430003 0.2423905 0.2417471 0.2410055
 0.2401392 0.2391612 0.2381177 0.2370501 0.2359651 0.2348479 0.2336822 0.2324481 0.2311208 0.229688
 0.2281597 0.2265603 0.2249216 0.2232711 0.2216007 0.2198395 0.2178666 0.2155482 0.2127646 0.2094283
 0.2055093 0.201066 0.1962537 0.1912893 0.1863841 0.1816998 0.1773578 0.173467 0.170123 0.1673901
 0.1653042 0.1638903 0.1631696 0.1631562 0.1638473 0.1652093 0.1671667 0.1696084 0.1724018 0.1753945
 0.1784118 0.1812804 0.1838891 0.1862429 0.1884376 0.1905506 0.1925618 0.1943938 0.196005 0.1974123
 0.1986398 0.1996854 0.2005409 0.2012241 0.2017818 0.202263 0.2026918 0.2030663 0.2033829 0.2036495
 0.2038741 0.2040585 0.2042108 0.204358 0.2045345 0.2047615 0.20504 0.2053673 0.2057526 0.2062066
 0.2067188 0.2072613 0.2078144 0.2083793 0.208969 0.2096051 0.2103211 0.2111551 0.2121359 0.2132724
 0.214544 0.2158997 0.217274 0.2186011 0.2198127 0.2208368 0.2216169 0.2221321 0.2223966 0.2224482
 0.2223359 0.2221061 0.2217925 0.2214153 0.2209827 0.2204906 0.2199329 0.219318 0.2186678 0.2179964
 0.2173036 0.2165921 0.2158799 0.2151862 0.214513 0.2138542 0.2132142 0.2126024 0.2120122 0.2114245
 0.2108335 0.2102503 0.2096812 0.2091177 0.2085457 0.207949 0.2073016 0.2065743 0.205752 0.204837
 0.2038322 0.2027331 0.2015397 0.2002642 0.1989187 0.1975016 0.1960035 0.1944235 0.1927723 0.1910542
 0.1892522 0.1873403 0.1853239 0.1832667 0.1812669 0.1794036 0.1777032 0.1761458 0.1746871 0.1732878
 0.1719356 0.1706411 0.1694104 0.168235 0.1671077 0.1660316 0.1650107 0.1640471 0.1631487 0.1623298
 0.1616018 0.1609669 0.160422 0.1599645 0.1595903 0.1592864 0.1590433 0.158875 0.1588056 0.1588227
 0.1588655 0.15887 0.15881 0.1586979 0.1585658 0.1584454 0.1583525 0.1582887 0.1582492 0.1582053
 0.1580837 0.1577852 0.1572202 0.1563289 0.1550958 0.1535616 0.1518086 0.1499431 0.1481004 0.1464251
 0.1450115 0.1438777 0.1429991 0.1423312 0.1418093 0.141377 0.1410333 0.140832 0.140832 0.1410256
 0.1412957 0.14148 0.1415216 0.1415344 0.1417005 0.1421323 0.1428212 0.1436511 0.1444582 0.145126
 0.1456235 0.1459563 0.1461403 0.1462237 0.14626 0.1462508 0.1461617 0.1459784 0.1457113 0.1453777
 0.144998 0.1445741 0.1440791 0.1434948 0.1428313 0.1420966 0.1412911 0.1404165 0.1394367 0.1382896
 0.1370264 0.1358876 0.1351716 0.1350501 0.1355003 0.1363399 0.1373473 0.1383993 0.1394329 0.1402634
 0.1406427 0.1406395 0.1408206 0.1418459 0.1438495 0.1462922 0.1484316 0.1498637 0.1505858 0.1507072
 0.1502894 0.1493796 0.147987 0.1460597 0.1436163 0.140812 0.1378076 0.1347246 0.1317451 0.1290749
 0.1268209 0.1250085 0.1236256 0.1226803 0.1222825 0.1220784 0.1202035 0.1142317 0.1049278 0.09795266
 0.0990973 0.1077611 0.1173696 0.1223252 0.122469 0.1207836 0.1193229 0.1183747 0.1178124 0.11779
 0.1184624 0.1196944 0.121087 0.1222267 0.1229423 0.1232757 0.1231986 0.1223571 0.1199964 0.1152329
 0.1077781 0.09854151 0.08930188 0.08166301 0.07633764 0.07318976 0.07160021 0.0708161 0.07030623 0.07001105
 0.07024381 0.07131466 0.07326688 0.07594241 0.07915121 0.08264439 0.08601449 0.0888487 0.09102768 0.09273288
 0.09413249 0.09518346 0.09575489 0.09581682 0.09546139 0.09482333 0.09403199 0.09318261 0.0922804 0.09123918
 0.09003299 0.08885267 0.08799747 0.08758128 0.08745027 0.08740205 0.08736371 0.08734265 0.08733205 0.08730504
 0.08724613 0.08719239 0.08725578 0.08754049 0.08801337 0.08850935 0.08887262 0.08906315 0.08914085 0.08914122
 0.08894895 0.08839293 0.08754744 0.08676837 0.08624417 0.08567829 0.08468217 0.08338204 0.08236162 0.08202636
 0.08223861 0.08256885 0.08270309 0.08258034 0.08234408 0.08227549 0.08261225 0.08325703 0.08375473 0.08372174
</values></Ydata></ScRf><Data_Parameters_AB><parameter name="DPF">1</parameter><parameter name="NPT">3497</parameter><parameter name="FXV">3996</parameter><parameter name="LXV">500</parameter><parameter name="CSF">1</parameter><parameter name="MXY">0.105441190302372</parameter><parameter name="MNY">-0.10154240578413</parameter><parameter name="DAT">31/05/2022</parameter><parameter name="TIM">11:01:20.071 (GMT+2)</parameter><parameter name="DXU">WN</parameter></Data_Parameters_AB><AB__Qtest><MainReport name="Quality Test Report"><Header><Line><Legend>Test result ok/not ok [1/0]: </Legend><Value>0</Value></Line><Line><Legend>Method file: </Legend><Value>C:\Users\Public\Documents\Bruker\OPUS_8.2.28\QT\IRBT_v3_default.QT</Value></Line></Header><Matrix><Line><Legend></Legend><Legend>min</Legend><Legend>max</Legend><Legend>measured</Legend></Line><Line><Value>Absorption (X-Range 1):</Value><Value>0.400000</Value><Value>2.000000</Value><Value>0.163675</Value></Line><Line><Value>Noise (X-Range 4):</Value><Value></Value><Value>0.000300</Value><Value>0.000058</Value></Line><Line><Value>Signal/Noise (X-Range 2):</Value><Value>200.000000</Value><Value></Value><Value>67.484007</Value></Line><Line><Value>Signal/Noise (X-Range 3):</Value><Value>40.000000</Value><Value></Value><Value>21.106547</Value></Line><Line><Value>Water vapour (X-Range 5):</Value><Value></Value><Value>0.000300</Value><Value>0.000101</Value></Line><Line><Value>Signal/Water (X-Range 2):</Value><Value>100.000000</Value><Value></Value><Value>38.534572</Value></Line><Line><Value>Signal/Water (X-Range 3):</Value><Value>20.000000</Value><Value></Value><Value>12.052215</Value></Line><Line><Value>Fringes (X-Range 6):</Value><Value></Value><Value>0.000100</Value><Value>0.000077</Value></Line></Matrix></MainReport></AB__Qtest><Data_Parameters_ScSm><parameter name="DPF">1</parameter><parameter name="NPT">1814</parameter><parameter name="FXV">3996.33169228125</parameter><parameter name="LXV">499.541461535156</parameter><parameter name="CSF">1</parameter><parameter name="MXY">0.301468372344971</parameter><parameter name="MNY">0.0376631803810596</parameter><parameter name="DAT">31/05/2022</parameter><parameter name="TIM">11:01:20.071 (GMT+2)</parameter><parameter name="DXU">WN</parameter></Data_Parameters_ScSm><Data_Parameters_ScRf><parameter name="DPF">1</parameter><parameter name="NPT">1820</parameter><parameter name="FXV">4004.04661832813</parameter><parameter name="LXV">495.683998511719</parameter><parameter name="CSF">1</parameter><parameter name="MXY">0.265003144741058</parameter><parameter name="MNY">0.030349912121892</parameter><parameter name="DAT">31/05/2022</parameter><parameter name="TIM">11:00:54.763 (GMT+2)</parameter><parameter name="DXU">WN</parameter></Data_Parameters_ScRf><Optic_Parameters_Rf><parameter name="APR">0</parameter><parameter name="APT">Open</parameter><parameter name="BMS">KBr</parameter><parameter name="DTC">RT-DLaTGS_IR-Biotyper [Microplate reader]</parameter><parameter name="HPF">0</parameter><parameter name="LPF">10.0</parameter><parameter name="LPV">4000</parameter><parameter name="PGR">0</parameter><parameter name="RCH">Module port</parameter><parameter name="RDX">0</parameter><parameter name="SRC">MIR</parameter><parameter name="VEL">10.0</parameter><parameter name="SON">Off</parameter></Optic_Parameters_Rf><Acquisition_Parameters_Rf><parameter name="ADT">1</parameter><parameter name="AQM">DD</parameter><parameter name="CFE">0</parameter><parameter name="COR">0</parameter><parameter name="DEL">0</parameter><parameter name="DLY">0</parameter><parameter name="HFW">8000</parameter><parameter name="LFW">0</parameter><parameter name="NSR">32</parameter><parameter name="PLF">AB</parameter><parameter name="RES">6</parameter><parameter name="RGN">-1</parameter><parameter name="STR">0</parameter><parameter name="TCL">MakeCompatibleScalar (0, {WSV=1.000000, ARV=0});</parameter><parameter name="TDL">37</parameter><parameter name="RPO">0</parameter></Acquisition_Parameters_Rf><FT_-_Parameters_Rf><parameter name="APF">B3</parameter><parameter name="HFQ">500</parameter><parameter name="LFQ">4000</parameter><parameter name="NLI">0</parameter><parameter name="PHR">24</parameter><parameter name="PHZ">ML</parameter><parameter name="SPZ">NO</parameter><parameter name="ZFF">1</parameter></FT_-_Parameters_Rf><Optic_Parameters_><parameter name="APR">0</parameter><parameter name="APT">Open</parameter><parameter name="BMS">KBr</parameter><parameter name="CHN">Module port</parameter><parameter name="DTC">RT-DLaTGS_IR-Biotyper [Microplate reader]</parameter><parameter name="HPF">0</parameter><parameter name="LPF">10.0</parameter><parameter name="LPV">4000</parameter><parameter name="PGN">0</parameter><parameter name="RDX">0</parameter><parameter name="SRC">MIR</parameter><parameter name="VEL">10.0</parameter><parameter name="SON">Off</parameter></Optic_Parameters_><FT_-_Parameters_><parameter name="APF">B3</parameter><parameter name="HFQ">500</parameter><parameter name="LFQ">4000</parameter><parameter name="NLI">0</parameter><parameter name="PHR">24</parameter><parameter name="PHZ">ML</parameter><parameter name="SPZ">NO</parameter><parameter name="ZFF">1</parameter></FT_-_Parameters_><Acquisition_Parameters_><parameter name="ADT">1</parameter><parameter name="AQM">DD</parameter><parameter name="CFE">0</parameter><parameter name="COR">0</parameter><parameter name="DEL">0</parameter><parameter name="DLY">0</parameter><parameter name="HFW">8000</parameter><parameter name="LFW">0</parameter><parameter name="NSS">32</parameter><parameter name="PLF">AB</parameter><parameter name="RES">6</parameter><parameter name="SOT">0</parameter><parameter name="TCL">MakeCompatibleScalar (0, {WSV=1.000000, ARV=0});</parameter><parameter name="TDL">37</parameter><parameter name="SPO">0</parameter><parameter name="SGN">-1</parameter></Acquisition_Parameters_><Instrument_Parameters_Rf><parameter name="HFL">15800.168544</parameter><parameter name="LFL">0</parameter><parameter name="LWN">15800.168544</parameter><parameter name="ABP">32197</parameter><parameter name="SSP">1</parameter><parameter name="ARG">2</parameter><parameter name="ASG">2</parameter><parameter name="ASS">32</parameter><parameter name="GFW">16</parameter><parameter name="GBW">16</parameter><parameter name="BFW">0</parameter><parameter name="BBW">0</parameter><parameter name="PKA">7269</parameter><parameter name="PKL">4996</parameter><parameter name="PRA">7453</parameter><parameter name="PRL">5001</parameter><parameter name="P2A">1</parameter><parameter name="P2L">1</parameter><parameter name="P2R">1</parameter><parameter name="P2K">1</parameter><parameter name="DAQ">0</parameter><parameter name="AG2">1</parameter><parameter name="SSM">1</parameter><parameter name="RSN">25397</parameter><parameter name="CRR">0</parameter><parameter name="SRT">1653994854.763</parameter><parameter name="DUR">19.6369934082031</parameter><parameter name="TSC">28.8</parameter><parameter name="MVD">0.756399512290955</parameter><parameter name="AN1">0.225781911548768</parameter><parameter name="AN2">0</parameter><parameter name="VSN">2.485 Apr  4 2017</parameter><parameter name="SRN">0085</parameter><parameter name="CAM">0</parameter><parameter name="INS">IR-Biotyper</parameter><parameter name="FOC">69</parameter><parameter name="RDY">1</parameter><parameter name="ARS">32</parameter></Instrument_Parameters_Rf><Sample_Parameters_><parameter name="BLD"></parameter><parameter name="CNM">Admin</parameter><parameter name="CPY"></parameter><parameter name="DPM"></parameter><parameter name="EXP">IRBT_v3_32Scans.XPM</parameter><parameter name="LCT"></parameter><parameter name="SFM">Microplate, HTS-XT</parameter><parameter name="SNM">220531-1021(v.3)_GFG29M (D_14_2)_H3_a3d00adc-ec8a-4cf7-84a8-da25b9821be3.0</parameter><parameter name="XPP">C:\Users\Public\Documents\Bruker\OPUS_8.2.28\XPM</parameter><parameter name="IST">OK</parameter><parameter name="CPG">1252</parameter><parameter name="UID">71c82b3f-48a9-4c96-b15d-73ce26cca33c</parameter></Sample_Parameters_><Instrument_Parameters_><parameter name="HFL">15800.168544</parameter><parameter name="LFL">0</parameter><parameter name="LWN">15800.168544</parameter><parameter name="ABP">32197</parameter><parameter name="SSP">1</parameter><parameter name="ASG">2</parameter><parameter name="ARG">2</parameter><parameter name="ASS">32</parameter><parameter name="GFW">16</parameter><parameter name="GBW">16</parameter><parameter name="BFW">0</parameter><parameter name="BBW">0</parameter><parameter name="PKA">7980</parameter><parameter name="PKL">4988</parameter><parameter name="PRA">8219</parameter><parameter name="PRL">4993</parameter><parameter name="P2A">1</parameter><parameter name="P2L">1</parameter><parameter name="P2R">1</parameter><parameter name="P2K">1</parameter><parameter name="DAQ">0</parameter><parameter name="AG2">1</parameter><parameter name="SSM">1</parameter><parameter name="RSN">13324</parameter><parameter name="CRR">0</parameter><parameter name="SRT">1653994880.071</parameter><parameter name="DUR">19.6379852294922</parameter><parameter name="TSC">28.8</parameter><parameter name="MVD">0.314500957727432</parameter><parameter name="AN1">0.225794266103835</parameter><parameter name="AN2">0</parameter><parameter name="VSN">2.485 Apr  4 2017</parameter><parameter name="SRN">0085</parameter><parameter name="CAM">0</parameter><parameter name="INS">IR-Biotyper</parameter><parameter name="FOC">69</parameter><parameter name="RDY">1</parameter></Instrument_Parameters_><History/></OPUSDataFile>
