<?xml version="1.0" encoding="UTF-8" ?>
<OPUSDataFile><AB><Ydata ylabel="Absorbance Units"><values byteorder="INTEL" format="FLOAT32" numvalues="3497"> -0.04170312 -0.04182097 -0.04193167 -0.04203651 -0.04211549 -0.04216762 -0.04218991 -0.04218356 -0.04216277 -0.04212908
 -0.04209894 -0.04207182 -0.04205448 -0.04204565 -0.04204495 -0.0420533 -0.04207186 -0.0421022 -0.04214799 -0.04220551
 -0.04227512 -0.04234666 -0.04241478 -0.04247308 -0.04251607 -0.04255012 -0.04257475 -0.04260182 -0.04263365 -0.04267396
 -0.04272382 -0.04277703 -0.04283331 -0.04288597 -0.04293505 -0.04297922 -0.04301911 -0.04305756 -0.04309545 -0.04313736
 -0.04318378 -0.04323858 -0.0433006 -0.04337087 -0.0434448 -0.04351846 -0.04358578 -0.04363989 -0.04368029 -0.04370251
 -0.04371666 -0.04372451 -0.04373815 -0.04376231 -0.04379615 -0.04384134 -0.04388633 -0.04392976 -0.04396927 -0.04400466
 -0.0440482 -0.04410041 -0.04417215 -0.04426163 -0.04436396 -0.04447637 -0.04458579 -0.04469217 -0.0447883 -0.04487699
 -0.04495919 -0.0450387 -0.04512112 -0.04520602 -0.04529824 -0.04538514 -0.04546401 -0.04551449 -0.04552612 -0.04549649
 -0.04541794 -0.04532095 -0.04520692 -0.04511779 -0.04505786 -0.04505419 -0.04510856 -0.04522846 -0.04541273 -0.04565025
 -0.04593463 -0.04622488 -0.04650884 -0.04671717 -0.04684994 -0.04686359 -0.04678692 -0.04664519 -0.04647115 -0.04631611
 -0.04618813 -0.04611577 -0.04607913 -0.04607795 -0.04608277 -0.04607938 -0.04606276 -0.04602399 -0.04599259 -0.04597129
 -0.04598994 -0.04605401 -0.04615229 -0.04628463 -0.04640121 -0.04650054 -0.04654896 -0.04655284 -0.04653359 -0.04650144
 -0.04650829 -0.04655304 -0.04666524 -0.04682378 -0.04700937 -0.04719644 -0.04734299 -0.04744785 -0.047493 -0.04749454
 -0.04745625 -0.04739219 -0.04730466 -0.04721918 -0.04713777 -0.04710471 -0.04712746 -0.04723896 -0.04744772 -0.04771909
 -0.04805258 -0.04828644 -0.04841427 -0.04829599 -0.04795949 -0.04751597 -0.04699373 -0.04656336 -0.04621841 -0.04602847
 -0.04597542 -0.04606638 -0.0462671 -0.04654974 -0.04685937 -0.04714403 -0.04736321 -0.04746894 -0.04748626 -0.04740467
 -0.04729253 -0.04716722 -0.04706638 -0.04700206 -0.04696867 -0.04696713 -0.0469865 -0.04702614 -0.04708524 -0.04716349
 -0.04725668 -0.04736266 -0.0474653 -0.04756255 -0.04763784 -0.04769126 -0.0477157 -0.04770982 -0.04766718 -0.04758979
 -0.04747281 -0.04733293 -0.04717839 -0.04703438 -0.04691725 -0.04684283 -0.04682342 -0.04685517 -0.04694241 -0.04706299
 -0.04721545 -0.0473716 -0.04752912 -0.04765974 -0.04776173 -0.04780681 -0.04779462 -0.04771484 -0.04757154 -0.04738504
 -0.04716167 -0.04693555 -0.04671179 -0.04652029 -0.04636301 -0.04625903 -0.04620174 -0.04619491 -0.04621897 -0.04626076
 -0.04630011 -0.04631829 -0.04631782 -0.04629155 -0.04626243 -0.04623577 -0.04622525 -0.04623577 -0.04626119 -0.04630132
 -0.04635084 -0.04640931 -0.04648013 -0.04656292 -0.04665266 -0.04674645 -0.04682152 -0.04687678 -0.04689294 -0.04687721
 -0.04683692 -0.04678225 -0.0467358 -0.04669983 -0.04668711 -0.04669361 -0.04671709 -0.04676374 -0.04683259 -0.04694326
 -0.04710669 -0.04732163 -0.0475992 -0.04788425 -0.04817239 -0.04839544 -0.04854303 -0.04860451 -0.04857853 -0.04846637
 -0.0482676 -0.04796618 -0.04757157 -0.04713644 -0.04668108 -0.04631802 -0.04605095 -0.045956 -0.04600327 -0.04618831
 -0.04644556 -0.0466901 -0.04688306 -0.04694523 -0.04691999 -0.04680609 -0.0466623 -0.04651723 -0.04638571 -0.04628196
 -0.04618268 -0.04608624 -0.04596972 -0.0458282 -0.04567396 -0.04550704 -0.04536358 -0.04524503 -0.045178 -0.04516068
 -0.045197 -0.04527762 -0.0453724 -0.04546318 -0.04548177 -0.04542987 -0.04526772 -0.04503479 -0.04476627 -0.04448839
 -0.0442449 -0.0440179 -0.0438133 -0.04359589 -0.04334807 -0.04306595 -0.04273845 -0.04240368 -0.04206654 -0.04175851
 -0.04148664 -0.04123541 -0.04100504 -0.04074249 -0.04044642 -0.0400893 -0.03967958 -0.03926682 -0.03885761 -0.03850992
 -0.03821329 -0.0379675 -0.03776523 -0.03759144 -0.03744716 -0.03733378 -0.03723482 -0.03714668 -0.03702303 -0.03683469
 -0.03655268 -0.03614832 -0.03565219 -0.03506441 -0.03442701 -0.03374896 -0.03304799 -0.03232732 -0.03159345 -0.03084702
 -0.03008994 -0.0293229 -0.02855682 -0.02779554 -0.02707314 -0.02639202 -0.02578482 -0.0252417 -0.02475538 -0.02431003
 -0.02387189 -0.02343452 -0.02298007 -0.02249513 -0.02196944 -0.02136978 -0.02066592 -0.01986409 -0.01894651 -0.01798189
 -0.01698819 -0.01600352 -0.01504181 -0.01409295 -0.01315717 -0.01222468 -0.01129437 -0.01037698 -0.009473736 -0.008611239
 -0.007789203 -0.007024592 -0.006303933 -0.005587986 -0.004846563 -0.003967718 -0.002955581 -0.001741138 -0.0004061827 0.0009689067
 0.002327163 0.003573328 0.004734343 0.00579465 0.006805171 0.007785041 0.008764504 0.009759594 0.01076618 0.01178762
 0.01280403 0.01381126 0.01481793 0.01582309 0.01688135 0.01799491 0.01920726 0.02051094 0.02186997 0.02327197
 0.02464165 0.02598005 0.02725026 0.02846211 0.02961585 0.03072307 0.03179505 0.03285164 0.0339136 0.03499692
 0.03612082 0.03727994 0.03847409 0.03970633 0.04097123 0.04230535 0.04371804 0.04521541 0.04680735 0.04840437
 0.05000173 0.05150085 0.05290037 0.05419832 0.05540324 0.05658049 0.05773693 0.05893888 0.06018196 0.06149322
 0.06285275 0.06423675 0.0656257 0.06697714 0.06830098 0.06958196 0.07086377 0.07216878 0.07353111 0.07498187
 0.0764919 0.07806809 0.07963561 0.08118158 0.08265065 0.08403101 0.08532728 0.08653727 0.08772242 0.08888575
 0.09008542 0.09131907 0.0925924 0.0939024 0.09523678 0.09660006 0.0980041 0.09944136 0.1009129 0.102384
 0.1038083 0.105162 0.1063953 0.1075356 0.1085794 0.1095756 0.1105485 0.1115147 0.1124892 0.1134509
 0.1143976 0.1153139 0.1161941 0.1170677 0.1179357 0.118853 0.1198209 0.1208523 0.1219394 0.1230231
 0.1240958 0.1250862 0.1260056 0.126844 0.1276287 0.1284088 0.129201 0.1300571 0.1309561 0.1319061
 0.1328541 0.1337653 0.1346138 0.1353632 0.1360741 0.136746 0.1374868 0.1383223 0.1392952 0.1404217
 0.1416383 0.1429431 0.1442361 0.1455134 0.1467152 0.1478438 0.1488928 0.1498677 0.1507881 0.1516603
 0.15251 0.1533457 0.1541957 0.1550666 0.1559827 0.1569355 0.1579286 0.1589438 0.1599645 0.1609998
 0.1620435 0.1631311 0.1642805 0.1654752 0.1667273 0.167937 0.1690922 0.1701277 0.1710332 0.171891
 0.1727072 0.1736342 0.1746679 0.1758497 0.1771476 0.178438 0.1796912 0.1807441 0.1816161 0.1822526
 0.1827226 0.183098 0.183433 0.1838191 0.1842384 0.1847124 0.1851924 0.1856517 0.1860957 0.1865129
 0.1869538 0.1874297 0.1879597 0.1885511 0.1891779 0.1898389 0.1905052 0.1911759 0.1918387 0.1924964
 0.1931624 0.1938459 0.1945981 0.1954232 0.1963708 0.1974152 0.1985375 0.1996879 0.200787 0.2018057
 0.2026781 0.2034224 0.2040246 0.2045294 0.2049523 0.2053307 0.2056793 0.2060195 0.2063574 0.2067086
 0.2070753 0.2074712 0.2078976 0.2083556 0.2088449 0.2093562 0.2098904 0.210453 0.2110464 0.2116908
 0.2123772 0.2130957 0.2138219 0.2144984 0.2151161 0.2156244 0.2160628 0.2164426 0.2168281 0.2172741
 0.2177938 0.2184252 0.2190897 0.2197787 0.2203897 0.220891 0.2212724 0.221519 0.2217286 0.2219077
 0.2221357 0.2224139 0.2226959 0.2229737 0.2231459 0.2232219 0.2231873 0.2230727 0.2229655 0.2228843
 0.2229173 0.2230466 0.2232915 0.2236095 0.223966 0.2243279 0.224654 0.2249558 0.2252188 0.2254989
 0.225812 0.226194 0.2266665 0.2271761 0.2277259 0.2281996 0.2285874 0.228819 0.2288929 0.2288511
 0.2287026 0.2285529 0.228403 0.2283169 0.228281 0.2282829 0.2283175 0.2283613 0.2284318 0.2285478
 0.2287139 0.2289561 0.229228 0.2295115 0.2297498 0.2299002 0.229974 0.2299541 0.2299163 0.2298744
 0.2298823 0.229955 0.2300684 0.2302239 0.2303488 0.2304394 0.2304358 0.2303403 0.2301475 0.2298693
 0.2295589 0.2292314 0.2289633 0.228756 0.2286572 0.2286417 0.2287008 0.228788 0.228854 0.2288625
 0.2287641 0.2285738 0.2282745 0.2279334 0.2275653 0.2272352 0.2269629 0.2267659 0.2266509 0.2266076
 0.2266352 0.2267365 0.2269115 0.2271665 0.2274971 0.2278659 0.228259 0.2285853 0.2288349 0.2289193
 0.2288574 0.2286338 0.2283021 0.2279301 0.227571 0.2273141 0.2271584 0.2271463 0.2272091 0.2273327
 0.22743 0.2274669 0.2274001 0.227207 0.2269126 0.2265122 0.2260747 0.2256049 0.2251628 0.2247512
 0.2243878 0.2240714 0.2237937 0.223555 0.2233547 0.2231945 0.2230835 0.2230157 0.2229879 0.2229793
 0.2229638 0.2229081 0.2227704 0.2225206 0.2221187 0.2215703 0.2208549 0.2200347 0.2191172 0.2181915
 0.2172786 0.2164371 0.2156813 0.2150161 0.214445 0.2139367 0.2134893 0.213054 0.2126286 0.2121709
 0.2116858 0.2111746 0.2106494 0.2101547 0.2096889 0.2092795 0.2088971 0.2085115 0.2080924 0.2075876
 0.2070092 0.2063375 0.2056311 0.204909 0.2042336 0.2036341 0.2031291 0.202736 0.2024101 0.2021532
 0.2018771 0.2015748 0.2011732 0.2006689 0.2000602 0.1993533 0.1986157 0.197855 0.1971485 0.1964931
 0.195922 0.1954209 0.1949759 0.1945713 0.1941765 0.1937839 0.1933721 0.1929435 0.1924922 0.1920263
 0.1915475 0.1910656 0.1905835 0.1901112 0.1896517 0.1892098 0.1887881 0.1883783 0.1879807 0.187575
 0.18716 0.1867169 0.1862458 0.185743 0.1852114 0.184665 0.1841087 0.1835663 0.1830398 0.1825473
 0.182082 0.181644 0.1812192 0.1807927 0.1803537 0.179887 0.1793958 0.178875 0.1783402 0.1777952
 0.1772538 0.1767214 0.1761972 0.1756828 0.1751671 0.174649 0.1741224 0.1735869 0.173047 0.1725029
 0.171961 0.1714209 0.1708842 0.1703504 0.1698186 0.1692889 0.168761 0.1682357 0.1677139 0.1671973
 0.1666877 0.1661879 0.1656994 0.1652285 0.1647765 0.1643576 0.1639774 0.163644 0.1633667 0.1631122
 0.1628831 0.1625997 0.1622551 0.1617865 0.1611903 0.1604901 0.1596935 0.1589015 0.158122 0.1574561
 0.156897 0.1564813 0.1561814 0.1559585 0.1557735 0.1555458 0.1552557 0.1548386 0.1543277 0.1537157
 0.1530746 0.1524418 0.1518598 0.1513616 0.1509212 0.1505404 0.1501797 0.1498275 0.1495043 0.1492082
 0.1490024 0.1488903 0.148888 0.1489888 0.1491143 0.1492518 0.1492829 0.1492102 0.1489711 0.1485962
 0.14812 0.1475827 0.1470691 0.1465888 0.1461953 0.1458543 0.1455579 0.1452719 0.1449668 0.1446584
 0.1443408 0.1440559 0.1438183 0.1436257 0.1434847 0.143346 0.1432041 0.1430397 0.1428516 0.142688
 0.1425519 0.1424979 0.14252 0.1426124 0.1427628 0.1429216 0.1430859 0.1432218 0.1433394 0.1434408
 0.1435335 0.143632 0.1437239 0.1438097 0.1438601 0.1438585 0.1437903 0.1436373 0.143435 0.1431803
 0.1429517 0.1427608 0.1426677 0.1426836 0.1427878 0.1429798 0.1431613 0.1433265 0.1433729 0.1433052
 0.1430936 0.1427587 0.1423555 0.1419066 0.1414952 0.1411269 0.1408524 0.1406556 0.1405413 0.1404827
 0.1404614 0.1404546 0.1404422 0.1404228 0.1403854 0.1403607 0.140351 0.1403991 0.140515 0.1407051
 0.1409741 0.1412751 0.1416056 0.1419219 0.1422266 0.1425449 0.1428866 0.1433278 0.1438688 0.1445551
 0.1453734 0.146309 0.1473633 0.1485182 0.1498161 0.1512868 0.1530012 0.1550184 0.157406 0.1602107
 0.1634907 0.1672712 0.1716131 0.1765354 0.1820791 0.1882626 0.1950426 0.2024278 0.210234 0.2184522
 0.2267587 0.2351289 0.2431636 0.2508315 0.2577439 0.2638721 0.2689043 0.2728275 0.275445 0.2767821
 0.2767705 0.2755059 0.2730355 0.2695519 0.2651758 0.2602026 0.2547803 0.2492687 0.2438075 0.2387369
 0.2341624 0.2303149 0.2272518 0.2250679 0.2237813 0.2234001 0.2239258 0.225337 0.2276302 0.2307575
 0.2347075 0.2393884 0.2447829 0.2507771 0.2573626 0.2644587 0.2720751 0.2801894 0.2888216 0.2979881
 0.3077002 0.3179778 0.3288074 0.3401992 0.352094 0.3644958 0.3772574 0.3903757 0.4035673 0.4168131
 0.4297055 0.442211 0.4539189 0.4648028 0.4745929 0.4832858 0.4907946 0.4971343 0.5023445 0.5064622
 0.5096186 0.511901 0.5135532 0.5147315 0.5157802 0.5168921 0.5184214 0.5205104 0.523406 0.5271204
 0.5317539 0.5371764 0.5433862 0.550164 0.5574712 0.5650625 0.5729008 0.5807583 0.5886119 0.5962633
 0.6036997 0.6107421 0.6173809 0.6234486 0.6289386 0.6337245 0.6378025 0.6410945 0.6435925 0.6452444
 0.6460272 0.6458768 0.6447787 0.6426781 0.6396073 0.6355516 0.6306186 0.6248438 0.6183826 0.6112861
 0.6037274 0.5957481 0.5875248 0.5790845 0.5706049 0.5621049 0.5537375 0.5455135 0.5375206 0.5297588
 0.5222285 0.5149207 0.5077779 0.5007914 0.493899 0.4870945 0.4803344 0.473608 0.4668777 0.4601346
 0.453346 0.4465315 0.4396825 0.4328637 0.4260955 0.4194762 0.4130336 0.4068966 0.4010866 0.3957793
 0.3909917 0.3869556 0.3836897 0.3814463 0.3802421 0.3802749 0.3815436 0.3840545 0.3877584 0.3923503
 0.3977303 0.4033405 0.4091163 0.4145609 0.4197806 0.424668 0.4295306 0.4346707 0.4404257 0.4472141
 0.4551332 0.4644412 0.4748192 0.4862981 0.498186 0.5103787 0.5219981 0.5329164 0.5422666 0.5499573
 0.5552311 0.5580351 0.5578004 0.5545112 0.5478758 0.5379449 0.524876 0.5088246 0.4904273 0.4699511
 0.4483568 0.4259592 0.4037327 0.3819281 0.3612512 0.3417908 0.3238836 0.3074386 0.2925237 0.2789239
 0.2665901 0.2552704 0.2448981 0.2352557 0.2262957 0.2178783 0.2099817 0.2025383 0.1955422 0.1889603
 0.1827903 0.1769956 0.1715727 0.1664789 0.1617109 0.1572319 0.1530392 0.1491086 0.1454351 0.1420024
 0.138798 0.1358055 0.1329982 0.1303523 0.1278338 0.1254154 0.1230784 0.120804 0.118606 0.1164814
 0.1144611 0.1125519 0.1107646 0.1091044 0.1075402 0.106071 0.1046445 0.103259 0.1018858 0.1005283
 0.09919974 0.09790206 0.09665494 0.09544843 0.09426799 0.09309892 0.09190314 0.09068358 0.08942199 0.08814481
 0.08686631 0.0856165 0.08441832 0.08328698 0.08223607 0.08126333 0.08037402 0.07954673 0.07878149 0.07803991
 0.07731772 0.07658554 0.07584037 0.07509044 0.07433729 0.07361516 0.07292489 0.07228962 0.07170606 0.07117279
 0.0706863 0.07023662 0.06982173 0.06943453 0.06907113 0.06872378 0.06838961 0.06806078 0.06774503 0.06744213
 0.06716889 0.06693426 0.06674138 0.06659868 0.0664759 0.0663718 0.06624103 0.06607652 0.06586458 0.06560258
 0.0653277 0.06504246 0.06479868 0.06459545 0.06445092 0.06435846 0.06429926 0.06426834 0.06424151 0.06421947
 0.06419282 0.06416277 0.06412952 0.06408706 0.06403328 0.06395283 0.06383729 0.06367021 0.06344058 0.0631476
 0.06278477 0.06237555 0.06192099 0.06145514 0.06098207 0.06052573 0.06008827 0.05967874 0.05929735 0.05894561
 0.05862259 0.05832297 0.05804362 0.05776835 0.05749449 0.05720391 0.05690133 0.05658389 0.0562656 0.05596289
 0.05568891 0.05546405 0.05528673 0.05516525 0.05508287 0.05503494 0.05500621 0.05498929 0.05498566 0.05499316
 0.05502394 0.05507975 0.05516428 0.05527841 0.05540782 0.05555162 0.05569106 0.05582678 0.05595538 0.05607924
 0.05620896 0.05634192 0.05647966 0.05661023 0.0567123 0.05677422 0.0567681 0.05669847 0.05655509 0.05635977
 0.05612209 0.055863 0.05559563 0.05532485 0.05505605 0.05478252 0.05450357 0.05421491 0.05391558 0.05360673
 0.05328841 0.05296109 0.0526247 0.05227606 0.05191552 0.05154354 0.05116244 0.05078256 0.05040637 0.05004732
 0.04970418 0.0493823 0.04907605 0.04878007 0.04848992 0.04819784 0.04790714 0.04761533 0.0473343 0.04706824
 0.04682763 0.04661877 0.04643603 0.04628212 0.04613269 0.04598564 0.04581682 0.04562377 0.04540518 0.04516156
 0.04491149 0.04465563 0.04440888 0.04416868 0.0439317 0.04369419 0.04344275 0.04317709 0.04288894 0.04258294
 0.04226102 0.04193014 0.0415974 0.041268 0.04094777 0.04063778 0.04034024 0.0400535 0.03977727 0.03951118
 0.03925478 0.03901022 0.03877782 0.03855808 0.03835124 0.03815291 0.03796279 0.03777357 0.0375849 0.03739042
 0.03719009 0.03698006 0.03676121 0.0365332 0.03629903 0.03606396 0.03583175 0.03561077 0.03540028 0.03520419
 0.03501566 0.03483115 0.03464613 0.03445588 0.03426574 0.03407587 0.03389384 0.03372239 0.03355867 0.03340335
 0.03324633 0.03308675 0.03292057 0.0327478 0.03257372 0.03239852 0.03222643 0.03205644 0.03188596 0.03171387
 0.031535 0.03135023 0.03115803 0.0309619 0.0307653 0.03057321 0.03039186 0.0302237 0.03007382 0.02993728
 0.02981454 0.02969536 0.02957615 0.02945236 0.02932085 0.02918993 0.02905968 0.02894306 0.02884134 0.02875743
 0.02869114 0.02863181 0.02857856 0.02851851 0.02845217 0.02837471 0.02828794 0.02819472 0.02809664 0.02799824
 0.0279004 0.02780605 0.02771621 0.02763282 0.0275566 0.02748934 0.02742873 0.02737543 0.02732229 0.02726764
 0.02720412 0.02712912 0.02704311 0.02694502 0.02684393 0.02674046 0.02664193 0.02654849 0.02645647 0.02636486
 0.02626231 0.02614853 0.0260154 0.02586465 0.02569697 0.02551481 0.02532374 0.02512468 0.02492144 0.02471359
 0.02450166 0.0242863 0.0240675 0.02384795 0.02362891 0.02341221 0.02319875 0.02298899 0.02278272 0.02258279
 0.0223892 0.02220764 0.02203877 0.02188252 0.02173864 0.02159629 0.0214546 0.02130021 0.02113396 0.02095222
 0.02075771 0.02055693 0.02035182 0.02014994 0.01995089 0.01975763 0.01956817 0.01938176 0.01919612 0.01900953
 0.01882019 0.0186266 0.0184288 0.0182261 0.01802072 0.01781295 0.01760476 0.01739643 0.01718939 0.01698362
 0.01678311 0.0165881 0.01640457 0.01623216 0.01607029 0.01591683 0.01576047 0.01560003 0.01542433 0.01523727
 0.01504069 0.01484108 0.01464975 0.01446808 0.01430319 0.01414975 0.01400665 0.01386773 0.01372948 0.01358915
 0.01344507 0.01329631 0.01314235 0.01298295 0.01281763 0.0126497 0.01247919 0.01231235 0.01214947 0.01199515
 0.01184912 0.01171073 0.01157907 0.01144923 0.01132057 0.01118824 0.01105258 0.01091182 0.0107671 0.01061942
 0.01046947 0.01031839 0.01016636 0.01001336 0.009860989 0.009709299 0.009562279 0.009421234 0.009289034 0.009167364
 0.009052741 0.008945605 0.008836556 0.008724859 0.008603155 0.008471165 0.008330776 0.008182815 0.008036848 0.007893286
 0.007759788 0.007634946 0.007518573 0.007408419 0.00729913 0.007190302 0.007078052 0.006965495 0.006854148 0.006747572
 0.006649844 0.006559416 0.006477893 0.006398118 0.006317965 0.006232597 0.006139621 0.006042244 0.005940218 0.005840087
 0.005742542 0.005649647 0.005561439 0.005472563 0.00538219 0.00527995 0.005164591 0.005024183 0.004857902 0.004656714
 0.004420684 0.004146063 0.003832024 0.003477187 0.003076716 0.002626963 0.00211826 0.001544002 0.0008926974 0.0001574063
 -0.0006701937 -0.0015948 -0.002618609 -0.003743709 -0.004966026 -0.006286531 -0.007691868 -0.009182447 -0.01072514 -0.01231773
 -0.0138936 -0.01544316 -0.01684694 -0.01808319 -0.01897569 -0.01950313 -0.01948721 -0.01895444 -0.01783752 -0.01626986
 -0.01439889 -0.01240885 -0.01056209 -0.008938455 -0.007690938 -0.006794467 -0.006276481 -0.006092587 -0.0062398 -0.006656113
 -0.007346897 -0.008152925 -0.009066747 -0.009840587 -0.0104476 -0.01078559 -0.01084977 -0.01076166 -0.01053002 -0.01029515
 -0.01005305 -0.009855327 -0.009688843 -0.00953797 -0.009391072 -0.00921204 -0.009001778 -0.008743402 -0.008448447 -0.008123823
 -0.007776703 -0.007415794 -0.007040619 -0.006651295 -0.006253439 -0.005845663 -0.005447582 -0.005061925 -0.004711873 -0.004401972
 -0.004141597 -0.003933206 -0.003762343 -0.003628231 -0.003501083 -0.003380089 -0.003245607 -0.003100467 -0.002949865 -0.002797875
 -0.002661792 -0.002541963 -0.002448682 -0.002378023 -0.002328649 -0.002296057 -0.002274402 -0.002262104 -0.002255603 -0.002256451
 -0.00226486 -0.002281151 -0.002306436 -0.002336392 -0.002370624 -0.002403283 -0.002432978 -0.002459554 -0.002482479 -0.002508352
 -0.002537514 -0.002577901 -0.002629581 -0.002695905 -0.002775973 -0.002866839 -0.002966853 -0.003069032 -0.003171832 -0.003268119
 -0.003357637 -0.003436387 -0.003506061 -0.003566516 -0.003620891 -0.003671495 -0.003720597 -0.003770823 -0.003819969 -0.003868316
 -0.003911456 -0.003947714 -0.003977947 -0.004001281 -0.004025443 -0.004051144 -0.004083144 -0.004121722 -0.0041626 -0.004205424
 -0.004244088 -0.00427921 -0.004311226 -0.004341234 -0.004373708 -0.004408343 -0.004447022 -0.004488049 -0.004529512 -0.004570118
 -0.004607315 -0.004641609 -0.004672052 -0.004701136 -0.004729891 -0.004760282 -0.004793718 -0.004829078 -0.004866652 -0.004903524
 -0.004939212 -0.00497223 -0.00500232 -0.005029745 -0.005054508 -0.00507712 -0.005097599 -0.005116397 -0.00513337 -0.005147954
 -0.005159889 -0.00516764 -0.005171738 -0.005172151 -0.005170771 -0.00517101 -0.005173252 -0.005180246 -0.005188684 -0.005197028
 -0.005202136 -0.005200799 -0.005195601 -0.005185983 -0.005178082 -0.005173874 -0.00517434 -0.005180691 -0.005186614 -0.005191693
 -0.005189798 -0.00518055 -0.005165705 -0.005145769 -0.005128274 -0.005113352 -0.005105941 -0.005104923 -0.005108979 -0.005116868
 -0.005125029 -0.005132713 -0.005137318 -0.00513802 -0.005132788 -0.005121551 -0.005102932 -0.005079421 -0.005051559 -0.005022945
 -0.00499528 -0.004969656 -0.004946858 -0.004925969 -0.004906823 -0.004889691 -0.004874579 -0.004861936 -0.004851799 -0.004842175
 -0.004832842 -0.004820116 -0.004804038 -0.004782719 -0.004756934 -0.004728232 -0.004697885 -0.004669589 -0.004644485 -0.004626391
 -0.004615077 -0.004612449 -0.004615777 -0.00462442 -0.004633135 -0.004639416 -0.004637793 -0.00462505 -0.004600773 -0.004562895
 -0.004519617 -0.004471051 -0.004430748 -0.00440015 -0.004387812 -0.004394374 -0.004415618 -0.004450706 -0.004486363 -0.00452205
 -0.004546987 -0.004562987 -0.004570377 -0.004572531 -0.004578463 -0.004588803 -0.004610068 -0.004637766 -0.004669765 -0.004700379
 -0.004723267 -0.004738461 -0.004743177 -0.004742705 -0.004738613 -0.00473412 -0.004731133 -0.004726856 -0.004721371 -0.004710041
 -0.004692216 -0.004667104 -0.004634583 -0.004598728 -0.004559831 -0.004523173 -0.004488515 -0.004457247 -0.004428288 -0.004398125
 -0.00436638 -0.00432976 -0.004289893 -0.004248026 -0.004205758 -0.004166322 -0.004128024 -0.004091175 -0.004052035 -0.004008081
 -0.003958758 -0.003902439 -0.003843107 -0.003781254 -0.003721241 -0.003664028 -0.003611148 -0.003562935 -0.003519232 -0.00348007
 -0.003443523 -0.003409262 -0.003371847 -0.003330871 -0.003280354 -0.003221357 -0.003154022 -0.003081138 -0.003009927 -0.002941893
 -0.002884079 -0.002833506 -0.002790409 -0.002748738 -0.002703223 -0.002650898 -0.002587156 -0.002516581 -0.002439025 -0.002362452
 -0.002289494 -0.002222313 -0.002162495 -0.002104294 -0.002047349 -0.001986044 -0.001919953 -0.001849707 -0.001775511 -0.001701052
 -0.001626311 -0.001552899 -0.001480549 -0.001409081 -0.00133831 -0.001267918 -0.001197259 -0.00112514 -0.001050901 -0.0009725855
 -0.000891967 -0.0008091713 -0.0007280646 -0.000651116 -0.0005800573 -0.0005169169 -0.000458835 -0.0004057793 -0.0003534725 -0.0003011092
 -0.0002463737 -0.0001889298 -0.0001274851 -6.193383E-05 8.460396E-06 8.349228E-05 0.0001599816 0.0002370764 0.0003071508 0.0003700563
 0.0004202687 0.0004601034 0.0004923398 0.0005199658 0.0005502435 0.0005829126 0.0006215063 0.0006620677 0.0007027593 0.0007393611
 0.0007690446 0.0007888454 0.0007972167 0.0007914646 0.0007702828 0.0007336634 0.0006805675 0.0006174849 0.0005445624 0.0004722089
 0.000401109 0.0003376868 0.0002819547 0.0002338466 0.0001931144 0.000157937 0.0001285354 0.0001049586 8.732385E-05 7.624861E-05
 7.102864E-05 7.079206E-05 7.46599E-05 8.12518E-05 8.985702E-05 9.978263E-05 0.0001094252 0.0001181276 0.0001231007 0.0001227759
 0.0001166665 0.0001034113 8.803026E-05 7.050807E-05 5.976378E-05 5.673917E-05 6.813678E-05 9.453263E-05 0.0001363244 0.0001931096
 0.0002575255 0.0003283469 0.0003932705 0.0004517544 0.000494185 0.0005226919 0.0005372089 0.0005417773 0.0005437371 0.0005455993
 0.0005540166 0.0005682752 0.0005902977 0.0006178504 0.0006500332 0.0006855002 0.000723406 0.0007634752 0.0008057794 0.0008486834
 0.0008921553 0.0009331019 0.0009709781 0.001005823 0.001037496 0.001071423 0.001107823 0.001151164 0.001200677 0.001252941
 0.001306798 0.001355271 0.001398734 0.001434597 0.001463807 0.001487287 0.001504702 0.001515663 0.001520819 0.001519545
 0.001515915 0.001511489 0.001511778 0.00151986 0.001537203 0.001565925 0.001600449 0.001641031 0.001676522 0.00170578
 0.001719635 0.00171721 0.001700255 0.001669262 0.001635044 0.001597811 0.001564582 0.001533958 0.0015038 0.001472812
 0.001435895 0.001393815 0.001344878 0.001292208 0.001238585 0.001188057 0.001145986 0.0011121 0.001089702 0.00107048
 0.001052063 0.001026813 0.0009903578 0.0009474864 0.0008971794 0.000852796 0.0008160045 0.0007938001 0.000787054 0.000789132
 0.0007994471 0.0008056308 0.0008076119 0.0007987528 0.0007804409 0.0007549825 0.0007236761 0.0006919088 0.0006585598 0.000623981
 0.0005869874 0.0005447405 0.0005008577 0.0004566403 0.0004181939 0.0003906642 0.0003741473 0.000371157 0.0003753049 0.0003853161
 0.0003960886 0.0004061716 0.0004145919 0.0004209385 0.0004264858 0.000431297 0.0004367287 0.0004425996 0.0004447843 0.0004422142
 0.0004239074 0.0003903347 0.000335623 0.0002652865 0.0001900914 0.0001181761 7.12272E-05 5.053953E-05 6.958688E-05 0.000118271
 0.0001934482 0.0002821238 0.0003747909 0.0004651749 0.0005471749 0.0006234335 0.0006928327 0.0007621809 0.0008330549 0.0009072042
 0.0009855408 0.00106298 0.001139284 0.001208631 0.001270858 0.001323211 0.00136676 0.001406889 0.00144788 0.001511281
 0.001600475 0.001740269 0.001921289 0.002140126 0.002379899 0.00261457 0.00283939 0.003038795 0.003219668 0.003381614
 0.003532329 0.003673892 0.00381618 0.00396059 0.004123245 0.004307441 0.004524174 0.004776144 0.005059138 0.005373258
 0.005708269 0.006063639 0.006430183 0.006807114 0.007183707 0.007559759 0.007928152 0.008290228 0.008646187 0.008997153
 0.00934427 0.009691165 0.01004054 0.01040294 0.0107896 0.01120605 0.01166307 0.01214789 0.01265768 0.013181
 0.01370986 0.01425837 0.01482694 0.01543539 0.01608847 0.01677559 0.01749684 0.01822595 0.01896275 0.01971401
 0.02048492 0.02132304 0.02223058 0.02324812 0.02436268 0.02555871 0.02682175 0.0281091 0.02943224 0.03078282
 0.03219251 0.03368957 0.03529213 0.0370266 0.03887707 0.04084123 0.04290923 0.04506058 0.04737332 0.04983477
 0.0526662 0.05587968 0.05978091 0.06439629 0.06985945 0.07617047 0.08320105 0.09096549 0.09949119 0.108878
 0.1195766 0.1317169 0.1459402 0.1622385 0.1810012 0.2018954 0.2247405 0.2489184 0.2738305 0.2988932
 0.3235584 0.347494 0.3704713 0.3921579 0.4125249 0.4307988 0.4468639 0.459892 0.4697129 0.4763171
 0.4796714 0.4803322 0.4783296 0.4742374 0.4680943 0.4604854 0.451426 0.4413209 0.4301167 0.4177792
 0.4044578 0.3902684 0.3757927 0.3619138 0.3489676 0.337741 0.3278767 0.319395 0.3118569 0.3050368
 0.2987788 0.2929885 0.2876197 0.2826661 0.2779942 0.27359 0.269316 0.2651531 0.2612003 0.2574651
 0.2541685 0.2512899 0.2487429 0.2464723 0.2441651 0.2418015 0.2391484 0.2362427 0.233036 0.2296022
 0.2260278 0.2223595 0.2186769 0.2149918 0.2113077 0.2077235 0.2042525 0.2010987 0.1983442 0.196043
 0.194246 0.1927947 0.1916785 0.1907396 0.189964 0.189271 0.1886574 0.1880906 0.1875753 0.1871354
 0.1867837 0.1866036 0.1865855 0.1867537 0.1870699 0.187461 0.1879153 0.1883812 0.1888712 0.1893787
 0.1899197 0.190498 0.1911434 0.191867 0.1927033 0.1936723 0.1947604 0.1959729 0.1972634 0.1986226
 0.2000561 0.2015631 0.2031667 0.2048656 0.206579 0.2082957 0.2098704 0.2113051 0.2125311 0.2135611
 0.2144021 0.2150543 0.2155201 0.2158001 0.2158881 0.2158086 0.2155792 0.2152334 0.2147932 0.2143018
 0.213784 0.2132698 0.2127827 0.2122936 0.211807 0.2112541 0.2106263 0.2098722 0.2089835 0.2080018
 0.2069307 0.2058915 0.2048825 0.2039392 0.2030447 0.2021311 0.2011913 0.2001626 0.1990599 0.197878
 0.1966499 0.1954214 0.194214 0.1930724 0.1919853 0.1909591 0.189977 0.1890261 0.1881199 0.1872564
 0.1864658 0.1857582 0.185129 0.1845813 0.1840852 0.1836372 0.1832384 0.1828898 0.1826348 0.1824751
 0.1824455 0.1825402 0.1827486 0.1830645 0.1834611 0.1839396 0.1844895 0.1851132 0.1858101 0.1865817
 0.1874274 0.1883538 0.1893646 0.1904667 0.1916656 0.1929605 0.1943533 0.1958384 0.1974182 0.1990708
 0.2007983 0.2025395 0.2042904 0.2059838 0.2076173 0.2091935 0.2107191 0.2122688 0.2138402 0.215468
 0.2171267 0.2187452 0.220319 0.2217928 0.2231999 0.2245727 0.225921 0.2272814 0.2286098 0.2298885
 0.2310748 0.2321382 0.2330753 0.2338777 0.2345543 0.2351069 0.2355342 0.2358368 0.2360098 0.2360527
 0.2359652 0.2357473 0.2353946 0.2349061 0.2342677 0.2334777 0.2325203 0.2313924 0.2300852 0.2285733
 0.2268133 0.2247428 0.2222213 0.2192896 0.2158574 0.2122313 0.2086249 0.2051845 0.2021045 0.1991647
 0.1963248 0.1934326 0.190421 0.1873621 0.1842521 0.1812114 0.1782546 0.1753791 0.1725842 0.1697872
 0.1669879 0.1641477 0.1612819 0.1584485 0.155667 0.1530404 0.1505576 0.1482538 0.1460874 0.144008
 0.1419896 0.1399862 0.1379844 0.1359733 0.1339031 0.1317449 0.1294693 0.127014 0.1245874 0.1222056
 0.1201596 0.1185255 0.1172103 0.1162208 0.1153135 0.114477 0.1136224 0.1127572 0.1119389 0.1111767
 0.1105504 0.1100558 0.1097137 0.109531 0.1095218 0.1097211 0.1101876 0.1109496 0.1120652 0.1135286
 0.115346 0.1175327 0.1200797 0.1230679 0.1264962 0.1305384 0.1351655 0.1408812 0.1476565 0.1567038
 0.168109 0.1831931 0.202013 0.2236963 0.247985 0.271542 0.2942217 0.3134462 0.3294292 0.3414917
 0.3499849 0.3552721 0.3578318 0.3585532 0.3577769 0.3562774 0.3539732 0.3510483 0.3473399 0.3426929
 0.3374486 0.3316472 0.3257643 0.3199381 0.3143419 0.3090144 0.304086 0.2995695 0.2956029 0.2921931
 0.2892753 0.2868302 0.2846089 0.2825889 0.2805217 0.2783919 0.2760094 0.2733868 0.2704366 0.267235
 0.263858 0.260382 0.2569205 0.2535138 0.2501945 0.2470916 0.2442422 0.2418782 0.2400911 0.2390207
 0.2387366 0.239191 0.2404006 0.2422018 0.2445956 0.2472458 0.2501333 0.252706 0.2549457 0.2564524
 0.2572718 0.2574462 0.2570552 0.2563858 0.2555039 0.2547046 0.2540063 0.2535949 0.2533841 0.2533824
 0.2534042 0.2533224 0.2529704 0.2522124 0.2510196 0.2493251 0.2472608 0.2448182 0.2422636 0.2396219
 0.2371991 0.235027 0.2332954 0.2320161 0.2312566 0.2310207 0.2313737 0.2323216 0.2339449 0.2362247
 0.2391656 0.2426858 0.2466452 0.2508591 0.2550261 0.2588554 0.2619208 0.2639968 0.264696 0.2641868
 0.2623439 0.2597836 0.2566675 0.2535868 0.2507494 0.2483012 0.2463227 0.2446176 0.2431794 0.2417842
 0.2404193 0.2390043 0.2375453 0.2361041 0.2346913 0.2334051 0.2322398 0.2312301 0.230355 0.2295852
 0.228897 0.2282416 0.2275984 0.2269251 0.2262122 0.2254355 0.2246055 0.2237197 0.2227965 0.2218448
 0.2208654 0.2198627 0.2188189 0.2177299 0.2165966 0.2154148 0.214244 0.2130871 0.2120459 0.2111252
 0.2104087 0.2098967 0.2096318 0.2096137 0.2098657 0.2103841 0.2111789 0.2122266 0.213504 0.2149601
 0.2165367 0.218171 0.2198002 0.2213677 0.2228295 0.2241443 0.2252854 0.2262419 0.2269994 0.2275945
 0.2280256 0.2283643 0.228616 0.2288509 0.2290731 0.2293296 0.2296208 0.2299656 0.230359 0.2307851
 0.2312337 0.2316592 0.2320543 0.2323747 0.2326291 0.2328059 0.2329331 0.2330332 0.2331442 0.2332999
 0.2335375 0.2338818 0.2343713 0.2350198 0.2358754 0.2369514 0.2382856 0.2398933 0.2417457 0.2438494
 0.2460717 0.248406 0.2506583 0.2528201 0.2547307 0.256395 0.257755 0.2588339 0.2596788 0.2603231
 0.2608681 0.2613434 0.2618447 0.2623854 0.2630215 0.2637458 0.2645744 0.2654841 0.2664689 0.2675011
 0.2685694 0.2696546 0.2707496 0.2718468 0.2729436 0.2740409 0.2751375 0.2762484 0.277374 0.2785533
 0.2797892 0.2811327 0.2825832 0.2841675 0.2858732 0.2876754 0.2895475 0.2914186 0.2932519 0.2949586
 0.2965014 0.2978026 0.2988393 0.2995633 0.299981 0.3000759 0.2998857 0.2994144 0.2987196 0.2978122
 0.2967546 0.2955569 0.2942733 0.2929101 0.2915057 0.2900628 0.2886088 0.2871456 0.2857003 0.284276
 0.2829053 0.2815923 0.2803697 0.2792417 0.2782349 0.2773529 0.2766139 0.2760186 0.2755763 0.2752822
 0.2751373 0.2751312 0.2752589 0.27551 0.2758782 0.2763625 0.2769598 0.2776791 0.2785211 0.2794963
 0.2806061 0.2818527 0.2832362 0.284751 0.2863967 0.2881644 0.2900533 0.2920535 0.2941633 0.2963719
 0.2986767 0.3010669 0.3035383 0.3060798 0.3086859 0.3113443 0.314056 0.3168131 0.3196324 0.3225178
 0.3254955 0.3285781 0.3317768 0.3351019 0.3385324 0.3420702 0.3456692 0.3493266 0.3529872 0.3566477
 0.3602504 0.3637919 0.3672111 0.3705028 0.3736033 0.376503 0.379135 0.3814845 0.3834834 0.3851133
 0.3863127 0.3870684 0.3873367 0.3871217 0.3864042 0.3852179 0.3835658 0.3815158 0.379084 0.3763652
 0.3733787 0.3702345 0.3669493 0.3636336 0.3603005 0.3570333 0.3538388 0.3507354 0.3477191 0.3447216
 0.3417275 0.3386017 0.3353274 0.3317607 0.3279052 0.3236804 0.3191394 0.3143119 0.3093215 0.3043011
 0.2994368 0.294905 0.2909115 0.2876132 0.2851701 0.2836882 0.2832209 0.2838252 0.2853968 0.2879559
 0.2912034 0.2951304 0.2992684 0.3035901 0.3075904 0.3112495 0.3142127 0.3164925 0.3179914 0.3187577
 0.3189159 0.3185384 0.3178619 0.3169685 0.3161047 0.3153403 0.3148626 0.3146987 0.3149461 0.3155661
 0.31658 0.3178841 0.3194573 0.321157 0.3229509 0.3246902 0.3263489 0.3277954 0.3290135 0.3299044
 0.3304602 0.3306381 0.3304399 0.3299001 0.3290302 0.3279263 0.3266018 0.3251625 0.3236156 0.3220339
 0.3204181 0.3188017 0.3171859 0.3155817 0.3139999 0.3124478 0.3109503 0.30952 0.308188 0.3069685
 0.3058866 0.3049517 0.3041789 0.3035733 0.3031381 0.3028764 0.3027644 0.302802 0.302924 0.3031256
 0.3033119 0.3034771 0.303533 0.3034806 0.303273 0.3029219 0.3024322 0.3018195 0.3011167 0.3003288
 0.2994788 0.2985566 0.2975614 0.2964823 0.2953082 0.2940471 0.2926927 0.291283 0.2898201 0.2883695
 0.2869409 0.2855998 0.2843577 0.2832277 0.2822137 0.2812462 0.2803193 0.279314 0.2782244 0.2769495
 0.275493 0.2738126 0.2719246 0.2698455 0.2676038 0.2652545 0.262833 0.2604058 0.2579983 0.25566
 0.253389 0.2512027 0.2490761 0.2470028 0.2449638 0.242949 0.2409655 0.2390125 0.2371029 0.2352405
 0.233409 0.2316083 0.2297902 0.2279519 0.226044 0.2240664 0.2219944 0.2198314 0.217577 0.2152368
 0.2128244 0.2103482 0.2078274 0.2052758 0.2027146 0.2001664 0.1976554 0.1952068 0.1928452 0.1905773
 0.1884183 0.1863397 0.1843416 0.1823734 0.1804272 0.1784582 0.17646 0.1744072 0.1722971 0.170128
 0.1679011 0.1656456 0.163367 0.1611211 0.1589138 0.1568013 0.1547846 0.1528959 0.1511315 0.1494997
 0.147996 0.1466193 0.1453628 0.1442249 0.1431853 0.1422383 0.1413425 0.1404836 0.1396137 0.1387151
 0.1377633 0.136748 0.1356767 0.1345479 0.1333817 0.1321793 0.1309596 0.1297238 0.1284922 0.1272658
 0.1260611 0.1248772 0.1237173 0.1225815 0.1214695 0.1203874 0.1193464 0.1183506 0.1174137 0.1165269
 0.1156887 0.1148852 0.1141054 0.1133457 0.112601 0.1118741 0.1111666 0.1104713 0.109788 0.1091032
 0.1084138 0.1077232 0.1070304 0.1063662 0.1057326 0.105169 0.1046754 0.1042708 0.1039508 0.1037057
 0.1035313 0.1034088 0.1033395 0.1033169 0.1033444 0.1034259 0.1035578 0.1037415 0.1039628 0.1042154
 0.1044805 0.104749 0.1050069 0.1052466 0.1054689 0.1056705 0.105869 0.1060656 0.1062808 0.1065167
 0.1067763 0.107059 0.1073482 0.1076424 0.1079217 0.1081859 0.1084232 0.1086332 0.108809 0.1089486
 0.1090447 0.1090962 0.1090983 0.109052 0.1089563 0.1088136 0.1086238 0.1083935 0.1081227 0.1078291
 0.1075149 0.1072066 0.106909 0.1066446 0.1064175 0.1062372 0.106105 0.1060162 0.1059701 0.1059492
 0.1059515 0.105952 0.10595 0.1059266 0.1058848 0.1058226 0.1057461 0.1056664 0.1055882 0.1055232
 0.1054719 0.1054391 0.1054226 0.1054221 0.105437 0.1054669 0.1055114 0.1055723 0.1056406 0.105717
 0.1057802 0.1058281 0.105841 0.1058168 0.1057549 0.1056554 0.1055306 0.1053806 0.1052126 0.1050249
 0.1048144 0.1045793 0.1043136 0.104015 0.1036763 0.103296 0.1028659 0.1023959 0.1018863 0.101365
 0.1008468 0.1003644 0.09993881 0.09957938 0.09929863 0.0990721 0.09889968 0.09874277 0.09859586 0.0984369
 0.09826306 0.09807732 0.09787996 0.09768231 0.09748467 0.0972935 0.09710933 0.09693724 0.09677965 0.09664693
 0.09654032 0.09646903 0.09642851 0.09641783 0.09642797 0.09644917 0.09647693 0.09650204 0.09653451 0.09657311
 0.09664104 0.09674554 0.09690183 0.0971175 0.09738043 0.09769157 0.09802384 0.0983744 0.09873969 0.09912032
 0.09955108 0.100034 0.1006057 0.1012601 0.1019897 0.1027825 0.1035958 0.1044268 0.105247 0.106065
 0.1068835 0.1077024 0.1085264 0.1093416 0.1101364 0.110913 0.1116617 0.1124177 0.1131886 0.1140075
 0.1148868 0.1158193 0.1168084 0.1178209 0.1188544 0.1198854 0.1209128 0.1219274 0.1229285 0.123907
 0.1248616 0.1257797 0.1266613 0.1274978 0.1282923 0.1290446 0.1297663 0.130468 0.131176 0.1319131
 0.1327201 0.1336274 0.1346771 0.135897 0.1373094 0.13893 0.1407554 0.1427887 0.1450176 0.1474406
 0.150051 0.1528488 0.1558205 0.1589652 0.1622512 0.1656769 0.1692103 0.1728537 0.1765995 0.1804553
 0.1844396 0.1885622 0.1928551 0.1973182 0.2019795 0.2067927 0.2117568 0.2167186 0.2216259 0.2261763
 0.2302573 0.2334877 0.2357151 0.2367225 0.2363851 0.2349121 0.2322737 0.229039 0.2252462 0.2214333
 0.2176259 0.2140756 0.2107763 0.207758 0.2050089 0.2024873 0.2001861 0.198062 0.1961106 0.1943021
 0.1926337 0.1910914 0.1896665 0.1883499 0.1871203 0.185963 0.1848526 0.183773 0.1827107 0.1816569
 0.1806103 0.1795695 0.1785337 0.1775033 0.1764733 0.1754431 0.1744082 0.1733683 0.1723226 0.1712713
 0.170215 0.1691552 0.1680975 0.1670482 0.1660284 0.1650471 0.1641373 0.1632958 0.1625395 0.1618414
 0.1611837 0.1605311 0.1598519 0.1591274 0.1583341 0.1574894 0.1565849 0.1556825 0.1547964 0.1539616
 0.1531913 0.1524489 0.1517325 0.1510108 0.1502826 0.1495575 0.1488374 0.1481483 0.1474887 0.1468635
 0.1462694 0.1456941 0.1451432 0.1446207 0.1441384 0.1437176 0.143361 0.1430816 0.1428719 0.1427311
 0.1426513 0.1426292 0.1426555 0.1427276 0.1428341 0.1429716 0.143136 0.1433266 0.1435413 0.1437813
 0.1440209 0.1442585 0.1444431 0.1445729 0.1446079 0.1445521 0.1444039 0.1441744 0.1438963 0.1435861
 0.1432946 0.1430358 0.1428558 0.1427525 0.1427437 0.1428147 0.1429605 0.1431683 0.1434328 0.1437365
 0.1440753 0.1444253 0.1447785 0.14513 0.145476 0.1458315 0.1461979 0.1465761 0.1469661 0.1473594
 0.1477575 0.1481783 0.1486252 0.1491284 0.1496845 0.1502988 0.1509619 0.1516582 0.1523748 0.1530898
 0.1537805 0.1544154 0.154975 0.1554283 0.1557884 0.1560486 0.1562455 0.1563915 0.1565058 0.1565964
 0.1566626 0.1567047 0.1567248 0.1567237 0.1566954 0.1566393 0.1565225 0.1563431 0.1560657 0.1556942
 0.1552291 0.154681 0.1540844 0.1534518 0.1528266 0.152219 0.1516647 0.1511658 0.150741 0.1503789
 0.1500805 0.1498237 0.1496002 0.1493841 0.1491663 0.1489224 0.1486449 0.1483203 0.1479441 0.147521
 0.1470498 0.1465509 0.1460256 0.1455022 0.1449823 0.1444916 0.1440296 0.1436072 0.1432219 0.1428711
 0.1425545 0.1422699 0.1420199 0.1418095 0.1416358 0.1415026 0.141392 0.1412983 0.1411861 0.1410392
 0.1408198 0.140508 0.1400943 0.1395676 0.1389564 0.1382615 0.1375203 0.1367364 0.1359316 0.1351073
 0.1342795 0.1334496 0.1326378 0.1318445 0.1310828 0.1303527 0.1296597 0.1290081 0.1284113 0.1278711
 0.1274025 0.1269892 0.1266243 0.1262758 0.1259163 0.1255262 0.1250801 0.1245991 0.1240762 0.1235721
 0.1230979 0.1227109 0.1224266 0.1222429 0.1221651 0.1221232 0.1221136</values></Ydata></AB><ScSm><Ydata ylabel="Single channel"><values byteorder="INTEL" format="FLOAT32" numvalues="1814"> 0.06677833 0.06681943 0.06691972 0.06709045 0.06730217 0.06749921 0.0676349 0.06770235 0.06772397 0.06771491
 0.06768319 0.06766756 0.06773419 0.06791142 0.06814411 0.06832701 0.06838717 0.06835045 0.06833021 0.0684162
 0.06855306 0.06855759 0.06829298 0.06782588 0.0673811 0.06713328 0.06709862 0.0672699 0.06772754 0.06842418
 0.0689436 0.06880099 0.06805511 0.06733423 0.06713732 0.06735405 0.06755994 0.06750175 0.06717807 0.06674877
 0.06657343 0.06710692 0.06845409 0.07001103 0.0706823 0.06956533 0.0665928 0.06274852 0.05971293 0.05896129
 0.0607179 0.0636511 0.06587236 0.06644409 0.06583035 0.06494597 0.064181 0.06351356 0.0631248 0.06342079
 0.06446026 0.06558683 0.06576578 0.06445602 0.06225617 0.06049471 0.06002828 0.06069828 0.06202883 0.06374431
 0.06504534 0.06419916 0.06024485 0.05514896 0.05292372 0.05580748 0.06187735 0.06694811 0.06830271 0.06618208
 0.06253618 0.0594146 0.05823096 0.05937775 0.0621182 0.06520294 0.06764475 0.06877699 0.06808273 0.06563725
 0.06254791 0.06041557 0.06034981 0.06253794 0.06620654 0.06968457 0.0711639 0.07004178 0.06732213 0.06454961
 0.06279267 0.06265525 0.0644221 0.06774546 0.07163917 0.07506756 0.07737292 0.07831243 0.07808749 0.07722089
 0.07616442 0.07524114 0.07493667 0.07558949 0.07661037 0.07671482 0.07532978 0.07335798 0.0722423 0.0724721
 0.07319692 0.07326099 0.0723692 0.07087956 0.06865345 0.06506585 0.06043161 0.05635497 0.05412431 0.05374441
 0.05490231 0.05746434 0.06034731 0.06145164 0.05995846 0.05778973 0.05768859 0.06029753 0.06384037 0.06630691
 0.06730825 0.0679365 0.06935003 0.07158331 0.07338135 0.07313536 0.07048004 0.06720266 0.06597962 0.0677496
 0.07081674 0.07294378 0.0737102 0.07426956 0.07533091 0.07606626 0.074971 0.07164617 0.06778088 0.06612708
 0.06810583 0.0723808 0.0758233 0.07583563 0.07210134 0.06665501 0.06228912 0.06062383 0.06166108 0.06482843
 0.06960762 0.07500537 0.07931265 0.08106321 0.08010635 0.07749742 0.07430232 0.0706248 0.06618639 0.06195483
 0.06032613 0.06284605 0.06822099 0.07339935 0.07629704 0.07683116 0.07571696 0.07316788 0.06909187 0.06432792
 0.06105075 0.0610838 0.0637116 0.06609178 0.06623984 0.0648337 0.06373706 0.06365871 0.06390157 0.06380686
 0.06366843 0.06421721 0.06559014 0.06705263 0.06772537 0.06739464 0.06654452 0.06577841 0.06527051 0.06465098
 0.06352525 0.06226131 0.06194482 0.06319491 0.06531722 0.06702185 0.06771567 0.0677115 0.06738017 0.06651545
 0.06465873 0.06198875 0.05967595 0.05901182 0.06015698 0.06205279 0.06352882 0.06413468 0.06400321 0.06343205
 0.06269245 0.06193506 0.06122528 0.06074262 0.06074387 0.06120082 0.06171108 0.06190809 0.06176583 0.06142097
 0.06090929 0.06020395 0.0593994 0.05873819 0.0584426 0.05854054 0.05887057 0.05922721 0.05944943 0.0594183
 0.05909986 0.05860405 0.05809793 0.05765182 0.05725046 0.05692847 0.05677851 0.05681412 0.05691557 0.05694206
 0.05684369 0.05664468 0.05637132 0.0560349 0.05565699 0.05527876 0.05495472 0.0547369 0.05463275 0.05458052
 0.05450553 0.05439314 0.05426648 0.05411787 0.05391937 0.05368443 0.05346785 0.05331291 0.05322612 0.05318414
 0.05313835 0.05302115 0.0527738 0.05239842 0.05199839 0.05173282 0.05168758 0.0518057 0.05196473 0.05208164
 0.05212343 0.05208206 0.05198376 0.05187719 0.05177666 0.05164617 0.05145769 0.05124621 0.05109841 0.05108348
 0.05118437 0.05130663 0.0513673 0.05135576 0.05130323 0.0512377 0.0511834 0.05115547 0.05113407 0.05108015
 0.05098902 0.05090202 0.05086233 0.0508734 0.05089664 0.05088775 0.05084497 0.05081328 0.05082922 0.05087947
 0.05092692 0.05095616 0.05097737 0.05099947 0.05100957 0.05097887 0.05089707 0.05079843 0.05073305 0.05071375
 0.0507158 0.05072504 0.05075608 0.05081964 0.0508955 0.05094775 0.05096045 0.05095187 0.05094983 0.05095617
 0.05094776 0.05091312 0.05087195 0.05085325 0.05086739 0.05090372 0.05094587 0.05098405 0.05101586 0.05103927
 0.05104887 0.0510402 0.05101408 0.0509787 0.05095417 0.05096798 0.05102887 0.0511043 0.05113892 0.05110326
 0.05102049 0.0509426 0.05090121 0.05088293 0.05085297 0.05079756 0.05073516 0.05069082 0.05067295 0.05067404
 0.05067997 0.0506783 0.05067252 0.05069145 0.05076862 0.05090269 0.05104766 0.05115337 0.05121128 0.05125318
 0.05131218 0.05139655 0.05149584 0.05159902 0.05170668 0.0518307 0.05197645 0.05212419 0.05224406 0.05233399
 0.05242557 0.05254886 0.0527094 0.05289827 0.05309824 0.05327861 0.05341419 0.05351825 0.05363347 0.0537824
 0.05394646 0.05410003 0.05424426 0.05439647 0.05456325 0.05474059 0.05493178 0.05514939 0.05539848 0.05566601
 0.05592737 0.05616136 0.05636574 0.05656452 0.05679463 0.05707619 0.05739399 0.05771006 0.0579958 0.058253
 0.05850515 0.05876884 0.05904017 0.05931402 0.05960523 0.05993413 0.06029508 0.06065769 0.06100009 0.0613266
 0.06165175 0.06198135 0.06231359 0.06264946 0.06299607 0.06335913 0.06373203 0.06409508 0.06443013 0.06473637
 0.06502977 0.06533104 0.06565422 0.06599566 0.06632783 0.06661773 0.06686471 0.06710868 0.06738544 0.06768329
 0.06796236 0.06821066 0.06845826 0.06873414 0.06903033 0.06931788 0.06958342 0.0698377 0.07009436 0.07035012
 0.07058483 0.07077891 0.07093307 0.0710704 0.07121643 0.07138249 0.07157347 0.07179789 0.07205346 0.0723108
 0.07253088 0.07269648 0.07281482 0.0729001 0.07296927 0.07304212 0.07312573 0.07320596 0.07326648 0.07330596
 0.07333104 0.07335351 0.07340283 0.07351641 0.07370147 0.0739255 0.07415581 0.07438871 0.07462695 0.07485193
 0.07504313 0.07521262 0.0753902 0.07557089 0.075701 0.07572812 0.07564671 0.07548217 0.07525056 0.07495417
 0.07459688 0.07416941 0.07361933 0.07285885 0.07180842 0.07042728 0.068717 0.06672423 0.06455141 0.06235579
 0.06032901 0.05866875 0.05754911 0.05709034 0.05733333 0.0582235 0.05960771 0.06125082 0.06287913 0.0642383
 0.06514122 0.0654939 0.06530108 0.06464142 0.06360874 0.06225607 0.06059198 0.05861966 0.05636509 0.05386892
 0.05117411 0.04833473 0.0454359 0.0426008 0.03997474 0.0376925 0.0358444 0.03446491 0.03354454 0.03303986
 0.03286494 0.03288346 0.03292535 0.03282265 0.03245029 0.0317586 0.0307858 0.02963671 0.02843435 0.02727719
 0.02622726 0.02531874 0.02456753 0.02398026 0.0235733 0.02338535 0.02346974 0.0238668 0.02458231 0.02558041
 0.026793 0.02813637 0.02953353 0.03093178 0.03230694 0.0336545 0.03498106 0.03630224 0.03763903 0.03900728
 0.04041045 0.0418439 0.04330148 0.04476954 0.0462117 0.04755634 0.04869636 0.04950105 0.04984619 0.04965877
 0.04896791 0.04792725 0.0467691 0.04567883 0.04466741 0.04355924 0.04213345 0.04030775 0.03821278 0.03612177
 0.0343353 0.03311305 0.03266997 0.03318659 0.03480723 0.03759733 0.04149471 0.04627218 0.05155064 0.0568798
 0.06187073 0.06631003 0.07018799 0.07362579 0.07676284 0.07968085 0.08239885 0.08490768 0.08720322 0.08929351
 0.09119314 0.09292063 0.09450188 0.09596543 0.09733064 0.09860349 0.09978728 0.1008942 0.1019447 0.102956
 0.1039315 0.1048637 0.1057496 0.106601 0.1074351 0.1082557 0.1090542 0.1098276 0.1105849 0.111336
 0.1120814 0.1128125 0.1135125 0.1141592 0.1147374 0.1152539 0.1157327 0.1161949 0.1166447 0.1170766
 0.1174888 0.1178858 0.1182714 0.1186435 0.1189986 0.1193363 0.1196585 0.1199648 0.1202517 0.1205173
 0.1207644 0.1209965 0.1212122 0.1214079 0.1215918 0.1217929 0.122051 0.1223882 0.1227896 0.1232109
 0.1236104 0.1239756 0.1243209 0.1246631 0.125007 0.1253514 0.1257003 0.1260569 0.1264113 0.1267411
 0.1270278 0.1272708 0.1274836 0.127678 0.1278539 0.1280047 0.12813 0.128242 0.1283577 0.1284904
 0.1286482 0.1288346 0.1290475 0.1292799 0.1295251 0.1297811 0.1300501 0.1303365 0.1306442 0.130975
 0.1313278 0.1317008 0.1320895 0.1324843 0.1328716 0.1332437 0.1336047 0.1339653 0.1343298 0.13469
 0.1350322 0.1353516 0.135659 0.1359709 0.1362925 0.1366156 0.1369334 0.1372534 0.1375911 0.1379513
 0.1383216 0.1386854 0.139038 0.1393856 0.139732 0.1400737 0.1404057 0.1407269 0.141039 0.1413465
 0.1416549 0.1419678 0.1422859 0.1426059 0.1429211 0.143226 0.1435232 0.1438212 0.1441234 0.1444221
 0.1447086 0.1449854 0.1452654 0.1455607 0.1458719 0.1461899 0.146505 0.146813 0.1471133 0.1474064
 0.1476929 0.1479727 0.1482456 0.1485132 0.1487768 0.1490339 0.1492815 0.1495229 0.1497661 0.1500148
 0.1502688 0.1505274 0.1507881 0.1510442 0.1512903 0.1515277 0.1517638 0.1520074 0.1522633 0.1525282
 0.1527944 0.1530594 0.1533286 0.1536099 0.1539067 0.1542156 0.1545276 0.1548369 0.1551448 0.1554537
 0.1557631 0.1560728 0.1563837 0.1566922 0.1569926 0.1572875 0.1575871 0.1578979 0.1582202 0.1585497
 0.1588798 0.1592072 0.1595355 0.1598685 0.160204 0.1605398 0.1608781 0.1612202 0.1615621 0.1618971
 0.1622186 0.1625275 0.1628386 0.1631677 0.1635113 0.1638508 0.1641757 0.1644886 0.1647969 0.16511
 0.1654339 0.1657641 0.1660896 0.1664068 0.1667176 0.1670225 0.167324 0.1676264 0.1679293 0.1682306
 0.1685333 0.1688399 0.1691487 0.1694594 0.1697717 0.1700796 0.1703806 0.1706825 0.1709888 0.1712909
 0.1715851 0.1718778 0.1721734 0.1724707 0.1727679 0.1730593 0.1733404 0.1736197 0.1739054 0.1741779
 0.1743833 0.1744089 0.1739959 0.1726286 0.1695025 0.1636709 0.1544215 0.141724 0.1263953 0.1098068
 0.093376 0.07819252 0.06490751 0.05381281 0.04497667 0.0383303 0.03372673 0.03103834 0.03025373 0.03157777
 0.03555186 0.04274179 0.05251342 0.06193718 0.0669262 0.06546719 0.05954221 0.05331429 0.04966639 0.04881417
 0.04954659 0.05082797 0.05232434 0.05421202 0.05680408 0.06018679 0.06420237 0.0688455 0.07445536 0.08128297
 0.08897701 0.09673427 0.1039913 0.1108592 0.1178479 0.1252403 0.132788 0.1399507 0.1463235 0.1518361
 0.1566655 0.1610482 0.1651503 0.1690465 0.1727653 0.1762944 0.1795126 0.1821561 0.183941 0.1847761
 0.184872 0.1846262 0.1843896 0.1843276 0.1844595 0.1847636 0.1852218 0.1858126 0.1865106 0.1872902
 0.1881224 0.1889783 0.1898378 0.190686 0.1915035 0.1922723 0.1929831 0.1936321 0.1942212 0.194761
 0.1952652 0.1957393 0.196182 0.196592 0.196971 0.1973245 0.1976618 0.1979871 0.1982935 0.198571
 0.19882 0.1990517 0.1992796 0.1995108 0.1997409 0.1999617 0.2001725 0.2003798 0.2005861 0.2007881
 0.2009858 0.2011827 0.2013784 0.2015701 0.2017593 0.2019478 0.2021331 0.202313 0.2024892 0.2026639
 0.2028373 0.2030115 0.203191 0.2033763 0.2035625 0.2037439 0.203921 0.2041013 0.204292 0.2044908
 0.2046895 0.2048867 0.2050861 0.2052855 0.2054797 0.205673 0.2058768 0.2060962 0.2063295 0.2065714
 0.2068092 0.207026 0.2072162 0.2073932 0.2075773 0.2077817 0.2080025 0.2082207 0.2084172 0.2085909
 0.2087558 0.2089244 0.2090968 0.209263 0.2094164 0.2095693 0.2097475 0.2099607 0.210191 0.2104174
 0.2106326 0.2108324 0.211012 0.2111783 0.2113411 0.2114902 0.2116064 0.2117004 0.2118229 0.2120258
 0.2123091 0.2126103 0.2128586 0.2130396 0.2131945 0.2133714 0.2135914 0.2138278 0.2139903 0.2139877
 0.2138631 0.2138111 0.2139997 0.2144063 0.214868 0.215249 0.2155238 0.2157392 0.2159396 0.21612
 0.2162305 0.2162314 0.2161651 0.216166 0.216364 0.2167562 0.2172043 0.217577 0.2178474 0.2180463
 0.2181996 0.2183305 0.218422 0.2183627 0.2180733 0.2177344 0.2177386 0.2183066 0.2192294 0.2200808
 0.2206309 0.2209639 0.2212438 0.221515 0.2217396 0.2218324 0.2215769 0.2207546 0.219577 0.2187966
 0.2190827 0.2203455 0.2218727 0.2230426 0.2237166 0.2240687 0.2243013 0.2245124 0.224624 0.2243973
 0.2236928 0.2228098 0.2224074 0.2228999 0.2239959 0.2250113 0.2255649 0.2257807 0.2259332 0.2261415
 0.2262863 0.2259631 0.2247119 0.2226938 0.2210377 0.2210462 0.222918 0.2255087 0.2274705 0.2284141
 0.2287953 0.2289209 0.2285009 0.2271709 0.2250273 0.2225806 0.2206235 0.2201484 0.2216853 0.2244555
 0.2268071 0.2278456 0.2281885 0.2289076 0.2302382 0.231567 0.2322484 0.2321113 0.2313514 0.2301767
 0.2287063 0.2273041 0.2267858 0.2278407 0.2301912 0.2326888 0.2343793 0.2352288 0.2356175 0.235221
 0.2327897 0.2276549 0.2216094 0.2184093 0.2204511 0.2262521 0.2320391 0.2354582 0.2368511 0.2374714
 0.237821 0.2375206 0.2355066 0.2305889 0.2233015 0.2171026 0.216042 0.2207497 0.2277266 0.2326252
 0.2332433 0.2297671 0.2239527 0.2185786 0.2163229 0.2181413 0.2228484 0.2282926 0.2326574 0.2349408
 0.2349225 0.2330644 0.2304644 0.2285765 0.228165 0.2281635 0.2264707 0.2226027 0.2185145 0.2157326
 0.2129774 0.2085085 0.2039131 0.203036 0.2069666 0.2122224 0.2146633 0.2136511 0.2112939 0.2085672
 0.2036553 0.1945506 0.1826952 0.172948 0.169122 0.1698308 0.1695849 0.1639275 0.1527751 0.1390344
 0.1252552 0.1121024 0.09926513 0.08708681 0.07712676 0.07102485 0.06887421 0.0691416 0.07022713 0.07144976
 0.07249963 0.07315408 0.07430004 0.07815332 0.08614177 0.0968645 0.1070129 0.1138562 0.1160733 0.1132962
 0.1068805 0.1009503 0.1003411 0.1062691 0.1149508 0.1211778 0.1224857 0.1195159 0.1137925 0.1067753
 0.1007919 0.09914032 0.1040331 0.1144063 0.1258977 0.1329328 0.1317946 0.1236132 0.114764 0.1122563
 0.1172877 0.1244044 0.1276511 0.1260132 0.122472 0.1201635 0.1205898 0.1234622 0.1269867 0.1294956
 0.1307801 0.1302766 0.1252779 0.1142813 0.1014797 0.09404978 0.09471221 0.1003029 0.1075409 0.1159531
 0.1241838 0.1279712 0.124947 0.1191707 0.1177208 0.1231795 0.13139 0.1365271 0.1368659 0.1351229
 0.1342133 0.1340875 0.1332468 0.1322379 0.1337467 0.1389328 0.1454239 0.1499527 0.1517249 0.1521434
 0.1523718 0.152447 0.1520827 0.1511866 0.1498154 0.1482485 0.1468907 0.145814 0.1447003 0.1433245
 0.1415377 0.1385593 0.1331433 0.1253865 0.1178938 0.1137504 0.113261 0.1141217 0.1147941 0.1154231
 0.1147712 0.109337 0.09804749 0.08606358 0.08102152 0.08567902 0.09588878 0.1053001 0.1102026 0.1098207
 0.1043907 0.09531655 0.08681222 0.08462772 0.09135316 0.1039227 0.1168957 0.1271202 0.134083 0.1373406
 0.1360356 0.1309137 0.1251826 0.1227196 0.125689 0.1335257 0.1430925 0.1494332 0.148148 0.13979
 0.1319862 0.1338469 0.1463389 0.160633 0.1680011 0.1687077 0.1685884 0.169965 0.1703919 0.1690058
 0.1691569 0.1736321 0.1803791 0.184457 0.1823426 0.1732641 0.1584162 0.1409004 0.1251997 0.1143719
 0.1078712 0.1033625 0.09970544 0.09656219 0.09267414 0.08747405 0.08377628 0.08573498 0.09369673 0.1033395
 0.1104171 0.1145499 0.1177311 0.120625 0.1216274 0.1193962 0.1153973 0.1131268 0.114719 0.1190563
 0.12351 0.1265144 0.1276373 0.1262633 0.1219911 0.1163915 0.1129009 0.1140459 0.1190997 0.1249031
 0.1286973 0.129827 0.1292155 0.1280432 0.1269456 0.1258737 0.1246329 0.1238257 0.12483 0.1281691
 0.132305 0.1349868 0.1356419 0.1355567 0.1357837 0.135843 0.1347513 0.1326296 0.1308526 0.1308607
 0.1330144 0.1363383 0.1391511 0.1402088 0.1397066 0.1392302 0.1403855 0.1433197 0.1467545 0.149409
 0.1510468 0.1521891 0.1533146 0.1544571 0.1551939 0.1549857 0.1539258 0.1531399 0.1539469 0.1564924
 0.1595423 0.1616732 0.1623687 0.1619572 0.1608952 0.1593711 0.1574747 0.1554949 0.1539031 0.1530371
 0.1528706 0.1531153 0.1534682 0.1537319 0.1538176 0.1537464 0.1536211 0.1535328 0.1534969 0.1534737
 0.1533959 0.1531619 0.1526594 0.1518354 0.1507331 0.1494523 0.1481073 0.1468257 0.145732 0.1448658
 0.1441205 0.1433105 0.1423141 0.1411212 0.139756 0.1382301 0.1366274 0.1351994 0.1342878 0.1340852
 0.1344519 0.1349799 0.1352524 0.1350675 0.1344695 0.133643 0.1328063 0.1321501 0.1317958 0.131771
 0.1320256 0.1324752 0.1330389 0.1336589 0.1343051 0.1349665 0.1356323 0.1362745 0.1368415 0.1372674
 0.1374948 0.1374969 0.1372856 0.1368984 0.1363692 0.1357006 0.1348607 0.133812 0.1325467 0.1310976
 0.1295236 0.127882 0.1262015 0.1244766 0.1226914 0.1208448 0.1189346 0.1169305 0.1147987 0.1125637
 0.1103188 0.1081602 0.1061276 0.1042152 0.1024213 0.1007714 0.09931606 0.09812459 0.09727414 0.0968226
 0.09678166 0.09710965 0.09772342 0.0985169 0.09938111 0.1002221 0.1009764 0.1016328 0.1022568 0.1029823
 0.103944 0.105176 0.1065447 0.1077512 0.1083994 0.1081038 0.1066127 0.1039036 0.1002166 0.09600286
 0.09179722 0.08805883 0.08505674 0.082848 0.08132989 0.08031614 0.0796088 0.0790571 0.0785915 0.07822469
 0.0780263 0.0780847 0.0784716 0.07922414 0.08034249 0.08178619 0.08346656 0.08525816 0.08704422 0.0887682
 0.09044006 0.09208406 0.09368098 0.09516628 0.09647352 0.09756188 0.09840934 0.09901074 0.09939776 0.0996487
 0.09986486 0.100131 0.1004877 0.1009289 0.101426 0.1019612 0.1025415 0.1031857 0.1039006 0.1046626
 0.1054186 0.1061142 0.106739 0.1073542 0.1080716 0.108994 0.1101599 0.1115329 0.1130331 0.1145801
 0.1161184 0.1176275 0.1191226 0.1206385 0.1222079 0.1238543 0.1255991 0.1274602 0.1294373 0.1315015
 0.1336013 0.1356788 0.1376839 0.1395713 0.14129 0.1427966 0.1440907 0.1452285 0.146294 0.1473596
 0.1484662 0.1496138 0.1507585 0.1518289 0.152757 0.1534996 0.1540457 0.1544146 0.1546487 0.1548036
 0.1549406 0.1551176 0.1553709 0.1557037 0.1560949 0.1565154 0.1569391 0.1573505 0.15774 0.1580884
 0.1583628 0.1585376 0.1586114 0.1585931 0.1584824 0.1582771 0.1579866 0.1576221 0.157173 0.156604
 0.15588 0.1549913 0.153953 0.152785 0.1514962 0.1500871 0.1485558 0.1469082 0.1451775 0.1434316
 0.1417411 0.1401392 0.1386231 0.1371871 0.1358376 0.1345838 0.1334286 0.1323674 0.1313901 0.1304924
 0.1296832 0.1289726 0.1283521 0.1277943 0.1272695 0.1267628 0.1262785 0.1258314 0.125432 0.1250841
 0.1247907 0.1245528 0.1243689 0.1242477 0.1242074 0.1242412 0.1242944 0.1242976 0.124222 0.1240958
 0.1239731 0.1238963 0.1238822 0.1239317 0.124038 0.1241771 0.1242973 0.1243233 0.124166 0.1237378
 0.1229889 0.1219398 0.1206686 0.119278 0.1178834 0.1166035 0.1155268 0.1146903 0.1140858 0.1136631
 0.1133392 0.1130463 0.1127819 0.1126014 0.1125576 0.1126352 0.1127277 0.1127063 0.1125394 0.112325
 0.1121947 0.1122134 0.1123682 0.1125924 0.1127934 0.1129019 0.1129034 0.1128029 0.1125903 0.1122574
 0.1118185 0.1112969 0.1107136 0.1100884 0.1094346 0.1087628 0.1080852 0.1074004 0.1066846 0.105914
 0.1050621 0.104073 0.102884 0.1014705 0.09982543 0.09793746 0.09586069 0.0937705 0.09188123 0.09031626
 0.08905786 0.0879741 0.08690128 0.0857489 0.08452063 0.08326052 0.08210373 0.08141439 0.08170825 0.08327412
 0.08586246 0.08880121 0.09143587 0.09346388 0.0948966 0.09582037 0.09628132 0.09631556 0.09594497 0.09516035
 0.09399248 0.09254864 0.09093688 0.08924876 0.08762369 0.08620886 0.08506779 0.08420421 0.08361062 0.08330486
 0.08336528 0.08353788 0.08252941 0.07866441 0.072474 0.06789178 0.06896691 0.07531218 0.08235003 0.08614185
 0.08653239 0.08558665 0.08475682 0.084273 0.08406021 0.08422 0.08485026 0.08584478 0.08690712 0.08773754
 0.0882252 0.08841297 0.0882811 0.08758442 0.08582141 0.0824106 0.07716085 0.07068204 0.06418207 0.05877082
 0.05496201 0.05267259 0.05146147 0.05079569 0.05032046 0.05001793 0.05011326 0.0508128 0.05213111 0.05393821
 0.05608096 0.05837529 0.06054497 0.06232999 0.06368479 0.06475879 0.06566203 0.06634301 0.06669885 0.06671034
 0.06645365 0.06604601 0.06559671 0.0651606 0.06470219 0.06412818 0.06341109 0.06268677 0.06216763 0.06194124
 0.06191556 0.06196316 0.06203556 0.06213259 0.06224917 0.06237114 0.06248063 0.06258082 0.06273347 0.06301642
 0.06341812 0.06382194 0.06411167 0.06426831 0.06436569 0.06446344 0.06449136 0.06431194 0.06395273 0.06364775
 0.06351863 0.06334595 0.06284673 0.06210035 0.06151112 0.06137331 0.06161591 0.06195891 0.06218395 0.06223401
 0.06218537 0.06221068 0.06247513 0.06294058</values></Ydata></ScSm><ScRf><Ydata ylabel="Single channel"><values byteorder="INTEL" format="FLOAT32" numvalues="1820"> 0.06040507 0.06055962 0.06064866 0.06067599 0.06066991 0.06067578 0.06073964 0.06088057 0.06107331 0.06126032
 0.06139092 0.06145522 0.06147347 0.06145838 0.06141551 0.06138209 0.0614249 0.06157447 0.06177835 0.06193499
 0.06197594 0.06192748 0.06189563 0.06196229 0.06207568 0.06206731 0.06181144 0.06136893 0.06094735 0.06071014
 0.06067354 0.06082575 0.06123244 0.06185015 0.06230779 0.0621686 0.06148019 0.06080561 0.06059834 0.06076508
 0.06092611 0.06085185 0.06053757 0.06012665 0.05995042 0.06043082 0.06166597 0.06309831 0.06371809 0.06269571
 0.05996938 0.05643894 0.05364162 0.05293042 0.05451806 0.05719261 0.05922586 0.05975504 0.05920289 0.05840942
 0.05773052 0.05713345 0.05676737 0.05700206 0.05791154 0.05892044 0.05908807 0.05790231 0.05589088 0.05426443
 0.05381592 0.05441021 0.05561461 0.05717446 0.05835904 0.05759006 0.05399303 0.04935859 0.04734206 0.04998736
 0.05554605 0.06019568 0.06144129 0.05949284 0.05614114 0.05327786 0.05219924 0.05324811 0.05573471 0.058518
 0.06070979 0.06171517 0.06107152 0.05885107 0.05605692 0.05413164 0.05407158 0.05604768 0.05936953 0.06253013
 0.0638864 0.06288034 0.06041378 0.05788716 0.05627369 0.05612635 0.05771159 0.06072451 0.06427553 0.06741831
 0.06954091 0.07040937 0.07020423 0.06941243 0.0684593 0.06763737 0.06737033 0.06795348 0.06885892 0.06893477
 0.06766581 0.06586799 0.06484949 0.06505769 0.06572279 0.06579213 0.0649921 0.06364482 0.06162287 0.05835644
 0.05413372 0.05042097 0.04839543 0.04806151 0.04913942 0.05151857 0.0542099 0.05527312 0.0539305 0.05192714
 0.05178569 0.05412203 0.05733378 0.0595861 0.06051385 0.0611062 0.0624167 0.06447277 0.06612636 0.06591159
 0.063499 0.06052226 0.05942827 0.06107786 0.06392077 0.06590977 0.06666425 0.06724718 0.06830734 0.06907527
 0.06816296 0.0652092 0.06177275 0.06037222 0.06229097 0.06629215 0.06951212 0.06957175 0.06617691 0.06120612
 0.05725385 0.05583002 0.05693597 0.06004158 0.06467459 0.06992108 0.07418789 0.07608111 0.0754128 0.07313857
 0.07026649 0.06691863 0.06284411 0.05897221 0.05761103 0.06026598 0.06570832 0.070998 0.07410844 0.07493554
 0.07414472 0.07191183 0.06812709 0.06363823 0.0606565 0.06103717 0.06405102 0.06680131 0.06726138 0.06612087
 0.06529114 0.06550674 0.06605185 0.06625178 0.06643662 0.06739393 0.06926048 0.07122892 0.07233801 0.07234562
 0.07177117 0.07128319 0.07109095 0.0707944 0.0699592 0.06900302 0.06913628 0.07102824 0.07387266 0.07621333
 0.07740192 0.07782237 0.07790492 0.07738037 0.07566832 0.07295747 0.07065049 0.07032128 0.07218751 0.07496957
 0.07722216 0.07838163 0.07862937 0.07835484 0.0778905 0.07741432 0.07701339 0.07690728 0.07738441 0.07837993
 0.07939416 0.07999188 0.08015282 0.08003893 0.07968403 0.07906875 0.07834793 0.07784636 0.07782334 0.07827884
 0.0790014 0.07975835 0.08037075 0.08066833 0.08055281 0.08013956 0.07969274 0.07938439 0.07922786 0.0792347
 0.0794725 0.07992443 0.08041994 0.08077454 0.08093671 0.08096289 0.08090769 0.0807841 0.08060592 0.08043525
 0.08037646 0.08049886 0.08075212 0.08100376 0.08119448 0.08139716 0.08166601 0.08189745 0.08193439 0.08177145
 0.08156897 0.08147764 0.08151735 0.08161768 0.08170159 0.0816979 0.08153103 0.08118762 0.08080743 0.08063076
 0.08080548 0.08128167 0.08189878 0.08249956 0.08295434 0.0831883 0.08323946 0.08321999 0.08318713 0.08310354
 0.08293697 0.08275321 0.08269324 0.08286478 0.083246 0.08369544 0.08406374 0.0842843 0.08437401 0.08440892
 0.08449742 0.08469185 0.08490666 0.08499767 0.08494125 0.08486865 0.0849043 0.0850237 0.0850972 0.08504805
 0.08494361 0.08492545 0.08505984 0.08528017 0.08547983 0.08563137 0.08579341 0.08601183 0.08623104 0.08632137
 0.08621527 0.08600014 0.08583443 0.08578342 0.08579601 0.08583451 0.08594161 0.0861475 0.08637802 0.08651496
 0.08652836 0.08650279 0.08652812 0.08659419 0.08661158 0.08651926 0.08634987 0.08619586 0.08613372 0.08617716
 0.0862775 0.08635747 0.0863595 0.08627954 0.08615977 0.08604714 0.08596218 0.08591449 0.08593931 0.08608417
 0.08633296 0.08656166 0.08661376 0.08644168 0.08616131 0.08594981 0.08588699 0.08589936 0.08585171 0.08567795
 0.08542182 0.08517309 0.08498852 0.08486912 0.0847867 0.08472013 0.08467989 0.08470556 0.0848207 0.08497286
 0.08504048 0.08493346 0.08468457 0.08441786 0.0842363 0.08416061 0.08415245 0.0841597 0.0841555 0.08416289
 0.08422209 0.08431441 0.08435713 0.0842999 0.08419047 0.08412451 0.08416685 0.08432474 0.08454256 0.08471011
 0.08473627 0.08464159 0.08454175 0.08452646 0.08458777 0.08467056 0.08474814 0.08482765 0.0849151 0.08500978
 0.08512542 0.08528985 0.08551498 0.08577511 0.08601807 0.0861982 0.08631014 0.08640221 0.08654946 0.08679513
 0.08711175 0.08742352 0.08767053 0.08785413 0.08802171 0.08821025 0.08841483 0.08862026 0.08884412 0.0891192
 0.08944111 0.08976567 0.09006 0.09033071 0.09060058 0.09088095 0.09117303 0.09148534 0.09184155 0.09225792
 0.09270023 0.09307928 0.0933207 0.09344171 0.09354395 0.09373521 0.0940587 0.09446421 0.09482926 0.09504797
 0.09513597 0.09522273 0.09541056 0.09567116 0.09591803 0.0961477 0.09644914 0.09687329 0.09734466 0.09772694
 0.09795588 0.09808944 0.09823361 0.09843136 0.09863198 0.09876888 0.09884903 0.09893994 0.09907937 0.09924621
 0.09943201 0.09968545 0.1000449 0.1004622 0.1008403 0.1011263 0.1013342 0.1014959 0.1016243 0.1017145
 0.1017562 0.1017576 0.1017641 0.1018274 0.1019417 0.1020424 0.1020866 0.1021063 0.1021668 0.1023031
 0.1025169 0.1027997 0.1031221 0.1034262 0.1036754 0.1039119 0.1042159 0.1045889 0.1049197 0.1051014
 0.1051495 0.1051646 0.1052058 0.1052633 0.1053379 0.1054765 0.1057101 0.1060094 0.1063266 0.1066502
 0.1069951 0.1073579 0.1076953 0.107943 0.1080574 0.1080525 0.1080011 0.1079965 0.1081051 0.1083389
 0.108654 0.1089791 0.1092564 0.1094579 0.109564 0.1095628 0.1094946 0.1094647 0.1095611 0.1097535
 0.1099067 0.1098969 0.1096921 0.109323 0.1088193 0.1082017 0.1075182 0.1068545 0.1062986 0.1058992
 0.10567 0.1056307 0.1058237 0.1062684 0.1069044 0.1076077 0.1082631 0.1087945 0.1091235 0.1091558
 0.108847 0.1082622 0.1075393 0.1068037 0.1061247 0.1055149 0.1049413 0.1043699 0.1038439 0.1035141
 0.103566 0.1041121 0.1051397 0.1065205 0.1080466 0.1094933 0.1107083 0.1116699 0.11246 0.1131743
 0.1138608 0.1145325 0.1152016 0.1158694 0.1164989 0.1170418 0.1174967 0.1179122 0.1183276 0.118735
 0.119097 0.119384 0.1195993 0.1197823 0.1199729 0.1201555 0.1202632 0.1202543 0.1201615 0.1200479
 0.1199352 0.1197887 0.1195539 0.1192002 0.118759 0.1183495 0.1181575 0.1183576 0.1190173 0.1200582
 0.121314 0.1226316 0.1239122 0.1250691 0.1260047 0.1266641 0.1270925 0.127402 0.1276888 0.1279916
 0.1283084 0.1286249 0.128929 0.1292145 0.1294838 0.1297509 0.1300401 0.1303664 0.1307098 0.1310223
 0.1312764 0.1315012 0.1317604 0.1320927 0.1324727 0.1328373 0.1331537 0.1334515 0.1337701 0.1340913
 0.1343566 0.1345482 0.1347163 0.1349265 0.1352117 0.135565 0.1359437 0.1362777 0.1365161 0.1366756
 0.1368225 0.1370073 0.137233 0.1374804 0.137736 0.1379927 0.1382456 0.138501 0.1387787 0.1390861
 0.1393922 0.1396433 0.1398177 0.1399539 0.1401126 0.1403173 0.1405428 0.1407548 0.14095 0.1411594
 0.1414173 0.1417229 0.1420305 0.1422822 0.1424564 0.1425805 0.1427015 0.1428515 0.1430376 0.1432506
 0.1434739 0.1436902 0.1438908 0.1440817 0.1442772 0.1444849 0.1446993 0.1449112 0.1451187 0.1453279
 0.1455429 0.145761 0.1459804 0.1462127 0.1464781 0.1467768 0.1470704 0.1473093 0.1474791 0.1476092
 0.147739 0.1478868 0.1480511 0.1482282 0.1484174 0.1486167 0.1488179 0.1490119 0.1491979 0.1493845
 0.1495815 0.1497903 0.1500036 0.1502139 0.1504232 0.1506432 0.1508814 0.1511262 0.1513531 0.1515502
 0.1517318 0.1519233 0.1521362 0.1523576 0.1525639 0.1527432 0.1529064 0.1530736 0.1532537 0.1534417
 0.153632 0.1538254 0.1540248 0.1542294 0.1544358 0.1546399 0.1548373 0.1550257 0.1552074 0.1553898
 0.1555791 0.1557744 0.15597 0.1561631 0.1563546 0.1565447 0.1567354 0.1569342 0.1571478 0.157371
 0.1575899 0.157793 0.1579792 0.1581573 0.1583414 0.1585395 0.158746 0.1589474 0.1591371 0.159322
 0.1595154 0.1597248 0.1599452 0.1601641 0.1603752 0.1605824 0.1607904 0.1609978 0.1612028 0.1614095
 0.1616226 0.1618408 0.1620579 0.1622696 0.162479 0.1626928 0.1629117 0.163129 0.1633379 0.1635368
 0.1637252 0.1639031 0.1640732 0.1642401 0.1644076 0.164579 0.164757 0.1649415 0.1651341 0.1653372
 0.1655467 0.1657521 0.1659495 0.1661448 0.1663428 0.1665441 0.1667498 0.1669586 0.1671642 0.1673634
 0.1675615 0.1677628 0.1679656 0.1681688 0.1683728 0.1685767 0.1687794 0.1689828 0.1691894 0.1694006
 0.1696164 0.169833 0.1700464 0.1702594 0.1704761 0.170691 0.1708975 0.1711006 0.1713083 0.1715202
 0.1717312 0.1719387 0.1721398 0.1723347 0.1725286 0.1727252 0.1729258 0.1731369 0.1733631 0.1735939
 0.1738137 0.1740201 0.1742193 0.1744161 0.1746172 0.174828 0.1750439 0.1752585 0.1754754 0.1756975
 0.1759195 0.1761391 0.1763555 0.1765526 0.1766846 0.1766405 0.1761506 0.1746777 0.171392 0.1653297
 0.1557794 0.1427293 0.1270219 0.1100548 0.09326877 0.07777349 0.06423257 0.05293977 0.04395555 0.03719815
 0.03250809 0.02975171 0.02892224 0.0302387 0.03425648 0.04154116 0.05143487 0.06096306 0.06599218 0.06449165
 0.05847274 0.05215467 0.0484616 0.04761188 0.04836962 0.04967248 0.0511744 0.05305571 0.0556416 0.05902816
 0.0630604 0.06773119 0.07337791 0.08025067 0.08799413 0.09579434 0.1030761 0.1099516 0.1169474 0.1243624
 0.1319455 0.1391395 0.1455264 0.1510357 0.1558514 0.1602138 0.1642866 0.1681427 0.171816 0.175303
 0.178484 0.1810879 0.1828207 0.1835875 0.1836032 0.1832757 0.1829661 0.1828448 0.182929 0.18319
 0.1836036 0.184151 0.1848139 0.1855665 0.186369 0.1871853 0.1880018 0.1888118 0.1895954 0.1903277
 0.1909972 0.1916047 0.1921571 0.1926656 0.1931393 0.193579 0.1939847 0.1943598 0.1947086 0.1950365
 0.1953519 0.1956585 0.1959504 0.1962202 0.1964669 0.1966946 0.1969131 0.1971353 0.1973651 0.1975911
 0.1978021 0.198002 0.1982024 0.1984099 0.1986217 0.1988294 0.1990249 0.1992086 0.1993886 0.1995728
 0.1997632 0.1999593 0.2001584 0.2003552 0.2005465 0.2007356 0.2009265 0.201119 0.2013119 0.2015055
 0.2017027 0.2019077 0.2021199 0.2023294 0.2025256 0.2027128 0.2029071 0.2031188 0.2033456 0.2035786
 0.2038058 0.2040177 0.2042193 0.2044273 0.2046463 0.2048572 0.2050375 0.2051897 0.2053433 0.2055275
 0.2057433 0.2059628 0.2061604 0.2063383 0.2065184 0.2067145 0.2069199 0.2071164 0.2072955 0.2074758
 0.2076879 0.207938 0.208202 0.2084612 0.2087169 0.2089679 0.2092027 0.20942 0.2096261 0.2098108
 0.2099588 0.2100904 0.2102653 0.2105332 0.2108792 0.2112287 0.211515 0.2117403 0.2119566 0.212205
 0.2124913 0.2127833 0.2129998 0.2130597 0.2130051 0.2130238 0.2132805 0.2137531 0.2142805 0.2147304
 0.2150805 0.215374 0.2156456 0.215885 0.2160464 0.2160981 0.2160875 0.2161514 0.2164208 0.2168864
 0.2173967 0.217811 0.2181101 0.21834 0.218532 0.218701 0.2188179 0.2187624 0.2184487 0.2180569
 0.2179917 0.2184925 0.2193615 0.2201724 0.2206928 0.221007 0.2212798 0.2215532 0.2217854 0.2218879
 0.2216395 0.220815 0.219624 0.2188282 0.2191135 0.2204024 0.2219841 0.2232227 0.223956 0.2243407
 0.2245816 0.2247947 0.2249179 0.2247154 0.2240431 0.2231969 0.2228357 0.2233716 0.2245074 0.2255578
 0.2261497 0.2264147 0.226621 0.226875 0.227052 0.2267477 0.2255002 0.2234726 0.2218081 0.2218274
 0.2237353 0.2263745 0.228371 0.2293159 0.2296692 0.2297584 0.2293051 0.227939 0.2257477 0.2232424
 0.2212282 0.2207141 0.222234 0.2249905 0.2273096 0.2283016 0.2286099 0.2293227 0.230664 0.2319972
 0.2326629 0.232495 0.2317001 0.2304869 0.2289705 0.2275246 0.2269821 0.228037 0.2303996 0.2329095
 0.2346083 0.2354638 0.2358583 0.2354582 0.2329924 0.2277866 0.221666 0.2184348 0.2205108 0.2263954
 0.2322807 0.2357874 0.2372557 0.2379527 0.2383852 0.2381636 0.2362095 0.2313237 0.2240554 0.2179163
 0.217013 0.22197 0.2292193 0.2343487 0.2351359 0.2317777 0.2260627 0.2208249 0.2187932 0.2209393
 0.226061 0.2319692 0.2367989 0.2395094 0.2398662 0.2383359 0.23605 0.2345326 0.2345972 0.2351316
 0.2339417 0.2305359 0.2269616 0.2247877 0.2226451 0.2187237 0.2147576 0.2148707 0.2202404 0.2271496
 0.2311758 0.2316698 0.2309316 0.2299825 0.2267674 0.2190925 0.208797 0.2017929 0.2028953 0.2108248
 0.2193646 0.2234609 0.2232305 0.2220755 0.2221458 0.2221623 0.2192187 0.2125846 0.2055818 0.2027756
 0.2050895 0.2089669 0.2105472 0.2087197 0.2037025 0.1958088 0.1877209 0.1852504 0.1923942 0.2064009
 0.2199585 0.2272199 0.2258641 0.2157001 0.1995442 0.1850377 0.1809123 0.1891206 0.2024517 0.2111916
 0.2108081 0.2026632 0.1898752 0.1752747 0.1627964 0.1577538 0.1636113 0.1785352 0.1954974 0.2057027
 0.2033793 0.190316 0.1764086 0.1725103 0.1804569 0.191772 0.1971957 0.1951181 0.190145 0.1871924
 0.1886914 0.1942387 0.2010009 0.2063536 0.2099643 0.2107407 0.2039662 0.186955 0.1665384 0.1545866
 0.1556731 0.1646537 0.1761744 0.1895204 0.2025328 0.2082429 0.202738 0.1926056 0.1893762 0.1972727
 0.2095751 0.2168651 0.2163633 0.2124626 0.2098941 0.2086606 0.2064259 0.2040133 0.2055695 0.2128842
 0.2222921 0.2287618 0.2311125 0.2315801 0.2320031 0.2324154 0.2323266 0.2315691 0.2302218 0.2287099
 0.2276719 0.2272419 0.2269292 0.2263658 0.2252602 0.2222297 0.2150997 0.2039569 0.1931112 0.187693
 0.1882067 0.1908469 0.1931335 0.1953559 0.1953266 0.1869239 0.1681971 0.147986 0.1394936 0.1475361
 0.1649587 0.1807654 0.1885382 0.1869785 0.1765921 0.1598494 0.1438216 0.1380206 0.1466644 0.1646102
 0.1828225 0.1961674 0.2040922 0.2063276 0.201834 0.1918315 0.1811211 0.1753726 0.1776128 0.1868374
 0.1984139 0.2053718 0.2017738 0.1885417 0.1760989 0.1767689 0.1918968 0.2096917 0.2184811 0.2185651
 0.2176706 0.2189389 0.2192645 0.2175982 0.2184025 0.2254621 0.2362811 0.2445368 0.245635 0.2385285
 0.2251694 0.2110239 0.2036646 0.2066623 0.2154696 0.2223296 0.2237779 0.2201925 0.2112096 0.1976883
 0.1866204 0.1869169 0.1990763 0.2140158 0.2233941 0.2272034 0.2299851 0.2330196 0.2327998 0.2263796
 0.2163299 0.2091654 0.2088988 0.2135131 0.2183457 0.2210121 0.2214099 0.2188932 0.2126814 0.2050559
 0.2013907 0.2054456 0.2154345 0.2256849 0.2317067 0.2329803 0.2315768 0.2294904 0.2273287 0.2245009
 0.2205269 0.2167316 0.2160004 0.2197034 0.2255183 0.2298155 0.2318196 0.2338789 0.2377759 0.2422713
 0.2446142 0.2435447 0.2404856 0.2382826 0.2389101 0.2419144 0.2447677 0.2450288 0.2426603 0.240282
 0.2407654 0.2445027 0.249347 0.2530489 0.2550878 0.2562278 0.2572081 0.2580924 0.258221 0.256718
 0.253726 0.2511194 0.251168 0.2542819 0.2586199 0.2619925 0.263636 0.2640872 0.2639685 0.2633411
 0.2620676 0.2603974 0.2589805 0.2583545 0.2585616 0.259275 0.2601387 0.260923 0.261515 0.2619061
 0.2621605 0.2623332 0.2624443 0.2625264 0.2626149 0.2626766 0.2626411 0.2625419 0.2625399 0.2627411
 0.2630512 0.2632725 0.2632835 0.2630494 0.2625169 0.2616233 0.2604088 0.2590071 0.2574872 0.2558113
 0.2540524 0.2526223 0.2521444 0.2529969 0.2549679 0.2573812 0.2595531 0.2611373 0.2621253 0.2626582
 0.2628907 0.2629536 0.2629386 0.2628801 0.2627643 0.2625656 0.262276 0.2619106 0.2615017 0.2610926
 0.2607271 0.2604275 0.260175 0.2599142 0.2595873 0.2591683 0.258673 0.258141 0.2576028 0.2570521
 0.256442 0.2557176 0.2548607 0.2539125 0.2529576 0.2520764 0.2512929 0.2505617 0.2498133 0.2490057
 0.2481186 0.2471208 0.2459973 0.2448203 0.2437425 0.2428788 0.2422087 0.2416089 0.2409571 0.2401863
 0.2392798 0.238261 0.2371857 0.2361076 0.2350415 0.2339625 0.2328277 0.2315968 0.2302511 0.2288043
 0.2272829 0.2257015 0.2240726 0.2224239 0.2207638 0.2190269 0.2170771 0.2147656 0.2119722 0.2086141
 0.2046639 0.2001884 0.195359 0.1904002 0.1855145 0.1808494 0.1765214 0.1726428 0.1693127 0.1665982
 0.1645403 0.1631693 0.1625059 0.1625549 0.1633036 0.1647166 0.1667219 0.1692024 0.1720049 0.1749617
 0.1779092 0.1807038 0.1832527 0.1855562 0.187699 0.1897636 0.1917488 0.1935873 0.1952235 0.1966416
 0.1978412 0.1988278 0.1996301 0.2002972 0.2008726 0.2013766 0.2018134 0.2021863 0.2025037 0.2027716
 0.2029926 0.2031761 0.2033427 0.2035138 0.2037057 0.2039322 0.204202 0.2045178 0.2048898 0.2053349
 0.2058495 0.2064013 0.2069666 0.2075585 0.2081997 0.2088887 0.2096141 0.2103978 0.2113017 0.2123851
 0.2136541 0.2150511 0.2164824 0.2178489 0.2190616 0.2200561 0.220804 0.2213053 0.2215733 0.2216347
 0.2215328 0.2213137 0.221011 0.2206456 0.2202274 0.2197527 0.2192134 0.2186137 0.2179664 0.2172771
 0.2165492 0.2158055 0.2150863 0.2144167 0.2137849 0.2131633 0.2125422 0.2119311 0.2113346 0.2107475
 0.2101715 0.2096142 0.2090701 0.2085183 0.2079419 0.2073315 0.2066722 0.205941 0.2051229 0.2042168
 0.2032233 0.202135 0.2009448 0.1996588 0.1982956 0.1968708 0.1953842 0.193827 0.1921984 0.1905023
 0.1887273 0.1868478 0.1848638 0.1828317 0.1808394 0.1789552 0.1772057 0.1755877 0.1740856 0.1726824
 0.1713649 0.1701161 0.168912 0.1677403 0.1666132 0.165549 0.1645496 0.1636082 0.1627268 0.1619199
 0.1612072 0.1606004 0.1600884 0.1596422 0.1592413 0.1588871 0.1585971 0.1584019 0.1583327 0.1583797
 0.1584719 0.1585197 0.1584742 0.1583426 0.1581679 0.1580022 0.1578816 0.1578153 0.1577898 0.1577648
 0.1576623 0.1573792 0.1568207 0.1559303 0.1547087 0.1532063 0.151493 0.1496468 0.1477829 0.1460515
 0.1445765 0.1434119 0.1425544 0.1419539 0.1415164 0.1411511 0.1408363 0.1406284 0.1406041 0.1407749
 0.1410304 0.1411985 0.1412091 0.1411815 0.1413196 0.1417451 0.1424302 0.1432381 0.1440164 0.1446801
 0.1452099 0.1455892 0.1458007 0.1458771 0.1458814 0.1458395 0.1457402 0.1455788 0.1453592 0.1450825
 0.1447497 0.1443494 0.1438551 0.1432635 0.1425974 0.1418612 0.1410424 0.1401424 0.1391431 0.1380012
 0.1367671 0.1356608 0.1349549 0.1348087 0.135211 0.136008 0.1369994 0.1380618 0.139119 0.1399755
 0.1403744 0.140375 0.1405464 0.141566 0.143578 0.1460302 0.1481642 0.1495809 0.1502929 0.1504102
 0.1499825 0.1490545 0.1476429 0.1456973 0.1432244 0.1403669 0.1372868 0.1341228 0.131079 0.1283683
 0.1260796 0.1242144 0.122765 0.1217782 0.1213981 0.1212591 0.1194477 0.1135017 0.1041942 0.09721649
 0.09837353 0.1070576 0.1166879 0.1216674 0.1218301 0.1201439 0.1186614 0.1176919 0.1171357 0.1171577
 0.1179057 0.1192264 0.1206986 0.1218957 0.1226507 0.1230172 0.1229625 0.1221166 0.1197274 0.1149479
 0.1075257 0.09836669 0.08921346 0.08164191 0.07636107 0.07323605 0.07164034 0.07082061 0.07026795 0.06995368
 0.0702014 0.07130443 0.07328442 0.0759749 0.07918428 0.08266134 0.08600402 0.08881614 0.09098837 0.09269338
 0.09408598 0.09512014 0.09566683 0.09570005 0.09533016 0.09471974 0.09400086 0.09322806 0.09235571 0.0912845
 0.09001803 0.08878315 0.08789396 0.08746472 0.08734256 0.087322 0.08731224 0.0873006 0.08728202 0.0872512
 0.08720398 0.08716355 0.08722356 0.08748992 0.08794497 0.08843042 0.08878387 0.08896083 0.08902736 0.08902789
 0.08885224 0.0883311 0.08753326 0.0867987 0.08630502 0.08576719 0.08481336 0.08355961 0.08256091 0.08221619
 0.08241081 0.08273277 0.08286458 0.08274172 0.08251116 0.08244553 0.08276527 0.08337824 0.08385873 0.08383556
</values></Ydata></ScRf><Data_Parameters_AB><parameter name="DPF">1</parameter><parameter name="NPT">3497</parameter><parameter name="FXV">3996</parameter><parameter name="LXV">500</parameter><parameter name="CSF">1</parameter><parameter name="MXY">0.646027207374573</parameter><parameter name="MNY">-0.0486045107245445</parameter><parameter name="DAT">27/05/2022</parameter><parameter name="TIM">11:16:00.753 (GMT+2)</parameter><parameter name="DXU">WN</parameter></Data_Parameters_AB><AB__Qtest><MainReport name="Quality Test Report"><Header><Line><Legend>Test result ok/not ok [1/0]: </Legend><Value>0</Value></Line><Line><Legend>Method file: </Legend><Value>C:\Users\Public\Documents\Bruker\OPUS_8.2.28\QT\IRBT_v3_default.QT</Value></Line></Header><Matrix><Line><Legend></Legend><Legend>min</Legend><Legend>max</Legend><Legend>measured</Legend></Line><Line><Value>Absorption (X-Range 1):</Value><Value>0.400000</Value><Value>2.000000</Value><Value>0.483943</Value></Line><Line><Value>Noise (X-Range 4):</Value><Value></Value><Value>0.000300</Value><Value>0.000143</Value></Line><Line><Value>Signal/Noise (X-Range 2):</Value><Value>200.000000</Value><Value></Value><Value>33.050436</Value></Line><Line><Value>Signal/Noise (X-Range 3):</Value><Value>40.000000</Value><Value></Value><Value>59.326293</Value></Line><Line><Value>Water vapour (X-Range 5):</Value><Value></Value><Value>0.000300</Value><Value>0.000116</Value></Line><Line><Value>Signal/Water (X-Range 2):</Value><Value>100.000000</Value><Value></Value><Value>40.789745</Value></Line><Line><Value>Signal/Water (X-Range 3):</Value><Value>20.000000</Value><Value></Value><Value>73.218531</Value></Line><Line><Value>Fringes (X-Range 6):</Value><Value></Value><Value>0.000100</Value><Value>0.000110</Value></Line></Matrix></MainReport></AB__Qtest><Data_Parameters_ScSm><parameter name="DPF">1</parameter><parameter name="NPT">1814</parameter><parameter name="FXV">3996.33169228125</parameter><parameter name="LXV">499.541461535156</parameter><parameter name="CSF">1</parameter><parameter name="MXY">0.237821042537689</parameter><parameter name="MNY">0.0233853459358215</parameter><parameter name="DAT">27/05/2022</parameter><parameter name="TIM">11:16:00.753 (GMT+2)</parameter><parameter name="DXU">WN</parameter></Data_Parameters_ScSm><Data_Parameters_ScRf><parameter name="DPF">1</parameter><parameter name="NPT">1820</parameter><parameter name="FXV">4004.04661832813</parameter><parameter name="LXV">495.683998511719</parameter><parameter name="CSF">1</parameter><parameter name="MXY">0.264087229967117</parameter><parameter name="MNY">0.0289222411811352</parameter><parameter name="DAT">27/05/2022</parameter><parameter name="TIM">11:15:34.905 (GMT+2)</parameter><parameter name="DXU">WN</parameter></Data_Parameters_ScRf><Optic_Parameters_Rf><parameter name="APR">0</parameter><parameter name="APT">Open</parameter><parameter name="BMS">KBr</parameter><parameter name="DTC">RT-DLaTGS_IR-Biotyper [Microplate reader]</parameter><parameter name="HPF">0</parameter><parameter name="LPF">10.0</parameter><parameter name="LPV">4000</parameter><parameter name="PGR">0</parameter><parameter name="RCH">Module port</parameter><parameter name="RDX">0</parameter><parameter name="SRC">MIR</parameter><parameter name="VEL">10.0</parameter><parameter name="SON">Off</parameter></Optic_Parameters_Rf><Acquisition_Parameters_Rf><parameter name="ADT">1</parameter><parameter name="AQM">DD</parameter><parameter name="CFE">0</parameter><parameter name="COR">0</parameter><parameter name="DEL">0</parameter><parameter name="DLY">0</parameter><parameter name="HFW">8000</parameter><parameter name="LFW">0</parameter><parameter name="NSR">32</parameter><parameter name="PLF">AB</parameter><parameter name="RES">6</parameter><parameter name="RGN">-1</parameter><parameter name="STR">0</parameter><parameter name="TCL">MakeCompatibleScalar (0, {WSV=1.000000, ARV=0});</parameter><parameter name="TDL">37</parameter><parameter name="RPO">0</parameter></Acquisition_Parameters_Rf><FT_-_Parameters_Rf><parameter name="APF">B3</parameter><parameter name="HFQ">500</parameter><parameter name="LFQ">4000</parameter><parameter name="NLI">0</parameter><parameter name="PHR">24</parameter><parameter name="PHZ">ML</parameter><parameter name="SPZ">NO</parameter><parameter name="ZFF">1</parameter></FT_-_Parameters_Rf><Optic_Parameters_><parameter name="APR">0</parameter><parameter name="APT">Open</parameter><parameter name="BMS">KBr</parameter><parameter name="CHN">Module port</parameter><parameter name="DTC">RT-DLaTGS_IR-Biotyper [Microplate reader]</parameter><parameter name="HPF">0</parameter><parameter name="LPF">10.0</parameter><parameter name="LPV">4000</parameter><parameter name="PGN">0</parameter><parameter name="RDX">0</parameter><parameter name="SRC">MIR</parameter><parameter name="VEL">10.0</parameter><parameter name="SON">Off</parameter></Optic_Parameters_><FT_-_Parameters_><parameter name="APF">B3</parameter><parameter name="HFQ">500</parameter><parameter name="LFQ">4000</parameter><parameter name="NLI">0</parameter><parameter name="PHR">24</parameter><parameter name="PHZ">ML</parameter><parameter name="SPZ">NO</parameter><parameter name="ZFF">1</parameter></FT_-_Parameters_><Acquisition_Parameters_><parameter name="ADT">1</parameter><parameter name="AQM">DD</parameter><parameter name="CFE">0</parameter><parameter name="COR">0</parameter><parameter name="DEL">0</parameter><parameter name="DLY">0</parameter><parameter name="HFW">8000</parameter><parameter name="LFW">0</parameter><parameter name="NSS">32</parameter><parameter name="PLF">AB</parameter><parameter name="RES">6</parameter><parameter name="SOT">0</parameter><parameter name="TCL">MakeCompatibleScalar (0, {WSV=1.000000, ARV=0});</parameter><parameter name="TDL">37</parameter><parameter name="SPO">0</parameter><parameter name="SGN">-1</parameter></Acquisition_Parameters_><Instrument_Parameters_Rf><parameter name="HFL">15800.168544</parameter><parameter name="LFL">0</parameter><parameter name="LWN">15800.168544</parameter><parameter name="ABP">32197</parameter><parameter name="SSP">1</parameter><parameter name="ARG">2</parameter><parameter name="ASG">2</parameter><parameter name="ASS">32</parameter><parameter name="GFW">16</parameter><parameter name="GBW">16</parameter><parameter name="BFW">0</parameter><parameter name="BBW">0</parameter><parameter name="PKA">7271</parameter><parameter name="PKL">4996</parameter><parameter name="PRA">7446</parameter><parameter name="PRL">5001</parameter><parameter name="P2A">1</parameter><parameter name="P2L">1</parameter><parameter name="P2R">1</parameter><parameter name="P2K">1</parameter><parameter name="DAQ">0</parameter><parameter name="AG2">1</parameter><parameter name="SSM">1</parameter><parameter name="RSN">24820</parameter><parameter name="CRR">0</parameter><parameter name="SRT">1653650134.906</parameter><parameter name="DUR">19.6349945068359</parameter><parameter name="TSC">27.1</parameter><parameter name="MVD">0.258895695209503</parameter><parameter name="AN1">0.225782078219174</parameter><parameter name="AN2">0</parameter><parameter name="VSN">2.485 Apr  4 2017</parameter><parameter name="SRN">0085</parameter><parameter name="CAM">0</parameter><parameter name="INS">IR-Biotyper</parameter><parameter name="FOC">69</parameter><parameter name="RDY">1</parameter><parameter name="ARS">32</parameter></Instrument_Parameters_Rf><Sample_Parameters_><parameter name="BLD"></parameter><parameter name="CNM">Admin</parameter><parameter name="CPY"></parameter><parameter name="DPM"></parameter><parameter name="EXP">IRBT_v3_32Scans.XPM</parameter><parameter name="LCT"></parameter><parameter name="SFM">Microplate, HTS-XT</parameter><parameter name="SNM">220527-1039(v.2)_GFG29M (D_4)_B2_260c84f3-f17c-4914-967a-b65080a4c499.0</parameter><parameter name="XPP">C:\Users\Public\Documents\Bruker\OPUS_8.2.28\XPM</parameter><parameter name="IST">OK</parameter><parameter name="CPG">1252</parameter><parameter name="UID">870fea78-404c-472b-ab63-ef1cdc6bfc00</parameter></Sample_Parameters_><Instrument_Parameters_><parameter name="HFL">15800.168544</parameter><parameter name="LFL">0</parameter><parameter name="LWN">15800.168544</parameter><parameter name="ABP">32197</parameter><parameter name="SSP">1</parameter><parameter name="ASG">4</parameter><parameter name="ARG">2</parameter><parameter name="ASS">32</parameter><parameter name="GFW">16</parameter><parameter name="GBW">16</parameter><parameter name="BFW">0</parameter><parameter name="BBW">0</parameter><parameter name="PKA">5830</parameter><parameter name="PKL">4988</parameter><parameter name="PRA">5997</parameter><parameter name="PRL">5002</parameter><parameter name="P2A">1</parameter><parameter name="P2L">1</parameter><parameter name="P2R">1</parameter><parameter name="P2K">1</parameter><parameter name="DAQ">0</parameter><parameter name="AG2">1</parameter><parameter name="SSM">1</parameter><parameter name="RSN">13036</parameter><parameter name="CRR">0</parameter><parameter name="SRT">1653650160.754</parameter><parameter name="DUR">19.635986328125</parameter><parameter name="TSC">27.1</parameter><parameter name="MVD">0.877258896827698</parameter><parameter name="AN1">0.225823409624948</parameter><parameter name="AN2">0</parameter><parameter name="VSN">2.485 Apr  4 2017</parameter><parameter name="SRN">0085</parameter><parameter name="CAM">0</parameter><parameter name="INS">IR-Biotyper</parameter><parameter name="FOC">69</parameter><parameter name="RDY">1</parameter></Instrument_Parameters_><History/></OPUSDataFile>
