<?xml version="1.0" encoding="UTF-8" ?>
<OPUSDataFile><AB><Ydata ylabel="Absorbance Units"><values byteorder="INTEL" format="FLOAT32" numvalues="3497"> -0.06450459 -0.06454625 -0.0645794 -0.06460522 -0.06460562 -0.06457971 -0.06452677 -0.0644486 -0.06436731 -0.06428544
 -0.06423011 -0.06419957 -0.06420367 -0.06423593 -0.06428653 -0.06434976 -0.06441128 -0.06447066 -0.06452114 -0.06456649
 -0.06460766 -0.0646473 -0.064688 -0.06472777 -0.06476731 -0.06480067 -0.06482654 -0.06484072 -0.06484179 -0.06483212
 -0.06481145 -0.06478718 -0.06475971 -0.06473426 -0.06471078 -0.06469005 -0.06467196 -0.06465593 -0.06464253 -0.06463361
 -0.06462923 -0.06463107 -0.06463744 -0.06464668 -0.06465654 -0.06466348 -0.0646674 -0.06466649 -0.06466319 -0.06465875
 -0.06465344 -0.06464854 -0.06463964 -0.06462537 -0.06460505 -0.06457668 -0.06455377 -0.0645368 -0.06454604 -0.06458268
 -0.06465069 -0.06474831 -0.06485245 -0.06496055 -0.06504349 -0.06510458 -0.06513914 -0.06515428 -0.06516574 -0.06517524
 -0.06519434 -0.06521738 -0.06524287 -0.06526411 -0.06527506 -0.06527232 -0.06525164 -0.06521482 -0.06516004 -0.06509618
 -0.06502349 -0.06495751 -0.06490002 -0.06486724 -0.0648609 -0.06489241 -0.06496254 -0.0650743 -0.06522646 -0.06540504
 -0.06560466 -0.06578695 -0.06594482 -0.06602809 -0.06604244 -0.06597038 -0.06583555 -0.06566805 -0.06548933 -0.06533763
 -0.06521891 -0.06515339 -0.06512982 -0.06515095 -0.06519259 -0.06524651 -0.06529523 -0.06533005 -0.06535742 -0.0653759
 -0.06540263 -0.06543994 -0.06548917 -0.06555062 -0.0656077 -0.06566023 -0.06570131 -0.06573371 -0.06577192 -0.06581739
 -0.06588549 -0.0659704 -0.06606735 -0.06616637 -0.0662473 -0.06630736 -0.06633366 -0.0663321 -0.06630357 -0.06625241
 -0.06617891 -0.06609463 -0.06599832 -0.06592356 -0.06587703 -0.06589133 -0.06597634 -0.06612653 -0.06634706 -0.0665685
 -0.06678762 -0.06687767 -0.06683857 -0.06664004 -0.06630469 -0.06596933 -0.06564002 -0.06541467 -0.06527761 -0.0652381
 -0.06528252 -0.0653953 -0.06555874 -0.0657518 -0.0659451 -0.06610908 -0.06622194 -0.06625572 -0.06623079 -0.0661426
 -0.0660378 -0.06592955 -0.06583813 -0.0657709 -0.06572092 -0.06568775 -0.06567042 -0.06566875 -0.06569272 -0.06574218
 -0.06581738 -0.06591553 -0.06601909 -0.06612489 -0.06621149 -0.06627809 -0.06631152 -0.06631338 -0.06627838 -0.06621423
 -0.06612463 -0.06602621 -0.06593277 -0.06585888 -0.06581813 -0.06581178 -0.0658457 -0.06590791 -0.0659985 -0.06609674
 -0.0662004 -0.06628604 -0.06635137 -0.06637588 -0.0663581 -0.06629029 -0.0661733 -0.0660202 -0.06583372 -0.06563777
 -0.06543497 -0.06524729 -0.06507726 -0.06494251 -0.06484337 -0.06479091 -0.06477711 -0.06479996 -0.06484236 -0.06489012
 -0.06492927 -0.06494466 -0.06494164 -0.06491567 -0.06488752 -0.06486207 -0.06485262 -0.06486378 -0.06489051 -0.0649331
 -0.06498251 -0.06503814 -0.06509752 -0.06516041 -0.06522376 -0.06528603 -0.06533479 -0.06536948 -0.06537951 -0.06536938
 -0.06534497 -0.06531132 -0.0652814 -0.06525388 -0.06523204 -0.06521446 -0.06519702 -0.06519213 -0.06520235 -0.0652499
 -0.06534684 -0.06549598 -0.06570736 -0.06594191 -0.06619827 -0.0664177 -0.06659316 -0.06669324 -0.06671543 -0.06664652
 -0.0664869 -0.06623846 -0.0659097 -0.06555828 -0.06519596 -0.06490304 -0.06467803 -0.06456274 -0.06453782 -0.06459483
 -0.06469832 -0.06479928 -0.06487953 -0.06489801 -0.06487919 -0.06482498 -0.06476203 -0.06470515 -0.06465475 -0.06461541
 -0.06457448 -0.06452953 -0.06447747 -0.06441676 -0.06435789 -0.06430137 -0.06425828 -0.064229 -0.06422076 -0.06423273
 -0.06426556 -0.06431314 -0.06435359 -0.06437661 -0.06433787 -0.06424673 -0.06409185 -0.06390598 -0.06372917 -0.06357429
 -0.06347387 -0.06340515 -0.06336814 -0.06332606 -0.06326163 -0.06316085 -0.06301112 -0.06283706 -0.0626395 -0.062451
 -0.06227689 -0.06212017 -0.06198203 -0.06182889 -0.06165928 -0.06144214 -0.06118296 -0.06090616 -0.06061982 -0.06037351
 -0.06016304 -0.06000275 -0.05988471 -0.059801 -0.05974609 -0.05971362 -0.05968888 -0.05966169 -0.05960651 -0.05950431
 -0.05934295 -0.0591101 -0.05881431 -0.05845562 -0.0580417 -0.05757204 -0.05706466 -0.05651958 -0.05597289 -0.05542705
 -0.05490424 -0.05440479 -0.05393057 -0.05348187 -0.05306236 -0.05267218 -0.05231647 -0.05198985 -0.05168164 -0.05138426
 -0.05107891 -0.05076101 -0.05042053 -0.05004546 -0.04962444 -0.04914116 -0.04857344 -0.04794612 -0.0472562 -0.04656027
 -0.04587734 -0.04522528 -0.04461278 -0.04402835 -0.04347125 -0.04293565 -0.04242094 -0.04193029 -0.04146409 -0.04103095
 -0.04063011 -0.04026487 -0.03992548 -0.03957831 -0.03920294 -0.03871788 -0.03813151 -0.03740434 -0.03659785 -0.03578141
 -0.03498453 -0.03427192 -0.03360672 -0.03298637 -0.03237039 -0.03173464 -0.03108149 -0.0304024 -0.02972911 -0.02906868
 -0.02842778 -0.02781099 -0.02718594 -0.02655096 -0.02587141 -0.02514727 -0.02438498 -0.02358957 -0.02280494 -0.02203076
 -0.02129131 -0.02057756 -0.01987506 -0.01918115 -0.01848163 -0.01778361 -0.0170923 -0.01640894 -0.01573824 -0.0150744
 -0.01441393 -0.01375701 -0.01310537 -0.01244959 -0.01179307 -0.01109806 -0.01035677 -0.009548723 -0.008664418 -0.007761104
 -0.006841042 -0.005987661 -0.005202698 -0.004503348 -0.003882988 -0.00329802 -0.002741885 -0.002161612 -0.001559294 -0.0009100646
 -0.0002273575 0.0004746634 0.00118569 0.001880403 0.002571249 0.003255557 0.00396246 0.004713505 0.005513754 0.006379508
 0.007271316 0.008182744 0.009074111 0.009934232 0.01075605 0.01153589 0.01228833 0.0130137 0.01373743 0.01446074
 0.01520577 0.01597121 0.01675695 0.01755969 0.01836393 0.0191699 0.0199703 0.02076698 0.02156234 0.02235178
 0.0231309 0.02389338 0.02462901 0.02534326 0.02603385 0.02671632 0.02739749 0.02808563 0.02878734 0.02949217
 0.0302004 0.03089393 0.0315691 0.03222864 0.03287164 0.03352729 0.03419688 0.03490431 0.03564686 0.03641336
 0.03719824 0.03796944 0.03872668 0.03945065 0.04014852 0.04082375 0.04148652 0.04215213 0.04282688 0.04352487
 0.04423936 0.04497381 0.04570817 0.04643467 0.04713821 0.04780982 0.04845604 0.04907436 0.04968747 0.05029763
 0.05092438 0.05156977 0.05223452 0.05291805 0.05360143 0.05428334 0.0549432 0.05558287 0.05619887 0.05679597
 0.05738622 0.05797275 0.0585684 0.05917146 0.05978723 0.06040635 0.06102324 0.06162613 0.06220214 0.06275726
 0.06328566 0.06381653 0.06435875 0.06492748 0.06553248 0.0661457 0.06676588 0.06735807 0.06791835 0.06845441
 0.06896745 0.0694943 0.07003495 0.07060669 0.0712036 0.07180855 0.07241424 0.07298955 0.07353325 0.07402471
 0.07447509 0.07488818 0.07528278 0.07568011 0.07608665 0.07651662 0.07695772 0.07740788 0.07785613 0.07829642
 0.07873353 0.07916676 0.07960568 0.08005183 0.08050771 0.08097389 0.08144543 0.08192199 0.08239368 0.08286067
 0.08331873 0.08377083 0.08422891 0.08469508 0.08518464 0.08569129 0.08621136 0.08673409 0.08724184 0.08773064
 0.08818913 0.08862048 0.08902367 0.08940157 0.08975494 0.09008699 0.09039767 0.09069493 0.09097941 0.09126262
 0.09154561 0.09184122 0.09215044 0.09248438 0.09284341 0.09323031 0.09364387 0.09407511 0.09452119 0.09496504
 0.09540275 0.09581348 0.09619574 0.09653346 0.09683531 0.09710244 0.09735538 0.09761335 0.09789491 0.09822235
 0.09859096 0.09901113 0.09944649 0.09989163 0.1003003 0.1006596 0.1009556 0.1011809 0.1013699 0.1015242
 0.101682 0.101844 0.1019997 0.102146 0.1022456 0.1023033 0.1023184 0.1023055 0.1023098 0.1023393
 0.1024371 0.1025919 0.1028106 0.1030672 0.1033402 0.1036058 0.1038371 0.1040371 0.1041925 0.1043426
 0.1044953 0.10469 0.1049431 0.1052387 0.1055826 0.1059042 0.1061983 0.1064075 0.1065303 0.1065772
 0.1065538 0.1065166 0.1064667 0.1064405 0.1064302 0.1064278 0.1064328 0.1064345 0.1064502 0.1065024
 0.1065999 0.1067711 0.1069829 0.1072282 0.1074553 0.1076312 0.10775 0.1077928 0.1078125 0.1078159
 0.1078518 0.1079324 0.1080444 0.10819 0.108307 0.1083925 0.1083921 0.108308 0.1081376 0.1078921
 0.1076238 0.1073465 0.107132 0.1069824 0.1069424 0.1069934 0.1071332 0.1073277 0.1075438 0.1077514
 0.1079161 0.1080335 0.1080872 0.1081032 0.1080834 0.1080636 0.1080517 0.108071 0.1081254 0.1082315
 0.1083905 0.1086237 0.1089322 0.1093228 0.1097905 0.1102894 0.1108054 0.1112418 0.1115904 0.1117656
 0.1117888 0.1116527 0.1114107 0.111135 0.1108751 0.1107182 0.1106592 0.1107364 0.1108801 0.111074
 0.111234 0.1113261 0.111312 0.1111701 0.1109274 0.11058 0.1101953 0.109778 0.1093904 0.1090353
 0.108737 0.1084938 0.1082965 0.1081434 0.1080198 0.1079266 0.1078602 0.1078194 0.1078037 0.1078019
 0.1078029 0.1077802 0.1077062 0.1075507 0.107279 0.1068896 0.1063616 0.1057466 0.1050486 0.1043499
 0.1036686 0.103063 0.1025472 0.1021256 0.101802 0.1015364 0.1013265 0.1011112 0.1008886 0.1006128
 0.1002908 0.09993248 0.09955177 0.09920342 0.09888552 0.0986295 0.0984051 0.09818195 0.09792984 0.09759678
 0.09719393 0.09670135 0.09617569 0.09563383 0.09514124 0.09472667 0.09441617 0.09422993 0.09412233 0.09409694
 0.09405056 0.09397517 0.09378328 0.09347086 0.09303897 0.09249493 0.0919204 0.09132271 0.09078665 0.09030636
 0.08991002 0.08958189 0.08930109 0.0890556 0.0888164 0.08858185 0.08833855 0.08809088 0.08783886 0.08758369
 0.08732717 0.0870652 0.08679659 0.08651904 0.08623101 0.08593633 0.0856351 0.08533283 0.08503024 0.0847277
 0.08442521 0.08411767 0.08380481 0.08348139 0.08314832 0.08280712 0.08246017 0.0821167 0.08177736 0.08144955
 0.08112909 0.08081351 0.08049672 0.08017042 0.07983324 0.07947971 0.07911651 0.07874386 0.0783742 0.07801169
 0.07766567 0.0773406 0.07703242 0.07674269 0.0764538 0.0761644 0.07586001 0.07553989 0.07520595 0.07485931
 0.07451373 0.07416986 0.07383929 0.07351998 0.07321253 0.07291149 0.07260533 0.07228883 0.07194677 0.07158241
 0.07118989 0.07078484 0.07037417 0.06997966 0.06961333 0.06929242 0.06902765 0.06881876 0.06867313 0.06855578
 0.06846721 0.06834079 0.06817077 0.06790356 0.06753626 0.06707837 0.06653557 0.06597883 0.06541567 0.06492788
 0.0645122 0.06420729 0.06399129 0.06383897 0.0637175 0.0635616 0.06335653 0.06305075 0.06267443 0.06222608
 0.06176082 0.06131069 0.0608976 0.06054428 0.06022063 0.05992348 0.05962621 0.05931878 0.05903031 0.05876045
 0.05856835 0.05845717 0.05844281 0.05851992 0.05862734 0.05875406 0.05880274 0.05877283 0.05860373 0.05831742
 0.05792934 0.05747323 0.05701259 0.05656194 0.05616908 0.0558138 0.05549741 0.05519462 0.05488595 0.05458028
 0.05427323 0.05399093 0.05374372 0.05352186 0.05332888 0.05312349 0.05290055 0.05265307 0.05238042 0.0521322
 0.05191059 0.05175958 0.0516727 0.05163514 0.0516368 0.05163164 0.05162042 0.05158011 0.05152071 0.05145026
 0.05137159 0.05129619 0.05120824 0.05110434 0.05095411 0.05074079 0.05044324 0.05004292 0.04956155 0.04899134
 0.04840749 0.04781703 0.04730505 0.04688299 0.04657198 0.04637393 0.04621838 0.04609925 0.04591413 0.04566575
 0.04531258 0.04487434 0.0443982 0.04390332 0.04346398 0.04307522 0.04276764 0.04251472 0.04229865 0.04209585
 0.04187953 0.04164471 0.04137858 0.0410938 0.04078913 0.0404895 0.04020025 0.03994255 0.03972419 0.03952979
 0.03936152 0.03916261 0.0389299 0.03862311 0.03824505 0.03782646 0.03737552 0.03696228 0.03658235 0.036262
 0.03598076 0.03570038 0.03541011 0.03506799 0.03469091 0.03427907 0.03385837 0.03345226 0.03306862 0.03271997
 0.03239994 0.03210706 0.03184321 0.03160641 0.03141114 0.03125993 0.03116057 0.03111604 0.03110509 0.03112691
 0.03112534 0.03109694 0.03097904 0.03077449 0.03046402 0.03006351 0.02961788 0.02914697 0.02872287 0.02835239
 0.0280826 0.02790276 0.02782121 0.02781801 0.0278823 0.02799114 0.02813134 0.02828031 0.02842729 0.02855664
 0.02866117 0.02873974 0.02878893 0.02882588 0.02884991 0.02890118 0.02898179 0.02914813 0.02940198 0.02978223
 0.03028257 0.03088618 0.03157828 0.03229463 0.03302587 0.0337134 0.0343641 0.03496137 0.03551994 0.03605218
 0.03656508 0.03706898 0.03756488 0.03805352 0.03854401 0.03903828 0.03955042 0.04008777 0.04064137 0.04121593
 0.04176397 0.04228266 0.04271531 0.0430581 0.04329457 0.04342707 0.04349173 0.04349293 0.04347811 0.04344586
 0.04341511 0.04338393 0.04335259 0.04333087 0.04333372 0.04337476 0.0434815 0.04364544 0.0438757 0.04413894
 0.0444188 0.04469164 0.0449395 0.04517325 0.04539026 0.04561417 0.04585017 0.04610284 0.04637443 0.04665045
 0.04693029 0.04719412 0.04744031 0.04764166 0.0477958 0.04787136 0.04787096 0.04778374 0.04762276 0.04741379
 0.04717149 0.04693733 0.04670738 0.04650273 0.04628685 0.04604644 0.04571943 0.04527084 0.04464536 0.04380682
 0.04275377 0.04146573 0.04002228 0.03842386 0.03680584 0.03518065 0.03366738 0.03227475 0.03104289 0.02996968
 0.02901879 0.02818507 0.02741537 0.02671092 0.02604903 0.02543237 0.02485966 0.02432452 0.02381672 0.02332644
 0.0228344 0.02234454 0.02184975 0.02136853 0.02090975 0.02048631 0.02010766 0.01977016 0.01947528 0.01921463
 0.01898606 0.01879005 0.01862554 0.01850428 0.01842683 0.01840993 0.01845344 0.01855853 0.01871868 0.01889315
 0.01906879 0.01917055 0.01919309 0.01907827 0.01884305 0.01848546 0.01803743 0.01753673 0.01700875 0.01648889
 0.01598652 0.01551702 0.01508086 0.01468103 0.01431822 0.01399206 0.01370835 0.01346725 0.01327953 0.01314747
 0.01306837 0.01304327 0.01301935 0.01299042 0.01284204 0.01256674 0.01204893 0.01130146 0.01030189 0.009093531
 0.007772387 0.006385359 0.005066559 0.00382476 0.002734164 0.001758709 0.0008952509 0.0001008204 -0.0006545041 -0.001385074
 -0.002106471 -0.002809887 -0.003496036 -0.004154851 -0.004784358 -0.005379771 -0.005940219 -0.00646404 -0.00695091 -0.007406965
 -0.007832931 -0.008242827 -0.008637333 -0.009028571 -0.009415446 -0.009800946 -0.01018159 -0.01055044 -0.01090303 -0.0112268
 -0.01152248 -0.01178175 -0.01201911 -0.01224096 -0.01246988 -0.01272334 -0.0130076 -0.01333543 -0.01368093 -0.01404305
 -0.01438146 -0.01468734 -0.01494294 -0.01514264 -0.01530786 -0.01543918 -0.01557521 -0.01571711 -0.01588416 -0.01607371
 -0.01627447 -0.01648446 -0.01668723 -0.01688809 -0.01709222 -0.01730694 -0.01755125 -0.01782092 -0.01812211 -0.01843764
 -0.01875531 -0.01905948 -0.01933596 -0.01958088 -0.01978783 -0.01996315 -0.02010509 -0.02023111 -0.0203419 -0.0204659
 -0.02060641 -0.02078441 -0.02100214 -0.02125016 -0.021527 -0.02180093 -0.02207085 -0.02231329 -0.02253056 -0.02271999
 -0.0228841 -0.02302796 -0.02315368 -0.02326581 -0.02336994 -0.02347431 -0.02358509 -0.02371278 -0.02385363 -0.02401125
 -0.02417065 -0.02432618 -0.02446794 -0.02458915 -0.02469952 -0.02479803 -0.02490571 -0.02502532 -0.02516708 -0.02533232
 -0.02551129 -0.02570319 -0.02589054 -0.02607327 -0.02624228 -0.02639928 -0.02654648 -0.02668577 -0.02682379 -0.0269606
 -0.02710043 -0.02723985 -0.02737674 -0.02750635 -0.02762216 -0.02772612 -0.02781428 -0.02790121 -0.02799061 -0.0280998
 -0.0282362 -0.02840177 -0.02860036 -0.02881521 -0.02904541 -0.0292713 -0.02949129 -0.02969721 -0.02988904 -0.03006939
 -0.03023862 -0.03040049 -0.03055494 -0.0307031 -0.03084587 -0.03098566 -0.03112487 -0.0312693 -0.03142048 -0.03158379
 -0.03175683 -0.03194043 -0.03212847 -0.03231791 -0.0325023 -0.03267773 -0.03284212 -0.03299299 -0.03313545 -0.03326935
 -0.03340401 -0.03354073 -0.03368424 -0.03383522 -0.03398865 -0.0341441 -0.03429173 -0.03443124 -0.03455574 -0.03466577
 -0.03475929 -0.03483838 -0.03490654 -0.03496857 -0.03503458 -0.03510991 -0.03520677 -0.03532536 -0.03547197 -0.03563925
 -0.03582569 -0.03602045 -0.03621884 -0.03641225 -0.0365966 -0.0367703 -0.0369315 -0.03708636 -0.03723505 -0.03738639
 -0.03754119 -0.03770084 -0.03786511 -0.03802684 -0.03818566 -0.03833455 -0.03847485 -0.03860835 -0.03873756 -0.03887122
 -0.03900959 -0.03915896 -0.03931419 -0.03947204 -0.03962479 -0.03976288 -0.03988513 -0.03998539 -0.04007376 -0.0401522
 -0.04023287 -0.04032065 -0.0404188 -0.04052968 -0.04064784 -0.04077304 -0.04089941 -0.04102642 -0.04115211 -0.04127648
 -0.04140108 -0.04152614 -0.04165453 -0.04178606 -0.04192153 -0.04206021 -0.04220008 -0.04234143 -0.04248341 -0.04262767
 -0.04277663 -0.04292999 -0.04308925 -0.04325087 -0.04341308 -0.04357293 -0.04372803 -0.04387943 -0.04402683 -0.04417209
 -0.0443158 -0.04445732 -0.04459667 -0.04473296 -0.04486603 -0.04499769 -0.04512807 -0.04525971 -0.04539235 -0.04552488
 -0.04565657 -0.04578325 -0.04590492 -0.04601874 -0.04612665 -0.04623078 -0.04633378 -0.04644045 -0.04655161 -0.04667054
 -0.04679476 -0.04692412 -0.04705475 -0.04718468 -0.04731219 -0.04743598 -0.04755739 -0.04767637 -0.04779496 -0.04791369
 -0.04803131 -0.04814791 -0.04825847 -0.04836278 -0.0484566 -0.04854023 -0.04861406 -0.04867935 -0.04874196 -0.04880367
 -0.04887294 -0.04895056 -0.0490433 -0.049148 -0.04926457 -0.04938569 -0.04950422 -0.04961509 -0.04971094 -0.04979598
 -0.04986889 -0.04993987 -0.05001217 -0.05009105 -0.05017903 -0.05027261 -0.05037184 -0.05047147 -0.05057101 -0.05066893
 -0.05076518 -0.05086007 -0.05095349 -0.05104449 -0.0511329 -0.0512173 -0.05129786 -0.05137409 -0.05144676 -0.05151682
 -0.05158585 -0.05165603 -0.05172981 -0.05181044 -0.05189911 -0.05199843 -0.05210572 -0.05222136 -0.05233916 -0.05245745
 -0.05257097 -0.05267784 -0.05277822 -0.05287137 -0.05296314 -0.05305389 -0.05314878 -0.05324793 -0.05334964 -0.05345343
 -0.05355364 -0.05365087 -0.05374463 -0.05383702 -0.05393474 -0.05403831 -0.0541531 -0.05427594 -0.05440484 -0.05453623
 -0.0546653 -0.05479158 -0.05491294 -0.05503095 -0.05514581 -0.05525903 -0.0553708 -0.05548376 -0.05559823 -0.05571776
 -0.05584312 -0.05597433 -0.05611176 -0.05624863 -0.05638456 -0.05651071 -0.05662728 -0.05673222 -0.05682691 -0.05691707
 -0.05700371 -0.05709336 -0.05718534 -0.05728134 -0.05738031 -0.05748123 -0.05758392 -0.05768808 -0.05779297 -0.0578984
 -0.05800235 -0.05810377 -0.05820145 -0.05829438 -0.05838381 -0.05846966 -0.058554 -0.05863688 -0.05872168 -0.05880852
 -0.05890318 -0.05900588 -0.05911975 -0.05924408 -0.05937315 -0.05950564 -0.0596314 -0.0597508 -0.05985924 -0.0599589
 -0.06005247 -0.06014103 -0.06022785 -0.06031171 -0.06039241 -0.06046923 -0.06054072 -0.06060962 -0.06067612 -0.06074547
 -0.06081954 -0.06090137 -0.06099273 -0.06109024 -0.0611942 -0.0612968 -0.06139739 -0.06149041 -0.06157567 -0.06165454
 -0.06172752 -0.0618005 -0.06187358 -0.06195074 -0.06203096 -0.06211295 -0.06219615 -0.0622777 -0.06236004 -0.06244501
 -0.06253645 -0.0626404 -0.06275482 -0.06288265 -0.06301259 -0.06314065 -0.06325548 -0.06335091 -0.06342769 -0.06348314
 -0.06353047 -0.06357072 -0.06361805 -0.06367406 -0.06374306 -0.06382519 -0.06391331 -0.06400666 -0.06409436 -0.06417665
 -0.06424844 -0.06431171 -0.06436993 -0.06442509 -0.06448343 -0.06454518 -0.06461391 -0.06468771 -0.06476656 -0.06484678
 -0.06492623 -0.06500081 -0.06506749 -0.06512591 -0.0651743 -0.06521791 -0.06525712 -0.06529893 -0.06534451 -0.06539743
 -0.06545828 -0.06552602 -0.0656006 -0.06567921 -0.06576189 -0.06584771 -0.06593763 -0.0660357 -0.06614387 -0.0662704
 -0.0664169 -0.06659134 -0.06679334 -0.06702615 -0.06728772 -0.06757673 -0.06789274 -0.0682332 -0.06860432 -0.06900636
 -0.06945257 -0.06994679 -0.0705012 -0.07112025 -0.07180522 -0.07255887 -0.07336415 -0.07422129 -0.07509342 -0.07597832
 -0.07682027 -0.07761423 -0.07828953 -0.07883766 -0.07917598 -0.07929888 -0.07913451 -0.07870454 -0.07800186 -0.07709984
 -0.07609798 -0.07507938 -0.07417841 -0.07341575 -0.0728545 -0.07246961 -0.07226506 -0.07221251 -0.07230615 -0.07251307
 -0.07283191 -0.07319945 -0.07361039 -0.07398459 -0.07431295 -0.07456806 -0.07474849 -0.07487641 -0.07495289 -0.07499558
 -0.07500468 -0.07499095 -0.074953 -0.07489359 -0.07480749 -0.07468237 -0.07451938 -0.07431089 -0.07407082 -0.0738109
 -0.07354313 -0.07328218 -0.0730274 -0.07278241 -0.07254362 -0.07230954 -0.07208201 -0.07186078 -0.07164996 -0.07144993
 -0.071265 -0.07109541 -0.07094736 -0.0708212 -0.07072034 -0.0706441 -0.07058606 -0.0705443 -0.07050452 -0.07046583
 -0.07041664 -0.07035962 -0.07029437 -0.07022554 -0.07016077 -0.07010189 -0.07005534 -0.07001672 -0.06998537 -0.06995534
 -0.06992262 -0.06988651 -0.06984498 -0.0698028 -0.06976043 -0.06972311 -0.06969172 -0.06966913 -0.06965579 -0.06965218
 -0.06965836 -0.06967327 -0.0696969 -0.06972878 -0.06976894 -0.06981771 -0.06987411 -0.06993561 -0.06999974 -0.07005959
 -0.07011338 -0.07015445 -0.07018446 -0.07020186 -0.07021112 -0.07021467 -0.07021746 -0.07022261 -0.07023334 -0.0702518
 -0.07027808 -0.0703131 -0.07035337 -0.07039889 -0.07044365 -0.07048728 -0.07052282 -0.07054989 -0.07056414 -0.07056583
 -0.07055687 -0.07053848 -0.07051861 -0.07049819 -0.07048501 -0.07047818 -0.07047988 -0.07048785 -0.07049959 -0.07051295
 -0.07052433 -0.07053328 -0.07053794 -0.0705399 -0.07053949 -0.0705382 -0.07053699 -0.07053512 -0.07053251 -0.07052862
 -0.07052273 -0.07051958 -0.07051932 -0.07052976 -0.07055134 -0.07058507 -0.07063014 -0.07067626 -0.07072214 -0.07075419
 -0.07077339 -0.07077517 -0.07076325 -0.07074372 -0.07072044 -0.0707029 -0.07069165 -0.07069178 -0.07069995 -0.07071563
 -0.07073434 -0.07075349 -0.07077031 -0.07078258 -0.07079171 -0.07079714 -0.07080333 -0.07081103 -0.07082249 -0.07083837
 -0.07085443 -0.07087045 -0.07088047 -0.07088463 -0.07088377 -0.07087898 -0.07087768 -0.07088018 -0.0708921 -0.07091195
 -0.07093904 -0.07097165 -0.07100645 -0.07104278 -0.07107855 -0.07111374 -0.07114771 -0.07118041 -0.07121171 -0.07124143
 -0.07126967 -0.07129544 -0.07131874 -0.0713377 -0.07135202 -0.07136042 -0.07136267 -0.07135937 -0.07135054 -0.07133944
 -0.07132634 -0.07131531 -0.07130643 -0.07130225 -0.07130246 -0.07130726 -0.07131635 -0.07132913 -0.07134525 -0.0713643
 -0.07138497 -0.0714057 -0.07142527 -0.07144146 -0.07145612 -0.0714689 -0.07148438 -0.07150462 -0.07153068 -0.07156435
 -0.07159913 -0.07163466 -0.07166227 -0.07168071 -0.071689 -0.07168698 -0.07168217 -0.07167501 -0.07167321 -0.07167642
 -0.07168625 -0.07170213 -0.07172284 -0.0717479 -0.07177597 -0.07180589 -0.07183523 -0.07186271 -0.07188497 -0.07190398
 -0.07191923 -0.07193588 -0.07195715 -0.07198454 -0.07202068 -0.07205986 -0.07210153 -0.07213903 -0.07217077 -0.07219577
 -0.07221346 -0.07222765 -0.07223853 -0.07224938 -0.07226022 -0.07227212 -0.07228505 -0.07229941 -0.07231534 -0.07233342
 -0.07235386 -0.07237764 -0.0724045 -0.07243454 -0.07246723 -0.07250194 -0.07253835 -0.07257604 -0.07261463 -0.0726541
 -0.07269315 -0.07273144 -0.07276753 -0.07280087 -0.07283118 -0.07285815 -0.07288305 -0.07290591 -0.07292832 -0.07295039
 -0.072973 -0.07299614 -0.07301938 -0.07304279 -0.0730664 -0.07309086 -0.0731188 -0.07315051 -0.0731888 -0.0732317
 -0.07327759 -0.07332334 -0.07336401 -0.07339935 -0.07342655 -0.07344929 -0.07346871 -0.07348841 -0.07351033 -0.0735352
 -0.07356365 -0.07359517 -0.07362969 -0.07366722 -0.07370768 -0.0737522 -0.07380087 -0.07385485 -0.07391399 -0.07397643
 -0.07404131 -0.07410204 -0.07415798 -0.07420251 -0.07423709 -0.07426136 -0.07427864 -0.07429447 -0.07431155 -0.07433578
 -0.07436702 -0.0744077 -0.07445496 -0.07450812 -0.07456374 -0.07462016 -0.0746758 -0.07472982 -0.07478192 -0.0748319
 -0.07487991 -0.07492593 -0.07497033 -0.07501315 -0.07505526 -0.07509668 -0.07513722 -0.07517674 -0.07521396 -0.07524925
 -0.0752833 -0.07531672 -0.0753519 -0.07538821 -0.07542617 -0.07546355 -0.07549749 -0.07552735 -0.07555037 -0.07557062
 -0.07558878 -0.07561145 -0.0756417 -0.07568259 -0.07573678 -0.07579879 -0.075869 -0.07593584 -0.07599804 -0.0760478
 -0.07608441 -0.07611115 -0.07612856 -0.07614689 -0.07616629 -0.07619339 -0.07622679 -0.07626454 -0.07630496 -0.07634225
 -0.07637679 -0.07640585 -0.07643225 -0.07645841 -0.07648659 -0.07652029 -0.07655828 -0.07660168 -0.07664603 -0.07669008
 -0.07672933 -0.07676212 -0.07678681 -0.07680224 -0.07681201 -0.07681603 -0.07682168 -0.07682943 -0.07684387 -0.07686479
 -0.07688878 -0.07691505 -0.07693639 -0.07695287 -0.07696064 -0.07696119 -0.0769562 -0.07694779 -0.07694025 -0.07693575
 -0.07693909 -0.0769503 -0.07697225 -0.07700019 -0.07703333 -0.07706352 -0.07708713 -0.07709951 -0.07709733 -0.07708543
 -0.07706313 -0.07704198 -0.07702317 -0.07701557 -0.07701999 -0.07703564 -0.07706209 -0.07709077 -0.07712126 -0.07714637
 -0.07716662 -0.07718025 -0.0771879 -0.07719033 -0.07718813 -0.07718223 -0.07717422 -0.07716624 -0.07716012 -0.07715882
 -0.07716125 -0.07716843 -0.07717612 -0.07718293 -0.07718533 -0.07718133 -0.07717298 -0.07715964 -0.0771483 -0.07713959
 -0.07713982 -0.07714961 -0.07716756 -0.07719325 -0.07721809 -0.0772417 -0.07725711 -0.07726525 -0.07726609 -0.07726114
 -0.07725449 -0.07724699 -0.07724246 -0.0772403 -0.07724203 -0.07724468 -0.07724648 -0.07724392 -0.07723354 -0.07721631
 -0.077191 -0.07716264 -0.07713252 -0.07710362 -0.07707705 -0.07705197 -0.07702848 -0.07700489 -0.07698108 -0.07695612
 -0.07693002 -0.07690271 -0.07687442 -0.07684693 -0.07682059 -0.0767979 -0.07677874 -0.07676403 -0.07675352 -0.07674727
 -0.07674468 -0.07674591 -0.07674773 -0.07674818 -0.07674209 -0.07672521 -0.0766964 -0.07665276 -0.07660035 -0.07653982
 -0.07647855 -0.07641818 -0.0763623 -0.07631167 -0.07626636 -0.07622644 -0.0761913 -0.076161 -0.07613713 -0.07612001
 -0.07611369 -0.0761174 -0.07613145 -0.07615204 -0.07616975 -0.07617959 -0.07616615 -0.07613096 -0.076067 -0.07598525
 -0.07589243 -0.07579952 -0.07571656 -0.07564522 -0.07559016 -0.07554397 -0.07550613 -0.07546706 -0.07542438 -0.07537499
 -0.07531755 -0.07525817 -0.07519703 -0.07514408 -0.07509968 -0.07507027 -0.07505473 -0.07504827 -0.07504751 -0.07503486
 -0.07500885 -0.07495354 -0.07487582 -0.07478022 -0.07467604 -0.0745791 -0.07449055 -0.07441764 -0.07435707 -0.0743086
 -0.07426991 -0.07424101 -0.07421608 -0.07419505 -0.07416537 -0.0741247 -0.07406368 -0.07398012 -0.07387658 -0.07375288
 -0.07361824 -0.07347316 -0.07332647 -0.0731786 -0.07303711 -0.07290186 -0.07277656 -0.07266042 -0.07255296 -0.07245415
 -0.07236426 -0.072282 -0.07220732 -0.07213467 -0.07205892 -0.07197599 -0.07187963 -0.0717759 -0.07166503 -0.07155626
 -0.07145377 -0.07135645 -0.071266 -0.07117176 -0.07107241 -0.07096206 -0.07083985 -0.07071192 -0.0705785 -0.07044533
 -0.07031099 -0.07016637 -0.07000932 -0.06982299 -0.06961153 -0.06937654 -0.06912675 -0.06888228 -0.0686429 -0.06841909
 -0.06820094 -0.06798186 -0.06775698 -0.06751804 -0.06727444 -0.06702725 -0.06678896 -0.06656533 -0.06635555 -0.06616291
 -0.06596884 -0.06577299 -0.0655445 -0.06528065 -0.06496964 -0.06461222 -0.06424092 -0.06385813 -0.06350043 -0.06316393
 -0.06285062 -0.06255436 -0.06225777 -0.06195873 -0.06164448 -0.06131645 -0.0609704 -0.06061119 -0.06024051 -0.05986694
 -0.05949837 -0.05913399 -0.05878057 -0.0584141 -0.05802986 -0.05760344 -0.05712497 -0.0566076 -0.05605049 -0.05547998
 -0.05489868 -0.05430572 -0.05370103 -0.05307897 -0.05244098 -0.05180006 -0.05115432 -0.05050606 -0.04984343 -0.04913142
 -0.04836356 -0.04750092 -0.04656744 -0.04557642 -0.0445599 -0.04355994 -0.04257596 -0.04162183 -0.04068439 -0.03975769
 -0.0388449 -0.03794567 -0.03706532 -0.03621137 -0.03534635 -0.03447293 -0.03349414 -0.03240168 -0.03114516 -0.02972658
 -0.02827288 -0.02679252 -0.02542413 -0.02414889 -0.02294981 -0.02180448 -0.02063468 -0.0194365 -0.01816614 -0.01682465
 -0.01540456 -0.01388139 -0.01224214 -0.01042557 -0.008385593 -0.006086541 -0.003471088 -0.0006467739 0.00238851 0.005429057
 0.008428295 0.0112774 0.01394892 0.01645545 0.01879323 0.02103365 0.02318242 0.02538069 0.02764265 0.03017636
 0.03295987 0.03603267 0.0392923 0.04242322 0.04540734 0.0480197 0.05038015 0.05257023 0.05467762 0.05683472
 0.05903711 0.06132616 0.06366308 0.06603631 0.06842984 0.07084414 0.07323215 0.07558938 0.07784703 0.07998911
 0.0820329 0.0839773 0.08587346 0.08772167 0.08947047 0.09111368 0.09256131 0.09382869 0.09493801 0.09592091
 0.09689707 0.09786054 0.09887622 0.09987491 0.1007704 0.1015495 0.1021486 0.1026319 0.1030333 0.1033715
 0.1036742 0.1039036 0.1040528 0.1040934 0.1040168 0.1038153 0.1034871 0.1030239 0.1024234 0.1017056
 0.1008727 0.09999666 0.09907903 0.09816479 0.0972461 0.09630506 0.09533863 0.09432205 0.09327088 0.09219977
 0.09113879 0.09014054 0.08921739 0.08840734 0.08769251 0.08707064 0.08652952 0.08605845 0.08566808 0.0853616
 0.0851392 0.08500542 0.08493376 0.08492097 0.08494928 0.08501603 0.08512951 0.08529022 0.08551477 0.08580304
 0.086161 0.08658601 0.08706868 0.08760503 0.0881777 0.08878452 0.08941151 0.09006127 0.09073094 0.09142565
 0.09214965 0.0929066 0.09370079 0.09453253 0.09540331 0.09631161 0.09725673 0.09824 0.09926194 0.1003223
 0.1014234 0.1025442 0.103684 0.104807 0.1059116 0.1069908 0.1080471 0.1091103 0.1101738 0.1112267
 0.1122475 0.1131541 0.1139484 0.1145863 0.1150997 0.1155213 0.1158658 0.1161674 0.1164092 0.1165912
 0.1166918 0.1167043 0.1165988 0.1163714 0.1159654 0.1153602 0.1145617 0.1135526 0.1124905 0.1113898
 0.1103192 0.1092806 0.1081824 0.1070211 0.1057269 0.1043075 0.1027676 0.1011153 0.09938742 0.09756746
 0.09565061 0.0935851 0.09127437 0.08873019 0.0858718 0.08290406 0.0799581 0.07715264 0.07462747 0.07224178
 0.06997555 0.06771668 0.06541878 0.06312428 0.0608288 0.05861634 0.0564972 0.05446689 0.05252483 0.05060432
 0.04870458 0.04679204 0.04487548 0.04298453 0.04112694 0.03934811 0.03763977 0.03600931 0.03443771 0.03289915
 0.03138002 0.02985835 0.02832101 0.02675903 0.02514007 0.02344318 0.0216564 0.01974038 0.01783966 0.01596699
 0.01431721 0.01294213 0.01177456 0.01081936 0.009899014 0.009005151 0.008061799 0.007074621 0.006083883 0.005097178
 0.004180684 0.00332551 0.002534692 0.001800881 0.001100777 0.0004529811 -0.0001279826 -0.0006140317 -0.0009639444 -0.001178044
 -0.001238544 -0.00116933 -0.0009777334 -0.0006829798 -0.0002939933 0.0001810874 0.0007349328 0.001386242 0.002130622 0.003037978
 0.00411445 0.005415211 0.006942052 0.008571179 0.01028721 0.01186247 0.01330328 0.01452523 0.01555262 0.01642615
 0.01715516 0.0177786 0.01830089 0.01873445 0.01911274 0.01946434 0.01985184 0.0203407 0.02093553 0.02168197
 0.0224658 0.02325376 0.02397578 0.02459536 0.02516153 0.02567385 0.02620076 0.02675005 0.02734284 0.02798032
 0.02863223 0.02929655 0.02993773 0.03055982 0.03116418 0.0317628 0.03239664 0.03307551 0.03384715 0.03470143
 0.03564544 0.03666158 0.03772704 0.038849 0.04002438 0.04126582 0.04258697 0.04396526 0.04540087 0.04685089
 0.04830124 0.04974624 0.05117807 0.05264118 0.05413977 0.05569909 0.0573203 0.05892153 0.06049353 0.06189516
 0.06312623 0.06411339 0.06486487 0.06537386 0.06563929 0.06565556 0.0654185 0.06491371 0.06415362 0.0631408
 0.06190392 0.06046426 0.05884567 0.05706709 0.05513692 0.05305946 0.05084847 0.04849866 0.04607195 0.04356944
 0.04110017 0.03867487 0.03636391 0.03417153 0.03208232 0.03009374 0.02816634 0.02630354 0.02450498 0.02277808
 0.02115213 0.01962395 0.01820407 0.01687804 0.01562749 0.01444054 0.01329597 0.0121903 0.01111385 0.01006776
 0.009050044 0.008063196 0.007107249 0.006186326 0.005301664 0.004454879 0.003647306 0.00287204 0.002128636 0.001409582
 0.0007144274 5.300084E-05 -0.0005728184 -0.001135116 -0.001632974 -0.002045296 -0.002375846 -0.002626151 -0.002801622 -0.002915281
 -0.002971624 -0.002982971 -0.002953597 -0.002892131 -0.002803453 -0.002691962 -0.002567442 -0.0024331 -0.002307203 -0.002195808
 -0.002116565 -0.002075675 -0.002078898 -0.002128676 -0.002221703 -0.00235788 -0.002534585 -0.002751666 -0.003008034 -0.003303287
 -0.003632779 -0.00399446 -0.004375272 -0.004770295 -0.00515602 -0.005526518 -0.005855064 -0.006140956 -0.006369242 -0.006546918
 -0.006675627 -0.006763623 -0.00681815 -0.006843864 -0.006844479 -0.006824683 -0.006785235 -0.006736652 -0.006680159 -0.006631324
 -0.006592412 -0.006576959 -0.006586777 -0.00662694 -0.006697866 -0.006795767 -0.006920282 -0.007065401 -0.007231175 -0.00741489
 -0.007617011 -0.007837778 -0.008077555 -0.008337521 -0.008617346 -0.008918049 -0.009236302 -0.00957019 -0.009912347 -0.01025709
 -0.01059681 -0.01092577 -0.01123995 -0.01153655 -0.01181421 -0.01207222 -0.01230951 -0.01252573 -0.01272077 -0.01289444
 -0.01304844 -0.01318284 -0.01330094 -0.0134031 -0.01349494 -0.0135767 -0.01365321 -0.01372355 -0.0137875 -0.01384274
 -0.0138837 -0.01390823 -0.01391027 -0.01388867 -0.01383906 -0.01376341 -0.01366065 -0.01353687 -0.01339472 -0.01324015
 -0.01307694 -0.01290433 -0.01272331 -0.01252929 -0.0123206 -0.01210162 -0.01187166 -0.01164724 -0.01142924 -0.01123422
 -0.01106233 -0.0109184 -0.01080084 -0.01070229 -0.01062089 -0.01054547 -0.01047583 -0.01040503 -0.01033574 -0.01026858
 -0.01020837 -0.01016073 -0.01013005 -0.01012222 -0.01013792 -0.01017973 -0.01024484 -0.01033246 -0.0104415 -0.01057092
 -0.01072363 -0.01090016 -0.01110132 -0.01132778 -0.01157273 -0.01183585 -0.01210825 -0.01238968 -0.01267576 -0.01296636
 -0.0132589 -0.01355239 -0.01384155 -0.01412563 -0.01439986 -0.01466479 -0.01491966 -0.01516404 -0.01539817 -0.01561855
 -0.01582307 -0.01600695 -0.01616673 -0.01630021 -0.01640511 -0.01648338 -0.01653443 -0.0165637 -0.01657138 -0.01656607
 -0.01654824 -0.01652947 -0.01651044 -0.01650311 -0.01650765 -0.01652837 -0.0165638 -0.01660633 -0.01665433 -0.01669698
 -0.0167349 -0.01676411 -0.01678615 -0.01680286 -0.01681275 -0.01681612 -0.0168074 -0.01678375 -0.01673565 -0.01665853
 -0.01654022 -0.0163755 -0.01615441 -0.01587279 -0.01552822 -0.01511901 -0.01464947 -0.01411972 -0.01353548 -0.01289713
 -0.01220883 -0.01147087 -0.01068725 -0.009859103 -0.008995118 -0.008098315 -0.007184963 -0.006257715 -0.005332521 -0.004408029
 -0.003488885 -0.002573578 -0.001659084 -0.0007534413 0.000140445 0.001006782 0.001835257 0.002617036 0.003344138 0.004022013
 0.004649273 0.005238616 0.005791557 0.006320503 0.006826743 0.007320678 0.007802973 0.008283922 0.008764317 0.00925778
 0.009765699 0.0103046 0.01087493 0.01148781 0.01214185 0.01283926 0.01357819 0.01435719 0.01517267 0.01602116
 0.01689538 0.01778822 0.01869387 0.01960625 0.02052526 0.02145024 0.02237898 0.02331213 0.02424076 0.02516304
 0.02607511 0.0269757 0.02787078 0.02876068 0.02964954 0.03053732 0.03142262 0.03230583 0.03318942 0.03407377
 0.03496318 0.03585446 0.03674282 0.03762181 0.03847856 0.03930598 0.04008984 0.04082666 0.04150632 0.04213571
 0.04271325 0.04325593 0.04376979 0.04426851 0.04475691 0.04524284 0.04572692 0.04622411 0.04673529 0.04728094
 0.04786252 0.04849116 0.049167 0.04989182 0.05066477 0.05148283 0.05234177 0.05322522 0.05412399 0.05500684
 0.05586376 0.0566638 0.05739728 0.0580417 0.05858583 0.05901201 0.05931544 0.05948487 0.05953237 0.05945642
 0.05928369 0.05901768 0.05869532 0.05832061 0.05794042 0.05755942 0.05722165 0.05693062 0.05670635 0.0565487
 0.05645104 0.05641101 0.0564092 0.05644285 0.05649052 0.05655055 0.05660715 0.05666102 0.05670699 0.05674434
 0.05677179 0.05678376 0.05677518 0.05674119 0.05667689 0.05658177 0.05645534 0.05629428 0.05609814 0.05586154
 0.05558233 0.05526448 0.05490754 0.05452291 0.05411144 0.05367787 0.05322214 0.05274111 0.0522346 0.05169985
 0.05113699 0.0505446 0.04992379 0.04927566 0.04860393 0.04791576 0.04721471 0.04650958 0.04579832 0.04508384
 0.04435809 0.04361869 0.0428534 0.0420575 0.04121894 0.04033241 0.03939575 0.03840639 0.03737392 0.03629922
 0.03518904 0.03404405 0.03286264 0.031645 0.03039454 0.02911242 0.02780983 0.02648694 0.02514962 0.0237989
 0.02243795 0.02107408 0.01972155 0.01838882 0.01709479 0.01583834 0.01462657 0.01345136 0.01230947 0.01119534
 0.01010625 0.009037554 0.007988754 0.006950228 0.005920366 0.004890484 0.003858765 0.002826014 0.001791878 0.000766508
 -0.0002493773 -0.001241717 -0.002209367 -0.003137704 -0.004024787 -0.004854883 -0.005625623 -0.006321226 -0.00694307 -0.007483864
 -0.007952656 -0.00835736 -0.008708523 -0.009019768 -0.00929358 -0.009535233 -0.009745137 -0.009922396 -0.01007636 -0.01020888
 -0.01033027 -0.01044405 -0.01054803 -0.01064272 -0.01072125 -0.01078295 -0.01082963 -0.01086166 -0.01088846 -0.01091114
 -0.01094251 -0.0109838 -0.0110489 -0.01113481 -0.0112434 -0.01136376 -0.01147645 -0.01157129 -0.01162341 -0.01163701
 -0.01160354 -0.01154101 -0.01145755 -0.01136978 -0.01128868 -0.01121643 -0.01115801 -0.01110138 -0.0110455 -0.01097711
 -0.01089365 -0.01079469 -0.01067972 -0.01055817 -0.01043048 -0.01030385 -0.01017866 -0.01006041 -0.009950714 -0.0098603
 -0.009789538 -0.009746893 -0.009727445 -0.009726431 -0.009737197 -0.009747919 -0.009756809 -0.009757355 -0.009751873 -0.00974079
 -0.009723578 -0.009701781 -0.009667956 -0.009621713 -0.009549874 -0.009450014 -0.009311476 -0.00913197 -0.008911676 -0.00865014
 -0.008356228 -0.008030447 -0.007682342 -0.007312817 -0.006932694 -0.006544271 -0.00616345 -0.005792751 -0.00544834 -0.005129887
 -0.004845886 -0.004590936 -0.00436315 -0.004151918 -0.003946914 -0.003739454 -0.003517934 -0.003288491 -0.003048126 -0.002815519
 -0.002596954 -0.002399657 -0.002228993 -0.002068746 -0.001918168 -0.001757376 -0.001584349 -0.001397485 -0.00119702 -0.0009942421
 -0.0007895234 -0.0005909599 -0.0003976993 -0.0002101782 -2.715209E-05 0.0001544493 0.0003361734 0.0005222988 0.0007144276 0.0009166431
 0.001129547 0.001355376 0.001593459 0.00184428 0.002106137 0.002379108 0.002659006 0.002945727 0.003230561 0.003512088
 0.003781764 0.004037643 0.004280706 0.004510436 0.004739048 0.004967186 0.005207595 0.005460122 0.00572902 0.006012867
 0.006307884 0.006611614 0.006915184 0.007216116 0.007504238 0.007780887 0.008042125 0.008294467 0.008542724 0.008792297
 0.009049498 0.00931271 0.009583657 0.009856289 0.01012888 0.01039789 0.01066138 0.01092323 0.01118269 0.0114529
 0.01173473 0.01204082 0.01237139 0.01272141 0.01308883 0.01345192 0.01380995 0.01414672 0.01446583 0.01476953
 0.01506187 0.01535328 0.01564328 0.01593686 0.01622895 0.01651627 0.01679503 0.01705931 0.01731559 0.01756332
 0.01781665 0.01808091 0.01836094 0.01866024 0.01897 0.01928925 0.01961314 0.01994088 0.02027741 0.02062281
 0.02097636 0.02133692 0.02169328 0.02204449 0.02237986 0.02269976 0.02299891 0.02328009 0.02354423 0.02379975
 0.02405881 0.02432846 0.0246238 0.02493652 0.02526851 0.02560116 0.02592487 0.02623236 0.0265173 0.02678685
 0.02704087 0.02728922 0.02753295 0.02778121 0.02803485 0.02830006 0.02857694 0.02885899 0.02914491 0.02941901
 0.02968101 0.02992095 0.03014042 0.03033848 0.03051827 0.03068413 0.03084293 0.03100598 0.03117951 0.03137612
 0.03159204 0.0318306 0.03207996 0.0323357 0.03258791 0.03283233 0.03306385 0.03327945 0.03348394 0.03367602
 0.03387488 0.03408203 0.03431128 0.0345629 0.03482269 0.03508895 0.0353373 0.0355702 0.03578621 0.0359917
 0.03620617 0.03643354 0.03669317 0.03698182 0.03730706 0.03765305 0.03800929 0.03835433 0.03866585 0.03894508
 0.03918067 0.03940334 0.03962064 0.03985631 0.04011974 0.04040612 0.04071623 0.04104176 0.04138156 0.04174082
 0.04211971 0.04251912 0.04293777 0.04336292 0.04379266 0.04421062 0.04461596 0.04499698 0.04535502 0.04568683
 0.04599525 0.04628488 0.04655267 0.04679947 0.04701509 0.04719128 0.04732544 0.0474107 0.04746096 0.04747709
 0.04748057 0.04747492 0.04748268 0.04750731 0.04756542 0.04765959 0.0477839 0.04793799 0.04810374 0.04828224
 0.04847909 0.04869685 0.0489549 0.0492483 0.04957092 0.04991735 0.05027064 0.05063372 0.05100771 0.05138472
 0.0517609 0.05211755 0.05243215 0.05272017 0.05297158 0.0532495 0.05357919 0.05397635 0.05446325 0.05495214
 0.05543051 0.05585815 0.05622781 0.05656869 0.05688183 0.05717495 0.05744563 0.05766858 0.05784231 0.05794436
 0.0579788 0.0579445 0.05785209 0.0577219 0.05756797 0.05742325 0.05728796 0.05717844 0.0570789 0.05698023
 0.05687907 0.05676823 0.05666015 0.05655912 0.05646683 0.0563843 0.05631157 0.05624675 0.05620881 0.05619989
 0.05622502 0.05628411 0.05633477 0.05637364 0.05634718 0.05625729 0.05608469 0.05583775 0.05553007 0.05517718
 0.05481543 0.05446739 0.05418585 0.05397778 0.05387885 0.05386156 0.05392187 0.05401869 0.05413235 0.05422773
 0.05428742 0.05429645 0.05424051 0.0541605 0.05405584 0.05400169 0.05400711 0.05408433 0.05423396 0.05440366
 0.0545935 0.05478894 0.05499493 0.05523693 0.05550831 0.05579981 0.05610282 0.05638867 0.05666484 0.05693166
 0.05719409 0.05746135 0.05772462 0.05797759 0.05822223 0.05845516 0.05869011 0.05893443 0.05918252 0.05943747
 0.05967503 0.05989256 0.06006796 0.0601989 0.06027079 0.06028287 0.06024686 0.06016644 0.06009177 0.06002391
 0.05999821 0.06000501 0.06002552 0.06006012 0.0600936 0.06014721 0.06025376 0.06041326 0.0606514 0.06092202
 0.06120135 0.06144429 0.06161627 0.06171141 0.06171641 0.06165137 0.06151485 0.06134587 0.06114882 0.06096366
 0.06079676 0.06063864 0.06048892 0.06029777 0.06006555 0.05978036 0.05945118 0.05912496 0.05880697 0.05854406
 0.05832712 0.05816296 0.05802946 0.05789742 0.05774201 0.05751929 0.0572315 0.05685604 0.05643607 0.05598685
 0.0555464 0.05513762 0.05475402 0.05439882 0.05405764 0.05372672 0.05341328 0.05311834 0.05283808 0.05257232
 0.05229457 0.05200404 0.05168473 0.05133678 0.05095302 0.05053291 0.05006428 0.04956072 0.04903987 0.04853401
 0.0481056 0.04776929 0.04757623 0.04749562 0.04753074 0.04761719 0.04772973 0.04779351 0.04777443 0.04763345
 0.04734178 0.04695733 0.04647559 0.04602406 0.04561577 0.04532077 0.04514362</values></Ydata></AB><ScSm><Ydata ylabel="Single channel"><values byteorder="INTEL" format="FLOAT32" numvalues="1814"> 0.0705124 0.07053015 0.07060067 0.07074378 0.07093658 0.07112792 0.07127349 0.07136296 0.07140711 0.07140647
 0.07136364 0.07132736 0.07137953 0.07155482 0.0717915 0.07197428 0.07202622 0.07197653 0.07194465 0.07202338
 0.07215323 0.07214175 0.07184619 0.07133737 0.07085232 0.07057618 0.07052821 0.0707013 0.07117692 0.07190029
 0.07243153 0.07226351 0.07146277 0.07069112 0.07046897 0.07067621 0.07086913 0.0707885 0.07043523 0.06997328
 0.06977901 0.07033664 0.0717613 0.073412 0.07412313 0.07293522 0.06977718 0.06569264 0.06246292 0.06165078
 0.06349339 0.06658189 0.0689209 0.06952266 0.06887968 0.06795679 0.06715997 0.06645848 0.06603989 0.0663377
 0.06742483 0.06861587 0.06881462 0.0674374 0.06510776 0.06323157 0.06272195 0.06341465 0.06480584 0.06660844
 0.06798869 0.06711933 0.06296949 0.05759265 0.0552211 0.05824044 0.06464549 0.07001756 0.0714661 0.06922866
 0.06536786 0.06206042 0.06080323 0.06200539 0.06488404 0.06812148 0.07068111 0.0718643 0.07112728 0.06854841
 0.0652937 0.06304909 0.06298123 0.06528555 0.06914929 0.07281643 0.07438286 0.07320877 0.07034668 0.06742223
 0.06556071 0.06539781 0.06723654 0.07071958 0.0748179 0.07844253 0.08089179 0.08189625 0.0816603 0.08073909
 0.07961951 0.07864715 0.07832946 0.07901714 0.08008865 0.0801937 0.07873031 0.07664886 0.07546791 0.07570279
 0.07645881 0.07651901 0.07557313 0.07400186 0.07166301 0.06789549 0.06302352 0.05873429 0.05638839 0.05599251
 0.05721572 0.05991917 0.06296463 0.06413557 0.06255894 0.06025569 0.06012496 0.0628574 0.0665864 0.06918589
 0.07023706 0.07089368 0.07238758 0.07475899 0.07667665 0.07643346 0.07363941 0.07018171 0.068891 0.07076703
 0.07402679 0.07631059 0.07717307 0.0778276 0.0790133 0.07984433 0.07872731 0.07524832 0.07120384 0.06950583
 0.07165006 0.07621657 0.07989434 0.07993238 0.07599222 0.07023372 0.06563 0.06390701 0.06506276 0.06848717
 0.07363904 0.07947309 0.0841665 0.08613592 0.08519675 0.08246784 0.07909855 0.07521033 0.07050349 0.06601389
 0.06432407 0.06711183 0.07299517 0.07868904 0.08194422 0.08266453 0.08160834 0.07898648 0.07468416 0.06961495
 0.06616586 0.06634769 0.0693851 0.07215332 0.07245582 0.07102962 0.06993765 0.06997634 0.07037544 0.07039931
 0.07038198 0.07115312 0.07286705 0.0746849 0.0756027 0.07537502 0.0745559 0.07384278 0.07344322 0.07293339
 0.07185334 0.07061775 0.07046983 0.07212292 0.07478289 0.0769643 0.07797676 0.07817771 0.07799873 0.07719943
 0.07523456 0.07230143 0.06977494 0.06919308 0.07076512 0.07323849 0.07520466 0.07611326 0.07612923 0.07562002
 0.07491182 0.07418598 0.07352748 0.07314859 0.07333846 0.07404611 0.07478687 0.0751272 0.07503963 0.07468915
 0.07412466 0.07332951 0.07243439 0.07173237 0.07147107 0.07166116 0.07210603 0.07258014 0.07291079 0.07294562
 0.07260983 0.07202362 0.07142794 0.07096431 0.07062809 0.07042187 0.07041004 0.07059005 0.0708226 0.07094672
 0.07090941 0.07075155 0.07051793 0.07022505 0.06989414 0.06958017 0.0693617 0.06928906 0.06932466 0.06936421
 0.06935444 0.06934892 0.06939259 0.06940462 0.06926271 0.06897216 0.06866863 0.06846761 0.06837431 0.06832755
 0.06826572 0.06813179 0.06786486 0.06745389 0.06701191 0.06673566 0.06674521 0.06699242 0.06733993 0.06766804
 0.06789038 0.06795773 0.06789685 0.06778692 0.06766459 0.0674962 0.06725687 0.06700018 0.06683818 0.06685758
 0.06704324 0.06728395 0.06746505 0.0675427 0.06753375 0.06748483 0.06745975 0.06749314 0.06753717 0.06750748
 0.06739511 0.06728669 0.06726412 0.06731697 0.06736089 0.06732904 0.06724288 0.06718867 0.06722288 0.06731936
 0.06741633 0.06748784 0.06755242 0.067628 0.06769104 0.06768569 0.06758546 0.06743967 0.0673297 0.06728463
 0.06727591 0.06728777 0.06734295 0.06745018 0.06756613 0.06763199 0.06763418 0.06761336 0.06761248 0.06762624
 0.0676136 0.0675551 0.0674776 0.06742133 0.06740159 0.06740674 0.0674161 0.06741202 0.06738491 0.06733479
 0.06726809 0.06719085 0.067105 0.06701568 0.0669461 0.06693245 0.0669852 0.06705657 0.06706746 0.06697813
 0.06682708 0.06669356 0.06662354 0.06659511 0.06655462 0.06647722 0.06638394 0.06630741 0.06625845 0.06622706
 0.06619905 0.066167 0.06614064 0.06615302 0.06623814 0.06638668 0.06653515 0.06661844 0.06663117 0.0666232
 0.06664149 0.06669372 0.06676335 0.06683838 0.06692348 0.06703366 0.06717184 0.06730934 0.06740656 0.06746179
 0.06751977 0.06762417 0.06778163 0.06797394 0.06817476 0.06834851 0.06846719 0.06854458 0.0686297 0.06875381
 0.06890267 0.06904878 0.06918873 0.06933627 0.06949645 0.06966616 0.06985292 0.07007627 0.07034662 0.07064704
 0.0709378 0.07118183 0.07137574 0.07156031 0.07179335 0.07210383 0.07246949 0.07283711 0.07316428 0.07344657
 0.07370898 0.07397319 0.0742401 0.07451025 0.0748058 0.0751511 0.07553555 0.07591938 0.07627831 0.07662447
 0.07698073 0.07735127 0.07772435 0.07809416 0.07847142 0.07887001 0.07928346 0.07968038 0.08003144 0.08033937
 0.08063722 0.08096051 0.08132386 0.08171037 0.08207405 0.08237167 0.08261183 0.08285838 0.08316199 0.08350113
 0.08381696 0.08409627 0.0843858 0.0847244 0.08509302 0.08544369 0.08575664 0.08605328 0.08636183 0.08668032
 0.08697366 0.08720762 0.08738744 0.08755721 0.08775797 0.08799827 0.08827305 0.08858962 0.08895099 0.08932561
 0.0896623 0.08993387 0.09014873 0.09032916 0.09049916 0.09068362 0.09089569 0.09112684 0.09135923 0.09157678
 0.09176232 0.09191027 0.09205271 0.09224341 0.09250126 0.09279604 0.0931021 0.09343372 0.09380567 0.09418997
 0.09454796 0.09489071 0.09526695 0.0956865 0.09609024 0.096412 0.09664439 0.09682459 0.09698494 0.09715084
 0.09736631 0.09767594 0.09807681 0.09851544 0.09893782 0.09932652 0.09968939 0.1000302 0.100338 0.1005993
 0.1008125 0.1009898 0.1011504 0.1013176 0.1015181 0.1017644 0.1020346 0.1022833 0.1024764 0.1026035
 0.1026559 0.1026208 0.102511 0.1023774 0.1022626 0.1021477 0.101962 0.101645 0.1011861 0.1006057
 0.09992171 0.09914562 0.09830712 0.09747118 0.09672665 0.09615579 0.09581192 0.09572111 0.0958912 0.0963013
 0.09688083 0.09751579 0.09808781 0.09850333 0.09869027 0.09859519 0.09820999 0.09759443 0.09685318 0.09608686
 0.09536219 0.09470689 0.09411782 0.09359134 0.09317163 0.09296805 0.09311211 0.09369585 0.09474341 0.09620944
 0.09797744 0.09986949 0.1016948 0.1033187 0.104701 0.1058772 0.1069122 0.1078671 0.1087849 0.1096777
 0.1105242 0.1112949 0.1119843 0.1126107 0.1131878 0.1137086 0.1141529 0.1145016 0.1147501 0.1149171
 0.1150354 0.1151279 0.1152068 0.1152932 0.1154158 0.1155766 0.115731 0.1158104 0.1157598 0.1155615
 0.1152506 0.1149304 0.1147774 0.115009 0.1158003 0.1171837 0.1190097 0.1210174 0.1229569 0.1246646
 0.1260676 0.1271672 0.1280249 0.1287326 0.1293688 0.1299748 0.1305633 0.1311342 0.1316845 0.1322124
 0.1327201 0.1332135 0.1337016 0.1341917 0.1346824 0.1351618 0.1356187 0.1360582 0.1365027 0.1369717
 0.1374601 0.1379417 0.1383994 0.1388439 0.139292 0.1397365 0.1401548 0.1405431 0.1409238 0.1413225
 0.1417499 0.1422022 0.1426609 0.1430952 0.1434813 0.1438245 0.1441535 0.1444935 0.1448484 0.1452074
 0.1455615 0.1459128 0.1462681 0.1466336 0.1470125 0.1474013 0.1477828 0.1481307 0.1484335 0.1487097
 0.1489926 0.1493002 0.1496244 0.1499458 0.1502569 0.1505727 0.1509173 0.1512974 0.1516895 0.1520564
 0.1523781 0.1526651 0.152945 0.1532413 0.153561 0.1538962 0.1542323 0.1545608 0.1548847 0.155214
 0.1555559 0.1559078 0.1562594 0.156601 0.156931 0.1572564 0.1575839 0.1579121 0.1582382 0.1585701
 0.1589226 0.1592953 0.159665 0.1600043 0.1603061 0.160584 0.160855 0.1611285 0.1614104 0.1617066
 0.1620208 0.162349 0.1626812 0.1630077 0.1633275 0.1636481 0.163976 0.1643079 0.1646337 0.1649475
 0.1652545 0.1655659 0.1658878 0.1662166 0.1665425 0.16686 0.1671733 0.167491 0.1678167 0.1681445
 0.1684657 0.168778 0.1690872 0.1694015 0.1697239 0.1700503 0.1703748 0.1706943 0.1710111 0.1713297
 0.1716508 0.1719702 0.1722839 0.172591 0.1728932 0.1731941 0.1734996 0.1738138 0.1741326 0.1744481
 0.1747569 0.1750614 0.175365 0.1756681 0.1759685 0.1762626 0.176549 0.1768307 0.1771149 0.177408
 0.1777088 0.178008 0.1782984 0.1785855 0.178881 0.1791858 0.1794896 0.1797858 0.1800779 0.1803706
 0.1806661 0.1809662 0.1812717 0.1815817 0.1818965 0.1822163 0.1825375 0.1828562 0.1831721 0.183488
 0.1838072 0.1841328 0.1844633 0.1847917 0.1851117 0.185422 0.1857235 0.1860195 0.1863186 0.1866268
 0.1869385 0.187246 0.1875507 0.1878579 0.1881674 0.1884759 0.1887816 0.1890846 0.1893881 0.1896958
 0.1900083 0.1903249 0.1906478 0.1909766 0.1913056 0.1916316 0.1919557 0.1922758 0.19259 0.192906
 0.1932312 0.1935591 0.1938782 0.1941878 0.1944963 0.1948109 0.1951332 0.195458 0.195779 0.1960989
 0.1964239 0.1967494 0.1970661 0.1973739 0.1976784 0.197983 0.1982922 0.1986106 0.198935 0.1992609
 0.1995914 0.199925 0.2002487 0.2005555 0.2008532 0.2011531 0.2014646 0.2017936 0.2021312 0.2024584
 0.2027707 0.2030783 0.2033852 0.2036899 0.203998 0.2043113 0.2046216 0.2049246 0.2052186 0.2054848
 0.2056758 0.2056703 0.2051547 0.2034962 0.1997243 0.1927182 0.1816483 0.1664948 0.1482382 0.1285122
 0.1089994 0.09099209 0.07526063 0.06214388 0.05170848 0.04386042 0.0384209 0.03523831 0.0342982 0.03584363
 0.04051551 0.04897789 0.06047643 0.07155774 0.07741289 0.07567623 0.06868632 0.06135411 0.05708279 0.05612108
 0.05702254 0.05854912 0.06030485 0.06250446 0.06552287 0.06946754 0.0741621 0.07960927 0.08621155 0.09426172
 0.1033363 0.1124723 0.1209929 0.1290373 0.1372336 0.1459356 0.1548447 0.1633028 0.1708176 0.177306
 0.1829811 0.1881217 0.1929218 0.1974728 0.2018173 0.205948 0.2097175 0.2128025 0.2148579 0.2157817
 0.215838 0.2155066 0.2151973 0.2150931 0.2152097 0.2155218 0.2160141 0.2166718 0.2174729 0.2183858
 0.2193638 0.2203588 0.2213414 0.2222977 0.2232151 0.2240814 0.224888 0.2256266 0.2262923 0.2268915
 0.2274368 0.2279373 0.2284009 0.2288394 0.2292657 0.2296885 0.2301065 0.2305052 0.2308661 0.2311851
 0.2314748 0.2317504 0.2320211 0.232291 0.2325593 0.2328211 0.2330764 0.2333307 0.2335851 0.2338344
 0.2340777 0.2343207 0.2345679 0.2348194 0.2350742 0.2353312 0.2355879 0.2358415 0.2360897 0.2363317
 0.2365716 0.2368161 0.237065 0.2373096 0.2375429 0.2377664 0.2379871 0.2382137 0.2384524 0.2387017
 0.2389549 0.2392124 0.2394815 0.2397645 0.2400549 0.2403441 0.2406237 0.2408881 0.2411427 0.2413999
 0.2416576 0.2418964 0.2421034 0.2422918 0.2424949 0.2427406 0.243029 0.2433316 0.2436194 0.2438865
 0.2441413 0.2443886 0.2446281 0.244859 0.2450852 0.2453264 0.245611 0.2459394 0.2462775 0.2466002
 0.2469159 0.247237 0.2475578 0.2478722 0.2481766 0.2484509 0.2486722 0.2488594 0.2490837 0.2494173
 0.2498626 0.2503366 0.2507442 0.2510671 0.2513592 0.2516755 0.2520342 0.2524061 0.2526975 0.2528112
 0.252796 0.2528737 0.2532366 0.2538546 0.254535 0.25512 0.2555808 0.2559673 0.2563246 0.2566476
 0.256886 0.2569985 0.2570319 0.2571441 0.2574966 0.2580906 0.2587518 0.2593099 0.2597298 0.2600533
 0.2603151 0.2605451 0.2607245 0.2607126 0.2603969 0.2599819 0.2599462 0.2605767 0.2616438 0.2626474
 0.2633134 0.2637352 0.2640966 0.2644415 0.2647291 0.2648712 0.2646126 0.2636765 0.2623002 0.2613884
 0.2617651 0.263341 0.2652611 0.2667594 0.267644 0.26811 0.2684054 0.2686654 0.2688147 0.2685743
 0.2677726 0.266761 0.2663285 0.266973 0.2683417 0.2696114 0.2703311 0.2706583 0.2709194 0.2712436
 0.2714738 0.2711153 0.2696145 0.2671778 0.2651848 0.2652174 0.2675106 0.2706702 0.2730552 0.2741905
 0.2746333 0.2747625 0.2742243 0.2725676 0.269908 0.2668758 0.2644459 0.263824 0.2656425 0.2689435
 0.2717191 0.2728951 0.2732361 0.2740501 0.2756165 0.2771793 0.2779479 0.2777185 0.2767355 0.275251
 0.2734028 0.2716306 0.270929 0.2721403 0.2749321 0.2779131 0.2799234 0.2809169 0.2813547 0.2808497
 0.2778928 0.2716699 0.2643361 0.2604193 0.2628168 0.2697598 0.2767154 0.2808443 0.2825436 0.2833137
 0.2837557 0.2834145 0.2810187 0.2751483 0.2664496 0.2590809 0.257915 0.2637121 0.2722574 0.278309
 0.2792032 0.2751533 0.268276 0.2619396 0.2593974 0.2618189 0.2677808 0.2746778 0.2802907 0.2833828
 0.2836786 0.2817414 0.2789154 0.2769952 0.2769383 0.2774415 0.2759163 0.2717639 0.2673851 0.2646425
 0.2619447 0.2571632 0.2523185 0.2522349 0.2582913 0.2661376 0.270591 0.2708815 0.2697098 0.2683035
 0.2642868 0.2550927 0.2428354 0.2343663 0.2352779 0.2441127 0.2536863 0.2581275 0.2575338 0.2558239
 0.2554927 0.2550862 0.2512815 0.243242 0.2347429 0.2309808 0.2330291 0.2368565 0.2380563 0.2353598
 0.2290506 0.2195013 0.2096816 0.2060468 0.2130443 0.2276118 0.2416283 0.2486448 0.2461883 0.2341639
 0.2156814 0.1989563 0.1933243 0.2008669 0.2138835 0.2220023 0.2204014 0.2105894 0.1959481 0.1794499
 0.1650557 0.1580384 0.1617597 0.1742976 0.1887084 0.1965314 0.1923967 0.1781274 0.1630178 0.1571324
 0.162211 0.170565 0.1737624 0.1702897 0.1642603 0.1600162 0.1596021 0.1626301 0.1667375 0.1697272
 0.1713042 0.1706842 0.1642123 0.1497649 0.1327485 0.1226144 0.1230233 0.1298545 0.1387741 0.1491741
 0.1593898 0.1639749 0.1598576 0.1522333 0.1502153 0.1571475 0.1676804 0.1742806 0.1746762 0.1723228
 0.1709593 0.1705423 0.1691695 0.1675305 0.1690361 0.1751737 0.1829495 0.1882261 0.1900178 0.1901546
 0.1901523 0.190058 0.189497 0.1883524 0.1866916 0.1848563 0.1833616 0.1823112 0.1813021 0.1800311
 0.1782722 0.1749777 0.1685154 0.159004 0.1498032 0.1449051 0.1447409 0.1463833 0.1478762 0.1494074
 0.1493095 0.142902 0.1286897 0.11346 0.1073623 0.1141198 0.1282641 0.1413454 0.1483679 0.1481971
 0.1410473 0.1287628 0.1170567 0.1137763 0.122496 0.1390661 0.1560592 0.1691763 0.17778 0.181383
 0.1789306 0.1714642 0.1632385 0.1593486 0.1626229 0.1723046 0.184271 0.192073 0.1900393 0.1788977
 0.1684794 0.1705469 0.1863899 0.2046609 0.2141246 0.215125 0.2151717 0.2172582 0.2182838 0.2172346
 0.2185604 0.2259893 0.2369491 0.2450606 0.245733 0.2379782 0.223801 0.2086456 0.2000136 0.2015116
 0.2088289 0.2144861 0.2151259 0.2111145 0.2020869 0.1887653 0.1777031 0.1773733 0.188332 0.2020045
 0.2104335 0.2135305 0.2155632 0.2177914 0.2169904 0.2104216 0.2004434 0.1930629 0.1919768 0.1953013
 0.1986975 0.199949 0.199018 0.1954452 0.1886252 0.180602 0.1761053 0.178454 0.1861596 0.194381
 0.1993078 0.2005514 0.1999218 0.1991026 0.1985412 0.1976464 0.195942 0.1945631 0.1960483 0.2015762
 0.208972 0.2148696 0.2185474 0.2221941 0.2274696 0.2331886 0.2367275 0.2368751 0.235 0.2338803
 0.2354808 0.2393834 0.2430913 0.2441657 0.2425511 0.2408394 0.2418733 0.2460213 0.2511263 0.2549523
 0.2570114 0.2580962 0.2589592 0.2596883 0.2596753 0.2580948 0.2551159 0.2526304 0.2529284 0.2564209
 0.2612316 0.2651126 0.2672319 0.2680608 0.2681838 0.267668 0.2664103 0.2647013 0.2632291 0.2625592
 0.2627494 0.2634847 0.2644241 0.2653518 0.2661563 0.2668175 0.2673805 0.2678869 0.2683576 0.2688296
 0.2693269 0.2697878 0.2701139 0.270323 0.2705731 0.2709772 0.2714543 0.2718185 0.2719516 0.2718073
 0.2713113 0.2703862 0.2690735 0.2675169 0.2657946 0.2638807 0.2618668 0.2601846 0.2594744 0.2601285
 0.2619435 0.2642403 0.2663204 0.2678153 0.2687018 0.2691281 0.2692755 0.2692991 0.2692969 0.2692962
 0.2692811 0.2692385 0.2691757 0.2691015 0.2690171 0.2689365 0.2688976 0.268929 0.2690094 0.2690711
 0.2690431 0.2688872 0.2686057 0.2682275 0.26778 0.2672605 0.2666329 0.2658613 0.264955 0.2639809
 0.2630287 0.2621582 0.2613697 0.2606144 0.2598344 0.2589884 0.2580328 0.256893 0.2555108 0.2539389
 0.2523398 0.2508467 0.2494475 0.2480237 0.2464669 0.2447369 0.2428498 0.240855 0.2388132 0.2367745
 0.2347711 0.2328196 0.2309163 0.2290336 0.2271386 0.2252139 0.223253 0.2212444 0.2191726 0.2170287
 0.2147943 0.2124067 0.2097559 0.2067259 0.2032283 0.1992033 0.1946342 0.1895946 0.1842604 0.1788526
 0.1735651 0.1685381 0.1638688 0.1596361 0.1559223 0.1528128 0.1503718 0.1486274 0.1475828 0.1472296
 0.147546 0.1484847 0.1499586 0.1518375 0.1539636 0.1561715 0.1582987 0.1602113 0.1618556 0.1632872
 0.1646315 0.1659994 0.1674294 0.1688958 0.1703551 0.171771 0.1730956 0.1742593 0.1752064 0.175935
 0.1764891 0.1769215 0.1772708 0.1775574 0.177794 0.1780004 0.1782051 0.1784313 0.1786957 0.1790214
 0.1794318 0.1799302 0.1805019 0.1811404 0.1818587 0.1826779 0.1836057 0.1846226 0.1856937 0.1867991
 0.1879486 0.189172 0.1905132 0.1920277 0.1937618 0.1957287 0.1979108 0.2002671 0.2027271 0.2051964
 0.2075799 0.2097947 0.2117707 0.2134662 0.2148826 0.2160542 0.2170265 0.2178458 0.2185552 0.2191873
 0.2197557 0.2202486 0.2206345 0.220883 0.2209782 0.2209122 0.2206892 0.2203412 0.2199188 0.2194543
 0.218954 0.218424 0.2178814 0.2173413 0.21681 0.2162869 0.215767 0.2152509 0.2147496 0.2142615
 0.2137524 0.2131731 0.2124878 0.2116831 0.2107618 0.2097358 0.2086103 0.2073778 0.206039 0.2046153
 0.2031297 0.2015891 0.1999924 0.1983428 0.1966447 0.1948931 0.1930649 0.1911258 0.1890651 0.186927
 0.1847923 0.1827278 0.1807599 0.178885 0.1770915 0.1753792 0.173763 0.1722523 0.1708356 0.1694933
 0.1682147 0.1669964 0.1658368 0.1647393 0.1637096 0.1627517 0.1618744 0.1610918 0.1604075 0.1598077
 0.1592736 0.1587932 0.158371 0.1580346 0.157813 0.1576916 0.1576006 0.1574612 0.1572357 0.1569375
 0.1566104 0.1562963 0.1560105 0.1557456 0.1554898 0.1552214 0.154885 0.154393 0.1536562 0.1526123
 0.151245 0.149591 0.1477279 0.1457593 0.1438076 0.141994 0.1404081 0.1390965 0.1380651 0.1372658
 0.1366041 0.1360073 0.1354865 0.1351145 0.1349485 0.1349672 0.1350537 0.1350557 0.1349117 0.13472
 0.1346574 0.1348383 0.1352545 0.1358051 0.1363602 0.1368188 0.1371325 0.1372923 0.137318 0.1372542
 0.1371358 0.1369564 0.1366955 0.1363613 0.1359809 0.1355709 0.135132 0.1346464 0.1340841 0.1334307
 0.1326932 0.1318691 0.1309498 0.1299469 0.1288656 0.1276853 0.1264432 0.125315 0.1245434 0.1242884
 0.1245445 0.1251536 0.1259096 0.1266928 0.1274522 0.1280387 0.1282282 0.1280644 0.1280576 0.1288169
 0.1304543 0.1324558 0.1341501 0.1352001 0.1356247 0.1355239 0.1349469 0.1339352 0.1325129 0.1306592
 0.1283926 0.1258191 0.1230485 0.1201815 0.1173908 0.1148679 0.1126997 0.1108897 0.1094337 0.1083859
 0.1078783 0.107575 0.1057902 0.10038 0.09203421 0.08574298 0.08660366 0.09408705 0.1024025 0.1066262
 0.1066316 0.1050512 0.1037004 0.1028591 0.1024353 0.1025397 0.1032658 0.1044755 0.1058128 0.1069095
 0.1076214 0.1079888 0.1079621 0.1072116 0.1051156 0.1009744 0.09456919 0.0866576 0.07872196 0.07211624
 0.06747057 0.06469984 0.06327941 0.06255631 0.06208422 0.06182338 0.06203024 0.06295229 0.06462358 0.06691149
 0.06965339 0.07263315 0.07548644 0.07784509 0.07962523 0.08101562 0.08215648 0.08297913 0.08336699 0.08332403
 0.08295913 0.08240178 0.08175097 0.08104755 0.08026458 0.07933885 0.07826565 0.07719764 0.07638715 0.07596719
 0.07584549 0.07584907 0.07587907 0.07589847 0.07589157 0.07588227 0.07591558 0.07601924 0.07622632 0.07657634
 0.07704256 0.07751826 0.0779065 0.07818364 0.0783769 0.07848904 0.07842285 0.07805093 0.07744831 0.07691987
 0.07661755 0.0762706 0.07553734 0.07452786 0.07373703 0.07350358 0.07371993 0.07403778 0.07419405 0.07413847
 0.07400241 0.07402068 0.07437362 0.0749701</values></Ydata></ScSm><ScRf><Ydata ylabel="Single channel"><values byteorder="INTEL" format="FLOAT32" numvalues="1820"> 0.06049851 0.06064779 0.06074189 0.06078056 0.06078225 0.06078665 0.06084145 0.06097173 0.06115781 0.06134437
 0.06147959 0.06155028 0.06157236 0.0615553 0.06150529 0.06146297 0.06149691 0.06163764 0.06183514 0.06199261
 0.06204284 0.06200735 0.06198635 0.06205928 0.062175 0.06216668 0.06191068 0.0614696 0.06105015 0.06081274
 0.06077269 0.0609235 0.06133755 0.06196814 0.06242952 0.06227446 0.06155913 0.06086607 0.06065714 0.0608298
 0.06099304 0.06091786 0.06060751 0.06020861 0.06004847 0.06054366 0.0617892 0.06322522 0.06383829 0.06279557
 0.06003735 0.05647462 0.05365994 0.05295436 0.05456423 0.05726273 0.05931009 0.05984059 0.05927974 0.05847201
 0.05777778 0.05716893 0.05679919 0.05704039 0.05796175 0.05897649 0.05913556 0.05793147 0.05590585 0.05427816
 0.05383776 0.05444159 0.05565499 0.05722564 0.05841963 0.0576487 0.05403376 0.04937629 0.0473501 0.05000651
 0.05558589 0.06024822 0.06149068 0.05952793 0.0561597 0.05328445 0.05220204 0.05325578 0.05575375 0.05855252
 0.06076124 0.06177841 0.06113189 0.05889105 0.05606902 0.0541243 0.05406295 0.05605389 0.05939621 0.06256981
 0.06392386 0.0629032 0.06041962 0.05788251 0.05626953 0.05613453 0.05774152 0.06078111 0.06436053 0.06753076
 0.06967379 0.07054835 0.07033472 0.06952758 0.0685608 0.06773131 0.06746402 0.06805234 0.06896228 0.06903583
 0.06775737 0.0659481 0.06492136 0.06512469 0.06578392 0.06584404 0.06503581 0.06368703 0.06166762 0.05839647
 0.0541546 0.05041403 0.04836503 0.04802144 0.04910391 0.05149539 0.05419794 0.05526517 0.05392005 0.05191532
 0.05178171 0.05413452 0.05736065 0.05961451 0.06053108 0.06110953 0.06241369 0.06447397 0.06613635 0.06592391
 0.06350194 0.06051321 0.05941968 0.06108484 0.06394578 0.06594382 0.06670068 0.067289 0.06836088 0.06913921
 0.06822415 0.06525084 0.06179103 0.06038488 0.06232549 0.06636232 0.06960553 0.0696593 0.06623378 0.0612254
 0.05724375 0.05580327 0.0569061 0.06002738 0.06469807 0.06999198 0.07429028 0.0761812 0.07548311 0.07317409
 0.0702785 0.06691669 0.0628287 0.0589451 0.05758689 0.06026714 0.0657471 0.07106741 0.07419021 0.07501332
 0.07420844 0.07195361 0.06813937 0.06361917 0.06061581 0.06099193 0.0640133 0.06677183 0.06723624 0.06610069
 0.06528026 0.06550717 0.06606281 0.06627362 0.0664698 0.06743336 0.06929558 0.07125209 0.07235131 0.07235761
 0.07179005 0.07131448 0.07113654 0.07084801 0.0700061 0.06903293 0.06915789 0.07106559 0.07394408 0.07631567
 0.07751408 0.07792042 0.07797422 0.07741804 0.07568001 0.07295401 0.07064579 0.07032877 0.07221612 0.07502383
 0.07730486 0.07849264 0.07876281 0.0785016 0.07804267 0.07756334 0.07714774 0.07702059 0.07748521 0.07848546
 0.07951303 0.08011769 0.08027415 0.08014956 0.07978228 0.07915376 0.07842132 0.07791602 0.07790127 0.07837248
 0.07910681 0.07986338 0.08046636 0.08075746 0.08064833 0.08025304 0.07982497 0.07952525 0.07936463 0.07936028
 0.07958695 0.08003169 0.08052498 0.08088222 0.08105107 0.08108646 0.08104074 0.08092335 0.08074546 0.08057208
 0.0805153 0.08064713 0.08090873 0.08115667 0.08133248 0.08152165 0.08178739 0.08202129 0.08205502 0.08188024
 0.08166584 0.08157202 0.08161815 0.08172526 0.0818109 0.08180827 0.08164985 0.0813234 0.08096114 0.08079482
 0.0809695 0.08143733 0.08204216 0.08263315 0.08308814 0.08333544 0.08340631 0.08339955 0.08336291 0.08326088
 0.08307106 0.08286869 0.08280006 0.08297491 0.08336879 0.08383107 0.08420279 0.084418 0.08450393 0.08454345
 0.08464108 0.0848427 0.08506172 0.08515533 0.08509851 0.0850219 0.085054 0.08517508 0.08525528 0.08521354
 0.08511303 0.0850946 0.08522865 0.08545345 0.08565983 0.08580953 0.08595462 0.08615001 0.08635823 0.08645977
 0.08638033 0.08619015 0.08603258 0.08596957 0.0859594 0.08597844 0.08607817 0.08628833 0.08652821 0.08667306
 0.08669093 0.08666923 0.08669998 0.08676983 0.08678375 0.08667937 0.08649223 0.08631609 0.08622622 0.08623907
 0.08631636 0.08639282 0.08641405 0.08636576 0.08627328 0.08617271 0.08608656 0.08603516 0.08606312 0.08621933
 0.08648089 0.08671345 0.08675452 0.08656133 0.08626315 0.08604844 0.08599792 0.08603042 0.08600195 0.08584122
 0.08558971 0.08533674 0.08514065 0.08500619 0.08490925 0.08483019 0.08477801 0.08479123 0.08489604 0.08504409
 0.08511351 0.08500981 0.08476424 0.08450526 0.08433962 0.08428347 0.08428881 0.08429836 0.08428819 0.08428736
 0.08433878 0.08442283 0.08445534 0.08438709 0.0842699 0.08420393 0.08425551 0.08442913 0.08466391 0.08484437
 0.0848747 0.08477305 0.08465758 0.08462584 0.08467764 0.08475971 0.08484237 0.08493067 0.08503116 0.08514103
 0.08526656 0.08542944 0.08564453 0.08589479 0.08613223 0.08630848 0.08641632 0.0865071 0.08665772 0.08690766
 0.08722585 0.08753937 0.08779307 0.08798654 0.08816074 0.08835032 0.08855443 0.08876139 0.08898705 0.08926138
 0.08958142 0.08990802 0.0902115 0.0904951 0.09077282 0.09104829 0.09132336 0.09161517 0.09195574 0.09236428
 0.09280705 0.0931959 0.09345509 0.09359545 0.09371138 0.09390777 0.09422746 0.09461934 0.09496331 0.09516359
 0.09524796 0.09534693 0.09554935 0.09581186 0.09604536 0.09625527 0.09653959 0.0969536 0.09742504 0.09781951
 0.09806819 0.09821926 0.0983722 0.09857103 0.09876838 0.09889893 0.09897116 0.0990566 0.09919631 0.09936851
 0.09956163 0.09982182 0.1001855 0.1006031 0.1009777 0.1012599 0.101468 0.1016343 0.1017699 0.1018674
 0.1019145 0.1019163 0.1019173 0.1019733 0.1020846 0.102188 0.102236 0.1022583 0.1023225 0.1024634
 0.1026754 0.1029457 0.1032527 0.1035503 0.1038044 0.1040506 0.1043627 0.1047396 0.1050701 0.1052493
 0.1052971 0.105313 0.10535 0.1053957 0.1054597 0.1055993 0.105846 0.1061597 0.1064803 0.1067909
 0.1071128 0.1074573 0.1077939 0.108058 0.1081938 0.1082022 0.1081525 0.1081444 0.1082534 0.1084959
 0.1088244 0.109159 0.1094338 0.1096176 0.1096976 0.1096755 0.1096021 0.1095821 0.1096936 0.1098965
 0.1100503 0.1100319 0.109815 0.1094387 0.1089365 0.1083256 0.1076481 0.106989 0.106439 0.1060484
 0.1058287 0.1057961 0.105991 0.1064315 0.1070574 0.1077471 0.1083909 0.1089157 0.1092412 0.1092704
 0.1089615 0.1083843 0.1076754 0.1069516 0.1062753 0.1056592 0.1050754 0.1044945 0.1039615 0.1036283
 0.1036822 0.1042351 0.1052708 0.1066563 0.1081824 0.1096283 0.1108473 0.1118197 0.1126213 0.1133378
 0.1140121 0.1146633 0.115316 0.1159797 0.1166169 0.1171743 0.1176443 0.1180684 0.1184805 0.1188737
 0.1192198 0.1194994 0.1197191 0.1199145 0.120117 0.1203044 0.1204092 0.1203958 0.1203042 0.1201962
 0.1200832 0.1199218 0.1196627 0.1192902 0.1188467 0.1184488 0.1182731 0.1184882 0.1191601 0.1202079
 0.1214603 0.1227643 0.1240281 0.1251763 0.126118 0.1267973 0.1272473 0.1275653 0.1278411 0.1281226
 0.1284243 0.12874 0.1290521 0.1293464 0.1296232 0.1298984 0.1301966 0.1305302 0.1308769 0.1311884
 0.1314377 0.1316563 0.1319127 0.1322489 0.1326396 0.133019 0.1333503 0.1336556 0.133967 0.1342684
 0.1345153 0.134703 0.1348808 0.1351035 0.1353934 0.1357413 0.1361094 0.1364349 0.1366714 0.1368335
 0.1369835 0.1371714 0.137404 0.1376638 0.1379338 0.1382006 0.138455 0.1387035 0.1389686 0.1392623
 0.1395597 0.1398119 0.1399957 0.1401386 0.1402915 0.1404817 0.1406983 0.1409145 0.1411194 0.1413323
 0.1415862 0.1418876 0.1421947 0.1424478 0.1426226 0.1427469 0.1428701 0.1430243 0.143214 0.1434272
 0.1436484 0.1438652 0.1440716 0.1442699 0.1444685 0.1446748 0.1448904 0.145111 0.1453297 0.1455419
 0.1457478 0.1459515 0.1461622 0.1463956 0.1466668 0.1469689 0.1472632 0.1475052 0.147681 0.1478125
 0.1479327 0.1480647 0.148218 0.1483912 0.1485771 0.1487703 0.1489698 0.1491747 0.1493806 0.1495828
 0.1497807 0.1499804 0.1501904 0.1504127 0.1506396 0.1508628 0.1510811 0.1512968 0.1515082 0.151713
 0.1519133 0.1521135 0.152316 0.1525181 0.1527123 0.1528926 0.1530636 0.1532383 0.153425 0.1536198
 0.153815 0.1540083 0.1542029 0.1544005 0.1545989 0.1547962 0.154994 0.1551946 0.1553949 0.15559
 0.1557804 0.1559725 0.156169 0.1563664 0.1565603 0.1567507 0.156942 0.1571407 0.1573501 0.157566
 0.1577783 0.1579773 0.1581609 0.1583388 0.1585262 0.1587285 0.1589362 0.1591398 0.1593403 0.1595418
 0.1597419 0.1599371 0.1601305 0.1603276 0.1605321 0.160746 0.1609677 0.1611915 0.1614105 0.1616206
 0.1618221 0.1620204 0.1622242 0.1624364 0.1626528 0.1628694 0.1630872 0.1633066 0.1635218 0.1637219
 0.1639009 0.1640671 0.1642377 0.1644216 0.1646126 0.1648012 0.1649847 0.1651625 0.1653344 0.1655065
 0.1656886 0.1658832 0.1660846 0.166287 0.1664886 0.1666906 0.1668959 0.1671059 0.1673193 0.1675359
 0.1677553 0.1679727 0.1681815 0.1683805 0.1685725 0.1687603 0.1689479 0.1691408 0.1693414 0.1695511
 0.1697722 0.1700016 0.1702297 0.1704501 0.1706627 0.1708674 0.1710669 0.1712689 0.1714766 0.1716848
 0.1718922 0.172105 0.1723233 0.1725379 0.1727405 0.1729303 0.1731153 0.1733108 0.1735258 0.173752
 0.1739768 0.1741984 0.1744188 0.174637 0.1748556 0.1750771 0.1752946 0.1755015 0.1757047 0.1759141
 0.1761312 0.1763549 0.1765764 0.1767686 0.176885 0.1768221 0.1763144 0.1748195 0.1714981 0.1653788
 0.1557466 0.1425963 0.1267901 0.109746 0.09291027 0.07738522 0.06382684 0.05252569 0.04354029 0.03678868
 0.0321135 0.02938014 0.0285749 0.02990883 0.03393162 0.04120388 0.05106648 0.06055484 0.06555429 0.06404887
 0.0580495 0.05176121 0.04808932 0.0472404 0.04798147 0.04926262 0.05074714 0.05261644 0.05519385 0.05857554
 0.06260741 0.06728308 0.07294174 0.07983511 0.08760597 0.0954349 0.1027412 0.1096335 0.1166382 0.1240593
 0.1316562 0.1388814 0.145316 0.1508769 0.1557355 0.1601326 0.1642432 0.1681487 0.1718794 0.1754205
 0.1786414 0.1812645 0.1829967 0.1837517 0.1837553 0.1834217 0.1831129 0.1829959 0.1830843 0.1833472
 0.1837603 0.1843028 0.1849548 0.1856942 0.186491 0.1873149 0.1881477 0.1889741 0.1897707 0.1905145
 0.1911955 0.1918125 0.1923697 0.1928761 0.1933402 0.193767 0.1941635 0.1945406 0.1949018 0.1952425
 0.1955606 0.1958606 0.1961483 0.1964261 0.1966913 0.1969378 0.1971642 0.1973786 0.1975905 0.1978029
 0.1980146 0.1982233 0.1984259 0.1986243 0.1988268 0.1990363 0.1992445 0.1994426 0.1996318 0.1998185
 0.2000049 0.2001905 0.2003738 0.2005547 0.2007385 0.2009339 0.2011434 0.2013583 0.2015674 0.201765
 0.2019529 0.2021382 0.2023274 0.2025209 0.2027176 0.202922 0.2031378 0.2033581 0.2035742 0.203789
 0.2040102 0.204235 0.2044564 0.2046719 0.2048772 0.205058 0.2052068 0.2053407 0.205494 0.2056878
 0.2059108 0.2061334 0.2063403 0.2065384 0.2067377 0.2069367 0.2071293 0.2073129 0.2074901 0.2076761
 0.2078931 0.2081419 0.2083952 0.2086329 0.2088635 0.2091002 0.2093412 0.2095821 0.2098181 0.2100292
 0.2101948 0.2103311 0.2104979 0.210751 0.2110886 0.2114459 0.2117544 0.2120034 0.2122316 0.2124771
 0.2127524 0.2130333 0.2132405 0.2132902 0.2132219 0.213227 0.2134794 0.2139649 0.2145195 0.2149968
 0.2153586 0.2156425 0.2158917 0.2161099 0.2162592 0.2163062 0.2162902 0.2163433 0.2166 0.2170615
 0.2175831 0.2180198 0.218338 0.2185734 0.2187624 0.2189345 0.2190659 0.2190234 0.2187042 0.218289
 0.2182007 0.2186941 0.2195708 0.2203935 0.2209209 0.221236 0.2215044 0.2217666 0.221981 0.222065
 0.2218052 0.2209788 0.2197953 0.2190167 0.2193275 0.2206395 0.2222284 0.2234586 0.2241825 0.2245703
 0.2248248 0.2250484 0.2251661 0.2249401 0.2242368 0.2233697 0.2230116 0.2235722 0.2247352 0.225794
 0.2263719 0.2266162 0.2268137 0.2270757 0.2272691 0.2269761 0.2257267 0.2236864 0.2220106 0.2220325
 0.2239572 0.2266148 0.2286189 0.2295596 0.2299057 0.2299903 0.2295301 0.2281467 0.2259277 0.2233927
 0.2213565 0.2208359 0.2223709 0.2251603 0.2275141 0.2285255 0.2288351 0.2295413 0.23088 0.232218
 0.2328892 0.2327177 0.2319062 0.2306664 0.2291159 0.2276332 0.2270668 0.2281288 0.2305308 0.2330917
 0.23483 0.2357052 0.2361042 0.2356988 0.2332155 0.2279744 0.2218082 0.2185472 0.2206312 0.2265534
 0.232476 0.2359999 0.2374685 0.2381624 0.2385943 0.2383703 0.2364014 0.2314813 0.2241663 0.2179894
 0.2170762 0.2220547 0.2293445 0.2345123 0.2353126 0.231928 0.226155 0.2208575 0.2187969 0.2209596
 0.226135 0.2321106 0.2369969 0.2397375 0.2400961 0.2385469 0.2362312 0.2346871 0.2347423 0.2352837
 0.2340956 0.2306667 0.227052 0.2248445 0.2226833 0.2187499 0.2147775 0.2149019 0.2203011 0.2272368
 0.2312657 0.2317419 0.2309864 0.2300312 0.2268093 0.2191082 0.2087678 0.2017258 0.2028264 0.2107958
 0.2193938 0.2235336 0.2233153 0.2221507 0.2222114 0.2222248 0.2192674 0.21259 0.2055228 0.2026645
 0.204967 0.2088722 0.2104948 0.2086984 0.2036865 0.1957681 0.1876346 0.1851252 0.1922689 0.2063236
 0.2199528 0.2272687 0.2259193 0.2157067 0.1994726 0.1849092 0.1807914 0.1890691 0.20248 0.2112536
 0.2108419 0.2026343 0.1897849 0.1751387 0.1626298 0.15758 0.1634733 0.1784769 0.1955243 0.205762
 0.2033877 0.1902178 0.1762149 0.1722835 0.1802575 0.1916207 0.1970793 0.1950174 0.1900507 0.1871068
 0.1886266 0.194208 0.2010075 0.20639 0.2100189 0.210793 0.2039749 0.1868733 0.1663551 0.1543433
 0.1554322 0.1644596 0.1760497 0.1894771 0.2025608 0.2082946 0.2027543 0.1925685 0.1893259 0.1972658
 0.2096305 0.2169538 0.2164442 0.2125205 0.2099439 0.2087215 0.2065002 0.2040964 0.2056702 0.2130206
 0.2224666 0.2289539 0.2312995 0.2317568 0.2321794 0.2326033 0.2325312 0.2317856 0.2304399 0.2289252
 0.2278918 0.2274768 0.2271793 0.2266199 0.2255057 0.2224561 0.2152932 0.2041012 0.1932 0.187735
 0.1882129 0.190823 0.1930937 0.1953301 0.1953313 0.1869258 0.1681285 0.1478102 0.1392466 0.1472962
 0.164781 0.1806505 0.1884513 0.1868815 0.1764554 0.1596561 0.1435777 0.1377591 0.1464249 0.1644111
 0.1826518 0.1959963 0.2038913 0.2060787 0.2015364 0.1914992 0.1807696 0.1750079 0.1772374 0.1864648
 0.1980665 0.2050557 0.2014614 0.1882014 0.1757477 0.176475 0.1917117 0.2095932 0.2184036 0.2184717
 0.2175683 0.2188321 0.2191327 0.217434 0.2182476 0.2253809 0.236304 0.2446394 0.2457598 0.2386127
 0.2251686 0.2109437 0.2035714 0.2066332 0.215523 0.2224193 0.2238506 0.2202236 0.2111831 0.1975839
 0.186445 0.1867264 0.1989399 0.2139629 0.2234072 0.2272545 0.2300632 0.2331226 0.2329111 0.2264654
 0.2163662 0.2091635 0.2088983 0.2135499 0.2184271 0.2211154 0.2214958 0.2189237 0.2126399 0.2049603
 0.2012886 0.2053883 0.2154493 0.2257681 0.2318374 0.2331347 0.2317345 0.2296365 0.2274535 0.2245945
 0.2205778 0.2167412 0.2159969 0.2197245 0.2255764 0.2298904 0.2318887 0.2339419 0.2378465 0.2423578
 0.2447125 0.2436446 0.2405769 0.2383623 0.2389873 0.2420038 0.2448766 0.245149 0.242779 0.2403974
 0.2408881 0.2446402 0.2494975 0.2532117 0.2552702 0.2564332 0.2574245 0.2582996 0.2584033 0.2568662
 0.2538387 0.251211 0.2512656 0.2544054 0.2587695 0.2621591 0.2638163 0.264281 0.2641682 0.2635334
 0.262246 0.2605713 0.2591699 0.2585721 0.2587987 0.2595083 0.2603523 0.2611244 0.2617271 0.2621465
 0.2624264 0.2626051 0.2627038 0.2627709 0.2628565 0.2629282 0.2629059 0.2628134 0.2628076 0.2629985
 0.2633037 0.2635351 0.2635663 0.2633426 0.2627949 0.2618635 0.2606056 0.25917 0.2576294 0.2559409
 0.2541748 0.2527485 0.2522934 0.253185 0.2551953 0.2576306 0.2597993 0.2613571 0.2623056 0.2628033
 0.2630211 0.26309 0.2630852 0.2630258 0.2629014 0.2627028 0.2624314 0.2620947 0.2617081 0.2613045
 0.2609308 0.260622 0.2603698 0.2601196 0.2598053 0.2593928 0.2588962 0.2583592 0.2578169 0.2572634
 0.2566517 0.2559276 0.2550744 0.2541317 0.2531782 0.2522887 0.2514862 0.2507322 0.2499676 0.2491567
 0.248275 0.2472796 0.2461477 0.244955 0.2438648 0.2429968 0.2423271 0.2417308 0.2410912 0.2403458
 0.2394719 0.2384821 0.2374253 0.2363519 0.2352718 0.2341583 0.2329803 0.2317173 0.2303627 0.2289252
 0.2274205 0.2258578 0.224248 0.2226121 0.2209502 0.2191984 0.2172336 0.2149167 0.2121254 0.2087706
 0.2048227 0.2003464 0.1955072 0.19053 0.1856301 0.1809656 0.176644 0.1727585 0.1694081 0.1666813
 0.1646315 0.1632717 0.1625982 0.1626162 0.1633351 0.1647312 0.1667272 0.169204 0.172019 0.1750086
 0.1779971 0.1808286 0.1834106 0.1857452 0.1879084 0.1899693 0.1919224 0.1937097 0.1952929 0.1966743
 0.1978647 0.1988665 0.1996931 0.2003793 0.2009664 0.2014812 0.2019291 0.2023047 0.2026111 0.2028639
 0.2030792 0.2032685 0.2034458 0.2036303 0.2038389 0.2040801 0.2043551 0.204664 0.2050165 0.2054307
 0.2059126 0.2064436 0.2070006 0.2075788 0.2081899 0.208849 0.209575 0.2103999 0.2113631 0.2124896
 0.213768 0.2151487 0.2165597 0.2179177 0.2191343 0.2201361 0.2208903 0.2214021 0.2216914 0.2217831
 0.2217123 0.2215169 0.2212234 0.220849 0.220409 0.2199106 0.2193501 0.2187276 0.2180598 0.2173701
 0.2166713 0.2159685 0.2152731 0.2145996 0.2139485 0.2133071 0.2126714 0.2120572 0.211481 0.2109388
 0.2104087 0.2098677 0.2093041 0.2087206 0.2081303 0.2075369 0.206913 0.2062073 0.2053812 0.2044347
 0.203391 0.2022658 0.2010615 0.1997842 0.1984435 0.197035 0.1955399 0.1939504 0.1922846 0.1905635
 0.1887778 0.186893 0.1848991 0.1828513 0.1808495 0.178975 0.177253 0.1756663 0.1741877 0.1727992
 0.1714902 0.170246 0.1690457 0.1678804 0.1667664 0.1657237 0.1647467 0.1638113 0.1629104 0.1620679
 0.1613188 0.1606804 0.1601425 0.1596813 0.1592779 0.1589258 0.1586369 0.1584461 0.1583867 0.1584443
 0.1585464 0.1586073 0.1585764 0.1584548 0.1582871 0.1581311 0.1580186 0.1579472 0.1578987 0.1578374
 0.1576921 0.1573703 0.1567923 0.1559066 0.1546963 0.1531891 0.1514583 0.1496141 0.1477974 0.1461469
 0.1447479 0.1436236 0.1427636 0.1421239 0.1416214 0.1411862 0.1408228 0.140599 0.1405821 0.1407694
 0.1410479 0.1412501 0.1413056 0.1413211 0.1414805 0.1418917 0.1425342 0.1432969 0.1440482 0.1447025
 0.1452299 0.1456139 0.1458473 0.1459617 0.1460002 0.1459681 0.1458551 0.1456767 0.1454535 0.1451845
 0.1448587 0.1444573 0.1439572 0.143363 0.1427009 0.1419677 0.1411373 0.1402063 0.1391719 0.1380165
 0.1368014 0.1357308 0.1350527 0.1349172 0.1353207 0.1361178 0.137109 0.1381683 0.1392137 0.14004
 0.1403916 0.1403514 0.1405108 0.1415395 0.143556 0.1460037 0.1481442 0.1495875 0.1503291 0.1504611
 0.1500318 0.1490908 0.1476597 0.145697 0.1432165 0.1403546 0.1372632 0.1340831 0.1310248 0.1282948
 0.1259727 0.1240684 0.1225942 0.1216033 0.121227 0.1210882 0.1192736 0.1133266 0.104025 0.09706397
 0.09824824 0.1069598 0.116605 0.1215844 0.1217363 0.1200278 0.1185108 0.1175107 0.1169513 0.1169979
 0.1177717 0.1190986 0.1205643 0.1217606 0.1225277 0.1229134 0.1228792 0.1220532 0.1196847 0.1149279
 0.1075282 0.09838463 0.08923511 0.08165972 0.07637924 0.0732673 0.07169281 0.07088791 0.07033492 0.07001115
 0.07024893 0.07133788 0.07329236 0.07595661 0.079162 0.08265817 0.08601202 0.08880372 0.09094161 0.0926322
 0.0940342 0.0950792 0.09562963 0.09566937 0.09530355 0.09466957 0.09389242 0.09305733 0.09215786 0.09110713
 0.08989318 0.0887201 0.08788809 0.08750772 0.08742395 0.08742287 0.08740298 0.08735096 0.08727804 0.08720645
 0.0871556 0.08715129 0.08726574 0.08757687 0.08805342 0.08854026 0.08888324 0.08904329 0.08908684 0.08905523
 0.08884073 0.08829064 0.08749434 0.08679321 0.08634014 0.08581777 0.08483718 0.08352052 0.08244693 0.08204845
 0.08223981 0.08261544 0.0828246 0.08274258 0.08247826 0.08232834 0.08257739 0.08317398 0.08367954 0.08368603
</values></Ydata></ScRf><Data_Parameters_AB><parameter name="DPF">1</parameter><parameter name="NPT">3497</parameter><parameter name="FXV">3996</parameter><parameter name="LXV">500</parameter><parameter name="CSF">1</parameter><parameter name="MXY">0.116704344749451</parameter><parameter name="MNY">-0.0792988836765289</parameter><parameter name="DAT">27/05/2022</parameter><parameter name="TIM">11:47:13.651 (GMT+2)</parameter><parameter name="DXU">WN</parameter></Data_Parameters_AB><AB__Qtest><MainReport name="Quality Test Report"><Header><Line><Legend>Test result ok/not ok [1/0]: </Legend><Value>0</Value></Line><Line><Legend>Method file: </Legend><Value>C:\Users\Public\Documents\Bruker\OPUS_8.2.28\QT\IRBT_v3_default.QT</Value></Line></Header><Matrix><Line><Legend></Legend><Legend>min</Legend><Legend>max</Legend><Legend>measured</Legend></Line><Line><Value>Absorption (X-Range 1):</Value><Value>0.400000</Value><Value>2.000000</Value><Value>0.181360</Value></Line><Line><Value>Noise (X-Range 4):</Value><Value></Value><Value>0.000300</Value><Value>0.000036</Value></Line><Line><Value>Signal/Noise (X-Range 2):</Value><Value>200.000000</Value><Value></Value><Value>109.973021</Value></Line><Line><Value>Signal/Noise (X-Range 3):</Value><Value>40.000000</Value><Value></Value><Value>63.238491</Value></Line><Line><Value>Water vapour (X-Range 5):</Value><Value></Value><Value>0.000300</Value><Value>0.000054</Value></Line><Line><Value>Signal/Water (X-Range 2):</Value><Value>100.000000</Value><Value></Value><Value>72.636687</Value></Line><Line><Value>Signal/Water (X-Range 3):</Value><Value>20.000000</Value><Value></Value><Value>41.768740</Value></Line><Line><Value>Fringes (X-Range 6):</Value><Value></Value><Value>0.000100</Value><Value>0.000089</Value></Line></Matrix></MainReport></AB__Qtest><Data_Parameters_ScSm><parameter name="DPF">1</parameter><parameter name="NPT">1814</parameter><parameter name="FXV">3996.33169228125</parameter><parameter name="LXV">499.541461535156</parameter><parameter name="CSF">1</parameter><parameter name="MXY">0.28375568985939</parameter><parameter name="MNY">0.0342982038855553</parameter><parameter name="DAT">27/05/2022</parameter><parameter name="TIM">11:47:13.651 (GMT+2)</parameter><parameter name="DXU">WN</parameter></Data_Parameters_ScSm><Data_Parameters_ScRf><parameter name="DPF">1</parameter><parameter name="NPT">1820</parameter><parameter name="FXV">4004.04661832813</parameter><parameter name="LXV">495.683998511719</parameter><parameter name="CSF">1</parameter><parameter name="MXY">0.264281004667282</parameter><parameter name="MNY">0.0285748988389969</parameter><parameter name="DAT">27/05/2022</parameter><parameter name="TIM">11:46:47.802 (GMT+2)</parameter><parameter name="DXU">WN</parameter></Data_Parameters_ScRf><Optic_Parameters_Rf><parameter name="APR">0</parameter><parameter name="APT">Open</parameter><parameter name="BMS">KBr</parameter><parameter name="DTC">RT-DLaTGS_IR-Biotyper [Microplate reader]</parameter><parameter name="HPF">0</parameter><parameter name="LPF">10.0</parameter><parameter name="LPV">4000</parameter><parameter name="PGR">0</parameter><parameter name="RCH">Module port</parameter><parameter name="RDX">0</parameter><parameter name="SRC">MIR</parameter><parameter name="VEL">10.0</parameter><parameter name="SON">Off</parameter></Optic_Parameters_Rf><Acquisition_Parameters_Rf><parameter name="ADT">1</parameter><parameter name="AQM">DD</parameter><parameter name="CFE">0</parameter><parameter name="COR">0</parameter><parameter name="DEL">0</parameter><parameter name="DLY">0</parameter><parameter name="HFW">8000</parameter><parameter name="LFW">0</parameter><parameter name="NSR">32</parameter><parameter name="PLF">AB</parameter><parameter name="RES">6</parameter><parameter name="RGN">-1</parameter><parameter name="STR">0</parameter><parameter name="TCL">MakeCompatibleScalar (0, {WSV=1.000000, ARV=0});</parameter><parameter name="TDL">37</parameter><parameter name="RPO">0</parameter></Acquisition_Parameters_Rf><FT_-_Parameters_Rf><parameter name="APF">B3</parameter><parameter name="HFQ">500</parameter><parameter name="LFQ">4000</parameter><parameter name="NLI">0</parameter><parameter name="PHR">24</parameter><parameter name="PHZ">ML</parameter><parameter name="SPZ">NO</parameter><parameter name="ZFF">1</parameter></FT_-_Parameters_Rf><Optic_Parameters_><parameter name="APR">0</parameter><parameter name="APT">Open</parameter><parameter name="BMS">KBr</parameter><parameter name="CHN">Module port</parameter><parameter name="DTC">RT-DLaTGS_IR-Biotyper [Microplate reader]</parameter><parameter name="HPF">0</parameter><parameter name="LPF">10.0</parameter><parameter name="LPV">4000</parameter><parameter name="PGN">0</parameter><parameter name="RDX">0</parameter><parameter name="SRC">MIR</parameter><parameter name="VEL">10.0</parameter><parameter name="SON">Off</parameter></Optic_Parameters_><FT_-_Parameters_><parameter name="APF">B3</parameter><parameter name="HFQ">500</parameter><parameter name="LFQ">4000</parameter><parameter name="NLI">0</parameter><parameter name="PHR">24</parameter><parameter name="PHZ">ML</parameter><parameter name="SPZ">NO</parameter><parameter name="ZFF">1</parameter></FT_-_Parameters_><Acquisition_Parameters_><parameter name="ADT">1</parameter><parameter name="AQM">DD</parameter><parameter name="CFE">0</parameter><parameter name="COR">0</parameter><parameter name="DEL">0</parameter><parameter name="DLY">0</parameter><parameter name="HFW">8000</parameter><parameter name="LFW">0</parameter><parameter name="NSS">32</parameter><parameter name="PLF">AB</parameter><parameter name="RES">6</parameter><parameter name="SOT">0</parameter><parameter name="TCL">MakeCompatibleScalar (0, {WSV=1.000000, ARV=0});</parameter><parameter name="TDL">37</parameter><parameter name="SPO">0</parameter><parameter name="SGN">-1</parameter></Acquisition_Parameters_><Instrument_Parameters_Rf><parameter name="HFL">15800.168544</parameter><parameter name="LFL">0</parameter><parameter name="LWN">15800.168544</parameter><parameter name="ABP">32197</parameter><parameter name="SSP">1</parameter><parameter name="ARG">2</parameter><parameter name="ASG">2</parameter><parameter name="ASS">32</parameter><parameter name="GFW">16</parameter><parameter name="GBW">16</parameter><parameter name="BFW">0</parameter><parameter name="BBW">0</parameter><parameter name="PKA">7265</parameter><parameter name="PKL">4996</parameter><parameter name="PRA">7445</parameter><parameter name="PRL">5001</parameter><parameter name="P2A">1</parameter><parameter name="P2L">1</parameter><parameter name="P2R">1</parameter><parameter name="P2K">1</parameter><parameter name="DAQ">0</parameter><parameter name="AG2">1</parameter><parameter name="SSM">1</parameter><parameter name="RSN">24890</parameter><parameter name="CRR">0</parameter><parameter name="SRT">1653652007.802</parameter><parameter name="DUR">19.635986328125</parameter><parameter name="TSC">27.8</parameter><parameter name="MVD">0.204031839966774</parameter><parameter name="AN1">0.225816525897961</parameter><parameter name="AN2">0</parameter><parameter name="VSN">2.485 Apr  4 2017</parameter><parameter name="SRN">0085</parameter><parameter name="CAM">0</parameter><parameter name="INS">IR-Biotyper</parameter><parameter name="FOC">69</parameter><parameter name="RDY">1</parameter><parameter name="ARS">32</parameter></Instrument_Parameters_Rf><Sample_Parameters_><parameter name="BLD"></parameter><parameter name="CNM">Admin</parameter><parameter name="CPY"></parameter><parameter name="DPM"></parameter><parameter name="EXP">IRBT_v3_32Scans.XPM</parameter><parameter name="LCT"></parameter><parameter name="SFM">Microplate, HTS-XT</parameter><parameter name="SNM">220527-1039(v.2)_GFG29M (D_6)_E6_c6a794c6-c776-4cdc-917d-4d2bd8f5b41f.0</parameter><parameter name="XPP">C:\Users\Public\Documents\Bruker\OPUS_8.2.28\XPM</parameter><parameter name="IST">OK</parameter><parameter name="CPG">1252</parameter><parameter name="UID">c5544be7-8a63-4d9f-a000-47adf7e9a58b</parameter></Sample_Parameters_><Instrument_Parameters_><parameter name="HFL">15800.168544</parameter><parameter name="LFL">0</parameter><parameter name="LWN">15800.168544</parameter><parameter name="ABP">32197</parameter><parameter name="SSP">1</parameter><parameter name="ASG">2</parameter><parameter name="ARG">2</parameter><parameter name="ASS">32</parameter><parameter name="GFW">16</parameter><parameter name="GBW">16</parameter><parameter name="BFW">0</parameter><parameter name="BBW">0</parameter><parameter name="PKA">7502</parameter><parameter name="PKL">4988</parameter><parameter name="PRA">7788</parameter><parameter name="PRL">4993</parameter><parameter name="P2A">1</parameter><parameter name="P2L">1</parameter><parameter name="P2R">1</parameter><parameter name="P2K">1</parameter><parameter name="DAQ">0</parameter><parameter name="AG2">1</parameter><parameter name="SSM">1</parameter><parameter name="RSN">13071</parameter><parameter name="CRR">0</parameter><parameter name="SRT">1653652033.651</parameter><parameter name="DUR">19.635986328125</parameter><parameter name="TSC">27.8</parameter><parameter name="MVD">0.275096327066422</parameter><parameter name="AN1">0.225813125430293</parameter><parameter name="AN2">0</parameter><parameter name="VSN">2.485 Apr  4 2017</parameter><parameter name="SRN">0085</parameter><parameter name="CAM">0</parameter><parameter name="INS">IR-Biotyper</parameter><parameter name="FOC">69</parameter><parameter name="RDY">1</parameter></Instrument_Parameters_><History/></OPUSDataFile>
