<?xml version="1.0" encoding="UTF-8" ?>
<OPUSDataFile><AB><Ydata ylabel="Absorbance Units"><values byteorder="INTEL" format="FLOAT32" numvalues="3497"> -0.09608935 -0.09609729 -0.0961059 -0.09611547 -0.09612188 -0.09612494 -0.0961212 -0.09611107 -0.09609871 -0.09608504
 -0.09607795 -0.09607673 -0.09608373 -0.09609637 -0.09610948 -0.09612192 -0.09612864 -0.09613216 -0.09613258 -0.09613485
 -0.09614266 -0.09615985 -0.09619045 -0.0962325 -0.09628817 -0.09634605 -0.09640494 -0.09644961 -0.09647686 -0.09648173
 -0.09646248 -0.09643187 -0.09639052 -0.09635738 -0.09633272 -0.09632505 -0.09633288 -0.09635179 -0.09638061 -0.09641258
 -0.09644838 -0.09648655 -0.09652748 -0.09657237 -0.09661818 -0.09666293 -0.09670112 -0.09672736 -0.09673984 -0.09673467
 -0.0967173 -0.09668846 -0.0966543 -0.09661677 -0.09657756 -0.09653674 -0.09649836 -0.09646212 -0.09644164 -0.09643768
 -0.09646444 -0.09652135 -0.09660527 -0.09671256 -0.09681966 -0.09692384 -0.09700134 -0.09705508 -0.09707887 -0.09707963
 -0.09706547 -0.09704275 -0.09702215 -0.09700629 -0.09700174 -0.09700546 -0.09701934 -0.09703349 -0.09704584 -0.09704401
 -0.09702303 -0.09698363 -0.09692245 -0.09686356 -0.09680785 -0.09679002 -0.09681211 -0.09689144 -0.09702627 -0.09719778
 -0.09739961 -0.0975833 -0.09774476 -0.09783956 -0.09787647 -0.0978509 -0.09778114 -0.09769598 -0.09760685 -0.09754042
 -0.09749424 -0.09747784 -0.09747673 -0.09748638 -0.09749246 -0.09748601 -0.09747037 -0.09744243 -0.09741995 -0.09740588
 -0.09740935 -0.09743258 -0.09746643 -0.09751052 -0.09754799 -0.09757856 -0.09759474 -0.09759843 -0.09759714 -0.09759381
 -0.09760404 -0.09762761 -0.09767392 -0.09773636 -0.09780852 -0.09788378 -0.09794968 -0.09800917 -0.09806104 -0.09810723
 -0.09815145 -0.09818342 -0.09819877 -0.0981956 -0.09816758 -0.09814317 -0.09812397 -0.0981496 -0.09822626 -0.09835656
 -0.09854168 -0.0986935 -0.09880684 -0.09877725 -0.09862044 -0.09838519 -0.09809209 -0.0978489 -0.09765279 -0.09755244
 -0.09753232 -0.0975926 -0.09770655 -0.0978459 -0.09798215 -0.09807836 -0.09813391 -0.09813052 -0.09810463 -0.09806625
 -0.09804225 -0.09804696 -0.09806383 -0.09809377 -0.09810828 -0.09810286 -0.09807957 -0.09803798 -0.09801078 -0.09799939
 -0.09803218 -0.09810582 -0.09821557 -0.09835204 -0.09847798 -0.09858533 -0.09863234 -0.09862359 -0.09854345 -0.09841154
 -0.09824153 -0.0980598 -0.0978912 -0.09775666 -0.09767599 -0.09765452 -0.09770268 -0.09780299 -0.09795702 -0.09812755
 -0.09830987 -0.09846832 -0.0985983 -0.09868237 -0.09871913 -0.09870478 -0.09863987 -0.09853183 -0.09838314 -0.09821279
 -0.09802423 -0.09784009 -0.09766368 -0.09751459 -0.0973944 -0.09731673 -0.09727567 -0.09727308 -0.09729201 -0.0973203
 -0.09734154 -0.09733932 -0.09731898 -0.09727498 -0.09723178 -0.09719541 -0.09718002 -0.09719127 -0.09721901 -0.09726319
 -0.09730906 -0.09735558 -0.0973992 -0.09744001 -0.09748017 -0.09751958 -0.09755848 -0.09759662 -0.09763323 -0.09766828
 -0.09770164 -0.09773251 -0.09776004 -0.09778187 -0.09779409 -0.09779708 -0.09778669 -0.09777427 -0.09776191 -0.09777047
 -0.09780956 -0.09788902 -0.09801833 -0.09817432 -0.09835785 -0.09852418 -0.09866826 -0.09876429 -0.09881029 -0.09879278
 -0.09871129 -0.09855285 -0.09832352 -0.09805495 -0.09776106 -0.09751501 -0.09732313 -0.09724448 -0.09726439 -0.09739491
 -0.09759022 -0.09779989 -0.09798618 -0.09808712 -0.09812662 -0.09809613 -0.09804153 -0.0979823 -0.09793656 -0.09791697
 -0.09790887 -0.09791384 -0.09790141 -0.09786774 -0.09779895 -0.09769336 -0.09757204 -0.09743706 -0.0973279 -0.09724521
 -0.09721586 -0.09723239 -0.0972833 -0.09735241 -0.0973879 -0.09738818 -0.09731824 -0.09720518 -0.09707032 -0.09693176
 -0.09681833 -0.0967193 -0.09663817 -0.09655662 -0.09646497 -0.09636419 -0.09624998 -0.09614034 -0.09603845 -0.09595352
 -0.09588825 -0.09583222 -0.0957852 -0.09572546 -0.0956523 -0.09555191 -0.09542694 -0.09528988 -0.09514426 -0.09501217
 -0.09489257 -0.0947933 -0.0947135 -0.09465466 -0.09461757 -0.09460606 -0.09461366 -0.09464043 -0.09466656 -0.09468202
 -0.09466683 -0.0946092 -0.09450383 -0.09434708 -0.09413741 -0.09387328 -0.09355886 -0.09319276 -0.09279803 -0.09237581
 -0.09195524 -0.09153772 -0.09114674 -0.09078358 -0.09046959 -0.09020435 -0.09000044 -0.08985075 -0.08974397 -0.08967101
 -0.08960801 -0.08955495 -0.08950365 -0.08945199 -0.0894038 -0.08933001 -0.08921601 -0.08903416 -0.08875818 -0.08842254
 -0.0880269 -0.08762713 -0.08723596 -0.08687294 -0.0865435 -0.0862365 -0.08595166 -0.08567309 -0.08540086 -0.08513881
 -0.08488922 -0.08467407 -0.08448993 -0.08434058 -0.0842073 -0.08404172 -0.083828 -0.08350133 -0.08309066 -0.08260092
 -0.08207825 -0.08157023 -0.08109193 -0.08066843 -0.08029394 -0.07997345 -0.07969234 -0.07944977 -0.07922267 -0.0790078
 -0.0787817 -0.07854156 -0.07826896 -0.07796237 -0.07761101 -0.07721517 -0.07678302 -0.07631763 -0.07584658 -0.0753716
 -0.07491548 -0.07447595 -0.07405809 -0.07365976 -0.07327949 -0.07291531 -0.0725655 -0.07222442 -0.07188628 -0.07154771
 -0.07120346 -0.07085789 -0.07051328 -0.0701667 -0.0698212 -0.06945588 -0.06906699 -0.0686404 -0.06817124 -0.0676816
 -0.0671721 -0.06668036 -0.06620759 -0.06577151 -0.06537094 -0.06500566 -0.06467269 -0.06436075 -0.06406447 -0.06376234
 -0.06345303 -0.06312114 -0.06277496 -0.0624194 -0.06206086 -0.06171165 -0.06135955 -0.06100336 -0.0606219 -0.06020091
 -0.05974726 -0.05925486 -0.05875952 -0.05826784 -0.05780125 -0.05736534 -0.05694803 -0.05654931 -0.05614365 -0.05573027
 -0.05529872 -0.05485055 -0.05439449 -0.05393093 -0.05346673 -0.05299972 -0.0525256 -0.05204635 -0.05156145 -0.05107938
 -0.05061187 -0.05016317 -0.04974452 -0.04934686 -0.04896944 -0.04859817 -0.04822567 -0.04784713 -0.04745761 -0.04706632
 -0.04667377 -0.04629148 -0.04592231 -0.04555971 -0.04520408 -0.04482928 -0.04443435 -0.04400261 -0.04353723 -0.04305606
 -0.04256443 -0.04209767 -0.04165399 -0.04124887 -0.0408724 -0.04051226 -0.04016135 -0.03980204 -0.03943969 -0.03907119
 -0.03870873 -0.03836166 -0.03802978 -0.03771982 -0.03741046 -0.03709766 -0.03676043 -0.03639157 -0.03599467 -0.0355681
 -0.03512966 -0.03468065 -0.03423055 -0.03377979 -0.03333269 -0.03289069 -0.03246819 -0.03206652 -0.03170154 -0.0313691
 -0.03106734 -0.03078745 -0.03051063 -0.03023251 -0.02993679 -0.02962982 -0.0293107 -0.02898935 -0.02867452 -0.0283637
 -0.02806083 -0.02775001 -0.02742582 -0.02708368 -0.02671841 -0.02635145 -0.02598437 -0.02563948 -0.02531947 -0.02501586
 -0.02472757 -0.02442323 -0.02410261 -0.02374793 -0.02336505 -0.02297014 -0.02257193 -0.02220554 -0.02187305 -0.02159899
 -0.02137173 -0.02118823 -0.0210295 -0.02087535 -0.02071612 -0.02053719 -0.02034339 -0.02013288 -0.01991343 -0.01968739
 -0.01945851 -0.01922789 -0.0189977 -0.01876841 -0.01854068 -0.01831463 -0.01808954 -0.01786544 -0.01764446 -0.01742646
 -0.01721224 -0.01699936 -0.01677674 -0.01654212 -0.0162806 -0.01599721 -0.01569271 -0.01537831 -0.01507023 -0.01477576
 -0.01450919 -0.01426912 -0.01405963 -0.01387502 -0.01371396 -0.01357078 -0.01344392 -0.01332768 -0.01322117 -0.01311781
 -0.0130171 -0.01291049 -0.01279735 -0.0126694 -0.01252635 -0.01236586 -0.01218866 -0.01199979 -0.01180057 -0.01159925
 -0.01139785 -0.01120596 -0.01102633 -0.01086995 -0.01073604 -0.01063122 -0.01054469 -0.0104711 -0.01039282 -0.01029501
 -0.01017136 -0.01001001 -0.009831307 -0.009635895 -0.009456761 -0.009302565 -0.009184714 -0.009108426 -0.00905276 -0.009016773
 -0.008976415 -0.008931041 -0.008883692 -0.008836001 -0.00880578 -0.008791815 -0.008798704 -0.008821443 -0.008847025 -0.008872014
 -0.008882402 -0.008878928 -0.008855846 -0.008817513 -0.008765851 -0.008705527 -0.008641798 -0.008572129 -0.008498561 -0.008410352
 -0.00830334 -0.00817528 -0.008021281 -0.007864553 -0.007705525 -0.007581832 -0.007496932 -0.007469103 -0.007498577 -0.007566111
 -0.007668437 -0.007765678 -0.007857519 -0.007919747 -0.007958146 -0.007978284 -0.007984618 -0.007991638 -0.007994545 -0.007992484
 -0.007980641 -0.007949499 -0.00791014 -0.007864224 -0.007831818 -0.00782538 -0.007847538 -0.007906327 -0.007977974 -0.008060111
 -0.008125612 -0.008168856 -0.008187016 -0.008178251 -0.008166494 -0.00815306 -0.008167604 -0.008209835 -0.008290069 -0.00840326
 -0.008531066 -0.008666164 -0.008775366 -0.008856465 -0.008885709 -0.008872339 -0.008816013 -0.008736411 -0.008652261 -0.008581026
 -0.008543408 -0.00853859 -0.008575198 -0.008633396 -0.008709599 -0.008783565 -0.008849668 -0.008899706 -0.008932111 -0.008940767
 -0.008925513 -0.008872419 -0.008780861 -0.008642104 -0.008458515 -0.008248573 -0.008019221 -0.007815193 -0.007641981 -0.00754388
 -0.007514141 -0.007565517 -0.00767479 -0.007816188 -0.007962932 -0.008074678 -0.008146334 -0.008154529 -0.008127717 -0.008068843
 -0.008020903 -0.007999317 -0.008029133 -0.00812205 -0.008269001 -0.00847286 -0.008700165 -0.008948692 -0.00918736 -0.009414745
 -0.009620975 -0.009806797 -0.009977292 -0.01013201 -0.01027201 -0.01039415 -0.01048828 -0.01055317 -0.01057811 -0.01057141
 -0.01053603 -0.01049348 -0.01046418 -0.0104728 -0.01054572 -0.01068832 -0.01091629 -0.011203 -0.01154739 -0.01190672
 -0.01227203 -0.01261043 -0.0129152 -0.01317385 -0.01338387 -0.01355356 -0.01368357 -0.01380479 -0.01391938 -0.01406383
 -0.01423493 -0.01443746 -0.01466115 -0.01487277 -0.01507005 -0.01522588 -0.01535785 -0.01547927 -0.01561007 -0.01578216
 -0.01598861 -0.01624189 -0.01650612 -0.01676854 -0.01699565 -0.01716888 -0.01729006 -0.01735049 -0.01739199 -0.01741689
 -0.0174793 -0.01758491 -0.01775788 -0.01799925 -0.01828712 -0.01861853 -0.01895282 -0.0192895 -0.01960491 -0.01990112
 -0.02017366 -0.02042189 -0.02064218 -0.02083358 -0.02098991 -0.02111991 -0.02122711 -0.0213295 -0.02144133 -0.02157429
 -0.02174132 -0.02193402 -0.02215516 -0.02238276 -0.02261201 -0.02282886 -0.02302905 -0.02321824 -0.02339607 -0.02357695
 -0.02376159 -0.02395549 -0.02415806 -0.02436395 -0.02457294 -0.02478084 -0.02498878 -0.02519874 -0.02541095 -0.02562758
 -0.02584679 -0.02606645 -0.02628557 -0.02650141 -0.0267164 -0.02693101 -0.02714887 -0.02737268 -0.02760176 -0.02783747
 -0.02807397 -0.02831013 -0.02854168 -0.02876727 -0.02898907 -0.02920701 -0.02942521 -0.02964386 -0.02986228 -0.03008032
 -0.03029545 -0.03050847 -0.03072232 -0.03093845 -0.03116403 -0.03139819 -0.0316434 -0.03189584 -0.03215055 -0.03240473
 -0.03265301 -0.03289552 -0.03313201 -0.0333586 -0.03357596 -0.03377062 -0.03393759 -0.03406933 -0.03415844 -0.03422882
 -0.03427949 -0.03435957 -0.03447381 -0.03465242 -0.03489703 -0.03518864 -0.03552376 -0.03585396 -0.03617701 -0.03645421
 -0.03668925 -0.03687153 -0.03701187 -0.03712656 -0.03723199 -0.03736201 -0.03752476 -0.03774868 -0.03801477 -0.0383237
 -0.03863765 -0.03893465 -0.03919918 -0.03941441 -0.03960571 -0.03977548 -0.0399497 -0.04013699 -0.04031831 -0.0404947
 -0.04061701 -0.04068266 -0.04067192 -0.04058892 -0.04047839 -0.04034984 -0.04028321 -0.04027972 -0.04039215 -0.04060218
 -0.04089817 -0.04125129 -0.04160793 -0.04195561 -0.04225424 -0.04251883 -0.04274746 -0.04295764 -0.04316271 -0.04335609
 -0.04353925 -0.04370029 -0.04383213 -0.04395263 -0.04406135 -0.04419222 -0.04434993 -0.04453528 -0.04474851 -0.04495059
 -0.04514007 -0.04528632 -0.04539361 -0.04547132 -0.0455251 -0.04558197 -0.04563965 -0.04570735 -0.04577791 -0.04584171
 -0.04589922 -0.04594281 -0.04598825 -0.04604191 -0.04612744 -0.0462603 -0.0464506 -0.04671132 -0.04701907 -0.04737619
 -0.04773078 -0.04807601 -0.04836695 -0.04859665 -0.04876448 -0.04887 -0.04895845 -0.0490329 -0.04914679 -0.04929857
 -0.04950883 -0.04976834 -0.05005657 -0.05036278 -0.05065023 -0.05091603 -0.05113678 -0.0513202 -0.05146429 -0.05158246
 -0.05168358 -0.05178049 -0.05188262 -0.05199639 -0.05212791 -0.05227205 -0.05243041 -0.0525878 -0.05274179 -0.05288292
 -0.05300888 -0.0531309 -0.05324947 -0.05338541 -0.05353848 -0.05371071 -0.05389885 -0.05408242 -0.05426145 -0.0544225
 -0.05457385 -0.05472904 -0.05489424 -0.05508991 -0.05530703 -0.0555463 -0.05578901 -0.0560197 -0.0562284 -0.05640339
 -0.05654892 -0.05666395 -0.05675356 -0.05681962 -0.0568607 -0.05687617 -0.05686891 -0.05683785 -0.05680288 -0.05676497
 -0.05675694 -0.05677998 -0.05685868 -0.05699023 -0.05717177 -0.05739526 -0.05763093 -0.05787021 -0.05807678 -0.05824808
 -0.05836194 -0.05842396 -0.0584308 -0.05839248 -0.05831489 -0.0582088 -0.0580804 -0.057941 -0.05779479 -0.05765473
 -0.05752469 -0.05741373 -0.0573255 -0.05725311 -0.0571979 -0.05713136 -0.05705202 -0.05692449 -0.05674817 -0.05650726
 -0.05620586 -0.05586088 -0.05547899 -0.05509441 -0.05470998 -0.0543511 -0.05401424 -0.0537053 -0.05341876 -0.05315023
 -0.05289591 -0.05265198 -0.05241401 -0.05217961 -0.05194216 -0.05169805 -0.05144564 -0.05118154 -0.05091826 -0.05065547
 -0.05041729 -0.05020579 -0.05004282 -0.04992991 -0.04987314 -0.04987157 -0.04991174 -0.04999107 -0.05008633 -0.05019598
 -0.05030222 -0.05040433 -0.05049305 -0.05056478 -0.05060983 -0.05062402 -0.05059597 -0.05053154 -0.05042851 -0.05030358
 -0.05016611 -0.0500257 -0.04989109 -0.04975358 -0.04961314 -0.04945811 -0.04928489 -0.04909778 -0.04889595 -0.04869513
 -0.04849617 -0.04831391 -0.04814949 -0.0480212 -0.04793131 -0.04790527 -0.04794247 -0.04805783 -0.04824172 -0.04847999
 -0.04875795 -0.04904222 -0.04932788 -0.04959095 -0.04984653 -0.05009436 -0.0503643 -0.05067129 -0.05104307 -0.05149574
 -0.05203686 -0.05267614 -0.05338948 -0.05417873 -0.05499117 -0.05582313 -0.05661585 -0.05736537 -0.05803762 -0.05863286
 -0.05915399 -0.05960401 -0.0600043 -0.06035644 -0.06067695 -0.0609672 -0.06123701 -0.06149168 -0.06174459 -0.06200041
 -0.06227286 -0.06255548 -0.06285086 -0.06314105 -0.06341733 -0.06366371 -0.06387052 -0.0640348 -0.06415243 -0.06423186
 -0.0642732 -0.06428869 -0.06427984 -0.06425292 -0.06420851 -0.06414301 -0.06405663 -0.06395072 -0.06382935 -0.06371975
 -0.06362934 -0.06360413 -0.06364398 -0.06377671 -0.06398668 -0.0642626 -0.06458049 -0.06490659 -0.0652239 -0.06550434
 -0.06574769 -0.0659427 -0.06610618 -0.06624021 -0.06636726 -0.06649489 -0.06663198 -0.06678344 -0.06693672 -0.06709124
 -0.06723242 -0.06735878 -0.067484 -0.06761056 -0.06778523 -0.06801098 -0.06833494 -0.06875062 -0.06926237 -0.06985056
 -0.07046787 -0.07109523 -0.07167245 -0.0722016 -0.07265587 -0.07305884 -0.07342137 -0.07376427 -0.07410618 -0.07444694
 -0.07479267 -0.07513139 -0.0754606 -0.07577318 -0.07606712 -0.07634119 -0.076595 -0.07682865 -0.07704205 -0.07723808
 -0.07741711 -0.0775862 -0.07774598 -0.07790456 -0.07806211 -0.07822417 -0.07838946 -0.07855836 -0.07872713 -0.07888941
 -0.07904184 -0.07917593 -0.07929503 -0.07939663 -0.07949243 -0.07958817 -0.07969432 -0.07981916 -0.0799571 -0.0801115
 -0.08025886 -0.08039583 -0.08050203 -0.08057296 -0.0806171 -0.08063418 -0.08065665 -0.0806856 -0.08074146 -0.08082143
 -0.08091423 -0.081017 -0.08110982 -0.08119672 -0.08127788 -0.08135933 -0.08145461 -0.081561 -0.08168265 -0.08180951
 -0.08193368 -0.08204914 -0.0821489 -0.08223435 -0.08230393 -0.08236199 -0.08240868 -0.08245102 -0.08248951 -0.08253449
 -0.08258736 -0.08265349 -0.08273353 -0.08282219 -0.08291899 -0.08301466 -0.08310915 -0.08319817 -0.0832821 -0.08336023
 -0.08343261 -0.08349849 -0.08355884 -0.08361474 -0.08366805 -0.08372243 -0.08377668 -0.08383232 -0.0838834 -0.08392686
 -0.0839578 -0.08397199 -0.08397301 -0.08395921 -0.08394367 -0.08392785 -0.08392648 -0.08394197 -0.08397847 -0.08403679
 -0.08410592 -0.08418508 -0.08425765 -0.08432385 -0.08437713 -0.08441983 -0.08445855 -0.08449493 -0.08453786 -0.0845853
 -0.08463864 -0.08469269 -0.08474121 -0.08478051 -0.08480366 -0.08481371 -0.08480844 -0.08479892 -0.08478817 -0.08478899
 -0.08480603 -0.08484534 -0.08490995 -0.08499495 -0.08510099 -0.08521406 -0.08533337 -0.08544382 -0.08554488 -0.08562891
 -0.08569663 -0.08575013 -0.08579055 -0.08582363 -0.08585016 -0.08587503 -0.08589911 -0.08592642 -0.08595724 -0.08599433
 -0.08603525 -0.08607904 -0.08612259 -0.08616311 -0.08620091 -0.08623483 -0.08626834 -0.08630225 -0.08633885 -0.08637871
 -0.08642313 -0.08647241 -0.08652677 -0.08658639 -0.08664635 -0.08670625 -0.08675681 -0.08679801 -0.08682495 -0.08683917
 -0.08684479 -0.08684369 -0.08684329 -0.08684448 -0.08685233 -0.0868673 -0.08689234 -0.08692673 -0.08697177 -0.08702371
 -0.08708121 -0.08713923 -0.08719492 -0.08724658 -0.08729251 -0.08733547 -0.08737552 -0.08741653 -0.08745914 -0.08750432
 -0.08755232 -0.08759972 -0.08764627 -0.08768649 -0.08772045 -0.08774566 -0.08776326 -0.08777659 -0.08778749 -0.08780299
 -0.08782399 -0.08785632 -0.087898 -0.08795001 -0.08800665 -0.08806345 -0.08811469 -0.08815449 -0.08818285 -0.08819688
 -0.08820376 -0.08820455 -0.08820724 -0.08821373 -0.08822798 -0.08825089 -0.08828256 -0.08832318 -0.08836971 -0.0884219
 -0.0884731 -0.08852284 -0.08856396 -0.08859695 -0.0886196 -0.08863401 -0.08864485 -0.08865431 -0.08866927 -0.08868974
 -0.0887194 -0.08875519 -0.08879611 -0.08883776 -0.08887681 -0.08891103 -0.0889381 -0.08895942 -0.0889748 -0.08898643
 -0.08899477 -0.08900103 -0.08900521 -0.08901003 -0.08901555 -0.08902742 -0.08904586 -0.08907416 -0.08911163 -0.08915403
 -0.08920009 -0.08924119 -0.08927758 -0.08930489 -0.0893254 -0.0893416 -0.08935521 -0.08937003 -0.08938584 -0.08940373
 -0.08942318 -0.08944345 -0.08946686 -0.08949418 -0.08952769 -0.08956945 -0.08961479 -0.08966442 -0.0897058 -0.08973734
 -0.08975063 -0.08974438 -0.08972631 -0.08969709 -0.08967469 -0.08965932 -0.08966077 -0.08967686 -0.0897025 -0.0897355
 -0.0897663 -0.08979496 -0.08981703 -0.08983341 -0.08984334 -0.08984808 -0.08984749 -0.08984611 -0.08984634 -0.08985348
 -0.08987212 -0.08989901 -0.08993597 -0.08997014 -0.08999904 -0.09001415 -0.09001285 -0.09000217 -0.08998217 -0.0899663
 -0.08995499 -0.08995084 -0.08995277 -0.0899516 -0.08994688 -0.08993077 -0.0899056 -0.08987392 -0.08983902 -0.08980913
 -0.08978546 -0.08977386 -0.08977229 -0.08978152 -0.0897974 -0.08981763 -0.08983831 -0.08985688 -0.08987204 -0.0898824
 -0.08989009 -0.08989508 -0.08990084 -0.08990782 -0.08991864 -0.08993364 -0.08995301 -0.0899767 -0.09000154 -0.09002715
 -0.09004863 -0.09006609 -0.09007741 -0.09008359 -0.09008662 -0.09008718 -0.09008765 -0.09008805 -0.09008896 -0.09009156
 -0.09009685 -0.09010702 -0.09012451 -0.09014847 -0.09018037 -0.09021396 -0.09024811 -0.09027553 -0.09029418 -0.09030159
 -0.09029661 -0.09028339 -0.09026194 -0.09024029 -0.09021883 -0.09020425 -0.0901964 -0.09019674 -0.09020445 -0.09021626
 -0.09023161 -0.09024704 -0.09026283 -0.09027819 -0.09029286 -0.09030674 -0.09031782 -0.09032405 -0.09032394 -0.09031461
 -0.09029959 -0.09027854 -0.09025964 -0.09024553 -0.09024151 -0.09025012 -0.09026819 -0.09029604 -0.09032672 -0.09035966
 -0.09039035 -0.09041858 -0.09044214 -0.09046081 -0.09047139 -0.09047387 -0.09046619 -0.09044919 -0.09042411 -0.09039233
 -0.09035709 -0.09032013 -0.09028503 -0.09025379 -0.0902301 -0.0902138 -0.09020684 -0.09020527 -0.09020791 -0.0902109
 -0.09021205 -0.09021241 -0.09021152 -0.09021279 -0.09021689 -0.09022405 -0.09023453 -0.09024469 -0.09025434 -0.09025975
 -0.090261 -0.0902575 -0.09024975 -0.0902399 -0.09022834 -0.0902176 -0.09020737 -0.09019829 -0.09018974 -0.09018108
 -0.09017193 -0.09016182 -0.09015004 -0.09013611 -0.09011912 -0.09009805 -0.09007432 -0.09004761 -0.09002213 -0.08999873
 -0.08998036 -0.08996775 -0.08996052 -0.08995878 -0.0899605 -0.08996558 -0.08997209 -0.08997997 -0.08998791 -0.08999608
 -0.09000468 -0.09001387 -0.09002466 -0.09003612 -0.09004714 -0.09005562 -0.09005779 -0.09005269 -0.0900374 -0.09001338
 -0.08998023 -0.08994118 -0.0898972 -0.08985253 -0.08980834 -0.0897695 -0.08973733 -0.08971496 -0.08970359 -0.08969999
 -0.08970434 -0.08970775 -0.08970977 -0.08970292 -0.08968762 -0.08966546 -0.08963813 -0.08961543 -0.0895985 -0.08959642
 -0.08960877 -0.0896387 -0.08968616 -0.0897515 -0.08983728 -0.08994559 -0.09008059 -0.09024561 -0.09044422 -0.09067874
 -0.0909522 -0.09126636 -0.0916217 -0.09201981 -0.09245382 -0.09292446 -0.09341381 -0.0939212 -0.09441972 -0.09490781
 -0.09535141 -0.09574915 -0.09607433 -0.09632776 -0.09650379 -0.09659678 -0.09659009 -0.09646647 -0.09616691 -0.09571227
 -0.09508782 -0.09437681 -0.09366254 -0.09300569 -0.09248449 -0.09210155 -0.09188067 -0.09180117 -0.09186532 -0.09203571
 -0.09231421 -0.09261548 -0.09293282 -0.09315551 -0.09326947 -0.09326123 -0.09313036 -0.09296764 -0.09277663 -0.09262811
 -0.09251564 -0.09244218 -0.09239589 -0.09233789 -0.09226342 -0.0921377 -0.0919744 -0.09177691 -0.0915659 -0.09136933
 -0.09118714 -0.09103388 -0.09088523 -0.09073202 -0.09055769 -0.09034927 -0.09012266 -0.08987653 -0.08964146 -0.08942249
 -0.08923525 -0.08908264 -0.08895678 -0.08885729 -0.08876432 -0.08867727 -0.08858226 -0.08848056 -0.08837185 -0.08825818
 -0.08814604 -0.08803726 -0.08793894 -0.08785252 -0.08778385 -0.08773187 -0.08769932 -0.08767933 -0.08766931 -0.08765833
 -0.08764029 -0.08760756 -0.08755492 -0.08748404 -0.08739278 -0.08729299 -0.0871853 -0.08708566 -0.08699574 -0.08692417
 -0.08687142 -0.08683241 -0.08680631 -0.08678108 -0.0867566 -0.08672553 -0.08668926 -0.08664868 -0.08660538 -0.08656359
 -0.08652389 -0.08648969 -0.08645925 -0.08643271 -0.08640588 -0.08637544 -0.08633912 -0.08629343 -0.08624326 -0.0861889
 -0.08613774 -0.08609239 -0.08605316 -0.08602116 -0.08598978 -0.08595845 -0.08592296 -0.08588306 -0.08584185 -0.08579966
 -0.08576197 -0.0857284 -0.08569998 -0.08567525 -0.08564954 -0.08562194 -0.08558732 -0.08554734 -0.08550195 -0.08545409
 -0.08540741 -0.0853628 -0.08532261 -0.08528513 -0.08524992 -0.08521614 -0.08518312 -0.08515184 -0.08512272 -0.08509503
 -0.08506913 -0.08504099 -0.08501025 -0.0849742 -0.08493268 -0.08488775 -0.08483964 -0.08479233 -0.08474565 -0.08470066
 -0.08465681 -0.0846123 -0.08456774 -0.08452333 -0.0844807 -0.08444314 -0.08441025 -0.08438385 -0.08435993 -0.08433622
 -0.08430885 -0.08427427 -0.0842337 -0.08418595 -0.08413644 -0.08408619 -0.08403964 -0.08399786 -0.08396188 -0.08393208
 -0.08390653 -0.08388516 -0.08386397 -0.08384269 -0.08381711 -0.08378731 -0.08375143 -0.08371046 -0.08366658 -0.08362154
 -0.0835807 -0.08354496 -0.08351902 -0.08350077 -0.08349039 -0.08348332 -0.08347596 -0.08346547 -0.08344864 -0.08342698
 -0.08340001 -0.08337086 -0.08334051 -0.08330951 -0.08327825 -0.08324532 -0.08321052 -0.08317393 -0.08313555 -0.08309747
 -0.08305971 -0.08302298 -0.08298691 -0.08294924 -0.08290993 -0.08286712 -0.08282202 -0.08277642 -0.0827319 -0.08269229
 -0.08265741 -0.08262895 -0.08260512 -0.08258504 -0.08256722 -0.08255056 -0.08253434 -0.08251819 -0.0825012 -0.08248301
 -0.08246352 -0.08244248 -0.08242136 -0.08240029 -0.08238069 -0.08236267 -0.08234509 -0.08232772 -0.0823067 -0.08228164
 -0.08224794 -0.08220614 -0.08215511 -0.0820972 -0.08203732 -0.08197801 -0.08192636 -0.08188178 -0.08184703 -0.08181875
 -0.08179494 -0.08177352 -0.08175261 -0.08173194 -0.08171138 -0.0816893 -0.08166534 -0.08163784 -0.08160594 -0.08157276
 -0.08153836 -0.08150792 -0.08148178 -0.08145879 -0.08143844 -0.08141267 -0.08138137 -0.08133925 -0.08128821 -0.08123216
 -0.08117381 -0.08112228 -0.08107807 -0.08104701 -0.08102621 -0.08101501 -0.08100943 -0.08100571 -0.0810023 -0.08099704
 -0.08099058 -0.08098305 -0.08097362 -0.08096264 -0.08094626 -0.08092376 -0.08089314 -0.08085383 -0.08080866 -0.08075772
 -0.08070628 -0.08065452 -0.08060589 -0.08056035 -0.08051941 -0.08048272 -0.08044996 -0.08042051 -0.08039258 -0.08036592
 -0.08033893 -0.08031265 -0.0802878 -0.08026488 -0.08024546 -0.08022666 -0.08020786 -0.08018473 -0.08015514 -0.08011763
 -0.0800707 -0.08001778 -0.0799586 -0.07990057 -0.07984421 -0.07979781 -0.07976197 -0.07973853 -0.0797269 -0.07971749
 -0.07970923 -0.07968942 -0.07965963 -0.07961845 -0.07956967 -0.07952292 -0.07947906 -0.0794451 -0.07941735 -0.07939401
 -0.07937207 -0.07934746 -0.07932175 -0.07929429 -0.07926839 -0.07924575 -0.0792261 -0.07921033 -0.07919419 -0.07917717
 -0.07915527 -0.07912779 -0.07909493 -0.07905661 -0.0790167 -0.0789753 -0.07893463 -0.07889427 -0.07885233 -0.07880858
 -0.07876056 -0.07870968 -0.07865775 -0.07860709 -0.078563 -0.07852584 -0.07849916 -0.0784795 -0.07846571 -0.07845303
 -0.07843772 -0.07841939 -0.07839622 -0.07837235 -0.07834889 -0.07832734 -0.07830879 -0.07828879 -0.07826696 -0.07823957
 -0.07820627 -0.07816854 -0.07812647 -0.07808214 -0.0780354 -0.07798585 -0.07793401 -0.0778816 -0.07782979 -0.07778322
 -0.0777411 -0.07770491 -0.07767165 -0.07763775 -0.07760227 -0.07756217 -0.07752089 -0.07747965 -0.07744119 -0.07740807
 -0.07737663 -0.07734721 -0.07731213 -0.0772697 -0.07721724 -0.07715365 -0.07708548 -0.07701302 -0.07694492 -0.0768813
 -0.07682454 -0.07677391 -0.07672553 -0.076679 -0.07663042 -0.07658049 -0.07652896 -0.07647675 -0.0764254 -0.07637545
 -0.07632822 -0.07628379 -0.07624279 -0.07620477 -0.07617002 -0.07613669 -0.07610457 -0.07607024 -0.07603277 -0.07598952
 -0.07593936 -0.07588457 -0.07582492 -0.0757665 -0.07570974 -0.07565676 -0.07560735 -0.07555667 -0.07550441 -0.07544572
 -0.07538177 -0.07531473 -0.07524627 -0.07518224 -0.07512281 -0.07507122 -0.07502631 -0.0749882 -0.0749549 -0.0749253
 -0.07489593 -0.07486484 -0.0748281 -0.0747831 -0.07472985 -0.07466688 -0.07460003 -0.07452977 -0.07446319 -0.07440136
 -0.0743464 -0.07429863 -0.07425398 -0.07421228 -0.07416973 -0.07412679 -0.07408524 -0.07404548 -0.07401101 -0.07397979
 -0.07394867 -0.07391425 -0.07386816 -0.07380987 -0.07373396 -0.07364509 -0.07354443 -0.07343963 -0.07333544 -0.07323763
 -0.07315054 -0.07307353 -0.07300809 -0.07294836 -0.07289348 -0.07283914 -0.0727845 -0.07273006 -0.07267582 -0.07262178
 -0.07256777 -0.07251015 -0.07244896 -0.07238252 -0.07231185 -0.07224027 -0.07216869 -0.07210127 -0.07203813 -0.07198146
 -0.07193088 -0.0718876 -0.07184865 -0.07181296 -0.07177426 -0.07172822 -0.07167131 -0.07159959 -0.0715177 -0.0714256
 -0.07133051 -0.07123413 -0.07113872 -0.07104488 -0.07095183 -0.07085951 -0.07076947 -0.07068194 -0.07060183 -0.07052947
 -0.07046989 -0.07042255 -0.07038872 -0.07036579 -0.0703482 -0.07033163 -0.07030517 -0.07026681 -0.070208 -0.07013286
 -0.07004134 -0.06994005 -0.06983338 -0.06972466 -0.06961685 -0.06950918 -0.06940205 -0.06929386 -0.06918386 -0.06907437
 -0.06896509 -0.068863 -0.06876849 -0.06868871 -0.06862379 -0.06857551 -0.06854288 -0.06852002 -0.06850417 -0.06848045
 -0.06844629 -0.06838483 -0.0682998 -0.06818844 -0.06806036 -0.06792761 -0.06779608 -0.06767624 -0.06756788 -0.06747419
 -0.06739249 -0.06732295 -0.06726087 -0.06720607 -0.06714953 -0.06709012 -0.06701729 -0.06692927 -0.06682258 -0.06669658
 -0.06655854 -0.06640905 -0.06626058 -0.06611367 -0.06597847 -0.06585437 -0.06574447 -0.06564703 -0.06555908 -0.06547869
 -0.06540107 -0.06532429 -0.06524401 -0.06515859 -0.06506434 -0.06496269 -0.06485243 -0.06473889 -0.06462438 -0.06451143
 -0.06440241 -0.06429229 -0.06418072 -0.06406175 -0.06393386 -0.06380086 -0.06366267 -0.06353072 -0.06340538 -0.06329221
 -0.06318977 -0.06308904 -0.0629877 -0.06286911 -0.06273502 -0.06258044 -0.06241151 -0.06223872 -0.06206455 -0.0618981
 -0.06173598 -0.06157798 -0.06142163 -0.06126398 -0.06110812 -0.06095421 -0.06080696 -0.06066852 -0.06053872 -0.06041915
 -0.06030108 -0.06018473 -0.06005164 -0.05990044 -0.05971755 -0.05950312 -0.05926985 -0.05901979 -0.05877696 -0.05854059
 -0.05832021 -0.05811286 -0.05791482 -0.05772408 -0.05753494 -0.0573467 -0.05715566 -0.056963 -0.05676807 -0.05657358
 -0.0563822 -0.05619193 -0.05600505 -0.05580901 -0.05560098 -0.05536927 -0.05510912 -0.05482661 -0.05452132 -0.05420522
 -0.0538794 -0.05354556 -0.05320392 -0.0528586 -0.05251079 -0.05217429 -0.05184781 -0.05153528 -0.05122912 -0.05090922
 -0.05056902 -0.05018158 -0.04975548 -0.0492879 -0.04879826 -0.04830597 -0.0478192 -0.04735068 -0.04689736 -0.04646108
 -0.04603712 -0.04562517 -0.04521833 -0.04481744 -0.0444035 -0.04397643 -0.04349933 -0.04296903 -0.04236469 -0.04168694
 -0.04098027 -0.0402482 -0.03954425 -0.03886231 -0.03820118 -0.03755296 -0.03689235 -0.03621818 -0.03551608 -0.03478762
 -0.03403165 -0.03324228 -0.03241803 -0.03153945 -0.03059411 -0.02956522 -0.02843296 -0.02722577 -0.02593903 -0.0246437
 -0.02335384 -0.02211685 -0.020943 -0.01983739 -0.01880219 -0.01781742 -0.0168812 -0.01594354 -0.01499877 -0.01396725
 -0.01285642 -0.01164677 -0.01037633 -0.009159843 -0.008004159 -0.006992061 -0.006078877 -0.005233375 -0.004424067 -0.003601891
 -0.002771358 -0.001919368 -0.001061228 -0.000203702 0.0006532739 0.001510239 0.00235943 0.003201673 0.004015314 0.004795854
 0.005545547 0.006263797 0.006965371 0.007650292 0.008301636 0.008917241 0.009466987 0.009954638 0.01038179 0.01075604
 0.0111038 0.01142428 0.01173106 0.012014 0.01226028 0.01247347 0.01264857 0.01280252 0.01294691 0.01308853
 0.01323641 0.01338061 0.01352112 0.0136429 0.0137431 0.01380974 0.01384119 0.01382636 0.01376382 0.01365351
 0.01349594 0.01331784 0.01312068 0.01293035 0.01274429 0.01256224 0.01238299 0.01219986 0.01201992 0.01185303
 0.01171007 0.01161353 0.01156284 0.01156727 0.01161854 0.01171071 0.0118479 0.01202984 0.01226369 0.012556
 0.01289023 0.01326549 0.01365851 0.01406418 0.0144843 0.0149181 0.01537942 0.0158688 0.01639112 0.01694618
 0.01753327 0.01815259 0.01880555 0.0194911 0.02020732 0.02095156 0.02171691 0.02250247 0.02330353 0.02412158
 0.02495592 0.02580985 0.026685 0.02758541 0.02851435 0.0294704 0.03045489 0.03146083 0.03248719 0.03352775
 0.03458247 0.03563927 0.03669768 0.03773741 0.0387577 0.03975715 0.04073799 0.04172724 0.04272043 0.04371433
 0.04469078 0.04558544 0.04639541 0.04707845 0.04765169 0.04812668 0.04850675 0.04880151 0.04900522 0.04911402
 0.04913271 0.04906925 0.04890167 0.04864001 0.04819059 0.0475325 0.04660534 0.04537515 0.04401965 0.04254941
 0.04113647 0.03978733 0.03845262 0.03712666 0.03573088 0.03427024 0.03273218 0.03112237 0.02946074 0.02773049
 0.0259147 0.02397168 0.02180963 0.0194637 0.01688204 0.0142765 0.0117987 0.009544726 0.007646736 0.005952565
 0.004438081 0.002979721 0.001532517 0.0001031792 -0.001316788 -0.002676166 -0.003969112 -0.00519761 -0.006362077 -0.007509644
 -0.008641149 -0.009784111 -0.01093182 -0.01206367 -0.01317122 -0.0142134 -0.01519244 -0.01609005 -0.01691952 -0.01769181
 -0.01842165 -0.01912669 -0.01982236 -0.02052074 -0.02124624 -0.02201511 -0.02283856 -0.02374111 -0.02464404 -0.02554201
 -0.02632164 -0.02695405 -0.02746912 -0.02786366 -0.0282287 -0.02856845 -0.02891439 -0.02926357 -0.02959048 -0.02989425
 -0.03015498 -0.03038009 -0.0305869 -0.03077534 -0.03095859 -0.03112134 -0.03124511 -0.03131938 -0.03132078 -0.03126084
 -0.03113992 -0.0309717 -0.03076571 -0.03052055 -0.03023885 -0.0299128 -0.02954232 -0.02911469 -0.02863019 -0.02806062
 -0.02740304 -0.02664115 -0.02577456 -0.02486535 -0.02391969 -0.02303307 -0.02220153 -0.02145147 -0.02077491 -0.02015562
 -0.01959648 -0.01909767 -0.01866013 -0.01829345 -0.01797464 -0.01769025 -0.01739756 -0.01705602 -0.01665407 -0.0161603
 -0.01563432 -0.01509014 -0.01457404 -0.01410623 -0.0136715 -0.0132718 -0.01287838 -0.01248834 -0.01208949 -0.01168114
 -0.01126663 -0.01084602 -0.01042228 -0.009993222 -0.009549352 -0.009085677 -0.008580092 -0.008029416 -0.007413048 -0.006736754
 -0.006000021 -0.005210377 -0.004378622 -0.003501152 -0.00257787 -0.001607557 -0.000584856 0.0004722824 0.001560541 0.002657859
 0.003755877 0.00485603 0.005955852 0.007073307 0.008211368 0.009360948 0.01052149 0.01162972 0.01268154 0.01360728
 0.01440835 0.01505922 0.01556056 0.01590458 0.01608286 0.01607238 0.0158655 0.0154352 0.01479152 0.01392935
 0.01287756 0.01165389 0.0102878 0.00879989 0.007204289 0.005508717 0.00372556 0.001850844 -6.132727E-05 -0.002010189
 -0.003898034 -0.005714862 -0.007403621 -0.008960837 -0.01041284 -0.01176252 -0.01305673 -0.01429208 -0.01547345 -0.01659271
 -0.0176209 -0.01855971 -0.01939459 -0.02014071 -0.02081424 -0.0214326 -0.02202169 -0.02259131 -0.02315914 -0.02372229
 -0.02428638 -0.024837 -0.02537123 -0.02587343 -0.02633817 -0.02676208 -0.02714238 -0.02749083 -0.02780802 -0.0281073
 -0.02838945 -0.02865221 -0.02889432 -0.02909754 -0.02926145 -0.02937315 -0.02943585 -0.02945375 -0.02943088 -0.02937867
 -0.02929963 -0.02920274 -0.02908935 -0.02896411 -0.02882826 -0.02868278 -0.02853306 -0.02837941 -0.02823626 -0.02810732
 -0.02800966 -0.02794828 -0.02793285 -0.02796625 -0.02804844 -0.0281802 -0.02835371 -0.0285686 -0.02880921 -0.02907434
 -0.02934488 -0.02961968 -0.02988254 -0.03013238 -0.03035675 -0.03055505 -0.03071909 -0.03085012 -0.03094606 -0.03100962
 -0.03104315 -0.03104858 -0.03102772 -0.03098313 -0.03091519 -0.03083101 -0.03073205 -0.03062866 -0.03052341 -0.03042444
 -0.03033361 -0.03025405 -0.03018632 -0.03013086 -0.0300877 -0.03005804 -0.03004214 -0.03004409 -0.03006409 -0.03010612
 -0.03016873 -0.03024969 -0.03034573 -0.03044822 -0.03055411 -0.03065431 -0.03074777 -0.03082907 -0.0309004 -0.03096037
 -0.03101583 -0.03106933 -0.03112898 -0.03119922 -0.03128113 -0.03137708 -0.03147934 -0.03158734 -0.03169272 -0.03179451
 -0.03188821 -0.03197351 -0.03204676 -0.0321078 -0.03215297 -0.03218259 -0.03219669 -0.0321961 -0.03218448 -0.03216128
 -0.0321277 -0.03208111 -0.03201754 -0.03193542 -0.03182957 -0.03170479 -0.03156115 -0.03140977 -0.03125665 -0.03110999
 -0.03097578 -0.03085131 -0.0307379 -0.03062716 -0.03051738 -0.03040653 -0.03029383 -0.03018425 -0.03007806 -0.02997949
 -0.02988849 -0.02980507 -0.0297288 -0.02965712 -0.02958959 -0.02952292 -0.02945748 -0.02939174 -0.0293282 -0.02926997
 -0.02922017 -0.02918444 -0.02916235 -0.02915636 -0.02916231 -0.02917827 -0.02920209 -0.02923162 -0.02927001 -0.02931798
 -0.02937669 -0.02944765 -0.02952195 -0.02959927 -0.02966636 -0.02972234 -0.02976256 -0.02978744 -0.02980346 -0.02981136
 -0.02981919 -0.02982681 -0.02983786 -0.02985203 -0.02987064 -0.02989289 -0.02991864 -0.02994532 -0.02997007 -0.02999019
 -0.03000179 -0.03000575 -0.03000064 -0.02999095 -0.02997788 -0.02996556 -0.02995583 -0.02994813 -0.02994324 -0.02993553
 -0.02992449 -0.02990583 -0.02987919 -0.02984713 -0.02980991 -0.0297724 -0.02973399 -0.02969317 -0.02964849 -0.02959315
 -0.02952695 -0.0294456 -0.02935029 -0.02924087 -0.02911931 -0.02898761 -0.02884826 -0.02870444 -0.02855615 -0.02840565
 -0.02824719 -0.02807989 -0.02789557 -0.02769175 -0.02746407 -0.02721124 -0.02693223 -0.02662652 -0.02629659 -0.02594244
 -0.02557425 -0.02519279 -0.02481239 -0.02443275 -0.02405941 -0.02369015 -0.02331912 -0.02294477 -0.02255969 -0.02216469
 -0.02175756 -0.02134003 -0.02091303 -0.02047896 -0.02003913 -0.01959862 -0.01915928 -0.0187298 -0.01831313 -0.01791887
 -0.01755097 -0.01721114 -0.01690196 -0.01661133 -0.01633884 -0.01606779 -0.01579699 -0.01551993 -0.01523661 -0.01494834
 -0.01465471 -0.01435349 -0.01404333 -0.01371756 -0.01337542 -0.01301163 -0.01262601 -0.01221523 -0.01178108 -0.01132284
 -0.01084718 -0.01035854 -0.009865122 -0.009373236 -0.008886583 -0.008407858 -0.007939293 -0.007480999 -0.007039319 -0.006614923
 -0.006215466 -0.005841751 -0.005500188 -0.005191265 -0.00491892 -0.004682659 -0.004474103 -0.004290345 -0.004106669 -0.003920646
 -0.003708138 -0.003471232 -0.003202289 -0.00290644 -0.002588218 -0.002254912 -0.001915945 -0.001580796 -0.001261779 -0.0009613328
 -0.0006869395 -0.0004285437 -0.0001841074 5.584458E-05 0.000294955 0.0005351455 0.0007762394 0.001026118 0.001284785 0.001568422
 0.001878193 0.002221546 0.00259815 0.003000377 0.003426881 0.003865011 0.004313078 0.004757998 0.005197764 0.005620494
 0.006024915 0.006403826 0.006755376 0.007075157 0.007359759 0.007604131 0.007808246 0.007970072 0.008092622 0.008177555
 0.008223236 0.00822923 0.008195209 0.008119013 0.008015138 0.007884281 0.007745763 0.007601104 0.007455534 0.007309237
 0.007163153 0.007019165 0.006892463 0.006784368 0.006711395 0.006667344 0.006646253 0.006636338 0.00661298 0.006568591
 0.006481132 0.006354714 0.006182414 0.005979681 0.005753196 0.005517235 0.005281596 0.005044577 0.004809177 0.004563424
 0.004304887 0.00402949 0.003735803 0.003429635 0.003111207 0.002787551 0.002459213 0.002136494 0.001820291 0.001523422
 0.001244366 0.0009849103 0.0007400452 0.0004969783 0.0002520467 -7.894995E-06 -0.0002832677 -0.0005802148 -0.0008971041 -0.001235619
 -0.00159054 -0.001959369 -0.002337385 -0.002719887 -0.003113335 -0.00351711 -0.003944998 -0.00440029 -0.004886929 -0.005406618
 -0.005951259 -0.006520483 -0.007105755 -0.007706634 -0.00831598 -0.008932898 -0.009547648 -0.01015861 -0.01075411 -0.01133209
 -0.01188082 -0.01239936 -0.01287862 -0.01332376 -0.01373601 -0.01412542 -0.01450247 -0.01487083 -0.0152376 -0.01559697
 -0.01594754 -0.01628672 -0.01661223 -0.01692928 -0.01723857 -0.01754375 -0.01784563 -0.01814292 -0.01843561 -0.01872117
 -0.01899926 -0.01926276 -0.01951067 -0.01973131 -0.01992496 -0.02008589 -0.02021674 -0.02032198 -0.02040377 -0.02046845
 -0.0205166 -0.02055116 -0.02057322 -0.02058439 -0.0205864 -0.0205806 -0.02056864 -0.02055168 -0.02053005 -0.02050488
 -0.02047181 -0.02043021 -0.02037609 -0.02030802 -0.02023307 -0.02015146 -0.02007527 -0.02000461 -0.01993749 -0.01987265
 -0.01979741 -0.01971348 -0.01962087 -0.01952384 -0.01943616 -0.01935665 -0.01929126 -0.01923295 -0.01917408 -0.01911101
 -0.01903607 -0.01895314 -0.01886156 -0.0187684 -0.01867642 -0.01859131 -0.01851577 -0.01845081 -0.01839788 -0.01835141
 -0.01831139 -0.0182682 -0.01822123 -0.01816095 -0.01808708 -0.01799583 -0.01788859 -0.01777406 -0.01765551 -0.01755268
 -0.01746666 -0.01741221 -0.01738524 -0.0173853 -0.01740671 -0.01744164 -0.01748596 -0.01753433 -0.01758045 -0.01762029
 -0.01764443 -0.01764779 -0.01762453 -0.01757081 -0.01748924 -0.01737873 -0.01724855 -0.01709937 -0.01694172 -0.01677656
 -0.01660781 -0.0164354 -0.01625271 -0.0160597 -0.01585163 -0.01563172 -0.01541155 -0.01519565 -0.01500491 -0.0148378
 -0.01470372 -0.01459283 -0.01449634 -0.01440391 -0.01430108 -0.01418655 -0.01405366 -0.01390936 -0.01375516 -0.01359675
 -0.01343669 -0.01327545 -0.01311297 -0.01295243 -0.01279355 -0.01264565 -0.01250944 -0.01239118 -0.01229101 -0.01220759
 -0.01214083 -0.01208983 -0.01205419 -0.01203378 -0.01202413 -0.012014 -0.01199493 -0.0119436 -0.01185735 -0.01171875
 -0.01154004 -0.011323 -0.01109063 -0.01085817 -0.01064268 -0.01045838 -0.01030239 -0.01017939 -0.01007072 -0.009973954
 -0.009871375 -0.00975998 -0.009632768 -0.009488787 -0.009328403 -0.009151737 -0.008963239 -0.008763751 -0.008562421 -0.008360364
 -0.008167712 -0.007984912 -0.007818783 -0.007668642 -0.00753741 -0.007421399 -0.007318862 -0.007220267 -0.007116794 -0.006998291
 -0.0068532 -0.006683586 -0.006484142 -0.006272563 -0.006052637 -0.00584076 -0.005642838 -0.00545651 -0.005283186 -0.005108981
 -0.00493245 -0.004753802 -0.004573497 -0.004412097 -0.004269948 -0.004160565 -0.004079423 -0.004012154 -0.003953525 -0.003878422
 -0.003788735 -0.003674856 -0.003544294 -0.003403028 -0.003259042 -0.003121854 -0.00299803 -0.002896336 -0.002814698 -0.002758033
 -0.002708042 -0.002661556 -0.002597095 -0.002507899 -0.002391397 -0.002244831 -0.002083786 -0.001909139 -0.001736021 -0.001564973
 -0.001398634 -0.001236217 -0.001070837 -0.000902557 -0.000726807 -0.0005469843 -0.000370951 -0.0002021593 -5.324187E-05 7.86236E-05
 0.0001912367 0.0002905747 0.0003826962 0.000469067 0.0005519653 0.0006334629 0.000713344 0.0007999624 0.0008966462 0.00100575
 0.001130247 0.001258324 0.00138879 0.001512091 0.001626855 0.001737765 0.00184513 0.001958501 0.002078279 0.00221187
 0.002359374 0.002526876 0.002711064 0.00290759 0.003106992 0.003288134 0.003442157 0.00354428 0.003598596 0.003594197
 0.003556166 0.003493481 0.00344301 0.0034266 0.003459023 0.003557037 0.00368914 0.00385434 0.004007628 0.00414016
 0.004245591 0.004321481 0.004391976 0.004458022 0.004529425 0.004605474 0.004680845 0.004757212 0.004840975 0.004933684
 0.005045909 0.005172758 0.005309522 0.005450017 0.005581331 0.005704901 0.005814843 0.005922128 0.006031112 0.00615564
 0.006306038 0.006480432 0.00668452 0.006894169 0.007104443 0.007301159 0.007479053 0.007655586 0.007832021 0.008018505
 0.008215128 0.008399821 0.008572417 0.008721294 0.008851473 0.008985166 0.009122865 0.009280342 0.009449271 0.009617532
 0.009782712 0.009933999 0.01007721 0.01021606 0.01035035 0.01048175 0.01060704 0.01072427 0.0108345 0.0109396
 0.01103147 0.01111004 0.01115983 0.01117669 0.01116734 0.01113087 0.01109548 0.0110625 0.01104794 0.0110515
 0.01107475 0.01111755 0.01118203 0.01126513 0.0113594 0.01145908 0.01154566 0.01162181 0.01168078 0.01173465
 0.0117913 0.01186708 0.011971 0.01213152 0.01236617 0.01268882 0.01312685 0.01359375 0.01408151 0.01448029
 0.01476148 0.01496088 0.01507686 0.0151863 0.01529259 0.01541259 0.01554446 0.01567174 0.0157954 0.01591328
 0.01602716 0.01614537 0.01626075 0.01636531 0.01644279 0.01646614 0.01642091 0.01627474 0.01604277 0.01571191
 0.0153464 0.01496974 0.01464836 0.01441866 0.01427788 0.01423989 0.01424329 0.01428133 0.01430578 0.0143107
 0.01428523 0.01422871 0.01414604 0.01403841 0.01392065 0.01379424 0.01367715 0.01356573 0.013458 0.01334822
 0.01321894 0.01307632 0.0129192 0.01276303 0.01262407 0.01251294 0.012442 0.01241826 0.01245314 0.01253084
 0.01265701 0.01277691 0.01287722 0.01292841 0.01291643 0.01289477 0.01286589 0.01289225 0.01297677 0.01310238
 0.01326513 0.01341073 0.01354074 0.01363472 0.01370048 0.01375216 0.01379891 0.01386923 0.01396543 0.01410901
 0.01428321 0.01448084 0.01467863 0.01485409 0.0150026 0.01511567 0.01519537 0.01524156 0.01525185 0.01522002
 0.01517759 0.01512426 0.0151214 0.01517693 0.01529626 0.01547963 0.01565614 0.01582346 0.01593046 0.01598443
 0.01600152 0.01598807 0.01597462 0.01596154 0.01596338 0.01598127 0.01602637 0.0160901 0.01617024 0.01625018
 0.01631255 0.01636071 0.01638994 0.01641331 0.01643918 0.01645424 0.01645699 0.01643413 0.016379 0.01632107
 0.01626169 0.01623792 0.01625171 0.01629384 0.01636057 0.01640355 0.01641818 0.01635084 0.01620511 0.01595638
 0.0156299 0.01526559 0.01489964 0.01461307 0.01441162 0.01434294 0.01436922 0.01448166 0.01463144 0.01479233
 0.01492729 0.01501828 0.01504161 0.01498601 0.01485356 0.0146403 0.01437316 0.01405354 0.01371144 0.01334861
 0.0130015 0.01267262 0.01240641 0.01219977 0.01206103 0.01197803 0.01190892 0.01185232 0.01177916 0.0117062
 0.01165274 0.0116186 0.01161925 0.01162563 0.01161821 0.01158213 0.01149807 0.01138432 0.0112421 0.0110929
 0.01094301 0.01080097 0.01066839 0.01055378 0.01045725 0.01039851 0.01037867</values></Ydata></AB><ScSm><Ydata ylabel="Single channel"><values byteorder="INTEL" format="FLOAT32" numvalues="1814"> 0.07592479 0.07594916 0.07604742 0.07623363 0.07647039 0.076692 0.07684726 0.07692966 0.07696088 0.07695066
 0.07690265 0.07686258 0.07691421 0.0770979 0.07735121 0.07754863 0.07760388 0.07754908 0.07751667 0.07760863
 0.0777591 0.07775588 0.07744035 0.07688789 0.07635695 0.07604995 0.07598935 0.07617179 0.07669087 0.07748634
 0.07807229 0.0778901 0.0770124 0.0761653 0.07592063 0.07614894 0.07636566 0.07628703 0.07591271 0.07541895
 0.07521351 0.07582253 0.07736921 0.07915266 0.07990655 0.07859825 0.07516201 0.07073332 0.06723966 0.06637131
 0.06838332 0.0717454 0.07429038 0.07494534 0.07424526 0.07323959 0.07237147 0.07160663 0.07114471 0.07145576
 0.07262301 0.07390355 0.07410346 0.07259073 0.07005399 0.06802888 0.06750311 0.06828736 0.06982425 0.07179122
 0.07327546 0.07230377 0.06778686 0.06197491 0.05944754 0.0627563 0.06970275 0.07550354 0.0770474 0.07460354
 0.0704058 0.06681202 0.06544887 0.06676207 0.06989866 0.07342205 0.07620056 0.07747389 0.0766599 0.07385716
 0.07033616 0.06791817 0.06785772 0.07036114 0.07454506 0.0785064 0.08018851 0.07890932 0.07581398 0.07265855
 0.07065476 0.07048877 0.07248981 0.07627097 0.08071558 0.08464184 0.08728966 0.08836961 0.08810562 0.08710017
 0.08588168 0.08482485 0.08447648 0.08521213 0.08635874 0.08645932 0.08486728 0.08261357 0.08134216 0.08160868
 0.08243935 0.08251244 0.08149195 0.0797905 0.07725205 0.0731609 0.06787415 0.06322522 0.06068901 0.06027224
 0.06161564 0.06456257 0.06786977 0.06913385 0.06742005 0.06493051 0.0648061 0.06778283 0.07182759 0.07463957
 0.07577795 0.07650096 0.07813695 0.08071654 0.08279084 0.08251362 0.07947229 0.07572369 0.07434022 0.0763961
 0.07994324 0.08241855 0.08334824 0.08406036 0.08536217 0.08629008 0.0851081 0.08136392 0.0770126 0.07521952
 0.07760188 0.08260485 0.0866245 0.08667354 0.08239351 0.07614662 0.07117534 0.06935498 0.07067795 0.0744797
 0.08017032 0.08660581 0.09179537 0.09401201 0.09305206 0.09013326 0.08650944 0.08231232 0.07721747 0.07237434
 0.07063112 0.07382984 0.0804392 0.08683524 0.09053473 0.09142365 0.09033222 0.08749174 0.08278067 0.07722949
 0.07350872 0.07385075 0.07736427 0.08055015 0.08097543 0.07948859 0.0783951 0.0785635 0.07911612 0.07923905
 0.07933418 0.08034772 0.08243743 0.08463196 0.08579063 0.0856462 0.08483346 0.08414112 0.08379871 0.08332039
 0.08218947 0.08089907 0.08088293 0.08294387 0.08614485 0.08877301 0.09005414 0.0904198 0.09036021 0.08956671
 0.08738937 0.08407463 0.08125374 0.08072909 0.08273122 0.0857823 0.08822937 0.08942568 0.08956596 0.08908875
 0.08838223 0.08765616 0.08700669 0.08668806 0.08704694 0.08802167 0.08903453 0.08957259 0.08960515 0.08932132
 0.08876549 0.0879126 0.08692954 0.08618379 0.08598155 0.08633614 0.08700693 0.0877163 0.08825187 0.08843012
 0.0881603 0.08757915 0.08696564 0.08648828 0.08615531 0.08598994 0.08607861 0.08640952 0.08680119 0.08705494
 0.08710918 0.08701452 0.08682578 0.08656397 0.08625232 0.08595454 0.08577096 0.08577234 0.08591527 0.0860671
 0.08615783 0.08624987 0.08639513 0.08649519 0.08640432 0.0861304 0.08583808 0.08567031 0.08563697 0.08566259
 0.08566791 0.08558165 0.08533094 0.08490506 0.08444481 0.08419201 0.0842936 0.08469155 0.0852174 0.08571782
 0.08607629 0.08622861 0.0862151 0.0861429 0.08605954 0.08591914 0.08568835 0.08543828 0.08531617 0.08543296
 0.08576481 0.08616458 0.08648176 0.08665705 0.08671236 0.08671483 0.08675687 0.08688711 0.08703503 0.08707558
 0.08698987 0.08689937 0.08692068 0.08703312 0.08711231 0.08707571 0.0869769 0.0869493 0.08706299 0.08726157
 0.08744317 0.08757165 0.08769134 0.08784762 0.08800688 0.08806829 0.08797424 0.08779463 0.08766009 0.08762367
 0.08764353 0.08769207 0.08780532 0.0880027 0.08821729 0.08835156 0.0883842 0.08838704 0.08843161 0.08850262
 0.08852168 0.08844341 0.08830453 0.08818386 0.08813716 0.08816791 0.08823616 0.08828737 0.08828498 0.08822869
 0.088145 0.08806001 0.08798179 0.0879153 0.0878934 0.08796728 0.088139 0.08831415 0.0883595 0.08822449
 0.0879937 0.08780803 0.08773626 0.08772781 0.08768368 0.0875579 0.08738479 0.08722608 0.08711483 0.08704576
 0.0869957 0.08694763 0.08691262 0.08693405 0.08704761 0.08722007 0.08734746 0.08734299 0.08722388 0.08709031
 0.08702587 0.08703992 0.08709273 0.08714689 0.08719897 0.08727948 0.08740993 0.0875531 0.0876366 0.08763926
 0.08762176 0.08766226 0.08779645 0.08801745 0.08828045 0.08850041 0.08860371 0.0886078 0.0886125 0.0886959
 0.08884814 0.08901548 0.08917204 0.08932811 0.08949477 0.08967297 0.08987264 0.09011813 0.09042419 0.09077115
 0.0911075 0.09138167 0.09158386 0.09176578 0.09200868 0.09235653 0.09277721 0.09319244 0.09354569 0.09384225
 0.09412697 0.09442876 0.09473826 0.09504558 0.09537835 0.09577408 0.09622428 0.09667769 0.09709839 0.09749446
 0.09789003 0.09829438 0.09870414 0.09912126 0.09956151 0.100041 0.1005451 0.101018 0.1014038 0.1017037
 0.1019816 0.1023142 0.1027365 0.1032139 0.103656 0.1039836 0.104212 0.1044465 0.1047695 0.1051535
 0.1055166 0.105842 0.1061956 0.1066272 0.1070989 0.1075274 0.1078735 0.1081712 0.1084787 0.1088126
 0.1091309 0.1093804 0.1095607 0.1097302 0.1099452 0.1102156 0.1105346 0.1109186 0.1113778 0.1118667
 0.1123041 0.1126431 0.1128948 0.1130962 0.1132808 0.1134695 0.1136611 0.1138415 0.1140138 0.1141968
 0.1143844 0.114543 0.1146698 0.1148183 0.1150401 0.1153325 0.1156667 0.1160343 0.1164316 0.1168269
 0.1171937 0.1175645 0.1179994 0.1184855 0.1189156 0.1192003 0.1193629 0.1194897 0.1196249 0.1197677
 0.1199441 0.1202121 0.1205893 0.1210266 0.1214644 0.121882 0.1222858 0.1226751 0.1230288 0.1233143
 0.1235088 0.1236204 0.123694 0.1237933 0.1239711 0.1242403 0.1245622 0.1248699 0.1251113 0.1252659
 0.1253219 0.1252701 0.1251413 0.1250207 0.124979 0.1249876 0.1249313 0.124709 0.1242993 0.1237327
 0.1230332 0.1222146 0.1213202 0.1204411 0.1196845 0.1191276 0.1188083 0.1187555 0.1190026 0.1195485
 0.1203099 0.1211384 0.1218914 0.1224661 0.1227738 0.1227304 0.1223093 0.1215847 0.1206978 0.1197839
 0.1189304 0.1181688 0.1174831 0.1168546 0.1163366 0.1160804 0.1162658 0.1170052 0.1182973 0.1200334
 0.1220181 0.1240164 0.1258345 0.1273904 0.128713 0.1298739 0.1309281 0.1319104 0.1328556 0.1337841
 0.1346744 0.1354819 0.1361908 0.1368247 0.1374049 0.1379225 0.1383536 0.1386862 0.138932 0.1391245
 0.1392982 0.1394577 0.1395811 0.1396597 0.1397165 0.13977 0.1397967 0.1397419 0.1395584 0.1392364
 0.1388262 0.1384583 0.1383367 0.1386761 0.1395996 0.1410643 0.1428793 0.1448057 0.1466493 0.1482791
 0.1496126 0.1506282 0.1513833 0.1519833 0.1525186 0.1530346 0.1535439 0.1540448 0.154528 0.154987
 0.1554277 0.1558686 0.15633 0.1568171 0.1573072 0.1577617 0.1581636 0.1585411 0.1589454 0.1594038
 0.1598966 0.1603807 0.1608343 0.1612742 0.1617201 0.1621527 0.1625298 0.1628408 0.1631266 0.163443
 0.1638222 0.1642635 0.1647313 0.1651656 0.1655222 0.1658117 0.1660855 0.1663837 0.1667091 0.1670467
 0.1673867 0.1677254 0.1680591 0.1683919 0.1687399 0.1691103 0.1694778 0.1697976 0.1700514 0.1702707
 0.1705052 0.1707759 0.1710655 0.1713484 0.1716231 0.1719165 0.1722557 0.1726345 0.1730087 0.1733317
 0.1735941 0.1738279 0.1740724 0.1743434 0.1746326 0.1749255 0.1752126 0.1754906 0.1757623 0.1760359
 0.1763188 0.1766114 0.1769091 0.1772074 0.1775039 0.1777991 0.1780943 0.178388 0.1786802 0.1789817
 0.1793096 0.1796623 0.1800076 0.1803091 0.1805589 0.1807778 0.1809894 0.181206 0.1814344 0.1816801
 0.1819438 0.1822186 0.1824939 0.1827642 0.1830332 0.1833082 0.1835909 0.1838759 0.1841554 0.1844264
 0.1846945 0.1849726 0.18527 0.1855814 0.1858879 0.1861727 0.1864331 0.1866806 0.1869316 0.1871947
 0.1874639 0.187726 0.1879763 0.1882226 0.188475 0.1887376 0.1890067 0.189273 0.1895275 0.1897707
 0.1900132 0.1902639 0.1905226 0.1907849 0.1910491 0.1913146 0.1915787 0.191838 0.1920926 0.1923469
 0.1926035 0.1928582 0.193106 0.193353 0.1936118 0.1938831 0.1941525 0.1944058 0.194642 0.1948721
 0.195109 0.19536 0.1956228 0.1958883 0.1961484 0.1964011 0.1966491 0.196895 0.1971382 0.1973787
 0.1976224 0.1978778 0.1981451 0.1984169 0.1986879 0.1989572 0.199223 0.1994835 0.1997413 0.200001
 0.2002668 0.2005412 0.2008211 0.2010967 0.201359 0.2016077 0.2018465 0.2020774 0.2023028 0.2025269
 0.2027537 0.2029857 0.2032222 0.2034576 0.2036878 0.2039168 0.2041503 0.2043891 0.2046335 0.2048866
 0.2051482 0.2054114 0.2056678 0.2059116 0.2061446 0.2063821 0.2066399 0.2069146 0.2071885 0.2074529
 0.2077115 0.2079671 0.208219 0.2084661 0.2087064 0.2089428 0.2091853 0.2094396 0.2097005 0.2099644
 0.2102321 0.2104973 0.2107502 0.2109925 0.2112325 0.2114733 0.2117171 0.2119689 0.2122272 0.2124857
 0.2127415 0.2129914 0.2132323 0.2134708 0.2137183 0.2139736 0.2142287 0.2144836 0.21474 0.2149945
 0.2152502 0.2155128 0.2157761 0.2160304 0.216277 0.2165182 0.2167512 0.2169812 0.2172154 0.2174379
 0.2175918 0.2175311 0.2169035 0.2150307 0.2108931 0.2033202 0.1914487 0.1752718 0.1558419 0.1349
 0.1142307 0.09519288 0.07858267 0.06473857 0.05372225 0.04543753 0.03969929 0.03634431 0.03535195 0.03697486
 0.04188178 0.05076104 0.06281386 0.07441793 0.08053805 0.07870398 0.07137058 0.06367654 0.05917646 0.0581309
 0.05903624 0.06060312 0.0624122 0.06468304 0.06781369 0.07192796 0.0768446 0.08255589 0.08946485 0.09786539
 0.1073181 0.1168319 0.1257115 0.134101 0.1426481 0.1517222 0.1610196 0.169856 0.1777096 0.1844849
 0.1904053 0.195768 0.2007755 0.2055155 0.2100245 0.2142963 0.218189 0.2213755 0.2234923 0.2244151
 0.224406 0.2239719 0.2235639 0.2233936 0.2234772 0.2237698 0.2242365 0.2248578 0.2256199 0.2264993
 0.2274524 0.2284326 0.2294115 0.2303711 0.2312889 0.2321438 0.2329254 0.2336334 0.2342743 0.2348599
 0.2353968 0.2358863 0.236335 0.236756 0.2371558 0.2375355 0.2378985 0.2382452 0.2385664 0.2388532
 0.2391095 0.2393468 0.2395745 0.2397979 0.2400166 0.2402282 0.2404357 0.2406481 0.2408712 0.2411028
 0.2413355 0.2415607 0.2417727 0.2419761 0.2421817 0.2423917 0.2425956 0.242786 0.2429691 0.2431574
 0.2433577 0.2435683 0.2437805 0.2439842 0.2441747 0.2443562 0.244539 0.2447346 0.2449475 0.2451683
 0.2453836 0.2455936 0.2458094 0.2460351 0.2462646 0.2464953 0.2467298 0.2469682 0.2472085 0.2474465
 0.2476667 0.2478469 0.2479838 0.2481072 0.2482597 0.2484651 0.2487115 0.2489632 0.2491918 0.2493978
 0.2495994 0.2498072 0.250014 0.2502024 0.2503658 0.2505311 0.2507434 0.2510146 0.2513075 0.2515838
 0.2518417 0.2520946 0.2523453 0.2525924 0.2528311 0.2530395 0.2531969 0.2533247 0.2534924 0.2537667
 0.2541471 0.2545543 0.2548979 0.2551562 0.2553757 0.255613 0.2558954 0.2561946 0.2564071 0.2564305
 0.2563227 0.2563164 0.256606 0.257158 0.257777 0.2583007 0.2586928 0.2589995 0.2592699 0.259506
 0.2596613 0.2596954 0.2596564 0.2597026 0.2599917 0.2605142 0.2610844 0.2615307 0.2618349 0.2620639
 0.2622629 0.262445 0.2625599 0.2624502 0.262016 0.2614911 0.261375 0.2619516 0.2629696 0.263909
 0.2644931 0.2648274 0.2651042 0.2653639 0.2655587 0.265602 0.2652461 0.2642194 0.2627594 0.2617694
 0.2620723 0.2635801 0.2654403 0.2668854 0.2677149 0.2681165 0.2683399 0.2685265 0.2686007 0.2682778
 0.2673857 0.2662851 0.2657771 0.2663632 0.2676826 0.2688997 0.269555 0.2698055 0.2699838 0.2702285
 0.2703903 0.269974 0.268418 0.2659188 0.2638524 0.263806 0.266026 0.2691266 0.2714671 0.2725628
 0.2729555 0.2730144 0.2723898 0.2706485 0.26792 0.2648332 0.2623518 0.2616726 0.2634227 0.2666426
 0.2693306 0.2704247 0.2706971 0.2714529 0.2729633 0.2744677 0.2751794 0.2749016 0.2738793 0.2723561
 0.2704648 0.2686481 0.2679005 0.2690563 0.2717813 0.2746955 0.276648 0.2775874 0.2779654 0.2773963
 0.2743858 0.2681365 0.2608023 0.2568847 0.2592506 0.2661255 0.2729936 0.2770314 0.2786402 0.2793264
 0.2797047 0.2793295 0.2769294 0.2710816 0.2624295 0.2551102 0.2539546 0.2596939 0.2681319 0.2740777
 0.2749075 0.2708454 0.2640005 0.2577159 0.2552025 0.2575984 0.2634869 0.2702977 0.2758448 0.2789068
 0.2792024 0.2772754 0.2744554 0.2725359 0.2724772 0.2729799 0.2714657 0.2673398 0.2629892 0.2602683
 0.2576087 0.2529073 0.2481646 0.2481542 0.2542327 0.2620836 0.2665776 0.2669669 0.2659297 0.2646634
 0.2607912 0.2517648 0.2396969 0.2314076 0.2324563 0.2413818 0.2510282 0.2555604 0.2550889 0.2535229
 0.2533512 0.2531232 0.24951 0.2416651 0.2333741 0.2298554 0.2321818 0.2363038 0.2378061 0.2354186
 0.229411 0.2201497 0.2106455 0.2074375 0.2150322 0.2303365 0.2451207 0.2528111 0.250824 0.2389925
 0.2204948 0.2038281 0.1986543 0.2071114 0.2212086 0.2302045 0.229107 0.2194668 0.2047844 0.1881888
 0.1739114 0.1676048 0.1729073 0.1877938 0.2047596 0.2145391 0.2111667 0.1966142 0.18121 0.1761821
 0.1834203 0.1942095 0.1990353 0.1962325 0.1905042 0.1868382 0.187645 0.1924859 0.1985399 0.2032065
 0.2061608 0.2063676 0.199248 0.1821931 0.1618925 0.149952 0.1508271 0.1594718 0.1706379 0.1836029
 0.1962354 0.2017368 0.1963258 0.1864698 0.1834315 0.19131 0.2035072 0.2107961 0.2104481 0.2067462
 0.2043032 0.2031137 0.2008836 0.1983967 0.199689 0.2065153 0.2153137 0.2211835 0.2229779 0.2228798
 0.2226776 0.2224091 0.2216198 0.2201663 0.2181203 0.2158754 0.2140367 0.2127355 0.2115139 0.21003
 0.2080188 0.2042315 0.1967299 0.1856461 0.1749224 0.1692256 0.1690334 0.1709091 0.1725996 0.1743759
 0.1742911 0.1668237 0.1502002 0.1324084 0.1253964 0.1335348 0.1503574 0.1658818 0.1742005 0.1739736
 0.1654763 0.1509129 0.1370107 0.132952 0.1428613 0.1618015 0.1810432 0.195598 0.2048194 0.208243
 0.2047065 0.1954412 0.1853556 0.1802724 0.1833623 0.19368 0.2064799 0.214474 0.2113678 0.1980896
 0.1856644 0.1871505 0.2039251 0.2233989 0.2331627 0.2336007 0.2329805 0.2346119 0.2351305 0.2334405
 0.234392 0.2420643 0.2537144 0.2624612 0.2633226 0.2551906 0.2402129 0.2243005 0.2155929 0.2179352
 0.2265131 0.2331026 0.234055 0.2298136 0.2200173 0.2055165 0.1935588 0.1934362 0.205691 0.2208639
 0.2302469 0.2338067 0.2362598 0.2389545 0.2382776 0.2311822 0.2202979 0.2123036 0.2112995 0.2151989
 0.219214 0.220913 0.2202401 0.2166309 0.2093725 0.2007601 0.1961199 0.1991748 0.2082102 0.2177279
 0.2234073 0.2248088 0.2239919 0.2228843 0.2220063 0.2206815 0.2183598 0.2163224 0.2174321 0.2230081
 0.2306097 0.236488 0.2398667 0.2432016 0.248337 0.2539557 0.2571748 0.2566981 0.2540615 0.2523067
 0.253551 0.2573076 0.2608458 0.2615219 0.259296 0.2570006 0.2577274 0.2618781 0.2671197 0.271037
 0.2731056 0.274179 0.2750561 0.2758078 0.2757615 0.2740341 0.2708223 0.2681535 0.2684519 0.2721176
 0.2771217 0.2810722 0.283119 0.2838109 0.2837968 0.2831426 0.2817157 0.27981 0.2781572 0.2773631
 0.2774871 0.278186 0.2790852 0.2799418 0.2806307 0.2811372 0.281522 0.2818317 0.282076 0.2822824
 0.2824837 0.2826438 0.2826938 0.2826755 0.2827606 0.2830623 0.2834812 0.2837989 0.2838685 0.2836361
 0.2830387 0.2820112 0.2805989 0.2789436 0.2771221 0.2751092 0.2730109 0.2712951 0.2706441 0.2714605
 0.2735012 0.2760227 0.2782826 0.2799049 0.2808765 0.2813535 0.2815243 0.2815543 0.2815441 0.2815078
 0.2814109 0.2812321 0.2809827 0.2806793 0.2803282 0.2799461 0.2795751 0.2792565 0.2789901 0.2787309
 0.2784191 0.2780148 0.2775161 0.2769558 0.2763726 0.2757677 0.2750901 0.2742751 0.2733068 0.2722407
 0.2711692 0.270164 0.2692371 0.2683395 0.2674021 0.2663848 0.2652717 0.26403 0.2626303 0.2611307
 0.2596849 0.2584163 0.2573102 0.2562547 0.2551455 0.2539238 0.2525636 0.2510731 0.2494973 0.2478873
 0.2462668 0.2446321 0.2429723 0.24128 0.2395445 0.2377493 0.2358827 0.2339509 0.2319729 0.2299596
 0.2278895 0.225689 0.2232371 0.220403 0.2170843 0.213217 0.2087831 0.2038469 0.1985771 0.1932053
 0.1879523 0.1829825 0.1784067 0.1743075 0.1707567 0.1678152 0.1655277 0.1639302 0.1630539 0.1629086
 0.1634693 0.1646826 0.1664694 0.1687123 0.1712574 0.1739351 0.1765769 0.1790365 0.1812341 0.1831935
 0.1850165 0.186797 0.1885496 0.1902185 0.1917494 0.1931341 0.1943803 0.1954747 0.1964028 0.1971808
 0.1978411 0.1984005 0.198868 0.1992674 0.1996351 0.2000003 0.2003728 0.2007463 0.2011174 0.2015037
 0.2019337 0.2024234 0.2029725 0.2035785 0.2042416 0.2049605 0.2057256 0.2065212 0.2073401 0.2081986
 0.2091189 0.2101061 0.2111689 0.2123567 0.2137414 0.2153583 0.2171833 0.2191536 0.2211821 0.2231617
 0.2249816 0.2265512 0.2278222 0.2287961 0.2295083 0.2299976 0.2302961 0.2304348 0.2304413 0.2303361
 0.2301392 0.2298671 0.2295178 0.2290772 0.2285443 0.2279333 0.2272598 0.2265439 0.2258161 0.2250997
 0.2243961 0.2236938 0.2229859 0.2222777 0.2215833 0.2209102 0.2202469 0.2195778 0.2189038 0.2182348
 0.217569 0.2168882 0.2161618 0.2153513 0.2144284 0.2133943 0.2122647 0.2110431 0.2097214 0.208298
 0.2067827 0.2051939 0.2035542 0.2018788 0.2001681 0.198408 0.196569 0.1946117 0.1925245 0.1903601
 0.1882133 0.1861642 0.1842505 0.1824716 0.1807985 0.1791983 0.1776673 0.1762253 0.1748745 0.1735863
 0.1723342 0.17112 0.1699627 0.1688732 0.1678508 0.1669046 0.1660641 0.1653533 0.1647603 0.1642489
 0.1637923 0.16338 0.1630129 0.1627135 0.1625178 0.1624285 0.1623901 0.1623273 0.1621978 0.1620022
 0.1617649 0.161514 0.1612712 0.1610527 0.1608673 0.160694 0.1604632 0.1600717 0.1594158 0.1584204
 0.1570674 0.1554099 0.1535451 0.1515801 0.1496341 0.1478399 0.146304 0.1450683 0.1441156 0.1433899
 0.1428139 0.142324 0.1419142 0.1416397 0.141565 0.1416823 0.1418663 0.1419473 0.1418702 0.1417627
 0.1418207 0.142151 0.1427219 0.143411 0.1440791 0.1446391 0.1450735 0.1453876 0.1455761 0.1456434
 0.1456145 0.1455098 0.145335 0.1450919 0.144779 0.144397 0.1439554 0.1434572 0.142891 0.142261
 0.1415841 0.1408421 0.1399898 0.1390131 0.1379196 0.1367049 0.1354249 0.1342781 0.1335291 0.1333422
 0.1336985 0.134429 0.1353302 0.1362845 0.1372218 0.1379522 0.1382256 0.1381131 0.1381928 0.1391264
 0.1410272 0.1433457 0.1453618 0.1466834 0.1472861 0.1472659 0.1467044 0.1456697 0.1441768 0.1421807
 0.1396956 0.1368532 0.1338064 0.1306947 0.1277065 0.1250252 0.1227351 0.1208567 0.1193915 0.118376
 0.117936 0.1177068 0.1158332 0.1099367 0.1007732 0.09387244 0.09488904 0.1032447 0.1125304 0.1172876
 0.1173574 0.1156349 0.1141211 0.113134 0.1125993 0.1126806 0.1135119 0.1149319 0.1165012 0.1177663
 0.118556 0.1189439 0.118918 0.1181309 0.1158644 0.1112915 0.1041488 0.09531137 0.08648053 0.07918362
 0.0740981 0.07108966 0.06955212 0.06876411 0.06824962 0.06797744 0.06822707 0.06926361 0.07113095 0.07369649
 0.07677743 0.08011468 0.08329722 0.08593251 0.08793962 0.08951852 0.09081575 0.0917708 0.09227402 0.09231316
 0.09196124 0.09133714 0.09057969 0.08978064 0.08892181 0.08791237 0.08673669 0.08557712 0.08471788 0.08428158
 0.08413776 0.08410092 0.08409935 0.08411786 0.08411781 0.08407429 0.08401231 0.08400081 0.08414834 0.08453347
 0.08508427 0.0855979 0.08591623 0.08603809 0.08606496 0.08605576 0.08591413 0.08548293 0.08482362 0.08424726
 0.08388981 0.0834323 0.08250757 0.0812692 0.08029237 0.0799634 0.08016361 0.08050234 0.08067529 0.0806064
 0.08042453 0.08038929 0.08071285 0.08130233</values></Ydata></ScSm><ScRf><Ydata ylabel="Single channel"><values byteorder="INTEL" format="FLOAT32" numvalues="1820"> 0.06060673 0.06074517 0.06082647 0.06085434 0.06085508 0.06087244 0.0609488 0.06109733 0.06128956 0.06147067
 0.06159576 0.06165884 0.06168041 0.06167088 0.06163207 0.06159676 0.06162868 0.06176056 0.06194837 0.06209992
 0.06214921 0.06211586 0.06209657 0.06216881 0.06228209 0.06226995 0.06200626 0.06155148 0.06111513 0.06086387
 0.06081791 0.06097208 0.06139784 0.06204569 0.06252414 0.06237875 0.06166103 0.06095527 0.06073159 0.0608979
 0.06106874 0.06101106 0.06071665 0.06032202 0.060154 0.06063894 0.06188268 0.06332557 0.06394251 0.06288868
 0.06010504 0.05651515 0.05368476 0.05297892 0.05459798 0.05730462 0.05935224 0.0598781 0.05931658 0.05851544
 0.05782844 0.05722003 0.05684515 0.0570832 0.05800791 0.05902912 0.0591893 0.05797585 0.05593576 0.05430091
 0.05386623 0.0544801 0.05569639 0.05726279 0.05845325 0.05768047 0.05405784 0.04938555 0.0473498 0.05001513
 0.05561891 0.06030311 0.06154938 0.05957287 0.05618623 0.05329958 0.05221472 0.0532703 0.05577141 0.05857612
 0.06079455 0.06182043 0.0611733 0.05891912 0.0560783 0.05412377 0.05407304 0.05609538 0.05947767 0.06268126
 0.06404115 0.06300201 0.06048895 0.05792626 0.05629777 0.05615659 0.0577663 0.06081755 0.06441399 0.06760062
 0.06975564 0.07063636 0.0704226 0.06961106 0.06863988 0.06780818 0.06753896 0.06812321 0.06902683 0.06909317
 0.06780849 0.0659962 0.06496949 0.06517211 0.06582619 0.06587746 0.06506053 0.06370537 0.06167991 0.05840015
 0.05414786 0.0503995 0.04834846 0.04800729 0.0490945 0.05149204 0.05419791 0.05525747 0.05389099 0.05186208
 0.05171696 0.05407471 0.05731146 0.0595696 0.06048292 0.0610601 0.06237647 0.06446507 0.06615956 0.06596248
 0.0635294 0.06051609 0.05940733 0.06107616 0.06395099 0.06596249 0.06673065 0.06732897 0.06840576 0.06917959
 0.06825192 0.06526396 0.06179402 0.06038761 0.06233962 0.06639475 0.06965232 0.06970601 0.0662643 0.061233
 0.05723435 0.05578846 0.05689535 0.06002809 0.06471956 0.0700445 0.07437833 0.07629773 0.07561059 0.07329246
 0.07037222 0.06697501 0.06284383 0.0589177 0.05753419 0.06021812 0.06572372 0.07107097 0.07420701 0.07503118
 0.07422507 0.07197065 0.0681529 0.06362207 0.06061027 0.06099426 0.06404047 0.06682449 0.06729825 0.06615323
 0.06531286 0.06551684 0.06604968 0.0662432 0.06643841 0.06742433 0.06932321 0.07130897 0.07241532 0.07241252
 0.07183537 0.07135621 0.07117472 0.0708771 0.07002424 0.06904621 0.06917621 0.07109763 0.07399603 0.07639074
 0.07761028 0.07802977 0.07808482 0.07751625 0.07575198 0.07299214 0.07065778 0.07033601 0.07223783 0.07506365
 0.07735436 0.07854354 0.07881173 0.07854706 0.07808407 0.07760316 0.07719171 0.07707428 0.07755086 0.07856182
 0.0795983 0.08021262 0.08038071 0.08026499 0.07989648 0.0792554 0.0785072 0.07799272 0.07797819 0.078456
 0.07920122 0.07997277 0.08059015 0.08088428 0.08075979 0.08033805 0.07988864 0.07958204 0.07942572 0.07943095
 0.07967186 0.0801349 0.0806428 0.08100106 0.08115503 0.08116683 0.0810994 0.08096997 0.0807908 0.08062126
 0.0805666 0.08069821 0.08096289 0.08122157 0.08141316 0.0816163 0.08189055 0.0821296 0.08216835 0.08199724
 0.08178058 0.08167736 0.08171259 0.08181447 0.08190189 0.08190316 0.08174634 0.08142005 0.08105925 0.08089499
 0.08106963 0.08153643 0.08214344 0.08273986 0.08319705 0.08343846 0.08349941 0.08348709 0.08345245 0.08335574
 0.08316964 0.08296926 0.08290327 0.08308125 0.08347684 0.08394077 0.08431837 0.08454281 0.08463238 0.08466312
 0.08474476 0.08493476 0.08515109 0.08524629 0.08519118 0.08511747 0.08515532 0.08528283 0.08536667 0.08532389
 0.08521767 0.08518992 0.08531322 0.08552901 0.08573218 0.08588809 0.08604839 0.08626018 0.0864745 0.08656557
 0.08646356 0.08625093 0.08608408 0.08603138 0.0860467 0.0860926 0.08620656 0.08641385 0.08664021 0.08677095
 0.08677949 0.0867526 0.08678091 0.08685271 0.08687486 0.08678238 0.08660533 0.08643647 0.08635646 0.08638549
 0.08647905 0.08655943 0.08656652 0.08649465 0.08638395 0.08627681 0.08618919 0.0861313 0.08614491 0.08628505
 0.08653882 0.08677942 0.08684348 0.08667716 0.08639473 0.0861768 0.08610866 0.08612121 0.08608054 0.08591789
 0.08567072 0.08542268 0.08522819 0.0850895 0.08498117 0.08488676 0.08482483 0.08484377 0.08496962 0.08514248
 0.08522857 0.08513071 0.08488393 0.08461951 0.08444519 0.08438037 0.0843807 0.08438839 0.08437617 0.0843727
 0.08442342 0.08450882 0.08454208 0.08447389 0.08436032 0.08430565 0.0843749 0.08456482 0.08480422 0.08497301
 0.08498275 0.08486501 0.08474372 0.08471049 0.08475967 0.08484308 0.08493888 0.08504809 0.08516125 0.0852643
 0.08536994 0.08551733 0.08573186 0.0859921 0.08623967 0.08642191 0.0865331 0.08662494 0.08677265 0.08701632
 0.08732754 0.08763452 0.08788239 0.08807272 0.08824751 0.08843812 0.08863926 0.08884056 0.0890651 0.08934816
 0.08968303 0.09001922 0.09031797 0.09058584 0.09085065 0.0911265 0.091412 0.09171298 0.09205604 0.09246355
 0.09290496 0.09329131 0.09354746 0.09368859 0.09381102 0.09401517 0.09433889 0.09473146 0.09507464 0.09527147
 0.0953488 0.09544222 0.09564835 0.09592553 0.09617791 0.0964031 0.09669793 0.09712172 0.09760268 0.0979994
 0.09823579 0.09836176 0.09848724 0.09866689 0.09885859 0.09899618 0.09908153 0.09917727 0.09932093 0.09949468
 0.099691 0.09995435 0.1003175 0.1007307 0.1010986 0.1013725 0.1015718 0.101733 0.1018689 0.1019693
 0.1020177 0.1020195 0.1020228 0.1020843 0.1022007 0.1023049 0.1023508 0.1023707 0.102432 0.1025677
 0.1027739 0.1030406 0.1033479 0.1036499 0.103913 0.104169 0.1044842 0.1048553 0.1051791 0.1053597
 0.1054172 0.1054453 0.1054922 0.1055422 0.1056001 0.1057226 0.10595 0.1062566 0.1065899 0.1069274
 0.1072756 0.1076308 0.1079566 0.1081957 0.1083068 0.1083024 0.108253 0.1082516 0.1083666 0.1086095
 0.1089345 0.1092677 0.109549 0.1097454 0.1098368 0.1098206 0.1097492 0.1097287 0.1098341 0.1100231
 0.110161 0.1101333 0.109916 0.1095419 0.1090394 0.1084273 0.1077517 0.1070959 0.1065446 0.1061454
 0.1059135 0.1058697 0.1060563 0.106493 0.1071223 0.1078229 0.10848 0.1090139 0.1093425 0.1093712
 0.1090616 0.1084849 0.1077773 0.1070561 0.1063859 0.1057812 0.1052106 0.1046361 0.1040964 0.1037455
 0.1037797 0.1043196 0.1053513 0.1067404 0.1082749 0.1097289 0.1109488 0.1119118 0.1127012 0.113415
 0.1141013 0.114772 0.115441 0.1161135 0.1167542 0.1173095 0.1177698 0.1181786 0.1185775 0.1189663
 0.1193178 0.1196097 0.1198456 0.1200567 0.1202688 0.1204552 0.1205494 0.1205192 0.1204072 0.120281
 0.1201628 0.1200179 0.1197897 0.1194442 0.1190126 0.1186172 0.1184453 0.1186658 0.1193373 0.1203767
 0.1216197 0.1229189 0.1241806 0.1253226 0.1262514 0.1269158 0.1273576 0.127678 0.1279625 0.1282517
 0.1285566 0.1288723 0.1291837 0.1294764 0.1297498 0.1300204 0.1303146 0.1306473 0.1309981 0.1313185
 0.1315779 0.1318032 0.1320629 0.1324029 0.1327992 0.1331826 0.1335142 0.1338203 0.1341376 0.1344478
 0.1346994 0.1348825 0.1350471 0.1352523 0.1355262 0.1358634 0.1362259 0.1365519 0.1367984 0.1369798
 0.1371486 0.1373431 0.1375666 0.1378071 0.1380543 0.1383002 0.1385424 0.1387929 0.1390733 0.1393869
 0.1396973 0.1399498 0.1401236 0.1402568 0.1404086 0.1406034 0.1408184 0.1410224 0.1412148 0.1414287
 0.1416969 0.1420127 0.142325 0.1425763 0.1427493 0.1428749 0.1430017 0.1431605 0.1433535 0.1435663
 0.1437837 0.1439962 0.1442004 0.1443998 0.1446037 0.1448182 0.1450406 0.1452627 0.1454795 0.1456892
 0.1458929 0.1460955 0.1463077 0.1465436 0.1468114 0.1470996 0.1473745 0.1476016 0.1477745 0.1479157
 0.1480531 0.1482004 0.1483605 0.1485331 0.1487173 0.1489117 0.1491138 0.1493219 0.1495338 0.1497456
 0.1499513 0.1501476 0.1503395 0.1505371 0.150748 0.1509738 0.151211 0.1514491 0.1516721 0.1518701
 0.1520494 0.1522281 0.1524214 0.1526291 0.1528362 0.1530274 0.1532034 0.1533787 0.1535672 0.1537713
 0.1539849 0.1541987 0.1544015 0.1545869 0.1547597 0.1549331 0.155118 0.1553159 0.1555209 0.1557264
 0.1559285 0.1561246 0.1563115 0.156489 0.1566649 0.1568521 0.1570574 0.1572767 0.1574977 0.1577092
 0.1579068 0.1580923 0.1582713 0.1584534 0.1586468 0.1588488 0.1590475 0.1592382 0.1594314 0.1596379
 0.1598522 0.16006 0.1602575 0.1604563 0.1606707 0.1609024 0.1611384 0.1613639 0.1615754 0.1617797
 0.1619832 0.1621881 0.1623937 0.1625994 0.1628045 0.1630108 0.1632202 0.1634311 0.1636388 0.1638399
 0.1640337 0.16422 0.1643977 0.1645652 0.1647258 0.1648908 0.1650709 0.1652661 0.1654681 0.1656691
 0.165865 0.1660544 0.1662424 0.1664364 0.1666379 0.1668425 0.1670483 0.1672549 0.1674592 0.1676605
 0.1678624 0.1680651 0.1682635 0.1684574 0.1686534 0.1688581 0.1690737 0.1692965 0.169519 0.1697359
 0.1699482 0.1701584 0.1703683 0.170582 0.1707997 0.1710117 0.1712096 0.1713996 0.1715934 0.1717942
 0.1720006 0.1722131 0.1724297 0.1726466 0.1728627 0.1730775 0.1732901 0.1735041 0.1737224 0.1739392
 0.174148 0.1743516 0.174554 0.1747546 0.1749554 0.1751601 0.1753668 0.1755749 0.1757905 0.1760144
 0.1762383 0.1764586 0.1766727 0.1768622 0.1769849 0.1769348 0.1764356 0.1749321 0.1715795 0.1654124
 0.155726 0.1425191 0.1266519 0.1095456 0.09265904 0.07710498 0.06353668 0.05223392 0.04324878 0.03650088
 0.03183486 0.02911036 0.02830158 0.0296126 0.03360165 0.0408476 0.05070136 0.06019188 0.06519213 0.06368189
 0.05767739 0.05139235 0.0477381 0.04691868 0.04768746 0.0489787 0.05045301 0.05230509 0.05487308 0.05825538
 0.06228992 0.0669644 0.07262031 0.07951426 0.08728819 0.09511629 0.1024146 0.1092993 0.1163118 0.1237659
 0.1314157 0.1386949 0.1451662 0.1507405 0.1555961 0.1599858 0.164095 0.1680119 0.1717683 0.1753437
 0.1785984 0.1812499 0.1830063 0.1837826 0.1838037 0.1834827 0.1831814 0.1830679 0.183158 0.1834246
 0.1838457 0.1843986 0.1850598 0.1858079 0.1866165 0.1874535 0.1882915 0.1891077 0.1898829 0.1906077
 0.1912819 0.1919031 0.1924687 0.1929832 0.1934542 0.1938845 0.1942783 0.1946473 0.1950032 0.1953512
 0.1956909 0.1960167 0.1963194 0.1965943 0.1968431 0.197069 0.1972785 0.1974845 0.1976968 0.1979133
 0.1981275 0.1983385 0.1985487 0.198759 0.1989701 0.1991817 0.1993918 0.1995989 0.1998018 0.1999942
 0.2001701 0.2003349 0.2005025 0.2006824 0.2008748 0.2010769 0.2012833 0.2014855 0.2016766 0.2018591
 0.2020451 0.2022466 0.2024629 0.2026786 0.2028802 0.203071 0.2032644 0.2034658 0.2036723 0.2038821
 0.2040949 0.2043086 0.2045237 0.2047433 0.204962 0.2051619 0.2053294 0.205475 0.20563 0.205821
 0.2060442 0.2062719 0.206484 0.206684 0.2068818 0.2070783 0.2072695 0.2074542 0.2076348 0.2078249
 0.2080441 0.2082924 0.2085431 0.2087756 0.208995 0.2092124 0.209432 0.2096593 0.2098941 0.2101139
 0.2102924 0.2104413 0.2106158 0.2108722 0.2112138 0.2115772 0.2118852 0.2121179 0.2123197 0.2125472
 0.2128273 0.2131313 0.2133597 0.2134129 0.2133361 0.21334 0.2136074 0.214111 0.2146691 0.2151342
 0.2154823 0.2157618 0.2160129 0.2162305 0.2163753 0.2164212 0.2164155 0.2164903 0.2167708 0.2172455
 0.2177631 0.2181838 0.2184871 0.2187172 0.2189056 0.2190704 0.2191823 0.2191135 0.2187732 0.2183535
 0.2182786 0.2187923 0.2196831 0.2205134 0.2210517 0.221382 0.2216564 0.2219074 0.2221045 0.2221808
 0.2219228 0.2210959 0.2199046 0.2191191 0.2194342 0.2207663 0.2223872 0.2236492 0.2243914 0.2247775
 0.2250167 0.2252237 0.2253318 0.2251006 0.2243861 0.2234952 0.2231074 0.2236497 0.2248163 0.225895
 0.226496 0.2267594 0.2269725 0.2272467 0.2274443 0.2271422 0.2258687 0.223795 0.2220886 0.2220964
 0.2240286 0.2267092 0.2287428 0.2297153 0.2300895 0.2301828 0.229697 0.2282612 0.2259936 0.2234427
 0.2214305 0.2209579 0.2225363 0.2253405 0.2276773 0.2286582 0.228944 0.2296387 0.2309723 0.2323081
 0.2329824 0.2328211 0.2320217 0.2307857 0.2292248 0.2277225 0.2271393 0.228195 0.2306007 0.2331727
 0.2349279 0.235822 0.2362343 0.2358268 0.2333189 0.2280313 0.2218109 0.2185115 0.2205901 0.2265364
 0.2324937 0.2360454 0.2375294 0.2382304 0.2386673 0.2384457 0.2364655 0.2315084 0.2241376 0.2179174
 0.2170048 0.2220287 0.2293777 0.2345836 0.235387 0.2319782 0.2261716 0.2208488 0.2187827 0.2209595
 0.2261583 0.2321545 0.2370514 0.23979 0.2401327 0.238557 0.2362178 0.2346674 0.2347331 0.2352852
 0.2340939 0.230652 0.2270274 0.2248147 0.2226408 0.2186792 0.2146761 0.2147914 0.2202131 0.2271886
 0.2312527 0.2317521 0.2310127 0.2300676 0.226839 0.2191046 0.2087135 0.2016336 0.2027376 0.2107518
 0.2194046 0.2235751 0.2233541 0.222169 0.2222078 0.2222 0.2192141 0.212501 0.2054061 0.2025461
 0.2048736 0.2088125 0.2104581 0.2086657 0.2036373 0.1956846 0.1875147 0.1849963 0.1921785 0.2063047
 0.219998 0.2273363 0.2259617 0.2156906 0.1993827 0.1847507 0.1805967 0.1888911 0.2023634 0.2112041
 0.2108238 0.2025981 0.1896949 0.1749807 0.1624094 0.1573252 0.1632318 0.178293 0.1954092 0.2056867
 0.2033057 0.1900976 0.1760602 0.1721283 0.180136 0.1915394 0.1970194 0.1949587 0.1899872 0.1870419
 0.1885638 0.1941475 0.2009461 0.2063273 0.2099628 0.2107492 0.2039294 0.1867957 0.1662254 0.1541652
 0.1552223 0.164239 0.1758507 0.1893349 0.2024831 0.2082456 0.2026825 0.1924523 0.1891886 0.197146
 0.2095416 0.2168731 0.2163413 0.2123922 0.2098156 0.2086187 0.2064292 0.2040541 0.2056592 0.2130459
 0.2225248 0.2290351 0.2313956 0.2318614 0.2322835 0.2327026 0.2326353 0.2319092 0.2305824 0.2290659
 0.2280095 0.2275692 0.2272592 0.2266979 0.2255801 0.222513 0.2153136 0.2040737 0.1931344 0.1876573
 0.1881405 0.1907483 0.1929971 0.1952011 0.1951687 0.1867247 0.1678831 0.1475291 0.1389567 0.1470291
 0.1645578 0.1804746 0.1883073 0.1867367 0.1762724 0.1594117 0.1432789 0.1374397 0.1461254 0.1641577
 0.1824564 0.1958644 0.2038199 0.2060431 0.2014919 0.1914038 0.1806057 0.1747882 0.1769982 0.1862492
 0.1978991 0.2049228 0.2013198 0.1880146 0.175519 0.1762437 0.1915125 0.2094242 0.218242 0.2183159
 0.2174407 0.2187358 0.2190302 0.2172914 0.2180835 0.2252503 0.2362386 0.2446212 0.2457447 0.238561
 0.2250567 0.2107697 0.2033582 0.2064193 0.2153431 0.2222916 0.2237728 0.2201674 0.2111004 0.197439
 0.1862539 0.186553 0.1988435 0.2139497 0.2234371 0.2272874 0.2300885 0.2331472 0.2329304 0.2264569
 0.2163112 0.2090681 0.2087889 0.21345 0.2183448 0.2210502 0.2214461 0.2188824 0.2125878 0.204875
 0.2011647 0.2052509 0.215342 0.2257203 0.2318414 0.233156 0.2317418 0.2296191 0.2274143 0.2245314
 0.2204796 0.2166083 0.2158605 0.2196325 0.2255491 0.2299022 0.2319011 0.2339466 0.2378654 0.2424077
 0.2447815 0.2437002 0.2405918 0.2383375 0.2389554 0.2420052 0.2449224 0.245211 0.2428198 0.2404123
 0.2409118 0.2447115 0.2496213 0.2533599 0.2554141 0.2565666 0.2575558 0.2584316 0.2585254 0.2569641
 0.253907 0.251256 0.2512989 0.2544356 0.2588012 0.2621972 0.2638656 0.2643426 0.2642387 0.2636067
 0.2623143 0.260625 0.2592005 0.2585791 0.2587968 0.2595255 0.260414 0.2612323 0.2618546 0.2622597
 0.262512 0.2626787 0.262794 0.2628972 0.2630169 0.2631008 0.2630613 0.2629312 0.2628857 0.2630487
 0.263339 0.2635623 0.2635896 0.2633706 0.2628391 0.2619338 0.2607078 0.2593027 0.2577779 0.2560769
 0.2542722 0.2528014 0.2523181 0.253205 0.255228 0.2576857 0.2598849 0.2614797 0.262464 0.2629849
 0.263207 0.2632688 0.2632601 0.2632043 0.2630761 0.2628502 0.2625348 0.2621641 0.261772 0.2613842
 0.2610265 0.2607197 0.2604556 0.2601894 0.259868 0.2594647 0.2589896 0.2584745 0.2579448 0.2573909
 0.2567651 0.2560182 0.2551441 0.2541899 0.2532327 0.2523437 0.2515486 0.2508107 0.2500639 0.2492628
 0.2483819 0.2473879 0.246265 0.2450867 0.2440081 0.2431476 0.2424862 0.2418981 0.2412569 0.2404971
 0.2396061 0.2386068 0.2375446 0.2364636 0.2353776 0.234268 0.2331023 0.2318506 0.2304974 0.2290491
 0.2275255 0.2259459 0.2243274 0.2226857 0.2210125 0.2192463 0.2172736 0.2149608 0.2121862 0.2088601
 0.2049492 0.2005076 0.1956885 0.1907082 0.1857769 0.1810572 0.1766783 0.1727624 0.1694165 0.1667102
 0.1646769 0.1633321 0.1626835 0.1627324 0.163469 0.1648577 0.1668266 0.1692717 0.1720631 0.1750437
 0.1780358 0.1808728 0.1834515 0.1857733 0.1879245 0.1899874 0.1919629 0.1937885 0.1954116 0.1968199
 0.1980201 0.1990208 0.1998381 0.2004999 0.2010439 0.2015133 0.2019414 0.2023345 0.2026757 0.2029494
 0.2031594 0.2033301 0.2034926 0.2036676 0.2038652 0.2040928 0.2043583 0.2046714 0.2050503 0.2055142
 0.2060532 0.2066254 0.2071971 0.2077712 0.2083691 0.2090069 0.2097043 0.2105 0.2114395 0.2125464
 0.2138074 0.215174 0.2165734 0.21792 0.21913 0.2201416 0.2209259 0.2214765 0.2217982 0.2219122
 0.221858 0.2216727 0.221375 0.2209781 0.220503 0.2199712 0.2193947 0.2187808 0.2181373 0.2174674
 0.2167721 0.2160625 0.2153617 0.2146862 0.2140327 0.2133887 0.2127549 0.2121432 0.2115555 0.2109794
 0.2104079 0.2098454 0.2092898 0.2087263 0.2081459 0.2075508 0.2069279 0.2062364 0.2054344 0.2045099
 0.2034746 0.2023409 0.2011173 0.1998177 0.1984561 0.197033 0.1955363 0.1939578 0.1923031 0.1905783
 0.1887721 0.1868643 0.1848645 0.1828353 0.1808642 0.1790135 0.1773029 0.1757261 0.1742635 0.1728875
 0.171575 0.1703144 0.1690989 0.1679234 0.1667922 0.1657181 0.164711 0.1637716 0.1628972 0.1620916
 0.1613718 0.1607532 0.1602255 0.1597556 0.1593207 0.1589315 0.1586254 0.1584468 0.1584142 0.1584861
 0.158572 0.1585954 0.1585388 0.1584277 0.1582973 0.158175 0.1580755 0.1580024 0.1579501 0.1578888
 0.1577474 0.1574325 0.1568642 0.1559918 0.1547991 0.1533133 0.1516055 0.1497815 0.1479746 0.1463155
 0.1448873 0.1437192 0.1428146 0.1421494 0.1416564 0.1412601 0.1409355 0.1407215 0.1406815 0.1408306
 0.1410727 0.1412452 0.1412766 0.1412765 0.141437 0.1418722 0.1425549 0.1433519 0.1441083 0.1447361
 0.1452284 0.1455961 0.1458381 0.1459703 0.146022 0.1460004 0.1458996 0.145726 0.1454893 0.1451992
 0.1448709 0.1444965 0.1440313 0.1434448 0.1427491 0.1419644 0.1411052 0.1401864 0.1391823 0.1380352
 0.1367905 0.135673 0.1349614 0.1348183 0.1352333 0.136046 0.1370426 0.1380869 0.1391036 0.1399156
 0.1402915 0.1403047 0.1405146 0.1415765 0.1436243 0.146111 0.1482795 0.1497174 0.1504244 0.1505142
 0.1500511 0.1490899 0.1476516 0.1456908 0.1432173 0.1403664 0.1372853 0.1341013 0.1310162 0.1282481
 0.1259002 0.1239953 0.1225346 0.121545 0.1211363 0.1209309 0.1190405 0.1130444 0.1037434 0.0968291
 0.09807929 0.1068458 0.1165204 0.1215053 0.1216475 0.119928 0.1184185 0.1174547 0.1169451 0.1170222
 0.1177874 0.119078 0.1205127 0.12171 0.1225076 0.1229254 0.1228994 0.1220559 0.1196591 0.1148734
 0.1074469 0.09828183 0.08912125 0.08154467 0.07626487 0.07315169 0.07158514 0.07081257 0.07031047 0.07002756
 0.07027917 0.07137267 0.07334678 0.07603629 0.07924071 0.08270305 0.08602155 0.08880648 0.0909608 0.09266157
 0.09404677 0.09505124 0.0955591 0.09558225 0.09524316 0.09466903 0.09395145 0.09314878 0.09225579 0.09120341
 0.08998854 0.08880745 0.0879472 0.08751623 0.08737746 0.08734791 0.08734512 0.08734392 0.08732348 0.0872829
 0.08724124 0.08723472 0.0873377 0.08761974 0.08804783 0.08848532 0.08880591 0.08898269 0.08907032 0.08908898
 0.0889142 0.0883824 0.08757751 0.08684491 0.08635178 0.08579892 0.08481117 0.08351552 0.08248492 0.08213142
 0.08233855 0.08267942 0.08282237 0.08269897 0.08245837 0.08237503 0.08267294 0.08326931 0.08374938 0.08374475
</values></Ydata></ScRf><Data_Parameters_AB><parameter name="DPF">1</parameter><parameter name="NPT">3497</parameter><parameter name="FXV">3996</parameter><parameter name="LXV">500</parameter><parameter name="CSF">1</parameter><parameter name="MXY">0.0491327084600925</parameter><parameter name="MNY">-0.0988102927803993</parameter><parameter name="DAT">27/05/2022</parameter><parameter name="TIM">12:09:54.872 (GMT+2)</parameter><parameter name="DXU">WN</parameter></Data_Parameters_AB><AB__Qtest><MainReport name="Quality Test Report"><Header><Line><Legend>Test result ok/not ok [1/0]: </Legend><Value>0</Value></Line><Line><Legend>Method file: </Legend><Value>C:\Users\Public\Documents\Bruker\OPUS_8.2.28\QT\IRBT_v3_default.QT</Value></Line></Header><Matrix><Line><Legend></Legend><Legend>min</Legend><Legend>max</Legend><Legend>measured</Legend></Line><Line><Value>Absorption (X-Range 1):</Value><Value>0.400000</Value><Value>2.000000</Value><Value>0.102610</Value></Line><Line><Value>Noise (X-Range 4):</Value><Value></Value><Value>0.000300</Value><Value>0.000034</Value></Line><Line><Value>Signal/Noise (X-Range 2):</Value><Value>200.000000</Value><Value></Value><Value>41.985086</Value></Line><Line><Value>Signal/Noise (X-Range 3):</Value><Value>40.000000</Value><Value></Value><Value>32.168882</Value></Line><Line><Value>Water vapour (X-Range 5):</Value><Value></Value><Value>0.000300</Value><Value>0.000075</Value></Line><Line><Value>Signal/Water (X-Range 2):</Value><Value>100.000000</Value><Value></Value><Value>18.863769</Value></Line><Line><Value>Signal/Water (X-Range 3):</Value><Value>20.000000</Value><Value></Value><Value>14.453379</Value></Line><Line><Value>Fringes (X-Range 6):</Value><Value></Value><Value>0.000100</Value><Value>0.000070</Value></Line></Matrix></MainReport></AB__Qtest><Data_Parameters_ScSm><parameter name="DPF">1</parameter><parameter name="NPT">1814</parameter><parameter name="FXV">3996.33169228125</parameter><parameter name="LXV">499.541461535156</parameter><parameter name="CSF">1</parameter><parameter name="MXY">0.283868491649628</parameter><parameter name="MNY">0.0353519506752491</parameter><parameter name="DAT">27/05/2022</parameter><parameter name="TIM">12:09:54.872 (GMT+2)</parameter><parameter name="DXU">WN</parameter></Data_Parameters_ScSm><Data_Parameters_ScRf><parameter name="DPF">1</parameter><parameter name="NPT">1820</parameter><parameter name="FXV">4004.04661832813</parameter><parameter name="LXV">495.683998511719</parameter><parameter name="CSF">1</parameter><parameter name="MXY">0.26434263586998</parameter><parameter name="MNY">0.0283015817403793</parameter><parameter name="DAT">27/05/2022</parameter><parameter name="TIM">12:09:28.775 (GMT+2)</parameter><parameter name="DXU">WN</parameter></Data_Parameters_ScRf><Optic_Parameters_Rf><parameter name="APR">0</parameter><parameter name="APT">Open</parameter><parameter name="BMS">KBr</parameter><parameter name="DTC">RT-DLaTGS_IR-Biotyper [Microplate reader]</parameter><parameter name="HPF">0</parameter><parameter name="LPF">10.0</parameter><parameter name="LPV">4000</parameter><parameter name="PGR">0</parameter><parameter name="RCH">Module port</parameter><parameter name="RDX">0</parameter><parameter name="SRC">MIR</parameter><parameter name="VEL">10.0</parameter><parameter name="SON">Off</parameter></Optic_Parameters_Rf><Acquisition_Parameters_Rf><parameter name="ADT">1</parameter><parameter name="AQM">DD</parameter><parameter name="CFE">0</parameter><parameter name="COR">0</parameter><parameter name="DEL">0</parameter><parameter name="DLY">0</parameter><parameter name="HFW">8000</parameter><parameter name="LFW">0</parameter><parameter name="NSR">32</parameter><parameter name="PLF">AB</parameter><parameter name="RES">6</parameter><parameter name="RGN">-1</parameter><parameter name="STR">0</parameter><parameter name="TCL">MakeCompatibleScalar (0, {WSV=1.000000, ARV=0});</parameter><parameter name="TDL">37</parameter><parameter name="RPO">0</parameter></Acquisition_Parameters_Rf><FT_-_Parameters_Rf><parameter name="APF">B3</parameter><parameter name="HFQ">500</parameter><parameter name="LFQ">4000</parameter><parameter name="NLI">0</parameter><parameter name="PHR">24</parameter><parameter name="PHZ">ML</parameter><parameter name="SPZ">NO</parameter><parameter name="ZFF">1</parameter></FT_-_Parameters_Rf><Optic_Parameters_><parameter name="APR">0</parameter><parameter name="APT">Open</parameter><parameter name="BMS">KBr</parameter><parameter name="CHN">Module port</parameter><parameter name="DTC">RT-DLaTGS_IR-Biotyper [Microplate reader]</parameter><parameter name="HPF">0</parameter><parameter name="LPF">10.0</parameter><parameter name="LPV">4000</parameter><parameter name="PGN">0</parameter><parameter name="RDX">0</parameter><parameter name="SRC">MIR</parameter><parameter name="VEL">10.0</parameter><parameter name="SON">Off</parameter></Optic_Parameters_><FT_-_Parameters_><parameter name="APF">B3</parameter><parameter name="HFQ">500</parameter><parameter name="LFQ">4000</parameter><parameter name="NLI">0</parameter><parameter name="PHR">24</parameter><parameter name="PHZ">ML</parameter><parameter name="SPZ">NO</parameter><parameter name="ZFF">1</parameter></FT_-_Parameters_><Acquisition_Parameters_><parameter name="ADT">1</parameter><parameter name="AQM">DD</parameter><parameter name="CFE">0</parameter><parameter name="COR">0</parameter><parameter name="DEL">0</parameter><parameter name="DLY">0</parameter><parameter name="HFW">8000</parameter><parameter name="LFW">0</parameter><parameter name="NSS">32</parameter><parameter name="PLF">AB</parameter><parameter name="RES">6</parameter><parameter name="SOT">0</parameter><parameter name="TCL">MakeCompatibleScalar (0, {WSV=1.000000, ARV=0});</parameter><parameter name="TDL">37</parameter><parameter name="SPO">0</parameter><parameter name="SGN">-1</parameter></Acquisition_Parameters_><Instrument_Parameters_Rf><parameter name="HFL">15800.168544</parameter><parameter name="LFL">0</parameter><parameter name="LWN">15800.168544</parameter><parameter name="ABP">32197</parameter><parameter name="SSP">1</parameter><parameter name="ARG">2</parameter><parameter name="ASG">2</parameter><parameter name="ASS">32</parameter><parameter name="GFW">16</parameter><parameter name="GBW">16</parameter><parameter name="BFW">0</parameter><parameter name="BBW">0</parameter><parameter name="PKA">7267</parameter><parameter name="PKL">4996</parameter><parameter name="PRA">7448</parameter><parameter name="PRL">5001</parameter><parameter name="P2A">1</parameter><parameter name="P2L">1</parameter><parameter name="P2R">1</parameter><parameter name="P2K">1</parameter><parameter name="DAQ">0</parameter><parameter name="AG2">1</parameter><parameter name="SSM">1</parameter><parameter name="RSN">24940</parameter><parameter name="CRR">0</parameter><parameter name="SRT">1653653368.775</parameter><parameter name="DUR">19.635986328125</parameter><parameter name="TSC">27.9</parameter><parameter name="MVD">0.837140142917633</parameter><parameter name="AN1">0.225833654099769</parameter><parameter name="AN2">0</parameter><parameter name="VSN">2.485 Apr  4 2017</parameter><parameter name="SRN">0085</parameter><parameter name="CAM">0</parameter><parameter name="INS">IR-Biotyper</parameter><parameter name="FOC">69</parameter><parameter name="RDY">1</parameter><parameter name="ARS">32</parameter></Instrument_Parameters_Rf><Sample_Parameters_><parameter name="BLD"></parameter><parameter name="CNM">Admin</parameter><parameter name="CPY"></parameter><parameter name="DPM"></parameter><parameter name="EXP">IRBT_v3_32Scans.XPM</parameter><parameter name="LCT"></parameter><parameter name="SFM">Microplate, HTS-XT</parameter><parameter name="SNM">220527-1039(v.2)_GFG29M (D_8)_F9_545cad0c-3486-4f64-bdbb-6e7f2bd3fe88.0</parameter><parameter name="XPP">C:\Users\Public\Documents\Bruker\OPUS_8.2.28\XPM</parameter><parameter name="IST">OK</parameter><parameter name="CPG">1252</parameter><parameter name="UID">680f7c2e-125d-4539-9fbf-39a49b878055</parameter></Sample_Parameters_><Instrument_Parameters_><parameter name="HFL">15800.168544</parameter><parameter name="LFL">0</parameter><parameter name="LWN">15800.168544</parameter><parameter name="ABP">32197</parameter><parameter name="SSP">1</parameter><parameter name="ASG">2</parameter><parameter name="ARG">2</parameter><parameter name="ASS">32</parameter><parameter name="GFW">16</parameter><parameter name="GBW">16</parameter><parameter name="BFW">0</parameter><parameter name="BBW">0</parameter><parameter name="PKA">8147</parameter><parameter name="PKL">4988</parameter><parameter name="PRA">8446</parameter><parameter name="PRL">4993</parameter><parameter name="P2A">1</parameter><parameter name="P2L">1</parameter><parameter name="P2R">1</parameter><parameter name="P2K">1</parameter><parameter name="DAQ">0</parameter><parameter name="AG2">1</parameter><parameter name="SSM">1</parameter><parameter name="RSN">13096</parameter><parameter name="CRR">0</parameter><parameter name="SRT">1653653394.873</parameter><parameter name="DUR">19.6349945068359</parameter><parameter name="TSC">27.9</parameter><parameter name="MVD">0.482101500034332</parameter><parameter name="AN1">0.225791833769758</parameter><parameter name="AN2">0</parameter><parameter name="VSN">2.485 Apr  4 2017</parameter><parameter name="SRN">0085</parameter><parameter name="CAM">0</parameter><parameter name="INS">IR-Biotyper</parameter><parameter name="FOC">69</parameter><parameter name="RDY">1</parameter></Instrument_Parameters_><History/></OPUSDataFile>
