<?xml version="1.0" encoding="UTF-8" ?>
<OPUSDataFile><AB><Ydata ylabel="Absorbance Units"><values byteorder="INTEL" format="FLOAT32" numvalues="3497"> -0.07446977 -0.07449947 -0.07450885 -0.07449748 -0.07447131 -0.07443066 -0.07438954 -0.0743484 -0.07431682 -0.0742944
 -0.07428411 -0.07428463 -0.07429331 -0.0743082 -0.07432328 -0.0743379 -0.07434766 -0.07435468 -0.07435971 -0.07436445
 -0.0743709 -0.07437848 -0.07438747 -0.07439698 -0.0744069 -0.074416 -0.07442443 -0.07442864 -0.07442826 -0.07441913
 -0.07440054 -0.07437352 -0.07433809 -0.0743016 -0.07426462 -0.07423622 -0.07421695 -0.07421482 -0.07422966 -0.074266
 -0.07432141 -0.07439378 -0.0744775 -0.07456376 -0.07464539 -0.07471102 -0.07475634 -0.07477257 -0.07476451 -0.07472983
 -0.07468311 -0.07462852 -0.07457902 -0.07453985 -0.07451065 -0.07449292 -0.0744777 -0.07446392 -0.07445045 -0.07443717
 -0.07443301 -0.07443823 -0.07445905 -0.07449421 -0.07453995 -0.07459376 -0.07464527 -0.07469172 -0.07472117 -0.07473284
 -0.07471797 -0.07468304 -0.07462969 -0.07457084 -0.07451808 -0.07447672 -0.07445616 -0.07444431 -0.07443948 -0.07442848
 -0.07440497 -0.07437643 -0.07434109 -0.07432281 -0.07432365 -0.07436258 -0.07444083 -0.07456049 -0.07472003 -0.07490087
 -0.07509778 -0.0752705 -0.07541354 -0.07548108 -0.07548087 -0.07540292 -0.07527081 -0.07511897 -0.07496537 -0.07484716
 -0.07476339 -0.07472942 -0.07472602 -0.07474942 -0.07477435 -0.07478824 -0.07478582 -0.07475978 -0.07473131 -0.07470251
 -0.07469276 -0.07470583 -0.07473061 -0.07476674 -0.0747844 -0.07478341 -0.07475458 -0.07470214 -0.0746479 -0.07459573
 -0.07457291 -0.07457696 -0.07461756 -0.07468569 -0.0747716 -0.0748653 -0.07495128 -0.0750239 -0.07507399 -0.07509837
 -0.07509147 -0.0750577 -0.07499305 -0.07492141 -0.07484497 -0.07479849 -0.07478825 -0.07483645 -0.07494837 -0.07510773
 -0.07531447 -0.07547934 -0.07559775 -0.07557573 -0.07542797 -0.0752012 -0.07491472 -0.07466885 -0.07446345 -0.07434952
 -0.07431599 -0.07437247 -0.07449299 -0.07465725 -0.07482558 -0.07495854 -0.07503341 -0.07501785 -0.07493801 -0.07479051
 -0.07462674 -0.07446059 -0.07431936 -0.07421154 -0.07413647 -0.07409523 -0.0740812 -0.07409401 -0.07413112 -0.07419224
 -0.07427411 -0.0743752 -0.07448552 -0.07460091 -0.07470111 -0.07478117 -0.07481696 -0.0748102 -0.07474862 -0.07464754
 -0.0745172 -0.07437967 -0.07425734 -0.07416107 -0.0741064 -0.07408416 -0.07409678 -0.07412386 -0.07416016 -0.07419344
 -0.0742193 -0.07424359 -0.07426681 -0.07429072 -0.07431569 -0.07432125 -0.07430651 -0.07425315 -0.07416403 -0.07404844
 -0.07391132 -0.07377665 -0.07364667 -0.07353969 -0.07345389 -0.07339553 -0.07335891 -0.07334103 -0.073333 -0.07332642
 -0.07331552 -0.0732929 -0.07326293 -0.07322404 -0.07318784 -0.07315702 -0.07314007 -0.0731394 -0.07315583 -0.0731901
 -0.07323718 -0.07329692 -0.07335792 -0.07341917 -0.07346223 -0.07348665 -0.07347843 -0.07344137 -0.07338141 -0.07330544
 -0.07323459 -0.07317197 -0.07313356 -0.07311714 -0.07312687 -0.07315821 -0.07320812 -0.07327519 -0.07335658 -0.07345647
 -0.07357644 -0.07371737 -0.07388262 -0.0740572 -0.07424159 -0.07440573 -0.0745475 -0.07463346 -0.07466152 -0.07459906
 -0.0744464 -0.07420336 -0.07387956 -0.07354075 -0.07319655 -0.07292298 -0.07271584 -0.07260599 -0.07257713 -0.07261925
 -0.07270575 -0.07279941 -0.0728837 -0.07292602 -0.07293978 -0.07292252 -0.07289314 -0.07286143 -0.07282797 -0.07279697
 -0.07275433 -0.07269787 -0.07261878 -0.0725144 -0.07239702 -0.07226694 -0.07215036 -0.07204852 -0.07198451 -0.07195743
 -0.07197529 -0.07203027 -0.07209884 -0.07216675 -0.07217953 -0.07214148 -0.0720263 -0.0718675 -0.07169884 -0.07153925
 -0.07142381 -0.07133649 -0.0712812 -0.07122815 -0.07116373 -0.07107823 -0.07096235 -0.07083512 -0.07069815 -0.07057008
 -0.07045469 -0.07034615 -0.07024472 -0.07012449 -0.06998488 -0.06981315 -0.06961411 -0.06941684 -0.0692255 -0.06907519
 -0.06896069 -0.06888579 -0.06884469 -0.06882914 -0.06883407 -0.06885403 -0.06887314 -0.06887938 -0.06885 -0.06876343
 -0.06862336 -0.06842073 -0.06818685 -0.06793123 -0.06766266 -0.06738631 -0.0670891 -0.06676907 -0.06642804 -0.06606568
 -0.06569828 -0.06532672 -0.06496671 -0.06461937 -0.06430063 -0.06401057 -0.06376029 -0.06354436 -0.06335508 -0.06318466
 -0.06301402 -0.06284168 -0.06265944 -0.06246401 -0.06225439 -0.0620134 -0.06172832 -0.06139516 -0.06100137 -0.06058142
 -0.06014156 -0.05971292 -0.05930427 -0.05891972 -0.05856149 -0.05822113 -0.05789825 -0.05758536 -0.05728261 -0.05699418
 -0.05672128 -0.05647782 -0.05625984 -0.05606365 -0.05587296 -0.05564026 -0.05535657 -0.05497034 -0.05451486 -0.05400858
 -0.05349164 -0.05301342 -0.05257495 -0.05219601 -0.05185065 -0.05153484 -0.05121813 -0.05088966 -0.05053759 -0.05015552
 -0.04975658 -0.04934118 -0.048925 -0.04850939 -0.04809612 -0.04768493 -0.04726898 -0.04684826 -0.04641971 -0.04598427
 -0.04554366 -0.04510016 -0.0446596 -0.0442268 -0.04381439 -0.04342321 -0.04306363 -0.04272241 -0.04239314 -0.04205885
 -0.04170429 -0.0413298 -0.04093033 -0.04051607 -0.04009108 -0.03965173 -0.03919838 -0.03872367 -0.03822479 -0.03771816
 -0.03720429 -0.0367122 -0.03624268 -0.0358059 -0.03540016 -0.03501712 -0.03465465 -0.03429905 -0.03394983 -0.0335975
 -0.03324508 -0.0328937 -0.03254667 -0.03221157 -0.03188218 -0.03155942 -0.03122484 -0.03086684 -0.03047386 -0.03003274
 -0.02956127 -0.02905916 -0.02855645 -0.02806011 -0.02758167 -0.02712468 -0.02668001 -0.02624744 -0.02581351 -0.02537791
 -0.02493752 -0.024493 -0.02404933 -0.023605 -0.02315632 -0.02270061 -0.02222547 -0.02173642 -0.02123465 -0.02073548
 -0.02026137 -0.01981872 -0.01942696 -0.01906912 -0.01874304 -0.01842355 -0.01809747 -0.01775589 -0.01739084 -0.01701363
 -0.01662462 -0.01623774 -0.01585579 -0.01547676 -0.01510104 -0.01471511 -0.01431854 -0.01390548 -0.01347728 -0.01304275
 -0.01260277 -0.01216661 -0.01173254 -0.0112999 -0.01086814 -0.01043413 -0.01000281 -0.009578297 -0.009168319 -0.008782428
 -0.008422629 -0.008096908 -0.007790943 -0.007504618 -0.00720884 -0.006895085 -0.006542721 -0.006143251 -0.005705495 -0.00522752
 -0.004738931 -0.004241593 -0.003761403 -0.003299309 -0.002866784 -0.002463263 -0.00208945 -0.001744087 -0.001422412 -0.001122745
 -0.00083874 -0.0005672276 -0.0003003859 -3.245028E-05 0.0002480729 0.0005436328 0.0008635249 0.00119857 0.001547245 0.001895712
 0.002235738 0.002565638 0.002881612 0.003192934 0.003501355 0.003810503 0.004121381 0.004432008 0.004742128 0.00505506
 0.005371005 0.005694921 0.006026212 0.006361935 0.00670088 0.007035964 0.00736644 0.007686938 0.00799626 0.008289311
 0.008565913 0.008822242 0.009062958 0.009290364 0.009510781 0.009729546 0.009948719 0.01017065 0.01039517 0.01062208
 0.01085394 0.01109126 0.0113358 0.01158859 0.01184362 0.01210089 0.01234595 0.01257814 0.01278594 0.01297106
 0.0131426 0.01330527 0.0134876 0.01368942 0.01392884 0.01419447 0.01447329 0.01475228 0.0150043 0.01523203
 0.01542456 0.01559941 0.01576528 0.01593433 0.01611764 0.01630749 0.01650619 0.01669383 0.01686616 0.01701242
 0.01712883 0.01722747 0.01730829 0.0173985 0.01749932 0.01763011 0.0177896 0.01797488 0.01818248 0.01839456
 0.01860883 0.01880847 0.01899489 0.01916162 0.01931443 0.01945774 0.01959916 0.0197484 0.01990798 0.02008501
 0.02027091 0.02046618 0.02065273 0.02082545 0.02096956 0.02107914 0.02115812 0.02120437 0.02124145 0.02127095
 0.02131235 0.0213661 0.02142623 0.0214912 0.02154234 0.0215815 0.02160658 0.02162312 0.02164806 0.02168249
 0.02173909 0.02181051 0.02189245 0.02197594 0.02204894 0.02211094 0.02215511 0.02219307 0.02222691 0.02227235
 0.02233604 0.02242214 0.0225355 0.02265902 0.02279255 0.02290811 0.02300329 0.02306123 0.02308143 0.02306861
 0.02302442 0.02296659 0.0228961 0.02282717 0.0227592 0.02269669 0.02264103 0.02259615 0.02256629 0.02256081
 0.02257794 0.02262328 0.02268142 0.02274487 0.02279715 0.02282507 0.02283362 0.02281765 0.02280331 0.02279547
 0.02281278 0.02286106 0.02292682 0.0230107 0.02307472 0.02311707 0.02310775 0.0230487 0.02294526 0.02280477
 0.02266612 0.02253565 0.02245562 0.02242298 0.02245515 0.02253784 0.02266055 0.02280303 0.02294237 0.02306079
 0.0231372 0.02316883 0.02314427 0.02308482 0.02299129 0.02289861 0.02281444 0.02276217 0.02274716 0.02277216
 0.02283806 0.02294067 0.02307978 0.0232529 0.02345843 0.0236817 0.0239167 0.02412547 0.02430227 0.02440557
 0.02444131 0.02439625 0.02429323 0.02415648 0.02401494 0.02390929 0.02385062 0.02386655 0.02393297 0.02405227
 0.02417488 0.02428616 0.0243465 0.0243409 0.02426987 0.0241281 0.02395161 0.02374244 0.02353784 0.02333951
 0.02315983 0.02299779 0.02284648 0.0227061 0.02257315 0.02245124 0.02235055 0.02227345 0.02223331 0.02222216
 0.02223908 0.02226151 0.02226836 0.02223491 0.02213345 0.02196271 0.0217077 0.02140207 0.02104934 0.02069704
 0.02035653 0.02005754 0.01980758 0.01960776 0.01945979 0.01934532 0.01926329 0.01918487 0.0191086 0.01900738
 0.01888309 0.01872982 0.01855369 0.01837259 0.01818878 0.01801893 0.01785476 0.01769151 0.01751996 0.01732502
 0.01711258 0.01687774 0.01664243 0.01641503 0.01621618 0.01605706 0.01593831 0.01586597 0.01581387 0.01578135
 0.0157282 0.01565075 0.01552223 0.01534141 0.01511445 0.0148439 0.01456002 0.01426511 0.01398766 0.01372659
 0.01349373 0.01328591 0.01310237 0.0129393 0.01279098 0.01265365 0.01252165 0.01239144 0.01225893 0.01212152
 0.01197645 0.01182423 0.01166365 0.01149945 0.01133254 0.0111665 0.01100289 0.01083598 0.01066574 0.01048113
 0.01028164 0.01006496 0.009832104 0.00959396 0.009352007 0.009120129 0.00889837 0.008694744 0.008507227 0.008336303
 0.008177304 0.008024357 0.007870807 0.007706953 0.007529746 0.007331794 0.007119634 0.006892846 0.006664359 0.006438754
 0.006223895 0.006023972 0.00583382 0.005654344 0.005471303 0.005283591 0.005079165 0.004857402 0.0046176 0.004360653
 0.004096464 0.00382665 0.003565252 0.003313109 0.003081037 0.002867656 0.002676317 0.00250241 0.002341314 0.002186233
 0.002028043 0.001862363 0.001680687 0.001489379 0.001285935 0.00109023 0.0009082406 0.0007563282 0.0006436397 0.0005548678
 0.0004928613 0.0004109094 0.000305049 0.0001396672 -8.713698E-05 -0.0003633366 -0.0006855294 -0.001008408 -0.001329563 -0.001611024
 -0.001855902 -0.002052973 -0.002210432 -0.002338971 -0.002451173 -0.002571015 -0.002708384 -0.00288731 -0.003099454 -0.003351318
 -0.003615945 -0.003880722 -0.004127751 -0.004343641 -0.004539544 -0.004714723 -0.004886601 -0.005060394 -0.005226023 -0.005384338
 -0.005504967 -0.005586319 -0.005614888 -0.005593009 -0.005544978 -0.005477033 -0.005437392 -0.005430138 -0.005497864 -0.005634332
 -0.0058509 -0.006128074 -0.006441837 -0.006771149 -0.007080585 -0.007366807 -0.007612467 -0.007831968 -0.008028945 -0.008213364
 -0.00839149 -0.008560004 -0.008718274 -0.008867919 -0.0090077 -0.009151315 -0.009300479 -0.009457788 -0.009623464 -0.009775375
 -0.009912414 -0.01001275 -0.01007939 -0.01011806 -0.01013466 -0.01015404 -0.01017752 -0.01022186 -0.01028222 -0.01035818
 -0.01044513 -0.0105357 -0.01063316 -0.01073494 -0.0108537 -0.0109948 -0.01116998 -0.01138794 -0.0116406 -0.01193221
 -0.01222833 -0.01252574 -0.01278597 -0.01300365 -0.01317214 -0.01329073 -0.01339454 -0.01348631 -0.01361282 -0.01377257
 -0.01398296 -0.01423501 -0.01450686 -0.01478916 -0.01504737 -0.01528099 -0.01547178 -0.01562834 -0.01575214 -0.015855
 -0.01594578 -0.01603543 -0.01613248 -0.01624178 -0.0163693 -0.01650611 -0.01665272 -0.01679173 -0.01691895 -0.01703366
 -0.01713365 -0.01724557 -0.01737085 -0.01753253 -0.01772906 -0.01794351 -0.01817118 -0.01837149 -0.01854821 -0.01868986
 -0.01881102 -0.018943 -0.01909197 -0.01928863 -0.01951543 -0.01976717 -0.02001812 -0.02024292 -0.02043588 -0.02058338
 -0.02070034 -0.02079001 -0.02086179 -0.02092066 -0.02096006 -0.02097925 -0.02097455 -0.02094403 -0.02090601 -0.02086131
 -0.02084335 -0.02085329 -0.02091517 -0.02102631 -0.02118416 -0.02138174 -0.02159308 -0.02181113 -0.02200515 -0.02217378
 -0.02229953 -0.02238782 -0.02243756 -0.02245603 -0.02244907 -0.02242058 -0.02237444 -0.02231162 -0.02223266 -0.02214049
 -0.02203513 -0.02192318 -0.02180587 -0.02168682 -0.02156745 -0.02143784 -0.02129764 -0.02112215 -0.02091041 -0.02064177
 -0.02031949 -0.01995171 -0.01954691 -0.01914135 -0.01874017 -0.01837697 -0.0180457 -0.01775285 -0.01748692 -0.01723582
 -0.01699441 -0.01675375 -0.01651463 -0.0162763 -0.01603597 -0.01579313 -0.01554243 -0.01528065 -0.01501377 -0.01474008
 -0.0144815 -0.0142394 -0.0140388 -0.01388135 -0.0137784 -0.01372933 -0.01372582 -0.01376544 -0.01382851 -0.01391305
 -0.01400171 -0.01409278 -0.0141751 -0.01424362 -0.01428558 -0.01429515 -0.01425776 -0.01417853 -0.01405271 -0.01389968
 -0.01372832 -0.01355532 -0.01339205 -0.01323473 -0.01308644 -0.0129308 -0.01276479 -0.01258132 -0.01237817 -0.01216623
 -0.01194586 -0.01173751 -0.01154229 -0.0113801 -0.01125109 -0.01116707 -0.01112573 -0.01112571 -0.01116224 -0.01122263
 -0.0113038 -0.0113926 -0.01149379 -0.01160441 -0.01174022 -0.01190966 -0.01213649 -0.01243502 -0.01282595 -0.01332301
 -0.0139269 -0.01464582 -0.01544768 -0.01633303 -0.01724209 -0.01817022 -0.01905517 -0.01989268 -0.02064772 -0.02132038
 -0.02191123 -0.02242303 -0.02287402 -0.02326619 -0.02361576 -0.02392515 -0.02420669 -0.02446638 -0.02471988 -0.0249722
 -0.02523813 -0.02551218 -0.02579759 -0.02607881 -0.02634786 -0.02659341 -0.02680694 -0.02699225 -0.0271473 -0.02728466
 -0.02740665 -0.0275194 -0.02762502 -0.02771247 -0.02778141 -0.02780907 -0.0277951 -0.02772997 -0.0276188 -0.02749001
 -0.02735358 -0.0272655 -0.02722891 -0.02728523 -0.02742036 -0.02763272 -0.02789624 -0.02817914 -0.02845997 -0.02870773
 -0.0289182 -0.02907694 -0.02919867 -0.02928379 -0.02935435 -0.0294173 -0.02948248 -0.02955466 -0.02962354 -0.02968848
 -0.02973931 -0.02977469 -0.02981796 -0.02987236 -0.02999873 -0.03020037 -0.03053449 -0.03099247 -0.0315768 -0.0322632
 -0.03299203 -0.03373922 -0.03442989 -0.03506386 -0.03560439 -0.03607854 -0.0364957 -0.0368838 -0.03726556 -0.03764472
 -0.03803117 -0.03840919 -0.0387763 -0.03912011 -0.03943694 -0.03972727 -0.03999025 -0.04023312 -0.04045623 -0.04066769
 -0.04086782 -0.04106258 -0.04125181 -0.04143739 -0.04161871 -0.04179442 -0.04196364 -0.04212366 -0.04227323 -0.04240862
 -0.04252961 -0.04263263 -0.04272337 -0.04280312 -0.04288452 -0.04297504 -0.04308474 -0.04322216 -0.04338095 -0.04356403
 -0.04374891 -0.0439326 -0.04409412 -0.04422968 -0.04433821 -0.04441901 -0.04448863 -0.04454784 -0.04461074 -0.04467639
 -0.04474399 -0.04481263 -0.04487673 -0.04493934 -0.04500514 -0.04507874 -0.04517238 -0.04528444 -0.04542035 -0.04556981
 -0.04572688 -0.04587957 -0.04601864 -0.04613822 -0.04623226 -0.04630479 -0.0463539 -0.04639349 -0.04642479 -0.04646526
 -0.04651755 -0.0465878 -0.046677 -0.04677336 -0.0468761 -0.04696956 -0.04705445 -0.0471287 -0.04719451 -0.04726081
 -0.04732727 -0.0473983 -0.04747077 -0.04754056 -0.04760602 -0.04766257 -0.04771199 -0.04775427 -0.04779105 -0.04782389
 -0.04785164 -0.04787397 -0.04789054 -0.04789974 -0.04790896 -0.04791832 -0.04794058 -0.04797769 -0.04803389 -0.04811003
 -0.04819294 -0.0482817 -0.04835705 -0.04841952 -0.04846363 -0.04849265 -0.04851774 -0.04854106 -0.04857565 -0.04861846
 -0.04867096 -0.04872659 -0.0487771 -0.04881863 -0.04884273 -0.04885476 -0.04885333 -0.04885181 -0.04885523 -0.04887404
 -0.04891348 -0.0489727 -0.04905338 -0.0491464 -0.0492511 -0.04935843 -0.04946768 -0.04957347 -0.0496756 -0.04977152
 -0.04986127 -0.04994409 -0.05001979 -0.0500872 -0.05014594 -0.05019369 -0.05023169 -0.05026014 -0.05028303 -0.05030545
 -0.05033108 -0.05036588 -0.05040902 -0.05046275 -0.05052166 -0.05058437 -0.05064504 -0.05070127 -0.0507517 -0.05079499
 -0.05083577 -0.05087417 -0.05091703 -0.05096493 -0.05101956 -0.05108065 -0.05114082 -0.05119912 -0.05124418 -0.05127633
 -0.05128994 -0.05128824 -0.05127634 -0.0512597 -0.05125132 -0.05125427 -0.05127966 -0.05132346 -0.05138758 -0.05146208
 -0.05154132 -0.05161794 -0.05168614 -0.0517475 -0.05180049 -0.05185194 -0.05190318 -0.05195744 -0.05201571 -0.05207488
 -0.05213487 -0.0521908 -0.05224261 -0.05229096 -0.05233637 -0.05238391 -0.05243348 -0.05248789 -0.05254548 -0.05260298
 -0.05265872 -0.0527074 -0.05274935 -0.05278259 -0.05280855 -0.0528278 -0.05284167 -0.05285105 -0.05285712 -0.05286023
 -0.05286256 -0.05286461 -0.05286885 -0.05287571 -0.05288762 -0.05290492 -0.0529295 -0.05296155 -0.05300163 -0.05304967
 -0.05310326 -0.05316196 -0.0532209 -0.05327987 -0.05333486 -0.05338678 -0.05343591 -0.05348376 -0.05353378 -0.05358596
 -0.05364248 -0.05370066 -0.05375893 -0.05381453 -0.05386443 -0.05390976 -0.05394965 -0.05398815 -0.0540268 -0.05406617
 -0.05410752 -0.05414478 -0.05417755 -0.05419894 -0.05420814 -0.05420725 -0.05419667 -0.05418798 -0.05418183 -0.05418918
 -0.05420912 -0.05424374 -0.0542908 -0.0543449 -0.05440424 -0.05446264 -0.05451955 -0.05457145 -0.05461907 -0.05466171
 -0.05470075 -0.05473714 -0.05477109 -0.0548033 -0.05483205 -0.05485691 -0.05487671 -0.05489072 -0.05490106 -0.05490771
 -0.05491459 -0.05492201 -0.05493267 -0.05494665 -0.05496416 -0.05498502 -0.05500764 -0.055032 -0.05505691 -0.05508289
 -0.05511087 -0.05514114 -0.05517525 -0.05521186 -0.05525009 -0.05528775 -0.05532209 -0.05535281 -0.05537871 -0.05540066
 -0.055419 -0.0554336 -0.05544451 -0.05545137 -0.05545378 -0.0554539 -0.05545181 -0.05545067 -0.05545074 -0.05545343
 -0.05545877 -0.05546676 -0.05547738 -0.0554905 -0.05550596 -0.05552286 -0.05554124 -0.05556053 -0.05558146 -0.05560552
 -0.05563268 -0.05566441 -0.05569787 -0.0557314 -0.05576097 -0.05578246 -0.05579653 -0.05580118 -0.05580303 -0.05580353
 -0.05580861 -0.05582045 -0.05583799 -0.05586177 -0.05588629 -0.05591109 -0.05593339 -0.05595312 -0.05597182 -0.05598952
 -0.05600742 -0.05602502 -0.05604035 -0.05605314 -0.056061 -0.05606504 -0.05606584 -0.0560659 -0.05606887 -0.05607695
 -0.05609446 -0.05611984 -0.05615458 -0.05619255 -0.05623152 -0.05626608 -0.05629296 -0.05631436 -0.05632928 -0.05634594
 -0.05636548 -0.05639225 -0.056427 -0.05646544 -0.0565073 -0.05654532 -0.05657942 -0.05660584 -0.05662517 -0.05663823
 -0.05664582 -0.05665078 -0.05665372 -0.05665729 -0.05666171 -0.05666853 -0.05667742 -0.05668886 -0.05670156 -0.05671488
 -0.05672743 -0.05673805 -0.05674717 -0.05675405 -0.05676239 -0.05677284 -0.05678843 -0.05681013 -0.05683533 -0.05686412
 -0.05688923 -0.05691037 -0.05692394 -0.05693052 -0.05693445 -0.05693653 -0.05694355 -0.05695477 -0.0569718 -0.05699281
 -0.05701451 -0.05703592 -0.05705405 -0.057069 -0.05707979 -0.05708683 -0.05708961 -0.05709035 -0.05708924 -0.0570909
 -0.05709723 -0.05710953 -0.05712956 -0.05715048 -0.0571718 -0.05718584 -0.05719156 -0.05719097 -0.05718427 -0.05718073
 -0.05718042 -0.05718797 -0.0572022 -0.05721952 -0.05723894 -0.05725523 -0.05726855 -0.05727672 -0.0572803 -0.05727932
 -0.05727395 -0.05726422 -0.05725069 -0.05723319 -0.05721419 -0.05719417 -0.0571775 -0.05716581 -0.05716161 -0.05716637
 -0.05717747 -0.05719499 -0.05721412 -0.05723437 -0.05725408 -0.05727318 -0.05729247 -0.05731177 -0.05732962 -0.05734554
 -0.05735582 -0.05736058 -0.05735785 -0.05734867 -0.057334 -0.05731557 -0.05729599 -0.05727757 -0.05726358 -0.05725565
 -0.05725645 -0.0572649 -0.0572818 -0.05730338 -0.05732902 -0.05735376 -0.05737657 -0.05739323 -0.05740286 -0.05740438
 -0.05739745 -0.05738479 -0.05736656 -0.057347 -0.05732638 -0.05730861 -0.05729441 -0.05728935 -0.05729457 -0.05731679
 -0.05735642 -0.05741785 -0.0575004 -0.05760484 -0.05773073 -0.05787748 -0.05804608 -0.05823657 -0.05845132 -0.05869064
 -0.05895949 -0.05925932 -0.05959506 -0.05996978 -0.06037688 -0.06081863 -0.06126532 -0.06171558 -0.06212943 -0.06250482
 -0.06281721 -0.06306671 -0.063248 -0.0633599 -0.06339433 -0.06334694 -0.06319761 -0.06294625 -0.06257349 -0.06210514
 -0.0615619 -0.06099528 -0.0604694 -0.06001374 -0.05967478 -0.05944678 -0.05934083 -0.05933738 -0.05943528 -0.05960515
 -0.05984595 -0.0601033 -0.06037232 -0.06058652 -0.06073806 -0.06080756 -0.06079408 -0.06073098 -0.06062095 -0.06050467
 -0.06038311 -0.06028412 -0.06020389 -0.06014661 -0.06010352 -0.06005685 -0.06000078 -0.05991768 -0.0598079 -0.05966551
 -0.05949169 -0.05928324 -0.05904936 -0.05878916 -0.05852823 -0.05827413 -0.05804965 -0.05786401 -0.05771471 -0.05760443
 -0.05751321 -0.05743965 -0.05736679 -0.05729374 -0.05721407 -0.05712798 -0.05703561 -0.05693784 -0.05683906 -0.05674079
 -0.05665058 -0.05656919 -0.05650294 -0.05644951 -0.05640905 -0.05637632 -0.05634535 -0.05631341 -0.0562749 -0.0562345
 -0.05619256 -0.05615551 -0.0561274 -0.05610442 -0.05608787 -0.05606524 -0.05603411 -0.05599127 -0.05593523 -0.05588053
 -0.05582792 -0.05579359 -0.05577698 -0.05577641 -0.05578912 -0.05579804 -0.05580239 -0.05578914 -0.05576245 -0.05572472
 -0.05568178 -0.0556449 -0.05561507 -0.05559916 -0.05559174 -0.05559133 -0.05559171 -0.05558862 -0.05558068 -0.05556605
 -0.05554671 -0.05552283 -0.05549585 -0.0554659 -0.05543476 -0.05540245 -0.05537269 -0.05534567 -0.0553234 -0.05530548
 -0.05528745 -0.05526845 -0.05524066 -0.05520473 -0.05515805 -0.05510335 -0.05504553 -0.05498723 -0.05493537 -0.05488983
 -0.05485355 -0.05482424 -0.05480108 -0.05478201 -0.0547657 -0.05475115 -0.0547378 -0.05472487 -0.05471221 -0.05469862
 -0.05468396 -0.05466712 -0.05464793 -0.05462588 -0.0546009 -0.05457389 -0.05454497 -0.05451625 -0.0544878 -0.05446118
 -0.05443613 -0.0544126 -0.05439038 -0.05436903 -0.05434834 -0.05432786 -0.05430722 -0.0542854 -0.05426353 -0.05424154
 -0.05422258 -0.05420892 -0.05420039 -0.05419913 -0.05419666 -0.0541917 -0.05417531 -0.05414478 -0.05410331 -0.05405021
 -0.05399985 -0.05395301 -0.05391999 -0.05390035 -0.05389044 -0.05388873 -0.05388369 -0.05387539 -0.05385717 -0.05383173
 -0.05380204 -0.05377077 -0.0537444 -0.05372221 -0.05370669 -0.05369398 -0.05368181 -0.05366734 -0.05364763 -0.05362427
 -0.0535964 -0.05356924 -0.05354371 -0.05352477 -0.05351383 -0.05351014 -0.05351421 -0.05351856 -0.05352277 -0.05352009
 -0.05351072 -0.05349583 -0.05347632 -0.05345858 -0.05344251 -0.05343125 -0.0534237 -0.05341856 -0.05341535 -0.05341268
 -0.05341026 -0.05340764 -0.05340329 -0.05339606 -0.0533843 -0.05336647 -0.05334294 -0.053313 -0.05327934 -0.05324204
 -0.05320569 -0.05317088 -0.05314222 -0.05312043 -0.05310604 -0.05309914 -0.05309457 -0.05309199 -0.05308496 -0.05307388
 -0.0530575 -0.05303737 -0.05301859 -0.05300247 -0.05299554 -0.05299641 -0.05300672 -0.05302182 -0.05303728 -0.05304847
 -0.05304952 -0.05304017 -0.0530177 -0.05298679 -0.0529478 -0.05290794 -0.05286882 -0.05283677 -0.0528134 -0.05280004
 -0.05279741 -0.05279993 -0.05280735 -0.05281299 -0.05281688 -0.05281866 -0.05281883 -0.05282105 -0.0528243 -0.05282723
 -0.05282752 -0.05281821 -0.05279919 -0.05276595 -0.05272245 -0.05267102 -0.05261682 -0.05256474 -0.05251845 -0.05248131
 -0.05245504 -0.05244142 -0.05243941 -0.05245004 -0.05246679 -0.05248945 -0.05250751 -0.05251978 -0.05251996 -0.05250753
 -0.05248696 -0.0524589 -0.05243464 -0.05241411 -0.05240303 -0.05239936 -0.05239848 -0.05239836 -0.0523907 -0.05237684
 -0.05235457 -0.0523278 -0.0523007 -0.05227496 -0.0522543 -0.05223596 -0.05221945 -0.05220205 -0.05218162 -0.05216064
 -0.05213867 -0.05212185 -0.05211135 -0.05211026 -0.0521195 -0.052135 -0.05215664 -0.05217471 -0.05218883 -0.05219112
 -0.05218259 -0.05216552 -0.0521422 -0.05212324 -0.05210872 -0.0521054 -0.05210917 -0.05211602 -0.05212218 -0.05212034
 -0.05211197 -0.0520952 -0.05207421 -0.05205097 -0.05202806 -0.05200677 -0.05198909 -0.05197559 -0.05196851 -0.05196882
 -0.0519743 -0.0519852 -0.05199434 -0.05200127 -0.05200123 -0.05199441 -0.05198364 -0.05196957 -0.05195817 -0.05194926
 -0.05194572 -0.05194606 -0.051948 -0.05195003 -0.0519481 -0.0519424 -0.05193109 -0.05191616 -0.05189875 -0.05187998
 -0.05186115 -0.05184151 -0.0518208 -0.05179939 -0.05177704 -0.05175563 -0.05173561 -0.0517171 -0.05170029 -0.05168355
 -0.05166674 -0.05165098 -0.05163643 -0.05162635 -0.05162044 -0.05161852 -0.05161931 -0.05161758 -0.05161249 -0.05159861
 -0.05157718 -0.05154727 -0.05151204 -0.0514748 -0.05143864 -0.05140781 -0.05138246 -0.05136474 -0.05135091 -0.05134037
 -0.05132844 -0.05131345 -0.05129392 -0.05126872 -0.05124175 -0.05121303 -0.05118931 -0.05117107 -0.05116136 -0.05115996
 -0.05116265 -0.05116862 -0.05117019 -0.05116713 -0.05115426 -0.05113226 -0.05109993 -0.05105877 -0.05101041 -0.05095749
 -0.05090358 -0.05085159 -0.05080556 -0.05076606 -0.05073519 -0.05071031 -0.05069128 -0.05067402 -0.05065755 -0.05063824
 -0.05061511 -0.05058727 -0.05055427 -0.05051866 -0.05048054 -0.05044341 -0.05040731 -0.05037291 -0.05034004 -0.05030753
 -0.05027562 -0.05024468 -0.05021497 -0.05018754 -0.05016192 -0.05013778 -0.0501147 -0.05009178 -0.05006954 -0.05004819
 -0.05002795 -0.05000921 -0.0499912 -0.0499736 -0.04995622 -0.04993885 -0.04992202 -0.04990591 -0.04989034 -0.04987544
 -0.04985954 -0.04984256 -0.04982219 -0.04979841 -0.04977041 -0.04973858 -0.04970546 -0.04967144 -0.04963993 -0.04961017
 -0.04958224 -0.04955453 -0.04952366 -0.0494897 -0.04945074 -0.04940918 -0.04936621 -0.04932456 -0.04928661 -0.04925251
 -0.04922357 -0.04919652 -0.04917132 -0.04914214 -0.04910788 -0.04906469 -0.04901149 -0.04895151 -0.04888476 -0.04881959
 -0.0487563 -0.04869992 -0.04865002 -0.0486057 -0.04856629 -0.0485282 -0.04849161 -0.04845488 -0.0484191 -0.04838547
 -0.04835509 -0.04833059 -0.04831058 -0.04829591 -0.04828136 -0.04826434 -0.04823978 -0.04820415 -0.04815793 -0.04809975
 -0.04803491 -0.04796403 -0.04789208 -0.04781984 -0.04774886 -0.04767931 -0.04761101 -0.04754408 -0.0474808 -0.04742182
 -0.04737354 -0.04733627 -0.04731584 -0.04730967 -0.04731513 -0.04732628 -0.04733061 -0.04732438 -0.04729538 -0.04724882
 -0.04718369 -0.04711007 -0.04703454 -0.04696177 -0.0468965 -0.04683549 -0.04677911 -0.04672218 -0.04666328 -0.04660238
 -0.04653888 -0.04647812 -0.04642038 -0.04637104 -0.04633022 -0.0462995 -0.04627817 -0.04626207 -0.04624935 -0.04622953
 -0.04620167 -0.04615633 -0.04609698 -0.04602559 -0.04594593 -0.04586509 -0.04578161 -0.04569631 -0.04560832 -0.04551551
 -0.04542385 -0.0453351 -0.04525501 -0.04518745 -0.04512626 -0.04507214 -0.0450108 -0.04494006 -0.04485562 -0.04475662
 -0.0446543 -0.04454933 -0.04445547 -0.04437226 -0.04430262 -0.04424423 -0.04418838 -0.04413311 -0.04406758 -0.04399325
 -0.04390711 -0.04381309 -0.04371537 -0.04361645 -0.04352026 -0.04342757 -0.04333995 -0.04325765 -0.04318172 -0.04310971
 -0.04304165 -0.04297274 -0.04290177 -0.04282735 -0.04274885 -0.04266934 -0.04258912 -0.0425075 -0.04242424 -0.04233238
 -0.04223179 -0.04211744 -0.0419912 -0.04185839 -0.04172186 -0.04159352 -0.04147238 -0.0413637 -0.04126136 -0.04115958
 -0.0410524 -0.04093054 -0.04079609 -0.04064517 -0.04048991 -0.04033451 -0.04018865 -0.0400579 -0.03993851 -0.03983228
 -0.03972424 -0.0396132 -0.03948284 -0.03933149 -0.03915777 -0.03896222 -0.03876353 -0.03856236 -0.03837352 -0.03819445
 -0.0380213 -0.03785138 -0.03767388 -0.03749026 -0.0372972 -0.03709973 -0.03690341 -0.03671204 -0.03653233 -0.03636259
 -0.03620628 -0.03605177 -0.03589771 -0.03572304 -0.03552049 -0.03527902 -0.03499174 -0.03467677 -0.03433485 -0.03398827
 -0.03363932 -0.0332879 -0.03293397 -0.03257307 -0.03220632 -0.03184303 -0.03148303 -0.0311331 -0.03078704 -0.03043035
 -0.03005691 -0.02964351 -0.0291982 -0.0287192 -0.02822454 -0.02773294 -0.02725054 -0.02678883 -0.02634238 -0.02591171
 -0.02549059 -0.02507787 -0.02466636 -0.02425697 -0.02382903 -0.02338241 -0.02287714 -0.02230949 -0.0216643 -0.02094276
 -0.02020588 -0.01945676 -0.01875285 -0.01808497 -0.0174388 -0.01680545 -0.01614862 -0.01547061 -0.01475873 -0.01401827
 -0.01325679 -0.01246258 -0.01163544 -0.01073821 -0.009746266 -0.008633097 -0.007364468 -0.00599379 -0.004518132 -0.003044754
 -0.001598762 -0.0002299655 0.001047802 0.002249917 0.00337557 0.004459238 0.005503257 0.006559177 0.00763171 0.008792666
 0.01003351 0.01136371 0.01274631 0.01406439 0.01531322 0.01641397 0.01741102 0.01833691 0.01922224 0.02011475
 0.02101216 0.02192755 0.02285131 0.02377981 0.02471476 0.02565937 0.02659867 0.02753237 0.02843323 0.02929492
 0.03012581 0.03092558 0.03171614 0.03249758 0.03324668 0.0339604 0.03459652 0.03516053 0.03565527 0.03609245
 0.03651355 0.03691646 0.0373229 0.03771046 0.03805042 0.03834176 0.03856616 0.03874888 0.03890401 0.03904284
 0.03917783 0.03929865 0.03940542 0.03948439 0.03953223 0.03954265 0.0395139 0.03944691 0.03934105 0.03920921
 0.03905216 0.03888835 0.03871716 0.03854013 0.03835477 0.03814837 0.03792154 0.03766675 0.03739212 0.03710806
 0.03682903 0.03658117 0.03637203 0.03622066 0.03612338 0.03608263 0.03609619 0.03616363 0.03628316 0.03645639
 0.03667087 0.0369245 0.03720605 0.03751255 0.03784841 0.03821367 0.03861461 0.03905137 0.03951887 0.0400166
 0.04053702 0.0410809 0.04164831 0.0422401 0.04285895 0.04350518 0.04418024 0.04488537 0.04562331 0.04639413
 0.04719971 0.04803727 0.04890539 0.04980195 0.05072512 0.05167545 0.05265265 0.05365803 0.05469263 0.05575284
 0.05683997 0.0579359 0.05903976 0.0601266 0.06119549 0.06224627 0.06328093 0.06432498 0.06537257 0.06641161
 0.06742436 0.06834179 0.06916521 0.06985843 0.07044389 0.07094336 0.07136423 0.07172562 0.07201874 0.07224247
 0.0723912 0.07246774 0.07244582 0.07232934 0.07204062 0.0715594 0.07085066 0.06988818 0.06882959 0.06768609
 0.06657932 0.06551366 0.06442723 0.06331595 0.06211346 0.06082637 0.05945643 0.05801046 0.05651919 0.05496689
 0.05334516 0.05160999 0.04967421 0.04755761 0.04519668 0.0427833 0.04044526 0.03828776 0.03643853 0.03476719
 0.03325723 0.03179412 0.03033666 0.0288928 0.02745463 0.02607397 0.02475671 0.02350221 0.02231016 0.02113581
 0.0199781 0.01880904 0.01763358 0.01646275 0.01530326 0.01418338 0.01310496 0.01208725 0.01112546 0.01022229
 0.009368093 0.008556484 0.007771625 0.007005853 0.0062287 0.005425157 0.004566597 0.003624498 0.002657196 0.001660457
 0.0007612241 -1.305953E-05 -0.0006603284 -0.001173669 -0.001639969 -0.002063289 -0.002494195 -0.002930803 -0.003367184 -0.003800279
 -0.004208796 -0.004596502 -0.004966912 -0.005320291 -0.005664417 -0.005984036 -0.006260396 -0.006477444 -0.006605204 -0.006653028
 -0.006614616 -0.00651376 -0.006361952 -0.006171508 -0.005951683 -0.005696423 -0.005409679 -0.005063465 -0.00465757 -0.004141167
 -0.003508741 -0.002735729 -0.001821464 -0.0008524501 0.0001628555 0.001093417 0.001944467 0.002677222 0.003304714 0.003852491
 0.004323707 0.004736252 0.005092628 0.005397743 0.005671956 0.005933034 0.006214861 0.006554389 0.006950957 0.007427238
 0.007922255 0.008416677 0.008879238 0.009291471 0.009685021 0.01006123 0.01045492 0.01087076 0.01130949 0.01177117
 0.01222819 0.01267987 0.01310773 0.01351638 0.01391985 0.01432747 0.01477875 0.01527901 0.01586471 0.01652394
 0.01725557 0.01804304 0.01886226 0.01971972 0.02061087 0.02154982 0.02254823 0.02359402 0.02468967 0.02580437
 0.02692903 0.0280557 0.02917894 0.03032271 0.03148967 0.03268648 0.03391337 0.03510765 0.03626378 0.03729353
 0.03819818 0.03894104 0.03952594 0.03995066 0.04020835 0.04028344 0.04016569 0.03982726 0.03927553 0.03850098
 0.03753446 0.03639361 0.03511051 0.03370861 0.03219791 0.03058637 0.0288779 0.02706623 0.02520151 0.02328264
 0.02141291 0.01960231 0.01791797 0.0163639 0.01491934 0.01358096 0.01229837 0.0110733 0.009889272 0.00875375
 0.007685772 0.006687386 0.005775676 0.004942124 0.004182578 0.003483552 0.002829498 0.002207782 0.001603777 0.001010541
 0.0004191278 -0.0001670846 -0.0007501797 -0.001319786 -0.001873442 -0.002405563 -0.002914158 -0.00340295 -0.003872332 -0.004323043
 -0.004755157 -0.005151568 -0.005510622 -0.005804924 -0.006035405 -0.006192031 -0.006280423 -0.00631487 -0.006300671 -0.006257399
 -0.006187346 -0.006102867 -0.006004193 -0.005896296 -0.00577834 -0.005649665 -0.005514613 -0.005372042 -0.005237799 -0.005115524
 -0.005024775 -0.004971355 -0.004965389 -0.005010003 -0.005104803 -0.005250401 -0.00544099 -0.005676297 -0.005944847 -0.006245411
 -0.006559629 -0.006885217 -0.007199737 -0.007500515 -0.007765568 -0.007994637 -0.00817419 -0.008310269 -0.0084056 -0.008468936
 -0.008512288 -0.008538546 -0.008554959 -0.008558191 -0.008547251 -0.008523065 -0.008483815 -0.008439264 -0.008390812 -0.008349419
 -0.008317242 -0.008299614 -0.008297385 -0.008311899 -0.008343281 -0.008391981 -0.008457847 -0.008539395 -0.008635569 -0.008739743
 -0.008849759 -0.008954072 -0.009051596 -0.009132612 -0.009200485 -0.009254928 -0.009303563 -0.00935459 -0.009415078 -0.009493914
 -0.009592947 -0.009717175 -0.009860239 -0.01002268 -0.01019111 -0.01036311 -0.01052457 -0.01067253 -0.01080046 -0.01090691
 -0.01099518 -0.01106536 -0.01112559 -0.01117626 -0.01122464 -0.01127046 -0.01131628 -0.01136054 -0.01139922 -0.01143012
 -0.01144583 -0.01144525 -0.011423 -0.01137956 -0.01131306 -0.01122556 -0.01111693 -0.01099281 -0.01085485 -0.01071248
 -0.01056931 -0.01043291 -0.01030661 -0.01019047 -0.01008544 -0.009986992 -0.009894635 -0.009806536 -0.009722527 -0.009645212
 -0.009574761 -0.009514372 -0.009463805 -0.009423369 -0.00939214 -0.009367028 -0.009346876 -0.009327011 -0.009307493 -0.009285337
 -0.009263744 -0.009244425 -0.009232828 -0.009234374 -0.009251217 -0.009287328 -0.009338291 -0.009403746 -0.009477952 -0.009558678
 -0.009646084 -0.009739642 -0.009842094 -0.009954016 -0.01007294 -0.01019882 -0.01032457 -0.01044988 -0.0105688 -0.0106812
 -0.01078331 -0.01087516 -0.01095433 -0.01102211 -0.01107982 -0.01113044 -0.01117983 -0.01122976 -0.01128541 -0.01134508
 -0.01140976 -0.01147524 -0.01153961 -0.01159904 -0.01165148 -0.01169524 -0.01172941 -0.01175386 -0.01176827 -0.01177407
 -0.0117712 -0.01176312 -0.01175004 -0.01173598 -0.01172092 -0.01170481 -0.01168711 -0.01166367 -0.01163488 -0.0115997
 -0.01155959 -0.01151849 -0.01147556 -0.01143215 -0.01138435 -0.01132782 -0.01126013 -0.01117745 -0.01107999 -0.01096781
 -0.01083794 -0.01069022 -0.01051821 -0.01031972 -0.0100929 -0.009836194 -0.009555606 -0.009251363 -0.008931244 -0.008595779
 -0.008248638 -0.007889807 -0.007518898 -0.007135767 -0.00673905 -0.006329196 -0.005907171 -0.005473712 -0.00503129 -0.004580108
 -0.004121141 -0.003655724 -0.003184764 -0.002712646 -0.002242994 -0.00178007 -0.001327367 -0.0008870244 -0.0004595598 -5.067956E-05
 0.0003390439 0.0006998138 0.001028872 0.001326384 0.001590779 0.001838978 0.002071801 0.002310465 0.00255574 0.002820935
 0.003106259 0.003419702 0.003761274 0.004136393 0.004542738 0.00497818 0.005437804 0.005912009 0.006397058 0.006883593
 0.007372647 0.007861509 0.008353506 0.008851475 0.009351945 0.009856949 0.01035135 0.01083219 0.01128451 0.01170388
 0.01209067 0.01244359 0.01277476 0.01308484 0.01338511 0.01367621 0.01396916 0.01426471 0.01457488 0.0148978
 0.01523387 0.01557767 0.01591465 0.01624224 0.01654804 0.01683479 0.01710096 0.01734967 0.01758251 0.01780379
 0.01801521 0.01822426 0.0184346 0.01864988 0.01887268 0.0190996 0.01933017 0.01956307 0.01979758 0.02003906
 0.02028767 0.02055323 0.02083643 0.02115081 0.02149618 0.02187972 0.02229705 0.02273503 0.02318725 0.02362935
 0.02405919 0.02446251 0.02483745 0.02517858 0.02547743 0.02572458 0.02591513 0.02603979 0.02611062 0.02612833
 0.0261119 0.02606714 0.02600425 0.02592633 0.02583588 0.02573356 0.02562 0.0254953 0.02535875 0.02521055
 0.02505441 0.02489157 0.02473331 0.0245803 0.02444201 0.02431691 0.02420606 0.02410698 0.02401642 0.02393046
 0.02384396 0.0237506 0.02364275 0.02351743 0.02336956 0.02320243 0.02301632 0.02281382 0.02259613 0.0223624
 0.02211225 0.0218477 0.0215686 0.02128047 0.0209836 0.02068435 0.02038316 0.02008859 0.01980059 0.0195241
 0.01925646 0.01898933 0.01871954 0.01843262 0.01813053 0.01780897 0.01747419 0.01713258 0.01678899 0.0164504
 0.01611799 0.01579656 0.01547838 0.01516459 0.01483497 0.01448459 0.01409621 0.01366382 0.01319128 0.01267745
 0.01213706 0.01157116 0.01098557 0.01038046 0.009756811 0.009115842 0.008466976 0.007812995 0.007170308 0.006541936
 0.005944649 0.005379763 0.004859841 0.004378568 0.003935675 0.003516648 0.003107944 0.002700388 0.002281604 0.001857748
 0.001427116 0.001002082 0.0005861176 0.0001865674 -0.0001943119 -0.0005545084 -0.0008930435 -0.001214112 -0.001517717 -0.001814756
 -0.002105611 -0.002396854 -0.002687302 -0.002970566 -0.003244962 -0.003499284 -0.003733858 -0.003943465 -0.004130114 -0.00429504
 -0.004440376 -0.004569737 -0.004683609 -0.004784361 -0.0048697 -0.004938315 -0.004990289 -0.005023613 -0.00504604 -0.00505909
 -0.00507042 -0.005082882 -0.005093401 -0.005102393 -0.00510164 -0.005090403 -0.005068204 -0.00503525 -0.004997955 -0.004956641
 -0.004916582 -0.004877829 -0.00484338 -0.004813203 -0.004789171 -0.004770227 -0.004755916 -0.004743412 -0.004728925 -0.004709875
 -0.004681441 -0.004645861 -0.004601838 -0.00455652 -0.00451365 -0.004474439 -0.004442542 -0.00440463 -0.004359114 -0.004292481
 -0.004201293 -0.004093367 -0.003968503 -0.00384889 -0.003735368 -0.00364056 -0.003563681 -0.003503535 -0.003459231 -0.00342679
 -0.003404937 -0.003388145 -0.003375261 -0.003359577 -0.003345613 -0.003335082 -0.003336922 -0.003362413 -0.003410138 -0.00348704
 -0.00357383 -0.003666037 -0.003739446 -0.00378499 -0.003792057 -0.003755269 -0.003681925 -0.003571431 -0.003439255 -0.003286473
 -0.003124413 -0.002953585 -0.00278085 -0.002606878 -0.002440798 -0.002282745 -0.002139791 -0.002008392 -0.001882287 -0.001757291
 -0.001620463 -0.001474062 -0.001314884 -0.001148664 -0.0009812271 -0.0008119391 -0.0006431121 -0.000469706 -0.0002889617 -0.0001015414
 9.43731E-05 0.0002903788 0.0004860416 0.000669029 0.0008381387 0.000980568 0.001095042 0.001177863 0.001229317 0.001262357
 0.001278629 0.001298255 0.001321633 0.001361309 0.001416372 0.001490703 0.001583174 0.001694231 0.00182077 0.001959464
 0.002105652 0.002253071 0.00240074 0.002544798 0.002690413 0.00283831 0.002995485 0.003164961 0.003347809 0.003546429
 0.003749863 0.003958009 0.004152124 0.004330545 0.004484548 0.004614268 0.004733703 0.004844923 0.004973383 0.005118506
 0.005292533 0.005490159 0.005702554 0.00592373 0.006137098 0.006340064 0.006521557 0.006682588 0.006818898 0.006936491
 0.007035413 0.007130079 0.007225945 0.007337621 0.007473092 0.00762948 0.007810083 0.007993778 0.008178061 0.008348551
 0.008503232 0.008649454 0.008787705 0.008932117 0.009082573 0.009243673 0.009414185 0.009591209 0.009772693 0.009952023
 0.0101254 0.01028117 0.01041886 0.01052986 0.01062386 0.01070483 0.01078875 0.01088822 0.01101146 0.01116809
 0.01135022 0.0115593 0.0117782 0.01200371 0.01222326 0.0124346 0.01263255 0.01281686 0.01297752 0.01311398
 0.01321318 0.01327676 0.01331331 0.01332863 0.01335713 0.01340002 0.01348202 0.01359385 0.01372843 0.01387661
 0.01402023 0.0141597 0.01428816 0.01441017 0.01452717 0.01464169 0.01475514 0.01486944 0.01498551 0.01510425
 0.01522594 0.01535132 0.01548037 0.01561555 0.0157574 0.01590088 0.01604551 0.01617475 0.01628868 0.01638054
 0.01645387 0.01652391 0.01659168 0.0166705 0.01675403 0.01683456 0.01690846 0.01696412 0.01700908 0.01704484
 0.01708418 0.01713591 0.0172102 0.01731552 0.01745151 0.01762381 0.01781094 0.01801179 0.01819381 0.01835139
 0.0184717 0.01855215 0.01860752 0.01863864 0.01866747 0.01869472 0.01873591 0.01879024 0.01886286 0.01895056
 0.01904509 0.01914579 0.01924469 0.01934912 0.01946708 0.01960297 0.01976764 0.01995217 0.02015406 0.0203643
 0.02057688 0.02079092 0.02100715 0.02121511 0.02141406 0.02158688 0.02172899 0.02184819 0.0219438 0.02204225
 0.02214466 0.02226141 0.02239184 0.02253176 0.02268198 0.02284513 0.02302176 0.02321618 0.02342577 0.02364699
 0.02387729 0.02411243 0.02434784 0.02458012 0.02479712 0.0249903 0.02514784 0.02526061 0.0253271 0.02534338
 0.02531734 0.02524735 0.02515573 0.02504285 0.0249479 0.02487418 0.02485072 0.02487876 0.02495554 0.02507967
 0.02523622 0.02542347 0.02562726 0.0258423 0.02604328 0.02622773 0.02637372 0.02649249 0.02659108 0.02668083
 0.02677829 0.02688393 0.02699888 0.02713647 0.0272989 0.02751472 0.02780473 0.02813639 0.02851636 0.02885081
 0.02912189 0.02931188 0.02941524 0.02947121 0.02948166 0.02947953 0.02946673 0.02947593 0.02950689 0.02958036
 0.02968556 0.02979885 0.02990874 0.02997332 0.03000027 0.02998137 0.02993137 0.02986642 0.02978585 0.02969441
 0.02958863 0.0294646 0.02933312 0.02919585 0.02906636 0.02894736 0.02885127 0.02877984 0.02874555 0.02875087
 0.02878367 0.02884306 0.02888411 0.02890491 0.02886746 0.02877517 0.02862539 0.02842521 0.0281943 0.02794263
 0.02770111 0.02747788 0.02730469 0.02716814 0.02706917 0.02698386 0.02688611 0.02679049 0.02669438 0.02662573
 0.02660378 0.02659879 0.02661124 0.02659029 0.02652264 0.02642438 0.02629318 0.02619018 0.0261184 0.02610902
 0.02616109 0.02627342 0.02644303 0.02665563 0.02690517 0.02716312 0.02742673 0.02767407 0.02790974 0.02813288
 0.02834402 0.02854411 0.02873109 0.02890168 0.02906162 0.02921474 0.02935853 0.02949516 0.02961079 0.02969883
 0.02977201 0.02982931 0.02990104 0.02999222 0.03008464 0.03017738 0.03022081 0.03021725 0.03017899 0.03011522
 0.03009025 0.0300983 0.03015665 0.03024734 0.0303334 0.03041295 0.03046348 0.03049765 0.0305215 0.03054399
 0.03057346 0.03061629 0.03067948 0.03075994 0.03086193 0.03096371 0.0310604 0.03113914 0.03119549 0.03123864
 0.03126977 0.03128471 0.03128323 0.0312443 0.03116872 0.03106048 0.03092309 0.03078043 0.03063163 0.03048522
 0.03034042 0.03019859 0.03006204 0.0299381 0.02982002 0.02970292 0.02958176 0.02944486 0.02931137 0.02918822
 0.02909056 0.02903324 0.02898773 0.02895273 0.0288878 0.0287837 0.02863664 0.02844371 0.02823082 0.02799927
 0.02778334 0.02758425 0.02742927 0.02731374 0.0272272 0.02715884 0.02706117 0.02693592 0.02675764 0.02654736
 0.02632938 0.02611623 0.02593417 0.02577983 0.02565644 0.02556737 0.02551655 0.02550113 0.025528 0.0255615
 0.025596 0.02559462 0.02554712 0.02546 0.02533103 0.02519882 0.02506546</values></Ydata></AB><ScSm><Ydata ylabel="Single channel"><values byteorder="INTEL" format="FLOAT32" numvalues="1814"> 0.07221438 0.07223997 0.07231977 0.07247446 0.0726812 0.07288352 0.07302926 0.07310592 0.07313112 0.07311519
 0.0730652 0.07302755 0.07308078 0.07325843 0.07349801 0.07368181 0.07373019 0.07367261 0.07363346 0.07371226
 0.07385197 0.0738539 0.07356451 0.07304829 0.07254412 0.07224344 0.07217328 0.07233661 0.07282415 0.07357794
 0.07413615 0.07396687 0.07313544 0.07232969 0.07209599 0.07231461 0.07252194 0.07244165 0.07207247 0.07158825
 0.07138102 0.07194827 0.07340524 0.07509187 0.07581265 0.07458552 0.07134009 0.06714895 0.06383933 0.06301165
 0.06490622 0.06807779 0.07048082 0.07110076 0.0704397 0.06948724 0.06866307 0.06793682 0.06749818 0.0677889
 0.06888326 0.070079 0.07025511 0.06882207 0.06643023 0.06452236 0.06402272 0.0647487 0.06617751 0.06801462
 0.06940746 0.06849302 0.06423414 0.05874746 0.05635734 0.05947848 0.06603834 0.07151796 0.07297596 0.07066672
 0.06670287 0.06331173 0.06202454 0.06325564 0.06619895 0.06950729 0.07212475 0.07333622 0.07258037 0.06993669
 0.06660408 0.06431147 0.06424923 0.06661059 0.0705604 0.07430296 0.07589225 0.07467398 0.071725 0.06871356
 0.06680112 0.06664408 0.06854678 0.07213116 0.0763367 0.08004934 0.08255306 0.08357183 0.08331551 0.08235726
 0.08120197 0.08020462 0.07987916 0.08057901 0.08166882 0.08177099 0.08027067 0.07813781 0.07692482 0.07716029
 0.0779313 0.07799557 0.07703787 0.07544483 0.07306185 0.06920484 0.06420755 0.0598058 0.0573989 0.05699375
 0.05824828 0.06101783 0.06413703 0.06533752 0.06372529 0.06136788 0.06123189 0.06402378 0.06783357 0.07048807
 0.07156211 0.07223556 0.07376312 0.07618219 0.07813441 0.07788 0.07502285 0.07149132 0.07017738 0.07210076
 0.07543629 0.07777043 0.07864903 0.0793163 0.08053295 0.08139569 0.08027256 0.07673602 0.07262146 0.07090603
 0.07311721 0.07780185 0.08157551 0.08162654 0.07760902 0.07173282 0.06704123 0.06530441 0.06652834 0.07009398
 0.07544094 0.08148516 0.08635221 0.08842064 0.08750133 0.08473982 0.08131613 0.07735762 0.07256073 0.06799851
 0.06633553 0.06929845 0.07545776 0.08142284 0.0848693 0.08569083 0.08466473 0.08200524 0.07759361 0.07238744
 0.06888197 0.06917164 0.07243659 0.07541274 0.07581638 0.07442226 0.07337636 0.07349996 0.07398934 0.07408997
 0.07416934 0.07510243 0.07703777 0.07907484 0.08015101 0.08001409 0.07925408 0.07860483 0.07827686 0.07781456
 0.07673889 0.07551566 0.07548599 0.07739959 0.08038111 0.08282869 0.08401541 0.08434485 0.08428269 0.08354801
 0.08153115 0.07845039 0.07581891 0.07531969 0.07717499 0.08001065 0.08228385 0.08338871 0.08350568 0.08304481
 0.08237164 0.08168576 0.08107674 0.08077672 0.08110689 0.08201589 0.08297195 0.0834932 0.08353905 0.08327878
 0.08275798 0.08196254 0.08105379 0.0803726 0.0801955 0.0805238 0.08113015 0.08176534 0.08224511 0.08240315
 0.08214991 0.08160733 0.08103499 0.0805914 0.08028367 0.08013289 0.0802215 0.08053963 0.08091412 0.08115465
 0.08120614 0.08112438 0.0809623 0.08072914 0.0804362 0.08014603 0.07996547 0.07996839 0.08010931 0.0802533
 0.08033013 0.0804046 0.08053543 0.08063214 0.08055013 0.08029005 0.08000936 0.07984936 0.07982109 0.07984933
 0.07985464 0.0797676 0.07952088 0.07910928 0.07867099 0.07843544 0.07853797 0.07892077 0.0794256 0.07991087
 0.08026733 0.0804289 0.08042447 0.08035111 0.08026044 0.08012153 0.07990845 0.07968169 0.07956906 0.07967092
 0.07997 0.08033527 0.08062748 0.08078783 0.08083363 0.08082882 0.08086413 0.08098629 0.08112462 0.08115707
 0.081067 0.08097195 0.08098172 0.08107635 0.08114276 0.08110671 0.0810145 0.08098411 0.08108054 0.08125664
 0.08142123 0.08154091 0.0816572 0.08181214 0.08196986 0.08202858 0.08193143 0.08175029 0.08161769 0.08158626
 0.08161038 0.08165736 0.08176139 0.0819436 0.0821401 0.08225584 0.08227074 0.0822561 0.08228297 0.08233848
 0.08234845 0.08226879 0.08213235 0.08201116 0.08195576 0.08196991 0.08201951 0.08205628 0.08204658 0.08198942
 0.08190832 0.0818252 0.08174673 0.08168076 0.08166113 0.08173255 0.08188932 0.08203958 0.0820626 0.08191869
 0.08169252 0.08151462 0.08144154 0.08141798 0.08135007 0.08120077 0.08101015 0.08084209 0.08072999 0.08066767
 0.08063023 0.08059704 0.08057146 0.08058745 0.08067905 0.08082487 0.08093733 0.0809356 0.08082712 0.08069599
 0.08061828 0.08061059 0.08064733 0.08069801 0.08075325 0.08083313 0.08095594 0.08108969 0.0811661 0.08116042
 0.08112766 0.08114773 0.08126419 0.08147283 0.08172258 0.08192294 0.08200476 0.08199321 0.08198655 0.08205287
 0.08217779 0.08231585 0.08245288 0.0825995 0.0827554 0.08291145 0.08307874 0.08329039 0.08356677 0.08388625
 0.08419322 0.08443666 0.08461148 0.08477084 0.08499098 0.08531129 0.08570246 0.08609231 0.08642446 0.08669718
 0.08694888 0.08720842 0.08747189 0.08773565 0.08803079 0.08839444 0.08881591 0.08924092 0.08962892 0.08998319
 0.09032837 0.09068169 0.09104916 0.0914357 0.0918522 0.09230696 0.09278042 0.09321684 0.09356403 0.0938265
 0.09406938 0.09436905 0.094759 0.09520252 0.09560801 0.09589911 0.0960943 0.09629774 0.09658755 0.09693539
 0.09726453 0.09756409 0.09790041 0.09831744 0.09876838 0.09916492 0.09947202 0.09973377 0.1000131 0.100321
 0.1006097 0.1008323 0.100999 0.1011628 0.1013582 0.1015824 0.1018397 0.1021661 0.1025795 0.1030296
 0.1034342 0.1037518 0.1039966 0.1041993 0.104382 0.104557 0.1047233 0.1048736 0.1050187 0.1051801
 0.1053507 0.1054948 0.1056071 0.1057349 0.1059241 0.1061734 0.1064634 0.1067941 0.1071614 0.1075267
 0.1078577 0.1081872 0.1085811 0.1090361 0.1094517 0.1097332 0.1098895 0.1099975 0.1101079 0.1102325
 0.1103987 0.1106532 0.1110029 0.1113996 0.1117917 0.1121653 0.1125298 0.1128859 0.1132133 0.1134785
 0.1136567 0.1137545 0.1138154 0.1139014 0.1140647 0.1143212 0.1146355 0.1149393 0.1151743 0.1153144
 0.1153498 0.1152795 0.1151411 0.1150173 0.1149725 0.1149808 0.1149384 0.1147504 0.1143885 0.1138722
 0.1132246 0.1124661 0.1116404 0.1108282 0.1101225 0.1095935 0.1092805 0.1092155 0.1094314 0.1099252
 0.1106164 0.1113675 0.1120492 0.1125693 0.1128474 0.1128052 0.112416 0.1117451 0.1109186 0.1100578
 0.1092444 0.1085131 0.1078521 0.1072401 0.1067189 0.1064264 0.1065373 0.1071673 0.1083232 0.1099052
 0.111733 0.1135925 0.115307 0.1167952 0.1180682 0.119175 0.1201588 0.121059 0.1219226 0.1227772
 0.123601 0.1243475 0.1250014 0.1255882 0.1261321 0.1266283 0.1270557 0.1273985 0.1276574 0.1278544
 0.128017 0.12815 0.128238 0.1282844 0.1283233 0.1283731 0.1283982 0.1283315 0.1281257 0.1277802
 0.1273471 0.1269459 0.1267671 0.1270248 0.1278538 0.1292236 0.1309492 0.1327938 0.134564 0.1361291
 0.1374048 0.1383672 0.1390735 0.1396314 0.1401338 0.1406243 0.1411104 0.1415863 0.1420434 0.1424747
 0.1428811 0.1432753 0.1436784 0.1441031 0.1445363 0.144948 0.1453255 0.1456922 0.146087 0.1465267
 0.1469885 0.1474309 0.1478375 0.1482322 0.1486405 0.1490446 0.1494017 0.1497035 0.1499904 0.1503086
 0.1506768 0.1510897 0.1515208 0.1519216 0.1522496 0.1525092 0.1527485 0.1530138 0.1533155 0.1536365
 0.1539579 0.1542706 0.1545747 0.1548803 0.1552049 0.1555539 0.155901 0.1562017 0.1564372 0.1566378
 0.1568552 0.1571153 0.1574021 0.1576827 0.1579447 0.1582107 0.1585152 0.1588652 0.1592242 0.159541
 0.1597939 0.1600044 0.1602129 0.1604473 0.1607151 0.1610093 0.1613118 0.1615988 0.1618591 0.1621059
 0.1623634 0.162641 0.1629272 0.1632054 0.1634693 0.163724 0.1639784 0.1642369 0.1645011 0.164779
 0.1650851 0.1654197 0.1657554 0.1660551 0.1663041 0.1665164 0.1667143 0.1669144 0.1671289 0.1673657
 0.1676229 0.1678891 0.1681547 0.16842 0.168689 0.1689585 0.1692195 0.1694679 0.1697092 0.1699532
 0.1702071 0.1704746 0.1707542 0.171036 0.1713062 0.1715584 0.171799 0.172041 0.1722929 0.1725529
 0.1728118 0.1730609 0.1733005 0.1735394 0.1737879 0.1740484 0.1743118 0.1745617 0.174789 0.1750035
 0.1752256 0.175468 0.1757275 0.1759928 0.1762555 0.1765137 0.176769 0.1770201 0.1772624 0.1774944
 0.1777215 0.1779502 0.1781835 0.1784239 0.1786735 0.1789295 0.1791846 0.1794359 0.1796865 0.1799392
 0.1801919 0.1804389 0.1806752 0.1809008 0.1811202 0.1813393 0.1815622 0.1817913 0.1820277 0.1822721
 0.1825268 0.1827917 0.1830593 0.1833193 0.1835689 0.1838137 0.1840611 0.1843159 0.1845784 0.1848435
 0.1851049 0.1853632 0.1856219 0.1858796 0.1861299 0.1863665 0.186588 0.1868007 0.1870154 0.1872362
 0.1874574 0.1876747 0.1878934 0.1881191 0.1883509 0.1885855 0.1888197 0.1890512 0.189282 0.1895182
 0.1897612 0.1900084 0.1902576 0.1905048 0.1907451 0.1909807 0.1912215 0.1914714 0.1917267 0.1919849
 0.1922452 0.1925031 0.1927541 0.1929982 0.1932367 0.1934751 0.1937223 0.1939794 0.1942372 0.1944895
 0.1947361 0.1949738 0.1952031 0.1954367 0.1956841 0.1959375 0.1961863 0.19643 0.1966707 0.1969092
 0.1971486 0.197388 0.1976233 0.1978596 0.1981058 0.1983563 0.1986005 0.1988422 0.1990894 0.199339
 0.1995861 0.1998315 0.2000718 0.2003046 0.2005383 0.2007799 0.2010264 0.2012765 0.2015263 0.2017505
 0.2018948 0.2018356 0.201263 0.1995555 0.1957632 0.1887928 0.1778376 0.1628839 0.144897 0.1254827
 0.1062957 0.08860834 0.07317776 0.06032879 0.05011121 0.04241831 0.03707157 0.03393142 0.032995 0.03450069
 0.0390619 0.04731304 0.05851661 0.0693129 0.075019 0.07332762 0.06651439 0.05936097 0.05517835 0.05420706
 0.05504435 0.05649522 0.05818121 0.06031173 0.0632482 0.06709117 0.07166481 0.07696578 0.08337943 0.09118986
 0.09999321 0.1088639 0.1171472 0.1249703 0.1329314 0.1413695 0.1500011 0.1581976 0.1654859 0.171781
 0.1772822 0.1822571 0.1868987 0.1913048 0.1955183 0.1995219 0.2031619 0.206127 0.2080919 0.2089558
 0.2089624 0.2085747 0.2082088 0.2080646 0.2081601 0.2084539 0.2089123 0.2095126 0.2102363 0.2110608
 0.2119522 0.2128745 0.2138001 0.2147038 0.2155582 0.2163466 0.2170689 0.2177308 0.2183373 0.2188935
 0.219402 0.2198641 0.2202898 0.2206945 0.2210835 0.2214525 0.2218015 0.2221356 0.2224534 0.2227488
 0.2230186 0.2232639 0.2234889 0.2237038 0.2239197 0.224139 0.2243539 0.2245571 0.2247529 0.2249557
 0.2251758 0.2254051 0.2256261 0.2258331 0.2260369 0.2262449 0.2264518 0.22665 0.2268391 0.2270237
 0.2272121 0.2274148 0.2276349 0.2278618 0.2280817 0.2282907 0.228494 0.2286976 0.2289036 0.2291092
 0.2293135 0.229524 0.2297482 0.2299802 0.2302066 0.2304251 0.2306444 0.2308697 0.2311001 0.231332
 0.2315551 0.2317545 0.2319271 0.2320914 0.2322742 0.2324896 0.2327267 0.2329585 0.2331682 0.2333668
 0.2335749 0.2337968 0.2340194 0.2342272 0.2344178 0.2346107 0.234834 0.2350904 0.2353516 0.2355967
 0.2358348 0.2360815 0.2363386 0.2366023 0.2368609 0.2370851 0.2372523 0.2373889 0.2375672 0.237848
 0.2382219 0.238611 0.238938 0.2391931 0.239422 0.2396696 0.2399553 0.240258 0.2404914 0.2405613
 0.2405086 0.2405371 0.2408272 0.2413574 0.2419514 0.242458 0.2428445 0.2431583 0.2434443 0.2436963
 0.2438665 0.2439212 0.243907 0.2439682 0.2442531 0.2447653 0.2453438 0.2458259 0.2461767 0.2464373
 0.2466406 0.2468105 0.2469222 0.2468405 0.2464639 0.2459956 0.2458963 0.2464387 0.2474008 0.2483034
 0.2488834 0.2492294 0.249516 0.2497847 0.2499971 0.2500717 0.2497681 0.2488235 0.2474629 0.2465466
 0.2468566 0.2483049 0.2500793 0.2514577 0.2522619 0.2526741 0.2529228 0.2531335 0.2532345 0.2529618
 0.2521549 0.2511527 0.250707 0.2512862 0.2525475 0.2537063 0.254339 0.2546035 0.2548126 0.2550842
 0.2552639 0.2548859 0.2534356 0.2511115 0.2492085 0.2492092 0.2513344 0.2542743 0.2564844 0.2575153
 0.2578923 0.2579749 0.2574327 0.2558431 0.2533141 0.2504327 0.2481105 0.2474848 0.2491604 0.2522412
 0.2548345 0.2559213 0.256214 0.2569409 0.2583701 0.2598008 0.2604978 0.2602693 0.2593372 0.2579287
 0.2561713 0.2544855 0.2538116 0.2549385 0.2575481 0.260332 0.262202 0.2631135 0.2634963 0.2629824
 0.2601559 0.2542664 0.2473568 0.243684 0.2459539 0.2524867 0.2590172 0.2628807 0.2644569 0.2651629
 0.2655708 0.2652547 0.263013 0.2574995 0.2493183 0.2423865 0.2412943 0.2467542 0.2547935 0.2604766
 0.2613004 0.2574751 0.2510041 0.2450587 0.2426885 0.244984 0.2506096 0.2571227 0.2624342 0.2653725
 0.2656724 0.2638648 0.2612221 0.2594413 0.2594216 0.2599249 0.2585091 0.2546188 0.2505286 0.2479968
 0.2455158 0.2410694 0.2365645 0.2365649 0.2423789 0.2498958 0.2542184 0.2546223 0.2536534 0.2524557
 0.2487747 0.2401907 0.2287153 0.2208396 0.2218578 0.230383 0.2396018 0.2439496 0.2435197 0.2420331
 0.2418719 0.2416682 0.2382523 0.2308041 0.2229149 0.2195508 0.2217398 0.2256332 0.2270317 0.2247259
 0.2189718 0.2101193 0.2010389 0.1979594 0.2051728 0.2197367 0.2338178 0.2411531 0.2392718 0.2280054
 0.2103771 0.1944807 0.189524 0.1975527 0.2109619 0.2195192 0.2184667 0.2092808 0.19529 0.1794589
 0.165801 0.1596934 0.1646076 0.1786332 0.1946495 0.2038582 0.2005913 0.1867163 0.1720298 0.1671775
 0.1739514 0.1840987 0.1886103 0.1859023 0.180414 0.176859 0.1775229 0.1820038 0.1876439 0.1919782
 0.1946868 0.1947997 0.1880225 0.1719074 0.1527483 0.1414686 0.1422689 0.1504008 0.1609142 0.1731185
 0.1850109 0.1902056 0.1851443 0.1758963 0.1730457 0.1804599 0.1919583 0.1988756 0.1986393 0.1952646
 0.1930766 0.1920526 0.190023 0.1877385 0.189027 0.1955559 0.2039596 0.2095974 0.2113728 0.2113446
 0.2112138 0.2110283 0.2103558 0.2090449 0.2071518 0.2050506 0.2033233 0.2020993 0.2009407 0.1995191
 0.1975882 0.1939718 0.1868308 0.1762844 0.1660744 0.1606405 0.1604467 0.1622302 0.1638331 0.1654848
 0.1653342 0.1581755 0.1423558 0.1254284 0.1186614 0.1261622 0.1418302 0.1562722 0.1639468 0.1636084
 0.1555179 0.14174 0.1285851 0.1246683 0.1338598 0.151537 0.1695249 0.1831497 0.1917998 0.1950366
 0.1917722 0.1831554 0.1737737 0.1690765 0.1720375 0.1817721 0.1938294 0.2013755 0.1985081 0.1860957
 0.1744857 0.1759499 0.1917981 0.2102082 0.2195079 0.2200435 0.2195856 0.221257 0.2219021 0.2204814
 0.2215331 0.2288701 0.2399053 0.2481825 0.2490397 0.241438 0.2273721 0.2123789 0.2041294 0.2062834
 0.2143431 0.2205714 0.2215175 0.2175771 0.2083866 0.194736 0.1834708 0.183383 0.195001 0.2093835
 0.2182776 0.2216312 0.2239084 0.2264144 0.2257639 0.2190821 0.2088335 0.2013068 0.2003736 0.204071
 0.2078773 0.209488 0.2088489 0.2054313 0.1985598 0.1903918 0.1859508 0.1887556 0.1971939 0.2060774
 0.2113301 0.2125455 0.21168 0.2105579 0.209666 0.2083646 0.2061412 0.2042041 0.2052353 0.2104619
 0.2175908 0.2231127 0.2263089 0.2294877 0.2343781 0.2397348 0.2428361 0.2424501 0.2400189 0.2384169
 0.2396559 0.2432909 0.2467494 0.2475258 0.2455578 0.2434928 0.2442405 0.2481949 0.2531785 0.2569228
 0.2589239 0.2599745 0.2608265 0.2615537 0.2615237 0.2598979 0.2568607 0.2543389 0.2546444 0.258172
 0.2629987 0.2668317 0.2688303 0.2695006 0.26948 0.268869 0.2675636 0.2658353 0.2643578 0.2636917
 0.2638878 0.2646161 0.2655197 0.2663739 0.2670661 0.2675776 0.2679548 0.2682403 0.2684603 0.2686626
 0.2688876 0.2690946 0.2692064 0.2692552 0.2693987 0.2697355 0.2701646 0.2704875 0.2705844 0.2704132
 0.2698997 0.2689615 0.2676376 0.2660758 0.2643608 0.2624705 0.2605035 0.2589011 0.258304 0.259088
 0.2610253 0.263422 0.265581 0.2671474 0.2681108 0.2686206 0.2688461 0.268927 0.2689509 0.2689397
 0.2688731 0.2687368 0.2685443 0.2683171 0.268066 0.2678035 0.2675599 0.2673614 0.2671928 0.2669982
 0.2667225 0.2663479 0.2658973 0.2654089 0.2649049 0.2643685 0.2637479 0.2629923 0.2620957 0.2611131
 0.260132 0.259222 0.2583951 0.2576029 0.2567778 0.2558755 0.2548665 0.2537035 0.2523565 0.2508979
 0.2494934 0.2482644 0.2471872 0.2461459 0.2450397 0.2438203 0.2424756 0.2410214 0.2394941 0.2379292
 0.2363473 0.2347561 0.2331524 0.2315237 0.2298554 0.2281361 0.2263577 0.224517 0.2226194 0.2206705
 0.2186535 0.2165067 0.2141249 0.2113855 0.2081786 0.2044306 0.200132 0.1953667 0.1903058 0.1851599
 0.1801273 0.1753621 0.1709664 0.1670086 0.1635574 0.1606925 0.1584825 0.1569658 0.1561556 0.1560461
 0.1566126 0.1578074 0.1595529 0.1617351 0.1642103 0.1668187 0.1693902 0.1717691 0.1738739 0.1757377
 0.1774707 0.1791674 0.1808435 0.182451 0.1839414 0.1852983 0.1865152 0.1875743 0.1884695 0.1892306
 0.1898989 0.1904915 0.1910049 0.1914397 0.1918096 0.1921363 0.1924427 0.1927474 0.1930699 0.1934358
 0.1938629 0.1943438 0.1948585 0.1954038 0.1959998 0.1966666 0.1974013 0.1981797 0.1989805 0.1998032
 0.2006611 0.2015704 0.2025656 0.2037097 0.2050595 0.2066252 0.2083768 0.2102689 0.2122358 0.2141791
 0.2159819 0.2175387 0.2187847 0.2197176 0.2203885 0.2208622 0.2211836 0.2213771 0.2214569 0.2214311
 0.221309 0.2211049 0.2208309 0.2204897 0.2200768 0.2195858 0.2190208 0.2184083 0.2177837 0.2171599
 0.2165268 0.215883 0.2152457 0.2146265 0.2140177 0.213407 0.2127932 0.2121832 0.2115805 0.2109819
 0.2103819 0.2097679 0.2091081 0.208361 0.2075062 0.2065493 0.2054882 0.2043041 0.2029953 0.2015958
 0.2001448 0.1986564 0.1971235 0.1955353 0.1938887 0.1921867 0.1904187 0.1885504 0.1865601 0.1844862
 0.1824196 0.1804482 0.1786127 0.1769024 0.1752822 0.1737293 0.1722473 0.1708431 0.169509 0.168237
 0.1670282 0.1658772 0.1647687 0.1636989 0.1626875 0.161766 0.1609619 0.1602827 0.1597064 0.1591971
 0.1587336 0.1583162 0.1579605 0.1576983 0.1575575 0.1575182 0.1575039 0.1574312 0.1572615 0.1570093
 0.1567253 0.1564668 0.1562626 0.1561021 0.1559541 0.1557779 0.1555156 0.1550947 0.1544448 0.1535097
 0.1522561 0.1506914 0.1488769 0.1469291 0.1450046 0.143254 0.1417694 0.1405732 0.139643 0.1389268
 0.1383546 0.1378752 0.1374868 0.1372254 0.1371293 0.1371932 0.1373268 0.1373896 0.1373238 0.1372372
 0.1373148 0.1376593 0.1382319 0.1389091 0.139565 0.1401226 0.140549 0.1408261 0.1409563 0.1409834
 0.1409547 0.1408674 0.1406934 0.1404379 0.1401309 0.1397847 0.13939 0.1389333 0.1384064 0.1378138
 0.1371582 0.1364183 0.1355728 0.1346323 0.1336016 0.1324567 0.131239 0.1301375 0.129406 0.1292062
 0.1295334 0.1302358 0.1311108 0.1320323 0.1329304 0.1336264 0.1338754 0.1337398 0.1337902 0.1346912
 0.1365549 0.1388184 0.1407587 0.1420106 0.1425814 0.1425677 0.1420267 0.1410128 0.13955 0.1376072
 0.1352082 0.1324898 0.1295929 0.1266248 0.1237434 0.1211287 0.1188765 0.1170117 0.1155411 0.1145158
 0.1140713 0.1138542 0.1120686 0.1064187 0.09762627 0.09100439 0.09199097 0.1000361 0.1089827 0.1135813
 0.1136722 0.1120304 0.1105798 0.1096361 0.1091353 0.109223 0.1100031 0.1113137 0.1127636 0.1139585
 0.114741 0.115146 0.1151236 0.1143376 0.1121282 0.1077314 0.1008945 0.0924255 0.08392122 0.07684544
 0.07188503 0.0689503 0.06746536 0.06671472 0.0662205 0.06595495 0.06620346 0.06722744 0.06905194 0.07152502
 0.07446781 0.07765302 0.08070742 0.08325814 0.08521952 0.0867698 0.08802865 0.08891944 0.08934309 0.08932418
 0.08897367 0.0884182 0.08776432 0.08705029 0.08621681 0.08517098 0.08393437 0.08273768 0.08189161 0.08150981
 0.08142657 0.0814177 0.08139916 0.08138358 0.08137391 0.08135337 0.08131151 0.08127874 0.08136199 0.08167097
 0.08216896 0.08267422 0.08303091 0.08321861 0.08330452 0.08332212 0.08317818 0.08273651 0.08207079 0.08149087
 0.08113757 0.08070777 0.07983915 0.07866418 0.07772903 0.07741135 0.07760901 0.07795124 0.07813515 0.07806969
 0.07787342 0.07781174 0.07810933 0.07868426</values></Ydata></ScSm><ScRf><Ydata ylabel="Single channel"><values byteorder="INTEL" format="FLOAT32" numvalues="1820"> 0.0605414 0.06070284 0.06079971 0.06083518 0.06083705 0.0608513 0.0609216 0.06106228 0.06124731 0.06142421
 0.0615476 0.06160868 0.06162589 0.06161022 0.06156677 0.06153316 0.0615755 0.06172255 0.06192239 0.06207778
 0.06212378 0.06208467 0.06206153 0.06213342 0.06224804 0.06223591 0.06197016 0.0615124 0.06107271 0.06081796
 0.06076934 0.06092113 0.06134181 0.06198175 0.06245583 0.06231651 0.0616146 0.06092694 0.06071624 0.06088751
 0.06105719 0.06099674 0.06070109 0.06030614 0.06013627 0.06061604 0.06185013 0.06327987 0.06388558 0.06282961
 0.06005466 0.05647872 0.05366006 0.0529599 0.0545795 0.05728546 0.05933423 0.05986165 0.05929883 0.05849465
 0.05780736 0.05720213 0.05682965 0.05706644 0.05798789 0.05900683 0.05916848 0.05796242 0.05593351 0.05430526
 0.0538657 0.05446704 0.055673 0.0572352 0.05842486 0.05765507 0.05404305 0.04938474 0.04735233 0.05000274
 0.05558348 0.060253 0.06149822 0.0595274 0.05614661 0.05326647 0.05219241 0.05326394 0.05578166 0.05859612
 0.06081349 0.06183156 0.06117828 0.05892446 0.05608848 0.05413745 0.05408311 0.0560919 0.05945352 0.06263793
 0.06398994 0.06295821 0.06046253 0.05791729 0.05629952 0.05616177 0.05776922 0.06081254 0.06439562 0.06756665
 0.06970876 0.07058335 0.07037081 0.06956401 0.06859587 0.06776471 0.06749788 0.06808864 0.06899893 0.06906752
 0.06778261 0.06597408 0.06495877 0.06517808 0.06584844 0.06591024 0.06509492 0.06373258 0.06169537 0.05840569
 0.05414821 0.05039615 0.04833945 0.04799355 0.04908193 0.05148567 0.05419881 0.05526822 0.05391807 0.05190768
 0.05177205 0.05412547 0.05735178 0.05960463 0.06052208 0.06110809 0.06242913 0.06451251 0.06619492 0.06598854
 0.06355476 0.06054531 0.05943809 0.06110545 0.0639791 0.06598891 0.06675057 0.06733812 0.06840672 0.06918071
 0.06826114 0.06528439 0.06182228 0.06041362 0.06235022 0.06638151 0.06961754 0.06966215 0.06622762 0.06121565
 0.05723897 0.05580844 0.0569196 0.060045 0.06471776 0.07001467 0.07431827 0.07621587 0.07552232 0.07321212
 0.07030945 0.06693774 0.06283969 0.05894711 0.05758292 0.06026208 0.06574525 0.07106999 0.07419594 0.07502194
 0.07422331 0.07197922 0.06817462 0.06365527 0.06064462 0.06101541 0.06404112 0.06680889 0.06727585 0.06613178
 0.06529939 0.06552099 0.06607853 0.06629052 0.06648311 0.06744533 0.0693168 0.07128966 0.07239966 0.07240443
 0.07182816 0.07134461 0.07116126 0.07086799 0.0700215 0.0690454 0.06917097 0.07108499 0.0739772 0.07636879
 0.07758947 0.07801534 0.07807995 0.07751934 0.07575963 0.07300314 0.07067081 0.07034595 0.0722392 0.07505741
 0.07734661 0.0785366 0.07879921 0.07851888 0.07803629 0.07754282 0.07713044 0.07701599 0.07748818 0.07848762
 0.07951671 0.08013402 0.08030899 0.08019669 0.07983044 0.07919595 0.07845604 0.07794387 0.07792365 0.07839379
 0.07913581 0.0799087 0.08052659 0.08081547 0.08068102 0.08025144 0.07980344 0.0795096 0.07937349 0.07939799
 0.07964868 0.08010906 0.08060709 0.08095653 0.08110716 0.08112179 0.08106348 0.08094749 0.08077873 0.0806078
 0.08053887 0.08065236 0.08090607 0.08116341 0.08135536 0.08155028 0.08180559 0.08202444 0.08205493 0.08189288
 0.08169647 0.08161426 0.08166473 0.08177449 0.08186287 0.08186036 0.08169865 0.08136777 0.08100006 0.08082522
 0.08099073 0.081457 0.08207169 0.08267551 0.08313251 0.08336796 0.08342522 0.08341771 0.08339578 0.08331315
 0.08313435 0.08292979 0.08285058 0.08301421 0.0834007 0.08386087 0.08423712 0.08446397 0.08456519 0.08461799
 0.08472285 0.08492324 0.08513057 0.08520411 0.0851276 0.08504015 0.08507028 0.08519335 0.08527869 0.08524815
 0.08516323 0.08515614 0.08528899 0.08550002 0.08568907 0.08582947 0.08597843 0.08618514 0.08640054 0.08649744
 0.08640341 0.08619747 0.08603203 0.08597301 0.0859764 0.08601227 0.08612444 0.08633619 0.08656594 0.08669628
 0.08670644 0.08669031 0.08673741 0.08682585 0.08685119 0.08674658 0.0865524 0.08637476 0.08629844 0.08633765
 0.08644133 0.08653003 0.08654229 0.08646831 0.08634761 0.08623078 0.08614436 0.08610049 0.0861324 0.08628444
 0.08653815 0.08676711 0.08681317 0.08662974 0.08633679 0.0861167 0.08605339 0.08607416 0.0860391 0.08587427
 0.0856186 0.08536375 0.0851711 0.0850433 0.08495008 0.08486837 0.08480977 0.08481827 0.08492242 0.08507149
 0.08514089 0.08503653 0.08479048 0.08452891 0.08435622 0.08429241 0.08429813 0.08432123 0.08433359 0.08435334
 0.08441304 0.08449011 0.08450679 0.0844246 0.08430243 0.08424189 0.08430721 0.08449724 0.08474144 0.08491755
 0.08493483 0.08482374 0.0847075 0.08467667 0.0847245 0.08480251 0.08489008 0.08499157 0.08510115 0.08520579
 0.08531655 0.08547066 0.0856916 0.08595334 0.08619145 0.08635237 0.08643895 0.08651581 0.08666642 0.08692992
 0.08726916 0.0875999 0.08785829 0.08804666 0.08821511 0.08840053 0.08859619 0.08878827 0.08899929 0.08926611
 0.0895852 0.08991259 0.09021578 0.09049985 0.09078346 0.09107316 0.09136685 0.09167307 0.09201983 0.09243062
 0.09287612 0.09326571 0.0935199 0.09365207 0.09376207 0.09395543 0.09427266 0.09466414 0.09501274 0.09521944
 0.09530422 0.09539642 0.09559402 0.09586355 0.09611575 0.09634666 0.09664456 0.09706255 0.09753385 0.09793057
 0.09818296 0.09832992 0.09846398 0.0986363 0.0988171 0.09895107 0.0990375 0.09912902 0.09925811 0.09941152
 0.09959158 0.09985065 0.1002225 0.100652 0.101037 0.1013226 0.1015247 0.1016801 0.1018091 0.1019105
 0.1019696 0.1019845 0.1019948 0.1020547 0.1021637 0.1022587 0.1022964 0.1023103 0.1023669 0.1024975
 0.1026993 0.1029665 0.1032793 0.1035848 0.1038438 0.1040944 0.1044152 0.1048043 0.1051435 0.1053243
 0.1053702 0.105389 0.1054349 0.105487 0.1055458 0.1056706 0.1059051 0.1062191 0.1065528 0.106883
 0.1072229 0.1075759 0.1079066 0.1081541 0.108274 0.108277 0.1082316 0.1082281 0.1083331 0.1085603
 0.1088666 0.1091804 0.1094438 0.1096287 0.1097194 0.1097118 0.1096504 0.1096355 0.1097457 0.1099461
 0.1101016 0.1100887 0.1098767 0.1095003 0.1089937 0.1083785 0.1077001 0.1070412 0.1064869 0.1060864
 0.1058564 0.1058187 0.106013 0.1064541 0.1070807 0.1077728 0.1084212 0.1089528 0.1092889 0.1093314
 0.1090324 0.1084544 0.1077332 0.1069932 0.1063048 0.1056838 0.1051018 0.1045287 0.1040088 0.1036898
 0.1037536 0.1043102 0.1053444 0.1067252 0.1082459 0.1096886 0.1109084 0.1118835 0.1126864 0.113401
 0.1140713 0.1147192 0.1153729 0.1160436 0.1166912 0.1172552 0.1177234 0.1181393 0.1185428 0.1189289
 0.1192662 0.1195334 0.1197418 0.1199332 0.1201402 0.1203349 0.1204437 0.1204296 0.1203363 0.120232
 0.1201319 0.1199921 0.1197564 0.1193995 0.1189573 0.1185494 0.1183616 0.1185695 0.1192386 0.1202844
 0.121536 0.1228437 0.1241184 0.1252801 0.1262276 0.126897 0.1273277 0.1276336 0.1279151 0.1282136
 0.1285287 0.1288467 0.1291535 0.129441 0.1297118 0.1299812 0.1302735 0.1306026 0.1309485 0.1312645
 0.1315225 0.1317477 0.1320001 0.1323193 0.1326873 0.1330502 0.1333784 0.133694 0.1340247 0.1343466
 0.134606 0.1347921 0.1349574 0.1351645 0.1354429 0.1357853 0.136152 0.136479 0.1367205 0.1368926
 0.1370552 0.1372518 0.1374818 0.1377256 0.1379725 0.1382203 0.1384683 0.138723 0.139001 0.1393076
 0.1396107 0.1398556 0.1400202 0.1401463 0.1403013 0.1405136 0.1407548 0.1409806 0.1411808 0.1413897
 0.1416501 0.1419637 0.1422792 0.1425343 0.1427083 0.1428305 0.1429479 0.1430922 0.1432736 0.1434868
 0.1437174 0.1439468 0.1441626 0.144367 0.1445716 0.144783 0.1449979 0.1452101 0.1454169 0.145618
 0.1458129 0.1460041 0.1462017 0.1464265 0.1466969 0.1470039 0.1473033 0.1475466 0.1477226 0.1478597
 0.147992 0.1481348 0.1482909 0.1484627 0.1486518 0.1488534 0.1490583 0.1492608 0.1494615 0.1496629
 0.1498644 0.1500648 0.1502673 0.150478 0.1507009 0.1509359 0.1511781 0.1514153 0.1516327 0.151824
 0.151998 0.1521725 0.1523596 0.1525568 0.1527509 0.1529321 0.153105 0.1532833 0.1534758 0.1536794
 0.1538845 0.154084 0.1542783 0.1544735 0.1546731 0.1548748 0.1550737 0.1552682 0.1554602 0.1556537
 0.1558504 0.1560473 0.1562393 0.1564275 0.1566182 0.1568148 0.1570148 0.1572169 0.1574227 0.1576314
 0.1578381 0.1580388 0.1582344 0.1584302 0.1586297 0.1588299 0.1590259 0.1592174 0.159409 0.159603
 0.1597989 0.1599968 0.1601975 0.1604019 0.1606132 0.1608317 0.1610486 0.1612539 0.1614507 0.1616526
 0.1618674 0.1620901 0.1623117 0.162528 0.1627403 0.1629529 0.1631673 0.1633812 0.1635915 0.1637957
 0.1639901 0.1641729 0.1643461 0.1645139 0.1646807 0.1648529 0.1650335 0.1652164 0.1653948 0.1655709
 0.1657515 0.1659394 0.1661354 0.1663399 0.1665502 0.1667613 0.1669711 0.1671784 0.1673817 0.1675829
 0.1677856 0.1679886 0.1681919 0.1684029 0.1686255 0.1688494 0.1690619 0.1692611 0.1694541 0.1696508
 0.1698608 0.1700848 0.1703109 0.1705261 0.1707274 0.1709208 0.1711175 0.1713262 0.1715432 0.1717556
 0.1719594 0.1721622 0.172369 0.1725807 0.1727993 0.1730231 0.1732438 0.1734584 0.1736698 0.1738761
 0.1740747 0.1742717 0.1744736 0.1746799 0.1748919 0.1751125 0.1753363 0.1755552 0.1757687 0.1759773
 0.176179 0.1763785 0.1765808 0.1767705 0.1769023 0.1768641 0.176378 0.1748927 0.1715666 0.1654324
 0.1557811 0.1426084 0.126772 0.1096885 0.09281361 0.07726338 0.06370075 0.05241351 0.043451 0.03671984
 0.0320552 0.02932405 0.02851853 0.0298492 0.03386046 0.04111455 0.05096182 0.06044296 0.0654396 0.06393133
 0.05792944 0.05164076 0.0479714 0.04712848 0.04787786 0.04916561 0.0506518 0.05251776 0.05508764 0.05846018
 0.06248917 0.06717673 0.07285875 0.07977048 0.08754077 0.09535323 0.1026431 0.1095338 0.1165558 0.1240075
 0.1316363 0.138881 0.1453168 0.1508688 0.1557221 0.1601198 0.164227 0.1681187 0.1718357 0.1753799
 0.1786224 0.1812697 0.1830125 0.1837648 0.1837669 0.1834444 0.1831559 0.1830559 0.1831494 0.1834079
 0.1838151 0.1843563 0.1850131 0.1857634 0.1865742 0.1874083 0.1882389 0.189051 0.1898322 0.1905707
 0.1912563 0.1918807 0.1924431 0.1929518 0.1934135 0.1938323 0.1942188 0.1945886 0.1949484 0.1952952
 0.1956279 0.1959471 0.1962496 0.1965299 0.1967863 0.1970207 0.1972385 0.1974463 0.1976472 0.1978425
 0.1980392 0.1982464 0.1984643 0.1986833 0.1988963 0.1991024 0.1993046 0.1995081 0.1997153 0.1999205
 0.2001158 0.2003025 0.2004883 0.200676 0.2008638 0.2010519 0.2012437 0.2014414 0.2016437 0.2018449
 0.2020391 0.202227 0.2024126 0.2025966 0.2027805 0.2029749 0.203191 0.2034241 0.2036576 0.2038812
 0.2040945 0.2043009 0.204508 0.2047229 0.2049376 0.2051292 0.2052837 0.2054172 0.2055667 0.2057603
 0.2059935 0.2062343 0.2064541 0.2066499 0.2068369 0.2070276 0.2072211 0.2074044 0.2075705 0.2077406
 0.2079528 0.208216 0.2084965 0.2087596 0.2090014 0.2092296 0.2094468 0.2096609 0.2098803 0.2100899
 0.2102624 0.2104026 0.2105658 0.2108152 0.2111576 0.2115259 0.2118408 0.2120855 0.2123043 0.2125432
 0.2128159 0.2130927 0.213291 0.213334 0.2132746 0.2133064 0.2135839 0.2140688 0.2145945 0.2150375
 0.2153853 0.2156815 0.2159573 0.2162002 0.2163626 0.2164103 0.2163883 0.2164367 0.2166953 0.2171623
 0.2176844 0.218113 0.2184223 0.2186575 0.2188508 0.219019 0.2191368 0.2190846 0.2187718 0.2183753
 0.2183035 0.2188012 0.2196693 0.2204771 0.2209922 0.2213037 0.2215768 0.221848 0.2220729 0.2221672
 0.2219136 0.2210852 0.219892 0.2191022 0.2194045 0.220709 0.2222887 0.2235092 0.2242265 0.2246124
 0.2248716 0.2251099 0.2252528 0.2250534 0.2243641 0.2234908 0.2231114 0.2236507 0.2248061 0.2258753
 0.2264749 0.2267438 0.2269622 0.2272344 0.227421 0.2271079 0.2258383 0.2237881 0.2221103 0.2221282
 0.2240397 0.2266765 0.2286621 0.229599 0.2299592 0.2300647 0.2296154 0.2282282 0.2260001 0.2234618
 0.2214294 0.2209126 0.2224444 0.2252233 0.2275656 0.2285727 0.2288884 0.2296045 0.2309459 0.2322771
 0.2329423 0.2327763 0.2319798 0.2307524 0.2292026 0.227709 0.227126 0.2281738 0.2305704 0.2331358
 0.2348853 0.2357747 0.2361876 0.2357885 0.2332947 0.2280234 0.2218181 0.2185263 0.2205994 0.2265283
 0.2324643 0.2359988 0.2374736 0.2381703 0.238603 0.238379 0.2364075 0.2314753 0.224135 0.2179288
 0.2169995 0.2219849 0.229301 0.2345055 0.2353437 0.231987 0.2262232 0.2209202 0.218854 0.2210196
 0.2261983 0.2321637 0.2370239 0.2397372 0.2400845 0.2385473 0.2362614 0.2347494 0.2348208 0.2353545
 0.2341437 0.2306936 0.2270667 0.2248523 0.222686 0.2187503 0.2147804 0.2149095 0.220312 0.2272503
 0.2312885 0.2317873 0.2310618 0.2301263 0.2269 0.2191756 0.2088107 0.2017568 0.20286 0.2108417
 0.2194549 0.2236071 0.2233933 0.2222227 0.2222658 0.2222515 0.2192616 0.212559 0.2054875 0.202648
 0.2049776 0.2089001 0.2105258 0.2087259 0.2037071 0.1957738 0.1876201 0.1851016 0.1922626 0.2063564
 0.220025 0.2273591 0.2259996 0.215755 0.1994785 0.1848748 0.1807321 0.1890098 0.2024451 0.211255
 0.2108701 0.202659 0.1897661 0.1750492 0.1624752 0.1573964 0.1633026 0.1783441 0.1954343 0.2057094
 0.2033622 0.1902044 0.176201 0.1722718 0.1802651 0.1916613 0.1971473 0.1950902 0.1901048 0.1871305
 0.1886207 0.1941786 0.2009611 0.2063365 0.2099723 0.2107603 0.2039495 0.186845 0.166323 0.1543114
 0.1554008 0.1644325 0.1760428 0.189504 0.2026111 0.2083372 0.2027638 0.192546 0.1892962 0.1972576
 0.209654 0.2169948 0.216479 0.2125359 0.2099425 0.2087123 0.2064893 0.2040834 0.2056514 0.2129985
 0.222458 0.2289807 0.2313669 0.2318441 0.2322568 0.2326576 0.2325739 0.2318376 0.2305106 0.2290058
 0.2279655 0.2275331 0.2272201 0.2266561 0.2255479 0.2225036 0.2153324 0.2041164 0.1931895 0.1877131
 0.1881969 0.1908188 0.1930948 0.1953267 0.1953165 0.1868951 0.1680799 0.147748 0.1391831 0.1472435
 0.1647417 0.1806188 0.1884204 0.1868438 0.1763985 0.159567 0.143455 0.1376166 0.1462832 0.1642889
 0.1825686 0.1959712 0.2039309 0.2061657 0.2016377 0.1915859 0.1808274 0.175035 0.17724 0.1864535
 0.1980493 0.2050315 0.2014219 0.1881391 0.1756621 0.1763752 0.1916158 0.2095222 0.2183719 0.2184813
 0.2176088 0.2188832 0.2191721 0.2174511 0.2182519 0.2253909 0.2363259 0.2446587 0.2457544 0.2385715
 0.2250971 0.2108549 0.2034748 0.206533 0.215423 0.2223262 0.2237711 0.2201592 0.2111289 0.1975356
 0.1864085 0.1867186 0.1989757 0.2140412 0.2235118 0.2273669 0.2301699 0.2332116 0.2329686 0.2264846
 0.2163568 0.2091455 0.2088827 0.2135303 0.2183947 0.2210808 0.2214854 0.2189518 0.2126908 0.205003
 0.2013057 0.2053868 0.2154468 0.2257731 0.2318433 0.2331279 0.2317065 0.22959 0.2274015 0.2245499
 0.2205439 0.2167142 0.2159767 0.2197196 0.2255959 0.2299354 0.2319531 0.2340178 0.2379263 0.2424343
 0.2447809 0.2437007 0.2406157 0.2383848 0.2390082 0.2420428 0.2449324 0.2451929 0.24278 0.2403553
 0.2408376 0.2446236 0.2495348 0.2532929 0.2553708 0.2565355 0.2575265 0.2584044 0.2585041 0.2569458
 0.2538848 0.2512273 0.2512688 0.2544155 0.2588021 0.2622217 0.2639055 0.2643853 0.2642748 0.263635
 0.2623425 0.2606658 0.2592636 0.2586634 0.2588897 0.2596051 0.2604553 0.2612185 0.2617888 0.2621645
 0.2624184 0.2626135 0.2627693 0.2629025 0.2630205 0.2630702 0.2629883 0.2628388 0.2628103 0.2630156
 0.2633503 0.2636038 0.2636439 0.2634252 0.2628867 0.2619668 0.2607172 0.2592845 0.2577453 0.2560608
 0.254301 0.252876 0.2524099 0.2532797 0.2552684 0.2576929 0.2598649 0.2614363 0.2624044 0.2629263
 0.2631727 0.26327 0.263284 0.2632245 0.2630802 0.2628509 0.2625517 0.262199 0.2618086 0.2614076
 0.261039 0.2607366 0.2604901 0.2602389 0.2599128 0.2594813 0.2589674 0.25842 0.2578722 0.2573134
 0.2566943 0.2559621 0.2551036 0.2541641 0.2532291 0.2523744 0.2516125 0.2508882 0.2501355 0.2493254
 0.2484406 0.2474373 0.2462931 0.2450925 0.2440019 0.2431284 0.2424339 0.2417969 0.2411185 0.2403528
 0.2394843 0.2385222 0.2374983 0.2364413 0.2353567 0.2342378 0.2330738 0.2318393 0.2305005 0.2290459
 0.2274991 0.2258967 0.2242697 0.2226387 0.2209936 0.2192628 0.217314 0.2149991 0.2121988 0.2088405
 0.204905 0.2004471 0.1956141 0.1906229 0.1856989 0.1810219 0.1767168 0.1728716 0.1695559 0.1668308
 0.1647517 0.1633615 0.1626826 0.1627207 0.1634652 0.1648759 0.1668707 0.1693301 0.172113 0.1750677
 0.1780366 0.1808657 0.183446 0.1857699 0.1879242 0.1899903 0.1919568 0.1937532 0.1953427 0.1967415
 0.1979636 0.1989964 0.1998352 0.2005113 0.2010758 0.201566 0.2019939 0.2023611 0.202673 0.2029373
 0.2031565 0.203338 0.2035055 0.2036908 0.2039119 0.2041644 0.2044364 0.2047356 0.2050973 0.2055485
 0.2060694 0.2066092 0.2071407 0.2076807 0.2082616 0.2089079 0.2096419 0.2104889 0.2114711 0.2125992
 0.2138639 0.2152279 0.2166268 0.2179786 0.2191979 0.2202143 0.2209876 0.2215064 0.2217807 0.2218426
 0.2217428 0.2215316 0.2212405 0.2208835 0.2204628 0.2199741 0.2194188 0.2188121 0.2181703 0.2174958
 0.2167886 0.216066 0.2153585 0.2146823 0.2140277 0.2133791 0.2127379 0.2121192 0.2115284 0.2109544
 0.2103852 0.2098182 0.2092512 0.2086783 0.208097 0.2075052 0.2068816 0.2061832 0.2053755 0.2044593
 0.2034543 0.2023645 0.2011767 0.199889 0.1985198 0.1970851 0.1955859 0.1940224 0.1924011 0.1907158
 0.1889313 0.1870106 0.1849662 0.1828811 0.1808668 0.1790003 0.1772986 0.175733 0.1742571 0.1728353
 0.1714634 0.1701604 0.1689387 0.1677924 0.1667114 0.1656881 0.1647145 0.1637872 0.1629143 0.1621102
 0.1613853 0.1607433 0.1601798 0.1596859 0.1592574 0.1588997 0.1586276 0.1584647 0.158427 0.1584894
 0.1585813 0.1586298 0.1585986 0.1584881 0.1583254 0.1581574 0.1580316 0.1579697 0.1579541 0.1579285
 0.1578076 0.1574997 0.1569286 0.1560458 0.1548411 0.1533455 0.1516199 0.1497568 0.1478972 0.1462028
 0.1447844 0.1436704 0.1428338 0.1422116 0.141717 0.1412897 0.1409429 0.140743 0.1407474 0.1409448
 0.141222 0.1414179 0.1414643 0.1414601 0.1415831 0.141952 0.1425683 0.1433318 0.1441001 0.1447667
 0.1452882 0.1456496 0.1458579 0.1459617 0.1460114 0.1460051 0.1459161 0.1457432 0.1454988 0.1451893
 0.1448237 0.1444017 0.143903 0.1433185 0.1426602 0.1419289 0.1411216 0.1402515 0.1392983 0.1381978
 0.1369766 0.1358482 0.1351022 0.1349252 0.1353172 0.1361105 0.1370872 0.138129 0.1391762 0.1400325
 0.1404262 0.140417 0.1405903 0.1416253 0.1436483 0.1460969 0.1482237 0.1496408 0.1503582 0.1504806
 0.1500606 0.1491452 0.1477458 0.1458047 0.1433247 0.1404465 0.1373316 0.1341228 0.1310318 0.1282784
 0.1259591 0.1240828 0.1226381 0.1216519 0.1212491 0.1210685 0.1192235 0.1132753 0.1039997 0.09707449
 0.098286 0.1070046 0.1166292 0.1215596 0.1216527 0.1199111 0.1184093 0.1174561 0.1169408 0.1170158
 0.1178136 0.1191658 0.1206502 0.1218559 0.1226307 0.1230278 0.1230065 0.1221948 0.1198431 0.1151009
 0.1077067 0.0985588 0.08939886 0.08180574 0.07649396 0.07333952 0.07173246 0.07092848 0.0704039 0.07009979
 0.07032593 0.07139242 0.07334523 0.07602578 0.07923794 0.08272309 0.08606856 0.0888741 0.09104609 0.09277079
 0.09417935 0.09518754 0.09567758 0.09568357 0.09534571 0.09478651 0.09408632 0.09329826 0.09240566 0.09131729
 0.09002411 0.08875683 0.08785815 0.0874621 0.08739957 0.08742931 0.08744518 0.08744987 0.08745092 0.08742717
 0.08735421 0.08726826 0.08730073 0.08757579 0.08805563 0.08854967 0.08888476 0.08903205 0.08907875 0.08907574
 0.0889046 0.08838917 0.08760373 0.08689757 0.08644511 0.08594042 0.08498713 0.08369254 0.08262468 0.08220823
 0.0823565 0.08267963 0.08286048 0.08280112 0.08260202 0.08251739 0.08278714 0.08334713 0.08378779 0.08375047
</values></Ydata></ScRf><Data_Parameters_AB><parameter name="DPF">1</parameter><parameter name="NPT">3497</parameter><parameter name="FXV">3996</parameter><parameter name="LXV">500</parameter><parameter name="CSF">1</parameter><parameter name="MXY">0.0724677368998528</parameter><parameter name="MNY">-0.0755977481603622</parameter><parameter name="DAT">27/05/2022</parameter><parameter name="TIM">11:55:20.628 (GMT+2)</parameter><parameter name="DXU">WN</parameter></Data_Parameters_AB><AB__Qtest><MainReport name="Quality Test Report"><Header><Line><Legend>Test result ok/not ok [1/0]: </Legend><Value>0</Value></Line><Line><Legend>Method file: </Legend><Value>C:\Users\Public\Documents\Bruker\OPUS_8.2.28\QT\IRBT_v3_default.QT</Value></Line></Header><Matrix><Line><Legend></Legend><Legend>min</Legend><Legend>max</Legend><Legend>measured</Legend></Line><Line><Value>Absorption (X-Range 1):</Value><Value>0.400000</Value><Value>2.000000</Value><Value>0.096700</Value></Line><Line><Value>Noise (X-Range 4):</Value><Value></Value><Value>0.000300</Value><Value>0.000043</Value></Line><Line><Value>Signal/Noise (X-Range 2):</Value><Value>200.000000</Value><Value></Value><Value>38.245901</Value></Line><Line><Value>Signal/Noise (X-Range 3):</Value><Value>40.000000</Value><Value></Value><Value>26.330062</Value></Line><Line><Value>Water vapour (X-Range 5):</Value><Value></Value><Value>0.000300</Value><Value>0.000056</Value></Line><Line><Value>Signal/Water (X-Range 2):</Value><Value>100.000000</Value><Value></Value><Value>29.416484</Value></Line><Line><Value>Signal/Water (X-Range 3):</Value><Value>20.000000</Value><Value></Value><Value>20.251525</Value></Line><Line><Value>Fringes (X-Range 6):</Value><Value></Value><Value>0.000100</Value><Value>0.000058</Value></Line></Matrix></MainReport></AB__Qtest><Data_Parameters_ScSm><parameter name="DPF">1</parameter><parameter name="NPT">1814</parameter><parameter name="FXV">3996.33169228125</parameter><parameter name="LXV">499.541461535156</parameter><parameter name="CSF">1</parameter><parameter name="MXY">0.270584404468536</parameter><parameter name="MNY">0.0329950004816055</parameter><parameter name="DAT">27/05/2022</parameter><parameter name="TIM">11:55:20.628 (GMT+2)</parameter><parameter name="DXU">WN</parameter></Data_Parameters_ScSm><Data_Parameters_ScRf><parameter name="DPF">1</parameter><parameter name="NPT">1820</parameter><parameter name="FXV">4004.04661832813</parameter><parameter name="LXV">495.683998511719</parameter><parameter name="CSF">1</parameter><parameter name="MXY">0.264385342597961</parameter><parameter name="MNY">0.0285185314714909</parameter><parameter name="DAT">27/05/2022</parameter><parameter name="TIM">11:54:54.779 (GMT+2)</parameter><parameter name="DXU">WN</parameter></Data_Parameters_ScRf><Optic_Parameters_Rf><parameter name="APR">0</parameter><parameter name="APT">Open</parameter><parameter name="BMS">KBr</parameter><parameter name="DTC">RT-DLaTGS_IR-Biotyper [Microplate reader]</parameter><parameter name="HPF">0</parameter><parameter name="LPF">10.0</parameter><parameter name="LPV">4000</parameter><parameter name="PGR">0</parameter><parameter name="RCH">Module port</parameter><parameter name="RDX">0</parameter><parameter name="SRC">MIR</parameter><parameter name="VEL">10.0</parameter><parameter name="SON">Off</parameter></Optic_Parameters_Rf><Acquisition_Parameters_Rf><parameter name="ADT">1</parameter><parameter name="AQM">DD</parameter><parameter name="CFE">0</parameter><parameter name="COR">0</parameter><parameter name="DEL">0</parameter><parameter name="DLY">0</parameter><parameter name="HFW">8000</parameter><parameter name="LFW">0</parameter><parameter name="NSR">32</parameter><parameter name="PLF">AB</parameter><parameter name="RES">6</parameter><parameter name="RGN">-1</parameter><parameter name="STR">0</parameter><parameter name="TCL">MakeCompatibleScalar (0, {WSV=1.000000, ARV=0});</parameter><parameter name="TDL">37</parameter><parameter name="RPO">0</parameter></Acquisition_Parameters_Rf><FT_-_Parameters_Rf><parameter name="APF">B3</parameter><parameter name="HFQ">500</parameter><parameter name="LFQ">4000</parameter><parameter name="NLI">0</parameter><parameter name="PHR">24</parameter><parameter name="PHZ">ML</parameter><parameter name="SPZ">NO</parameter><parameter name="ZFF">1</parameter></FT_-_Parameters_Rf><Optic_Parameters_><parameter name="APR">0</parameter><parameter name="APT">Open</parameter><parameter name="BMS">KBr</parameter><parameter name="CHN">Module port</parameter><parameter name="DTC">RT-DLaTGS_IR-Biotyper [Microplate reader]</parameter><parameter name="HPF">0</parameter><parameter name="LPF">10.0</parameter><parameter name="LPV">4000</parameter><parameter name="PGN">0</parameter><parameter name="RDX">0</parameter><parameter name="SRC">MIR</parameter><parameter name="VEL">10.0</parameter><parameter name="SON">Off</parameter></Optic_Parameters_><FT_-_Parameters_><parameter name="APF">B3</parameter><parameter name="HFQ">500</parameter><parameter name="LFQ">4000</parameter><parameter name="NLI">0</parameter><parameter name="PHR">24</parameter><parameter name="PHZ">ML</parameter><parameter name="SPZ">NO</parameter><parameter name="ZFF">1</parameter></FT_-_Parameters_><Acquisition_Parameters_><parameter name="ADT">1</parameter><parameter name="AQM">DD</parameter><parameter name="CFE">0</parameter><parameter name="COR">0</parameter><parameter name="DEL">0</parameter><parameter name="DLY">0</parameter><parameter name="HFW">8000</parameter><parameter name="LFW">0</parameter><parameter name="NSS">32</parameter><parameter name="PLF">AB</parameter><parameter name="RES">6</parameter><parameter name="SOT">0</parameter><parameter name="TCL">MakeCompatibleScalar (0, {WSV=1.000000, ARV=0});</parameter><parameter name="TDL">37</parameter><parameter name="SPO">0</parameter><parameter name="SGN">-1</parameter></Acquisition_Parameters_><Instrument_Parameters_Rf><parameter name="HFL">15800.168544</parameter><parameter name="LFL">0</parameter><parameter name="LWN">15800.168544</parameter><parameter name="ABP">32197</parameter><parameter name="SSP">1</parameter><parameter name="ARG">2</parameter><parameter name="ASG">2</parameter><parameter name="ASS">32</parameter><parameter name="GFW">16</parameter><parameter name="GBW">16</parameter><parameter name="BFW">0</parameter><parameter name="BBW">0</parameter><parameter name="PKA">7266</parameter><parameter name="PKL">4996</parameter><parameter name="PRA">7450</parameter><parameter name="PRL">5001</parameter><parameter name="P2A">1</parameter><parameter name="P2L">1</parameter><parameter name="P2R">1</parameter><parameter name="P2K">1</parameter><parameter name="DAQ">0</parameter><parameter name="AG2">1</parameter><parameter name="SSM">1</parameter><parameter name="RSN">24908</parameter><parameter name="CRR">0</parameter><parameter name="SRT">1653652494.779</parameter><parameter name="DUR">19.635986328125</parameter><parameter name="TSC">27.9</parameter><parameter name="MVD">0.385413706302643</parameter><parameter name="AN1">0.225831257208522</parameter><parameter name="AN2">0</parameter><parameter name="VSN">2.485 Apr  4 2017</parameter><parameter name="SRN">0085</parameter><parameter name="CAM">0</parameter><parameter name="INS">IR-Biotyper</parameter><parameter name="FOC">69</parameter><parameter name="RDY">1</parameter><parameter name="ARS">32</parameter></Instrument_Parameters_Rf><Sample_Parameters_><parameter name="BLD"></parameter><parameter name="CNM">Admin</parameter><parameter name="CPY"></parameter><parameter name="DPM"></parameter><parameter name="EXP">IRBT_v3_32Scans.XPM</parameter><parameter name="LCT"></parameter><parameter name="SFM">Microplate, HTS-XT</parameter><parameter name="SNM">220527-1039(v.2)_GFG29M (D_8)_F7_da6f11aa-b92c-4aae-bb97-e71e198c2056.0</parameter><parameter name="XPP">C:\Users\Public\Documents\Bruker\OPUS_8.2.28\XPM</parameter><parameter name="IST">OK</parameter><parameter name="CPG">1252</parameter><parameter name="UID">c613a752-0817-4b31-8727-010e58a4a556</parameter></Sample_Parameters_><Instrument_Parameters_><parameter name="HFL">15800.168544</parameter><parameter name="LFL">0</parameter><parameter name="LWN">15800.168544</parameter><parameter name="ABP">32197</parameter><parameter name="SSP">1</parameter><parameter name="ASG">2</parameter><parameter name="ARG">2</parameter><parameter name="ASS">32</parameter><parameter name="GFW">16</parameter><parameter name="GBW">16</parameter><parameter name="BFW">0</parameter><parameter name="BBW">0</parameter><parameter name="PKA">7660</parameter><parameter name="PKL">4988</parameter><parameter name="PRA">7958</parameter><parameter name="PRL">4993</parameter><parameter name="P2A">1</parameter><parameter name="P2L">1</parameter><parameter name="P2R">1</parameter><parameter name="P2K">1</parameter><parameter name="DAQ">0</parameter><parameter name="AG2">1</parameter><parameter name="SSM">1</parameter><parameter name="RSN">13080</parameter><parameter name="CRR">0</parameter><parameter name="SRT">1653652520.629</parameter><parameter name="DUR">19.635986328125</parameter><parameter name="TSC">27.9</parameter><parameter name="MVD">0.19136555492878</parameter><parameter name="AN1">0.225816673124046</parameter><parameter name="AN2">0</parameter><parameter name="VSN">2.485 Apr  4 2017</parameter><parameter name="SRN">0085</parameter><parameter name="CAM">0</parameter><parameter name="INS">IR-Biotyper</parameter><parameter name="FOC">69</parameter><parameter name="RDY">1</parameter></Instrument_Parameters_><History/></OPUSDataFile>
