<?xml version="1.0" encoding="UTF-8" ?>
<OPUSDataFile><AB><Ydata ylabel="Absorbance Units"><values byteorder="INTEL" format="FLOAT32" numvalues="3497"> -0.05168535 -0.05173855 -0.05177681 -0.05180128 -0.05179353 -0.05175266 -0.05168468 -0.05159129 -0.05149536 -0.05139855
 -0.0513226 -0.05126652 -0.05123926 -0.05123718 -0.05125708 -0.05129428 -0.05133978 -0.05139102 -0.05144111 -0.05149107
 -0.05153971 -0.05158775 -0.0516367 -0.05168148 -0.05172103 -0.05174939 -0.05176359 -0.05176768 -0.05176058 -0.05175684
 -0.05175782 -0.0517729 -0.05180262 -0.05183968 -0.05188292 -0.05191491 -0.05193578 -0.05193617 -0.05191988 -0.05189435
 -0.05186507 -0.05184902 -0.05184824 -0.05187606 -0.05192524 -0.05199588 -0.05207166 -0.0521405 -0.05218938 -0.0522059
 -0.0521924 -0.05214481 -0.0520772 -0.05199153 -0.05190219 -0.0518111 -0.05173218 -0.05166647 -0.0516304 -0.05162495
 -0.05165941 -0.0517325 -0.0518304 -0.05194888 -0.05205488 -0.0521473 -0.05220245 -0.05222692 -0.05222293 -0.05220088
 -0.05217861 -0.05216354 -0.05217341 -0.05220395 -0.05226184 -0.05232695 -0.05239213 -0.05243535 -0.05244358 -0.05241898
 -0.05235541 -0.05228231 -0.05220218 -0.05214726 -0.05212117 -0.05214196 -0.05221085 -0.05233081 -0.05250027 -0.05270101
 -0.05292661 -0.05312961 -0.05330336 -0.05339269 -0.05340813 -0.05334207 -0.05322025 -0.05308394 -0.05294585 -0.0528403
 -0.05275994 -0.05271192 -0.05268057 -0.05265922 -0.05263654 -0.0526052 -0.05256637 -0.05251755 -0.05246957 -0.0524235
 -0.05239015 -0.05237095 -0.0523694 -0.05238581 -0.05241674 -0.05246231 -0.05252288 -0.05260008 -0.0527055 -0.05283894
 -0.05300988 -0.0532081 -0.0534178 -0.05361962 -0.05377136 -0.05386799 -0.05387992 -0.05383102 -0.05372911 -0.05359989
 -0.0534599 -0.05332346 -0.05319519 -0.0531015 -0.05304687 -0.05306613 -0.05316838 -0.05335774 -0.05364118 -0.0539452
 -0.05426669 -0.05444089 -0.05446594 -0.05427477 -0.05389606 -0.05348849 -0.0530633 -0.05275083 -0.05253235 -0.05242553
 -0.05241267 -0.05247511 -0.05259211 -0.05273745 -0.05288142 -0.05299112 -0.05304988 -0.05303107 -0.05296145 -0.05283994
 -0.05271377 -0.05259693 -0.05250898 -0.05245701 -0.05243589 -0.05244575 -0.05248251 -0.05254595 -0.05263219 -0.05274012
 -0.05285297 -0.05296819 -0.05306 -0.0531287 -0.0531605 -0.0531598 -0.0531311 -0.05307683 -0.05300224 -0.05291098
 -0.0528057 -0.05270039 -0.05260579 -0.05253675 -0.05250631 -0.05251599 -0.05257226 -0.05266049 -0.0527807 -0.05290744
 -0.05303784 -0.053144 -0.05322304 -0.05325158 -0.0532279 -0.053146 -0.05300722 -0.05283238 -0.05262486 -0.0524169
 -0.05221058 -0.05203049 -0.05187773 -0.05176817 -0.05169979 -0.05167923 -0.05169577 -0.05174234 -0.05180063 -0.05185302
 -0.05188794 -0.05189075 -0.05186876 -0.05181848 -0.05176106 -0.05170004 -0.05165794 -0.05163937 -0.05165733 -0.0517149
 -0.05180486 -0.05192729 -0.05205133 -0.05217471 -0.05225569 -0.05229491 -0.05227246 -0.05219799 -0.0520973 -0.05198148
 -0.0518945 -0.0518351 -0.05182369 -0.05184826 -0.05190178 -0.05197546 -0.05205581 -0.05215043 -0.05225777 -0.05239378
 -0.05256839 -0.05277524 -0.05302126 -0.05326269 -0.05349526 -0.05367012 -0.05378071 -0.05380721 -0.053748 -0.05358814
 -0.05332861 -0.05298026 -0.0525544 -0.05213572 -0.05173319 -0.05143321 -0.05122388 -0.05112243 -0.05110377 -0.05113227
 -0.051187 -0.0512227 -0.05124454 -0.05123891 -0.05122435 -0.05121171 -0.05120092 -0.0511977 -0.05118535 -0.0511606
 -0.05110993 -0.05102817 -0.05092351 -0.05079465 -0.05066906 -0.05054834 -0.05045755 -0.05039726 -0.05037801 -0.0503975
 -0.05044857 -0.05052241 -0.05058185 -0.05061577 -0.0505679 -0.05045317 -0.05026535 -0.05004043 -0.04982812 -0.04963196
 -0.04948035 -0.04934051 -0.04920052 -0.04903567 -0.04882489 -0.04859079 -0.04832992 -0.04809333 -0.04789197 -0.0477452
 -0.04766072 -0.04759764 -0.04755481 -0.04744939 -0.04727909 -0.04699698 -0.04661605 -0.04620811 -0.04578737 -0.04545779
 -0.04520629 -0.0450516 -0.04497451 -0.04494814 -0.04496123 -0.04499372 -0.0450255 -0.04503796 -0.0450001 -0.04488513
 -0.0446866 -0.04439049 -0.04402063 -0.0435823 -0.04308624 -0.0425343 -0.04193755 -0.04129509 -0.04064241 -0.03998171
 -0.03934218 -0.03872463 -0.03814031 -0.03759018 -0.03708778 -0.03663316 -0.03623697 -0.03589205 -0.03558575 -0.03530919
 -0.03504037 -0.03477382 -0.03450152 -0.03419743 -0.03384455 -0.03339607 -0.03280372 -0.03209516 -0.03125075 -0.03038558
 -0.02953345 -0.02874675 -0.02804796 -0.02740775 -0.02682644 -0.0262638 -0.02571683 -0.02516871 -0.02461983 -0.0240837
 -0.02356129 -0.02307209 -0.02260494 -0.0221305 -0.02162226 -0.02098248 -0.02021945 -0.01927984 -0.01824359 -0.01719758
 -0.01618817 -0.01530461 -0.01450795 -0.01380512 -0.01313635 -0.01247477 -0.01179437 -0.01107624 -0.01034317 -0.009595255
 -0.008862703 -0.008152096 -0.007450272 -0.006757832 -0.00602229 -0.005242012 -0.004387483 -0.003465356 -0.002513525 -0.001539677
 -0.0005996177 0.0003108209 0.001174375 0.001998718 0.002790264 0.003554659 0.004299371 0.005035195 0.005775447 0.006523559
 0.007290005 0.008057944 0.008819741 0.009574481 0.01031205 0.01107845 0.01188118 0.0127539 0.01370825 0.0146888
 0.01569355 0.01663852 0.01752213 0.01833279 0.01907637 0.0197947 0.02049035 0.0211981 0.02191249 0.02263756
 0.02336393 0.02407331 0.0247657 0.02542661 0.02607952 0.02673515 0.02743067 0.02819817 0.02904012 0.02997777
 0.03095274 0.03195515 0.03292579 0.03384792 0.03471112 0.03550965 0.0362683 0.03698787 0.03770524 0.0384219
 0.03916251 0.0399253 0.04070642 0.04150394 0.04230532 0.04311467 0.0439384 0.04477813 0.04564541 0.04652563
 0.04740625 0.04826846 0.04908584 0.04986232 0.05058821 0.051287 0.05196785 0.05264264 0.05332034 0.05398756
 0.05464327 0.05527411 0.05587553 0.05646824 0.05705249 0.05767361 0.05833301 0.05905112 0.05982326 0.06061995
 0.06143533 0.06222547 0.06299307 0.06372154 0.06442007 0.0650985 0.06576478 0.06643488 0.06710989 0.06779902
 0.06849284 0.0691891 0.06987597 0.07054488 0.07120026 0.0718386 0.07248118 0.07313199 0.07380407 0.07450119
 0.07521351 0.07594104 0.07666323 0.07737914 0.07807305 0.07874517 0.07938986 0.08000842 0.08060345 0.08117668
 0.08173332 0.08227696 0.08281564 0.08335549 0.0839095 0.0844777 0.08506842 0.08566784 0.08626936 0.0868626
 0.08743723 0.08800517 0.08856785 0.0891367 0.08971808 0.09029286 0.09085972 0.09139863 0.09190664 0.09240717
 0.09290195 0.09343452 0.09400301 0.09461188 0.09525198 0.09588241 0.0964982 0.09706011 0.0975768 0.09804434
 0.0984789 0.098903 0.09932265 0.09975579 0.1001902 0.1006231 0.1010434 0.1014411 0.1018279 0.1022036
 0.1025877 0.1029859 0.1034005 0.1038332 0.1042754 0.1047266 0.105183 0.1056444 0.1061059 0.1065674
 0.107025 0.1074826 0.1079568 0.1084516 0.1089932 0.1095714 0.1101827 0.1108041 0.1114002 0.1119597
 0.1124542 0.1128955 0.1132815 0.1136304 0.1139512 0.1142502 0.1145309 0.1147955 0.1150429 0.1152877
 0.1155304 0.1157947 0.1160825 0.1164067 0.1167673 0.11716 0.1175839 0.1180312 0.1185005 0.1189844
 0.1194773 0.1199597 0.1204253 0.1208473 0.1212334 0.1215772 0.1219038 0.1222356 0.1225922 0.1230003
 0.1234458 0.1239366 0.1244252 0.1248997 0.1253205 0.1256716 0.1259667 0.1262013 0.1264334 0.126668
 0.1269339 0.127231 0.1275107 0.1277685 0.1279375 0.1280269 0.1280412 0.1280037 0.1279886 0.1280084
 0.128131 0.1283416 0.1286537 0.1290338 0.1294547 0.1298864 0.1302955 0.1306829 0.1310327 0.1313856
 0.1317495 0.1321633 0.1326441 0.1331679 0.1337401 0.1342763 0.1347704 0.1351551 0.1354286 0.1356076
 0.1356992 0.1357802 0.1358522 0.1359676 0.1361156 0.1362871 0.1364791 0.1366741 0.1368916 0.1371547
 0.1374734 0.1378801 0.1383339 0.138824 0.1392906 0.1396936 0.1400334 0.1402897 0.140531 0.1407681
 0.1410564 0.1414104 0.1418127 0.1422654 0.1427008 0.1431153 0.1434463 0.1436948 0.1438413 0.1438973
 0.143904 0.1438814 0.1439148 0.1440152 0.1442558 0.144614 0.145099 0.1456562 0.146236 0.1467901
 0.1472621 0.1476538 0.1479428 0.1481778 0.1483678 0.1485617 0.1487729 0.1490234 0.1493172 0.1496707
 0.1500847 0.1505889 0.1511846 0.1518852 0.1526848 0.1535332 0.1544138 0.1552151 0.1559249 0.1564371
 0.1567708 0.1569019 0.1568884 0.1567998 0.1566979 0.1566809 0.1567545 0.1569705 0.1572559 0.1575994
 0.1578978 0.158112 0.1581882 0.1580976 0.1578783 0.1575249 0.1571361 0.1567195 0.1563518 0.1560364
 0.1557799 0.1555794 0.155404 0.1552546 0.1551201 0.1550054 0.1549238 0.1548716 0.154853 0.1548475
 0.1548325 0.1547733 0.1546283 0.1543658 0.1539434 0.1533701 0.1526249 0.15178 0.1508463 0.1499196
 0.1490251 0.1482126 0.1474968 0.1468632 0.1463133 0.1458038 0.1453324 0.1448541 0.1443675 0.1438409
 0.1432801 0.1426955 0.1421006 0.1415489 0.1410422 0.1406194 0.1402531 0.1399223 0.1395918 0.1392105
 0.138776 0.1382602 0.1377055 0.1371186 0.1365596 0.1360507 0.1356281 0.1353107 0.135076 0.13493
 0.1347917 0.1346556 0.1344414 0.1341452 0.1337582 0.1332859 0.1327896 0.1322742 0.1318018 0.1313661
 0.130981 0.1306359 0.1303135 0.1300092 0.1297074 0.129408 0.1291048 0.1287995 0.1284892 0.128183
 0.1278826 0.1276021 0.1273482 0.1271226 0.1269304 0.1267497 0.1265795 0.1263878 0.1261714 0.1259131
 0.1256123 0.125277 0.1249088 0.1245299 0.1241421 0.1237672 0.1234054 0.1230696 0.122757 0.1224691
 0.1221991 0.1219388 0.1216794 0.1214083 0.1211205 0.1208067 0.1204712 0.1201123 0.1197417 0.1193635
 0.1189842 0.1186079 0.118227 0.1178413 0.1174405 0.1170229 0.1165944 0.1161552 0.1157268 0.1153097
 0.1149187 0.1145514 0.1142023 0.1138673 0.1135289 0.1131858 0.1128255 0.1124515 0.1120633 0.1116667
 0.1112682 0.1108709 0.110478 0.1100945 0.10972 0.1093713 0.1090531 0.108783 0.1085715 0.1083981
 0.1082672 0.1081098 0.1079205 0.1076401 0.1072652 0.1068103 0.1062813 0.1057548 0.105236 0.1047959
 0.1044275 0.1041498 0.1039425 0.1037728 0.1036155 0.103414 0.10316 0.102813 0.1024054 0.1019402
 0.101475 0.101044 0.1006715 0.1003832 0.1001432 0.0999492 0.09975912 0.09956102 0.09937051 0.09918541
 0.09906243 0.09900448 0.09903564 0.09915125 0.0993015 0.09947561 0.09958397 0.09962476 0.09953745 0.09934175
 0.09904771 0.09868807 0.09832191 0.09796492 0.09766402 0.09740193 0.09718133 0.09698112 0.09678455 0.09660255
 0.09643329 0.09629802 0.09620702 0.09614261 0.09610648 0.09605682 0.09598787 0.09589936 0.09579101 0.09571266
 0.09566563 0.0956824 0.09575621 0.09586367 0.09599716 0.09611502 0.09621982 0.09629626 0.0963516 0.09639279
 0.09642009 0.09643956 0.09644055 0.09642021 0.09635857 0.09624548 0.09606303 0.09579757 0.09546136 0.09504628
 0.09461385 0.09416877 0.09378792 0.09348136 0.09326982 0.0931551 0.09307032 0.0930097 0.09287613 0.09267253
 0.09236148 0.09196195 0.09152042 0.09105576 0.09064014 0.09027133 0.08998284 0.08975226 0.08956878 0.08940774
 0.08924552 0.08906946 0.08886368 0.08863433 0.08837596 0.08811527 0.08785661 0.08762725 0.087436 0.08727031
 0.08713307 0.08696449 0.08676129 0.08647523 0.08610883 0.08568633 0.08521686 0.0847728 0.08435193 0.08398987
 0.08366737 0.08335382 0.08303851 0.08268204 0.08230323 0.0819057 0.08151609 0.08116169 0.08084311 0.08057148
 0.08032893 0.08010811 0.07990942 0.07972829 0.07958667 0.07948881 0.0794415 0.07944851 0.07947626 0.07952321
 0.07952975 0.07949354 0.07936743 0.07915554 0.07885577 0.07848146 0.07807796 0.07766076 0.07729095 0.07697424
 0.07675017 0.07661075 0.07656436 0.07659449 0.07669228 0.07683988 0.07702576 0.07723688 0.07746545 0.07770643
 0.07795661 0.07821705 0.07848641 0.07877353 0.07907741 0.07942728 0.07982457 0.08031964 0.08091413 0.08164436
 0.08250401 0.08347458 0.0845422 0.08564468 0.08677464 0.08787981 0.08896707 0.0900239 0.09106112 0.09208842
 0.09310859 0.09412695 0.09514463 0.09616067 0.09718655 0.09822523 0.09929054 0.10039 0.1015138 0.1026661
 0.1038027 0.1049212 0.105965 0.1069305 0.1077818 0.1085185 0.1091346 0.1096319 0.1100178 0.110294
 0.1104682 0.1105485 0.1105522 0.1105041 0.110448 0.110419 0.1104773 0.1106413 0.110953 0.1113938
 0.1119698 0.1126424 0.1133967 0.1142127 0.115079 0.1160052 0.116991 0.1180493 0.1191833 0.1203791
 0.1216367 0.1229082 0.1241899 0.1254165 0.1265854 0.1276446 0.1285988 0.1294353 0.1301657 0.1308145
 0.1313861 0.1319085 0.1323553 0.1327226 0.132935 0.1329459 0.1326438 0.1319559 0.1307999 0.1291089
 0.1269213 0.1242064 0.121159 0.117789 0.1143776 0.110952 0.1077472 0.1047803 0.1021437 0.09983489
 0.09781095 0.09606118 0.0944932 0.09310336 0.09182914 0.09067244 0.08961058 0.08863702 0.08773381 0.08688536
 0.08606378 0.08526467 0.08446927 0.08369723 0.08295182 0.08226011 0.08163518 0.08108693 0.08062233 0.08023427
 0.07992221 0.0796817 0.07951117 0.07942094 0.07941147 0.07949892 0.07968251 0.07995267 0.0803008 0.08066615
 0.08103448 0.08131441 0.08150349 0.08154105 0.08145137 0.08124229 0.08095675 0.08064792 0.08035473 0.08012791
 0.07998909 0.07996561 0.0800617 0.08028659 0.08063261 0.08110071 0.08167738 0.08236254 0.08313408 0.08399475
 0.08487376 0.08576944 0.08649983 0.08704966 0.08713629 0.08674971 0.08566234 0.08391513 0.08152322 0.07859056
 0.07538306 0.07200764 0.06878642 0.06575136 0.06308757 0.060738 0.0587237 0.05695869 0.05539571 0.05398305
 0.0526855 0.05149278 0.05039559 0.04939409 0.04848838 0.04767036 0.04694014 0.04628048 0.04569049 0.04514679
 0.04464808 0.04417105 0.04371548 0.043268 0.04283021 0.0424011 0.04198296 0.04158135 0.04119747 0.04083668
 0.0404976 0.04018274 0.03988403 0.03959785 0.03930975 0.03900982 0.03868974 0.03833955 0.03797402 0.03759143
 0.03722513 0.03688148 0.03658006 0.03632627 0.0361024 0.03590808 0.03570784 0.03550087 0.03527421 0.0350307
 0.0347868 0.03454276 0.03431109 0.03408397 0.03384674 0.03359252 0.03329762 0.03297046 0.03260808 0.03223162
 0.03185844 0.03150448 0.03118629 0.03090439 0.03066441 0.03045711 0.03028267 0.03012519 0.02998387 0.02983295
 0.02966983 0.02947095 0.02923409 0.02896052 0.02865142 0.02833343 0.02800827 0.0277018 0.02741281 0.02715
 0.02691111 0.02669456 0.0264986 0.02632024 0.02615598 0.02600076 0.02585019 0.02569748 0.02554386 0.02538668
 0.02523323 0.02508658 0.02494956 0.0248258 0.02470479 0.02458661 0.02445254 0.02429999 0.02412005 0.02391145
 0.02368598 0.02344457 0.02320752 0.02297444 0.02275213 0.02253782 0.02232231 0.02210556 0.02188071 0.02165389
 0.02143257 0.0212242 0.02104286 0.02088905 0.02077127 0.02067763 0.02060684 0.02053626 0.02045736 0.02034911
 0.02020192 0.0200132 0.0197782 0.01951691 0.01923018 0.01894411 0.01866074 0.01839286 0.01814061 0.01790211
 0.01767671 0.01745857 0.01724759 0.01704054 0.0168373 0.0166359 0.01643626 0.01623672 0.01603895 0.01584394
 0.01565467 0.01547477 0.01530436 0.01514579 0.01499405 0.01484778 0.01470221 0.01455487 0.01440727 0.01425905
 0.01411422 0.01397387 0.01383405 0.01369477 0.01354528 0.01338533 0.01321209 0.01302745 0.01284527 0.01266806
 0.01251563 0.01238599 0.012286 0.01220732 0.01213816 0.01206929 0.01198245 0.01187553 0.01173804 0.01157772
 0.011395 0.011202 0.01100424 0.01080917 0.01062088 0.01043881 0.01026356 0.01009314 0.009926925 0.009768413
 0.009617789 0.009479133 0.009352317 0.009231962 0.009116909 0.00899456 0.008865136 0.008722108 0.008568324 0.00840868
 0.008245307 0.008085374 0.007927845 0.007774486 0.007623238 0.007472459 0.007321678 0.007169643 0.007018008 0.006866712
 0.006719138 0.00657624 0.006440667 0.006313872 0.006192329 0.0060765 0.005955779 0.005829414 0.005689392 0.005535697
 0.005372648 0.00520161 0.005036381 0.004877332 0.00473445 0.004605014 0.004487212 0.004376299 0.004261885 0.004141358
 0.004005812 0.003857438 0.003694116 0.003521788 0.003343258 0.00316441 0.002988744 0.00281883 0.002656697 0.002500506
 0.002350579 0.002202665 0.002056116 0.001909357 0.001762059 0.001617688 0.001476441 0.001342868 0.001216562 0.001096215
 0.0009805277 0.0008623869 0.0007417026 0.0006134695 0.0004807692 0.0003469489 0.0002157963 9.528792E-05 -1.62443E-05 -0.0001153616
 -0.0002113931 -0.0003090407 -0.0004166832 -0.0005412499 -0.0006790932 -0.0008322909 -0.0009877308 -0.001143112 -0.001288877 -0.001422877
 -0.001545824 -0.001657429 -0.001763257 -0.001863617 -0.001964415 -0.002066051 -0.002174707 -0.002290359 -0.002416838 -0.002552551
 -0.00269525 -0.00284233 -0.002987553 -0.003129055 -0.003261484 -0.003384465 -0.003495627 -0.003595576 -0.00368319 -0.003762143
 -0.003832458 -0.003902518 -0.003974394 -0.004056482 -0.0041516 -0.004260113 -0.004383266 -0.00451218 -0.004646463 -0.004774645
 -0.004896245 -0.005005105 -0.005101661 -0.005187097 -0.005262537 -0.005333747 -0.005401826 -0.005472903 -0.005547813 -0.005631043
 -0.0057232 -0.005827423 -0.005942676 -0.006070253 -0.006205237 -0.0063458 -0.006484441 -0.006617107 -0.006739681 -0.006849229
 -0.006947936 -0.007035314 -0.007116575 -0.00719236 -0.007266183 -0.007338417 -0.007410346 -0.007481993 -0.007552308 -0.007621113
 -0.007685788 -0.00774703 -0.007805953 -0.007865219 -0.007933523 -0.008012922 -0.008113335 -0.008231508 -0.008368553 -0.008516481
 -0.0086678 -0.008816663 -0.00895603 -0.009085904 -0.00920434 -0.009313411 -0.009413493 -0.009505648 -0.00958968 -0.009669098
 -0.00974369 -0.00982227 -0.009905442 -0.01000159 -0.01011098 -0.01023345 -0.01036812 -0.01050641 -0.01064744 -0.01078204
 -0.01091065 -0.01102961 -0.01114036 -0.01124415 -0.01134224 -0.01143715 -0.01152895 -0.0116186 -0.01170578 -0.01179012
 -0.01187294 -0.01195435 -0.01203703 -0.01212218 -0.01221002 -0.01230153 -0.01239178 -0.01248027 -0.01256244 -0.01263761
 -0.01270822 -0.01277448 -0.01284449 -0.01291853 -0.01300278 -0.01309646 -0.01319919 -0.01330925 -0.01342098 -0.01353333
 -0.01364082 -0.01374453 -0.01384348 -0.01393952 -0.01403508 -0.01412869 -0.01422101 -0.01430727 -0.01438474 -0.01445269
 -0.01450906 -0.01456002 -0.01460606 -0.01465495 -0.01470787 -0.01476929 -0.01483972 -0.01492086 -0.01501274 -0.0151136
 -0.01522288 -0.01533427 -0.01544719 -0.01555505 -0.01565819 -0.01575441 -0.01584398 -0.01592677 -0.01600226 -0.01606906
 -0.01612853 -0.01618044 -0.01622951 -0.01627878 -0.01633221 -0.01639342 -0.01646072 -0.01653513 -0.01661081 -0.01668655
 -0.01675856 -0.01682566 -0.01689017 -0.01695202 -0.01701654 -0.01708394 -0.01715533 -0.01723018 -0.01730312 -0.01737415
 -0.01743972 -0.0175018 -0.01756503 -0.01763072 -0.01770543 -0.01778569 -0.01787016 -0.01795256 -0.01802498 -0.01808599
 -0.01813018 -0.01816466 -0.0181906 -0.01821759 -0.01824968 -0.01829019 -0.01834162 -0.01839862 -0.01846117 -0.01852111
 -0.01857762 -0.01862706 -0.01866932 -0.01870913 -0.01874744 -0.01879559 -0.01885478 -0.01893754 -0.01904361 -0.01917929
 -0.01934219 -0.01953026 -0.01974113 -0.01996934 -0.02021635 -0.02047985 -0.02076728 -0.02108168 -0.02143413 -0.02183056
 -0.02227927 -0.0227856 -0.02334784 -0.02396829 -0.02463414 -0.02534522 -0.02608043 -0.02683862 -0.02759363 -0.0283439
 -0.02905736 -0.02973058 -0.03031882 -0.03081343 -0.03114637 -0.03130715 -0.03121807 -0.03089072 -0.03029347 -0.02949098
 -0.02855542 -0.02757539 -0.02667802 -0.02590011 -0.02531421 -0.02490758 -0.02469248 -0.02464872 -0.02477515 -0.02504257
 -0.02545471 -0.02592967 -0.02646419 -0.02692677 -0.02730353 -0.02753508 -0.02761858 -0.02761155 -0.0275185 -0.02741071
 -0.02728565 -0.02716698 -0.02704718 -0.02691226 -0.0267601 -0.02657553 -0.02636863 -0.02614815 -0.02592365 -0.0257127
 -0.02550819 -0.02531185 -0.02511118 -0.02489697 -0.02467376 -0.02443855 -0.02420875 -0.02398833 -0.02378689 -0.02360716
 -0.02344768 -0.02330864 -0.02318704 -0.02308273 -0.02299426 -0.02292133 -0.02286023 -0.02281002 -0.02276354 -0.02272005
 -0.02267247 -0.02262251 -0.02256975 -0.0225182 -0.02247437 -0.02243994 -0.02242106 -0.02241228 -0.02241248 -0.02241357
 -0.02241033 -0.02240065 -0.0223817 -0.02235778 -0.02232928 -0.02230033 -0.02227155 -0.02224588 -0.02222348 -0.02220926
 -0.02220349 -0.02221032 -0.02222939 -0.02225775 -0.02229391 -0.02232755 -0.02235795 -0.022376 -0.02238444 -0.02238406
 -0.0223802 -0.02238228 -0.02239239 -0.02241821 -0.02245461 -0.02250121 -0.02254969 -0.02259493 -0.02263418 -0.02266425
 -0.02268954 -0.02271042 -0.0227313 -0.02275351 -0.02277514 -0.02279647 -0.02281064 -0.02281729 -0.02281189 -0.02279477
 -0.0227686 -0.02273442 -0.02269962 -0.02266487 -0.0226364 -0.02261425 -0.02260168 -0.02259817 -0.0226048 -0.02261958
 -0.02264149 -0.02266655 -0.02269157 -0.02271338 -0.02272918 -0.02273849 -0.02274035 -0.02273585 -0.02272484 -0.02270962
 -0.02269016 -0.022671 -0.02265254 -0.02263856 -0.02262928 -0.02262321 -0.02262007 -0.02261546 -0.02260975 -0.02260279
 -0.02259572 -0.02259302 -0.02259446 -0.02260246 -0.02261454 -0.02262798 -0.02264011 -0.02264641 -0.02264691 -0.02263934
 -0.0226272 -0.02261128 -0.02259616 -0.02258392 -0.02257647 -0.02257528 -0.02257741 -0.02258294 -0.0225867 -0.02258811
 -0.02258483 -0.0225767 -0.02256654 -0.02255464 -0.02254554 -0.02253902 -0.02253629 -0.02253641 -0.02253653 -0.02253621
 -0.02253256 -0.02252678 -0.02251922 -0.02251209 -0.02250825 -0.02250858 -0.02251538 -0.02252662 -0.02254255 -0.02255867
 -0.0225734 -0.02258346 -0.02258714 -0.02258607 -0.02257984 -0.02257355 -0.02256768 -0.02256536 -0.02256681 -0.02257144
 -0.02257915 -0.02258819 -0.02259854 -0.02260923 -0.02262005 -0.0226296 -0.02263794 -0.02264429 -0.0226494 -0.02265422
 -0.02265914 -0.0226655 -0.02267182 -0.02267749 -0.02268091 -0.02268034 -0.02267757 -0.02267225 -0.02266891 -0.02266894
 -0.02267365 -0.0226841 -0.02269548 -0.02270751 -0.02271511 -0.02271795 -0.02271641 -0.02271076 -0.02270502 -0.02269921
 -0.02269548 -0.0226935 -0.02269305 -0.022694 -0.02269605 -0.02269892 -0.02270196 -0.02270502 -0.02270715 -0.02270999
 -0.0227144 -0.02272226 -0.02273585 -0.02275239 -0.02277238 -0.02278871 -0.02279916 -0.02280165 -0.0227944 -0.02278534
 -0.02277483 -0.02277287 -0.02278011 -0.02279776 -0.02282535 -0.02285566 -0.02288829 -0.0229169 -0.02294216 -0.02296331
 -0.02298095 -0.02299645 -0.02300946 -0.02301974 -0.02302765 -0.02303315 -0.02303771 -0.02304303 -0.02304836 -0.02305455
 -0.02305776 -0.02305628 -0.02304923 -0.02303485 -0.02301993 -0.02300498 -0.02299806 -0.02300043 -0.02301253 -0.02303451
 -0.02305999 -0.02308877 -0.02311688 -0.02314498 -0.02317573 -0.0232097 -0.02325145 -0.02329897 -0.02335065 -0.02340168
 -0.02344281 -0.02347142 -0.02347871 -0.02347013 -0.02344511 -0.02341584 -0.02338888 -0.02337317 -0.023375 -0.02339304
 -0.02342947 -0.02347438 -0.02352682 -0.02357626 -0.02362129 -0.02365763 -0.02368486 -0.02370661 -0.02372322 -0.02374069
 -0.02375889 -0.02377987 -0.02380286 -0.0238257 -0.02384837 -0.02386925 -0.02388969 -0.02391114 -0.02393527 -0.02396506
 -0.02400045 -0.0240435 -0.02409 -0.02413931 -0.02418361 -0.02421965 -0.02424243 -0.02424855 -0.0242433 -0.02422592
 -0.02420975 -0.02419609 -0.02419494 -0.02420712 -0.02423063 -0.02426494 -0.02430061 -0.02433744 -0.02436918 -0.02439675
 -0.02442056 -0.02444113 -0.02446016 -0.02447738 -0.02449273 -0.02450683 -0.02451991 -0.02453412 -0.02455146 -0.02457307
 -0.02460079 -0.02463271 -0.02466898 -0.02470575 -0.02474218 -0.02477488 -0.02480302 -0.02482536 -0.0248415 -0.02485316
 -0.0248604 -0.02486605 -0.02487012 -0.02487294 -0.02487434 -0.02487307 -0.02486953 -0.02486456 -0.02485887 -0.0248552
 -0.02485297 -0.02485272 -0.02485281 -0.02485078 -0.02484732 -0.02484088 -0.02483674 -0.02483742 -0.02484734 -0.0248706
 -0.02490201 -0.0249426 -0.02497876 -0.02500803 -0.0250224 -0.02501976 -0.02500729 -0.02498519 -0.02496513 -0.02494723
 -0.02493353 -0.02492317 -0.02491075 -0.02489619 -0.02487605 -0.02485153 -0.02482377 -0.02479447 -0.02476687 -0.02474299
 -0.02472697 -0.02471899 -0.02472201 -0.02473096 -0.02474498 -0.02475534 -0.0247581 -0.02474846 -0.02472302 -0.02468667
 -0.02463895 -0.0245901 -0.02454126 -0.02449891 -0.02446366 -0.02443391 -0.02440951 -0.02438669 -0.02436568 -0.02434657
 -0.0243296 -0.02431613 -0.02430531 -0.02429522 -0.02428568 -0.02427476 -0.02426459 -0.02425772 -0.02425411 -0.02425645
 -0.02425823 -0.02425667 -0.02424559 -0.02421976 -0.02418458 -0.024139 -0.02409617 -0.02405876 -0.02403295 -0.02402063
 -0.02401481 -0.02401526 -0.02401154 -0.02400352 -0.02398969 -0.02397101 -0.02395432 -0.02393941 -0.02392965 -0.0239227
 -0.02391363 -0.02390127 -0.02388028 -0.02385271 -0.02381873 -0.0237813 -0.02374276 -0.02370626 -0.02367387 -0.02364916
 -0.02363513 -0.02362941 -0.0236339 -0.02363577 -0.0236333 -0.02361423 -0.02357592 -0.02352189 -0.02345187 -0.02338207
 -0.02331313 -0.02325678 -0.02321229 -0.02317988 -0.02315799 -0.02314015 -0.02312567 -0.02310869 -0.02309083 -0.02307194
 -0.02305488 -0.02304431 -0.02303923 -0.0230421 -0.02304582 -0.0230471 -0.02303937 -0.02301757 -0.02298438 -0.02293804
 -0.02288958 -0.02284059 -0.02280067 -0.02277173 -0.02275301 -0.02274479 -0.02273787 -0.02273203 -0.02272332 -0.02271299
 -0.0227095 -0.02271325 -0.02273226 -0.02276209 -0.02279578 -0.02282624 -0.02283522 -0.02282259 -0.02277755 -0.02271145
 -0.02262972 -0.02254521 -0.02246842 -0.02240361 -0.02235659 -0.02232182 -0.02229965 -0.02228083 -0.02226333 -0.02224301
 -0.02221863 -0.02219371 -0.02216829 -0.02214885 -0.02213562 -0.0221335 -0.02214157 -0.02215636 -0.02217442 -0.02217855
 -0.02216686 -0.02212202 -0.02205179 -0.02196165 -0.02186198 -0.02177097 -0.02168873 -0.02162244 -0.02156755 -0.02152226
 -0.02148619 -0.02145928 -0.02143949 -0.02142808 -0.02141382 -0.02139531 -0.02136061 -0.02130757 -0.02123428 -0.02114024
 -0.02103164 -0.02090894 -0.02078177 -0.02065082 -0.02052636 -0.02040795 -0.02029944 -0.02019955 -0.02010608 -0.0200194
 -0.01993974 -0.01986618 -0.0197996 -0.01973313 -0.01966028 -0.01957747 -0.01947714 -0.01937043 -0.01925945 -0.0191572
 -0.01907043 -0.01899436 -0.01893075 -0.01886332 -0.01878979 -0.01870336 -0.018603 -0.0184962 -0.01838318 -0.01826809
 -0.01814921 -0.0180137 -0.01785996 -0.01767078 -0.01745244 -0.01721237 -0.01696101 -0.01672547 -0.01650377 -0.01630787
 -0.01612311 -0.01593925 -0.01574701 -0.01553381 -0.01530817 -0.01506956 -0.01483138 -0.01459931 -0.01437339 -0.01415675
 -0.01393348 -0.01370336 -0.01343957 -0.0131398 -0.01279184 -0.01239623 -0.01197929 -0.01154279 -0.01111589 -0.01069354
 -0.01026872 -0.009833781 -0.009361516 -0.008850776 -0.008284483 -0.00766961 -0.007007056 -0.00630796 -0.005582747 -0.004840629
 -0.004095464 -0.003334671 -0.002563956 -0.001738486 -0.0008441992 0.0001433151 0.001241239 0.002394503 0.003599918 0.004795171
 0.005973373 0.007146023 0.008313866 0.009502618 0.01070866 0.01190788 0.01309874 0.01425481 0.01539137 0.01654139
 0.0177153 0.01896188 0.02025167 0.02156586 0.022873 0.02412322 0.02533962 0.02651848 0.0276982 0.02890052
 0.03012917 0.03139167 0.03267399 0.03396628 0.03530905 0.03669741 0.03825686 0.03999895 0.04196938 0.0441635
 0.04635861 0.04854272 0.05050086 0.05226351 0.05386363 0.0553345 0.05679557 0.05825306 0.05977336 0.06135798
 0.063022 0.06480684 0.06673714 0.06891046 0.07140041 0.07426699 0.07760081 0.08124179 0.08519522 0.08914804
 0.09302893 0.09667701 0.1000507 0.1031768 0.1060506 0.1087779 0.1113662 0.1139955 0.1166822 0.1196729
 0.1229415 0.1265324 0.1303286 0.1339668 0.1374324 0.1404784 0.1432483 0.1458489 0.148384 0.1510122
 0.1537322 0.1565949 0.1595614 0.1626222 0.1657612 0.1689837 0.1722206 0.1754662 0.1786191 0.1816567
 0.1845944 0.1874307 0.1902152 0.1929466 0.1955146 0.1979069 0.1999522 0.2016629 0.2030083 0.2040112
 0.2047308 0.2051679 0.2053449 0.2052761 0.2049762 0.2045003 0.203907 0.2032381 0.2025383 0.2018328
 0.2011464 0.2004808 0.1998516 0.1992059 0.1985441 0.197771 0.1968767 0.1957671 0.1944302 0.1928768
 0.1911102 0.1892855 0.1874048 0.1855562 0.1837187 0.1818314 0.1798791 0.1777754 0.1755349 0.1731327
 0.1706227 0.1680694 0.1655238 0.1630751 0.1607069 0.1584432 0.1562297 0.1540344 0.1518668 0.1497076
 0.1476485 0.1457093 0.1439339 0.1423382 0.140875 0.1395417 0.1383 0.1371488 0.1361081 0.1351795
 0.1343914 0.1337388 0.1332117 0.132804 0.1324892 0.1322668 0.1321233 0.1320598 0.1320721 0.1321625
 0.1323301 0.132583 0.1329255 0.1333672 0.1339132 0.1345709 0.1353421 0.1362382 0.1372632 0.1384185
 0.1397092 0.1410967 0.1425796 0.1440971 0.1456466 0.1472036 0.1487682 0.1503442 0.1519195 0.1534364
 0.1548762 0.1561326 0.157231 0.1581624 0.1589857 0.1597935 0.1606021 0.1614785 0.1623723 0.1632659
 0.1641229 0.1649021 0.1656597 0.1663866 0.1672238 0.1682065 0.1694055 0.1708656 0.1723428 0.1738231
 0.1750564 0.1760328 0.1767829 0.1773137 0.1777108 0.1779707 0.1781183 0.1781458 0.1780446 0.1778002
 0.1773925 0.1767696 0.1758503 0.174582 0.1728304 0.170726 0.1682974 0.1657351 0.1631759 0.1605924
 0.1580061 0.1553596 0.1526244 0.1498781 0.1471233 0.1444682 0.1419267 0.1394944 0.1371707 0.1348843
 0.1326357 0.1304054 0.1282033 0.1260757 0.1240208 0.1220643 0.1201821 0.1183345 0.1165006 0.1146273
 0.1127159 0.1107505 0.1087299 0.1066621 0.1044986 0.1022203 0.09977668 0.09710196 0.09437885 0.09160716
 0.08912232 0.08700197 0.08521491 0.08377627 0.08243687 0.081185 0.07988577 0.07854553 0.07719307 0.07584059
 0.0745739 0.0733854 0.07229213 0.07128645 0.07034966 0.06950364 0.06877106 0.0681793 0.06777447 0.06754651
 0.06750697 0.06762684 0.06789222 0.06829108 0.06881347 0.06946716 0.07024612 0.07119289 0.07230591 0.07368059
 0.07532807 0.07728284 0.07954508 0.08187953 0.08426534 0.08637238 0.08821557 0.08970615 0.09087914 0.09180818
 0.09250841 0.093045 0.09343085 0.09370263 0.09389937 0.09406786 0.09426246 0.09455122 0.09492016 0.0954043
 0.09588379 0.09631889 0.09664894 0.09684014 0.09693962 0.09694811 0.09692173 0.09686667 0.09680387 0.09673456
 0.09665135 0.09655361 0.09643076 0.09628466 0.09611814 0.09593786 0.09576552 0.09561187 0.095513 0.09547307
 0.09551693 0.09563722 0.09583248 0.096104 0.09644859 0.09688034 0.09740761 0.09803274 0.09876134 0.09957875
 0.1004809 0.1014661 0.1025313 0.1036969 0.1049665 0.1063284 0.1077817 0.1092278 0.1106601 0.1119635
 0.1131426 0.1141646 0.1150379 0.1157785 0.1163811 0.1168439 0.1171535 0.1172849 0.117236 0.1169907
 0.1165633 0.1159587 0.1151922 0.114275 0.11321 0.1119998 0.1106473 0.1091468 0.1075391 0.105822
 0.1040885 0.1023466 0.1006732 0.09907294 0.09754554 0.09608807 0.09466012 0.09326278 0.09188066 0.09052108
 0.08920459 0.08793034 0.08671135 0.08553196 0.08437419 0.08322114 0.08204492 0.08084223 0.07959712 0.0783264
 0.07702921 0.07574102 0.074472 0.07325765 0.07211131 0.07103788 0.07004371 0.06909741 0.06819703 0.06731056
 0.06643613 0.06558423 0.06475831 0.06400815 0.06333493 0.06277385 0.06231671 0.06195414 0.06167583 0.06145296
 0.06127955 0.06113291 0.0610118 0.0609052 0.06081726 0.06074789 0.0607005 0.06067976 0.06067672 0.06069128
 0.06070653 0.06071778 0.06071683 0.06070096 0.06067266 0.06063226 0.06057746 0.06050815 0.06041086 0.06028524
 0.06012185 0.05992366 0.05970192 0.05946381 0.05924038 0.05903847 0.05889134 0.058798 0.05877404 0.05880918
 0.05889912 0.05903068 0.05919318 0.05937447 0.05956659 0.05975764 0.05994199 0.06011085 0.06026051 0.06038922
 0.06049577 0.06058309 0.06065137 0.0607028 0.06073752 0.06075551 0.06075668 0.06073935 0.0607038 0.06065035
 0.06058053 0.06049988 0.0604101 0.06031852 0.0602247 0.06013107 0.06003712 0.05994181 0.05984886 0.05976007
 0.05968101 0.05961569 0.0595657 0.05953301 0.05951557 0.05951317 0.05952411 0.05954817 0.05958371 0.05963075
 0.05968563 0.05974814 0.05981408 0.05988333 0.05995287 0.06002319 0.06009497 0.06017034 0.06025673 0.06035758
 0.06048545 0.06064122 0.06083354 0.06105769 0.06131227 0.06159066 0.06188595 0.06219749 0.06252127 0.06286498
 0.06323021 0.06362499 0.06405304 0.06451174 0.06500276 0.0655114 0.06603692 0.06656045 0.06708084 0.0675829
 0.06806621 0.06852212 0.06895131 0.06935336 0.06972978 0.07008652 0.07042309 0.0707434 0.07104109 0.07130904
 0.07153661 0.07170808 0.07181761 0.07185265 0.07181989 0.07171792 0.07155983 0.07135135 0.07109687 0.07080002
 0.07045408 0.07005779 0.06960999 0.06910917 0.06857152 0.06799781 0.06741087 0.0668114 0.0662128 0.06561415
 0.06501648 0.06441801 0.06381297 0.06319945 0.06256959 0.06192287 0.0612538 0.06056559 0.05985865 0.05913985
 0.05841417 0.05768918 0.05697074 0.05626241 0.055568 0.0548838 0.05421015 0.05354016 0.05287194 0.05220644
 0.0515428 0.05089226 0.05025538 0.04964456 0.0490603 0.04851136 0.04799839 0.04753014 0.04710722 0.04673719
 0.04641888 0.04615314 0.04593868 0.04577288 0.04565718 0.04559182 0.04557961 0.04562264 0.0457239 0.04588418
 0.04611076 0.04640502 0.04677895 0.04723608 0.04778397 0.04842601 0.04915512 0.04997251 0.05085286 0.05179496
 0.05276065 0.05374799 0.05472191 0.05568275 0.05661469 0.05752083 0.05840443 0.05926864 0.06012303 0.06096941
 0.06181534 0.06266129 0.06351142 0.06436353 0.06521815 0.06606997 0.06691696 0.0677521 0.06857305 0.06937139
 0.07014462 0.0708864 0.07159447 0.07227089 0.07291507 0.07353593 0.07413393 0.07471874 0.07529125 0.07586608
 0.07644586 0.07705592 0.07769883 0.07839936 0.07915597 0.07997817 0.08086129 0.08180203 0.0827949 0.08383311
 0.08490913 0.08601537 0.08714355 0.08828676 0.08944049 0.090602 0.09176697 0.0929352 0.09409627 0.09524907
 0.09638072 0.09748953 0.09856858 0.09961724 0.1006363 0.1016258 0.1025905 0.1035301 0.1044448 0.1053324
 0.1061833 0.1069964 0.1077619 0.1084856 0.1091723 0.1098292 0.1104681 0.1110915 0.1117037 0.1123111
 0.112916 0.1135332 0.1141714 0.1148321 0.1155209 0.1162183 0.1169207 0.1176198 0.1183122 0.119021
 0.1197472 0.1205178 0.1213329 0.1221927 0.1230936 0.1240113 0.1249406 0.1258487 0.1267307 0.1275578
 0.1283259 0.1290153 0.1296218 0.1301319 0.1305435 0.1308474 0.1310521 0.1311567 0.1311816 0.1311336
 0.131032 0.1308831 0.130699 0.1304821 0.1302443 0.1299866 0.1297209 0.129448 0.1291735 0.1288974
 0.1286215 0.1283449 0.1280644 0.1277757 0.1274606 0.1271131 0.1267064 0.1262418 0.1257066 0.1251109
 0.124461 0.1237684 0.1230435 0.1222996 0.1215446 0.1207973 0.1200666 0.1193687 0.1187119 0.1180961
 0.117525 0.1169799 0.1164605 0.1159384 0.1154117 0.1148602 0.1142835 0.1136821 0.1130568 0.1124171
 0.1117611 0.1110851 0.1103859 0.1096508 0.1088817 0.1080757 0.1072379 0.1063741 0.105487 0.1045797
 0.1036582 0.1027249 0.1017915 0.1008642 0.09994793 0.0990466 0.09815507 0.09727242 0.0963982 0.09553172
 0.0946799 0.09384338 0.09302057 0.09221093 0.09140093 0.09059 0.08976706 0.08893316 0.08808719 0.08722989
 0.08636385 0.08548661 0.08459535 0.08368619 0.08275066 0.08179294 0.08080962 0.0798189 0.07883005 0.07785992
 0.07692179 0.07600851 0.07512403 0.07424266 0.07336013 0.07245829 0.07153378 0.07058342 0.06960665 0.06860479
 0.06757808 0.06653091 0.06546526 0.06439746 0.06333197 0.06229631 0.06129483 0.06035508 0.0594757 0.05867014
 0.05792682 0.0572381 0.05658773 0.05595744 0.05533898 0.05472113 0.05410397 0.05348639 0.05286393 0.05223694
 0.05159289 0.05092983 0.05023641 0.04951071 0.04874854 0.047949 0.04712174 0.04626808 0.0454187 0.04457683
 0.04378336 0.04303856 0.04236706 0.04176358 0.04122681 0.04074958 0.04031816 0.03992603 0.03955955 0.03921307
 0.03887602 0.03854755 0.03822204 0.0379078 0.03760562 0.03732844 0.03708102 0.0368681 0.0366934 0.03654512
 0.03642302 0.03630926 0.03620205 0.03610158 0.03600857 0.03594599 0.03591438 0.03593007 0.03598881 0.03607981
 0.03619887 0.03632692 0.03646581 0.03661091 0.03676337 0.0369256 0.03709036 0.03725296 0.03740389 0.03753535
 0.03764283 0.03772274 0.03777226 0.03778956 0.03777454 0.03772485 0.03765413 0.03756204 0.03747677 0.03740007
 0.03736044 0.03735902 0.03741169 0.03751769 0.0376783 0.03789093 0.03814554 0.0384382 0.03875293 0.03908596
 0.03942213 0.03976023 0.04009168 0.04041873 0.04074083 0.0410594 0.04137708 0.04168804 0.04199167 0.04227793
 0.04254337 0.04278292 0.04299495 0.04317768 0.04333121 0.04344876 0.04352961 0.04357231 0.04357765 0.04357136
 0.04355766 0.04358551 0.0436563 0.04380626 0.04402577 0.04430898 0.04463765 0.04497313 0.04530137 0.04558422
 0.04582269 0.0460015 0.04613423 0.04622475 0.04628636 0.0463265 0.04635118 0.04636337 0.04636703 0.04636203
 0.04635938 0.0463597 0.04637877 0.04641811 0.0464833 0.04657402 0.04667307 0.04677843 0.04686265 0.04692804
 0.04696774 0.04699198 0.04702708 0.04708241 0.04719325 0.04735375 0.04757559 0.04783595 0.04811856 0.04840031
 0.0486584 0.04888863 0.04908044 0.04924782 0.04939246 0.04952841 0.04965919 0.04979128 0.04992594 0.05006733
 0.05021603 0.05037135 0.05053303 0.05069137 0.05084662 0.05099597 0.05114289 0.05130417 0.05147999 0.05168337
 0.05190403 0.05212739 0.05234386 0.05252936 0.05269139 0.05282529 0.05294999 0.05307724 0.0532193 0.05338613
 0.05357816 0.05379828 0.05404137 0.0543073 0.05458916 0.05488638 0.05519089 0.05550221 0.05581028 0.0561146
 0.05640619 0.05668569 0.0569549 0.05721593 0.05748106 0.05774965 0.05802699 0.05830922 0.0585898 0.05886861
 0.05914248 0.05941291 0.05968275 0.05994514 0.06019643 0.06043061 0.06063919 0.0608384 0.06102876 0.06123784
 0.06147416 0.0617403 0.06204091 0.06234446 0.06264921 0.06292139 0.06315977 0.06336011 0.06352502 0.06367899
 0.06382371 0.06398194 0.06414983 0.06432685 0.06450937 0.06468751 0.06486454 0.06504149 0.06522045 0.06540564
 0.06559264 0.06577741 0.06596437 0.06615153 0.06635558 0.06658338 0.06683738 0.06712186 0.06741973 0.06772904
 0.06803915 0.06834911 0.06865215 0.06894759 0.06921107 0.06944223 0.06962425 0.06976441 0.06988952 0.07000966
 0.07017216 0.07037865 0.07065596 0.07100012 0.07141775 0.07190136 0.07244941 0.07304424 0.07367645 0.07432194
 0.07496919 0.07559408 0.07618964 0.07672576 0.07719485 0.07757617 0.07786199 0.07807507 0.07821479 0.07833657
 0.07844313 0.07857763 0.07874064 0.07895333 0.07921517 0.0795372 0.07991456 0.08034115 0.08080465 0.08127753
 0.08174635 0.08218011 0.08256921 0.08289206 0.08314608 0.08331986 0.08342499 0.0834614 0.08345032 0.08339842
 0.08332112 0.08322121 0.08311754 0.08301038 0.08293752 0.08290242 0.08292963 0.08301985 0.08314596 0.08330458
 0.08344828 0.08357835 0.08367633 0.08374733 0.08379753 0.0838321 0.08386312 0.08389898 0.08395822 0.08404417
 0.08416884 0.08432754 0.08451638 0.08474568 0.08501641 0.08534987 0.08576579 0.08621907 0.08671252 0.08714958
 0.08751043 0.08778676 0.08797397 0.0881143 0.08820954 0.08827582 0.0883128 0.08832162 0.08830244 0.08825823
 0.08818728 0.08808418 0.08795047 0.08778217 0.08759365 0.08740456 0.08722749 0.0870873 0.08697737 0.08690219
 0.08684853 0.0868105 0.08678037 0.0867544 0.08672753 0.08669508 0.08667148 0.08665527 0.08668547 0.08676659
 0.08690801 0.08710974 0.08731212 0.08750974 0.0876203 0.08764431 0.0875384 0.08731408 0.08697926 0.08656073
 0.08611557 0.08567894 0.08533715 0.08508945 0.08498155 0.08495814 0.0849921 0.08504223 0.08507319 0.08509309
 0.08509853 0.08509529 0.08508444 0.08506683 0.08503788 0.08504024 0.08507622 0.08519798 0.08540805 0.08570512
 0.08608574 0.08650971 0.08697343 0.08743636 0.08789838 0.08833398 0.0887531 0.0891643 0.08957973 0.09002898
 0.09049954 0.09099507 0.09148383 0.09193962 0.09235343 0.09270927 0.09302409 0.09330109 0.09355085 0.09377482
 0.09398793 0.09418962 0.09441641 0.09467228 0.09497256 0.095318 0.09567361 0.09603668 0.09636356 0.09665579
 0.09689829 0.09709748 0.09726407 0.09741008 0.09756852 0.09774644 0.09797811 0.0982407 0.09852751 0.09880159
 0.09902624 0.09920073 0.09931067 0.09937976 0.09941673 0.0994233 0.09940051 0.09935194 0.09927478 0.09920268
 0.09913976 0.09909218 0.09906024 0.09898852 0.09887482 0.09867231 0.09838911 0.09804629 0.09765688 0.0972792
 0.09691557 0.0966056 0.0963319 0.09608836 0.09584726 0.09556938 0.0952556 0.09488317 0.09449609 0.09411475
 0.09375935 0.09345576 0.09314623 0.09282529 0.09242452 0.09192675 0.09133599 0.09064815 0.08991603 0.08914234
 0.08836718 0.08759102 0.08682953 0.08608144 0.08534736 0.08462714 0.08391792 0.08322647 0.08256705 0.08194586
 0.08138591 0.08087102 0.08039546 0.07993373 0.07945807 0.07897341 0.07846922 0.0779764 0.07750523 0.07707167
 0.07668452 0.07633387 0.07602049 0.07572643 0.07545019 0.07517596 0.07490277</values></Ydata></AB><ScSm><Ydata ylabel="Single channel"><values byteorder="INTEL" format="FLOAT32" numvalues="1814"> 0.06837916 0.06839593 0.06846862 0.06861582 0.06881186 0.06900088 0.06913538 0.06920729 0.06923451 0.06922403
 0.06917933 0.06914485 0.06919819 0.06937221 0.06960498 0.06978168 0.06982678 0.06977103 0.06973454 0.06980976
 0.06993575 0.06991595 0.06960354 0.06907161 0.06856546 0.06827527 0.06821803 0.06838556 0.06886524 0.06960505
 0.07015235 0.06998008 0.06915046 0.06834289 0.06809771 0.06829822 0.06849289 0.06841832 0.06807533 0.06762329
 0.06743334 0.06799437 0.06943144 0.07110159 0.07182301 0.07062332 0.06743477 0.06331436 0.06005547 0.05922961
 0.06107944 0.06419227 0.06655714 0.06717027 0.06652191 0.06558509 0.0647683 0.06403495 0.06357505 0.06384072
 0.06492098 0.06612425 0.06633633 0.06496824 0.06265105 0.0607903 0.06028647 0.06096781 0.06233647 0.06411666
 0.0654909 0.06465618 0.06059029 0.05530765 0.05297381 0.05594699 0.06226122 0.06755344 0.06895174 0.0666849
 0.0628135 0.0595165 0.0582775 0.05948577 0.06235519 0.06557956 0.06813011 0.06930898 0.06857337 0.06600152
 0.06275453 0.06051458 0.06045044 0.0627597 0.06662819 0.07030016 0.07187361 0.07070532 0.0678397 0.06489961
 0.06301466 0.06282508 0.06463918 0.06810987 0.07221539 0.07585908 0.07832108 0.07931902 0.0790579 0.07810364
 0.07695653 0.07596941 0.07564779 0.07633871 0.0774203 0.07753681 0.07607146 0.07396596 0.07275166 0.07296622
 0.07372135 0.07378484 0.07283119 0.07125022 0.06892866 0.06521907 0.06042185 0.0561884 0.0538697 0.05348372
 0.05470074 0.05737582 0.06038542 0.06154326 0.059989 0.05773312 0.05766352 0.06046353 0.06424849 0.06686741
 0.06789212 0.06848885 0.06990761 0.07220091 0.07404917 0.07376145 0.07096063 0.06753231 0.06629226 0.06822181
 0.07152043 0.07381366 0.0746531 0.07526748 0.07641809 0.07722934 0.07610106 0.07260405 0.06852124 0.06676133
 0.06883061 0.07332644 0.07695132 0.07696153 0.0730193 0.06727441 0.06268159 0.060953 0.06208459 0.06546904
 0.07056727 0.07633926 0.08097453 0.08290522 0.0819546 0.0792342 0.07587877 0.07200454 0.06731421 0.06283212
 0.06111689 0.06384433 0.06966749 0.07533804 0.07860725 0.07935324 0.07832001 0.0757295 0.07148153 0.0664771
 0.06306143 0.06321155 0.06616555 0.06884676 0.06908606 0.06760003 0.066421 0.06635499 0.06667737 0.06668285
 0.06668834 0.06748219 0.06919685 0.07100227 0.07190953 0.07167308 0.07083558 0.07008816 0.06964578 0.06909898
 0.06799303 0.06673053 0.06653838 0.06812868 0.07072089 0.07284245 0.07380863 0.07398024 0.07379083 0.0729959
 0.07104091 0.06811338 0.06558113 0.06498145 0.06653246 0.06899391 0.07096106 0.07187603 0.07189547 0.07138675
 0.07067981 0.06995317 0.06928302 0.06888139 0.06905332 0.06976525 0.07053249 0.0709076 0.07085431 0.07053848
 0.07000658 0.0692313 0.06833626 0.06762135 0.06735012 0.06754613 0.06801548 0.06852543 0.06889176 0.0689534
 0.06863429 0.06805779 0.06746528 0.06699468 0.0666424 0.06642302 0.06641524 0.0666189 0.06688513 0.06704401
 0.0670404 0.06691321 0.06670102 0.06641488 0.06607716 0.06574998 0.06552157 0.06545175 0.06550822 0.06558113
 0.06560025 0.06560285 0.06563509 0.06563597 0.06550103 0.06523243 0.06494962 0.06476192 0.06468353 0.06466047
 0.06462559 0.06451286 0.06426001 0.06385922 0.06342413 0.06315074 0.06315988 0.06340209 0.06373537 0.06404047
 0.06424178 0.06430127 0.06424579 0.06414695 0.06403741 0.06388323 0.06365588 0.0634034 0.06323755 0.06324891
 0.06342319 0.0636477 0.06381069 0.06387478 0.06385798 0.06379977 0.06375676 0.06376596 0.06379004 0.06375044
 0.06363054 0.06350382 0.06345022 0.06347226 0.06349914 0.06346427 0.0633771 0.06331012 0.06331214 0.0633584
 0.06339592 0.06340801 0.06341535 0.06343133 0.06343091 0.06336553 0.06321889 0.06304184 0.06290761 0.06283665
 0.0627969 0.06276923 0.06277055 0.06280874 0.06285021 0.06284738 0.06278679 0.06269972 0.06262225 0.06254981
 0.0624459 0.06229661 0.0621363 0.06201039 0.06192902 0.06186627 0.06179198 0.06169441 0.06157824 0.06145082
 0.06131513 0.06117211 0.06102303 0.06087208 0.06073481 0.06063746 0.06059118 0.06056521 0.06050193 0.06036845
 0.06018988 0.0600256 0.05991188 0.05983284 0.05975035 0.05965217 0.05955774 0.05948537 0.0594342 0.05939591
 0.05936509 0.05933878 0.05932514 0.05935406 0.0594577 0.05962896 0.05981122 0.05994322 0.06001177 0.06005375
 0.06011365 0.0602089 0.06033059 0.06046399 0.06060786 0.06077546 0.06096797 0.06114991 0.06127512 0.06134313
 0.0614064 0.06151538 0.06167926 0.06187863 0.0620829 0.06225114 0.06235333 0.06240644 0.06246648 0.06257245
 0.06271462 0.06286253 0.06300505 0.06315114 0.06330594 0.06346354 0.06362408 0.0638048 0.06402522 0.06428206
 0.06454292 0.06476879 0.06494893 0.0651167 0.06532678 0.06560905 0.06594226 0.06627285 0.06656007 0.06680575
 0.0670433 0.06729906 0.06757072 0.06784774 0.06814012 0.0684673 0.06882466 0.06918402 0.06952829 0.06986547
 0.07020685 0.07055047 0.07089184 0.07123757 0.07160103 0.07198657 0.07237822 0.0727443 0.07306005 0.07332972
 0.07358661 0.07387196 0.07420819 0.07457766 0.07492417 0.07519531 0.07539862 0.07560111 0.0758566 0.07614829
 0.07642319 0.07666896 0.07692534 0.07722123 0.07753241 0.07781462 0.07805806 0.07829154 0.07854125 0.07879807
 0.07902367 0.0791854 0.07928974 0.0793816 0.07950541 0.07967244 0.07987512 0.08011721 0.08040401 0.08070883
 0.08097988 0.08118526 0.08133249 0.08144699 0.08155259 0.08167028 0.08181323 0.08197877 0.08215244 0.08231553
 0.08244896 0.08255072 0.08265497 0.08281003 0.08302741 0.08327531 0.08353136 0.08381292 0.08413796 0.0844828
 0.08480953 0.08512165 0.08545673 0.08582108 0.08616446 0.08643523 0.08663467 0.08679816 0.08695048 0.08710872
 0.08730811 0.08758491 0.08793519 0.08831562 0.08868506 0.08902881 0.08934648 0.08963458 0.08988468 0.09009111
 0.09025721 0.09039526 0.09052248 0.09065984 0.09082943 0.09103903 0.09126501 0.09146194 0.09159354 0.09164475
 0.09160572 0.09146779 0.09124793 0.09099638 0.09075369 0.09050228 0.09017745 0.08972572 0.08913962 0.08843884
 0.0876393 0.08675273 0.08580908 0.08486818 0.08400598 0.0832898 0.082767 0.08247438 0.08244435 0.0826821
 0.08313244 0.08368214 0.08419885 0.08456174 0.08466817 0.08445038 0.08391058 0.08312613 0.08220398 0.08123303
 0.08027588 0.07937503 0.07854759 0.07779519 0.07714769 0.07669438 0.07655998 0.07685488 0.07765051 0.07897042
 0.08076255 0.08286968 0.08505636 0.08709946 0.0888733 0.09036408 0.09162568 0.09273259 0.09375063 0.09471284
 0.09561072 0.09642143 0.09714359 0.09779577 0.09838644 0.09890206 0.0993209 0.09962605 0.09981387 0.09990349
 0.09993318 0.09993805 0.0999383 0.09994923 0.09998171 0.1000188 0.1000029 0.09985831 0.09952865 0.09900291
 0.09833059 0.09763512 0.09712666 0.09708892 0.09779619 0.09936389 0.1016388 0.1042491 0.1067891 0.1089844
 0.1107345 0.1120685 0.1130838 0.1138925 0.1145819 0.115202 0.1157779 0.1163223 0.1168403 0.1173327
 0.1178034 0.1182631 0.1187255 0.1191959 0.1196637 0.1201115 0.1205348 0.1209486 0.1213748 0.1218229
 0.1222815 0.1227277 0.1231503 0.1235639 0.123989 0.124421 0.1248337 0.1252128 0.1255721 0.1259381
 0.126331 0.1267543 0.127189 0.127599 0.1279591 0.1282769 0.1285836 0.1289062 0.1292507 0.129608
 0.1299667 0.1303203 0.1306657 0.1310044 0.1313447 0.1316956 0.132049 0.1323786 0.132667 0.1329285
 0.1331989 0.1335034 0.1338357 0.134167 0.1344765 0.134775 0.1350943 0.1354495 0.1358192 0.1361675
 0.1364777 0.1367627 0.1370486 0.1373546 0.1376833 0.1380232 0.1383598 0.1386851 0.1389993 0.1393079
 0.139616 0.1399258 0.1402352 0.1405403 0.140839 0.1411318 0.141423 0.1417181 0.142022 0.1423399
 0.1426752 0.1430215 0.1433588 0.1436644 0.1439315 0.1441735 0.1444108 0.1446581 0.1449225 0.1452036
 0.1454946 0.1457878 0.1460803 0.1463737 0.1466697 0.1469668 0.147263 0.1475594 0.1478605 0.148169
 0.1484815 0.1487907 0.1490921 0.1493873 0.1496817 0.1499776 0.1502718 0.1505594 0.1508408 0.1511211
 0.1514032 0.1516877 0.1519767 0.152274 0.1525771 0.1528781 0.1531709 0.1534566 0.1537401 0.1540246
 0.1543099 0.154595 0.1548829 0.155177 0.1554734 0.1557632 0.1560441 0.1563234 0.1566072 0.1568929
 0.1571752 0.1574525 0.1577266 0.1580004 0.158279 0.1585674 0.1588664 0.1591698 0.1594682 0.159755
 0.1600294 0.1602939 0.160553 0.1608147 0.1610864 0.1613662 0.1616456 0.1619207 0.1621943 0.1624685
 0.1627431 0.1630201 0.1633036 0.163596 0.1638964 0.1641997 0.1644975 0.1647847 0.1650626 0.1653366
 0.1656112 0.1658899 0.1661713 0.1664485 0.1667178 0.1669848 0.167257 0.1675338 0.1678076 0.1680715
 0.1683252 0.1685751 0.1688287 0.1690897 0.16936 0.1696421 0.1699334 0.170224 0.170507 0.170785
 0.1710627 0.1713423 0.1716249 0.1719098 0.1721939 0.1724767 0.1727594 0.1730391 0.173315 0.1735937
 0.1738805 0.1741704 0.1744565 0.1747376 0.1750149 0.1752933 0.1755814 0.175879 0.1761718 0.176451
 0.1767232 0.1769969 0.1772736 0.177554 0.1778375 0.17812 0.1784004 0.1786791 0.1789517 0.1792157
 0.1794802 0.1797533 0.1800315 0.1803099 0.1805887 0.180867 0.1811444 0.1814245 0.1817045 0.1819762
 0.1822436 0.1825206 0.1828063 0.183087 0.1833553 0.1836125 0.1838641 0.1841221 0.1843901 0.1846417
 0.1848195 0.1848103 0.184349 0.1829032 0.179647 0.1736126 0.1640667 0.1509637 0.1351246 0.1179496
 0.1008971 0.08509258 0.07120836 0.05954719 0.05019141 0.04309674 0.03814322 0.03522472 0.03435036 0.0357536
 0.0400091 0.04769049 0.05809049 0.06809469 0.07339504 0.07188376 0.06566252 0.05912614 0.05531561 0.05445181
 0.05524095 0.05657458 0.05810218 0.06002982 0.06270479 0.06621395 0.07037253 0.0751637 0.08095077 0.08801099
 0.0959791 0.1040033 0.1114821 0.1185299 0.1256896 0.1332709 0.1410256 0.1483924 0.1549455 0.1606062
 0.165553 0.170024 0.1741844 0.1781141 0.181854 0.1854024 0.1886371 0.1912889 0.1930733 0.1939032
 0.1939908 0.1937342 0.1934892 0.1934272 0.1935656 0.1938699 0.1943117 0.1948748 0.1955501 0.1963222
 0.1971553 0.1980039 0.1988354 0.1996336 0.2003903 0.201105 0.2017817 0.2024172 0.2030019 0.2035334
 0.2040184 0.2044636 0.2048728 0.2052511 0.2056069 0.2059509 0.2062915 0.2066272 0.2069471 0.2072424
 0.2075125 0.2077591 0.2079845 0.2081968 0.2084086 0.2086282 0.2088542 0.209078 0.2092913 0.2094955
 0.2097021 0.2099211 0.2101497 0.210377 0.2105948 0.2107999 0.210994 0.2111846 0.2113818 0.2115889
 0.2118012 0.2120123 0.212217 0.2124137 0.2126066 0.2128028 0.2130055 0.2132129 0.2134238 0.2136371
 0.2138527 0.2140733 0.2143011 0.2145324 0.2147625 0.2149925 0.2152219 0.215444 0.2156574 0.2158705
 0.2160843 0.2162844 0.2164605 0.2166258 0.2168099 0.2170337 0.2172891 0.2175449 0.2177761 0.2179867
 0.2181954 0.2184101 0.218622 0.2188183 0.2190006 0.2191962 0.2194399 0.2197331 0.2200378 0.2203223
 0.2205863 0.2208379 0.22108 0.2213251 0.2215821 0.2218265 0.2220187 0.2221666 0.2223447 0.2226331
 0.2230346 0.2234606 0.2238129 0.2240752 0.224305 0.2245616 0.2248663 0.2251902 0.225437 0.2255059
 0.2254407 0.225458 0.2257517 0.226302 0.2269253 0.2274638 0.2278824 0.2282251 0.2285333 0.2287989
 0.2289724 0.2290223 0.229006 0.2290784 0.2293844 0.2299119 0.2304919 0.2309686 0.2313193 0.2315924
 0.231822 0.2320262 0.2321708 0.232114 0.2317561 0.2313069 0.2312329 0.2318067 0.2327981 0.2337171
 0.2342973 0.2346366 0.2349245 0.23521 0.2354482 0.2355444 0.2352544 0.2343228 0.2329779 0.2320703
 0.2323743 0.2338101 0.2355794 0.2369612 0.2377678 0.2381739 0.2384118 0.2386169 0.2387255 0.2384698
 0.2376758 0.2366705 0.2362078 0.2367696 0.238024 0.239184 0.2398152 0.2400695 0.240265 0.2405269
 0.2407036 0.2403306 0.2388952 0.2365896 0.2346924 0.2346763 0.2367727 0.2396957 0.2419131 0.2429642
 0.2433544 0.2434382 0.242892 0.2412986 0.2387748 0.2359272 0.2336706 0.2331035 0.2347813 0.2378063
 0.2403299 0.2413695 0.2416398 0.2423588 0.243792 0.2452377 0.2459529 0.2457347 0.2448018 0.2433928
 0.2416517 0.2400014 0.2393638 0.240506 0.2431048 0.245868 0.2477288 0.2486523 0.2490664 0.2486097
 0.2458812 0.2401199 0.2333139 0.2296607 0.2318607 0.2382879 0.2447405 0.2485813 0.2501814 0.2509371
 0.2513971 0.2511176 0.2489126 0.2434932 0.235491 0.2287428 0.2277031 0.2330408 0.2408831 0.2464332
 0.2472517 0.2435255 0.2371927 0.2313539 0.229012 0.2312528 0.2367708 0.243165 0.2483826 0.2512689
 0.2515514 0.2497416 0.2470944 0.2452936 0.2452395 0.245723 0.2443341 0.2405023 0.2364475 0.2339173
 0.2314718 0.2271419 0.2227492 0.2227049 0.2282837 0.2355085 0.239621 0.2399001 0.238824 0.2375453
 0.2339087 0.2255494 0.2143655 0.2066042 0.2073898 0.2154086 0.2240882 0.2280254 0.2272711 0.2254068
 0.2247514 0.2240172 0.2201759 0.2124258 0.2041581 0.2001076 0.2013365 0.2042813 0.2049678 0.2022227
 0.1963168 0.1876073 0.1786864 0.1752025 0.1810894 0.1936977 0.2058641 0.2118291 0.2093661 0.1984362
 0.1818286 0.1667274 0.1612592 0.1672758 0.1781549 0.1849163 0.1833549 0.1747731 0.1621145 0.147905
 0.1354299 0.1291016 0.1317805 0.1418809 0.1535683 0.1597575 0.1560049 0.1438691 0.1310724 0.1259449
 0.1299307 0.1366725 0.1391621 0.136085 0.1308052 0.1269237 0.1261551 0.1281928 0.1310967 0.1330599
 0.1338599 0.1329645 0.1275775 0.1160774 0.1027593 0.09506872 0.09583521 0.1017671 0.1094773 0.1184929
 0.1273352 0.1314463 0.1283443 0.1224204 0.1212603 0.1276129 0.1369951 0.1431226 0.1441303 0.1429674
 0.1427897 0.143494 0.1433983 0.1431199 0.1456622 0.1523012 0.1603416 0.1660967 0.1686906 0.1697406
 0.1705847 0.1712646 0.1714427 0.1709944 0.169966 0.1686815 0.1676356 0.1669284 0.1661642 0.1650269
 0.1632852 0.1599742 0.153615 0.1443842 0.1354793 0.1306451 0.130253 0.131519 0.1325712 0.1335772
 0.1330621 0.1267879 0.1133499 0.09881237 0.0922987 0.09718816 0.1086335 0.1191352 0.1243116 0.1232753
 0.116362 0.1052467 0.09478734 0.09156559 0.09853783 0.1122007 0.1263476 0.1373893 0.1447435 0.1479208
 0.1459916 0.1398272 0.1329922 0.1297529 0.1325232 0.1407632 0.1510711 0.1579629 0.1565381 0.1473948
 0.1389864 0.1413929 0.1556163 0.1717944 0.1802664 0.1814213 0.1817731 0.1838298 0.1848252 0.1839182
 0.1851059 0.1917124 0.2014423 0.2086074 0.2091188 0.202108 0.1893622 0.1756892 0.1677089 0.1686491
 0.1748115 0.1796885 0.1803173 0.1769634 0.1692758 0.1578697 0.14844 0.1483675 0.1581727 0.1704323
 0.1782298 0.1814833 0.183908 0.1865675 0.1865561 0.1813979 0.1731695 0.1672335 0.1669184 0.1705701
 0.1743062 0.1760913 0.1758095 0.1729773 0.1670324 0.1598752 0.1558866 0.1581553 0.1653201 0.1728771
 0.1772353 0.1779841 0.1768151 0.1753598 0.1741027 0.1725314 0.1702198 0.1682241 0.1688786 0.1732563
 0.1793683 0.1841607 0.1869974 0.189873 0.194289 0.1991789 0.2021946 0.2022644 0.2006243 0.1997566
 0.2013884 0.2050858 0.2085566 0.2096038 0.2082141 0.2067601 0.2078163 0.211704 0.2164573 0.2200458
 0.222036 0.2231609 0.2241025 0.2249087 0.224972 0.2234958 0.2206305 0.2181459 0.2181967 0.2212049
 0.2254607 0.2288784 0.2306608 0.2312253 0.2311154 0.2304055 0.2290162 0.2272416 0.2257469 0.2250598
 0.2252007 0.2258313 0.2266085 0.2273337 0.2279207 0.2283635 0.2287033 0.2289686 0.2291691 0.2293329
 0.2294824 0.2295744 0.2295443 0.2294331 0.2293951 0.229529 0.2297518 0.2298888 0.2298359 0.2295584
 0.2289857 0.2280305 0.2267202 0.2251991 0.2235619 0.2217843 0.2199135 0.2182882 0.2174446 0.2177179
 0.2189375 0.2205389 0.2219579 0.2229137 0.2234023 0.2235516 0.2235233 0.2234659 0.2234697 0.2235434
 0.2236501 0.2237698 0.2239173 0.2241078 0.2243312 0.224575 0.224853 0.2251909 0.2255889 0.2260124
 0.2264163 0.226771 0.227072 0.2273331 0.2275639 0.2277497 0.2278509 0.227827 0.227665 0.2273917
 0.2270594 0.2267125 0.2263556 0.2259464 0.2254243 0.2247469 0.2238862 0.222803 0.2214679 0.2199297
 0.2183215 0.2167624 0.215274 0.2138084 0.2123214 0.2107921 0.2092081 0.2075688 0.2058911 0.2041922
 0.2024779 0.2007503 0.1990159 0.1972778 0.1955307 0.1937654 0.1919747 0.1901517 0.1882885 0.1863731
 0.1843772 0.1822369 0.1798522 0.1771192 0.1739643 0.1703525 0.1662911 0.1618518 0.1571793 0.1524573
 0.1478545 0.1434977 0.1394786 0.1358739 0.1327546 0.130177 0.1281704 0.1267404 0.125877 0.1255541
 0.1257363 0.1263939 0.1274915 0.1289506 0.1306393 0.1324084 0.1341291 0.1357102 0.1371159 0.1383852
 0.1396107 0.140873 0.1421833 0.1434906 0.1447371 0.1458934 0.1469436 0.1478675 0.1486585 0.1493415
 0.1499547 0.1505292 0.1510958 0.151688 0.1523216 0.1529841 0.1536497 0.1542968 0.1549111 0.1554865
 0.1560288 0.1565599 0.157117 0.1577401 0.1584549 0.1592682 0.1601739 0.1611553 0.1621942 0.1632857
 0.1644342 0.1656337 0.1668753 0.168179 0.1695904 0.1711367 0.1727997 0.1745333 0.1762866 0.17801
 0.1796549 0.1811776 0.1825474 0.1837501 0.1847826 0.1856449 0.1863476 0.1869218 0.1874112 0.1878553
 0.188284 0.1887112 0.189125 0.1894921 0.1897751 0.1899442 0.1899878 0.189931 0.1898315 0.1897421
 0.189683 0.1896554 0.1896668 0.189733 0.1898594 0.190023 0.1901741 0.1902616 0.1902607 0.1901759
 0.1900236 0.1898123 0.189529 0.1891409 0.1886176 0.1879528 0.1871599 0.1862542 0.1852426 0.184121
 0.1828795 0.1815194 0.1800572 0.1785073 0.1768748 0.175167 0.1733947 0.1715614 0.1696805 0.1678055
 0.1660151 0.1643599 0.1628321 0.1613835 0.1599626 0.1585447 0.1571387 0.1557654 0.1544355 0.153152
 0.1519226 0.1507546 0.1496487 0.1486056 0.1476376 0.1467704 0.1460325 0.145429 0.1449219 0.1444514
 0.1439824 0.1435253 0.1431228 0.1428278 0.1426745 0.1426463 0.1426754 0.1426843 0.1426277 0.1425027
 0.1423382 0.1421748 0.1420424 0.1419489 0.141875 0.1417679 0.1415475 0.1411368 0.1404836 0.1395568
 0.1383479 0.1368882 0.13525 0.1335267 0.1318239 0.1302531 0.1288991 0.1277931 0.1269183 0.1262309
 0.1256741 0.1251981 0.1247903 0.1244889 0.1243551 0.1244007 0.1245262 0.1245702 0.1244608 0.1242993
 0.1242681 0.1244753 0.1248947 0.1254122 0.1259036 0.126294 0.126568 0.1267354 0.1268075 0.1268001
 0.1267235 0.1265714 0.1263438 0.1260637 0.125751 0.1254027 0.1250105 0.1245679 0.1240582 0.1234675
 0.1227976 0.1220505 0.1212224 0.1203113 0.1193002 0.1181627 0.1169528 0.1158661 0.1151512 0.1149518
 0.1152287 0.1157969 0.1164488 0.1170785 0.1176496 0.1180391 0.1180681 0.117811 0.1177565 0.1184623
 0.1200191 0.1219429 0.1236015 0.1246597 0.1251076 0.1250272 0.1244814 0.1235424 0.1222599 0.1206225
 0.1186439 0.1164213 0.1140546 0.1116167 0.1092286 0.1070439 0.1051613 0.103621 0.1024279 0.1016047
 0.1012432 0.1010269 0.09940828 0.09441108 0.08666579 0.08078058 0.08149092 0.08835955 0.09607409 0.1000749
 0.100203 0.09885857 0.09770657 0.09699191 0.0966108 0.09666008 0.09724151 0.09824985 0.09937535 0.1002906
 0.1008633 0.1011174 0.100994 0.1001926 0.09815072 0.0942212 0.08819 0.08075905 0.07332021 0.06714393
 0.06281097 0.06022953 0.05890496 0.05822849 0.05778357 0.0575313 0.05770626 0.05853002 0.06002741 0.06208309
 0.06456949 0.06730551 0.06994623 0.07211985 0.07372567 0.07494902 0.07595243 0.07669339 0.07705487 0.07700928
 0.07662563 0.07601658 0.07530287 0.07456446 0.07378881 0.07289176 0.07184558 0.07080261 0.07002118 0.06962491
 0.06950534 0.06948915 0.06949615 0.06950463 0.06948891 0.06944765 0.06942214 0.06947312 0.06967044 0.07005282
 0.07055545 0.07103302 0.07138178 0.07160445 0.07176425 0.07188742 0.07188433 0.07162303 0.07115951 0.07077154
 0.07059918 0.07038333 0.06979112 0.06891724 0.0682366 0.0680939 0.0684088 0.06884997 0.06914061 0.06919552
 0.0691175 0.06914385 0.0694892 0.07010302</values></Ydata></ScSm><ScRf><Ydata ylabel="Single channel"><values byteorder="INTEL" format="FLOAT32" numvalues="1820"> 0.06042557 0.06058141 0.06067837 0.06071416 0.06070991 0.06071102 0.06077003 0.06091139 0.06110942 0.06130302
 0.06143885 0.06150538 0.06152114 0.0614985 0.06144512 0.06140131 0.06143574 0.06158031 0.06178353 0.06194181
 0.06198101 0.06192369 0.06188015 0.06194093 0.06205605 0.0620461 0.06177057 0.0612876 0.06081862 0.06054491
 0.06049253 0.06065527 0.06110388 0.06178441 0.06228723 0.06213544 0.06138021 0.06063313 0.06039042 0.06055927
 0.06073604 0.06067487 0.06036532 0.05994819 0.0597646 0.06026206 0.0615531 0.06305427 0.06369978 0.06261655
 0.05974621 0.05604149 0.05311525 0.05237637 0.05403654 0.05682518 0.058943 0.05949675 0.05892819 0.05810694
 0.0573955 0.05675653 0.05635326 0.05658474 0.0575308 0.05857737 0.0587319 0.05747217 0.05537208 0.05369878
 0.05325819 0.05388737 0.05513098 0.05673493 0.05796037 0.05719253 0.05353071 0.04879957 0.04673461 0.04943182
 0.05511163 0.05986089 0.06111252 0.05907869 0.05561288 0.0526732 0.05158509 0.05268299 0.05525103 0.05812033
 0.06037774 0.06140539 0.06072558 0.05841891 0.05552705 0.05354306 0.05349704 0.05556147 0.05901395 0.06228947
 0.06368813 0.06263481 0.06006429 0.05742955 0.05574372 0.05558217 0.05722073 0.0603466 0.06404237 0.06732142
 0.06953186 0.07041746 0.07016913 0.06930828 0.0682922 0.06743169 0.06716272 0.0677797 0.06872199 0.06878958
 0.06745423 0.06557472 0.06451596 0.06473784 0.06542775 0.06548129 0.06461658 0.06318963 0.06109872 0.05776337
 0.05345701 0.04966319 0.04759248 0.04726459 0.04839404 0.05085253 0.05361507 0.05469973 0.05332956 0.05131404
 0.05124563 0.05373634 0.05710324 0.05943259 0.06035176 0.06090507 0.06220129 0.06427497 0.06593808 0.06567796
 0.06316543 0.06010336 0.05902384 0.06079854 0.06379613 0.0658844 0.06667782 0.06729139 0.06839673 0.06918156
 0.06819746 0.06507998 0.06146733 0.05998474 0.06195699 0.06608343 0.06938224 0.06939237 0.06582826 0.06065163
 0.05654762 0.05506587 0.05620058 0.05941123 0.0642197 0.06967505 0.07410838 0.0760619 0.07534464 0.07295994
 0.06995933 0.06646622 0.06221618 0.0581754 0.05674722 0.05950328 0.06517136 0.07069262 0.07395191 0.07483621
 0.07404153 0.07175892 0.06787641 0.06326558 0.06020776 0.06061914 0.06374256 0.06657478 0.06701122 0.06576463
 0.06482475 0.06497441 0.06549671 0.06570637 0.06594035 0.06699555 0.06899306 0.07108212 0.07225865 0.07226947
 0.07166003 0.07113846 0.07093066 0.07061166 0.06971231 0.06866647 0.06875837 0.07071225 0.07369165 0.07615749
 0.07740881 0.07783486 0.0778862 0.07728679 0.07543639 0.0725442 0.07009448 0.06974649 0.07172641 0.07468157
 0.07708339 0.07832918 0.07860139 0.0783091 0.07780738 0.07728411 0.07682796 0.07668005 0.07716954 0.07824223
 0.07935444 0.08001746 0.08019723 0.08007079 0.07968014 0.07900515 0.07821286 0.07765728 0.07762404 0.07811747
 0.07890815 0.07973705 0.08040312 0.08072254 0.08059652 0.08015585 0.07968432 0.07935919 0.07918683 0.07918043
 0.07942253 0.07990484 0.08044662 0.08084536 0.08103801 0.08107824 0.08102292 0.08088877 0.08069161 0.08049655
 0.08041829 0.08053936 0.08081031 0.08108412 0.08128841 0.08149587 0.08176485 0.08199053 0.08201518 0.08184131
 0.08163916 0.08156022 0.08161651 0.08173048 0.08182387 0.08182687 0.081663 0.08131626 0.08092757 0.08074398
 0.08092044 0.08140799 0.08204203 0.08266118 0.08313379 0.08338453 0.08345008 0.08343796 0.083398 0.08328898
 0.08308391 0.08286145 0.08277652 0.08294585 0.08334618 0.08382328 0.08421366 0.08444814 0.08455123 0.08460283
 0.0847047 0.08490113 0.08510654 0.08518299 0.08511359 0.08503453 0.08507195 0.08519715 0.08527249 0.08521768
 0.08510457 0.08508137 0.0852163 0.08544037 0.08564322 0.08579342 0.08594759 0.08615524 0.0863688 0.08646391
 0.08637081 0.08617064 0.08601697 0.08597341 0.08598977 0.08603156 0.08614537 0.08636238 0.08660425 0.08674756
 0.08676229 0.08673848 0.08676907 0.08683911 0.0868511 0.08674141 0.08654707 0.08636753 0.0862854 0.08631802
 0.08641586 0.08649775 0.08650373 0.08642907 0.08631231 0.08619545 0.0861012 0.08604947 0.0860825 0.08624408
 0.0865101 0.08675219 0.08681112 0.08663552 0.08634178 0.08611575 0.08604589 0.08605716 0.08600556 0.08582138
 0.08555354 0.08529671 0.08510422 0.0849705 0.08486807 0.08478567 0.08474313 0.08478051 0.0849141 0.08508302
 0.08516 0.08505385 0.08480105 0.0845314 0.08435049 0.08427653 0.08426726 0.08427016 0.08426303 0.08427507
 0.08434722 0.08445349 0.08450259 0.08444384 0.08433151 0.08426516 0.08430809 0.08446684 0.08468787 0.08486033
 0.08488789 0.08478776 0.08467855 0.08465544 0.08471314 0.08479567 0.0848746 0.08495656 0.08504815 0.08514884
 0.0852709 0.08544039 0.08566847 0.0859277 0.08616194 0.08632436 0.08641684 0.08650014 0.08665614 0.0869237
 0.08726451 0.08759342 0.08784702 0.08802934 0.08819406 0.08838214 0.08858591 0.08878438 0.08899461 0.08925675
 0.08957472 0.08990689 0.09021711 0.09050618 0.09078982 0.09107304 0.09135576 0.09165247 0.09199554 0.09240653
 0.09285093 0.09323667 0.09348702 0.09361839 0.09373239 0.09393585 0.09426742 0.09466857 0.0950111 0.09519537
 0.09525548 0.09533729 0.09554221 0.09582627 0.09608872 0.09632324 0.09662169 0.09703746 0.09749869 0.09787622
 0.09811109 0.09825807 0.09841332 0.09861167 0.09880103 0.09891915 0.09897946 0.09905596 0.09919208 0.09936953
 0.09957781 0.09985942 0.1002451 0.1006811 0.1010677 0.1013523 0.1015511 0.1016989 0.1018137 0.1018984
 0.1019479 0.1019663 0.101988 0.1020554 0.1021637 0.1022558 0.1022955 0.1023157 0.102377 0.1025071
 0.1027058 0.1029735 0.1032958 0.1036207 0.1039023 0.1041685 0.1044908 0.1048678 0.1051889 0.1053521
 0.1053815 0.105382 0.1054101 0.1054543 0.1055224 0.1056718 0.1059347 0.1062695 0.1066125 0.1069443
 0.1072828 0.1076306 0.1079486 0.1081777 0.108281 0.1082757 0.1082303 0.1082333 0.1083513 0.1085976
 0.1089249 0.1092544 0.1095244 0.1097085 0.1097949 0.1097813 0.1097149 0.1097006 0.1098167 0.1100209
 0.1101727 0.1101543 0.1099441 0.1095767 0.1090781 0.1084647 0.1077848 0.1071268 0.1065794 0.1061908
 0.1059746 0.105949 0.1061527 0.1066008 0.1072326 0.1079276 0.1085742 0.1090958 0.1094116 0.1094266
 0.1091004 0.1085036 0.1077763 0.1070423 0.1063696 0.1057718 0.1052151 0.1046594 0.1041396 0.1038034
 0.1038422 0.1043768 0.1053994 0.106783 0.10832 0.1097843 0.1110178 0.1119924 0.112787 0.1134962
 0.1141666 0.1148137 0.115462 0.1161278 0.1167761 0.1173435 0.1178107 0.1182201 0.1186166 0.1190015
 0.1193456 0.1196258 0.119848 0.1200494 0.1202618 0.1204608 0.1205742 0.1205629 0.1204659 0.1203489
 0.120229 0.1200662 0.1198085 0.1194362 0.1189922 0.1185982 0.1184333 0.1186613 0.119341 0.1203885
 0.1216367 0.1229385 0.1242047 0.1253572 0.1262986 0.1269674 0.127399 0.1276986 0.1279632 0.1282414
 0.1285433 0.1288587 0.1291685 0.1294597 0.1297363 0.1300173 0.130324 0.1306625 0.1310084 0.1313193
 0.1315748 0.1318057 0.1320734 0.132412 0.1327926 0.1331538 0.1334699 0.1337736 0.1340975 0.1344162
 0.1346741 0.1348611 0.135029 0.1352396 0.1355227 0.1358733 0.1362513 0.1365879 0.136829 0.136984
 0.1371157 0.1372817 0.1374988 0.1377547 0.1380318 0.1383134 0.1385859 0.138849 0.1391208 0.1394159
 0.139714 0.1399657 0.1401416 0.1402696 0.1404097 0.1405955 0.1408099 0.1410168 0.141208 0.1414165
 0.1416844 0.1420122 0.1423439 0.1426093 0.1427834 0.1429015 0.1430217 0.14318 0.1433777 0.143596
 0.1438156 0.1440256 0.1442247 0.1444216 0.1446283 0.1448488 0.1450748 0.1452954 0.1455089 0.1457203
 0.1459295 0.1461302 0.1463255 0.146538 0.1467949 0.1470951 0.1473969 0.1476473 0.1478247 0.1479506
 0.1480646 0.1481952 0.1483511 0.1485299 0.1487286 0.1489436 0.1491648 0.1493791 0.1495809 0.1497761
 0.1499723 0.1501727 0.1503785 0.1505906 0.1508076 0.1510271 0.1512482 0.1514686 0.1516809 0.1518779
 0.1520618 0.152245 0.1524397 0.152646 0.1528508 0.1530412 0.1532187 0.1533966 0.1535834 0.1537766
 0.1539686 0.1541553 0.1543395 0.1545285 0.1547272 0.1549325 0.1551382 0.1553422 0.1555475 0.1557575
 0.1559708 0.1561795 0.1563736 0.1565524 0.1567276 0.1569116 0.1571064 0.1573082 0.157514 0.1577207
 0.1579246 0.1581239 0.1583198 0.1585148 0.1587124 0.1589153 0.1591224 0.1593288 0.1595288 0.1597188
 0.1599013 0.1600875 0.1602882 0.1605039 0.1607258 0.1609465 0.1611629 0.1613726 0.1615748 0.1617732
 0.1619736 0.1621794 0.1623904 0.162605 0.1628227 0.1630449 0.1632717 0.1634991 0.1637202 0.163927
 0.1641131 0.1642802 0.1644388 0.1645983 0.1647623 0.1649349 0.1651219 0.1653213 0.1655231 0.1657186
 0.1659056 0.1660861 0.1662664 0.1664536 0.16665 0.1668533 0.1670629 0.167278 0.1674935 0.1677047
 0.1679117 0.1681184 0.1683301 0.1685502 0.168773 0.1689852 0.1691816 0.16937 0.1695596 0.1697559
 0.1699634 0.1701835 0.1704106 0.1706388 0.1708663 0.1710894 0.1713028 0.1715042 0.1716958 0.171883
 0.172074 0.1722727 0.1724755 0.1726819 0.172898 0.173122 0.1733413 0.1735518 0.1737625 0.1739785
 0.1741969 0.1744139 0.1746258 0.1748316 0.1750395 0.1752548 0.1754683 0.1756726 0.1758776 0.1760928
 0.1763135 0.1765338 0.1767499 0.1769428 0.1770694 0.1770266 0.1765535 0.1751233 0.1719284 0.1660393
 0.1567689 0.144096 0.1288201 0.1122818 0.09587217 0.08066787 0.0673175 0.05611587 0.04714108 0.04034393
 0.03560064 0.03280331 0.03196119 0.03330466 0.037389 0.04475828 0.05472297 0.06429332 0.06934613 0.0678692
 0.06188045 0.05559406 0.05192799 0.05109575 0.05185396 0.05313409 0.0545979 0.0564462 0.05901352 0.06237785
 0.0663567 0.07093681 0.07647217 0.08322789 0.09085003 0.09852293 0.1056725 0.1124054 0.1192347 0.1264563
 0.1338409 0.1408632 0.1471178 0.1525186 0.1572261 0.1614717 0.1654269 0.1691741 0.172748 0.1761406
 0.1792306 0.1817544 0.1834355 0.1841961 0.1842543 0.1840014 0.1837707 0.1837066 0.1838126 0.1840628
 0.1844469 0.1849577 0.1855812 0.1862957 0.1870697 0.1878699 0.1886721 0.1894567 0.1902038 0.1909024
 0.1915506 0.1921442 0.1926791 0.1931632 0.1936118 0.1940342 0.1944327 0.1948081 0.1951611 0.1954959
 0.1958226 0.1961461 0.1964557 0.1967357 0.1969829 0.1972058 0.1974168 0.1976265 0.1978413 0.1980593
 0.1982745 0.1984827 0.1986846 0.1988851 0.1990912 0.1993051 0.1995227 0.1997388 0.19995 0.2001514
 0.2003372 0.2005105 0.2006835 0.2008682 0.2010673 0.2012728 0.2014718 0.2016573 0.2018339 0.2020112
 0.202194 0.2023831 0.2025782 0.2027764 0.2029753 0.2031804 0.2033978 0.2036214 0.2038389 0.204048
 0.2042557 0.2044638 0.2046708 0.2048781 0.2050832 0.2052726 0.2054374 0.2055915 0.205764 0.2059709
 0.2062 0.2064256 0.2066371 0.2068431 0.2070491 0.2072459 0.207423 0.20758 0.2077291 0.2078974
 0.2081158 0.2083856 0.2086699 0.2089347 0.2091804 0.2094218 0.2096646 0.2099091 0.2101499 0.210362
 0.210518 0.2106318 0.2107693 0.2109997 0.2113322 0.2117038 0.2120384 0.2123124 0.2125517 0.2127887
 0.2130418 0.2133003 0.2134925 0.2135316 0.213453 0.213452 0.2137088 0.2142082 0.2147785 0.2152662
 0.2156311 0.2159126 0.2161587 0.2163791 0.2165394 0.216602 0.2165975 0.2166545 0.2169126 0.2173767
 0.2178975 0.2183274 0.2186415 0.2188854 0.2190892 0.2192636 0.2193716 0.2192827 0.2189101 0.2184595
 0.2183742 0.2189085 0.2198407 0.220707 0.2212579 0.2215837 0.2218582 0.2221278 0.2223555 0.2224519
 0.2221739 0.2212691 0.2199611 0.2190787 0.2193683 0.2207436 0.2224315 0.2237475 0.2245234 0.2249301
 0.2251835 0.2254028 0.2255172 0.22527 0.2245073 0.2235589 0.2231492 0.2237266 0.2249593 0.2260911
 0.2267131 0.226975 0.2271773 0.2274366 0.2276136 0.2272714 0.2259192 0.2237367 0.2219477 0.2219605
 0.2239873 0.2267877 0.2288985 0.2298942 0.2302716 0.2303687 0.2298673 0.2283673 0.2259901 0.2233196
 0.2212189 0.2207189 0.2223368 0.225213 0.2275997 0.2285905 0.2288865 0.2296365 0.2310635 0.2324811
 0.2331843 0.2329936 0.2321272 0.2308094 0.2291663 0.2275978 0.2269953 0.2281039 0.2306161 0.2332857
 0.2350806 0.2359669 0.2363666 0.2359429 0.2333504 0.2278558 0.2213667 0.2179043 0.2200467 0.22623
 0.2324307 0.2361238 0.2376668 0.2384041 0.2388667 0.2386268 0.236545 0.2313883 0.2237679 0.2173636
 0.216435 0.221603 0.2291484 0.2344917 0.2353142 0.2317935 0.2257785 0.2202425 0.2180666 0.2202917
 0.225669 0.2318966 0.2369978 0.2398606 0.2402252 0.2385774 0.2361181 0.2344777 0.234533 0.2351081
 0.2338669 0.2302662 0.22646 0.2241358 0.2219033 0.2178683 0.2137987 0.2139562 0.2195567 0.226734
 0.2308877 0.2313491 0.2305344 0.2295428 0.2262603 0.2183869 0.2077763 0.2005232 0.2016346 0.2098325
 0.2186985 0.2229699 0.222725 0.2214833 0.2215094 0.221506 0.2184355 0.2114865 0.2040859 0.2010196
 0.2033327 0.2073897 0.2091717 0.2074748 0.2024834 0.1944849 0.1861996 0.1836044 0.190882 0.2052944
 0.2193348 0.226907 0.2255346 0.2150034 0.1982555 0.1832123 0.1789072 0.1873727 0.2011591 0.2101973
 0.2097788 0.2013499 0.188205 0.1732723 0.1605269 0.155374 0.1613963 0.1767436 0.1941687 0.2045987
 0.2021325 0.1886635 0.1743593 0.1703361 0.1784912 0.1901661 0.1958458 0.1937999 0.1886989 0.1856256
 0.1871609 0.1929244 0.1999648 0.2055344 0.20928 0.2100994 0.2031738 0.1857557 0.1648286 0.1525106
 0.1534696 0.1625135 0.1742815 0.1880652 0.201529 0.2073988 0.2016707 0.1912176 0.1879489 0.1961638
 0.2088687 0.2163383 0.2157449 0.2116705 0.2090262 0.20782 0.2056227 0.2032411 0.2049044 0.2124384
 0.2220852 0.2286973 0.2310844 0.2315577 0.2320114 0.2324838 0.2324656 0.2317607 0.230423 0.2288928
 0.2278604 0.2274876 0.2272566 0.2267554 0.2256591 0.2225373 0.2151618 0.2036413 0.1924187 0.186754
 0.1871442 0.1896898 0.1918942 0.1941122 0.1941202 0.1856033 0.1664939 0.1458042 0.1370651 0.1452482
 0.1630643 0.1792736 0.1873 0.1857842 0.1752087 0.1580915 0.1416805 0.1357012 0.1444313 0.162593
 0.180989 0.1944325 0.20237 0.2044962 0.1997462 0.1894062 0.1783935 0.1724552 0.1746527 0.1840031
 0.1958232 0.2029533 0.1992497 0.1856771 0.1730142 0.1739168 0.1896516 0.2080097 0.217035 0.2171348
 0.2162597 0.2175394 0.2177168 0.2158034 0.216566 0.2239773 0.2353723 0.244081 0.2452869 0.237924
 0.2240665 0.2094322 0.2019001 0.2051544 0.2144287 0.2216369 0.2231755 0.2194551 0.2101351 0.1961321
 0.1846805 0.1849851 0.1975647 0.2130433 0.2227999 0.2268142 0.2297731 0.2329948 0.2328336 0.2262193
 0.2158061 0.2083517 0.2080392 0.2128101 0.2178394 0.2206195 0.2210038 0.2183328 0.2118427 0.2039146
 0.2000997 0.2042952 0.214686 0.2254057 0.2317494 0.2331068 0.2316069 0.2293593 0.2270359 0.2240211
 0.2197971 0.2157595 0.2149606 0.2188477 0.2249635 0.2294736 0.2315605 0.2337017 0.2377748 0.2424703
 0.2448824 0.2436769 0.2403566 0.2379462 0.2385593 0.2417221 0.2447338 0.2449779 0.2424123 0.2398425
 0.2403393 0.2443136 0.2494622 0.2533822 0.255524 0.2567075 0.2577218 0.2586322 0.2587212 0.2570328
 0.2537178 0.2508139 0.2507928 0.2541098 0.2587782 0.2624298 0.2642305 0.2647449 0.2646306 0.2639478
 0.2625552 0.2607425 0.2592341 0.2586116 0.2588932 0.2596958 0.2606297 0.2614664 0.2621034 0.2625358
 0.2628249 0.2630212 0.2631419 0.2632197 0.2632923 0.2633278 0.2632601 0.2631329 0.2631191 0.2633278
 0.2636558 0.2638935 0.2639152 0.2636845 0.2631401 0.2622124 0.2609497 0.2595062 0.2579657 0.256291
 0.2545515 0.2531582 0.2527316 0.2536374 0.2556453 0.2580686 0.2602289 0.2617935 0.2627665 0.2632992
 0.2635525 0.2636492 0.2636604 0.2636043 0.2634707 0.2632515 0.262953 0.2625911 0.2621883 0.2617786
 0.261407 0.2611047 0.2608568 0.2606037 0.260282 0.2598655 0.2593734 0.2588486 0.2583169 0.257756
 0.257107 0.2563263 0.2554232 0.2544551 0.2535006 0.2526284 0.2518585 0.2511438 0.2504113 0.2496162
 0.2487359 0.2477355 0.2465992 0.2454067 0.2443212 0.2434604 0.2427959 0.2421958 0.2415398 0.2407728
 0.2398885 0.2389082 0.2378691 0.2367998 0.2357034 0.2345684 0.233384 0.2321339 0.2307979 0.2293686
 0.2278547 0.2262686 0.2246313 0.2229772 0.2213171 0.2195872 0.2176506 0.2153525 0.2125676 0.2092174
 0.2052864 0.2008433 0.1960424 0.1910886 0.1861843 0.1814957 0.1771525 0.1732594 0.1699017 0.1671498
 0.165063 0.1636794 0.1630053 0.1630278 0.1637326 0.1650939 0.1670471 0.1694824 0.1722602 0.1752241
 0.1782067 0.1810491 0.183647 0.1859966 0.1881784 0.1902675 0.1922587 0.194091 0.1957217 0.1971486
 0.1983747 0.1993943 0.2002189 0.2008927 0.2014695 0.2019824 0.2024368 0.2028286 0.2031599 0.2034351
 0.2036557 0.2038315 0.2039894 0.2041594 0.2043548 0.2045745 0.2048194 0.2051068 0.2054682 0.2059247
 0.2064588 0.2070259 0.2075986 0.2081841 0.2087994 0.2094525 0.2101586 0.2109563 0.2118958 0.2130085
 0.2142808 0.2156514 0.2170336 0.2183471 0.2195303 0.2205338 0.2213129 0.2218359 0.2221067 0.2221723
 0.2220935 0.2219039 0.2216098 0.2212217 0.2207665 0.2202627 0.2197074 0.2190964 0.2184426 0.217766
 0.2170741 0.2163663 0.2156539 0.2149619 0.2143048 0.2136732 0.2130519 0.2124367 0.2118256 0.2112113
 0.210594 0.2099886 0.2094092 0.2088544 0.2083095 0.2077495 0.2071328 0.206414 0.2055743 0.2046326
 0.2036145 0.2025184 0.2013229 0.2000238 0.1986456 0.1972122 0.19572 0.1941518 0.192504 0.190784
 0.1889857 0.1870891 0.1850957 0.183058 0.181063 0.1791877 0.177466 0.1758869 0.174416 0.1730254
 0.171706 0.1704525 0.1692506 0.1680895 0.1669776 0.1659258 0.1649266 0.1639654 0.1630469 0.1621964
 0.1614381 0.1607787 0.1602128 0.1597395 0.1593636 0.1590788 0.1588662 0.1587214 0.1586618 0.1586862
 0.1587435 0.1587607 0.1586951 0.158559 0.1584048 0.1582842 0.1582083 0.1581521 0.1580904 0.1580058
 0.1578592 0.1575711 0.157039 0.1561744 0.1549481 0.1534108 0.1516636 0.1498215 0.1480087 0.1463491
 0.1449278 0.1437791 0.1429044 0.1422662 0.1417766 0.141348 0.1409685 0.1407111 0.1406693 0.140862
 0.1411721 0.1414084 0.1414786 0.1414855 0.1416266 0.1420286 0.1426769 0.1434468 0.1441877 0.1448096
 0.1452956 0.1456459 0.145862 0.1459807 0.1460494 0.146067 0.1459978 0.1458286 0.1455775 0.1452698
 0.1449221 0.1445248 0.144047 0.1434745 0.142814 0.1420622 0.1412193 0.1403041 0.1393016 0.1381624
 0.1369351 0.1358387 0.1351402 0.1349958 0.1353954 0.1361802 0.1371408 0.1381606 0.1391868 0.1400437
 0.1404763 0.140531 0.1407476 0.1417673 0.1437239 0.1461016 0.1481962 0.1496341 0.1504145 0.1506195
 0.1502755 0.1494135 0.1480531 0.1461649 0.1437807 0.1410511 0.1381231 0.1351113 0.1322036 0.1296082
 0.1274136 0.1256201 0.1242166 0.12324 0.1228201 0.1225979 0.1207092 0.1147458 0.1054689 0.09849196
 0.09956831 0.1081281 0.1176678 0.1226217 0.1228005 0.1211451 0.1196989 0.1187577 0.1181961 0.1181604
 0.1188048 0.1200015 0.121357 0.1224604 0.1231435 0.1234501 0.1233462 0.1224714 0.1200757 0.1152856
 0.107812 0.09855619 0.08930355 0.08167566 0.07638255 0.07325673 0.0716543 0.07083246 0.0702876 0.06997439
 0.07020205 0.07127023 0.07321329 0.07587323 0.07907353 0.08257955 0.08597746 0.08883105 0.09100801 0.09269851
 0.09408231 0.09511418 0.09565724 0.09568923 0.09532267 0.09470769 0.09396739 0.09316838 0.09228511 0.09122521
 0.08998419 0.08877617 0.08790623 0.08748794 0.08737493 0.08736576 0.08736393 0.08734609 0.08730246 0.0872349
 0.08715802 0.08711786 0.08721971 0.0875558 0.08807175 0.08857282 0.08889107 0.08901841 0.08906965 0.08910081
 0.08896187 0.08843791 0.08759911 0.0868254 0.08631684 0.08576684 0.08477245 0.08345257 0.08239569 0.08202851
 0.08223674 0.08259108 0.0827558 0.08265247 0.08242002 0.08233707 0.08264615 0.08327509 0.08379339 0.0838026
</values></Ydata></ScRf><Data_Parameters_AB><parameter name="DPF">1</parameter><parameter name="NPT">3497</parameter><parameter name="FXV">3996</parameter><parameter name="LXV">500</parameter><parameter name="CSF">1</parameter><parameter name="MXY">0.205344915390015</parameter><parameter name="MNY">-0.054465938359499</parameter><parameter name="DAT">30/05/2022</parameter><parameter name="TIM">11:42:45.384 (GMT+2)</parameter><parameter name="DXU">WN</parameter></Data_Parameters_AB><AB__Qtest><MainReport name="Quality Test Report"><Header><Line><Legend>Test result ok/not ok [1/0]: </Legend><Value>0</Value></Line><Line><Legend>Method file: </Legend><Value>C:\Users\Public\Documents\Bruker\OPUS_8.2.28\QT\IRBT_v3_default.QT</Value></Line></Header><Matrix><Line><Legend></Legend><Legend>min</Legend><Legend>max</Legend><Legend>measured</Legend></Line><Line><Value>Absorption (X-Range 1):</Value><Value>0.400000</Value><Value>2.000000</Value><Value>0.230367</Value></Line><Line><Value>Noise (X-Range 4):</Value><Value></Value><Value>0.000300</Value><Value>0.000058</Value></Line><Line><Value>Signal/Noise (X-Range 2):</Value><Value>200.000000</Value><Value></Value><Value>106.412881</Value></Line><Line><Value>Signal/Noise (X-Range 3):</Value><Value>40.000000</Value><Value></Value><Value>38.175724</Value></Line><Line><Value>Water vapour (X-Range 5):</Value><Value></Value><Value>0.000300</Value><Value>0.000063</Value></Line><Line><Value>Signal/Water (X-Range 2):</Value><Value>100.000000</Value><Value></Value><Value>97.550532</Value></Line><Line><Value>Signal/Water (X-Range 3):</Value><Value>20.000000</Value><Value></Value><Value>34.996347</Value></Line><Line><Value>Fringes (X-Range 6):</Value><Value></Value><Value>0.000100</Value><Value>0.000071</Value></Line></Matrix></MainReport></AB__Qtest><Data_Parameters_ScSm><parameter name="DPF">1</parameter><parameter name="NPT">1814</parameter><parameter name="FXV">3996.33169228125</parameter><parameter name="LXV">499.541461535156</parameter><parameter name="CSF">1</parameter><parameter name="MXY">0.251551389694214</parameter><parameter name="MNY">0.0343503579497337</parameter><parameter name="DAT">30/05/2022</parameter><parameter name="TIM">11:42:45.384 (GMT+2)</parameter><parameter name="DXU">WN</parameter></Data_Parameters_ScSm><Data_Parameters_ScRf><parameter name="DPF">1</parameter><parameter name="NPT">1820</parameter><parameter name="FXV">4004.04661832813</parameter><parameter name="LXV">495.683998511719</parameter><parameter name="CSF">1</parameter><parameter name="MXY">0.264744937419891</parameter><parameter name="MNY">0.0319611877202988</parameter><parameter name="DAT">30/05/2022</parameter><parameter name="TIM">11:42:19.532 (GMT+2)</parameter><parameter name="DXU">WN</parameter></Data_Parameters_ScRf><Optic_Parameters_Rf><parameter name="APR">0</parameter><parameter name="APT">Open</parameter><parameter name="BMS">KBr</parameter><parameter name="DTC">RT-DLaTGS_IR-Biotyper [Microplate reader]</parameter><parameter name="HPF">0</parameter><parameter name="LPF">10.0</parameter><parameter name="LPV">4000</parameter><parameter name="PGR">0</parameter><parameter name="RCH">Module port</parameter><parameter name="RDX">0</parameter><parameter name="SRC">MIR</parameter><parameter name="VEL">10.0</parameter><parameter name="SON">Off</parameter></Optic_Parameters_Rf><Acquisition_Parameters_Rf><parameter name="ADT">1</parameter><parameter name="AQM">DD</parameter><parameter name="CFE">0</parameter><parameter name="COR">0</parameter><parameter name="DEL">0</parameter><parameter name="DLY">0</parameter><parameter name="HFW">8000</parameter><parameter name="LFW">0</parameter><parameter name="NSR">32</parameter><parameter name="PLF">AB</parameter><parameter name="RES">6</parameter><parameter name="RGN">-1</parameter><parameter name="STR">0</parameter><parameter name="TCL">MakeCompatibleScalar (0, {WSV=1.000000, ARV=0});</parameter><parameter name="TDL">37</parameter><parameter name="RPO">0</parameter></Acquisition_Parameters_Rf><FT_-_Parameters_Rf><parameter name="APF">B3</parameter><parameter name="HFQ">500</parameter><parameter name="LFQ">4000</parameter><parameter name="NLI">0</parameter><parameter name="PHR">24</parameter><parameter name="PHZ">ML</parameter><parameter name="SPZ">NO</parameter><parameter name="ZFF">1</parameter></FT_-_Parameters_Rf><Optic_Parameters_><parameter name="APR">0</parameter><parameter name="APT">Open</parameter><parameter name="BMS">KBr</parameter><parameter name="CHN">Module port</parameter><parameter name="DTC">RT-DLaTGS_IR-Biotyper [Microplate reader]</parameter><parameter name="HPF">0</parameter><parameter name="LPF">10.0</parameter><parameter name="LPV">4000</parameter><parameter name="PGN">0</parameter><parameter name="RDX">0</parameter><parameter name="SRC">MIR</parameter><parameter name="VEL">10.0</parameter><parameter name="SON">Off</parameter></Optic_Parameters_><FT_-_Parameters_><parameter name="APF">B3</parameter><parameter name="HFQ">500</parameter><parameter name="LFQ">4000</parameter><parameter name="NLI">0</parameter><parameter name="PHR">24</parameter><parameter name="PHZ">ML</parameter><parameter name="SPZ">NO</parameter><parameter name="ZFF">1</parameter></FT_-_Parameters_><Acquisition_Parameters_><parameter name="ADT">1</parameter><parameter name="AQM">DD</parameter><parameter name="CFE">0</parameter><parameter name="COR">0</parameter><parameter name="DEL">0</parameter><parameter name="DLY">0</parameter><parameter name="HFW">8000</parameter><parameter name="LFW">0</parameter><parameter name="NSS">32</parameter><parameter name="PLF">AB</parameter><parameter name="RES">6</parameter><parameter name="SOT">0</parameter><parameter name="TCL">MakeCompatibleScalar (0, {WSV=1.000000, ARV=0});</parameter><parameter name="TDL">37</parameter><parameter name="SPO">0</parameter><parameter name="SGN">-1</parameter></Acquisition_Parameters_><Instrument_Parameters_Rf><parameter name="HFL">15800.168544</parameter><parameter name="LFL">0</parameter><parameter name="LWN">15800.168544</parameter><parameter name="ABP">32197</parameter><parameter name="SSP">1</parameter><parameter name="ARG">2</parameter><parameter name="ASG">2</parameter><parameter name="ASS">32</parameter><parameter name="GFW">16</parameter><parameter name="GBW">16</parameter><parameter name="BFW">0</parameter><parameter name="BBW">0</parameter><parameter name="PKA">7299</parameter><parameter name="PKL">4996</parameter><parameter name="PRA">7467</parameter><parameter name="PRL">5001</parameter><parameter name="P2A">1</parameter><parameter name="P2L">1</parameter><parameter name="P2R">1</parameter><parameter name="P2K">1</parameter><parameter name="DAQ">0</parameter><parameter name="AG2">1</parameter><parameter name="SSM">1</parameter><parameter name="RSN">25240</parameter><parameter name="CRR">0</parameter><parameter name="SRT">1653910939.533</parameter><parameter name="DUR">19.6379852294922</parameter><parameter name="TSC">28.1</parameter><parameter name="MVD">0.210162207484245</parameter><parameter name="AN1">0.225804511823653</parameter><parameter name="AN2">0</parameter><parameter name="VSN">2.485 Apr  4 2017</parameter><parameter name="SRN">0085</parameter><parameter name="CAM">0</parameter><parameter name="INS">IR-Biotyper</parameter><parameter name="FOC">69</parameter><parameter name="RDY">1</parameter><parameter name="ARS">32</parameter></Instrument_Parameters_Rf><Sample_Parameters_><parameter name="BLD"></parameter><parameter name="CNM">Admin</parameter><parameter name="CPY"></parameter><parameter name="DPM"></parameter><parameter name="EXP">IRBT_v3_32Scans.XPM</parameter><parameter name="LCT"></parameter><parameter name="SFM">Microplate, HTS-XT</parameter><parameter name="SNM">220530-1021_GFG29M (D_11)_C6_20a92684-2bae-4682-b718-7cb838815c0c.0</parameter><parameter name="XPP">C:\Users\Public\Documents\Bruker\OPUS_8.2.28\XPM</parameter><parameter name="IST">OK</parameter><parameter name="CPG">1252</parameter><parameter name="UID">6d1ae899-80cf-4e6d-b1b9-6cf0599a4c54</parameter></Sample_Parameters_><Instrument_Parameters_><parameter name="HFL">15800.168544</parameter><parameter name="LFL">0</parameter><parameter name="LWN">15800.168544</parameter><parameter name="ABP">32197</parameter><parameter name="SSP">1</parameter><parameter name="ASG">2</parameter><parameter name="ARG">2</parameter><parameter name="ASS">32</parameter><parameter name="GFW">16</parameter><parameter name="GBW">16</parameter><parameter name="BFW">0</parameter><parameter name="BBW">0</parameter><parameter name="PKA">6716</parameter><parameter name="PKL">4988</parameter><parameter name="PRA">6984</parameter><parameter name="PRL">4993</parameter><parameter name="P2A">1</parameter><parameter name="P2L">1</parameter><parameter name="P2R">1</parameter><parameter name="P2K">1</parameter><parameter name="DAQ">0</parameter><parameter name="AG2">1</parameter><parameter name="SSM">1</parameter><parameter name="RSN">13246</parameter><parameter name="CRR">0</parameter><parameter name="SRT">1653910965.385</parameter><parameter name="DUR">19.6369934082031</parameter><parameter name="TSC">28.1</parameter><parameter name="MVD">0.214172154664993</parameter><parameter name="AN1">0.225812120493777</parameter><parameter name="AN2">0</parameter><parameter name="VSN">2.485 Apr  4 2017</parameter><parameter name="SRN">0085</parameter><parameter name="CAM">0</parameter><parameter name="INS">IR-Biotyper</parameter><parameter name="FOC">69</parameter><parameter name="RDY">1</parameter></Instrument_Parameters_><History/></OPUSDataFile>
