<?xml version="1.0" encoding="UTF-8" ?>
<OPUSDataFile><AB><Ydata ylabel="Absorbance Units"><values byteorder="INTEL" format="FLOAT32" numvalues="3497"> -0.02850164 -0.02845399 -0.02839885 -0.0283358 -0.02827108 -0.02820502 -0.02814287 -0.02808495 -0.02803616 -0.02799761
 -0.02797867 -0.02797959 -0.02800786 -0.0280594 -0.02813017 -0.028212 -0.02829012 -0.02835879 -0.02840453 -0.02842965
 -0.02842964 -0.0284147 -0.02838841 -0.02836071 -0.02833666 -0.02831886 -0.02830936 -0.02830561 -0.02830759 -0.02831252
 -0.02832027 -0.02832667 -0.02833149 -0.02832807 -0.02831649 -0.0282957 -0.02826698 -0.0282379 -0.02820869 -0.02818499
 -0.02816433 -0.02814309 -0.02812075 -0.02809291 -0.02806538 -0.02804215 -0.02803058 -0.0280392 -0.02806712 -0.02811895
 -0.02818165 -0.02825365 -0.02831526 -0.02836108 -0.02837981 -0.0283668 -0.028333 -0.02827803 -0.02822639 -0.02817944
 -0.02815039 -0.02813842 -0.02813476 -0.0281381 -0.02813507 -0.02812793 -0.02811782 -0.02810755 -0.02810571 -0.02811059
 -0.02812344 -0.02814144 -0.02816086 -0.02818277 -0.02820732 -0.028234 -0.0282654 -0.02829006 -0.02830549 -0.02829804
 -0.02826115 -0.02820167 -0.02811664 -0.02803752 -0.02796631 -0.02793765 -0.02795366 -0.02802823 -0.02815948 -0.02832677
 -0.02852263 -0.02869158 -0.0288272 -0.02887048 -0.02883374 -0.02871069 -0.02853106 -0.02834265 -0.02816281 -0.02803461
 -0.02795068 -0.0279235 -0.02792779 -0.02795509 -0.02797892 -0.02798455 -0.02796987 -0.02792748 -0.02788378 -0.02784144
 -0.02782556 -0.02784055 -0.02787933 -0.02794186 -0.02799706 -0.02804441 -0.02806926 -0.02807546 -0.02808055 -0.02808702
 -0.02811601 -0.02816146 -0.02822081 -0.02828374 -0.02832899 -0.02835762 -0.02835901 -0.0283475 -0.02833277 -0.02832023
 -0.02831773 -0.02831825 -0.02831825 -0.02832336 -0.02833096 -0.02836553 -0.02843161 -0.02854172 -0.02870145 -0.02886742
 -0.02903799 -0.02909988 -0.02905193 -0.02884861 -0.02851133 -0.02816034 -0.0278051 -0.0275485 -0.02737602 -0.02730401
 -0.02731399 -0.02738583 -0.02749612 -0.02761094 -0.02771102 -0.02776355 -0.02778004 -0.02775124 -0.02771652 -0.0276919
 -0.02769152 -0.02772802 -0.02777221 -0.02782132 -0.02784961 -0.02785217 -0.02783943 -0.02781158 -0.02779575 -0.02779227
 -0.02781052 -0.02784757 -0.02788971 -0.02793325 -0.02795717 -0.02795958 -0.02792424 -0.02785374 -0.02774134 -0.02760074
 -0.02744188 -0.02728692 -0.02715738 -0.02706703 -0.02703241 -0.02704801 -0.02711908 -0.02722251 -0.02735646 -0.02748679
 -0.02760874 -0.02768989 -0.02772579 -0.02770239 -0.02761824 -0.02749118 -0.02732355 -0.02715636 -0.02699065 -0.02685443
 -0.02674429 -0.02666144 -0.02660348 -0.02656392 -0.0265446 -0.02654711 -0.02656996 -0.02661586 -0.02667141 -0.02672863
 -0.02677023 -0.02678114 -0.02676257 -0.02670663 -0.0266392 -0.02656402 -0.02650934 -0.02648264 -0.02648643 -0.02652342
 -0.02657162 -0.02662995 -0.02667384 -0.02670274 -0.02670522 -0.02668335 -0.02664427 -0.02659248 -0.02654933 -0.02651768
 -0.02651712 -0.02654451 -0.02660542 -0.02668994 -0.02678895 -0.02689256 -0.02698635 -0.02707492 -0.02715353 -0.02724058
 -0.02734391 -0.02746962 -0.02762557 -0.02778785 -0.02795557 -0.02809482 -0.0282016 -0.02825732 -0.02826067 -0.02819308
 -0.02805467 -0.02784222 -0.02756389 -0.02727402 -0.02698184 -0.02675661 -0.02659323 -0.02651776 -0.0265112 -0.02655585
 -0.02662533 -0.02667714 -0.02670345 -0.0266761 -0.0266192 -0.02653784 -0.02645686 -0.02639034 -0.02634069 -0.02631473
 -0.02629185 -0.0262705 -0.02622629 -0.02615479 -0.02605875 -0.02593757 -0.02582218 -0.0257142 -0.02564445 -0.0256115
 -0.02562329 -0.02567167 -0.02573086 -0.02578883 -0.02579575 -0.02575788 -0.02565664 -0.0255205 -0.02538105 -0.0252495
 -0.02515257 -0.02507244 -0.02500687 -0.02493648 -0.0248474 -0.02475157 -0.02464576 -0.02456261 -0.0245098 -0.02449419
 -0.02452082 -0.0245509 -0.02458274 -0.02455937 -0.02448024 -0.02433426 -0.02413083 -0.02393547 -0.02375159 -0.02363292
 -0.02356494 -0.02353442 -0.02353228 -0.02353313 -0.02354114 -0.02355238 -0.02356925 -0.02359683 -0.02362258 -0.02364351
 -0.02363893 -0.02359956 -0.02351271 -0.02337168 -0.02317716 -0.0229252 -0.02263958 -0.02232087 -0.02200692 -0.02170049
 -0.02141828 -0.02116016 -0.02091889 -0.02069462 -0.02048487 -0.02029199 -0.02012615 -0.01998594 -0.01987491 -0.01978548
 -0.01970568 -0.01962883 -0.01954238 -0.01944029 -0.01931458 -0.01915691 -0.01895634 -0.01872209 -0.01845063 -0.0181714
 -0.01789352 -0.01762905 -0.01738365 -0.01714806 -0.01692196 -0.0166957 -0.01646834 -0.01624331 -0.0160214 -0.01582001
 -0.01563976 -0.01549687 -0.01538471 -0.01528931 -0.01519281 -0.0150362 -0.0148153 -0.01448109 -0.01407455 -0.01362742
 -0.01317799 -0.01278017 -0.01242682 -0.01213302 -0.01187048 -0.01163081 -0.01139291 -0.01114713 -0.01089225 -0.01062567
 -0.01035571 -0.01008389 -0.009807015 -0.009525301 -0.009222958 -0.008899631 -0.008548968 -0.008173862 -0.007793564 -0.007411509
 -0.007053823 -0.006718918 -0.006416497 -0.006141861 -0.005891919 -0.005659621 -0.005436376 -0.005211815 -0.004973245 -0.004715638
 -0.004429616 -0.004123592 -0.003799305 -0.003462572 -0.003118164 -0.002754429 -0.002368801 -0.001958576 -0.001519763 -0.001089292
 -0.0006691179 -0.0003002573 1.680532E-05 0.000283328 0.0005028697 0.0007042598 0.0008891532 0.001080471 0.001276003 0.001481519
 0.001693876 0.001909157 0.002126914 0.002343279 0.002563563 0.002789231 0.003031228 0.003297451 0.003592876 0.003925896
 0.004279622 0.004653391 0.005020227 0.005373672 0.005703653 0.006006459 0.006296142 0.006573102 0.006859836 0.007156936
 0.007471509 0.007801734 0.008135249 0.008471684 0.008801575 0.00912886 0.009461094 0.009798771 0.01014976 0.01050411
 0.01085262 0.01118473 0.01148447 0.01175552 0.01199303 0.01221126 0.01241545 0.01261511 0.0128153 0.01301469
 0.01321372 0.01341047 0.01360366 0.01380349 0.01401029 0.01424195 0.01449892 0.01478618 0.01510113 0.01542506
 0.01575433 0.01606193 0.01634825 0.01659933 0.01682 0.01701223 0.01718252 0.01733986 0.01749045 0.01764306
 0.01780147 0.01797057 0.01815186 0.01834681 0.01855712 0.01878372 0.01902694 0.01928809 0.01956003 0.01984286
 0.02012245 0.02039776 0.02065914 0.02090652 0.0211433 0.02137043 0.02159783 0.02182491 0.02205475 0.02228503
 0.02250983 0.02272932 0.02293979 0.02314557 0.02335155 0.02355958 0.02377477 0.02399226 0.02421007 0.02442531
 0.02463454 0.02484327 0.02505318 0.02526532 0.02548206 0.02569073 0.02588972 0.02607166 0.02623499 0.02639884
 0.02656446 0.02676131 0.02698782 0.02724569 0.02752695 0.02779589 0.02804593 0.02823568 0.02837177 0.0284432
 0.0284704 0.02847587 0.02847854 0.02850762 0.02856358 0.0286586 0.02877687 0.02891494 0.02905713 0.02919738
 0.029329 0.02944893 0.02955893 0.02965823 0.02975517 0.02985033 0.02995024 0.03005499 0.03016076 0.03026756
 0.03037217 0.03047781 0.03059795 0.03073588 0.03091157 0.03111886 0.03135808 0.03161412 0.03186609 0.03210284
 0.03230407 0.03247104 0.03259689 0.0326913 0.03275554 0.03280308 0.03283684 0.03287316 0.03291557 0.03297678
 0.03305982 0.03316318 0.03328744 0.03341912 0.0335577 0.03369576 0.03383408 0.03397812 0.03412703 0.03428127
 0.03443581 0.03457473 0.03469635 0.03478553 0.03485354 0.03490714 0.03496436 0.0350472 0.03516144 0.03532309
 0.03551285 0.03573029 0.03594082 0.03613333 0.03628531 0.03638621 0.0364497 0.03647343 0.03649843 0.03652803
 0.03658672 0.03667478 0.03677068 0.03687136 0.03693717 0.0369709 0.03696267 0.03692299 0.03687863 0.03683767
 0.03683218 0.03685827 0.03692728 0.03702365 0.03713737 0.03725209 0.03735074 0.03743411 0.03749323 0.03755293
 0.03761773 0.03771413 0.03785221 0.03802524 0.03823733 0.03844487 0.03864516 0.03879483 0.0388924 0.03893344
 0.03892162 0.03889027 0.03884276 0.03881437 0.0388025 0.03881755 0.03885536 0.03891106 0.03898487 0.03907581
 0.0391824 0.03930607 0.0394351 0.03956323 0.03967732 0.03976655 0.03983578 0.0398806 0.03992508 0.03997295
 0.0400461 0.0401498 0.04028112 0.04044145 0.0406016 0.04075997 0.04088241 0.04096919 0.04100774 0.04100343
 0.04097478 0.04092969 0.04090293 0.04089767 0.04094052 0.04102244 0.04114557 0.04128932 0.04143423 0.0415635
 0.04165509 0.04171605 0.04173981 0.04175303 0.04176364 0.04178765 0.04183211 0.04189094 0.0419634 0.04205004
 0.04214963 0.04228846 0.04246777 0.04271001 0.04301184 0.04335042 0.04371594 0.04404597 0.0443348 0.04452728
 0.0446336 0.04464259 0.04458193 0.04448411 0.04438059 0.04431836 0.04430713 0.04437689 0.04449679 0.0446675
 0.04483063 0.04496778 0.04503604 0.04501719 0.04492175 0.0447437 0.04454239 0.04432154 0.04414017 0.04400093
 0.04391932 0.04389287 0.04390036 0.04394025 0.04399269 0.04406076 0.0441448 0.04424641 0.04437286 0.04451504
 0.04466728 0.04480769 0.04491378 0.04496294 0.04492786 0.04481117 0.04459863 0.0443315 0.04401565 0.04370546
 0.04341561 0.04317139 0.04298111 0.04283252 0.04272596 0.04263856 0.04256917 0.04250057 0.04243242 0.04235395
 0.04226714 0.0421754 0.04208342 0.04201039 0.04195438 0.04192538 0.04190737 0.04188183 0.04183209 0.0417292
 0.04157802 0.04136626 0.04112526 0.04086279 0.0406203 0.04041395 0.04026768 0.04019511 0.04017576 0.04021329
 0.04024669 0.04027116 0.0402378 0.04014448 0.04000319 0.03981803 0.03964051 0.03947052 0.03933607 0.03922889
 0.03913497 0.0390502 0.03895555 0.03885844 0.03876157 0.03867329 0.03860613 0.03855692 0.03853009 0.0385117
 0.03849692 0.03847165 0.03842937 0.03836489 0.03827465 0.03816406 0.03803248 0.03789261 0.0377452 0.03760447
 0.03747117 0.03735517 0.03725617 0.03717416 0.03710761 0.03704786 0.03699436 0.03694009 0.0368868 0.0368357
 0.03678643 0.03674098 0.03669279 0.03663623 0.03656424 0.03646712 0.03635031 0.03621029 0.0360674 0.03592744
 0.03580723 0.03571464 0.03564181 0.03559081 0.03553474 0.0354711 0.03538413 0.03527305 0.03515154 0.03502116
 0.03490615 0.03480499 0.03472308 0.03465501 0.03458473 0.0345094 0.03441275 0.03429949 0.03416845 0.03402865
 0.03388933 0.03375731 0.03364056 0.03354272 0.03346692 0.03341758 0.03339759 0.03340666 0.0334487 0.03350282
 0.0335693 0.03360779 0.03361443 0.03356286 0.03345165 0.03329719 0.03310283 0.03291483 0.03273524 0.03260128
 0.03250833 0.03246274 0.03245334 0.0324594 0.03246856 0.03245056 0.03240293 0.03230675 0.0321784 0.03202149
 0.03185936 0.03170767 0.03157102 0.03145713 0.03135268 0.03125375 0.03116148 0.03107232 0.03101552 0.03099336
 0.03103082 0.03112927 0.031272 0.03145523 0.03162666 0.03178325 0.03187834 0.03191693 0.03188888 0.03180666
 0.03169375 0.03156028 0.03143571 0.03131651 0.03121256 0.0311101 0.03099927 0.03087794 0.03073652 0.03059843
 0.03046821 0.03037206 0.03032115 0.03030841 0.03033771 0.03037231 0.03040879 0.03042418 0.03041705 0.03040211
 0.03038108 0.0303816 0.03040235 0.03045044 0.03052079 0.03059892 0.03068182 0.03075416 0.03081816 0.03087046
 0.03091439 0.0309548 0.03098661 0.03101104 0.03101134 0.03097901 0.03090196 0.03076844 0.03059712 0.03038478
 0.0301799 0.02998923 0.02985154 0.02977359 0.02974547 0.02976701 0.02978695 0.02980283 0.02976762 0.02968484
 0.0295492 0.02937091 0.02918343 0.02899455 0.02884186 0.02872168 0.02864727 0.02860559 0.02858736 0.02858062
 0.02857236 0.02855773 0.02852978 0.02849079 0.02843858 0.02838289 0.02832494 0.02827679 0.02824186 0.02821788
 0.02820635 0.02818373 0.02814876 0.02808097 0.02798151 0.02786203 0.02772662 0.02760874 0.02750632 0.02743288
 0.02737651 0.0273145 0.02723942 0.02712348 0.02697898 0.02680535 0.02662694 0.02646431 0.02632933 0.02623747
 0.02617965 0.02615656 0.02615628 0.0261747 0.02621126 0.02626556 0.02633703 0.02642695 0.02651585 0.02660278
 0.02665433 0.0266696 0.02662771 0.02653226 0.02639349 0.02621867 0.02603965 0.02586154 0.02571337 0.02559462
 0.02551789 0.02547944 0.02548026 0.02551536 0.02558247 0.02567324 0.02578421 0.02590339 0.02602607 0.02614219
 0.02624778 0.02634007 0.02641708 0.02648508 0.02654364 0.02660901 0.02668202 0.02678619 0.0269223 0.02710674
 0.02733715 0.02760804 0.02791409 0.02823249 0.02855998 0.02887616 0.02918292 0.02947407 0.02975313 0.03002252
 0.03028299 0.03053592 0.03078151 0.03101858 0.0312535 0.03148671 0.03173049 0.0319884 0.03226705 0.03256989
 0.03288658 0.03321756 0.03353898 0.03384947 0.0341282 0.03437483 0.03458177 0.03475004 0.03488209 0.03497936
 0.03504737 0.03508929 0.03511382 0.03512802 0.03514686 0.03517788 0.03523744 0.03532493 0.035448 0.03559486
 0.03576155 0.03593671 0.03611295 0.03629308 0.03647478 0.03667139 0.03688516 0.03712325 0.03738737 0.03767214
 0.03797739 0.03829369 0.03862058 0.03895031 0.03928217 0.03960741 0.03992574 0.04023004 0.04052316 0.04080787
 0.04108878 0.04137801 0.04167042 0.04197239 0.04225462 0.04250455 0.0426682 0.04271561 0.04259615 0.04227746
 0.04175673 0.04101568 0.0401222 0.03907691 0.03799264 0.03687976 0.03583697 0.03487142 0.03402084 0.03328408
 0.03264157 0.03209 0.03159722 0.03116429 0.03077972 0.03044372 0.03015492 0.02990357 0.02967331 0.02945277
 0.0292175 0.02897378 0.02871435 0.02846142 0.02822717 0.02802255 0.02785861 0.0277226 0.02761418 0.02751672
 0.02742603 0.02734015 0.02725763 0.02718812 0.02713205 0.02710256 0.02710008 0.02713419 0.02720267 0.02729724
 0.02741129 0.0275145 0.02760163 0.02764113 0.02763792 0.02758308 0.02749172 0.02737692 0.02725655 0.0271497
 0.02706894 0.02702818 0.02702814 0.02707391 0.02715601 0.0272721 0.02741865 0.02759296 0.027807 0.02806266
 0.02836157 0.02870506 0.02903985 0.02936007 0.02955604 0.02962225 0.02946009 0.0290826 0.02848011 0.02768855
 0.02679228 0.02582869 0.02490674 0.02403708 0.0232825 0.02262236 0.02206247 0.02157349 0.02113851 0.02074161
 0.02037119 0.0200254 0.01970164 0.01940068 0.01912265 0.01886591 0.01863045 0.01841341 0.01821466 0.01803043
 0.01786048 0.01770042 0.01755014 0.01740681 0.01727069 0.01714098 0.01701862 0.01690547 0.01680289 0.01671485
 0.0166404 0.01658198 0.01653214 0.01648707 0.01643497 0.01636651 0.01627886 0.016165 0.01604106 0.01590832
 0.01578941 0.01569007 0.01561518 0.01556753 0.01552966 0.0155007 0.01546244 0.01541474 0.01535709 0.01529092
 0.01522736 0.0151659 0.01511144 0.01506021 0.01500491 0.01494189 0.01485978 0.01476029 0.0146388 0.01450455
 0.01436226 0.01422516 0.01410233 0.0140029 0.01393416 0.01389457 0.01388758 0.01389765 0.01392446 0.01394223
 0.01394813 0.01392183 0.01386132 0.01377075 0.01365136 0.01353003 0.01340819 0.01330998 0.01323294 0.01318015
 0.01314731 0.01312423 0.01310835 0.01309049 0.01306914 0.0130389 0.0129987 0.01294434 0.01288027 0.01280578
 0.01273288 0.01266618 0.012615 0.01258507 0.01257032 0.0125726 0.01257158 0.01256531 0.0125364 0.01248313
 0.01240733 0.01230979 0.01220946 0.01210751 0.01202242 0.01195277 0.01190278 0.01186928 0.01184557 0.01182984
 0.01181511 0.01180221 0.01178928 0.01177779 0.01176923 0.0117621 0.01175692 0.01174858 0.01173559 0.01171203
 0.01167545 0.01162448 0.0115576 0.01148055 0.01139334 0.01130576 0.01121849 0.01113903 0.01106748 0.01100414
 0.01094838 0.01089529 0.01084459 0.01079228 0.0107391 0.01068541 0.01063138 0.01057791 0.01052401 0.01046845
 0.01041126 0.01035122 0.01029125 0.0102326 0.01017836 0.01013063 0.01008925 0.01005514 0.0100249 0.009998265
 0.009971093 0.009942777 0.00991135 0.009876528 0.009840216 0.009802598 0.009768046 0.009736535 0.009709954 0.009687695
 0.009667823 0.009650352 0.009634157 0.00961994 0.009609392 0.009600749 0.009593639 0.009582645 0.009562441 0.009529879
 0.009479624 0.009416955 0.009341713 0.009263449 0.009185459 0.009111468 0.00904325 0.00897866 0.008917434 0.00885979
 0.008805618 0.008758696 0.008719036 0.008685743 0.008657917 0.008627413 0.008593876 0.00855063 0.008499634 0.008442733
 0.008382612 0.008325587 0.00827272 0.008228308 0.008191737 0.008163862 0.008144064 0.008132378 0.008127616 0.008129739
 0.00813595 0.008145713 0.008155574 0.0081647 0.008171413 0.008175427 0.008175801 0.008172542 0.008162461 0.008145344
 0.008116305 0.008075621 0.008022889 0.007959797 0.007893774 0.007826318 0.007766265 0.007712556 0.007667809 0.007629116
 0.007593515 0.007558951 0.007522105 0.007482961 0.007440203 0.007395482 0.007348656 0.007303395 0.00726051 0.007223926
 0.007194913 0.007173676 0.007160878 0.007151371 0.007144916 0.00713517 0.007121863 0.007101069 0.007072938 0.007036932
 0.006993583 0.006944711 0.006891338 0.00683723 0.006783459 0.006734087 0.006689232 0.00665104 0.006618388 0.006591138
 0.006567722 0.006546884 0.006528271 0.006511294 0.006496491 0.006484179 0.006473524 0.006464802 0.006454732 0.006442932
 0.006426855 0.006406121 0.006382972 0.006357575 0.006334522 0.00631366 0.006295796 0.006280018 0.006262216 0.006242178
 0.006216653 0.006187079 0.006154819 0.006121158 0.006088947 0.006057484 0.006026915 0.005997043 0.005967252 0.005939328
 0.005914276 0.005892044 0.005873981 0.005853926 0.005830929 0.005799592 0.005758237 0.005711856 0.005660388 0.005615746
 0.005578405 0.00555467 0.005543864 0.005542311 0.005549151 0.005558349 0.005569768 0.005580196 0.00558915 0.005594265
 0.005594874 0.005588479 0.005576429 0.00555858 0.005538025 0.005517218 0.005496802 0.005478592 0.00545875 0.005436442
 0.005408588 0.005373524 0.005335054 0.005292922 0.005255713 0.005224142 0.005203187 0.00519294 0.005190483 0.005195174
 0.005199837 0.005204067 0.005201942 0.005193924 0.005177948 0.005155547 0.005128511 0.005099045 0.005071225 0.005045968
 0.005026554 0.005010273 0.004997107 0.004981716 0.004961249 0.004933557 0.004896186 0.004854189 0.004807692 0.004764292
 0.004725438 0.004692398 0.004665655 0.004639536 0.004613814 0.004585114 0.004554028 0.004525071 0.004498948 0.0044821
 0.004473466 0.004473554 0.004480047 0.004488339 0.004496827 0.004501086 0.004500844 0.004494031 0.004481521 0.004463054
 0.004440334 0.004413963 0.004385677 0.004356208 0.004326334 0.004296355 0.004266531 0.004236894 0.004207818 0.004179255
 0.004152921 0.004128959 0.004111709 0.004101536 0.004104395 0.004119469 0.004146924 0.004183386 0.004218818 0.004249582
 0.004261898 0.004257271 0.004229916 0.004188421 0.004138411 0.004089759 0.004051933 0.004027802 0.004022902 0.004030199
 0.00404948 0.004070365 0.004090463 0.004103552 0.00410819 0.004103389 0.004088847 0.004066098 0.004035274 0.004000817
 0.003963308 0.003930481 0.003902515 0.00388515 0.003876624 0.003874676 0.003876866 0.003876126 0.003872992 0.003864373
 0.003853897 0.003844564 0.003837956 0.003837601 0.003838832 0.003840862 0.003837527 0.003825528 0.003806196 0.003777965
 0.003750718 0.003725467 0.003711132 0.003708878 0.003718338 0.003739424 0.003764509 0.003793134 0.003817799 0.003838564
 0.00385172 0.003857809 0.003856428 0.00384844 0.003835312 0.003818159 0.003799183 0.003779346 0.003760347 0.003743009
 0.003728483 0.003716965 0.003708944 0.003703939 0.00370184 0.003702457 0.003705573 0.00371212 0.003722324 0.003736018
 0.003753465 0.003769717 0.003784486 0.003790305 0.003787116 0.003771479 0.003744255 0.003708452 0.003664418 0.003615974
 0.003560407 0.003494665 0.003413625 0.003307738 0.003174916 0.003007327 0.002811231 0.002587476 0.002345853 0.002093452
 0.001828601 0.001555113 0.001256322 0.0009285284 0.0005624538 0.0001531517 -0.0002778227 -0.0007306521 -0.001160093 -0.001563715
 -0.001897249 -0.002159967 -0.002327528 -0.002403912 -0.002396815 -0.002312134 -0.002176912 -0.001986201 -0.001740317 -0.001437839
 -0.001065181 -0.0006556156 -0.0002346095 0.0001565175 0.0004774673 0.0007109091 0.0008363274 0.0008545896 0.0007572604 0.0005684186
 0.000282048 -2.365005E-05 -0.0003436795 -0.0005699966 -0.000688948 -0.0006878244 -0.0005662175 -0.0004141825 -0.0002349199 -9.467665E-05
 1.262222E-05 8.584113E-05 0.0001331536 0.0001816635 0.0002341822 0.0003115651 0.000409769 0.00053289 0.0006726718 0.0008221911
 0.0009738992 0.001119341 0.001256689 0.001381411 0.001499374 0.001611138 0.001724065 0.001841159 0.001960188 0.002082505
 0.002194659 0.002295728 0.00237265 0.002424762 0.00245257 0.002457253 0.002452909 0.002440941 0.002436697 0.002439855
 0.002457851 0.00248867 0.002532005 0.002584569 0.002641831 0.00269935 0.002750893 0.002792728 0.002819191 0.002831635
 0.002827672 0.002815525 0.002796659 0.002781333 0.002772546 0.002774926 0.002790332 0.002814817 0.002848538 0.002882689
 0.002916794 0.002941669 0.002957112 0.002957648 0.002944181 0.002918326 0.002882315 0.002845067 0.002807242 0.002776073
 0.002747823 0.002720204 0.002688536 0.002645028 0.002592267 0.002527343 0.002461427 0.002398957 0.002350322 0.002321504
 0.002312366 0.00232549 0.002350282 0.00238617 0.002419401 0.002448545 0.002465548 0.00246992 0.00246349 0.002446904
 0.002429016 0.002410177 0.002397449 0.002389496 0.002385671 0.002383929 0.002378762 0.002370031 0.002354244 0.002334281
 0.002311752 0.002289928 0.002272433 0.002259214 0.002251869 0.002247114 0.002244151 0.002240315 0.002234554 0.002226861
 0.002216976 0.002206118 0.002194355 0.002182912 0.00217186 0.002162822 0.002155813 0.002151588 0.002149846 0.002149144
 0.002149237 0.002148181 0.002146641 0.002145283 0.002144626 0.002146588 0.002149191 0.002151527 0.002150089 0.002141318
 0.002124799 0.002098263 0.002066384 0.002030079 0.001994255 0.001960593 0.001930226 0.001903617 0.001880599 0.001861089
 0.001846715 0.001837567 0.001833697 0.001834792 0.00183654 0.001838608 0.001836405 0.001830713 0.001821761 0.001810813
 0.001801401 0.00179327 0.00178803 0.001783818 0.001779035 0.001772481 0.001762123 0.001749316 0.001733668 0.001718686
 0.001705474 0.001696942 0.001694446 0.001697231 0.001705888 0.001715404 0.001725526 0.001729836 0.001727944 0.001717099
 0.001697751 0.001675295 0.00165112 0.001636794 0.001632588 0.001646882 0.001676323 0.001718068 0.001766402 0.001810372
 0.001846737 0.001866506 0.001871663 0.001860076 0.001836902 0.001804049 0.001766568 0.001726521 0.001687981 0.001652179
 0.001622302 0.001599126 0.001583865 0.001576855 0.00157677 0.00158356 0.001594887 0.001610592 0.001628223 0.001647341
 0.00166419 0.001677972 0.00168338 0.001680715 0.001667207 0.001645617 0.001618859 0.001590527 0.001566392 0.001547327
 0.001536443 0.001531838 0.001533323 0.001539047 0.001548238 0.001559887 0.001573764 0.001588443 0.001603782 0.001617879
 0.001630538 0.00164041 0.001647407 0.001650582 0.0016499 0.001644591 0.001634786 0.001620856 0.001603132 0.001582881
 0.001560685 0.001538335 0.001516908 0.001498931 0.001485376 0.001478978 0.001478329 0.001483866 0.001491937 0.001500626
 0.0015074 0.001510451 0.001510342 0.001506809 0.001501079 0.00149339 0.001483976 0.001472785 0.001461121 0.001449035
 0.001439782 0.001433438 0.00143183 0.001434464 0.001439073 0.001445004 0.001448371 0.001449336 0.001446141 0.001439734
 0.001431002 0.001420577 0.00140947 0.001398299 0.00138763 0.001378722 0.00137218 0.001369756 0.001372324 0.00138069
 0.001395528 0.001415625 0.001441469 0.001467699 0.001494216 0.001511698 0.001519557 0.001511372 0.001487483 0.00145272
 0.001408572 0.001367633 0.001330198 0.001304607 0.001289058 0.00128313 0.001285241 0.00129244 0.001303862 0.001317884
 0.001332367 0.001345396 0.001354269 0.001356515 0.001352142 0.001340098 0.001323089 0.001301554 0.001277896 0.00125242
 0.001227824 0.001204273 0.001185582 0.001172018 0.001165374 0.001165438 0.001168659 0.001174426 0.001176597 0.001175341
 0.001167691 0.001154991 0.00113912 0.001121342 0.001105087 0.001090061 0.001077506 0.001066118 0.001055021 0.001043827
 0.001031732 0.001019911 0.001008606 0.0009989542 0.0009915796 0.0009856987 0.0009814751 0.0009766374 0.0009709403 0.0009628764
 0.0009522924 0.0009406097 0.0009279928 0.0009178314 0.0009098232 0.0009039296 0.0008988217 0.0008888439 0.0008736908 0.0008484386
 0.0008165421 0.0007812579 0.0007473448 0.000723117 0.0007081437 0.0007064178 0.0007113425 0.0007200011 0.0007279352 0.0007311532
 0.0007340677 0.0007365489 0.000745778 0.0007639745 0.0007890656 0.0008218423 0.0008504644 0.0008742132 0.0008842843 0.0008807819
 0.0008661848 0.0008414251 0.0008143128 0.000785175 0.0007593608 0.0007367801 0.0007197077 0.0007083991 0.000704767 0.0007078159
 0.0007179891 0.0007315358 0.0007456424 0.000756705 0.0007608545 0.0007596556 0.0007516874 0.0007438356 0.0007375075 0.0007388386
 0.0007497211 0.000769806 0.0007997141 0.0008333156 0.0008703121 0.0009033224 0.0009320438 0.0009510531 0.0009605617 0.0009590507
 0.0009476831 0.0009300747 0.0009078488 0.0008873409 0.0008689985 0.0008567836 0.000849865 0.0008487042 0.0008526235 0.0008612953
 0.0008738643 0.0008900805 0.0009080738 0.0009268752 0.000945874 0.0009642048 0.0009845012 0.001007246 0.001033619 0.001064203
 0.001094979 0.001125762 0.001151466 0.001172006 0.001186441 0.001194978 0.001198875 0.001197937 0.001191853 0.001180588
 0.001163183 0.001141422 0.00111732 0.001094616 0.001078882 0.001072749 0.00108201 0.001102659 0.001135718 0.001170802
 0.001203404 0.001228211 0.001241189 0.001248743 0.001250927 0.001256913 0.00126823 0.00128575 0.001309759 0.001335296
 0.001362177 0.001387332 0.001410765 0.001431232 0.001448581 0.001461002 0.001469321 0.001474382 0.001478157 0.001484986
 0.001495488 0.001512821 0.001535168 0.001562272 0.001591568 0.001621465 0.001650071 0.001676139 0.001699014 0.001717912
 0.001734536 0.001748831 0.001763955 0.001780313 0.001799718 0.001822386 0.001847278 0.001874225 0.001899623 0.001923054
 0.001939419 0.001948829 0.001948201 0.001939656 0.001926567 0.001912943 0.001908242 0.001914178 0.001938611 0.001976502
 0.00202702 0.002082378 0.002137183 0.002187499 0.002229543 0.002265279 0.00229411 0.00232046 0.002345334 0.00237014
 0.002395495 0.002418407 0.002438769 0.002452196 0.002458561 0.002455841 0.002444661 0.002428308 0.00240876 0.002396377
 0.002392629 0.002408605 0.002440682 0.002488049 0.002544628 0.002601084 0.002656121 0.002704825 0.002748985 0.002788988
 0.002824228 0.002854781 0.002879019 0.002895659 0.002907797 0.002915068 0.002925174 0.002938966 0.002962293 0.002995749
 0.003039635 0.003093792 0.003153733 0.003218846 0.003282115 0.003343349 0.003397779 0.00344607 0.003487753 0.003523275
 0.003553345 0.00357799 0.003596934 0.003611943 0.003623869 0.003636281 0.003652006 0.003672201 0.00369863 0.003729046
 0.00376305 0.003799177 0.003836784 0.003877089 0.003920226 0.003966686 0.004016608 0.004067342 0.004118796 0.004169086
 0.004218829 0.004272251 0.00433031 0.004400522 0.004481336 0.004573022 0.004671683 0.004769345 0.004864579 0.004951471
 0.005031861 0.00510546 0.00517399 0.005238597 0.005300015 0.005358794 0.005415433 0.00547028 0.005522986 0.005573141
 0.005622701 0.005670896 0.005729331 0.005798695 0.005891873 0.006008805 0.006139636 0.006282284 0.006413231 0.006533738
 0.00663585 0.006725106 0.006813452 0.006905268 0.00701671 0.007144582 0.007293432 0.007452724 0.007614235 0.007769539
 0.007907872 0.008035098 0.008147505 0.008266682 0.008398228 0.008558783 0.008755632 0.0089779 0.009225834 0.009481611
 0.009743406 0.01001274 0.01028967 0.01057797 0.01087591 0.01116894 0.01145602 0.01172174 0.01197242 0.0122176
 0.01246619 0.01274478 0.01304718 0.01338024 0.0137236 0.01405781 0.01437557 0.01466304 0.01493025 0.01517804
 0.01541692 0.01565092 0.0158832 0.01611369 0.01635142 0.0165949 0.01687741 0.01720136 0.01759572 0.01806018
 0.01855567 0.01907768 0.01956512 0.02002399 0.02045028 0.02085393 0.02126328 0.02168216 0.02213129 0.02261185
 0.0231304 0.02369753 0.02431982 0.02502399 0.02582932 0.02675534 0.02782864 0.02900547 0.03029011 0.03158424
 0.03286742 0.03407832 0.03520275 0.03624079 0.03719002 0.0380834 0.03892337 0.03976976 0.04062826 0.04158221
 0.04262491 0.04378096 0.04501406 0.04621895 0.04738613 0.04843313 0.04939838 0.05030449 0.05117815 0.05205951
 0.05294507 0.05384361 0.05475013 0.05566074 0.05658672 0.05753483 0.05849377 0.0594663 0.06041599 0.06133624
 0.06222271 0.06307389 0.06390665 0.06472094 0.06549586 0.06622832 0.06687722 0.06744707 0.06793649 0.06835634
 0.06874206 0.06909408 0.06943514 0.06974875 0.07001622 0.07023747 0.07039918 0.07052483 0.07062788 0.07072096
 0.07081781 0.07090577 0.07098582 0.07103579 0.07105098 0.07101737 0.07093163 0.07079281 0.07059962 0.0703726
 0.07011297 0.06984984 0.0695823 0.06931292 0.06903794 0.06873955 0.06841645 0.068054 0.06765639 0.06722251
 0.06676406 0.06629702 0.06583162 0.06538687 0.06495894 0.06455196 0.06415705 0.06376749 0.06339115 0.06302629
 0.06269435 0.06240172 0.06215033 0.06194367 0.06175803 0.06159196 0.06142341 0.06125154 0.06107509 0.06089547
 0.06072703 0.06057017 0.06043516 0.06031953 0.06022098 0.06013677 0.06005954 0.05998892 0.05992052 0.05985684
 0.05979814 0.05974866 0.0597114 0.05968935 0.05968497 0.05969859 0.05973011 0.05978265 0.05985617 0.05995774
 0.06008915 0.06024847 0.06043652 0.06063451 0.06084142 0.06103499 0.06121478 0.06136861 0.06149641 0.06159168
 0.06165344 0.06167399 0.06165489 0.0615935 0.06149749 0.06137492 0.06123823 0.06110341 0.06097781 0.06087452
 0.06078576 0.06071296 0.06064085 0.06056309 0.06047633 0.06037439 0.0602842 0.06020864 0.06017096 0.06017566
 0.06019267 0.06022049 0.06022551 0.06020817 0.06016239 0.06008922 0.05999155 0.0598679 0.05971586 0.0595313
 0.0593043 0.05903144 0.05870014 0.05831813 0.05788474 0.05742011 0.05694306 0.05645117 0.05595206 0.05542413
 0.05485801 0.05425559 0.05361142 0.05295584 0.05229232 0.05164484 0.05101693 0.05040181 0.04979917 0.04919384
 0.04858692 0.04798491 0.04739163 0.04683262 0.04630692 0.04582787 0.04538538 0.04496488 0.04455519 0.04413248
 0.04369185 0.04322028 0.0427136 0.04216772 0.04157075 0.04091292 0.0401972 0.0394069 0.03862153 0.0378517
 0.03718618 0.03665078 0.03619887 0.03583121 0.03545893 0.03507789 0.03466218 0.03421571 0.0337758 0.03334519
 0.03296164 0.03261605 0.03229625 0.03199634 0.03169121 0.0313947 0.03111435 0.03087108 0.03069452 0.03058415
 0.03055254 0.03058227 0.03066679 0.03079643 0.03096468 0.03117488 0.03142486 0.03172899 0.03208761 0.03252521
 0.03304512 0.03364941 0.03433773 0.03503627 0.035739 0.03634901 0.03687066 0.03727693 0.03757932 0.03780189
 0.03795296 0.03806178 0.03813459 0.03819137 0.03824166 0.03829988 0.03838181 0.03850606 0.03867341 0.03889781
 0.03914167 0.03939552 0.03962845 0.0398277 0.03999897 0.04014046 0.0402677 0.04038227 0.04048996 0.04059111
 0.04068012 0.04075659 0.04081395 0.04085279 0.04087292 0.04087562 0.04086528 0.04084231 0.04081011 0.04076753
 0.04071322 0.04064906 0.04057335 0.04049805 0.04042794 0.04038438 0.04037911 0.0404278 0.04054179 0.04071352
 0.04094549 0.04121603 0.04152149 0.0418524 0.04220689 0.04259181 0.0430074 0.04344904 0.04391479 0.04437826
 0.04483876 0.04527783 0.04569852 0.0461027 0.04649077 0.04686692 0.04722451 0.04755634 0.04785274 0.04810016
 0.04829287 0.04842152 0.04848634 0.0484845 0.04841963 0.04829171 0.04810664 0.04786432 0.04757699 0.04724499
 0.04688944 0.04651223 0.04613022 0.04574438 0.04535329 0.04495628 0.04454313 0.04411505 0.04367293 0.04322065
 0.04277321 0.04233136 0.04190593 0.04149159 0.04108479 0.04067997 0.04026864 0.03985037 0.03942084 0.03898514
 0.03854368 0.03810496 0.03767171 0.03725145 0.03684721 0.03645904 0.03608812 0.03572728 0.03537585 0.03502966
 0.03468843 0.0343621 0.03405189 0.03377705 0.03353724 0.0333413 0.03318568 0.0330625 0.03296889 0.03289407
 0.03283745 0.03279402 0.03276212 0.03273893 0.03272051 0.032703 0.0326837 0.03265981 0.03263151 0.03259854
 0.03256029 0.03251714 0.03246538 0.03240438 0.03233214 0.03224798 0.03215704 0.03205957 0.03196523 0.0318744
 0.03179399 0.0317241 0.03166858 0.03162777 0.03160524 0.03160035 0.03161421 0.03164392 0.03168555 0.03173592
 0.03178952 0.03184562 0.03190178 0.03195841 0.03201588 0.03207172 0.03212577 0.03217329 0.032213 0.03224212
 0.03225972 0.03226694 0.03226386 0.03225068 0.03222744 0.03218907 0.03213533 0.03206096 0.03196713 0.03185773
 0.03173548 0.03161272 0.03149058 0.03137857 0.03127492 0.03118056 0.03109455 0.03101549 0.03094481 0.03088336
 0.03083179 0.03079114 0.03075998 0.03073787 0.03072425 0.03071916 0.03072107 0.03073053 0.03074018 0.03074962
 0.03074973 0.03073991 0.03071962 0.03068936 0.03065695 0.03062252 0.03059123 0.03056159 0.03053025 0.03049701
 0.03045817 0.03041808 0.0303815 0.03035467 0.03034783 0.03036152 0.03040139 0.03046008 0.0305353 0.03062024
 0.03071084 0.03080752 0.03090983 0.03101815 0.03113365 0.03124741 0.03135893 0.03145736 0.03154194 0.03161436
 0.03167544 0.031739 0.03180551 0.03188593 0.03197769 0.03207777 0.03218177 0.03227689 0.03236134 0.03242477
 0.03247148 0.0325016 0.03252202 0.03253941 0.03255504 0.03257326 0.0325868 0.03259432 0.03258798 0.03256483
 0.03252391 0.03246427 0.03238898 0.03229828 0.03219393 0.032076 0.03194797 0.0318104 0.03167294 0.03153611
 0.03140898 0.03128986 0.03117748 0.03106935 0.03095747 0.03084326 0.03072442 0.03060593 0.03049343 0.03038869
 0.03029657 0.03021248 0.0301355 0.03006056 0.02998482 0.02990806 0.02982943 0.02975082 0.02967261 0.02959488
 0.02951772 0.02944045 0.02936298 0.02928667 0.02921169 0.02914131 0.02907568 0.0290174 0.02896641 0.02892359
 0.02888945 0.02886546 0.02885276 0.02885456 0.02886997 0.02890052 0.02894105 0.02898803 0.02903662 0.02908129
 0.02912609 0.0291691 0.02922408 0.02929365 0.02939105 0.02951977 0.0296821 0.02987945 0.03010219 0.0303499
 0.03060893 0.03087882 0.0311508 0.03142522 0.03170034 0.03197642 0.03225378 0.03253197 0.03280948 0.03308716
 0.03336477 0.03364608 0.03393592 0.03423622 0.03455286 0.03487779 0.03521105 0.03553452 0.0358413 0.03611794
 0.03635706 0.03656459 0.03673851 0.03689932 0.03704899 0.0372027 0.03736172 0.03752596 0.03769517 0.03786381
 0.03803235 0.03820096 0.03837128 0.03854948 0.03873764 0.0389441 0.03917049 0.03942432 0.03970415 0.04001261
 0.04034372 0.04069417 0.04105647 0.04142573 0.04179602 0.04216428 0.04252549 0.04287726 0.04321902 0.04354892
 0.04387736 0.04420467 0.04454653 0.04490411 0.04528112 0.04567695 0.04607902 0.04648599 0.04688212 0.04726737
 0.04763371 0.04798087 0.04830501 0.04860349 0.04887004 0.04910204 0.04929144 0.04944385 0.04955753 0.04965033
 0.04973069 0.04981723 0.04992121 0.0500458 0.05019539 0.05036201 0.05054421 0.05074034 0.05094939 0.05117883
 0.05142908 0.05170502 0.0520065 0.05233056 0.05267614 0.05303456 0.05340444 0.05377519 0.05414667 0.05451246
 0.05487481 0.05523565 0.05559491 0.05595574 0.05631009 0.05665364 0.05697476 0.05726442 0.05751855 0.05773135
 0.05791046 0.05805538 0.05818056 0.05828831 0.05839038 0.05848887 0.05858528 0.05868002 0.05876614 0.05884334
 0.05890606 0.05895438 0.05898659 0.05900235 0.05899893 0.05897691 0.05893502 0.05887744 0.05881086 0.05873981
 0.05867409 0.05861235 0.05855742 0.05850497 0.058452 0.0583996 0.05834646 0.05829854 0.05825758 0.0582262
 0.05820591 0.05819273 0.05818658 0.05818156 0.0581772 0.05817156 0.05816463 0.05815787 0.05815075 0.05814053
 0.05812518 0.05809423 0.05804681 0.05797371 0.05787862 0.05776305 0.05763371 0.05749938 0.05736618 0.05724215
 0.05713213 0.0570417 0.05697196 0.05692622 0.05689757 0.05688553 0.0568801 0.05687864 0.05687926 0.05688076
 0.0568902 0.05690795 0.05694066 0.05698837 0.05705062 0.05712605 0.05720497 0.05728401 0.05734425 0.05738195
 0.05737633 0.05732756 0.05722446 0.05707348 0.05687684 0.05664531 0.05638828 0.05611685 0.05584082 0.0555655
 0.05529674 0.05503092 0.0547691 0.05450271 0.0542309 0.05394384 0.05364083 0.05330913 0.05294786 0.05254557
 0.05210223 0.05162018 0.05110127 0.05056161 0.05000192 0.04943451 0.04885702 0.04826866 0.04766816 0.04705144
 0.04642155 0.04578023 0.04513193 0.04448097 0.04383146 0.04318605 0.04255119 0.04192923 0.04132859 0.04075237
 0.04020482 0.03968827 0.03919779 0.03873366 0.03828499 0.03785102 0.03742373 0.03700298 0.03658842 0.03618046
 0.03578214 0.03539355 0.03501612 0.03465071 0.03429998 0.03396602 0.03365498 0.03336575 0.03310122 0.03285439
 0.03262001 0.03239193 0.03216299 0.03193615 0.03170961 0.03149255 0.03128748 0.03110022 0.03093305 0.03078444
 0.03065509 0.03053699 0.0304298 0.03032161 0.03021192 0.03009233 0.02996375 0.02982936 0.0296916 0.02956332
 0.02944571 0.02934974 0.02927305 0.02921724 0.02917709 0.02914644 0.02912059 0.02909219 0.0290611 0.02902372
 0.02898592 0.02894908 0.0289192 0.0288997 0.02888744 0.02888327 0.0288775 0.02886852 0.028854 0.02883321
 0.02881745 0.0288073 0.02881474 0.0288391 0.02887972 0.02893518 0.02899764 0.02906857 0.0291474 0.02923797
 0.02934839 0.02947943 0.02963718 0.02981631 0.03001502 0.03022515 0.03044097 0.03065681 0.03086873 0.03107408
 0.03127143 0.03145884 0.03163555 0.03180132 0.03195547 0.03210407 0.03224743 0.03239378 0.03254323 0.03269318
 0.03284179 0.03297175 0.03308152 0.03315318 0.03318974 0.03318905 0.03315878 0.03311245 0.03305788 0.03301256
 0.03297796 0.03296426 0.03296227 0.03297114 0.03297515 0.03296658 0.03293671 0.03287895 0.03280103 0.03270167
 0.0325996 0.03249677 0.03240949 0.03233942 0.03229084 0.03226367 0.0322489 0.03224556 0.03224022 0.03223395
 0.03222363 0.03221321 0.03221351 0.03222606 0.03226117 0.03231316 0.03237895 0.03245166 0.03252152 0.03259072
 0.03265655 0.03272661 0.03280573 0.03289111 0.03298532 0.03307302 0.03315133 0.03320982 0.03324569 0.03326355
 0.0332633 0.03325496 0.03323904 0.03322426 0.0332117 0.03321472 0.03323449 0.03328551 0.03336459 0.0334711
 0.03359811 0.0337305 0.03386515 0.03399055 0.03410807 0.03421576 0.03431297 0.03439857 0.03447265 0.03453285
 0.03458806 0.03463945 0.03469922 0.0347705 0.03485882 0.03496577 0.03508991 0.03523143 0.03538555 0.0355519
 0.03572005 0.03588939 0.03604899 0.03620004 0.03634174 0.03647735 0.03661641 0.03676133 0.03692255 0.03709849
 0.0372935 0.03749899 0.03771066 0.03791328 0.03809564 0.03824603 0.03835368 0.03842285 0.03844984 0.03845376
 0.03843676 0.03842097 0.03840983 0.03841661 0.03844319 0.03848703 0.03854777 0.0386087 0.03866861 0.03870886
 0.03872955 0.03872055 0.03868446 0.03862211 0.03854025 0.03845192 0.03836568 0.03830165 0.03825859 0.03824677
 0.03824957 0.03825913 0.03826065 0.03824179 0.0382079 0.03815663 0.03810199 0.03804761 0.037997 0.03795145
 0.03790861 0.03786806 0.03783441 0.03780797 0.03779712 0.03780198 0.03782723 0.03787211 0.03793639 0.03801731
 0.0381073 0.03820138 0.03828475 0.03835569 0.03840235 0.03843382 0.03845185 0.03847456 0.03851584 0.03858547
 0.03869753 0.03883224 0.03899142 0.03913227 0.03924423 0.03930679 0.03931111 0.0392892 0.03924205 0.03921514
 0.0392103 0.0392343 0.03928481 0.03933915 0.03939737 0.0394472 0.03949275 0.03954145 0.03959539 0.03966384
 0.03974426 0.03983801 0.03993899 0.04004247 0.04014052 0.04022567 0.04029439 0.04034135 0.04037241 0.04038784
 0.04039534 0.04039779 0.04039333 0.04038297 0.04035603 0.04031159 0.04024333 0.04015112 0.04004487 0.03992638
 0.03981856 0.03972269 0.0396583 0.03962354 0.0396233 0.03965364 0.03970981 0.03978516 0.03986974 0.03995283
 0.04001866 0.04006332 0.04007445 0.04006808 0.04004527 0.04003399 0.04004749 0.04008681 0.04015898 0.04023214
 0.04030044 0.04036007 0.04040901 0.04046952 0.04054257 0.04063833 0.04075507 0.04087843 0.04100388 0.04109932
 0.0411631 0.04116909 0.04112697 0.04104153 0.04093165 0.0408302 0.04074412 0.04069852 0.04067685 0.04067516
 0.04067784 0.04067203 0.04066461 0.04065421 0.04065303 0.04066592 0.04068726 0.04071826 0.0407413 0.04075494
 0.04074658 0.04071554 0.04065793 0.0405736 0.04045966 0.04031561 0.04013521 0.03992158 0.03967693 0.03941523
 0.03916689 0.03894695 0.0387998 0.03871035 0.03868638 0.03868881 0.03868384 0.03867004 0.03862878 0.03860221
 0.03860444 0.03865073 0.03875444 0.03887745 0.03901794 0.03912813 0.0392024 0.03922675 0.03920058 0.03916199
 0.03911596 0.03913521 0.03921906 0.03940836 0.03968434 0.04000701 0.04035584 0.04065781 0.04092092 0.0411188
 0.04128425 0.04144306 0.04162037 0.04184726 0.04212235 0.04245606 0.04283004 0.04324106 0.04367069 0.04411495
 0.04455728 0.0449957 0.04541085 0.04580057 0.04615451 0.04647213 0.04677003 0.04704933 0.04733281 0.04761443
 0.04787392 0.04809967 0.04823522 0.04828708 0.04823373 0.04810748 0.04794876 0.04778566 0.04766987 0.04759888
 0.04759304 0.04762356 0.04768693 0.04773678 0.04775917 0.04770827 0.04756529 0.04733395 0.04700445 0.04664999
 0.04627471 0.04596072 0.04571251 0.04555776 0.0454944 0.04550398 0.0455833 0.04570547 0.04586904 0.04605485
 0.0462631 0.04648564 0.04672139 0.04696803 0.04721649 0.04745806 0.04767916 0.04786571 0.04801284 0.04811278
 0.04817065 0.04818534 0.04816726 0.04811651 0.04805315 0.04797996 0.0479147 0.04786104 0.04780393 0.04774269
 0.04763652 0.04748501 0.04727085 0.04699865 0.0466871 0.04633946 0.04597719 0.04559992 0.04521604 0.04482724
 0.04443884 0.04405525 0.04368362 0.0433261 0.04298711 0.0426655 0.04236294 0.04207356 0.04179614 0.04152376
 0.04125347 0.04098677 0.04072228 0.04047157 0.04023523 0.04002772 0.03984988</values></Ydata></AB><ScSm><Ydata ylabel="Single channel"><values byteorder="INTEL" format="FLOAT32" numvalues="1814"> 0.0648741 0.0648845 0.06494546 0.065079 0.06526577 0.06545289 0.06558987 0.06566273 0.06568636 0.06567053
 0.06562245 0.06558435 0.06562705 0.0657812 0.06599151 0.06615342 0.06619675 0.06614859 0.06611902 0.06619363
 0.06631751 0.06631121 0.06603895 0.06556307 0.06510396 0.06483923 0.06479359 0.06496124 0.06541028 0.0660824
 0.06657049 0.06640992 0.06566292 0.06493816 0.06471759 0.06489758 0.06507459 0.06500788 0.06469167 0.06427181
 0.06409391 0.06460443 0.06590917 0.06741813 0.06806131 0.06696123 0.06405646 0.06030506 0.05733738 0.05658415
 0.05826664 0.0610996 0.06325284 0.06381118 0.06321855 0.06236188 0.06162048 0.06096935 0.06057905 0.06084491
 0.06183247 0.06291349 0.06308615 0.06181907 0.059683 0.05796185 0.05749141 0.05812598 0.05940692 0.06106682
 0.06233597 0.06154075 0.05774062 0.05281639 0.05064091 0.053398 0.05925407 0.06416532 0.06548486 0.06342863
 0.05988403 0.05684524 0.05568655 0.0567856 0.05942436 0.06239218 0.06473835 0.065826 0.06515956 0.06280714
 0.05982787 0.05775977 0.05767392 0.05975832 0.06327721 0.06662674 0.068063 0.06699622 0.06438392 0.06170903
 0.06000005 0.05984261 0.06152162 0.06471503 0.06847718 0.07180175 0.07404049 0.07494891 0.07472032 0.07386853
 0.07284164 0.07195314 0.07166157 0.07228638 0.07326357 0.0733604 0.07202151 0.07011059 0.06901928 0.06922975
 0.06993315 0.07001542 0.06918114 0.06776616 0.06563614 0.06218915 0.05772573 0.05379328 0.05164063 0.0512751
 0.05239225 0.05486608 0.05765957 0.05874358 0.05730932 0.05519754 0.05506326 0.05754735 0.06094931 0.06332858
 0.06430334 0.06492174 0.06629522 0.06845242 0.07018679 0.06995682 0.06741279 0.06426971 0.0631021 0.06481976
 0.06779571 0.06987623 0.07065669 0.07125156 0.07234612 0.07313795 0.072165 0.06903163 0.06536767 0.06383993
 0.06582986 0.07004463 0.07344764 0.07351021 0.06992012 0.06466445 0.06047793 0.05894577 0.06006396 0.06327233
 0.0680766 0.07351871 0.07792191 0.07982282 0.07904086 0.07660095 0.0735641 0.07004206 0.06575477 0.061666
 0.06018476 0.06288175 0.06847559 0.07390245 0.07705308 0.07782386 0.07691736 0.07453233 0.07056454 0.06587812
 0.06272796 0.0630125 0.06599623 0.06872518 0.06912604 0.06789681 0.06698322 0.06713028 0.0676062 0.06772353
 0.06781657 0.068684 0.07046712 0.07235317 0.07337509 0.0732947 0.07263917 0.07207509 0.07180078 0.07140777
 0.0704594 0.06937553 0.0693775 0.07115413 0.07391246 0.07619025 0.07731959 0.07766736 0.07765919 0.07703511
 0.07523181 0.07244729 0.07007152 0.0696521 0.07139585 0.07404273 0.07617627 0.07723965 0.07739793 0.07702582
 0.07645542 0.07586677 0.07534157 0.07509704 0.07543547 0.07631418 0.07724188 0.07776994 0.07785974 0.07767025
 0.07724473 0.07656606 0.07577711 0.07519139 0.07507181 0.07543169 0.07606663 0.0767394 0.07726634 0.07748416
 0.07730687 0.07684863 0.07635587 0.07598439 0.07574619 0.07565895 0.07579322 0.07613534 0.07652467 0.07678795
 0.07687511 0.07683291 0.07670596 0.07650794 0.07626045 0.07602617 0.07589917 0.0759431 0.07611722 0.07629944
 0.07642189 0.07653737 0.07669759 0.07682612 0.07679977 0.07662079 0.07642516 0.07633332 0.07635361 0.07642098
 0.07646662 0.07642779 0.07623929 0.07589058 0.07550681 0.0753051 0.07541929 0.07580034 0.07629883 0.07677683
 0.07712854 0.07729477 0.07730994 0.0772705 0.07722168 0.07712212 0.07693575 0.07672087 0.07661201 0.07671534
 0.07701255 0.07737224 0.07766178 0.07782954 0.07789129 0.07790127 0.0779407 0.07805625 0.07818876 0.0782288
 0.07815817 0.07807924 0.07809043 0.07817642 0.07823707 0.07820506 0.07812267 0.07809795 0.07818842 0.07834825
 0.07849596 0.07860553 0.07871298 0.07884707 0.07896942 0.07899521 0.07888804 0.0787195 0.07859994 0.07856099
 0.07855463 0.0785591 0.07861876 0.07876074 0.07892537 0.0790188 0.07901518 0.07897572 0.07896645 0.07898068
 0.07895645 0.0788563 0.07870925 0.07857922 0.07851161 0.07850906 0.07853919 0.07855704 0.07852918 0.07844925
 0.07833718 0.07822149 0.07811862 0.07803439 0.07798912 0.0780198 0.07812992 0.07824458 0.07825163 0.078105
 0.07787456 0.07768033 0.07758074 0.07753232 0.07745306 0.07730871 0.07713103 0.07696963 0.07684691 0.07675481
 0.07667336 0.07658866 0.07651077 0.07647967 0.07653257 0.07664801 0.07673813 0.07672158 0.07660177 0.07645703
 0.07636216 0.07633743 0.07635911 0.07639335 0.07642522 0.0764712 0.07655104 0.07664121 0.0766861 0.0766689
 0.07664064 0.07666534 0.0767664 0.07692972 0.07711657 0.07726382 0.0773176 0.07729058 0.07725827 0.07728375
 0.07736646 0.07746966 0.07757053 0.07766882 0.07776826 0.07787356 0.07800235 0.07818179 0.07842347 0.07870234
 0.07896417 0.0791609 0.0792893 0.07940031 0.07956354 0.07981342 0.08012447 0.08043614 0.08070198 0.08092035
 0.08112195 0.0813306 0.0815455 0.08176541 0.08201216 0.08230847 0.08264226 0.0829756 0.08328599 0.08358058
 0.08387338 0.08416677 0.08445812 0.08475517 0.08507933 0.08544707 0.08583963 0.08619907 0.08647205 0.08666161
 0.08683021 0.08705366 0.08736764 0.0877376 0.08807264 0.08829716 0.08843026 0.08857439 0.08880421 0.08908775
 0.08934544 0.08956537 0.08981815 0.09015799 0.09054672 0.09089172 0.09113987 0.09131952 0.09149738 0.09170575
 0.0919151 0.09207749 0.09218793 0.09228796 0.09241312 0.09256648 0.09275388 0.09300811 0.09334418 0.09371214
 0.0940312 0.09426292 0.09442636 0.09455636 0.09467483 0.09478977 0.09489587 0.09498428 0.09506541 0.09516351
 0.0952777 0.09537654 0.09544796 0.09552646 0.09565271 0.09583299 0.09605637 0.09632177 0.09662057 0.09691659
 0.09718192 0.09744513 0.09776238 0.09812912 0.09845722 0.09866545 0.09876521 0.09882762 0.09889619 0.09897695
 0.09909242 0.09928574 0.0995657 0.09988988 0.1002125 0.1005213 0.1008235 0.1011176 0.1013865 0.1016048
 0.1017509 0.1018254 0.1018623 0.1019191 0.1020478 0.1022622 0.102526 0.1027781 0.1029749 0.1031014
 0.1031487 0.1031089 0.1030093 0.1029235 0.1029131 0.1029551 0.1029499 0.102804 0.10249 0.1020304
 0.1014523 0.1007782 0.1000467 0.0993217 0.09867508 0.09816334 0.09782399 0.0976913 0.09780166 0.0981628
 0.09871465 0.09934 0.09992085 0.1003693 0.1006075 0.100561 0.1002041 0.09959491 0.09884395 0.09805453
 0.09729439 0.09658968 0.09592395 0.09527157 0.09466787 0.09424111 0.09415581 0.09452462 0.09536961 0.09663183
 0.09818383 0.09984492 0.1014304 0.1028208 0.1039935 0.1049917 0.1058725 0.1066825 0.1074558 0.1082042
 0.1089091 0.1095437 0.1101049 0.1106134 0.1110836 0.1115097 0.1118765 0.1121719 0.1123988 0.1125791
 0.112736 0.112863 0.1129293 0.1129268 0.1128883 0.1128448 0.1127788 0.1126355 0.112368 0.1119671
 0.1114702 0.1109747 0.1106473 0.1106944 0.1112763 0.1124107 0.1139501 0.115661 0.1173276 0.1187961
 0.1199744 0.1208421 0.1214601 0.1219322 0.1223448 0.1227412 0.1231356 0.1235279 0.1239081 0.1242655
 0.1246004 0.124925 0.1252571 0.1256069 0.1259639 0.1263013 0.1266024 0.1268839 0.1271874 0.1275423
 0.1279336 0.1283138 0.1286553 0.1289801 0.1293218 0.1296701 0.1299826 0.1302436 0.1304838 0.130743
 0.1310413 0.1313783 0.1317319 0.1320614 0.1323362 0.1325652 0.1327835 0.1330155 0.1332627 0.1335196
 0.1337843 0.1340544 0.1343271 0.134608 0.1349095 0.135231 0.1355426 0.1358042 0.1360064 0.1361832
 0.1363784 0.1366051 0.136842 0.1370635 0.1372697 0.1374914 0.137761 0.1380748 0.1383869 0.1386473
 0.1388439 0.1390061 0.1391736 0.1393687 0.1395935 0.1398385 0.1400896 0.1403317 0.1405589 0.1407806
 0.1410118 0.141256 0.1415015 0.1417358 0.1419586 0.1421788 0.1424034 0.1426323 0.1428646 0.143109
 0.1433772 0.1436635 0.1439385 0.1441731 0.1443656 0.1445366 0.1447069 0.1448873 0.1450839 0.1452977
 0.1455216 0.1457461 0.1459684 0.1461926 0.1464229 0.1466586 0.1468949 0.1471262 0.147349 0.1475622
 0.1477695 0.1479813 0.1482068 0.1484428 0.1486736 0.1488877 0.14909 0.1492944 0.1495093 0.1497317
 0.149953 0.1501676 0.1503778 0.1505901 0.1508069 0.1510238 0.1512358 0.1514419 0.1516451 0.1518504
 0.1520618 0.1522801 0.1525037 0.1527302 0.1529549 0.1531705 0.1533723 0.153563 0.1537521 0.1539499
 0.1541601 0.154378 0.1545963 0.1548123 0.1550272 0.1552401 0.1554492 0.1556552 0.1558609 0.1560677
 0.1562763 0.156487 0.1566987 0.1569116 0.1571283 0.1573496 0.1575729 0.1577954 0.1580153 0.1582296
 0.158437 0.1586413 0.1588487 0.1590631 0.1592839 0.1595068 0.1597282 0.1599518 0.160184 0.1604214
 0.1606515 0.1608673 0.1610749 0.1612844 0.1615002 0.1617176 0.161927 0.1621214 0.1623046 0.1624865
 0.1626754 0.1628739 0.1630789 0.1632815 0.163476 0.1636678 0.1638653 0.1640708 0.164283 0.1645014
 0.1647213 0.1649346 0.1651402 0.1653439 0.16555 0.1657599 0.1659754 0.1661964 0.1664201 0.166643
 0.166861 0.1670702 0.1672727 0.1674773 0.1676905 0.1679136 0.1681427 0.1683677 0.1685788 0.1687802
 0.1689852 0.1691983 0.1694147 0.1696319 0.1698482 0.1700591 0.1702658 0.1704769 0.1706946 0.1709118
 0.1711227 0.1713271 0.171531 0.1717452 0.1719724 0.1721982 0.1724094 0.1726106 0.1728113 0.1730135
 0.1732201 0.1734364 0.1736591 0.1738803 0.1740996 0.1743174 0.1745298 0.1747374 0.1749394 0.1751181
 0.1752312 0.1751777 0.1746948 0.1732447 0.1699971 0.1639965 0.1545452 0.1416358 0.1260994 0.1093111
 0.09269316 0.07734876 0.06394204 0.05276442 0.04387005 0.03717414 0.03252049 0.02978166 0.02895646 0.03026473
 0.03425231 0.04146923 0.0512586 0.06068276 0.06566289 0.06419326 0.05825446 0.05200812 0.04834301 0.04748148
 0.04821081 0.04948635 0.05096612 0.05282498 0.05538096 0.05872907 0.06271981 0.06735025 0.07295407 0.07977243
 0.08744553 0.0951667 0.1023769 0.1091998 0.1161582 0.1235365 0.1310739 0.1382169 0.1445576 0.150032
 0.1548219 0.1591624 0.1632138 0.1670492 0.1707044 0.1741785 0.1773518 0.1799497 0.1816764 0.1824428
 0.1824719 0.1821725 0.1818982 0.1818122 0.1819292 0.1822192 0.1826551 0.1832123 0.183869 0.1846057
 0.185398 0.1862202 0.1870527 0.1878756 0.1886638 0.1893999 0.1900816 0.1907095 0.1912794 0.1917896
 0.1922469 0.1926642 0.1930581 0.1934421 0.1938182 0.1941799 0.1945217 0.1948419 0.1951379 0.1954069
 0.1956501 0.195875 0.1960945 0.196321 0.1965562 0.196791 0.1970176 0.1972365 0.1974511 0.1976627
 0.1978731 0.1980834 0.1982908 0.1984929 0.1986915 0.1988897 0.1990873 0.1992827 0.199475 0.1996645
 0.199854 0.200047 0.2002432 0.2004403 0.2006388 0.2008405 0.2010423 0.2012375 0.2014223 0.2016003
 0.2017836 0.201988 0.2022193 0.2024649 0.202706 0.2029344 0.2031517 0.2033595 0.203561 0.2037619
 0.2039617 0.2041503 0.2043214 0.204485 0.2046633 0.2048697 0.2050932 0.2053076 0.2055006 0.2056839
 0.2058727 0.2060677 0.2062616 0.2064505 0.2066379 0.2068396 0.2070738 0.2073332 0.207586 0.2078165
 0.2080409 0.2082751 0.2085171 0.2087632 0.2090085 0.2092277 0.2093917 0.2095157 0.20967 0.2099248
 0.2102806 0.2106577 0.2109676 0.2111921 0.2113821 0.2115949 0.2118553 0.212139 0.212361 0.2124347
 0.2123991 0.2124392 0.212715 0.2132 0.2137317 0.2141788 0.2145225 0.2148105 0.2150817 0.2153299
 0.2155111 0.2155901 0.2156021 0.2156732 0.2159359 0.2163929 0.2169029 0.2173277 0.2176462 0.2179021
 0.2181238 0.2183213 0.2184591 0.2184107 0.2180903 0.2176876 0.2176195 0.2181299 0.2190142 0.2198378
 0.2203671 0.2206908 0.220971 0.2212411 0.2214587 0.2215497 0.2213075 0.220506 0.2193409 0.2185633
 0.2188587 0.2201533 0.2217353 0.222968 0.2236943 0.2240789 0.2243263 0.2245414 0.2246538 0.2244321
 0.2237425 0.222884 0.2225109 0.2230313 0.2241488 0.2251808 0.2257598 0.226026 0.2262525 0.2265373
 0.2267386 0.2264413 0.2251861 0.2231448 0.2214663 0.2214727 0.2233652 0.2259834 0.227959 0.2288952
 0.2292554 0.2293534 0.2288949 0.2275104 0.2253014 0.2227886 0.2207713 0.2202464 0.2217467 0.2244856
 0.2267954 0.2277768 0.2280593 0.2287292 0.2300232 0.2313193 0.2319645 0.2317883 0.2309884 0.2297677
 0.2282385 0.2267714 0.2262007 0.2272283 0.2295722 0.2320696 0.2337535 0.2345887 0.2349631 0.2345535
 0.2320963 0.2269108 0.2208017 0.2175525 0.2195769 0.2253898 0.2312046 0.2346571 0.2360891 0.2367612
 0.2371756 0.236944 0.2349935 0.2301302 0.2228945 0.2167653 0.2158193 0.2206939 0.2278684 0.2329612
 0.2337408 0.2303824 0.224663 0.2194103 0.2173453 0.2194367 0.2244874 0.2303171 0.2350704 0.237715
 0.2380219 0.236462 0.2341616 0.2326277 0.2326614 0.2331638 0.2319619 0.2285576 0.2249677 0.2227532
 0.2205766 0.2166529 0.2126856 0.2127373 0.2179656 0.2247018 0.2285854 0.2289862 0.228186 0.2271949
 0.2239748 0.2163475 0.2061167 0.1991073 0.2000742 0.2077817 0.2161224 0.2200996 0.2197868 0.2185123
 0.2184101 0.2182603 0.2152322 0.2086012 0.2015953 0.1986691 0.2007327 0.2043086 0.2056079 0.2035489
 0.1983847 0.1904532 0.1823487 0.179684 0.1863315 0.199641 0.2125364 0.2193426 0.217806 0.2077625
 0.1919511 0.177714 0.173409 0.1809007 0.1932932 0.201292 0.2005536 0.1923826 0.179774 0.1654276
 0.1530428 0.1475775 0.15223 0.1652506 0.1801061 0.188712 0.1858373 0.1731735 0.1597351 0.1553456
 0.1616639 0.1710671 0.1752363 0.1727261 0.1676571 0.1643845 0.1650022 0.1691256 0.1743027 0.1782699
 0.1807423 0.1808275 0.1745552 0.1596573 0.1419487 0.1315361 0.1323139 0.1398856 0.1496539 0.1609742
 0.1720091 0.1768644 0.1722442 0.1637551 0.1611902 0.1681331 0.1788631 0.1853555 0.1852331 0.1822344
 0.1803872 0.1796737 0.178078 0.1763113 0.1779497 0.184533 0.1928909 0.1986782 0.2008811 0.2014316
 0.2019093 0.2023445 0.202332 0.2017433 0.200644 0.1993879 0.1985174 0.1981438 0.1978381 0.1972724
 0.1961839 0.1933784 0.1870014 0.1771672 0.1676346 0.1628575 0.1632791 0.1656054 0.1676785 0.1697216
 0.1697937 0.1625447 0.1462767 0.128697 0.1213119 0.1283261 0.1435244 0.1573423 0.1641865 0.1629148
 0.1539617 0.1394846 0.1256618 0.1208176 0.128673 0.1447752 0.1612378 0.1735279 0.1810713 0.1835436
 0.1799943 0.1715097 0.1623556 0.1575837 0.1599275 0.1685477 0.1793397 0.1860363 0.1832311 0.1717081
 0.1609165 0.1620771 0.1764099 0.1931327 0.2015754 0.2020302 0.2015783 0.2030728 0.2036407 0.2023398
 0.2033163 0.2100508 0.2201797 0.2278047 0.2286595 0.221781 0.2089887 0.1953707 0.1879851 0.1901991
 0.1978716 0.2038769 0.2050233 0.2016433 0.1933691 0.1809313 0.1706876 0.1707945 0.1817434 0.1952556
 0.2037023 0.2070622 0.2094866 0.2121662 0.2119191 0.2060594 0.1969219 0.1904379 0.1902614 0.1945408
 0.198992 0.2013943 0.2016253 0.19911 0.1931786 0.1859338 0.1822563 0.185548 0.1941957 0.2030832
 0.2081687 0.2089994 0.2074657 0.2053909 0.2033463 0.2008162 0.1973675 0.1941748 0.1938115 0.1974906
 0.2030992 0.20735 0.209543 0.2118063 0.2157516 0.2202492 0.2227979 0.2222471 0.2198822 0.2182938
 0.2192878 0.222446 0.2254363 0.2260028 0.2241115 0.2221841 0.2228705 0.2265211 0.2311396 0.234648
 0.2365856 0.2376846 0.2386395 0.2395055 0.239668 0.2383213 0.2356059 0.233259 0.2333766 0.2363325
 0.2404183 0.2435983 0.2451497 0.2455605 0.2454152 0.2447861 0.2435528 0.2419497 0.2405916 0.2399905
 0.2401846 0.2408576 0.2416734 0.2424311 0.2430432 0.2435052 0.2438619 0.2441467 0.2443685 0.2445501
 0.2447123 0.2448162 0.244804 0.2447217 0.2447256 0.2449134 0.2451998 0.2454093 0.245436 0.2452486
 0.2447918 0.2439931 0.242869 0.24153 0.2400481 0.2384094 0.2366943 0.2352799 0.2347397 0.2354338
 0.2371789 0.2393465 0.2412852 0.2426586 0.2434633 0.243855 0.2440023 0.2440309 0.2440099 0.2439537
 0.243846 0.2436764 0.2434585 0.2432187 0.2429775 0.2427467 0.2425406 0.2423765 0.2422556 0.2421463
 0.2419934 0.2417519 0.2414162 0.2410184 0.240593 0.2401401 0.2396215 0.2389951 0.2382547 0.2374413
 0.236624 0.2358629 0.2351708 0.2345044 0.2338025 0.2330309 0.2321744 0.2312006 0.2300832 0.2288749
 0.2277105 0.2266987 0.2258268 0.2249903 0.2240903 0.223084 0.2219738 0.2207864 0.2195551 0.2182975
 0.2170089 0.2156844 0.2143342 0.2129637 0.2115552 0.210082 0.208537 0.2069364 0.2053038 0.2036521
 0.2019616 0.2001598 0.1981289 0.1957438 0.1929054 0.1895531 0.1856768 0.1813388 0.1766818 0.171899
 0.1671832 0.1626914 0.1585439 0.1548386 0.1516553 0.1490528 0.1470693 0.1457291 0.1450391 0.1449867
 0.1455465 0.1466823 0.1483299 0.1503824 0.1526999 0.1551335 0.1575386 0.1597889 0.1618096 0.16361
 0.1652644 0.166839 0.168336 0.1697151 0.1709528 0.1720538 0.1730161 0.1738196 0.1744603 0.1749735
 0.1754121 0.1758148 0.1761981 0.1765627 0.1768997 0.1771963 0.1774455 0.177653 0.1778356 0.1780122
 0.178198 0.1784033 0.178636 0.1789076 0.1792387 0.1796504 0.180144 0.1806959 0.1812809 0.1818906
 0.1825219 0.1831669 0.1838313 0.1845548 0.1853921 0.1863708 0.1874693 0.1886316 0.1897955 0.1909105
 0.1919397 0.1928567 0.1936426 0.1942817 0.1947595 0.1950744 0.1952502 0.1953241 0.1953223 0.1952608
 0.1951647 0.1950671 0.1949846 0.1949104 0.1948329 0.1947501 0.1946675 0.1945924 0.194529 0.194469
 0.1943895 0.1942724 0.1941231 0.1939642 0.1938086 0.1936467 0.1934617 0.1932504 0.1930218 0.192781
 0.1925206 0.1922234 0.1918631 0.1914088 0.19084 0.1901545 0.1893569 0.188446 0.1874251 0.1863158
 0.1851435 0.1839124 0.182605 0.1812078 0.1797253 0.1781656 0.1765184 0.1747653 0.172917 0.1710344
 0.1692012 0.1674776 0.1658786 0.1643838 0.1629623 0.1615968 0.1602891 0.1590383 0.1578262 0.1566354
 0.1554709 0.1543494 0.153279 0.1522624 0.1513108 0.1504421 0.1496713 0.1490037 0.1484342 0.1479548
 0.1475625 0.1472556 0.1470318 0.1468979 0.1468641 0.1469145 0.1469977 0.1470565 0.1470573 0.146993
 0.1468796 0.1467514 0.1466436 0.1465741 0.1465339 0.1464799 0.1463378 0.1460271 0.1454816 0.1446498
 0.1435063 0.1420786 0.1404442 0.1387075 0.1369896 0.1354146 0.1340684 0.1329753 0.1321177 0.1314548
 0.1309277 0.1304866 0.1301293 0.1299031 0.1298609 0.1299943 0.130191 0.1302919 0.1302374 0.1301383
 0.1301785 0.1304667 0.1309793 0.1315971 0.1321834 0.1326628 0.1330311 0.1332997 0.1334712 0.1335652
 0.1336084 0.1335929 0.1334888 0.133287 0.1330054 0.1326769 0.1323394 0.1320003 0.1316177 0.131146
 0.1305762 0.1299168 0.1291781 0.1283742 0.1274889 0.126476 0.1253671 0.1243489 0.1236739 0.1235098
 0.1238653 0.1245987 0.1255139 0.126486 0.1274316 0.1281535 0.128414 0.1283038 0.1283987 0.1293351
 0.1312041 0.1334504 0.135367 0.1366039 0.1371915 0.1372464 0.136823 0.1359536 0.1346426 0.1328498
 0.1305933 0.1279978 0.1251951 0.1223053 0.1195181 0.1170309 0.1149302 0.1132274 0.1119188 0.1110302
 0.1106673 0.1104952 0.1088024 0.1033745 0.09490338 0.0885408 0.08956707 0.09744598 0.1061924 0.1107017
 0.1108185 0.109253 0.107891 0.107032 0.1065835 0.1066663 0.1073874 0.1086098 0.1099661 0.1110691
 0.1117591 0.1120861 0.1120288 0.1112593 0.1091054 0.1048079 0.09813416 0.08988215 0.08160169 0.07471149
 0.06987779 0.06701268 0.06555814 0.06481397 0.06430025 0.06399065 0.064197 0.06520675 0.06703451 0.06948969
 0.07236473 0.07544293 0.07839422 0.08087267 0.08276768 0.08421932 0.08535095 0.08611046 0.08639874 0.0862357
 0.08575192 0.0850843 0.08431956 0.08349746 0.08261293 0.08162376 0.08053443 0.07949956 0.07875666 0.07840547
 0.07832902 0.07835781 0.07841395 0.07847808 0.07852831 0.07854767 0.0785339 0.07851115 0.07855843 0.07876293
 0.0791055 0.07944801 0.07965942 0.07972368 0.07972226 0.07970525 0.07956849 0.07914297 0.07847497 0.0778685
 0.07749227 0.07709488 0.07633619 0.07530773 0.07449676 0.07426293 0.07451914 0.074909 0.07514184 0.07514122
 0.07502492 0.07503528 0.07537626 0.0759717</values></Ydata></ScSm><ScRf><Ydata ylabel="Single channel"><values byteorder="INTEL" format="FLOAT32" numvalues="1820"> 0.06043507 0.06059016 0.06069141 0.06073748 0.06075129 0.06077414 0.06084808 0.06099083 0.0611815 0.06136759
 0.06149688 0.06155301 0.06155392 0.06151914 0.06146436 0.06143041 0.06147769 0.06162817 0.06182752 0.06197865
 0.06201731 0.06197114 0.06194647 0.06202377 0.06214782 0.06214788 0.06189875 0.06146029 0.06103471 0.06078201
 0.06072427 0.06086291 0.06127288 0.06190656 0.06237809 0.06224002 0.06154382 0.06086421 0.06065916 0.06083056
 0.0609958 0.06092899 0.06062706 0.06022678 0.06005238 0.0605284 0.06176208 0.06319884 0.06381982 0.06278326
 0.06002664 0.05646452 0.05365266 0.05295112 0.05456412 0.05726384 0.05930989 0.05983702 0.05927449 0.05847131
 0.0577867 0.05718529 0.05681523 0.05704997 0.05796408 0.05897475 0.05913465 0.05793646 0.05591927 0.05429803
 0.0538586 0.05445645 0.05565687 0.05721153 0.05839671 0.05763301 0.05403724 0.04939537 0.04737034 0.05001767
 0.05558872 0.06024838 0.06149261 0.05953677 0.05618267 0.05332293 0.05224315 0.05327833 0.05574505 0.05851773
 0.06071751 0.06174407 0.06111979 0.05890455 0.0561 0.05415888 0.05409236 0.0560794 0.05942323 0.06260012
 0.06395428 0.06292965 0.06044078 0.05790073 0.05628983 0.05616243 0.05777911 0.06082226 0.06439106 0.06753677
 0.06965071 0.07050079 0.07026982 0.06945311 0.06848752 0.06766969 0.06741612 0.0680105 0.06891912 0.0689936
 0.0677259 0.06593418 0.06492162 0.06512945 0.065786 0.06584151 0.0650276 0.06367168 0.06164797 0.05838189
 0.05415422 0.05042918 0.04838969 0.04804724 0.04912327 0.0515031 0.05419438 0.05525719 0.05391535 0.05191489
 0.05177957 0.05412527 0.05734559 0.05960045 0.06052494 0.06111432 0.06242753 0.06449217 0.06615681 0.06595089
 0.0635415 0.06056374 0.05946949 0.0611214 0.06396616 0.06595533 0.06671193 0.06730069 0.0683646 0.06912714
 0.06820084 0.06523312 0.06179195 0.06039866 0.0623318 0.06634672 0.06957383 0.06963155 0.06622674 0.06124136
 0.05727357 0.05583601 0.05693394 0.0600431 0.06469224 0.06995794 0.07423358 0.07612106 0.07544088 0.07315983
 0.07028964 0.06694755 0.062876 0.05900285 0.05764011 0.06029615 0.06573993 0.07102705 0.07412983 0.07494681
 0.07414612 0.07190494 0.06811315 0.06361739 0.06062916 0.06100639 0.06402282 0.06678221 0.06725594 0.06613032
 0.06531243 0.06553337 0.06607795 0.0662763 0.06646262 0.06742348 0.06929064 0.07125282 0.07235038 0.07234798
 0.07177216 0.07129297 0.0711143 0.07082817 0.06999604 0.06903865 0.06917371 0.07107533 0.07393543 0.07629117
 0.07748732 0.07790321 0.07796773 0.07741566 0.07567678 0.07295119 0.07064585 0.07032878 0.07220826 0.07500128
 0.07726638 0.07844265 0.07870737 0.07844289 0.077978 0.07749049 0.07706895 0.07693939 0.07740298 0.07840437
 0.07943862 0.08005384 0.0802175 0.08009289 0.07972315 0.07909647 0.07837067 0.07787194 0.0778608 0.07833523
 0.07907556 0.07983838 0.08044143 0.08072381 0.08060129 0.08019467 0.07976211 0.07946659 0.07931635 0.07932126
 0.07954973 0.07999019 0.08048048 0.08083987 0.08101116 0.08104137 0.08098188 0.08085045 0.08066656 0.08049348
 0.08043414 0.08055736 0.08081259 0.08106585 0.08125713 0.08146067 0.08173066 0.0819596 0.08198723 0.08181231
 0.08160464 0.08152153 0.08158091 0.08170332 0.08180213 0.08180355 0.08163802 0.08129936 0.08092567 0.08074768
 0.08090839 0.08136571 0.08197255 0.08257757 0.08304588 0.08329342 0.08335176 0.08333115 0.08329155 0.08320147
 0.08303179 0.082845 0.08277789 0.08294061 0.08331667 0.08376296 0.08412379 0.08433403 0.08442158 0.08446886
 0.08457647 0.08478257 0.08499487 0.08507435 0.08500821 0.08493525 0.08497915 0.08510895 0.08518956 0.0851431
 0.08503781 0.08501617 0.08514646 0.08536395 0.08556011 0.0857023 0.08584766 0.08604886 0.08626157 0.08636335
 0.08628387 0.08609847 0.08595178 0.08590341 0.08590813 0.08593851 0.08604179 0.08624558 0.08647294 0.08660716
 0.08662082 0.08659841 0.08662922 0.08670491 0.08673732 0.0866615 0.08650164 0.08634368 0.08626509 0.08628798
 0.08637281 0.08644541 0.08644521 0.08636517 0.08624747 0.08613807 0.08605326 0.08600056 0.08601992 0.08616586
 0.08642386 0.08666439 0.08672327 0.08654761 0.08625323 0.08602338 0.08594745 0.08595759 0.08591443 0.08574186
 0.08547854 0.08521995 0.08503214 0.08491746 0.08483972 0.08477017 0.08472018 0.084737 0.08485073 0.08500875
 0.08508296 0.08497773 0.08472757 0.08446276 0.08428822 0.08422022 0.08421697 0.08422874 0.08423203 0.08424866
 0.08431378 0.08440481 0.08443984 0.08437368 0.08425877 0.08419052 0.08423063 0.08438592 0.0846024 0.08476949
 0.08479439 0.0846988 0.0846 0.08458506 0.08464247 0.08471915 0.08479469 0.08488007 0.08497996 0.08508801
 0.08521038 0.08537081 0.08558481 0.08583386 0.08606902 0.08624496 0.0863581 0.08645774 0.08661486 0.08686762
 0.08718802 0.08750236 0.08775053 0.08793302 0.08809964 0.08829127 0.08850321 0.08871546 0.08894023 0.08921133
 0.08953222 0.08986458 0.09017097 0.09044686 0.09070885 0.09097119 0.09124194 0.09153577 0.09188088 0.09229556
 0.09274375 0.09313199 0.09338216 0.09350988 0.09361804 0.09381655 0.09414624 0.09454821 0.09489473 0.09508926
 0.09516522 0.09525836 0.09545818 0.0957216 0.09596352 0.09619316 0.09650539 0.09694513 0.09742993 0.09782308
 0.09806158 0.09820001 0.09833816 0.09851706 0.09869149 0.09880443 0.09887028 0.09895843 0.09910432 0.09928295
 0.09948183 0.09974687 0.1001155 0.100539 0.1009176 0.1011964 0.1013932 0.1015491 0.1016829 0.1017846
 0.1018337 0.1018347 0.1018404 0.1019111 0.1020393 0.1021498 0.1021916 0.1021999 0.1022499 0.1023827
 0.1025961 0.102874 0.1031881 0.1034897 0.1037486 0.1040042 0.1043271 0.1047114 0.1050437 0.1052212
 0.1052667 0.1052842 0.1053282 0.1053812 0.1054421 0.105565 0.1057916 0.1060985 0.1064331 0.1067716
 0.1071194 0.1074734 0.1077982 0.1080376 0.1081513 0.1081512 0.1081053 0.1081036 0.1082137 0.1084498
 0.1087669 0.1090895 0.1093569 0.1095411 0.1096285 0.109616 0.1095476 0.1095225 0.1096201 0.1098097
 0.1099623 0.1099577 0.1097603 0.1093967 0.1088976 0.1082876 0.1076147 0.1069596 0.1064067 0.1060088
 0.1057864 0.1057591 0.1059604 0.1064012 0.107023 0.1077096 0.1083518 0.1088736 0.1091967 0.1092286
 0.1089267 0.1083538 0.107641 0.1069071 0.1062216 0.1056045 0.1050308 0.1044645 0.1039392 0.1036005
 0.1036406 0.1041819 0.1052128 0.1065988 0.1081293 0.109583 0.11081 0.1117844 0.1125794 0.1132841
 0.1139472 0.1145916 0.1152431 0.1159095 0.1165485 0.1171028 0.1175686 0.1179944 0.1184139 0.1188118
 0.1191548 0.1194269 0.1196399 0.1198303 0.1200309 0.1202236 0.1203425 0.1203459 0.1202642 0.1201547
 0.1200334 0.1198671 0.1196125 0.1192507 0.1188171 0.118425 0.118251 0.1184621 0.1191234 0.1201589
 0.1214066 0.1227167 0.123993 0.125152 0.1260973 0.1267722 0.127215 0.127529 0.1278044 0.1280852
 0.1283832 0.1286943 0.1290033 0.1292964 0.1295732 0.1298496 0.1301485 0.1304808 0.1308238 0.1311302
 0.1313748 0.1315919 0.1318511 0.1321903 0.1325771 0.1329432 0.1332591 0.133559 0.1338816 0.1342061
 0.1344743 0.1346676 0.134832 0.1350315 0.1353035 0.135649 0.1360281 0.1363686 0.1366157 0.1367827
 0.1369355 0.1371254 0.1373568 0.1376103 0.1378709 0.1381276 0.1383725 0.1386164 0.1388888 0.1392032
 0.139524 0.1397868 0.1399616 0.1400852 0.1402238 0.1404118 0.1406316 0.1408477 0.141051 0.1412712
 0.1415432 0.1418616 0.1421719 0.142414 0.1425729 0.1426849 0.1428023 0.1429569 0.1431512 0.1433697
 0.1435932 0.143807 0.1440055 0.1441965 0.1443948 0.1446082 0.1448301 0.1450485 0.145259 0.1454657
 0.1456731 0.1458833 0.1461004 0.1463352 0.1465976 0.1468807 0.1471557 0.1473897 0.1475696 0.1477083
 0.1478325 0.1479663 0.1481225 0.1483007 0.148494 0.1486966 0.148904 0.1491105 0.1493129 0.1495142
 0.1497188 0.1499277 0.1501386 0.1503498 0.1505634 0.1507855 0.1510211 0.1512639 0.1514964 0.1517028
 0.1518823 0.1520496 0.1522233 0.1524121 0.1526096 0.1528042 0.1529923 0.1531787 0.1533678 0.1535603
 0.153757 0.1539576 0.154159 0.1543583 0.1545544 0.1547475 0.1549389 0.155132 0.155328 0.1555226
 0.1557099 0.1558897 0.1560704 0.1562629 0.1564698 0.1566822 0.1568895 0.1570916 0.157295 0.1574995
 0.1576978 0.157887 0.1580724 0.1582597 0.1584501 0.1586432 0.1588407 0.1590432 0.1592452 0.1594403
 0.1596314 0.1598309 0.1600446 0.1602652 0.1604829 0.1606964 0.1609082 0.1611187 0.1613286 0.1615395
 0.1617502 0.1619595 0.1621691 0.1623802 0.1625911 0.1628015 0.1630139 0.1632287 0.1634422 0.1636475
 0.1638386 0.164016 0.1641882 0.1643621 0.1645364 0.1647092 0.1648832 0.1650602 0.1652367 0.1654113
 0.1655886 0.165777 0.1659836 0.1662075 0.1664359 0.1666528 0.1668535 0.1670443 0.1672325 0.1674226
 0.1676179 0.1678192 0.168024 0.1682316 0.1684441 0.168665 0.1688948 0.1691253 0.169342 0.1695406
 0.1697345 0.1699372 0.1701496 0.1703674 0.1705882 0.1708058 0.1710131 0.1712096 0.1714003 0.1715916
 0.1717919 0.1720055 0.1722235 0.1724352 0.1726417 0.1728481 0.173054 0.1732595 0.1734676 0.1736777
 0.1738894 0.1741074 0.1743311 0.1745514 0.1747658 0.1749795 0.175192 0.1754 0.1756069 0.1758162
 0.176025 0.1762332 0.17644 0.1766285 0.1767557 0.1767124 0.1762231 0.1747408 0.1714332 0.1653427
 0.1557617 0.1426742 0.1269216 0.109911 0.09309563 0.07758775 0.06404404 0.05275254 0.04377356 0.03702706
 0.03235359 0.02961676 0.02880449 0.03012913 0.03414147 0.0414074 0.05127494 0.06077904 0.06579307 0.06428611
 0.05826515 0.05194903 0.0482644 0.04742667 0.04819124 0.04949085 0.05098315 0.05285483 0.05543454 0.05882052
 0.06285955 0.06754294 0.0732026 0.08008412 0.08783294 0.09563912 0.1029299 0.1098153 0.1168172 0.1242322
 0.1318132 0.1390132 0.1454222 0.1509678 0.1558202 0.1602033 0.1642763 0.1681236 0.1717977 0.1753066
 0.1785263 0.1811675 0.1829186 0.1836811 0.1836833 0.1833514 0.1830516 0.1829408 0.1830195 0.1832579
 0.1836494 0.1841905 0.1848628 0.1856316 0.1864509 0.1872817 0.1881067 0.1889191 0.189704 0.1904421
 0.1911212 0.1917371 0.192291 0.1927905 0.1932445 0.1936612 0.1940518 0.1944292 0.1947973 0.1951514
 0.1954888 0.1958086 0.196106 0.196375 0.1966187 0.1968468 0.1970679 0.1972849 0.1974964 0.1977008
 0.1978995 0.1980964 0.1982952 0.1984996 0.1987111 0.1989236 0.1991276 0.1993214 0.1995133 0.1997082
 0.1999016 0.2000878 0.2002671 0.2004468 0.2006359 0.2008369 0.2010419 0.2012377 0.2014209 0.2016029
 0.2018003 0.2020187 0.2022454 0.2024598 0.2026552 0.2028455 0.2030467 0.2032577 0.2034687 0.2036782
 0.2038902 0.2041046 0.2043204 0.2045389 0.2047522 0.2049412 0.2050958 0.2052349 0.205394 0.2055937
 0.2058207 0.2060449 0.2062514 0.2064491 0.2066498 0.2068518 0.207046 0.2072272 0.2073998 0.2075824
 0.2077973 0.2080433 0.2082938 0.2085313 0.2087638 0.2090008 0.20924 0.2094796 0.2097155 0.2099247
 0.2100833 0.2102095 0.2103693 0.2106264 0.2109784 0.2113477 0.2116481 0.211864 0.2120498 0.2122674
 0.2125436 0.2128521 0.2130982 0.2131785 0.2131218 0.2131226 0.2133637 0.2138329 0.2143654 0.214823
 0.2151815 0.2154811 0.215753 0.2159891 0.2161499 0.2162051 0.2161954 0.216254 0.2165165 0.2169794
 0.21749 0.2179051 0.2182079 0.2184494 0.21866 0.2188473 0.2189737 0.2189147 0.2185867 0.2181787
 0.2181046 0.218606 0.2194805 0.2202976 0.2208225 0.2211332 0.2213849 0.2216215 0.2218202 0.2219126
 0.2216783 0.2208786 0.2197158 0.2189554 0.2192816 0.2206004 0.2221832 0.2233959 0.2240954 0.2244575
 0.224692 0.2249078 0.2250324 0.2248231 0.2241345 0.2232668 0.2228889 0.2234225 0.2245713 0.225641
 0.2262495 0.2265269 0.2267447 0.2270092 0.2271918 0.2268848 0.2256286 0.2235936 0.2219284 0.2219533
 0.2238687 0.2265164 0.2285272 0.2294962 0.2298784 0.2299863 0.2295266 0.2281282 0.2258929 0.2233504
 0.2213172 0.2208052 0.2223427 0.2251191 0.2274475 0.2284353 0.2287308 0.2294265 0.2307514 0.2320758
 0.2327416 0.2325746 0.2317763 0.2305607 0.2290465 0.2276027 0.2270595 0.2281164 0.2304884 0.2330109
 0.2347193 0.2355815 0.2359851 0.2355979 0.2331406 0.2279254 0.2217759 0.218514 0.2205782 0.2264708
 0.2323683 0.2358802 0.2373497 0.2380518 0.2384947 0.2382824 0.2363276 0.2314267 0.2241322 0.2179637
 0.2170382 0.2219925 0.229266 0.2344386 0.2352631 0.2319122 0.2261706 0.2208909 0.218827 0.2209659
 0.226105 0.2320423 0.2368957 0.2396138 0.2399632 0.2384189 0.2361172 0.234583 0.2346352 0.2351706
 0.2339942 0.2305991 0.227021 0.2248358 0.2226895 0.2187771 0.214826 0.2149527 0.2203297 0.227236
 0.231249 0.2317278 0.230983 0.2300391 0.2268335 0.2191578 0.208841 0.2018034 0.2028865 0.2108324
 0.2194141 0.2235442 0.2233168 0.2221415 0.2221902 0.2221946 0.2192424 0.2125965 0.2055837 0.2027801
 0.2051112 0.2090082 0.2105962 0.2087609 0.2037241 0.1958007 0.1876751 0.1851735 0.1923134 0.2063495
 0.2199511 0.2272421 0.2258846 0.2156915 0.1994994 0.1849734 0.1808588 0.1891023 0.2024729 0.2112364
 0.210851 0.2026815 0.1898564 0.1752181 0.1627152 0.1576768 0.1635765 0.178568 0.1955864 0.2058005
 0.2034331 0.1903011 0.1763372 0.172415 0.1803681 0.1917059 0.197154 0.1950934 0.1901279 0.1871763
 0.1886742 0.1942203 0.2009814 0.2063352 0.2099524 0.2107356 0.2039537 0.1869104 0.1664473 0.1544599
 0.1555407 0.164547 0.1761148 0.1895155 0.2025711 0.2082936 0.2027698 0.1926122 0.1893812 0.1973045
 0.2096396 0.2169427 0.2164275 0.2124996 0.2099102 0.2086747 0.2064526 0.2040552 0.2056265 0.2129641
 0.2224054 0.2289061 0.2312675 0.2317182 0.2321048 0.2324809 0.2323747 0.2316234 0.2302938 0.2287968
 0.2277664 0.2273395 0.2270262 0.2264567 0.2253416 0.2223025 0.2151658 0.204013 0.1931487 0.1877023
 0.1881824 0.1907933 0.1930697 0.1953087 0.1953071 0.1869085 0.1681423 0.1478705 0.1393425 0.1474001
 0.1648739 0.1807341 0.1885384 0.1869802 0.1765676 0.1597833 0.1437194 0.1379039 0.1465555 0.1645231
 0.1827635 0.1961324 0.2040602 0.2062704 0.201739 0.1917128 0.1810033 0.1752681 0.1775168 0.1867414
 0.1983173 0.2052768 0.2016733 0.1884232 0.1759661 0.1766509 0.1918212 0.2096511 0.2184418 0.2185076
 0.2176039 0.218872 0.2191856 0.2174957 0.2182928 0.2253784 0.2362399 0.2445295 0.245643 0.2385308
 0.2251431 0.210963 0.2035975 0.2066282 0.2154725 0.222335 0.2237576 0.2201531 0.2111689 0.197647
 0.1865745 0.1868826 0.1990811 0.2140665 0.2234669 0.2272688 0.2300324 0.2330542 0.2328259 0.226395
 0.2163374 0.2091782 0.2089287 0.2135561 0.2183849 0.2210345 0.2214155 0.2188849 0.2126549 0.2050044
 0.2013198 0.2053754 0.215386 0.2256685 0.2317235 0.233025 0.231636 0.2295444 0.2273623 0.2245097
 0.2205137 0.2167052 0.2159803 0.2197137 0.2255666 0.2298813 0.2318738 0.2339112 0.2377998 0.2423065
 0.2446693 0.2436153 0.240561 0.2383565 0.2389858 0.2419965 0.2448467 0.2450791 0.2426619 0.240245
 0.2407259 0.24449 0.2493612 0.2530749 0.255123 0.2562845 0.2572933 0.2581978 0.2583334 0.2568303
 0.2538333 0.2512112 0.2512308 0.2543111 0.2586262 0.2619961 0.263653 0.2641229 0.2640213 0.2634088
 0.2621473 0.2604876 0.2590852 0.2584807 0.2587084 0.2594289 0.2602798 0.2610342 0.2615879 0.261947
 0.2621887 0.2623706 0.2625046 0.2626123 0.2627197 0.2627878 0.2627516 0.2626588 0.2626733 0.2628837
 0.2631796 0.263371 0.2633603 0.2631239 0.2625956 0.2616928 0.2604511 0.2590191 0.2574848 0.2558164
 0.2540802 0.2526781 0.2522261 0.2530946 0.2550667 0.2574705 0.2596334 0.2612146 0.2622001 0.2627248
 0.2629463 0.2630063 0.2630031 0.2629617 0.2628494 0.2626349 0.2623282 0.2619634 0.2615673 0.2611614
 0.2607821 0.2604658 0.2602093 0.2599609 0.2596598 0.2592756 0.2588137 0.2582996 0.2577567 0.2571818
 0.2565373 0.255779 0.2548992 0.2539448 0.2529965 0.2521241 0.2513435 0.2506128 0.2498734 0.2490883
 0.2482255 0.2472336 0.2460901 0.2448809 0.2437802 0.2429107 0.2422405 0.2416306 0.2409569 0.2401689
 0.2392688 0.2382825 0.2372482 0.2361986 0.2351386 0.2340458 0.232888 0.2316378 0.2302833 0.2288342
 0.227312 0.2257358 0.2241226 0.2224879 0.2208232 0.2190666 0.2171032 0.2147949 0.212015 0.2086729
 0.2047381 0.2002654 0.195409 0.1903985 0.1854702 0.1808024 0.1765102 0.1726812 0.1693959 0.1667161
 0.1646777 0.1633004 0.1626024 0.1626034 0.1633112 0.1646976 0.1666839 0.1691493 0.171948 0.1749209
 0.1779027 0.1807381 0.1833255 0.1856647 0.1878422 0.1899334 0.1919219 0.1937319 0.1953205 0.1967018
 0.1978968 0.1989028 0.199719 0.2003749 0.2009216 0.2013997 0.2018234 0.2021942 0.2025179 0.2028
 0.2030367 0.2032266 0.203389 0.2035561 0.2037509 0.2039796 0.2042413 0.2045458 0.2049175 0.2053744
 0.2058989 0.2064493 0.2070039 0.2075765 0.208188 0.208847 0.2095667 0.2103812 0.2113345 0.212453
 0.2137234 0.2150931 0.2164901 0.217837 0.2190528 0.2200654 0.220833 0.2213502 0.2216348 0.2217214
 0.2216573 0.2214819 0.2212093 0.220838 0.2203728 0.2198314 0.2192385 0.2186156 0.2179715 0.2173025
 0.2166086 0.2159055 0.2152127 0.2145344 0.2138617 0.2131934 0.2125452 0.2119342 0.2113555 0.2107842
 0.2102013 0.2096081 0.209018 0.2084427 0.207886 0.2073302 0.206729 0.2060307 0.2052147 0.2042957
 0.2032906 0.2021966 0.2010039 0.1997159 0.1983472 0.1969092 0.1954055 0.1938389 0.1922135 0.1905217
 0.1887356 0.1868299 0.1848257 0.1827989 0.1808355 0.1789856 0.1772617 0.1756576 0.174156 0.1727368
 0.1713913 0.1701196 0.1689151 0.1677667 0.1666705 0.1656269 0.1646316 0.1636812 0.1627845 0.1619609
 0.1612346 0.1606216 0.160112 0.1596743 0.1592829 0.1589371 0.1586594 0.158487 0.1584448 0.1585041
 0.1585829 0.1586023 0.1585339 0.1583948 0.1582244 0.1580658 0.1579455 0.1578661 0.1578159 0.1577639
 0.1576427 0.1573567 0.1568174 0.1559674 0.1547902 0.1533127 0.1515989 0.1497471 0.1478931 0.1461835
 0.144723 0.1435545 0.1426743 0.1420343 0.1415488 0.1411479 0.1408257 0.1406315 0.1406225 0.1408008
 0.1410607 0.1412383 0.1412678 0.1412634 0.1414125 0.1418215 0.1424658 0.1432289 0.1439759 0.144627
 0.1451624 0.1455652 0.145814 0.145931 0.1459685 0.1459467 0.1458504 0.1456673 0.1453968 0.1450526
 0.1446647 0.1442457 0.1437719 0.1432232 0.1425981 0.1418819 0.1410604 0.1401505 0.139151 0.1380176
 0.1367835 0.1356574 0.1349232 0.1347691 0.1352029 0.1360592 0.1371047 0.13819 0.1392353 0.1400568
 0.1404158 0.1403904 0.1405574 0.1415852 0.1436057 0.1460617 0.1481894 0.149581 0.1502557 0.150351
 0.1499376 0.1490497 0.1476787 0.1457631 0.1433139 0.140474 0.1373987 0.1342193 0.1311335 0.1283533
 0.1259852 0.1240657 0.1226092 0.121647 0.1212862 0.1211427 0.1193164 0.1133659 0.1040675 0.09709932
 0.09825552 0.1069304 0.1165553 0.1215447 0.121734 0.1200795 0.1186193 0.1176605 0.1171151 0.1171575
 0.1179319 0.1192745 0.1207606 0.1219677 0.1227331 0.1231076 0.1230505 0.1221883 0.1197789 0.1149896
 0.1075693 0.09841213 0.08925447 0.08167638 0.07638858 0.0732538 0.0716524 0.07084364 0.0703149 0.07001729
 0.07026482 0.07136391 0.07335234 0.07606496 0.07930145 0.08279926 0.0861443 0.0889385 0.09109005 0.09278928
 0.09418121 0.09519468 0.09570125 0.09570466 0.09533118 0.09472373 0.09399049 0.0931899 0.09229704 0.09122275
 0.0899656 0.08874568 0.0878796 0.08749141 0.08742861 0.08746095 0.08746126 0.0874064 0.08732247 0.08724941
 0.08720593 0.08720626 0.08731808 0.08762366 0.08809503 0.08857393 0.08890113 0.0890401 0.08907229 0.0890557
 0.0888824 0.08837938 0.08761165 0.08690849 0.08643095 0.08588775 0.08491486 0.08363237 0.08258972 0.08218955
 0.0823396 0.08264855 0.08279578 0.08269359 0.08246687 0.08238256 0.08267148 0.0832587 0.08373411 0.08373492
</values></Ydata></ScRf><Data_Parameters_AB><parameter name="DPF">1</parameter><parameter name="NPT">3497</parameter><parameter name="FXV">3996</parameter><parameter name="LXV">500</parameter><parameter name="CSF">1</parameter><parameter name="MXY">0.0710509791970253</parameter><parameter name="MNY">-0.029099877923727</parameter><parameter name="DAT">27/05/2022</parameter><parameter name="TIM">11:31:06.513 (GMT+2)</parameter><parameter name="DXU">WN</parameter></Data_Parameters_AB><AB__Qtest><MainReport name="Quality Test Report"><Header><Line><Legend>Test result ok/not ok [1/0]: </Legend><Value>0</Value></Line><Line><Legend>Method file: </Legend><Value>C:\Users\Public\Documents\Bruker\OPUS_8.2.28\QT\IRBT_v3_default.QT</Value></Line></Header><Matrix><Line><Legend></Legend><Legend>min</Legend><Legend>max</Legend><Legend>measured</Legend></Line><Line><Value>Absorption (X-Range 1):</Value><Value>0.400000</Value><Value>2.000000</Value><Value>0.070346</Value></Line><Line><Value>Noise (X-Range 4):</Value><Value></Value><Value>0.000300</Value><Value>0.000053</Value></Line><Line><Value>Signal/Noise (X-Range 2):</Value><Value>200.000000</Value><Value></Value><Value>31.352138</Value></Line><Line><Value>Signal/Noise (X-Range 3):</Value><Value>40.000000</Value><Value></Value><Value>19.549804</Value></Line><Line><Value>Water vapour (X-Range 5):</Value><Value></Value><Value>0.000300</Value><Value>0.000049</Value></Line><Line><Value>Signal/Water (X-Range 2):</Value><Value>100.000000</Value><Value></Value><Value>33.954620</Value></Line><Line><Value>Signal/Water (X-Range 3):</Value><Value>20.000000</Value><Value></Value><Value>21.172596</Value></Line><Line><Value>Fringes (X-Range 6):</Value><Value></Value><Value>0.000100</Value><Value>0.000080</Value></Line></Matrix></MainReport></AB__Qtest><Data_Parameters_ScSm><parameter name="DPF">1</parameter><parameter name="NPT">1814</parameter><parameter name="FXV">3996.33169228125</parameter><parameter name="LXV">499.541461535156</parameter><parameter name="CSF">1</parameter><parameter name="MXY">0.245560497045517</parameter><parameter name="MNY">0.0289564616978168</parameter><parameter name="DAT">27/05/2022</parameter><parameter name="TIM">11:31:06.513 (GMT+2)</parameter><parameter name="DXU">WN</parameter></Data_Parameters_ScSm><Data_Parameters_ScRf><parameter name="DPF">1</parameter><parameter name="NPT">1820</parameter><parameter name="FXV">4004.04661832813</parameter><parameter name="LXV">495.683998511719</parameter><parameter name="CSF">1</parameter><parameter name="MXY">0.264122903347015</parameter><parameter name="MNY">0.0288044922053814</parameter><parameter name="DAT">27/05/2022</parameter><parameter name="TIM">11:30:40.664 (GMT+2)</parameter><parameter name="DXU">WN</parameter></Data_Parameters_ScRf><Optic_Parameters_Rf><parameter name="APR">0</parameter><parameter name="APT">Open</parameter><parameter name="BMS">KBr</parameter><parameter name="DTC">RT-DLaTGS_IR-Biotyper [Microplate reader]</parameter><parameter name="HPF">0</parameter><parameter name="LPF">10.0</parameter><parameter name="LPV">4000</parameter><parameter name="PGR">0</parameter><parameter name="RCH">Module port</parameter><parameter name="RDX">0</parameter><parameter name="SRC">MIR</parameter><parameter name="VEL">10.0</parameter><parameter name="SON">Off</parameter></Optic_Parameters_Rf><Acquisition_Parameters_Rf><parameter name="ADT">1</parameter><parameter name="AQM">DD</parameter><parameter name="CFE">0</parameter><parameter name="COR">0</parameter><parameter name="DEL">0</parameter><parameter name="DLY">0</parameter><parameter name="HFW">8000</parameter><parameter name="LFW">0</parameter><parameter name="NSR">32</parameter><parameter name="PLF">AB</parameter><parameter name="RES">6</parameter><parameter name="RGN">-1</parameter><parameter name="STR">0</parameter><parameter name="TCL">MakeCompatibleScalar (0, {WSV=1.000000, ARV=0});</parameter><parameter name="TDL">37</parameter><parameter name="RPO">0</parameter></Acquisition_Parameters_Rf><FT_-_Parameters_Rf><parameter name="APF">B3</parameter><parameter name="HFQ">500</parameter><parameter name="LFQ">4000</parameter><parameter name="NLI">0</parameter><parameter name="PHR">24</parameter><parameter name="PHZ">ML</parameter><parameter name="SPZ">NO</parameter><parameter name="ZFF">1</parameter></FT_-_Parameters_Rf><Optic_Parameters_><parameter name="APR">0</parameter><parameter name="APT">Open</parameter><parameter name="BMS">KBr</parameter><parameter name="CHN">Module port</parameter><parameter name="DTC">RT-DLaTGS_IR-Biotyper [Microplate reader]</parameter><parameter name="HPF">0</parameter><parameter name="LPF">10.0</parameter><parameter name="LPV">4000</parameter><parameter name="PGN">0</parameter><parameter name="RDX">0</parameter><parameter name="SRC">MIR</parameter><parameter name="VEL">10.0</parameter><parameter name="SON">Off</parameter></Optic_Parameters_><FT_-_Parameters_><parameter name="APF">B3</parameter><parameter name="HFQ">500</parameter><parameter name="LFQ">4000</parameter><parameter name="NLI">0</parameter><parameter name="PHR">24</parameter><parameter name="PHZ">ML</parameter><parameter name="SPZ">NO</parameter><parameter name="ZFF">1</parameter></FT_-_Parameters_><Acquisition_Parameters_><parameter name="ADT">1</parameter><parameter name="AQM">DD</parameter><parameter name="CFE">0</parameter><parameter name="COR">0</parameter><parameter name="DEL">0</parameter><parameter name="DLY">0</parameter><parameter name="HFW">8000</parameter><parameter name="LFW">0</parameter><parameter name="NSS">32</parameter><parameter name="PLF">AB</parameter><parameter name="RES">6</parameter><parameter name="SOT">0</parameter><parameter name="TCL">MakeCompatibleScalar (0, {WSV=1.000000, ARV=0});</parameter><parameter name="TDL">37</parameter><parameter name="SPO">0</parameter><parameter name="SGN">-1</parameter></Acquisition_Parameters_><Instrument_Parameters_Rf><parameter name="HFL">15800.168544</parameter><parameter name="LFL">0</parameter><parameter name="LWN">15800.168544</parameter><parameter name="ABP">32197</parameter><parameter name="SSP">1</parameter><parameter name="ARG">2</parameter><parameter name="ASG">2</parameter><parameter name="ASS">32</parameter><parameter name="GFW">16</parameter><parameter name="GBW">16</parameter><parameter name="BFW">0</parameter><parameter name="BBW">0</parameter><parameter name="PKA">7269</parameter><parameter name="PKL">4996</parameter><parameter name="PRA">7448</parameter><parameter name="PRL">5001</parameter><parameter name="P2A">1</parameter><parameter name="P2L">1</parameter><parameter name="P2R">1</parameter><parameter name="P2K">1</parameter><parameter name="DAQ">0</parameter><parameter name="AG2">1</parameter><parameter name="SSM">1</parameter><parameter name="RSN">24854</parameter><parameter name="CRR">0</parameter><parameter name="SRT">1653651040.664</parameter><parameter name="DUR">19.635986328125</parameter><parameter name="TSC">27.2</parameter><parameter name="MVD">3.29916906356812</parameter><parameter name="AN1">0.22579660744025</parameter><parameter name="AN2">0</parameter><parameter name="VSN">2.485 Apr  4 2017</parameter><parameter name="SRN">0085</parameter><parameter name="CAM">0</parameter><parameter name="INS">IR-Biotyper</parameter><parameter name="FOC">69</parameter><parameter name="RDY">1</parameter><parameter name="ARS">32</parameter></Instrument_Parameters_Rf><Sample_Parameters_><parameter name="BLD"></parameter><parameter name="CNM">Admin</parameter><parameter name="CPY"></parameter><parameter name="DPM"></parameter><parameter name="EXP">IRBT_v3_32Scans.XPM</parameter><parameter name="LCT"></parameter><parameter name="SFM">Microplate, HTS-XT</parameter><parameter name="SNM">220527-1039(v.2)_GFG29M (D_5)_C4_4c5c61dd-b7a2-4c24-af85-a278128b5d87.0</parameter><parameter name="XPP">C:\Users\Public\Documents\Bruker\OPUS_8.2.28\XPM</parameter><parameter name="IST">OK</parameter><parameter name="CPG">1252</parameter><parameter name="UID">4de3db9f-1bca-4c62-bd40-0d4c1088b7e7</parameter></Sample_Parameters_><Instrument_Parameters_><parameter name="HFL">15800.168544</parameter><parameter name="LFL">0</parameter><parameter name="LWN">15800.168544</parameter><parameter name="ABP">32197</parameter><parameter name="SSP">1</parameter><parameter name="ASG">2</parameter><parameter name="ARG">2</parameter><parameter name="ASS">32</parameter><parameter name="GFW">16</parameter><parameter name="GBW">16</parameter><parameter name="BFW">0</parameter><parameter name="BBW">0</parameter><parameter name="PKA">6917</parameter><parameter name="PKL">4988</parameter><parameter name="PRA">7205</parameter><parameter name="PRL">5002</parameter><parameter name="P2A">1</parameter><parameter name="P2L">1</parameter><parameter name="P2R">1</parameter><parameter name="P2K">1</parameter><parameter name="DAQ">0</parameter><parameter name="AG2">1</parameter><parameter name="SSM">1</parameter><parameter name="RSN">13053</parameter><parameter name="CRR">0</parameter><parameter name="SRT">1653651066.514</parameter><parameter name="DUR">19.635986328125</parameter><parameter name="TSC">27.2</parameter><parameter name="MVD">0.459935456514359</parameter><parameter name="AN1">0.225790006231155</parameter><parameter name="AN2">0</parameter><parameter name="VSN">2.485 Apr  4 2017</parameter><parameter name="SRN">0085</parameter><parameter name="CAM">0</parameter><parameter name="INS">IR-Biotyper</parameter><parameter name="FOC">69</parameter><parameter name="RDY">1</parameter></Instrument_Parameters_><History/></OPUSDataFile>
