<?xml version="1.0" encoding="UTF-8" ?>
<OPUSDataFile><AB><Ydata ylabel="Absorbance Units"><values byteorder="INTEL" format="FLOAT32" numvalues="3497"> -0.08413958 -0.08410642 -0.08407947 -0.08405876 -0.08404483 -0.08403768 -0.08402505 -0.08400675 -0.08397593 -0.0839349
 -0.08389351 -0.08385423 -0.08383232 -0.08382543 -0.08383723 -0.08386067 -0.08388617 -0.08390839 -0.08391624 -0.08391184
 -0.08389166 -0.08386422 -0.08383299 -0.08380441 -0.08378258 -0.08376603 -0.0837554 -0.08374688 -0.08373909 -0.08373666
 -0.08373956 -0.08375712 -0.08378986 -0.08383764 -0.08389947 -0.08396221 -0.08402483 -0.08407408 -0.08411105 -0.08413262
 -0.08414036 -0.08413626 -0.08412161 -0.08409828 -0.08407021 -0.08404121 -0.08401813 -0.08400911 -0.08401281 -0.08403476
 -0.08405664 -0.08407512 -0.08406685 -0.08402292 -0.08394323 -0.08382279 -0.08369426 -0.08355928 -0.08345759 -0.08339149
 -0.08337709 -0.08341286 -0.0834826 -0.08358217 -0.08367815 -0.08376931 -0.08383175 -0.08387076 -0.0838858 -0.08388515
 -0.08388276 -0.0838825 -0.0838962 -0.0839187 -0.08395125 -0.08398372 -0.08401041 -0.08402662 -0.08402819 -0.08401862
 -0.08399749 -0.08397093 -0.08393948 -0.08391026 -0.08388365 -0.08386999 -0.08386989 -0.08389253 -0.08393763 -0.08400422
 -0.08408972 -0.0841788 -0.08426768 -0.0843337 -0.08437677 -0.08438345 -0.08436006 -0.0843103 -0.08424196 -0.08416545
 -0.08408564 -0.08401006 -0.08393962 -0.08387705 -0.08382078 -0.08376995 -0.08372707 -0.0836913 -0.08367239 -0.08367219
 -0.08369529 -0.08374378 -0.0837999 -0.08386281 -0.08390207 -0.08391764 -0.08390186 -0.08385961 -0.08381736 -0.08377929
 -0.0837771 -0.08380641 -0.08387592 -0.08397119 -0.08407315 -0.08416765 -0.08422827 -0.08425511 -0.08423694 -0.08418622
 -0.08410473 -0.0840103 -0.08390745 -0.08381926 -0.08375113 -0.08372457 -0.08374453 -0.08382008 -0.08395498 -0.08412532
 -0.08433046 -0.08447917 -0.08456769 -0.08451504 -0.08433697 -0.08409501 -0.08380577 -0.0835674 -0.08337663 -0.08327495
 -0.08325141 -0.08331041 -0.08343038 -0.08359327 -0.08376583 -0.08391455 -0.08402071 -0.08405669 -0.08404684 -0.08399028
 -0.08392693 -0.08387058 -0.08382687 -0.08380125 -0.08377317 -0.08374042 -0.08369527 -0.08363692 -0.08358243 -0.0835329
 -0.08350933 -0.0835102 -0.08353812 -0.08358636 -0.08363192 -0.08366723 -0.08365819 -0.08361065 -0.08351385 -0.08339047
 -0.08326282 -0.08314962 -0.0830777 -0.08304313 -0.08305436 -0.08309159 -0.08314997 -0.08321091 -0.08326769 -0.08331478
 -0.08334952 -0.08337624 -0.08339554 -0.08340562 -0.08340655 -0.08338526 -0.08334142 -0.08326676 -0.08316341 -0.08304029
 -0.08290174 -0.08276885 -0.08264498 -0.0825503 -0.08248309 -0.08245209 -0.08244736 -0.08246239 -0.08248299 -0.0824948
 -0.08249006 -0.0824577 -0.08240505 -0.08232968 -0.08225085 -0.08217204 -0.08211303 -0.08207835 -0.08207601 -0.08210843
 -0.08216628 -0.08224935 -0.08233508 -0.08242204 -0.08248364 -0.08252046 -0.08252086 -0.08249102 -0.08244809 -0.08239897
 -0.082372 -0.08236522 -0.08239029 -0.08243705 -0.08249786 -0.08256392 -0.08262278 -0.08267774 -0.08272517 -0.08277736
 -0.08283992 -0.0829147 -0.08300631 -0.08309761 -0.08318702 -0.08325633 -0.08330301 -0.08332151 -0.08331154 -0.08325746
 -0.08315869 -0.08300028 -0.08278832 -0.08255631 -0.08231413 -0.08212156 -0.08197728 -0.08191309 -0.08191106 -0.08195907
 -0.0820277 -0.08207142 -0.08208457 -0.08203778 -0.0819641 -0.08187477 -0.08179586 -0.08174505 -0.0817168 -0.081716
 -0.08171821 -0.08171979 -0.08170298 -0.08166406 -0.08160885 -0.08153724 -0.08146776 -0.08140114 -0.08135103 -0.08131669
 -0.08130094 -0.0813003 -0.08130345 -0.08130553 -0.0812856 -0.0812472 -0.08118447 -0.08110896 -0.08103577 -0.08096408
 -0.08090209 -0.08083446 -0.0807538 -0.08065081 -0.08051499 -0.08036359 -0.08019616 -0.08004395 -0.07991391 -0.07981722
 -0.07975826 -0.07971467 -0.07968578 -0.07962979 -0.07954566 -0.07941163 -0.07923365 -0.07904438 -0.07885 -0.07869582
 -0.07857703 -0.07850354 -0.07846936 -0.07846839 -0.0784958 -0.07854751 -0.07860703 -0.07866309 -0.07868955 -0.07866367
 -0.07858449 -0.07844028 -0.0782618 -0.07805736 -0.07783905 -0.07761291 -0.077365 -0.07709351 -0.07679696 -0.07647473
 -0.07614374 -0.07580509 -0.07547917 -0.07516746 -0.07489032 -0.07464836 -0.07445709 -0.07431197 -0.07421068 -0.07414406
 -0.07409503 -0.07405527 -0.07400969 -0.07394657 -0.0738531 -0.0737137 -0.07350968 -0.07325348 -0.07293907 -0.07260826
 -0.07227359 -0.07195354 -0.07165565 -0.07137256 -0.07110412 -0.07084489 -0.07059429 -0.07035623 -0.07013106 -0.06992675
 -0.06974264 -0.06958031 -0.06943341 -0.06927979 -0.0691063 -0.06886091 -0.06854726 -0.06813607 -0.06766754 -0.06718358
 -0.06670998 -0.06629305 -0.06591558 -0.06558269 -0.06526639 -0.06495374 -0.0646358 -0.06430444 -0.06397323 -0.06364353
 -0.06332639 -0.06302489 -0.06272768 -0.06243465 -0.06211916 -0.06178028 -0.0614019 -0.06098674 -0.0605476 -0.06008901
 -0.05963752 -0.05919435 -0.05877686 -0.05838304 -0.05801873 -0.0576775 -0.05735544 -0.05704108 -0.05672134 -0.05639332
 -0.056048 -0.05569849 -0.05535019 -0.05500534 -0.0546715 -0.05431757 -0.05393924 -0.05350899 -0.05301863 -0.05249988
 -0.05195334 -0.05144167 -0.05096644 -0.050548 -0.05018178 -0.04984114 -0.04952146 -0.04918718 -0.04884071 -0.04846799
 -0.0480794 -0.04768846 -0.04730236 -0.04694077 -0.04659323 -0.04626165 -0.04592105 -0.04555427 -0.04515181 -0.04469877
 -0.04422108 -0.04372172 -0.04323024 -0.04275513 -0.042299 -0.04186431 -0.04143748 -0.04101782 -0.04059218 -0.04016019
 -0.03971724 -0.03926423 -0.0388062 -0.03834412 -0.03788554 -0.03742948 -0.03697666 -0.03652677 -0.03607812 -0.03563464
 -0.03520062 -0.0347799 -0.03437915 -0.03399504 -0.03362854 -0.03327206 -0.03292206 -0.03257535 -0.03222971 -0.03188707
 -0.03154796 -0.03121105 -0.0308773 -0.03053473 -0.03018278 -0.02980518 -0.02940165 -0.02897061 -0.02851473 -0.02805548
 -0.02759538 -0.02715915 -0.02674277 -0.02634931 -0.02596951 -0.02558568 -0.02519421 -0.02477892 -0.02435117 -0.02391271
 -0.0234837 -0.02307932 -0.02270654 -0.02237767 -0.02207079 -0.02178505 -0.0214862 -0.02116602 -0.02081051 -0.0204149
 -0.01999361 -0.01954695 -0.01909786 -0.01864734 -0.01821093 -0.01778843 -0.01738553 -0.01700105 -0.01663316 -0.01628026
 -0.0159368 -0.01560172 -0.01527013 -0.01494209 -0.01461557 -0.01429117 -0.01396944 -0.01364874 -0.01332975 -0.01300548
 -0.01267341 -0.01232674 -0.01196025 -0.01158334 -0.01119478 -0.01081806 -0.01045713 -0.01011742 -0.009800773 -0.009478085
 -0.009147912 -0.008780521 -0.008378729 -0.007952787 -0.007510078 -0.007091415 -0.006698661 -0.006361259 -0.006070364 -0.005824256
 -0.005609335 -0.005406298 -0.005205284 -0.004989094 -0.004755991 -0.0044984 -0.004222522 -0.003927647 -0.003626096 -0.003320315
 -0.003024786 -0.002743599 -0.002481226 -0.002240269 -0.002007147 -0.001781377 -0.001543088 -0.001291646 -0.001022225 -0.0007357512
 -0.0004394284 -0.0001324449 0.0001854417 0.0005156216 0.0008648529 0.001228045 0.001600303 0.001971235 0.002323746 0.002652353
 0.002943782 0.003202214 0.003425359 0.003621983 0.003794594 0.003953137 0.004100055 0.004247095 0.004396499 0.004559437
 0.004738071 0.004935377 0.005152181 0.005379566 0.005616991 0.005851664 0.006083854 0.006310709 0.00653355 0.006758317
 0.006983583 0.007209032 0.007430592 0.007637959 0.007833201 0.008011316 0.008185683 0.008366986 0.008567299 0.0088028
 0.009062616 0.00935184 0.009634838 0.009902135 0.010125 0.01029108 0.01041432 0.01049148 0.01057125 0.01065765
 0.01077783 0.01093195 0.01108917 0.0112458 0.01135174 0.01141153 0.01141772 0.01138424 0.01135022 0.0113243
 0.01134631 0.01140974 0.01152464 0.01167515 0.01184947 0.01203458 0.01221597 0.01239409 0.01256216 0.01273711
 0.0129223 0.01313413 0.01338022 0.01364833 0.01394133 0.01421447 0.01446479 0.01465032 0.01476965 0.01482169
 0.0148102 0.01477137 0.01470805 0.01465392 0.01460691 0.01457613 0.01456299 0.0145721 0.01461211 0.01470094
 0.01483458 0.01502445 0.01523661 0.0154545 0.01564124 0.01576799 0.015843 0.01585472 0.01585588 0.01585551
 0.01589457 0.01598378 0.01611078 0.01627711 0.01643528 0.01658301 0.01668289 0.01673628 0.01674106 0.01670314
 0.01664977 0.01658746 0.01655127 0.01654262 0.0165842 0.01666708 0.01679175 0.01693862 0.01708981 0.0172256
 0.01732379 0.0173841 0.0173954 0.01738374 0.01735308 0.017334 0.01733482 0.01736823 0.0174374 0.01754475
 0.01769025 0.01788532 0.01813044 0.01843451 0.01879396 0.01917965 0.01958057 0.01992476 0.02020539 0.0203562
 0.02039308 0.02030895 0.02014397 0.01995192 0.01976968 0.01966219 0.01962588 0.01968935 0.01980122 0.01994942
 0.02007214 0.02014397 0.02013847 0.02003996 0.01987149 0.01963121 0.01936711 0.01908308 0.01881327 0.01855923
 0.01832544 0.01811127 0.01791024 0.01772429 0.01755984 0.0174204 0.01732287 0.01726434 0.01725143 0.01726804
 0.01729828 0.01731414 0.0172829 0.01717908 0.01697008 0.01665823 0.01622776 0.01572068 0.0151418 0.01455061
 0.01396046 0.01341417 0.01292066 0.01249557 0.01214194 0.01185183 0.01162453 0.0114234 0.01124505 0.01103758
 0.01080314 0.01052161 0.01020636 0.009891232 0.00958493 0.009330058 0.009110426 0.008924293 0.00874307 0.008531489
 0.008284446 0.007978067 0.007646395 0.007294775 0.006971891 0.006697406 0.006493086 0.006374151 0.006308808 0.006299881
 0.006273538 0.006224144 0.006087765 0.00586145 0.005544143 0.005141359 0.004713531 0.004266927 0.003868537 0.003515222
 0.003233962 0.003013769 0.002844492 0.002714943 0.002604581 0.002503961 0.002396289 0.002274047 0.002125672 0.001951101
 0.001744948 0.00151868 0.001273687 0.001025345 0.0007778144 0.0005385578 0.0003099094 8.964576E-05 -0.0001221006 -0.0003296238
 -0.0005331414 -0.0007355912 -0.0009371315 -0.001140747 -0.001346178 -0.001554308 -0.001763347 -0.001967965 -0.002166236 -0.00235003
 -0.002521564 -0.00267858 -0.00282971 -0.002982328 -0.003146223 -0.003332288 -0.003541556 -0.003780647 -0.00403531 -0.004303817
 -0.004566718 -0.004818083 -0.005051877 -0.005264581 -0.005469605 -0.00566748 -0.005875009 -0.006093045 -0.006325805 -0.006572465
 -0.00682471 -0.007081254 -0.007330578 -0.007572532 -0.007799757 -0.008014589 -0.0082177 -0.008413812 -0.008610724 -0.008811394
 -0.009023543 -0.00924343 -0.009472886 -0.009700673 -0.009922983 -0.01012609 -0.01030347 -0.01045066 -0.010562 -0.01065624
 -0.01073236 -0.01083072 -0.01095464 -0.01113823 -0.01138332 -0.01168691 -0.01204539 -0.01241516 -0.01279052 -0.013115
 -0.01338959 -0.01358283 -0.01371003 -0.01378646 -0.01383618 -0.01390606 -0.0140057 -0.01417094 -0.01437959 -0.01463051
 -0.01488874 -0.01513163 -0.01535275 -0.01553944 -0.01571824 -0.01589454 -0.01608213 -0.01628851 -0.01648234 -0.01666283
 -0.0167815 -0.01683574 -0.01681511 -0.01672367 -0.01660808 -0.01647633 -0.01639975 -0.01637915 -0.01646023 -0.01662786
 -0.0168746 -0.01717387 -0.01747916 -0.01777433 -0.01801775 -0.01822167 -0.01837865 -0.01851468 -0.01864416 -0.01877491
 -0.01891573 -0.01905522 -0.01919046 -0.01932201 -0.01944793 -0.01958412 -0.019733 -0.01989051 -0.02005653 -0.02019593
 -0.02030754 -0.02036501 -0.02037297 -0.02034458 -0.02028672 -0.02023184 -0.02018078 -0.02015247 -0.02014248 -0.02015158
 -0.02017657 -0.02021254 -0.02026248 -0.02032398 -0.02041055 -0.02052653 -0.02069031 -0.02091274 -0.02119104 -0.02153377
 -0.02189462 -0.02227127 -0.02259795 -0.02286658 -0.02305273 -0.02315451 -0.02321933 -0.02325184 -0.02332844 -0.02344778
 -0.02364459 -0.02390499 -0.02419913 -0.02451213 -0.02479054 -0.0250353 -0.02521997 -0.02536192 -0.02546962 -0.02556159
 -0.0256564 -0.02576106 -0.02588625 -0.02602595 -0.02618254 -0.02633979 -0.02649535 -0.02663032 -0.02673976 -0.02682342
 -0.02687863 -0.02693857 -0.02700492 -0.0271187 -0.02727929 -0.02748823 -0.02773879 -0.02798885 -0.02823608 -0.02844566
 -0.02862861 -0.02879399 -0.02895266 -0.02913142 -0.02932301 -0.02953214 -0.02974202 -0.029938 -0.03011774 -0.03027334
 -0.03041628 -0.03055113 -0.03067782 -0.0308 -0.03089982 -0.03097447 -0.03101354 -0.03101393 -0.03099366 -0.03095344
 -0.03093063 -0.03092673 -0.03097173 -0.03106337 -0.0312049 -0.03138912 -0.0315929 -0.03180736 -0.03199958 -0.03216426
 -0.03227698 -0.03233868 -0.03233974 -0.03228682 -0.0321807 -0.03203182 -0.03184459 -0.03163168 -0.0313976 -0.03115541
 -0.03090865 -0.03066868 -0.03043843 -0.03022109 -0.03001862 -0.02981468 -0.02960862 -0.02936296 -0.02907582 -0.0287113
 -0.02827233 -0.02775677 -0.02717411 -0.02655834 -0.02591719 -0.02528868 -0.0246706 -0.02407746 -0.02350136 -0.02293818
 -0.02238262 -0.02182958 -0.02127413 -0.02071437 -0.02013923 -0.01954408 -0.01892152 -0.01826522 -0.01759095 -0.01689702
 -0.01622221 -0.01556969 -0.01497582 -0.0144431 -0.01398415 -0.01359856 -0.01328017 -0.0130284 -0.01283681 -0.01270528
 -0.01263257 -0.01261308 -0.01263693 -0.01268768 -0.01273541 -0.01276097 -0.01272747 -0.01263133 -0.01245304 -0.01220945
 -0.01190405 -0.01155384 -0.01116862 -0.01074786 -0.01029427 -0.009799116 -0.009260116 -0.008679737 -0.008057011 -0.007407033
 -0.006730552 -0.006046715 -0.005356716 -0.004681311 -0.004021491 -0.003395274 -0.002800744 -0.00224159 -0.001712328 -0.001199871
 -0.0007029846 -0.0002069622 0.0002690037 0.0007205626 0.001091694 0.001349589 0.00140418 0.001200095 0.0006625237 -0.0002638569
 -0.001559335 -0.003251681 -0.00519191 -0.00737326 -0.00957767 -0.01178348 -0.01381452 -0.01565781 -0.01724896 -0.01859004
 -0.01971444 -0.02063072 -0.02141051 -0.0220609 -0.02264599 -0.0231705 -0.02367839 -0.02417162 -0.02467542 -0.02518391
 -0.0257028 -0.02621689 -0.02671596 -0.02718668 -0.02761619 -0.02800606 -0.02835223 -0.02866624 -0.02895132 -0.02921122
 -0.02944866 -0.02965363 -0.02982602 -0.02994963 -0.03002346 -0.0300338 -0.02998095 -0.0298673 -0.02969833 -0.02951023
 -0.02931334 -0.02916929 -0.02908142 -0.02909508 -0.02919499 -0.0293794 -0.02962093 -0.02988631 -0.0301525 -0.03038913
 -0.03058278 -0.03071879 -0.03078692 -0.03078159 -0.03069065 -0.03051122 -0.03022846 -0.02983895 -0.02933401 -0.02870856
 -0.02799752 -0.02720061 -0.02645084 -0.02576026 -0.02535213 -0.02523587 -0.02560014 -0.02641652 -0.02769127 -0.02934985
 -0.03120921 -0.03319464 -0.03508098 -0.03684997 -0.0383773 -0.03970599 -0.04082702 -0.04179776 -0.04265217 -0.04342003
 -0.04412307 -0.04476631 -0.04535436 -0.04589061 -0.04637535 -0.0468173 -0.04721733 -0.0475831 -0.04791516 -0.04821837
 -0.0484931 -0.0487457 -0.04897741 -0.04920004 -0.04941509 -0.04963626 -0.04986164 -0.05009513 -0.05032935 -0.0505529
 -0.05075966 -0.05093412 -0.05108307 -0.05120332 -0.05131427 -0.05142656 -0.05155392 -0.05170817 -0.05188022 -0.052073
 -0.05226041 -0.05243787 -0.05258852 -0.05270829 -0.05280632 -0.0528826 -0.05295986 -0.05303868 -0.05312876 -0.05322819
 -0.05332687 -0.05342362 -0.05350657 -0.05357951 -0.05364566 -0.05371091 -0.05378856 -0.05387971 -0.05399304 -0.05412215
 -0.05426603 -0.05441364 -0.05455893 -0.05469117 -0.05480399 -0.05489336 -0.05495523 -0.05499714 -0.05501842 -0.0550354
 -0.05504971 -0.05507513 -0.05511288 -0.0551654 -0.0552325 -0.05530886 -0.05539414 -0.05548353 -0.05557686 -0.05567133
 -0.0557658 -0.05585605 -0.05594053 -0.05601378 -0.05607687 -0.05612784 -0.05617153 -0.0562117 -0.05625163 -0.05629597
 -0.05634036 -0.0563849 -0.05642197 -0.05644768 -0.0564658 -0.05647437 -0.05649153 -0.05651923 -0.05657056 -0.05664709
 -0.05673789 -0.05684177 -0.05693255 -0.05701015 -0.0570605 -0.05708799 -0.05710329 -0.05711196 -0.05713642 -0.05717571
 -0.05724175 -0.05732293 -0.05741079 -0.0574903 -0.05754222 -0.05756614 -0.05755082 -0.05751918 -0.05747579 -0.05744877
 -0.05744921 -0.05748386 -0.05755834 -0.0576563 -0.05777708 -0.05790104 -0.05802669 -0.05814271 -0.05824869 -0.05833951
 -0.05841555 -0.0584768 -0.05852496 -0.05856719 -0.05860534 -0.05864901 -0.05869694 -0.05875239 -0.05881049 -0.05886616
 -0.0589155 -0.05895176 -0.05897742 -0.05899049 -0.05899955 -0.05900722 -0.0590222 -0.05904811 -0.05908722 -0.0591413
 -0.05920585 -0.05928095 -0.05935856 -0.05943821 -0.05951178 -0.05957894 -0.05963453 -0.05967869 -0.05971011 -0.05972943
 -0.05973826 -0.05973805 -0.05973301 -0.05972593 -0.05972379 -0.05972921 -0.05974933 -0.05978313 -0.05983324 -0.05989458
 -0.05996508 -0.06003955 -0.06011496 -0.06018948 -0.0602617 -0.06033259 -0.06040214 -0.06047116 -0.06054004 -0.0606064
 -0.06067021 -0.06072641 -0.06077477 -0.06081108 -0.0608357 -0.06084929 -0.06085313 -0.06085271 -0.06085012 -0.06085391
 -0.06086606 -0.06089533 -0.0609403 -0.06100464 -0.06108041 -0.06116275 -0.06124134 -0.06130734 -0.0613573 -0.06138588
 -0.06139953 -0.06139792 -0.06139242 -0.06138479 -0.06138572 -0.06139681 -0.06142459 -0.06146994 -0.06152992 -0.06160403
 -0.06167925 -0.06175464 -0.06181621 -0.06186492 -0.06189691 -0.06191545 -0.06192772 -0.06193665 -0.06195197 -0.06197343
 -0.06200553 -0.0620447 -0.06208938 -0.06213593 -0.0621811 -0.06222427 -0.06226382 -0.06230215 -0.06233957 -0.06237838
 -0.06241924 -0.06246281 -0.06250948 -0.06255751 -0.06260693 -0.06265298 -0.06269542 -0.0627294 -0.06275529 -0.0627737
 -0.06278598 -0.0627988 -0.06281302 -0.0628354 -0.06286436 -0.06290045 -0.06294067 -0.06298066 -0.06301983 -0.06305514
 -0.0630898 -0.06312498 -0.06316331 -0.06320722 -0.06325429 -0.06330494 -0.06335354 -0.06339893 -0.06343786 -0.06346959
 -0.06349421 -0.06351165 -0.06352246 -0.0635267 -0.06352583 -0.06352041 -0.06351553 -0.06351219 -0.06351796 -0.0635329
 -0.06356185 -0.06360266 -0.06365393 -0.06371188 -0.06377091 -0.06382746 -0.06387578 -0.06391484 -0.06394164 -0.06395849
 -0.063965 -0.06396618 -0.0639632 -0.06396101 -0.06396093 -0.06396529 -0.06397478 -0.06398826 -0.06400575 -0.06402538
 -0.06404705 -0.06406973 -0.06409323 -0.06411551 -0.06413596 -0.06415033 -0.06415857 -0.06415766 -0.06414928 -0.06413493
 -0.06411725 -0.06410058 -0.06408688 -0.06407949 -0.06407985 -0.06409012 -0.06411 -0.06414079 -0.06417814 -0.0642219
 -0.06426408 -0.06430293 -0.06433342 -0.06435414 -0.06436741 -0.06437316 -0.06437713 -0.06437955 -0.06438299 -0.06438734
 -0.06439228 -0.06439809 -0.06440586 -0.06441621 -0.06443221 -0.06445297 -0.06447862 -0.06450695 -0.06453442 -0.06456057
 -0.06458309 -0.06460398 -0.06462421 -0.06464446 -0.0646662 -0.06468573 -0.06470218 -0.06471255 -0.06471505 -0.06471452
 -0.06471072 -0.06471413 -0.06472563 -0.06475118 -0.06479087 -0.06483945 -0.06489602 -0.06494964 -0.06500018 -0.06504095
 -0.06507333 -0.06509791 -0.06511633 -0.06513228 -0.06514694 -0.0651635 -0.06518277 -0.06520697 -0.0652355 -0.06526943
 -0.06530508 -0.06534161 -0.06537382 -0.06539966 -0.06541685 -0.06542391 -0.06542368 -0.06541585 -0.06540755 -0.06539924
 -0.06539811 -0.06540443 -0.0654202 -0.0654448 -0.06547271 -0.06550331 -0.06553007 -0.06555375 -0.06557313 -0.06558948
 -0.06560537 -0.06562033 -0.06563494 -0.06564792 -0.06565765 -0.06566478 -0.06566882 -0.06567226 -0.06567642 -0.06568217
 -0.06569065 -0.06569935 -0.06570821 -0.06571327 -0.0657139 -0.06570788 -0.06569482 -0.06567638 -0.06565269 -0.06562904
 -0.06560579 -0.06558894 -0.06557824 -0.06557612 -0.06558115 -0.0655903 -0.06560178 -0.0656099 -0.06561471 -0.06561323
 -0.06560783 -0.06559976 -0.06559127 -0.06558461 -0.06557999 -0.06557804 -0.06557871 -0.06558187 -0.06558867 -0.06559941
 -0.0656146 -0.06563462 -0.06565717 -0.06568224 -0.06570509 -0.06572548 -0.0657386 -0.06574462 -0.06574278 -0.06573426
 -0.0657248 -0.06571553 -0.06571393 -0.06571823 -0.06572909 -0.06574221 -0.06575102 -0.06575353 -0.06574385 -0.0657258
 -0.0656995 -0.06567115 -0.06564398 -0.06562135 -0.06560549 -0.06559592 -0.06559313 -0.06559501 -0.06560152 -0.06560937
 -0.06561837 -0.06562455 -0.06562774 -0.06562703 -0.06562293 -0.06562039 -0.06562027 -0.06563006 -0.06564941 -0.06568111
 -0.06572434 -0.06577744 -0.06584273 -0.06592125 -0.06602022 -0.06614704 -0.06630869 -0.06651384 -0.06676149 -0.06705493
 -0.06738562 -0.06775193 -0.06814489 -0.06856217 -0.06899861 -0.06945362 -0.06992052 -0.07039907 -0.07087875 -0.0713589
 -0.07182139 -0.07226373 -0.07265516 -0.07298931 -0.07321814 -0.07333287 -0.07327616 -0.07305036 -0.07261758 -0.07202278
 -0.07130542 -0.07053985 -0.06982476 -0.06919352 -0.0687083 -0.06835432 -0.06814186 -0.06804396 -0.0680565 -0.06814662
 -0.06831162 -0.06849729 -0.0686976 -0.06885483 -0.06896134 -0.06901333 -0.06901063 -0.06898938 -0.06895045 -0.06891456
 -0.06888016 -0.06885006 -0.06882178 -0.06879017 -0.06875008 -0.06868704 -0.06859882 -0.06847306 -0.06831685 -0.06813153
 -0.06792869 -0.06771705 -0.06750542 -0.06730039 -0.06710683 -0.06692825 -0.06676481 -0.06661794 -0.06648243 -0.06635789
 -0.06623854 -0.06612373 -0.06601167 -0.06590222 -0.06579485 -0.06568935 -0.06558297 -0.06547572 -0.06536554 -0.06525404
 -0.06514546 -0.06504191 -0.06495101 -0.06487222 -0.06480894 -0.06475757 -0.06471539 -0.06467962 -0.06464682 -0.06461706
 -0.06459003 -0.06456423 -0.06454003 -0.06451194 -0.06447848 -0.06443726 -0.06438679 -0.06433388 -0.06427883 -0.06423022
 -0.0641885 -0.06415393 -0.06412611 -0.06409942 -0.0640739 -0.06404689 -0.06401904 -0.06399161 -0.06396425 -0.06393684
 -0.06390852 -0.06387736 -0.06384424 -0.06380872 -0.06377386 -0.06374189 -0.06371467 -0.06369461 -0.06367924 -0.06366891
 -0.06365821 -0.0636458 -0.06362838 -0.06360475 -0.06357704 -0.06354515 -0.06351385 -0.06348341 -0.0634577 -0.06343675
 -0.06342222 -0.06341353 -0.06340872 -0.06340629 -0.06339972 -0.06338827 -0.06336598 -0.06333517 -0.06329617 -0.06325329
 -0.06321197 -0.06317356 -0.06314194 -0.06311356 -0.06308804 -0.06306048 -0.06302858 -0.06299125 -0.06294716 -0.0629
 -0.06285001 -0.06280126 -0.0627543 -0.06270958 -0.06266714 -0.06262603 -0.06258644 -0.06255106 -0.06252021 -0.06249793
 -0.06248283 -0.06247257 -0.06246471 -0.06245163 -0.06243376 -0.06240726 -0.06237653 -0.06234505 -0.06231644 -0.06229566
 -0.06228109 -0.06227412 -0.0622691 -0.06226445 -0.06225529 -0.0622396 -0.06221739 -0.06218775 -0.06215608 -0.0621226
 -0.06209437 -0.0620718 -0.06205793 -0.06205244 -0.06205193 -0.06205529 -0.06205417 -0.06204768 -0.06202771 -0.06199527
 -0.06194762 -0.06188896 -0.06182422 -0.06175875 -0.06170069 -0.06165279 -0.06162083 -0.06160233 -0.06159869 -0.06160275
 -0.0616129 -0.06162066 -0.06162346 -0.06161696 -0.06159943 -0.06157374 -0.06153963 -0.06150505 -0.06147045 -0.0614422
 -0.06142021 -0.0614046 -0.06139452 -0.06138492 -0.06137523 -0.06136045 -0.06134119 -0.06131607 -0.06128671 -0.06125509
 -0.06122261 -0.06119162 -0.06116301 -0.06113815 -0.06111775 -0.06110268 -0.06109276 -0.06108854 -0.06108785 -0.06109069
 -0.061093 -0.06109424 -0.06109047 -0.0610811 -0.0610652 -0.06104266 -0.06101667 -0.06098745 -0.06095942 -0.06093229
 -0.06090685 -0.06088219 -0.06085511 -0.06082546 -0.06079071 -0.06075245 -0.06071191 -0.0606712 -0.06063325 -0.06059935
 -0.06057152 -0.06055013 -0.0605361 -0.06052876 -0.06052855 -0.06053265 -0.060541 -0.06054846 -0.0605544 -0.06055349
 -0.06054494 -0.06052747 -0.06050091 -0.06046983 -0.06043461 -0.06040179 -0.06037135 -0.06034665 -0.06032702 -0.06031192
 -0.06030056 -0.060291 -0.06028214 -0.06027143 -0.06025768 -0.06023802 -0.06021317 -0.06018221 -0.06014785 -0.06011125
 -0.06007473 -0.06003953 -0.06000634 -0.05997543 -0.05994786 -0.05992387 -0.05990398 -0.05988848 -0.05987495 -0.05986328
 -0.05984968 -0.05983412 -0.05981572 -0.05979489 -0.05977396 -0.05975318 -0.0597348 -0.05971866 -0.05970562 -0.0596953
 -0.05968763 -0.05968167 -0.05967648 -0.05967063 -0.05966251 -0.05965161 -0.0596366 -0.05961961 -0.05960063 -0.0595837
 -0.05957001 -0.05956149 -0.05955923 -0.05955969 -0.05956296 -0.05956179 -0.05955571 -0.05954012 -0.05951521 -0.05948326
 -0.0594451 -0.05940751 -0.05937063 -0.05933897 -0.05931137 -0.05928711 -0.05926526 -0.05924321 -0.05922218 -0.05920235
 -0.05918569 -0.05917473 -0.05916796 -0.05916614 -0.05916423 -0.05916018 -0.05915161 -0.0591366 -0.05911914 -0.0590995
 -0.05908223 -0.05906823 -0.05905557 -0.05904422 -0.05902781 -0.05900628 -0.0589782 -0.05894458 -0.05891181 -0.05888057
 -0.05885763 -0.05884155 -0.05883238 -0.05882759 -0.05882248 -0.05881603 -0.05880496 -0.05878965 -0.05876938 -0.05874465
 -0.05871504 -0.05868292 -0.05864841 -0.05861644 -0.05858846 -0.05856723 -0.05855417 -0.05854554 -0.05854139 -0.05853489
 -0.05852558 -0.05851004 -0.05848832 -0.0584617 -0.05843069 -0.05839934 -0.05836818 -0.05834183 -0.0583197 -0.05830285
 -0.05828965 -0.0582773 -0.05826571 -0.05825306 -0.05824135 -0.05823216 -0.05822537 -0.05822227 -0.05821911 -0.05821475
 -0.05820616 -0.05819185 -0.05817269 -0.05814841 -0.05812161 -0.05809253 -0.0580632 -0.05803377 -0.05800545 -0.05797823
 -0.0579519 -0.05792626 -0.05789969 -0.05787215 -0.05784246 -0.05781126 -0.0577793 -0.057748 -0.05772016 -0.05769704
 -0.05768223 -0.05767357 -0.05767201 -0.05767016 -0.05766427 -0.05764784 -0.05761572 -0.05757156 -0.05751391 -0.05745455
 -0.05739555 -0.05734412 -0.05730191 -0.05726579 -0.05723573 -0.05720588 -0.05717612 -0.0571446 -0.05711168 -0.05707889
 -0.05704644 -0.05701583 -0.05698696 -0.05696009 -0.0569356 -0.05691413 -0.05689644 -0.05688428 -0.05687663 -0.05687436
 -0.05687268 -0.05686936 -0.05685949 -0.0568396 -0.05681082 -0.05677184 -0.05672926 -0.05668402 -0.05664153 -0.05660275
 -0.05656822 -0.05653809 -0.05651031 -0.05648486 -0.05646094 -0.0564387 -0.05641912 -0.05640177 -0.05638592 -0.05637005
 -0.05634966 -0.05632382 -0.05628794 -0.05624381 -0.05619143 -0.05613394 -0.0560741 -0.05601425 -0.0559561 -0.05590263
 -0.05585492 -0.05581711 -0.05579115 -0.05577658 -0.05577479 -0.05577665 -0.05578178 -0.05577736 -0.05576241 -0.05573112
 -0.05568368 -0.05562523 -0.05555676 -0.05548836 -0.05542026 -0.05535905 -0.0553037 -0.05525474 -0.05521126 -0.05517162
 -0.05513605 -0.05510457 -0.05507638 -0.05505167 -0.05502677 -0.05499975 -0.05496718 -0.05492638 -0.0548787 -0.05482316
 -0.05476559 -0.05470668 -0.05465242 -0.05460379 -0.05456235 -0.05452839 -0.0544976 -0.05446972 -0.05443983 -0.05440834
 -0.05437648 -0.05434475 -0.05431701 -0.05429123 -0.05426452 -0.05423307 -0.05418683 -0.05412738 -0.05405007 -0.05396501
 -0.05387951 -0.05380197 -0.05374179 -0.05369572 -0.0536666 -0.05364198 -0.05361897 -0.0535876 -0.05354439 -0.0534913
 -0.05342745 -0.05336305 -0.05329874 -0.05324254 -0.05319467 -0.05315777 -0.0531313 -0.05311305 -0.05310111 -0.05308634
 -0.0530664 -0.05302868 -0.05297526 -0.05290274 -0.05281789 -0.05272858 -0.05263916 -0.05255667 -0.05248209 -0.05241797
 -0.05236421 -0.05232198 -0.05228825 -0.05226357 -0.05223944 -0.05221484 -0.0521802 -0.05213389 -0.0520736 -0.05199881
 -0.0519161 -0.05182593 -0.05173834 -0.05165346 -0.05157726 -0.05150824 -0.05144309 -0.05138007 -0.05131163 -0.05123929
 -0.05116175 -0.0510826 -0.05100681 -0.05093492 -0.05087014 -0.05080893 -0.05074996 -0.0506905 -0.05062907 -0.05056401
 -0.05049489 -0.050419 -0.05033549 -0.05024403 -0.05014389 -0.05004134 -0.0499367 -0.04983801 -0.04974549 -0.04966116
 -0.04958409 -0.04950779 -0.04943065 -0.04934128 -0.04924043 -0.04912312 -0.0489937 -0.04885877 -0.04872052 -0.04858562
 -0.04845193 -0.04831926 -0.0481872 -0.04805392 -0.04792488 -0.047802 -0.04768968 -0.04759094 -0.04750167 -0.04742297
 -0.04734189 -0.04725787 -0.04715194 -0.04702245 -0.04686081 -0.0466674 -0.04646042 -0.04624163 -0.04603511 -0.04583906
 -0.04565835 -0.04548914 -0.04532264 -0.04515653 -0.04498218 -0.04479861 -0.0446006 -0.04438898 -0.0441617 -0.0439231
 -0.0436758 -0.04342161 -0.04316434 -0.04289462 -0.042611 -0.04230298 -0.0419661 -0.04160822 -0.04122914 -0.04084254
 -0.04044976 -0.04005059 -0.03964509 -0.03923364 -0.03881754 -0.03840991 -0.0380103 -0.03762586 -0.03725039 -0.036869
 -0.0364773 -0.03605551 -0.03561269 -0.03515128 -0.03468553 -0.03423257 -0.03379356 -0.03337613 -0.03297202 -0.03257941
 -0.03219135 -0.03180577 -0.03141687 -0.03102551 -0.03061359 -0.03018158 -0.02968834 -0.02913024 -0.02848671 -0.02775884
 -0.02700793 -0.02623788 -0.02551365 -0.02482633 -0.02416681 -0.02352584 -0.02286925 -0.02219778 -0.02149839 -0.02077025
 -0.02001397 -0.01920792 -0.01833949 -0.01736609 -0.01625383 -0.0149813 -0.01351301 -0.01191268 -0.01017972 -0.008431196
 -0.00669344 -0.005029799 -0.003455614 -0.001969125 -0.000572832 0.000769291 0.002060338 0.003379761 0.004735849 0.006248997
 0.007906236 0.009729009 0.01165781 0.01350803 0.01527048 0.01681636 0.01821692 0.01952211 0.02078535 0.02208632
 0.0234259 0.02483114 0.02628201 0.02777432 0.02929739 0.03085212 0.0324069 0.03395775 0.03546535 0.03691975
 0.03833833 0.03972158 0.04109254 0.04245038 0.04373022 0.04492622 0.04595025 0.04681261 0.04751434 0.04807615
 0.04856629 0.04898761 0.04938552 0.04973703 0.05002219 0.05023885 0.0503711 0.05044149 0.05046391 0.05044411
 0.0503911 0.05029432 0.05015285 0.04995527 0.04970083 0.04937088 0.04896427 0.04845291 0.04783316 0.04711084
 0.04628739 0.04543047 0.04454171 0.04366605 0.0427953 0.04191031 0.04100677 0.04005657 0.03907136 0.0380569
 0.03703802 0.03605475 0.03511977 0.03426627 0.0334796 0.03276055 0.03209143 0.03146017 0.03087095 0.03032064
 0.02982462 0.02938748 0.0290087 0.0286898 0.02841925 0.02819599 0.02801677 0.02788151 0.02779422 0.02775457
 0.02776124 0.02781249 0.02789878 0.02801896 0.02816405 0.02833475 0.02852823 0.02874555 0.0289869 0.02925361
 0.02954604 0.02986853 0.03022318 0.03061666 0.03105216 0.03153594 0.03206948 0.03266235 0.03331668 0.03404085
 0.03483878 0.03569393 0.0366069 0.03753219 0.03846743 0.03937036 0.04023937 0.04104586 0.04178459 0.0424129
 0.04292681 0.04328384 0.04350032 0.04358577 0.0435686 0.04349517 0.04338451 0.04327533 0.04316956 0.04308191
 0.04300328 0.04293292 0.04286249 0.04278737 0.04271008 0.04262779 0.04256039 0.04251213 0.04248248 0.04247403
 0.0424397 0.04237724 0.04225099 0.04206193 0.04180751 0.04149136 0.04113069 0.04072814 0.0403059 0.03985377
 0.03937389 0.03882141 0.03813751 0.03726631 0.0360975 0.03469517 0.03305043 0.03129626 0.02951553 0.02771661
 0.0259208 0.02410968 0.02227025 0.02046387 0.01869485 0.0170356 0.01549571 0.01406881 0.0127544 0.01149984
 0.01030434 0.009141828 0.008015837 0.006933859 0.005894826 0.004901025 0.003945014 0.003011362 0.00209474 0.001180165
 0.0002659169 -0.0006531446 -0.001583944 -0.002527578 -0.003507758 -0.004537688 -0.005629916 -0.006812659 -0.00799003 -0.009155659
 -0.01016895 -0.010994 -0.01166844 -0.01218779 -0.01267446 -0.01313426 -0.01362712 -0.01414979 -0.01468491 -0.0152268
 -0.0157338 -0.01620931 -0.01664473 -0.01704163 -0.01740484 -0.01772031 -0.01796913 -0.01813808 -0.01820036 -0.01816655
 -0.01803368 -0.01782082 -0.0175385 -0.01719307 -0.01679089 -0.01632532 -0.01579917 -0.0151878 -0.01449106 -0.01366206
 -0.01269468 -0.01158182 -0.01032391 -0.009047179 -0.007761645 -0.006629417 -0.005643587 -0.004849256 -0.004231922 -0.003766599
 -0.003445109 -0.003241691 -0.003141991 -0.003118683 -0.003144944 -0.003186077 -0.003210861 -0.003181213 -0.003094021 -0.002926111
 -0.002729037 -0.00251596 -0.002325246 -0.002174429 -0.002047538 -0.001946387 -0.001839323 -0.001723147 -0.001583449 -0.001419448
 -0.001240913 -0.001048791 -0.0008580615 -0.000667687 -0.0004803235 -0.0002924755 -9.402582E-05 0.0001184374 0.000358631 0.0006255544
 0.0009236826 0.001250968 0.001603972 0.001990128 0.002412203 0.002881912 0.003408829 0.003989212 0.004627557 0.005301642
 0.006007281 0.006726875 0.007455993 0.008194834 0.008943383 0.009699118 0.01046179 0.01119749 0.01190304 0.0125288
 0.01307441 0.01351243 0.01384507 0.01406601 0.0141759 0.01417248 0.01405726 0.01383024 0.01349657 0.01306128
 0.01253019 0.01190928 0.01120211 0.01041105 0.009541455 0.008592362 0.00758212 0.006509731 0.005417938 0.004310322
 0.003240577 0.002214789 0.001258002 0.0003718157 -0.0004536611 -0.001219265 -0.001938481 -0.002610664 -0.003237841 -0.003820453
 -0.004359605 -0.004859593 -0.005329981 -0.00577674 -0.006212894 -0.006644297 -0.007081755 -0.007530457 -0.007998359 -0.008485983
 -0.008998134 -0.009524348 -0.01006406 -0.01059925 -0.01112519 -0.01163146 -0.01211455 -0.01257923 -0.01302549 -0.01346031
 -0.01388408 -0.0142882 -0.01467125 -0.01501161 -0.01530918 -0.01555136 -0.01574135 -0.01588358 -0.01598156 -0.01604497
 -0.01607783 -0.01608987 -0.01608638 -0.01607745 -0.01606486 -0.01605441 -0.01604199 -0.01602613 -0.0160062 -0.01597966
 -0.01595562 -0.01593514 -0.01592912 -0.0159401 -0.01596982 -0.01601924 -0.01608058 -0.01615344 -0.01623082 -0.01631289
 -0.01640068 -0.01649441 -0.01659708 -0.01670631 -0.01681626 -0.01692209 -0.01700872 -0.01707446 -0.01710803 -0.01711453
 -0.01709456 -0.01705567 -0.01700456 -0.01694448 -0.01687915 -0.01680894 -0.0167338 -0.01665779 -0.01658079 -0.01651207
 -0.01645289 -0.01641128 -0.0163884 -0.01638563 -0.01640314 -0.01643782 -0.01648953 -0.01655597 -0.016637 -0.0167312
 -0.0168376 -0.01695221 -0.01707366 -0.0171965 -0.0173202 -0.01744143 -0.01756023 -0.01767562 -0.01778697 -0.01789361
 -0.01799469 -0.01808958 -0.01817771 -0.01825915 -0.01833189 -0.01839584 -0.01844736 -0.01848571 -0.01850943 -0.01851797
 -0.01851538 -0.01850186 -0.01848491 -0.0184647 -0.01844569 -0.01842685 -0.01840439 -0.01837641 -0.01833368 -0.01827551
 -0.01819516 -0.01809406 -0.01797139 -0.01782917 -0.01766925 -0.01749358 -0.0173036 -0.01710291 -0.0168934 -0.01667915
 -0.01646237 -0.0162444 -0.01602625 -0.01580676 -0.0155856 -0.01536396 -0.01514155 -0.0149244 -0.01471282 -0.01451381
 -0.01432738 -0.01415475 -0.01399502 -0.0138426 -0.01369763 -0.01355647 -0.01342226 -0.01330071 -0.01319513 -0.01311505
 -0.01305867 -0.01302882 -0.01301943 -0.01302606 -0.01304573 -0.01307425 -0.01311549 -0.01316934 -0.0132422 -0.01333612
 -0.01345325 -0.01359524 -0.01375539 -0.01393371 -0.01411814 -0.01430793 -0.01449688 -0.01468526 -0.01487689 -0.01507219
 -0.01527628 -0.0154878 -0.0157043 -0.01592412 -0.01614128 -0.01635647 -0.01656751 -0.01677723 -0.01698835 -0.01720256
 -0.01742318 -0.01764762 -0.01787664 -0.01810291 -0.01832392 -0.01853395 -0.01873007 -0.01891455 -0.01908682 -0.01925354
 -0.01941555 -0.01957507 -0.01973236 -0.01988367 -0.02002878 -0.02016345 -0.02028769 -0.02039945 -0.02049901 -0.02058634
 -0.02066146 -0.02072486 -0.02077522 -0.02081103 -0.02082969 -0.02082737 -0.02080255 -0.02075263 -0.02067713 -0.02057597
 -0.02044571 -0.02028602 -0.02008983 -0.019855 -0.01957783 -0.0192563 -0.01889622 -0.01849729 -0.01807288 -0.01762374
 -0.01716291 -0.01669065 -0.01621203 -0.01572644 -0.01523189 -0.01472838 -0.01421449 -0.01369135 -0.01316125 -0.01262489
 -0.01208414 -0.01154041 -0.01099496 -0.01045239 -0.009916462 -0.009392017 -0.008883508 -0.008391202 -0.007916044 -0.007458109
 -0.00701679 -0.006596486 -0.006197975 -0.00582399 -0.005475578 -0.005146376 -0.0048362 -0.004531961 -0.004232792 -0.003923438
 -0.003602917 -0.003256689 -0.002884896 -0.002479806 -0.002043249 -0.001576079 -0.001079823 -0.0005575719 -1.020052E-05 0.0005609514
 0.001152533 0.001762285 0.00238444 0.003015377 0.003650117 0.004285976 0.004919647 0.005549507 0.006175046 0.006795492
 0.007414334 0.008032057 0.008649458 0.009266793 0.009875742 0.01047584 0.01105818 0.01162313 0.01216969 0.01269783
 0.01320699 0.01369662 0.01416363 0.01461092 0.01504207 0.01546028 0.01587315 0.0162759 0.01666753 0.01704197
 0.01739261 0.0177258 0.01804036 0.01835155 0.01866315 0.01898638 0.01932408 0.01968083 0.02005755 0.02045485
 0.02087278 0.02131263 0.02177492 0.02227034 0.02279951 0.02337454 0.02399083 0.02463876 0.0253075 0.02596395
 0.02659911 0.02718134 0.02770675 0.02815827 0.02853388 0.0288252 0.02903525 0.02916108 0.02921497 0.02919978
 0.02913059 0.02901105 0.02885592 0.02866672 0.02846439 0.02825065 0.02804913 0.02786159 0.02770133 0.0275685
 0.02746389 0.02738632 0.02732872 0.02728828 0.02724994 0.02721086 0.02715449 0.02708255 0.0269899 0.02688093
 0.02676045 0.02662808 0.02648659 0.02633022 0.02615613 0.0259603 0.02573893 0.02549612 0.02523016 0.02495586
 0.02467485 0.02440417 0.02414715 0.02390249 0.02367092 0.02342794 0.02317229 0.02287976 0.02255089 0.02217858
 0.02176454 0.0213116 0.0208217 0.02030081 0.01975182 0.01918381 0.01859616 0.01799344 0.01736923 0.01671838
 0.01603917 0.01532632 0.01458974 0.01383138 0.01306293 0.01228852 0.01151325 0.01073896 0.009966402 0.009196282
 0.00842412 0.007649795 0.006864421 0.006067857 0.005258648 0.00443804 0.003615479 0.002791487 0.001973423 0.001160569
 0.0003536179 -0.0004456898 -0.001234473 -0.002009203 -0.002763561 -0.003496775 -0.004205178 -0.004891538 -0.005555729 -0.006203062
 -0.006834683 -0.007458846 -0.008078199 -0.008698009 -0.009320861 -0.009941557 -0.01056032 -0.01116678 -0.01176019 -0.01233462
 -0.01288988 -0.0134244 -0.01393795 -0.01442835 -0.01489456 -0.01533155 -0.01573699 -0.01610172 -0.01642444 -0.01669651
 -0.01692285 -0.01710434 -0.01725188 -0.0173752 -0.01748371 -0.01758625 -0.01768718 -0.01779105 -0.01789686 -0.01800666
 -0.01811115 -0.01820903 -0.01829162 -0.01835614 -0.0184138 -0.01846468 -0.01853481 -0.01862488 -0.01874351 -0.01888798
 -0.01903953 -0.01919565 -0.0193346 -0.01945738 -0.01955548 -0.01963119 -0.01968417 -0.01971831 -0.01973734 -0.01974822
 -0.01975864 -0.01977323 -0.01979828 -0.01983172 -0.01987481 -0.01992238 -0.01997373 -0.02002231 -0.02006732 -0.02010029
 -0.02011989 -0.02012206 -0.02010615 -0.02007665 -0.02003384 -0.01998423 -0.01992782 -0.01986749 -0.01980269 -0.01973301
 -0.01965674 -0.01956872 -0.01946775 -0.01934676 -0.01921171 -0.01906487 -0.01892013 -0.01879186 -0.01868791 -0.01862109
 -0.01858161 -0.01857075 -0.01856906 -0.01857115 -0.01856284 -0.0185402 -0.01849696 -0.01843194 -0.01834113 -0.01822407
 -0.01807942 -0.01790743 -0.01771576 -0.01750621 -0.01729734 -0.01709097 -0.01690613 -0.01674152 -0.01660462 -0.01649025
 -0.01639272 -0.01630524 -0.01621668 -0.01612104 -0.01600778 -0.01587685 -0.01572241 -0.01555583 -0.01537891 -0.01520833
 -0.01505022 -0.01491176 -0.01479679 -0.01469914 -0.01461897 -0.01454622 -0.01448019 -0.01441274 -0.01434354 -0.01426774
 -0.01418585 -0.0141 -0.0140114 -0.01392743 -0.01384734 -0.01377369 -0.01370274 -0.01362825 -0.01354723 -0.01345191
 -0.01334373 -0.0132201 -0.01308687 -0.01294654 -0.0128056 -0.0126687 -0.0125353 -0.01240785 -0.01227644 -0.01213957
 -0.01198887 -0.01182202 -0.01164419 -0.0114552 -0.01126966 -0.01108824 -0.01092188 -0.01077038 -0.01063672 -0.01052025
 -0.01041987 -0.01033442 -0.01026072 -0.01019609 -0.01013448 -0.01007169 -0.009999676 -0.009914623 -0.009809507 -0.009683897
 -0.009533727 -0.009365734 -0.009179868 -0.008990219 -0.00880037 -0.008623919 -0.008465535 -0.008325552 -0.008206162 -0.008090697
 -0.007978237 -0.007851012 -0.007708475 -0.007549509 -0.007375232 -0.007196163 -0.007012143 -0.006827765 -0.006642105 -0.006453521
 -0.006264177 -0.006076987 -0.005895967 -0.005729351 -0.005575948 -0.005440034 -0.005311735 -0.005186971 -0.005053641 -0.004903297
 -0.004736033 -0.004546938 -0.004353931 -0.004159022 -0.00398177 -0.003826086 -0.003694334 -0.003587414 -0.003496599 -0.003421486
 -0.0033557 -0.003298386 -0.0032397 -0.003177552 -0.003094981 -0.002993401 -0.002866542 -0.002720888 -0.002567491 -0.002409786
 -0.00225819 -0.002111573 -0.001971734 -0.001839544 -0.001716982 -0.001601474 -0.001494824 -0.001384446 -0.001266184 -0.001133408
 -0.000981183 -0.000824399 -0.0006636781 -0.0005184417 -0.0003908975 -0.0002819072 -0.0001912774 -0.0001048385 -2.176088E-05 7.18497E-05
 0.0001751824 0.0002924064 0.0004204068 0.00055165 0.0006838558 0.0008074268 0.0009246864 0.001034751 0.00114074 0.001245626
 0.001351147 0.001457226 0.001572457 0.001700022 0.001849607 0.002028916 0.002224644 0.002438164 0.002639166 0.002822124
 0.002980036 0.003110621 0.003237498 0.003361712 0.003500269 0.003651855 0.003809137 0.003970294 0.004121432 0.004264071
 0.004393678 0.004517359 0.004646034 0.00479042 0.004973043 0.005194508 0.005468906 0.005777269 0.006113042 0.006452699
 0.006783324 0.007090447 0.007367659 0.007602923 0.007792238 0.007930116 0.008013013 0.008058819 0.008067835 0.008071009
 0.008069942 0.008089957 0.008132361 0.008220391 0.008353869 0.008547575 0.008793943 0.009078512 0.009390074 0.009696175
 0.009993709 0.01026457 0.01050819 0.01071967 0.01089257 0.01101844 0.01110173 0.01113702 0.01115088 0.01115022
 0.01115782 0.0111824 0.01122178 0.01127776 0.01133736 0.01139961 0.01145491 0.01150289 0.01154399 0.01158013
 0.01163196 0.01170127 0.01181154 0.0119563 0.01212798 0.01231752 0.01249882 0.01267375 0.0128335 0.01298318
 0.01312558 0.01326278 0.01339259 0.01353205 0.01368664 0.01387851 0.0141279 0.01439236 0.01467249 0.01489116
 0.01503042 0.01510134 0.01510137 0.01508032 0.01504052 0.0150082 0.01498387 0.01498246 0.01500307 0.01505136
 0.01512149 0.01519643 0.01527335 0.01533486 0.01538812 0.01543951 0.01548709 0.01553577 0.01556841 0.01556953
 0.0155427 0.01547862 0.01541124 0.01535026 0.01531956 0.01532834 0.01537696 0.01546732 0.01559309 0.01575519
 0.0159275 0.01610834 0.01624168 0.01632536 0.01631466 0.01621408 0.01602272 0.01575058 0.01542625 0.01506557
 0.01471395 0.01439076 0.01415059 0.01398954 0.01393277 0.01394324 0.01400025 0.01407988 0.01416046 0.01424702
 0.01433794 0.01443445 0.0145358 0.01464747 0.01476912 0.01491607 0.01509167 0.01527231 0.01545673 0.015599
 0.01570183 0.01578263 0.01584924 0.01595961 0.01610754 0.01630296 0.01653481 0.01677923 0.01703877 0.01731022
 0.01758891 0.01787509 0.01814447 0.01837763 0.01856288 0.01868531 0.01875619 0.01877691 0.01875429 0.01868945
 0.01858987 0.01845408 0.01831059 0.0181613 0.01803553 0.01793489 0.01787501 0.0178569 0.01789886 0.01799936
 0.01816382 0.01838149 0.01861871 0.01886579 0.01908224 0.01926878 0.01941092 0.01950634 0.01954563 0.01953257
 0.01945615 0.01935806 0.01925244 0.01918735 0.01919141 0.01925318 0.01938137 0.01952283 0.01966961 0.0197924
 0.01988663 0.01995289 0.01999105 0.02000996 0.0200103 0.02000453 0.01999053 0.01996436 0.01991954 0.01982759
 0.01969262 0.01950465 0.01928386 0.01905942 0.01884283 0.01866229 0.0185088 0.01838745 0.01827823 0.01817617
 0.01805061 0.01788917 0.01767299 0.01738611 0.01707272 0.01673172 0.01644737 0.01623001 0.01610078 0.01606124
 0.01604364 0.01604372 0.01598918 0.01588062 0.01568495 0.01540536 0.0150285 0.01457191 0.0140604 0.0135322
 0.01306188 0.0126697 0.01241663 0.01227838 0.01226035 0.01232231 0.01244586 0.01259797 0.01276536 0.01291753
 0.01304541 0.01312757 0.0131584 0.01313401 0.01305282 0.01292479 0.01275043</values></Ydata></AB><ScSm><Ydata ylabel="Single channel"><values byteorder="INTEL" format="FLOAT32" numvalues="1814"> 0.07397683 0.07399145 0.074071 0.07423592 0.07445492 0.0746639 0.07481179 0.07489207 0.0749229 0.07490742
 0.07484747 0.07479462 0.07483812 0.07501607 0.07526115 0.07544842 0.07549643 0.07543835 0.07540281 0.07548904
 0.07563306 0.0756264 0.07531123 0.07476056 0.07423136 0.07392849 0.07387474 0.07405651 0.07455285 0.07530609
 0.07585712 0.07567254 0.07481901 0.07399307 0.07374837 0.07396373 0.07417103 0.07409146 0.07371973 0.07322541
 0.07300799 0.07358668 0.07509042 0.07684024 0.07759408 0.07632931 0.07297244 0.06863622 0.06521235 0.0643556
 0.06631408 0.06959256 0.07207475 0.07271184 0.07202497 0.07103796 0.07018249 0.06942594 0.06896679 0.06926496
 0.07039768 0.07163788 0.07182728 0.07035708 0.06789605 0.06592881 0.06540782 0.06614837 0.06761564 0.06950657
 0.07094172 0.07000301 0.0656226 0.05997528 0.0575074 0.06070753 0.06745179 0.07309221 0.0745946 0.07221542
 0.0681324 0.06464161 0.06331645 0.06458162 0.06761232 0.07102469 0.07372512 0.07497004 0.07418461 0.07145929
 0.06802935 0.06566729 0.06559317 0.06801029 0.07206861 0.07592474 0.07757138 0.0763278 0.07330001 0.07020573
 0.06823699 0.06806487 0.07000703 0.07368651 0.0780172 0.08184563 0.08442621 0.08547444 0.08521016 0.08422416
 0.08303324 0.08199972 0.08165277 0.08236109 0.08347699 0.08358325 0.08204128 0.07984514 0.07859614 0.07884507
 0.07965206 0.07972924 0.07874327 0.07709475 0.07463729 0.07067456 0.06554357 0.06101967 0.05854128 0.05812112
 0.0594082 0.06224936 0.06544595 0.06667129 0.06500991 0.06258404 0.06243733 0.06529444 0.06919718 0.07191904
 0.07302614 0.07372758 0.07530649 0.07779853 0.07980964 0.07955381 0.0766231 0.07299905 0.07165566 0.07364032
 0.07707161 0.07946464 0.08035573 0.08103137 0.08227968 0.08317589 0.08204345 0.07843846 0.07423839 0.07249542
 0.07477829 0.07959814 0.08348215 0.08354264 0.07942289 0.0733932 0.06858213 0.06681003 0.06808537 0.0717767
 0.0773106 0.08356763 0.08861123 0.09076816 0.08984393 0.08702045 0.08351514 0.07945663 0.07452449 0.06982403
 0.06811845 0.07120895 0.07762213 0.08383913 0.0874404 0.08831187 0.08726237 0.0845172 0.07995285 0.07456087
 0.07093057 0.07124022 0.07464465 0.07775522 0.07819422 0.07676163 0.07568969 0.07583708 0.07636906 0.07649653
 0.07659517 0.07757105 0.07958203 0.08170234 0.08283427 0.08270918 0.08192767 0.08125273 0.08091932 0.08046544
 0.07938285 0.07813482 0.07810864 0.08009637 0.08320238 0.08576201 0.08700998 0.08735862 0.08729261 0.08652455
 0.08442209 0.08120874 0.07845645 0.07792264 0.07984976 0.08281159 0.08519627 0.0863662 0.08650715 0.08604511
 0.08535726 0.08464903 0.08401543 0.08370242 0.08404671 0.08499292 0.08598481 0.08652346 0.08657429 0.08631635
 0.08578949 0.08496802 0.08401597 0.08329314 0.0830972 0.08343901 0.08408473 0.08476743 0.08528316 0.08545337
 0.0851884 0.08462095 0.08402361 0.08356088 0.08323881 0.08307805 0.0831641 0.08348857 0.08387493 0.08412642
 0.084181 0.08408926 0.0839061 0.08365011 0.08333968 0.08303517 0.0828395 0.08283152 0.0829739 0.08312876
 0.08321136 0.08327609 0.08338565 0.08346154 0.08336615 0.08309738 0.08280626 0.08263178 0.08258761 0.08260174
 0.08259641 0.08250235 0.0822479 0.08181848 0.08134691 0.08107036 0.08113877 0.08150072 0.08199249 0.08246459
 0.08280404 0.08294412 0.08291538 0.08281957 0.08271132 0.0825543 0.08231346 0.08205024 0.08190627 0.0819934
 0.08228989 0.082651 0.08293097 0.08307482 0.08310357 0.08307754 0.08308187 0.08316553 0.08326889 0.08327898
 0.08317553 0.08306485 0.08305414 0.08313364 0.08319822 0.08316756 0.08307494 0.08303105 0.08310153 0.08324341
 0.08337133 0.08345564 0.08353485 0.08364493 0.08375267 0.0837703 0.08365232 0.08346523 0.08332528 0.08327596
 0.08327444 0.08328995 0.08335108 0.0834785 0.08362313 0.08370747 0.08371162 0.08368923 0.08369441 0.08371243
 0.08368012 0.08356631 0.08341096 0.08328618 0.08323602 0.08325255 0.08329176 0.08330625 0.08327258 0.08319643
 0.08309717 0.08299017 0.08288123 0.08277869 0.08271211 0.08272336 0.08281723 0.08292377 0.08293731 0.08281004
 0.08260107 0.08242245 0.08233503 0.08230186 0.08224262 0.08212166 0.08197246 0.08184846 0.08177266 0.08173297
 0.08170427 0.08166879 0.08163588 0.08164947 0.08175373 0.08193214 0.08209655 0.08216339 0.08213617 0.0820917
 0.08209401 0.08214593 0.08221668 0.08228766 0.0823703 0.08249313 0.08266257 0.08283109 0.08293165 0.08295529
 0.08296755 0.08303982 0.08319396 0.08341096 0.08364743 0.0838389 0.0839383 0.08397007 0.08401296 0.08411601
 0.08425824 0.08439614 0.08452074 0.08465402 0.08481242 0.08499572 0.0852052 0.08545444 0.08575414 0.08608848
 0.08641084 0.08667156 0.08686172 0.08703226 0.08725907 0.08757985 0.08796391 0.08834324 0.0886707 0.08895188
 0.08922482 0.08951268 0.08980578 0.09009691 0.09041462 0.09079481 0.09122691 0.09165828 0.09205224 0.09241785
 0.0927831 0.09316171 0.09355219 0.09395541 0.09438437 0.09485042 0.09533414 0.09578043 0.09614182 0.09642697
 0.09669563 0.09701075 0.09739803 0.09782805 0.09822364 0.09851502 0.09871712 0.09893003 0.09923258 0.09959604
 0.09993734 0.100238 0.1005633 0.100964 0.1014024 0.1017953 0.1021063 0.1023735 0.1026538 0.1029568
 0.1032365 0.1034452 0.1035908 0.1037314 0.1039154 0.1041478 0.1044239 0.1047631 0.1051756 0.1056149
 0.1060031 0.106301 0.1065258 0.106711 0.1068788 0.1070423 0.1072061 0.1073676 0.1075308 0.1077029
 0.1078695 0.1080034 0.1081128 0.1082498 0.1084537 0.1087151 0.1090146 0.1093584 0.1097464 0.1101369
 0.1104896 0.110829 0.1112152 0.1116453 0.1120322 0.1123029 0.1124771 0.1126199 0.1127565 0.1128843
 0.1130373 0.1132787 0.1136297 0.1140473 0.1144747 0.1148856 0.1152762 0.1156417 0.115966 0.1162257
 0.1164027 0.1165029 0.1165663 0.1166528 0.1168125 0.1170548 0.1173377 0.117595 0.1177794 0.117874
 0.1178687 0.1177558 0.1175652 0.1173742 0.1172426 0.1171396 0.11696 0.116615 0.1160871 0.1154041
 0.1145892 0.1136571 0.1126455 0.1116332 0.1107198 0.1099885 0.1094914 0.109268 0.1093558 0.1097584
 0.1104006 0.1111366 0.1118114 0.1123031 0.1125147 0.1123708 0.1118553 0.1110403 0.1100526 0.1090117
 0.1079985 0.1070494 0.1061572 0.1053036 0.1045275 0.1039612 0.1037824 0.1041332 0.1050823 0.1066226
 0.1086538 0.1109649 0.1132812 0.1153721 0.1171351 0.1185887 0.1198096 0.1208865 0.1219001 0.1228927
 0.123845 0.1247071 0.1254602 0.1261315 0.1267519 0.1273216 0.1278164 0.1282105 0.1284947 0.1286882
 0.1288256 0.1289266 0.1289901 0.1290237 0.1290535 0.1290889 0.1290898 0.1289775 0.1286766 0.1281525
 0.1274392 0.1266612 0.1260468 0.1259058 0.1265298 0.1280306 0.1302387 0.1327763 0.1352494 0.1373922
 0.1390915 0.1403557 0.1412802 0.1419968 0.1426114 0.1431768 0.1437104 0.1442196 0.1447105 0.1451886
 0.1456582 0.1461233 0.1465891 0.1470578 0.1475182 0.1479483 0.1483395 0.1487165 0.1491211 0.1495747
 0.1500563 0.1505216 0.1509482 0.1513569 0.1517752 0.1521883 0.152552 0.1528543 0.1531366 0.1534531
 0.1538289 0.1542534 0.1546877 0.1550797 0.1554002 0.1556689 0.1559335 0.1562237 0.1565371 0.1568594
 0.1571814 0.1574985 0.1578122 0.1581342 0.15848 0.1588472 0.1592027 0.1595054 0.1597458 0.159957
 0.1601828 0.1604419 0.1607226 0.1610037 0.1612781 0.1615604 0.1618718 0.1622128 0.1625526 0.1628531
 0.1631021 0.1633211 0.163544 0.1637916 0.1640653 0.1643553 0.16465 0.1649383 0.1652132 0.1654757
 0.1657344 0.1659967 0.1662627 0.1665278 0.1667908 0.1670567 0.1673317 0.1676156 0.1679047 0.1682026
 0.1685207 0.1688586 0.1691901 0.1694811 0.1697215 0.1699301 0.1701326 0.1703447 0.1705738 0.1708236
 0.1710922 0.171371 0.1716483 0.1719137 0.1721629 0.1724038 0.1726524 0.1729176 0.1731928 0.1734644
 0.1737289 0.1739949 0.1742719 0.1745594 0.174848 0.1751274 0.1753923 0.1756437 0.1758889 0.1761346
 0.1763813 0.1766245 0.1768645 0.1771095 0.177366 0.1776309 0.1778937 0.1781473 0.1783932 0.1786368
 0.1788804 0.1791236 0.1793692 0.1796214 0.1798787 0.1801347 0.180388 0.1806435 0.1809032 0.1811622
 0.1814166 0.1816678 0.1819183 0.1821675 0.182414 0.1826583 0.1829025 0.1831478 0.1833944 0.1836433
 0.1838942 0.1841443 0.1843895 0.1846299 0.184868 0.1851042 0.1853384 0.1855762 0.1858241 0.1860827
 0.1863485 0.1866167 0.18688 0.187131 0.1873706 0.1876097 0.1878588 0.1881201 0.1883865 0.1886471
 0.1888969 0.1891417 0.1893903 0.1896445 0.1899007 0.1901549 0.1904019 0.1906384 0.190869 0.1910997
 0.1913284 0.1915494 0.1917637 0.1919807 0.1922117 0.192462 0.1927238 0.1929816 0.1932291 0.1934722
 0.1937164 0.1939616 0.1942098 0.1944639 0.1947211 0.1949756 0.1952246 0.1954681 0.1957106 0.19596
 0.1962181 0.196478 0.1967371 0.1969996 0.1972633 0.1975194 0.1977664 0.198011 0.1982577 0.198506
 0.1987526 0.198993 0.1992291 0.19947 0.1997171 0.1999618 0.2002022 0.2004448 0.2006893 0.2009319
 0.2011769 0.2014275 0.2016761 0.2019187 0.2021627 0.2024144 0.202674 0.2029396 0.2032004 0.2034432
 0.2036726 0.2039064 0.2041485 0.2043892 0.2046251 0.2048584 0.2050898 0.2053239 0.2055609 0.2057779
 0.2059201 0.2058575 0.2052701 0.203521 0.1996314 0.1924688 0.1812038 0.1658424 0.1474057 0.1275569
 0.107982 0.08995426 0.07421845 0.06109772 0.05066126 0.04282545 0.03740986 0.03424532 0.03330087 0.03481565
 0.03943112 0.04780875 0.05920031 0.07018039 0.07597702 0.07423996 0.06728826 0.05999704 0.05574622 0.05478339
 0.05567173 0.05718004 0.05891334 0.06108502 0.06406796 0.06796792 0.07260901 0.07799634 0.0845336 0.09251273
 0.1015112 0.1105702 0.1190162 0.1269867 0.1351072 0.1437341 0.1525752 0.1609761 0.1684433 0.1748909
 0.1805326 0.185651 0.1904405 0.1949846 0.1993126 0.2034109 0.2071404 0.2101901 0.2122155 0.2131021
 0.2131039 0.212705 0.2123286 0.2121674 0.2122377 0.2125101 0.212964 0.2135781 0.2143278 0.2151864
 0.2161166 0.2170734 0.2180226 0.2189451 0.2198265 0.2206528 0.2214139 0.2221043 0.2227246 0.2232821
 0.2237861 0.2242463 0.2246752 0.2250823 0.2254663 0.2258241 0.2261621 0.2264906 0.2268082 0.2271034
 0.2273691 0.2276109 0.2278431 0.2280774 0.2283128 0.2285404 0.2287572 0.2289705 0.2291889 0.2294141
 0.2296426 0.2298665 0.2300754 0.2302648 0.2304401 0.2306133 0.2307943 0.2309897 0.2311996 0.2314166
 0.2316303 0.2318366 0.2320381 0.2322399 0.2324468 0.2326597 0.2328749 0.2330872 0.2332919 0.2334849
 0.2336695 0.2338634 0.2340838 0.2343269 0.2345729 0.2348098 0.2350394 0.2352658 0.2354908 0.2357135
 0.2359236 0.2361034 0.236248 0.2363782 0.2365299 0.2367291 0.2369723 0.2372298 0.2374722 0.2376928
 0.2379006 0.2381027 0.238299 0.2384857 0.2386642 0.2388542 0.2390836 0.2393516 0.2396228 0.2398713
 0.2401067 0.2403474 0.2405989 0.2408621 0.2411259 0.2413536 0.2415124 0.2416267 0.2417794 0.2420472
 0.2424287 0.2428375 0.2431798 0.2434376 0.2436635 0.2439135 0.2442103 0.244525 0.2447578 0.2448035
 0.2447088 0.2447006 0.2449777 0.2455129 0.2461106 0.246611 0.2469888 0.2472998 0.2475902 0.2478506
 0.2480275 0.248081 0.2480581 0.2481097 0.248387 0.2488881 0.2494483 0.2499114 0.2502522 0.2505139
 0.2507246 0.250901 0.2510108 0.2509127 0.2505084 0.2500178 0.2499206 0.2504916 0.2514886 0.2524092
 0.2529871 0.2533264 0.2536144 0.2538921 0.2541159 0.2542004 0.2538965 0.252931 0.2515322 0.2505818
 0.2508833 0.2523519 0.2541605 0.2555693 0.2563907 0.2568077 0.257056 0.2572685 0.2573767 0.2571089
 0.2562905 0.2552577 0.2547846 0.2553664 0.2566587 0.2578475 0.258487 0.2587389 0.2589325 0.2591977
 0.2593815 0.2590062 0.2575368 0.2551672 0.2532205 0.2532195 0.2553938 0.2584009 0.2606571 0.2617058
 0.2620913 0.2621809 0.2616246 0.2599814 0.2573723 0.2544191 0.2520601 0.2514392 0.2531515 0.2562796
 0.2589077 0.2600121 0.2603226 0.2610852 0.2625647 0.2640377 0.2647481 0.2645006 0.2635295 0.2620748
 0.260269 0.2585414 0.2578555 0.259019 0.261701 0.2645552 0.2664682 0.2674044 0.2678133 0.2673175
 0.2644532 0.2584324 0.251339 0.2475435 0.2498388 0.2565178 0.2632107 0.2671811 0.2688143 0.2695605
 0.2699991 0.2696833 0.267379 0.2617215 0.2533488 0.2462736 0.2451763 0.2507684 0.2589864 0.2647952
 0.2656454 0.261749 0.2551446 0.2490701 0.2466495 0.249008 0.254784 0.2614728 0.2669272 0.2699411
 0.2702432 0.2683843 0.2656765 0.263862 0.263859 0.2643945 0.2629624 0.2589896 0.2548012 0.2521999
 0.2496536 0.2451114 0.2405249 0.2405505 0.2465118 0.2541997 0.258611 0.2590138 0.2580207 0.2568088
 0.2530712 0.2443238 0.2326169 0.2245895 0.2256557 0.2343903 0.2438173 0.2482473 0.2477865 0.2462463
 0.2460521 0.2457876 0.242209 0.2344957 0.226339 0.2228233 0.2250018 0.2289429 0.2303523 0.227989
 0.2221142 0.2130883 0.2038367 0.2007085 0.2080836 0.2229685 0.2373754 0.2449059 0.2430257 0.2315543
 0.213573 0.1973372 0.1922466 0.2004091 0.2140865 0.2228382 0.2217929 0.2124444 0.1981826 0.1820182
 0.168024 0.1616657 0.1664706 0.180488 0.1964865 0.2055661 0.2020186 0.1877366 0.172589 0.1673039
 0.1737171 0.1835559 0.1877543 0.1846912 0.1788117 0.1748438 0.1750625 0.1790534 0.1841718 0.1879704
 0.1901513 0.1898471 0.1829457 0.1670689 0.1483122 0.1372933 0.1381001 0.1461008 0.156474 0.1685652
 0.1804253 0.1857891 0.1811516 0.172471 0.170165 0.1780481 0.1900129 0.1974712 0.1978494 0.1951159
 0.1935603 0.1931401 0.1916796 0.1899652 0.1918943 0.1991575 0.2083188 0.2146431 0.2170069 0.2175046
 0.2178703 0.218158 0.217934 0.2170494 0.2155661 0.2138699 0.2125534 0.2117334 0.2109352 0.2097941
 0.2080271 0.2043848 0.196952 0.1859207 0.1753279 0.1699127 0.1701399 0.1724873 0.1746094 0.1767029
 0.1767431 0.1691306 0.1520698 0.1336223 0.1258573 0.1332141 0.1492074 0.1638185 0.1711679 0.1700217
 0.1607867 0.1457152 0.1313927 0.1267425 0.1357851 0.1537892 0.1723268 0.1865071 0.1955921 0.1990637
 0.1957917 0.1869629 0.1772898 0.1723751 0.1753037 0.1852233 0.197614 0.2054683 0.2026899 0.1901243
 0.1783706 0.1800214 0.1964129 0.2153975 0.2250011 0.2256129 0.2252316 0.2270346 0.2277287 0.2262374
 0.2272711 0.2347886 0.2461107 0.254542 0.255252 0.2471811 0.2324159 0.2166854 0.2079053 0.2098722
 0.2180119 0.2244165 0.2255423 0.2217472 0.2125889 0.198832 0.1875041 0.1876625 0.1998742 0.2149525
 0.2244009 0.2281591 0.2308163 0.2336962 0.2332785 0.2265941 0.2162332 0.2087589 0.2082062 0.2125244
 0.2169828 0.2191447 0.2189121 0.215703 0.2088156 0.2005562 0.196253 0.1996251 0.2089418 0.2186677
 0.2244302 0.2257395 0.2246323 0.2230541 0.2215724 0.2195622 0.2165068 0.2136935 0.2139793 0.2187089
 0.2255093 0.2306832 0.2334303 0.2361448 0.2406664 0.2457576 0.2486258 0.2479956 0.2453409 0.2436042
 0.244827 0.2485201 0.2520247 0.2527793 0.2507477 0.2486689 0.2495302 0.2537164 0.2589629 0.262921
 0.2650791 0.2662736 0.2672895 0.2681842 0.2682653 0.2666301 0.263449 0.2607084 0.2608058 0.2641771
 0.268881 0.2725962 0.274481 0.2750542 0.2749491 0.2742456 0.2728283 0.2709814 0.269405 0.2686794
 0.2688586 0.2696023 0.2705356 0.2714164 0.2721269 0.2726594 0.2730744 0.2734141 0.2736847 0.2739118
 0.2741258 0.274289 0.2743334 0.2743011 0.2743565 0.2745969 0.2749168 0.2751177 0.275088 0.2747934
 0.2741608 0.2731022 0.2716525 0.2699635 0.2681304 0.2661371 0.264075 0.2623719 0.2616628 0.2623261
 0.264137 0.266404 0.268436 0.269884 0.2707418 0.2711664 0.2713369 0.2713924 0.2714046 0.2713807
 0.2713045 0.2711793 0.2710281 0.2708637 0.2706833 0.2705003 0.2703587 0.270295 0.2702916 0.2702841
 0.2702087 0.2700393 0.2697932 0.269509 0.2692077 0.2688654 0.268424 0.2678351 0.2670984 0.2662669
 0.2654218 0.2646294 0.2639013 0.2631864 0.2624135 0.2615386 0.2605385 0.2593733 0.2580115 0.2565098
 0.2550189 0.2536655 0.2524484 0.2512682 0.2500234 0.24866 0.2471694 0.2455766 0.2439232 0.2422437
 0.2405563 0.2388682 0.2371762 0.2354665 0.2337224 0.231933 0.2300913 0.2281917 0.2262323 0.2242128
 0.2221128 0.2198651 0.2173565 0.2144659 0.2110966 0.2071846 0.2027148 0.1977586 0.1924824 0.1870993
 0.1818079 0.176767 0.1721023 0.1679187 0.1643067 0.161333 0.1590327 0.15742 0.1565039 0.1562855
 0.1567478 0.1578497 0.1595141 0.1616161 0.1639959 0.1664817 0.1689001 0.1711018 0.1730235 0.1747262
 0.1763429 0.1779719 0.1796179 0.1812229 0.1827384 0.1841493 0.1854388 0.1865653 0.1874958 0.1882429
 0.1888503 0.1893591 0.1898017 0.1902039 0.190579 0.1909292 0.1912589 0.1915821 0.1919187 0.192287
 0.192693 0.1931313 0.1936057 0.1941439 0.194784 0.1955517 0.1964493 0.1974558 0.1985428 0.1996961
 0.2009156 0.2021985 0.2035473 0.2049944 0.206592 0.2083743 0.2103381 0.2124448 0.2146195 0.2167598
 0.2187664 0.2205646 0.2221068 0.2233732 0.2243719 0.2251316 0.2256925 0.2261008 0.2263953 0.226597
 0.2267138 0.2267476 0.2266946 0.2265483 0.2263011 0.2259408 0.2254604 0.224883 0.2242604 0.2236362
 0.2230239 0.222422 0.221832 0.2212622 0.2207265 0.220236 0.2197849 0.2193505 0.2189052 0.2184245
 0.2178944 0.2173139 0.2166765 0.2159528 0.2151139 0.2141615 0.213112 0.2119633 0.2107047 0.2093416
 0.2078873 0.2063418 0.2046977 0.2029566 0.2011319 0.1992387 0.1972781 0.1952338 0.1931048 0.190942
 0.1888331 0.1868453 0.1849895 0.1832339 0.1815436 0.1799133 0.178368 0.176927 0.1755752 0.1742824
 0.1730333 0.1718296 0.1706773 0.1695872 0.1685782 0.1676693 0.1668679 0.1661627 0.1655292 0.1649525
 0.1644395 0.1640013 0.1636437 0.1633812 0.1632339 0.1631871 0.1631768 0.1631319 0.1630152 0.1628274
 0.1625974 0.162369 0.1621754 0.1620196 0.1618796 0.1617159 0.1614694 0.161065 0.1604189 0.159452
 0.1581255 0.1564759 0.1546009 0.1526155 0.1506377 0.1487926 0.1471896 0.1458915 0.1449033 0.1441702
 0.1435955 0.1430976 0.1426663 0.1423555 0.1422267 0.1422835 0.1424334 0.1425339 0.1425221 0.1424905
 0.1426054 0.1429664 0.1435519 0.1442512 0.1449277 0.1454865 0.1459042 0.146193 0.1463618 0.1464184
 0.1463734 0.1462315 0.1460029 0.1457157 0.1453922 0.1450311 0.1446213 0.1441477 0.1435886 0.1429385
 0.1422149 0.1414237 0.1405482 0.1395721 0.1384735 0.1372311 0.1359127 0.1347307 0.1339468 0.1337226
 0.1340522 0.1347734 0.1356599 0.136561 0.1374016 0.1380219 0.1382048 0.1380354 0.1380986 0.139064
 0.1410353 0.1434212 0.1454576 0.1467488 0.1473019 0.1472372 0.1466342 0.1455574 0.1440372 0.1420466
 0.1395984 0.1368007 0.1337762 0.1306501 0.1276243 0.1249097 0.1226005 0.1207043 0.1192136 0.1181729
 0.1177123 0.1174586 0.1155614 0.1096729 0.1005714 0.09376553 0.09486291 0.1032599 0.1125608 0.1173347
 0.1174383 0.1157667 0.1143139 0.1133815 0.1128626 0.1128866 0.1135855 0.1148421 0.1162804 0.1174831
 0.1182691 0.1186694 0.1186294 0.1177912 0.1154702 0.1108924 0.1038173 0.09508756 0.0863426 0.0790718
 0.07396229 0.07091507 0.06934775 0.06853713 0.06799418 0.06768513 0.06790151 0.0689168 0.07076052 0.07327329
 0.07626842 0.0795209 0.08266062 0.08530292 0.08734293 0.0889572 0.09028409 0.09125884 0.09176851 0.0918109
 0.09147824 0.09089164 0.09016484 0.08936098 0.08845587 0.08737485 0.08612651 0.08491816 0.08405207 0.08364664
 0.08354147 0.08351865 0.08350104 0.08349821 0.08350116 0.08349019 0.08346265 0.08344747 0.08353741 0.08383907
 0.08433266 0.08484837 0.08521727 0.08540115 0.0854783 0.08551475 0.08542331 0.08502357 0.08433773 0.08367759
 0.0832395 0.08277363 0.0819299 0.08082297 0.07997404 0.07973506 0.07998045 0.08032857 0.08048415 0.08037564
 0.08014293 0.0800688 0.08038785 0.08101577</values></Ydata></ScSm><ScRf><Ydata ylabel="Single channel"><values byteorder="INTEL" format="FLOAT32" numvalues="1820"> 0.06065142 0.06080251 0.06089643 0.06093572 0.0609458 0.0609666 0.06103767 0.06117603 0.06136158 0.06154436
 0.06167691 0.06174617 0.06176633 0.06174704 0.0616971 0.06165992 0.06170407 0.06185639 0.06206133 0.06221758
 0.06225579 0.06219891 0.0621533 0.06220742 0.06231519 0.06230643 0.06204974 0.06160317 0.06117425 0.06092566
 0.06087551 0.06102253 0.0614455 0.06209892 0.06258874 0.06245409 0.06174146 0.06103495 0.06080861 0.06097382
 0.06114332 0.06107809 0.06076676 0.06035054 0.06016522 0.0606425 0.06188773 0.06333842 0.06396671 0.06292368
 0.06014483 0.05655047 0.05370863 0.05299144 0.05460714 0.05732224 0.05938745 0.05993193 0.05938169 0.05858054
 0.0578832 0.05725838 0.05686793 0.05709906 0.05802861 0.05906034 0.05922621 0.05800862 0.05595815 0.05431315
 0.05387344 0.0544912 0.05572115 0.0573043 0.05850249 0.05772104 0.05407707 0.04938161 0.04733217 0.05000049
 0.05562261 0.06032805 0.06158204 0.05959291 0.05618144 0.05327199 0.05217533 0.05323143 0.05574264 0.05856312
 0.06079908 0.06184102 0.06120597 0.05895807 0.0561176 0.05416023 0.0541073 0.0561292 0.05951053 0.06271027
 0.06406449 0.06302107 0.06050657 0.05794366 0.05631422 0.05617248 0.05778643 0.06085021 0.06446481 0.06766592
 0.06982319 0.07069503 0.07047072 0.06965379 0.06868099 0.06784892 0.0675838 0.06817886 0.06909242 0.06915601
 0.06785508 0.06602724 0.06500088 0.06522017 0.06589168 0.06594446 0.06511051 0.06373121 0.06168625 0.05839397
 0.05413278 0.05037753 0.04832209 0.04797804 0.04906174 0.05145408 0.05415305 0.05520524 0.05383521 0.0518124
 0.05168439 0.05406361 0.05731681 0.05958306 0.06050067 0.06108257 0.06240167 0.06448633 0.06617238 0.06597085
 0.06354181 0.06053603 0.05943049 0.06109565 0.063963 0.06596784 0.06673393 0.06733686 0.06842348 0.06920682
 0.06828289 0.06529291 0.06182014 0.06041411 0.0623692 0.06642687 0.06968293 0.06972854 0.06627346 0.06123025
 0.05722808 0.05578746 0.05690467 0.06005126 0.06475984 0.07010055 0.0744421 0.0763596 0.0756653 0.0733387
 0.07040909 0.0670004 0.06285661 0.0589218 0.0575396 0.06023523 0.06575644 0.07111645 0.07425961 0.07508296
 0.07426479 0.07198817 0.06814638 0.06359871 0.06058042 0.06096543 0.06401505 0.06680098 0.06727565 0.06613541
 0.06530771 0.06552993 0.06607832 0.06627613 0.06646185 0.06743111 0.06931849 0.07130597 0.07242291 0.0724262
 0.07184315 0.07135367 0.07117045 0.0708805 0.07003261 0.06905074 0.06917778 0.07110743 0.0740205 0.07642485
 0.0776494 0.07807972 0.07815361 0.0775996 0.07583316 0.07305541 0.07069874 0.07036134 0.07226045 0.07509786
 0.07740995 0.07862011 0.07889979 0.07863584 0.07816701 0.0776758 0.07724892 0.07711357 0.07757777 0.07858825
 0.07963355 0.08025672 0.08042696 0.08030814 0.07993717 0.07929667 0.07854846 0.0780287 0.07800369 0.07847121
 0.07921366 0.07999468 0.08063237 0.08094937 0.08083907 0.0804157 0.07995118 0.07962661 0.07945956 0.07946238
 0.07970312 0.08016465 0.08067452 0.08104479 0.08121917 0.08124945 0.08118972 0.08105758 0.08087198 0.0806971
 0.08063881 0.08076892 0.08103659 0.08130366 0.08150524 0.08171253 0.08197881 0.08219851 0.08221617 0.08203381
 0.08181963 0.08172844 0.08178084 0.08190268 0.08200748 0.08201513 0.08184996 0.0815055 0.08112641 0.08095264
 0.0811308 0.08161126 0.08223455 0.08284463 0.08331132 0.08355466 0.08360463 0.08357048 0.08351598 0.083414
 0.08323754 0.08305097 0.0829919 0.08316585 0.08354961 0.08400019 0.08436809 0.08458951 0.08468487 0.08472975
 0.08482642 0.08501993 0.08522198 0.08529267 0.08521797 0.08513916 0.0851844 0.08532323 0.08541501 0.08537524
 0.08526975 0.08524267 0.085366 0.08558004 0.08578016 0.08593202 0.08608718 0.08629601 0.0865169 0.08662802
 0.08655253 0.08635857 0.08619226 0.08612289 0.08611426 0.08614103 0.08624758 0.08645658 0.08668555 0.08681539
 0.08682407 0.0868047 0.08684568 0.08692586 0.08694724 0.08685121 0.08667884 0.08652681 0.08646832 0.08651128
 0.0866048 0.08667547 0.08667241 0.08659477 0.08648137 0.08637315 0.08628821 0.08623865 0.086263 0.08640902
 0.08665783 0.086882 0.08692394 0.0867388 0.08644778 0.08623248 0.08617286 0.08619121 0.08614841 0.0859796
 0.08573271 0.08549729 0.08532205 0.08519869 0.08509775 0.08500622 0.0849454 0.0849616 0.08507881 0.08523984
 0.08531585 0.08521282 0.08496568 0.08470191 0.08452271 0.08444418 0.08442894 0.08443183 0.08442968 0.08444088
 0.08449869 0.08458349 0.08461748 0.08455585 0.08444944 0.08439503 0.084456 0.08463459 0.08486739 0.0850379
 0.08505374 0.0849395 0.08481791 0.08478555 0.08483887 0.08492321 0.08500907 0.08509987 0.08519889 0.08530237
 0.08541952 0.08557612 0.08578943 0.08604283 0.08628677 0.08646952 0.08658031 0.08667 0.08681872 0.08706978
 0.08739199 0.08770737 0.08795604 0.08813932 0.08830529 0.08849291 0.08869871 0.08890697 0.08913392 0.08941159
 0.08973549 0.0900625 0.09036186 0.09064072 0.0909186 0.0912021 0.09149133 0.09179775 0.09214766 0.09255771
 0.09299536 0.09337592 0.09362681 0.09375934 0.09386651 0.09405375 0.0943675 0.094759 0.09510578 0.09530883
 0.09539652 0.09550239 0.09571564 0.09598976 0.09623253 0.09644898 0.09673904 0.09715895 0.09763399 0.09802546
 0.09826295 0.09839767 0.0985357 0.0987283 0.09893146 0.09907423 0.09915195 0.09922723 0.09934649 0.09950295
 0.09969567 0.09997037 0.1003567 0.1007979 0.1011915 0.1014834 0.1016898 0.1018472 0.1019748 0.1020705
 0.1021188 0.1021169 0.1021072 0.1021526 0.1022607 0.1023674 0.1024181 0.1024365 0.1024901 0.1026202
 0.1028297 0.1031085 0.1034289 0.1037369 0.103997 0.104247 0.104561 0.1049375 0.1052671 0.1054477
 0.1054985 0.1055172 0.1055557 0.1055998 0.1056555 0.1057825 0.1060212 0.1063393 0.1066751 0.1070027
 0.1073338 0.1076733 0.1079916 0.1082341 0.1083578 0.1083677 0.1083255 0.108322 0.1084301 0.1086675
 0.1089904 0.1093247 0.1096109 0.1098181 0.1099245 0.1099192 0.1098449 0.1098072 0.1098931 0.110073
 0.1102134 0.110192 0.1099777 0.1096025 0.1090967 0.1084813 0.1078042 0.1071485 0.1065967 0.1061956
 0.1059649 0.1059325 0.1061409 0.1066 0.1072403 0.1079356 0.108574 0.1090828 0.1093887 0.1094049
 0.1090945 0.1085226 0.1078178 0.107094 0.1064163 0.1058032 0.1052294 0.1046622 0.1041393 0.1038065
 0.1038513 0.1043933 0.1054247 0.1068153 0.1083516 0.1098057 0.1110258 0.1119914 0.1127826 0.1134942
 0.1141791 0.1148571 0.115541 0.1162241 0.1168615 0.1174052 0.1178591 0.1182715 0.1186755 0.119061
 0.1194009 0.1196806 0.1199081 0.1201144 0.1203269 0.1205232 0.1206369 0.1206307 0.1205417 0.1204321
 0.1203163 0.1201525 0.1198889 0.1195087 0.1190589 0.1186621 0.1184928 0.1187091 0.1193689 0.120396
 0.1216341 0.1229409 0.1242237 0.1253957 0.126354 0.1270377 0.1274858 0.1278048 0.1280853 0.1283659
 0.1286542 0.1289511 0.1292547 0.1295565 0.1298461 0.1301255 0.1304164 0.1307397 0.1310817 0.131395
 0.1316493 0.1318725 0.1321304 0.1324624 0.1328419 0.1332064 0.1335261 0.1338304 0.1341552 0.134481
 0.1347512 0.1349453 0.135107 0.1353019 0.1355697 0.135909 0.1362783 0.1366133 0.1368722 0.1370689
 0.1372509 0.13745 0.1376681 0.1378987 0.1381405 0.1383903 0.1386413 0.1388968 0.1391746 0.139482
 0.139787 0.1400333 0.1401976 0.1403208 0.1404704 0.1406772 0.1409162 0.141141 0.1413344 0.141529
 0.1417769 0.1420891 0.1424106 0.1426682 0.1428373 0.1429538 0.1430704 0.1432198 0.1434095 0.1436304
 0.1438626 0.1440847 0.1442883 0.1444838 0.1446894 0.144911 0.1451367 0.1453492 0.1455429 0.1457268
 0.145916 0.1461204 0.1463429 0.1465884 0.1468641 0.1471626 0.14745 0.1476857 0.1478589 0.1479932
 0.1481202 0.1482575 0.1484111 0.1485833 0.1487754 0.148986 0.1492099 0.1494365 0.1496542 0.1498573
 0.1500475 0.1502309 0.1504159 0.1506118 0.1508254 0.1510576 0.1513016 0.1515421 0.1517621 0.1519562
 0.1521361 0.15232 0.1525174 0.1527236 0.1529246 0.153111 0.153288 0.15347 0.1536656 0.1538692
 0.1540685 0.1542562 0.1544358 0.154618 0.1548103 0.1550112 0.155214 0.1554137 0.1556096 0.1558037
 0.1559985 0.1561942 0.1563876 0.1565768 0.1567661 0.1569616 0.1571659 0.1573779 0.1575939 0.1578071
 0.158009 0.1581949 0.158369 0.1585432 0.1587288 0.1589284 0.1591366 0.1593459 0.1595507 0.1597475
 0.1599374 0.1601274 0.1603248 0.1605334 0.1607558 0.1609914 0.1612303 0.1614577 0.1616672 0.1618634
 0.1620547 0.1622491 0.1624523 0.1626625 0.1628731 0.1630822 0.1632934 0.1635083 0.1637221 0.1639273
 0.1641202 0.1643046 0.1644875 0.1646715 0.1648532 0.1650328 0.1652157 0.165404 0.1655935 0.1657808
 0.1659661 0.1661509 0.1663386 0.1665327 0.1667317 0.1669294 0.1671235 0.1673164 0.1675117 0.1677132
 0.1679229 0.1681376 0.1683514 0.1685612 0.1687659 0.1689672 0.1691717 0.1693844 0.1695996 0.1698094
 0.1700153 0.1702228 0.1704313 0.1706384 0.1708444 0.1710513 0.1712642 0.1714886 0.1717183 0.1719375
 0.1721417 0.1723422 0.1725478 0.1727592 0.1729763 0.1731962 0.1734108 0.1736161 0.173817 0.1740179
 0.1742224 0.1744353 0.1746544 0.1748684 0.1750726 0.1752716 0.1754701 0.1756727 0.1758862 0.176108
 0.176327 0.1765395 0.1767448 0.1769265 0.1770422 0.1769859 0.1764834 0.1749794 0.1716221 0.1654353
 0.1557106 0.1424536 0.1265365 0.1093896 0.09247695 0.07691029 0.06333788 0.05203527 0.04305553 0.0363191
 0.03166436 0.02894228 0.02812686 0.02942922 0.0334098 0.04064255 0.05047794 0.05995497 0.06495717 0.06346313
 0.05747846 0.05120724 0.04755748 0.04673537 0.04750053 0.04879487 0.05028048 0.05214272 0.05470816 0.0580752
 0.06209428 0.06676421 0.07242468 0.07932229 0.08709382 0.09491865 0.1022212 0.1091201 0.1161527 0.1236282
 0.1312973 0.1385911 0.1450735 0.1506644 0.1555516 0.1599841 0.1641309 0.1680662 0.1718235 0.1753956
 0.178654 0.1813178 0.1830886 0.1838747 0.1838988 0.1835769 0.1832748 0.183162 0.1832513 0.183511
 0.183918 0.1844571 0.1851158 0.1858772 0.1867066 0.187558 0.1883958 0.1892012 0.1899657 0.1906883
 0.1913697 0.1920016 0.192572 0.19308 0.1935383 0.1939652 0.1943746 0.1947695 0.1951423 0.1954888
 0.1958157 0.1961273 0.196417 0.1966803 0.1969246 0.1971594 0.197387 0.1976058 0.1978154 0.198018
 0.1982208 0.1984316 0.1986492 0.198864 0.1990678 0.1992601 0.1994464 0.1996362 0.1998368 0.2000449
 0.2002492 0.2004421 0.2006251 0.2008052 0.2009902 0.2011857 0.2013901 0.2015953 0.201795 0.20199
 0.2021858 0.2023863 0.2025891 0.2027856 0.2029729 0.203162 0.2033654 0.2035796 0.2037911 0.2039969
 0.2042054 0.204422 0.2046434 0.2048617 0.205067 0.2052497 0.2054092 0.2055596 0.2057244 0.2059205
 0.2061427 0.2063659 0.2065696 0.2067574 0.2069468 0.2071464 0.2073485 0.207539 0.2077135 0.2078904
 0.2080984 0.2083432 0.2085999 0.2088463 0.2090852 0.209327 0.209574 0.209825 0.2100694 0.2102793
 0.2104322 0.2105507 0.2107031 0.2109522 0.2112953 0.2116579 0.2119613 0.2121948 0.2124065 0.2126417
 0.2129122 0.2131887 0.2133897 0.2134361 0.2133763 0.2134039 0.2136804 0.2141745 0.2147176 0.2151747
 0.2155218 0.215802 0.2160572 0.2162896 0.2164587 0.2165236 0.2165172 0.2165741 0.2168367 0.2173053
 0.2178245 0.2182463 0.2185501 0.2187843 0.2189812 0.219157 0.2192825 0.2192295 0.2189019 0.2184855
 0.2184056 0.2189143 0.2198063 0.2206403 0.2211758 0.2214953 0.2217613 0.2220159 0.2222237 0.2223056
 0.2220429 0.2212042 0.2199959 0.2191884 0.2194802 0.2207936 0.222403 0.2236615 0.2244077 0.2248034
 0.2250522 0.2252634 0.2253697 0.2251368 0.2244299 0.2235608 0.2232034 0.2237699 0.2249442 0.2260171
 0.226608 0.2268617 0.2270641 0.2273262 0.227513 0.2272032 0.2259241 0.2238473 0.2221453 0.2221665
 0.2241135 0.2267969 0.2288161 0.2297677 0.2301324 0.230234 0.2297637 0.2283369 0.2260695 0.223516
 0.2214977 0.2210109 0.2225717 0.2253665 0.2277013 0.2286746 0.2289449 0.2296321 0.2309804 0.2323446
 0.2330397 0.2328806 0.2320723 0.2308294 0.2292691 0.2277724 0.2271975 0.2282661 0.2306867 0.2332623
 0.2349989 0.2358607 0.2362514 0.2358468 0.2333523 0.2280664 0.221836 0.2185386 0.2206449 0.2266261
 0.2325957 0.2361337 0.2376041 0.238311 0.2387653 0.2385525 0.2365645 0.2315878 0.2241929 0.2179504
 0.2170259 0.2220548 0.229423 0.234651 0.2354673 0.2320544 0.2262244 0.2208651 0.2187652 0.2209297
 0.2261431 0.2321672 0.2370846 0.2398295 0.2401738 0.2386049 0.2362749 0.234727 0.2347861 0.2353279
 0.234127 0.2306768 0.2270467 0.2248318 0.2226533 0.2186787 0.214661 0.2147775 0.2202227 0.2272289
 0.23131 0.2318065 0.2310527 0.2300895 0.2268382 0.2190756 0.2086605 0.2015775 0.2027051 0.2107524
 0.219421 0.223579 0.223329 0.2221182 0.2221454 0.222136 0.219145 0.2124126 0.2052883 0.2024051
 0.2047276 0.2086774 0.21034 0.2085654 0.2035529 0.1956097 0.1874403 0.1849203 0.1921109 0.2062619
 0.2199917 0.2273655 0.226008 0.2157196 0.1993599 0.1846661 0.1804756 0.1887753 0.2022812 0.2111564
 0.2107895 0.2025487 0.1896089 0.1748539 0.1622551 0.157165 0.1630852 0.1781725 0.1953179 0.2056181
 0.2032445 0.1900246 0.1759636 0.1720162 0.1800334 0.1914643 0.1969609 0.1948854 0.1898778 0.1869068
 0.1884359 0.1940545 0.2008927 0.2063012 0.2099485 0.210728 0.203872 0.1866753 0.1660446 0.1539609
 0.1550364 0.1640932 0.1757482 0.189272 0.2024482 0.2082168 0.2026399 0.1923967 0.1891421 0.197132
 0.2095655 0.2169223 0.2163994 0.2124477 0.2098596 0.2086411 0.2064217 0.2040154 0.2055975 0.2129758
 0.2224619 0.2289899 0.2313719 0.2318568 0.2322909 0.2327129 0.2326418 0.2319119 0.2305881 0.2290855
 0.22805 0.2276264 0.2273223 0.2267643 0.2256573 0.2226012 0.2153918 0.2041131 0.1931227 0.1876064
 0.1880744 0.1906877 0.1929527 0.1951726 0.1951442 0.1866807 0.1677933 0.1473871 0.1387937 0.1468961
 0.1644828 0.1804424 0.1882828 0.186697 0.1762091 0.1593202 0.1431603 0.1373099 0.1460062 0.1640587
 0.1823708 0.1957811 0.20373 0.2059377 0.201365 0.1912592 0.1804547 0.1746367 0.1768419 0.1860841
 0.1977279 0.2047444 0.2011179 0.1877716 0.1752449 0.175984 0.1913189 0.2093144 0.2181908 0.2182809
 0.2173925 0.2186642 0.2189352 0.2171797 0.2179736 0.2251678 0.2362001 0.2446217 0.2457616 0.2385677
 0.2250335 0.2107132 0.2032876 0.206367 0.2153286 0.2223039 0.2237821 0.2201519 0.2110547 0.1973672
 0.1861667 0.1864707 0.1987863 0.213922 0.2234293 0.2272918 0.2301047 0.2331716 0.2329515 0.2264658
 0.2163112 0.2090728 0.2088107 0.213491 0.2183977 0.2211086 0.2215098 0.2189491 0.2126465 0.2049153
 0.2011937 0.2052896 0.2154008 0.2257838 0.2318807 0.2331566 0.2317175 0.229597 0.2274072 0.2245268
 0.2204554 0.2165563 0.2157921 0.2195669 0.225503 0.2298872 0.2319237 0.2340039 0.2379431 0.2424856
 0.244844 0.2437436 0.2406251 0.2383739 0.238999 0.2420434 0.2449329 0.24518 0.2427537 0.2403331
 0.2408415 0.2446627 0.2495986 0.253364 0.2554402 0.2566037 0.2575955 0.2584776 0.258585 0.2570279
 0.2539459 0.2512491 0.251263 0.2544186 0.2588418 0.2622931 0.2639818 0.2644472 0.2643248 0.2636831
 0.2623845 0.2606859 0.2592559 0.2586433 0.2588801 0.2596207 0.2604998 0.2612897 0.2618821 0.2622741
 0.2625341 0.2627167 0.2628369 0.2629225 0.263006 0.2630546 0.263005 0.2629028 0.2629136 0.2631344
 0.2634553 0.2636706 0.2636646 0.2634144 0.262871 0.261965 0.2607295 0.2593017 0.2577636 0.2560875
 0.2543484 0.2529532 0.2525174 0.2534063 0.2553942 0.2578004 0.2599537 0.2615263 0.262516 0.2630575
 0.2633006 0.2633772 0.2633746 0.2633126 0.2631691 0.2629319 0.2626172 0.2622514 0.2618572 0.2614608
 0.2610974 0.2607927 0.2605363 0.2602795 0.259964 0.2595558 0.2590635 0.2585286 0.2579902 0.2574406
 0.2568217 0.2560739 0.2551919 0.2542337 0.2532857 0.2524152 0.2516329 0.2508901 0.2501245 0.2493057
 0.2484197 0.2474317 0.2463191 0.2451515 0.2440807 0.2432162 0.2425303 0.2419017 0.2412221 0.2404419
 0.2395536 0.2385752 0.2375406 0.2364757 0.2353829 0.2342533 0.23308 0.2318487 0.2305351 0.2291235
 0.2276196 0.226043 0.2244215 0.2227811 0.2211145 0.2193499 0.217365 0.2150291 0.2122301 0.2088828
 0.2049537 0.2005019 0.195691 0.1907407 0.1858539 0.1811826 0.176846 0.1729551 0.1696071 0.1668736
 0.164804 0.1634285 0.1627548 0.1627763 0.1634856 0.1648654 0.1668564 0.1693397 0.1721531 0.1751218
 0.1780812 0.1808898 0.1834598 0.1857941 0.1879707 0.190055 0.1920301 0.1938312 0.1954251 0.1968231
 0.1980349 0.1990525 0.1998812 0.2005582 0.2011322 0.2016339 0.2020696 0.2024377 0.2027448 0.2030031
 0.20322 0.2033987 0.2035501 0.203699 0.2038773 0.2041087 0.2043961 0.2047292 0.2051076 0.2055452
 0.2060491 0.2066093 0.2072125 0.2078489 0.2085029 0.2091627 0.2098474 0.2106137 0.2115269 0.2126226
 0.2138881 0.2152679 0.2166826 0.2180449 0.2192693 0.2202858 0.2210585 0.2215862 0.2218876 0.2219894
 0.2219213 0.2217116 0.221388 0.2209795 0.220513 0.2200021 0.2194475 0.2188482 0.2182087 0.217536
 0.2168377 0.2161255 0.2154159 0.2147191 0.2140319 0.2133519 0.2126965 0.2120887 0.2115234 0.2109686
 0.2104061 0.2098471 0.2093035 0.2087668 0.2082217 0.2076536 0.2070333 0.2063159 0.205474 0.2045186
 0.2034781 0.2023658 0.2011782 0.1999134 0.1985734 0.1971532 0.1956473 0.1940666 0.1924325 0.1907449
 0.1889663 0.1870549 0.185022 0.1829508 0.1809518 0.1791012 0.1774152 0.175864 0.1744007 0.1729922
 0.1716354 0.1703408 0.169108 0.1679315 0.1668178 0.1657745 0.1647905 0.1638492 0.1629556 0.1621349
 0.1614083 0.160776 0.1602207 0.1597247 0.1592851 0.1589115 0.1586201 0.1584376 0.1583849 0.1584384
 0.158524 0.1585712 0.1585563 0.1584914 0.1583987 0.1583027 0.1582211 0.1581531 0.1580793 0.1579668
 0.1577697 0.1574297 0.1568781 0.1560414 0.1548716 0.1533825 0.151649 0.1497818 0.1479166 0.1461972
 0.1447324 0.1435725 0.1427174 0.1421146 0.1416634 0.1412723 0.1409292 0.1407022 0.1406722 0.1408467
 0.1411142 0.1413095 0.1413652 0.141382 0.1415334 0.1419314 0.1425742 0.1433575 0.1441297 0.1447812
 0.1452847 0.1456498 0.145888 0.1460235 0.1460772 0.1460374 0.1458911 0.1456644 0.1453959 0.1451005
 0.1447709 0.1443812 0.1438977 0.1433147 0.1426558 0.1419313 0.1411372 0.1402709 0.139296 0.1381562
 0.1369101 0.1357959 0.1350955 0.1349649 0.1353844 0.1361888 0.1371689 0.138205 0.1392355 0.1400739
 0.1404605 0.1404539 0.1406301 0.1416639 0.1436805 0.1461132 0.1482163 0.1496164 0.1503359 0.1504717
 0.1500557 0.1491233 0.1476926 0.1457217 0.1432283 0.1403594 0.137273 0.134098 0.1310276 0.1282681
 0.1259187 0.1240088 0.1225514 0.1215806 0.1212021 0.1210237 0.1191428 0.1131389 0.1038269 0.09690889
 0.0981577 0.1069088 0.1165412 0.121465 0.1215599 0.1198389 0.1183688 0.1174428 0.1169345 0.116985
 0.1177309 0.119028 0.120484 0.1217022 0.1225256 0.1229916 0.1230368 0.1222607 0.1198956 0.1150981
 0.1076344 0.09843129 0.08924651 0.08165993 0.0763752 0.07325026 0.07165761 0.07084909 0.07032026 0.07003982
 0.07031761 0.07142542 0.07337151 0.07600182 0.07915775 0.08261429 0.08597299 0.08882985 0.09106681 0.09283789
 0.09426653 0.09528819 0.09579016 0.09577748 0.09536955 0.09471675 0.09395128 0.09315156 0.09229149 0.09126197
 0.09003697 0.08881953 0.08791901 0.08746161 0.08731627 0.08729997 0.087331 0.08738251 0.08742141 0.0874254
 0.08739781 0.08737679 0.0874546 0.08772266 0.08815736 0.08860968 0.08892886 0.0890748 0.08911148 0.08907942
 0.08886997 0.08832638 0.08753258 0.08682786 0.08636917 0.08584611 0.08487239 0.08356515 0.08249605 0.08209373
 0.08227462 0.08263864 0.08284765 0.08279542 0.08259852 0.08253045 0.08282871 0.08341119 0.08385898 0.08381698
</values></Ydata></ScRf><Data_Parameters_AB><parameter name="DPF">1</parameter><parameter name="NPT">3497</parameter><parameter name="FXV">3996</parameter><parameter name="LXV">500</parameter><parameter name="CSF">1</parameter><parameter name="MXY">0.0504639111459255</parameter><parameter name="MNY">-0.0845676884055138</parameter><parameter name="DAT">27/05/2022</parameter><parameter name="TIM">12:25:35.881 (GMT+2)</parameter><parameter name="DXU">WN</parameter></Data_Parameters_AB><AB__Qtest><MainReport name="Quality Test Report"><Header><Line><Legend>Test result ok/not ok [1/0]: </Legend><Value>0</Value></Line><Line><Legend>Method file: </Legend><Value>C:\Users\Public\Documents\Bruker\OPUS_8.2.28\QT\IRBT_v3_default.QT</Value></Line></Header><Matrix><Line><Legend></Legend><Legend>min</Legend><Legend>max</Legend><Legend>measured</Legend></Line><Line><Value>Absorption (X-Range 1):</Value><Value>0.400000</Value><Value>2.000000</Value><Value>0.110368</Value></Line><Line><Value>Noise (X-Range 4):</Value><Value></Value><Value>0.000300</Value><Value>0.000030</Value></Line><Line><Value>Signal/Noise (X-Range 2):</Value><Value>200.000000</Value><Value></Value><Value>91.563383</Value></Line><Line><Value>Signal/Noise (X-Range 3):</Value><Value>40.000000</Value><Value></Value><Value>48.950454</Value></Line><Line><Value>Water vapour (X-Range 5):</Value><Value></Value><Value>0.000300</Value><Value>0.000052</Value></Line><Line><Value>Signal/Water (X-Range 2):</Value><Value>100.000000</Value><Value></Value><Value>52.363943</Value></Line><Line><Value>Signal/Water (X-Range 3):</Value><Value>20.000000</Value><Value></Value><Value>27.994147</Value></Line><Line><Value>Fringes (X-Range 6):</Value><Value></Value><Value>0.000100</Value><Value>0.000052</Value></Line></Matrix></MainReport></AB__Qtest><Data_Parameters_ScSm><parameter name="DPF">1</parameter><parameter name="NPT">1814</parameter><parameter name="FXV">3996.33169228125</parameter><parameter name="LXV">499.541461535156</parameter><parameter name="CSF">1</parameter><parameter name="MXY">0.275117695331573</parameter><parameter name="MNY">0.0333008654415607</parameter><parameter name="DAT">27/05/2022</parameter><parameter name="TIM">12:25:35.881 (GMT+2)</parameter><parameter name="DXU">WN</parameter></Data_Parameters_ScSm><Data_Parameters_ScRf><parameter name="DPF">1</parameter><parameter name="NPT">1820</parameter><parameter name="FXV">4004.04661832813</parameter><parameter name="LXV">495.683998511719</parameter><parameter name="CSF">1</parameter><parameter name="MXY">0.264447152614594</parameter><parameter name="MNY">0.028126860037446</parameter><parameter name="DAT">27/05/2022</parameter><parameter name="TIM">12:25:09.203 (GMT+2)</parameter><parameter name="DXU">WN</parameter></Data_Parameters_ScRf><Optic_Parameters_Rf><parameter name="APR">0</parameter><parameter name="APT">Open</parameter><parameter name="BMS">KBr</parameter><parameter name="DTC">RT-DLaTGS_IR-Biotyper [Microplate reader]</parameter><parameter name="HPF">0</parameter><parameter name="LPF">10.0</parameter><parameter name="LPV">4000</parameter><parameter name="PGR">0</parameter><parameter name="RCH">Module port</parameter><parameter name="RDX">0</parameter><parameter name="SRC">MIR</parameter><parameter name="VEL">10.0</parameter><parameter name="SON">Off</parameter></Optic_Parameters_Rf><Acquisition_Parameters_Rf><parameter name="ADT">1</parameter><parameter name="AQM">DD</parameter><parameter name="CFE">0</parameter><parameter name="COR">0</parameter><parameter name="DEL">0</parameter><parameter name="DLY">0</parameter><parameter name="HFW">8000</parameter><parameter name="LFW">0</parameter><parameter name="NSR">32</parameter><parameter name="PLF">AB</parameter><parameter name="RES">6</parameter><parameter name="RGN">-1</parameter><parameter name="STR">0</parameter><parameter name="TCL">MakeCompatibleScalar (0, {WSV=1.000000, ARV=0});</parameter><parameter name="TDL">37</parameter><parameter name="RPO">0</parameter></Acquisition_Parameters_Rf><FT_-_Parameters_Rf><parameter name="APF">B3</parameter><parameter name="HFQ">500</parameter><parameter name="LFQ">4000</parameter><parameter name="NLI">0</parameter><parameter name="PHR">24</parameter><parameter name="PHZ">ML</parameter><parameter name="SPZ">NO</parameter><parameter name="ZFF">1</parameter></FT_-_Parameters_Rf><Optic_Parameters_><parameter name="APR">0</parameter><parameter name="APT">Open</parameter><parameter name="BMS">KBr</parameter><parameter name="CHN">Module port</parameter><parameter name="DTC">RT-DLaTGS_IR-Biotyper [Microplate reader]</parameter><parameter name="HPF">0</parameter><parameter name="LPF">10.0</parameter><parameter name="LPV">4000</parameter><parameter name="PGN">0</parameter><parameter name="RDX">0</parameter><parameter name="SRC">MIR</parameter><parameter name="VEL">10.0</parameter><parameter name="SON">Off</parameter></Optic_Parameters_><FT_-_Parameters_><parameter name="APF">B3</parameter><parameter name="HFQ">500</parameter><parameter name="LFQ">4000</parameter><parameter name="NLI">0</parameter><parameter name="PHR">24</parameter><parameter name="PHZ">ML</parameter><parameter name="SPZ">NO</parameter><parameter name="ZFF">1</parameter></FT_-_Parameters_><Acquisition_Parameters_><parameter name="ADT">1</parameter><parameter name="AQM">DD</parameter><parameter name="CFE">0</parameter><parameter name="COR">0</parameter><parameter name="DEL">0</parameter><parameter name="DLY">0</parameter><parameter name="HFW">8000</parameter><parameter name="LFW">0</parameter><parameter name="NSS">32</parameter><parameter name="PLF">AB</parameter><parameter name="RES">6</parameter><parameter name="SOT">0</parameter><parameter name="TCL">MakeCompatibleScalar (0, {WSV=1.000000, ARV=0});</parameter><parameter name="TDL">37</parameter><parameter name="SPO">0</parameter><parameter name="SGN">-1</parameter></Acquisition_Parameters_><Instrument_Parameters_Rf><parameter name="HFL">15800.168544</parameter><parameter name="LFL">0</parameter><parameter name="LWN">15800.168544</parameter><parameter name="ABP">32197</parameter><parameter name="SSP">1</parameter><parameter name="ARG">2</parameter><parameter name="ASG">2</parameter><parameter name="ASS">32</parameter><parameter name="GFW">16</parameter><parameter name="GBW">16</parameter><parameter name="BFW">0</parameter><parameter name="BBW">0</parameter><parameter name="PKA">7269</parameter><parameter name="PKL">4996</parameter><parameter name="PRA">7454</parameter><parameter name="PRL">5001</parameter><parameter name="P2A">1</parameter><parameter name="P2L">1</parameter><parameter name="P2R">1</parameter><parameter name="P2K">1</parameter><parameter name="DAQ">0</parameter><parameter name="AG2">1</parameter><parameter name="SSM">1</parameter><parameter name="RSN">24974</parameter><parameter name="CRR">0</parameter><parameter name="SRT">1653654309.203</parameter><parameter name="DUR">19.635986328125</parameter><parameter name="TSC">28</parameter><parameter name="MVD">0.32875069975853</parameter><parameter name="AN1">0.225822118737332</parameter><parameter name="AN2">0</parameter><parameter name="VSN">2.485 Apr  4 2017</parameter><parameter name="SRN">0085</parameter><parameter name="CAM">0</parameter><parameter name="INS">IR-Biotyper</parameter><parameter name="FOC">69</parameter><parameter name="RDY">1</parameter><parameter name="ARS">32</parameter></Instrument_Parameters_Rf><Sample_Parameters_><parameter name="BLD"></parameter><parameter name="CNM">Admin</parameter><parameter name="CPY"></parameter><parameter name="DPM"></parameter><parameter name="EXP">IRBT_v3_32Scans.XPM</parameter><parameter name="LCT"></parameter><parameter name="SFM">Microplate, HTS-XT</parameter><parameter name="SNM">220527-1039(v.2)_GFG29M (D_7)_G11_38b944a5-00d2-4a31-8ada-04c222dd2679.0</parameter><parameter name="XPP">C:\Users\Public\Documents\Bruker\OPUS_8.2.28\XPM</parameter><parameter name="IST">OK</parameter><parameter name="CPG">1252</parameter><parameter name="UID">deee6e72-9376-434f-a612-370cf632afd7</parameter></Sample_Parameters_><Instrument_Parameters_><parameter name="HFL">15800.168544</parameter><parameter name="LFL">0</parameter><parameter name="LWN">15800.168544</parameter><parameter name="ABP">32197</parameter><parameter name="SSP">1</parameter><parameter name="ASG">2</parameter><parameter name="ARG">2</parameter><parameter name="ASS">32</parameter><parameter name="GFW">16</parameter><parameter name="GBW">16</parameter><parameter name="BFW">0</parameter><parameter name="BBW">0</parameter><parameter name="PKA">7809</parameter><parameter name="PKL">4988</parameter><parameter name="PRA">8128</parameter><parameter name="PRL">4993</parameter><parameter name="P2A">1</parameter><parameter name="P2L">1</parameter><parameter name="P2R">1</parameter><parameter name="P2K">1</parameter><parameter name="DAQ">0</parameter><parameter name="AG2">1</parameter><parameter name="SSM">1</parameter><parameter name="RSN">13113</parameter><parameter name="CRR">0</parameter><parameter name="SRT">1653654335.882</parameter><parameter name="DUR">19.635986328125</parameter><parameter name="TSC">28</parameter><parameter name="MVD">0.595865190029144</parameter><parameter name="AN1">0.225815789287902</parameter><parameter name="AN2">0</parameter><parameter name="VSN">2.485 Apr  4 2017</parameter><parameter name="SRN">0085</parameter><parameter name="CAM">0</parameter><parameter name="INS">IR-Biotyper</parameter><parameter name="FOC">69</parameter><parameter name="RDY">1</parameter></Instrument_Parameters_><History/></OPUSDataFile>
