<?xml version="1.0" encoding="UTF-8" ?>
<OPUSDataFile><AB><Ydata ylabel="Absorbance Units"><values byteorder="INTEL" format="FLOAT32" numvalues="3497"> -0.0268867 -0.02690971 -0.02692924 -0.02694614 -0.02694645 -0.0269295 -0.0269001 -0.02685986 -0.02683143 -0.02681527
 -0.0268276 -0.02686344 -0.0269149 -0.02697527 -0.02702362 -0.02705995 -0.02707342 -0.02707057 -0.02705499 -0.02703089
 -0.02700333 -0.02697216 -0.0269376 -0.02690279 -0.02686808 -0.02683957 -0.02681987 -0.0268067 -0.02680092 -0.02679293
 -0.02678156 -0.02676525 -0.02674386 -0.02672744 -0.02671613 -0.02671509 -0.02672247 -0.02672953 -0.02673514 -0.02672933
 -0.02671547 -0.02669588 -0.02667567 -0.026665 -0.02666464 -0.02668091 -0.02670827 -0.0267453 -0.02678456 -0.02682196
 -0.02685192 -0.02687225 -0.02687664 -0.02686348 -0.02682672 -0.02676392 -0.02668118 -0.02657758 -0.02647696 -0.0263806
 -0.02631465 -0.02627897 -0.0262789 -0.02631078 -0.02635488 -0.02640913 -0.02645402 -0.02649363 -0.02652779 -0.02656139
 -0.02660395 -0.02665409 -0.0267155 -0.02678098 -0.02684679 -0.02690509 -0.02695075 -0.0269788 -0.02698526 -0.02697235
 -0.02693838 -0.02689442 -0.02684117 -0.02679309 -0.0267516 -0.02672712 -0.02672032 -0.02673475 -0.02676994 -0.02682107
 -0.02688602 -0.02695017 -0.02701053 -0.02704743 -0.0270617 -0.02704369 -0.02700013 -0.02693792 -0.02686246 -0.02678344
 -0.0267014 -0.0266193 -0.0265384 -0.02645795 -0.02638699 -0.02632707 -0.02629212 -0.02628728 -0.02631393 -0.02637576
 -0.0264505 -0.0265374 -0.02660422 -0.02664902 -0.02665747 -0.02663049 -0.02657898 -0.0265049 -0.02642555 -0.02634176
 -0.02626481 -0.02619644 -0.02614605 -0.02611583 -0.02611557 -0.02614073 -0.02619287 -0.0262581 -0.02632665 -0.0263858
 -0.02642386 -0.02644181 -0.02643407 -0.02641867 -0.02639742 -0.02639355 -0.02641162 -0.02646361 -0.02655275 -0.02666642
 -0.02680442 -0.02691081 -0.02698314 -0.02696927 -0.0268785 -0.02674485 -0.02657854 -0.02643814 -0.02632132 -0.02625285
 -0.02622357 -0.02623178 -0.02626215 -0.02629674 -0.02632244 -0.02631883 -0.02629248 -0.02623793 -0.02617689 -0.02611802
 -0.02606951 -0.02603705 -0.02601252 -0.02599506 -0.02598045 -0.02596778 -0.02596058 -0.02595905 -0.0259648 -0.02597759
 -0.02599331 -0.02601151 -0.02602714 -0.02604016 -0.02604836 -0.02605058 -0.02604348 -0.02602452 -0.02598612 -0.02593141
 -0.02585794 -0.02577868 -0.02570215 -0.02564208 -0.02561016 -0.02560805 -0.02564224 -0.02569727 -0.02577238 -0.02584403
 -0.02590762 -0.02595115 -0.02597208 -0.02597494 -0.0259599 -0.02593103 -0.02588815 -0.02582745 -0.02574916 -0.02565188
 -0.02553832 -0.02541725 -0.0252932 -0.02518189 -0.0250863 -0.0250201 -0.02498035 -0.02497047 -0.02498214 -0.02501028
 -0.02504649 -0.025085 -0.02511959 -0.02514746 -0.02516126 -0.02515785 -0.02513618 -0.02509314 -0.02504748 -0.02499998
 -0.02497687 -0.02498006 -0.02501428 -0.02507799 -0.02514499 -0.02521249 -0.02524645 -0.02525099 -0.0252221 -0.02516975
 -0.02511916 -0.02507267 -0.02504875 -0.02503823 -0.02503705 -0.02503753 -0.02502756 -0.02501692 -0.02500429 -0.02501205
 -0.02505076 -0.02512692 -0.02525024 -0.02538971 -0.02554459 -0.02566638 -0.02574832 -0.02577631 -0.02574868 -0.02568213
 -0.02557762 -0.02545149 -0.02530566 -0.0251604 -0.0250189 -0.02490555 -0.02482011 -0.02477655 -0.02476773 -0.02479028
 -0.02482996 -0.02486656 -0.02489437 -0.02489721 -0.02488893 -0.02487336 -0.02486144 -0.02486206 -0.02486575 -0.02487394
 -0.02486544 -0.02483528 -0.02477881 -0.02469276 -0.0246031 -0.02451114 -0.02444571 -0.0244071 -0.02440038 -0.02442302
 -0.02446099 -0.02451042 -0.02454907 -0.02457346 -0.02456051 -0.02451557 -0.02443457 -0.02433175 -0.02422408 -0.02411938
 -0.02403147 -0.02395899 -0.02390539 -0.02386607 -0.02383989 -0.02382341 -0.02381526 -0.02381469 -0.02382153 -0.02383468
 -0.02385467 -0.02387325 -0.02389015 -0.02388679 -0.02386238 -0.02380052 -0.02370408 -0.02358473 -0.02344806 -0.02332453
 -0.02321411 -0.02313261 -0.02307642 -0.02304675 -0.02303878 -0.02304868 -0.02306771 -0.02308754 -0.02310058 -0.02309726
 -0.02308397 -0.02306056 -0.02303583 -0.02301576 -0.02298678 -0.02294851 -0.02288121 -0.02278129 -0.02265114 -0.02249035
 -0.02231603 -0.02212913 -0.02194614 -0.0217682 -0.02161175 -0.02147716 -0.0213769 -0.02130631 -0.02126071 -0.02123218
 -0.021203 -0.0211709 -0.02112552 -0.02106802 -0.02099755 -0.02091043 -0.02080239 -0.02067767 -0.02053333 -0.02038955
 -0.02025273 -0.0201302 -0.0200266 -0.01992838 -0.01983463 -0.01973255 -0.01962079 -0.01950655 -0.01939088 -0.01929651
 -0.01922325 -0.01918282 -0.01916882 -0.0191629 -0.01915458 -0.01910257 -0.01900907 -0.01885183 -0.0186561 -0.01844695
 -0.01823993 -0.01806286 -0.01790545 -0.01777062 -0.0176425 -0.01751357 -0.01737955 -0.0172356 -0.01709229 -0.01695081
 -0.01682021 -0.01670291 -0.01659119 -0.01648512 -0.01636247 -0.01622242 -0.01604956 -0.01584634 -0.01562342 -0.01538542
 -0.01515852 -0.01494337 -0.01475624 -0.01459276 -0.01445338 -0.01433098 -0.01421732 -0.01410467 -0.01398247 -0.01384882
 -0.0136978 -0.01353611 -0.01336532 -0.01319056 -0.01301529 -0.01283358 -0.01264494 -0.01244298 -0.01222533 -0.01200486
 -0.01178186 -0.0115814 -0.01140419 -0.01126102 -0.01114977 -0.01105963 -0.01098652 -0.01090677 -0.01081886 -0.01070445
 -0.01056911 -0.01041415 -0.01024694 -0.01007972 -0.009911439 -0.009746963 -0.009578785 -0.009401627 -0.009217005 -0.00902151
 -0.008829359 -0.008644816 -0.008474099 -0.008320915 -0.00817541 -0.008037267 -0.007893876 -0.007744226 -0.007582413 -0.007408441
 -0.007224996 -0.007033017 -0.006841491 -0.006650649 -0.006467248 -0.006288805 -0.006111756 -0.005933881 -0.005747086 -0.005556156
 -0.005362411 -0.005175473 -0.005006386 -0.004856073 -0.004731858 -0.004619639 -0.004516343 -0.00440562 -0.00428037 -0.004138914
 -0.003977669 -0.003812038 -0.003643128 -0.003486733 -0.003344457 -0.003215895 -0.00310049 -0.002982022 -0.002859466 -0.002716264
 -0.002554262 -0.002371876 -0.002173733 -0.001972376 -0.001770637 -0.001580707 -0.001401258 -0.00123557 -0.001081507 -0.0009379385
 -0.0008040507 -0.0006800392 -0.0005617318 -0.0004489913 -0.0003319228 -0.0002071894 -6.986553E-05 8.313454E-05 0.0002434518 0.0004108298
 0.0005740508 0.000732056 0.0008832535 0.001027748 0.001170629 0.001311961 0.001454504 0.001597733 0.001740642 0.001882912
 0.002023028 0.00216113 0.002296385 0.002430092 0.002563515 0.00269818 0.002836388 0.002977701 0.003122699 0.003270077
 0.003419506 0.00356968 0.003721387 0.003867541 0.004007847 0.004130138 0.004231835 0.004314233 0.004376346 0.004443729
 0.004517776 0.004627425 0.004771329 0.004951675 0.005162841 0.005380131 0.005599345 0.005794403 0.005966751 0.006105802
 0.006217485 0.006304814 0.006375052 0.006435659 0.006493144 0.006553501 0.006621812 0.006702254 0.006795445 0.006903984
 0.007019505 0.007141647 0.007257834 0.007365844 0.007462764 0.007547813 0.007630103 0.00770997 0.00779249 0.007876985
 0.007958388 0.008037518 0.008114539 0.008193041 0.008285369 0.008390523 0.008515068 0.008649697 0.008784478 0.008911083
 0.009015321 0.009100979 0.009164082 0.00921751 0.009266084 0.009319391 0.009382579 0.009454953 0.00953816 0.009624165
 0.009712176 0.009795516 0.009873325 0.009947724 0.01001901 0.01009748 0.01018345 0.01028482 0.01040001 0.01052629
 0.01066051 0.0107918 0.01091809 0.01102928 0.01112666 0.01120679 0.01127449 0.0113323 0.01138696 0.01144357
 0.01150703 0.01158176 0.01166645 0.0117631 0.01186248 0.01196402 0.01205439 0.01213171 0.01218727 0.01221982
 0.01223286 0.01222681 0.01221624 0.01220211 0.01219953 0.01220801 0.01223363 0.0122743 0.01232707 0.01238977
 0.01245681 0.01252637 0.01259372 0.0126573 0.01271343 0.01276276 0.01280295 0.01284082 0.01287743 0.01292425
 0.01298557 0.01306684 0.01317195 0.01329059 0.01342333 0.01354778 0.0136623 0.01374809 0.01380451 0.01383038
 0.01382734 0.01381035 0.01378113 0.0137563 0.01373539 0.01372583 0.01372586 0.01373541 0.01375276 0.01377605
 0.01380217 0.013828 0.0138493 0.01386125 0.01386469 0.01385704 0.013847 0.01383623 0.0138342 0.01384395
 0.01386679 0.01390403 0.0139485 0.01399991 0.01404928 0.01409614 0.01413343 0.01416105 0.01417491 0.01417607
 0.0141667 0.01414976 0.01413541 0.01412617 0.01413395 0.01415512 0.01419195 0.01423323 0.01426854 0.01428924
 0.0142829 0.0142567 0.01420739 0.01415654 0.0141101 0.01408523 0.01408843 0.0141185 0.01417729 0.01425103
 0.0143388 0.01442933 0.01452212 0.01461287 0.01470137 0.01478426 0.01486058 0.0149232 0.01497194 0.01500118
 0.01501418 0.01501416 0.01500682 0.01500242 0.01500347 0.01501808 0.01504117 0.01507333 0.01510404 0.01512886
 0.01513875 0.01512907 0.01509827 0.01504399 0.01497394 0.01488812 0.01479966 0.01470964 0.01462775 0.01455441
 0.01449216 0.01444073 0.01439833 0.0143646 0.01433686 0.01431464 0.01429475 0.01427746 0.01426172 0.01424824
 0.01423882 0.01423064 0.01422336 0.01420849 0.0141798 0.01413166 0.01405715 0.01396399 0.01385088 0.01373618
 0.01362339 0.01352736 0.01345163 0.01339684 0.01336402 0.0133397 0.01332315 0.01329696 0.01326119 0.01320955
 0.01314448 0.01307611 0.01300575 0.01294503 0.01288907 0.01283363 0.01277198 0.01268976 0.0125895 0.01246552
 0.01233095 0.01219233 0.01206341 0.01195309 0.01186756 0.01181193 0.0117834 0.01178431 0.01179915 0.01182775
 0.01184307 0.01184279 0.01180633 0.01173276 0.01162566 0.01148715 0.01134178 0.01119198 0.0110641 0.01095752
 0.01088532 0.01084257 0.01082605 0.01082823 0.01083655 0.01084505 0.01084216 0.01082669 0.01079383 0.01074535
 0.01068093 0.01060237 0.01050967 0.01040654 0.01029306 0.01017623 0.01005676 0.009942114 0.00983289 0.009735912
 0.009651557 0.009585067 0.009536049 0.009502565 0.009482494 0.009463494 0.009443374 0.009407267 0.009356754 0.009286673
 0.009202993 0.00911245 0.009020411 0.008936405 0.008859531 0.008794004 0.008731301 0.00866836 0.008598026 0.008515291
 0.008424911 0.008325769 0.008230682 0.008142146 0.008063107 0.00799488 0.007924224 0.007850493 0.007762737 0.007661991
 0.00755715 0.00745047 0.007360908 0.007286001 0.00722936 0.007182966 0.007129563 0.007065472 0.006973868 0.006864105
 0.00673802 0.006610445 0.006494637 0.00639491 0.006318956 0.006259246 0.006214705 0.006179316 0.006151318 0.006128377
 0.006110969 0.006089204 0.00606281 0.006014525 0.005943444 0.00584239 0.005712707 0.005567849 0.005411255 0.005269496
 0.005144234 0.005057471 0.005003719 0.00498462 0.004985998 0.004986665 0.004974831 0.004925264 0.004845325 0.00472761
 0.004597814 0.004467676 0.004354311 0.004270517 0.004205514 0.004160825 0.004114961 0.004063432 0.004002869 0.003931423
 0.003866451 0.003808817 0.003772462 0.003756489 0.003753705 0.003761243 0.003758091 0.003744071 0.003705774 0.003648521
 0.003577371 0.003498738 0.003426929 0.003360673 0.003306311 0.003254038 0.003198201 0.003131835 0.003047324 0.00295072
 0.002841076 0.002730822 0.002623233 0.002524052 0.00243492 0.002355948 0.002286942 0.002233166 0.002194902 0.002179341
 0.002185862 0.002208831 0.002245797 0.002278719 0.002307178 0.002318901 0.002317743 0.002306627 0.002289231 0.002273964
 0.002259623 0.002249195 0.002237338 0.002221811 0.002195318 0.002153672 0.002091167 0.002003089 0.001894194 0.001761993
 0.001627055 0.001491306 0.001377891 0.001290189 0.001229934 0.001197438 0.001167721 0.001139161 0.001082881 0.001000511
 0.0008852345 0.0007437941 0.0005958272 0.0004484334 0.0003296234 0.0002391942 0.0001922586 0.0001777123 0.000190931 0.0002155695
 0.0002372194 0.0002456043 0.0002294245 0.0001917282 0.0001292923 5.485382E-05 -2.969109E-05 -0.0001111562 -0.00018662 -0.0002518985
 -0.000305678 -0.0003550177 -0.00040024 -0.0004511373 -0.0005076078 -0.0005702397 -0.0006380082 -0.0007040359 -0.0007693155 -0.0008330104
 -0.000898513 -0.0009747188 -0.001061216 -0.00116343 -0.001273997 -0.001386943 -0.001495127 -0.001589521 -0.001670902 -0.001736763
 -0.001791131 -0.001835706 -0.001870082 -0.001894534 -0.001907759 -0.001908762 -0.001903039 -0.001890652 -0.001881213 -0.001875281
 -0.001879529 -0.00189421 -0.001923958 -0.001968998 -0.002034177 -0.002117765 -0.002218166 -0.002328813 -0.002434146 -0.002526178
 -0.002582612 -0.002604457 -0.002580242 -0.002525446 -0.002446213 -0.002363314 -0.002290772 -0.002237902 -0.002214109 -0.00221024
 -0.002227158 -0.002248213 -0.002270475 -0.002284972 -0.002290044 -0.002287114 -0.002276187 -0.002258338 -0.002233166 -0.00219452
 -0.002141924 -0.002068551 -0.001975783 -0.001864657 -0.001737866 -0.001602466 -0.001460461 -0.001318414 -0.001177161 -0.001040464
 -0.0009076649 -0.0007802602 -0.0006546273 -0.0005293529 -0.0004009281 -0.0002661748 -0.0001298289 9.126283E-06 0.000137395 0.0002528721
 0.0003462077 0.0004153971 0.0004656441 0.0004970434 0.0005243449 0.0005480559 0.0005784802 0.0006144685 0.0006540374 0.0006950534
 0.0007277752 0.0007523403 0.0007626704 0.0007636255 0.000759907 0.0007580649 0.000768654 0.0007930524 0.0008376233 0.0008960647
 0.0009668138 0.001043609 0.001122139 0.001205439 0.001292014 0.001393342 0.001511368 0.001653076 0.001820544 0.002003543
 0.002201803 0.002389037 0.002563861 0.002700605 0.00280006 0.002853727 0.002865471 0.002845049 0.002796614 0.002735868
 0.002663989 0.002591118 0.002514059 0.002434344 0.002344458 0.002239929 0.002111084 0.001950974 0.001754536 0.001516028
 0.001242998 0.0009337075 0.0006090522 0.0002711608 -5.627748E-05 -0.0003703205 -0.0006577239 -0.0009173301 -0.001151718 -0.001361524
 -0.001558349 -0.001742419 -0.001921497 -0.002093825 -0.00225665 -0.002408271 -0.002541655 -0.002659299 -0.002761147 -0.002853235
 -0.00294361 -0.003034432 -0.003132198 -0.003230666 -0.003329053 -0.003418227 -0.003493798 -0.003552518 -0.003591717 -0.003615558
 -0.003623779 -0.003624367 -0.003618227 -0.003610253 -0.003600924 -0.003586563 -0.003566824 -0.003534088 -0.003489645 -0.003437455
 -0.003381747 -0.003341994 -0.003320054 -0.003332964 -0.00337459 -0.003443567 -0.003529209 -0.003617836 -0.003701863 -0.003769728
 -0.003819533 -0.00384622 -0.003853038 -0.003838671 -0.00381255 -0.003775621 -0.003741846 -0.00371367 -0.003701533 -0.003707192
 -0.003732658 -0.003778205 -0.003842141 -0.003924728 -0.004030381 -0.004160339 -0.004326562 -0.004528157 -0.004770695 -0.005046486
 -0.005340297 -0.005640701 -0.005918889 -0.006171499 -0.006379454 -0.006553507 -0.006695122 -0.006818527 -0.006933943 -0.007045348
 -0.007157765 -0.007267166 -0.007372797 -0.00747408 -0.007569993 -0.007666416 -0.007763979 -0.007866282 -0.007973765 -0.008081152
 -0.008187923 -0.008283575 -0.00836827 -0.008437456 -0.008493274 -0.00854221 -0.008585785 -0.008632639 -0.008679949 -0.008727094
 -0.008769736 -0.008800589 -0.008821456 -0.008829576 -0.008833325 -0.008837025 -0.008846409 -0.00886629 -0.008893257 -0.008927996
 -0.008963267 -0.008997567 -0.009027942 -0.009053575 -0.009076586 -0.009097011 -0.009118783 -0.009142116 -0.009170914 -0.009205205
 -0.009247528 -0.009296937 -0.009351388 -0.009408879 -0.009462848 -0.009512356 -0.00955165 -0.009583373 -0.009607971 -0.009629763
 -0.009653293 -0.009679561 -0.009711435 -0.00974521 -0.009780107 -0.009812688 -0.009841061 -0.009867179 -0.009890397 -0.009917692
 -0.009949762 -0.009992204 -0.0100456 -0.01010785 -0.01017842 -0.01024615 -0.0103102 -0.01035843 -0.01039202 -0.01040875
 -0.01041185 -0.01040946 -0.01040271 -0.01039871 -0.01039395 -0.01038665 -0.01037398 -0.01035062 -0.01032203 -0.01028836
 -0.01026039 -0.01024356 -0.0102413 -0.01025748 -0.01028327 -0.0103182 -0.01035097 -0.01037972 -0.01040244 -0.0104187
 -0.01043359 -0.01044728 -0.01046284 -0.01047989 -0.01049651 -0.01051272 -0.01052712 -0.01054092 -0.01055701 -0.01057597
 -0.01060112 -0.01063023 -0.01066242 -0.01069359 -0.0107194 -0.01073813 -0.01074653 -0.01074753 -0.01074084 -0.01073233
 -0.01072358 -0.0107189 -0.01071977 -0.01072596 -0.01073788 -0.01075193 -0.01076785 -0.01078378 -0.01079977 -0.0108185
 -0.01083995 -0.01086588 -0.01089502 -0.01092261 -0.0109478 -0.01096459 -0.01097559 -0.01098247 -0.01098891 -0.01100157
 -0.0110194 -0.01104496 -0.01107276 -0.01109959 -0.01112325 -0.01114094 -0.01115652 -0.01117063 -0.01118631 -0.01120481
 -0.01122399 -0.01124382 -0.01126146 -0.01127663 -0.01128954 -0.01130022 -0.01130993 -0.01131855 -0.01132554 -0.01133091
 -0.01133403 -0.01133571 -0.01133794 -0.01134142 -0.0113488 -0.01135943 -0.01137374 -0.0113903 -0.01140766 -0.01142574
 -0.01144378 -0.01146312 -0.01148442 -0.0115076 -0.01153309 -0.01155915 -0.01158556 -0.01161084 -0.01163475 -0.01165673
 -0.01167674 -0.01169378 -0.01170781 -0.01171845 -0.01172604 -0.01173302 -0.01174014 -0.01175223 -0.01176954 -0.01179566
 -0.01182946 -0.01187093 -0.01191771 -0.01196694 -0.01201599 -0.01206147 -0.01210171 -0.01213447 -0.01215979 -0.01217687
 -0.01218733 -0.01219113 -0.01219139 -0.01218859 -0.01218572 -0.01218335 -0.01218188 -0.01218144 -0.01218044 -0.01217887
 -0.0121768 -0.01217461 -0.01217561 -0.01217991 -0.01219014 -0.01220531 -0.01222423 -0.01224531 -0.01226481 -0.01228182
 -0.01229308 -0.01229967 -0.01230064 -0.01229989 -0.01229934 -0.01230315 -0.01231444 -0.01233236 -0.01235843 -0.01238548
 -0.01241241 -0.01243328 -0.01244663 -0.0124547 -0.01245734 -0.01246239 -0.01247014 -0.01248488 -0.01250589 -0.01252873
 -0.01255224 -0.01256805 -0.01257714 -0.01257694 -0.01257143 -0.01256735 -0.01256771 -0.01258147 -0.01260426 -0.01263728
 -0.01266922 -0.01269258 -0.01270111 -0.01268732 -0.01266028 -0.01261932 -0.01258206 -0.01255249 -0.01253932 -0.01254533
 -0.01256324 -0.01259302 -0.01262094 -0.01264645 -0.01266227 -0.01266897 -0.01266855 -0.01266202 -0.01265523 -0.01264838
 -0.01264532 -0.01264531 -0.01264882 -0.01265473 -0.01266194 -0.01266889 -0.01267406 -0.01267522 -0.01267028 -0.01265849
 -0.01263774 -0.01261324 -0.01258499 -0.01256304 -0.0125497 -0.01255016 -0.01256624 -0.0125922 -0.01262801 -0.01266292
 -0.01269647 -0.01272241 -0.01274095 -0.0127515 -0.01275448 -0.01275113 -0.0127424 -0.01273119 -0.01271945 -0.01271259
 -0.01271167 -0.01272142 -0.01273927 -0.01276561 -0.01279421 -0.01282136 -0.01284145 -0.01285014 -0.01284773 -0.01283234
 -0.01281054 -0.01278308 -0.01275697 -0.01273351 -0.01271458 -0.01270057 -0.01268937 -0.0126809 -0.0126737 -0.01266795
 -0.01266484 -0.01266442 -0.01266809 -0.01267479 -0.01268248 -0.01268916 -0.0126892 -0.01268294 -0.01266666 -0.01264676
 -0.01262726 -0.01261638 -0.01262282 -0.01264486 -0.01268702 -0.01273347 -0.01278089 -0.01281368 -0.0128262 -0.01282028
 -0.01279395 -0.01276469 -0.01273371 -0.01271554 -0.01271067 -0.01271824 -0.01273719 -0.01275642 -0.01277562 -0.01278687
 -0.0127918 -0.01279136 -0.01278711 -0.01278307 -0.01277909 -0.01277652 -0.01277519 -0.01277501 -0.01277714 -0.01278292
 -0.01279116 -0.01280276 -0.01281212 -0.01281752 -0.01281541 -0.01280355 -0.01278771 -0.01276794 -0.01275351 -0.01274549
 -0.0127441 -0.0127492 -0.01275156 -0.01275108 -0.01274253 -0.01272778 -0.01271368 -0.01270193 -0.01270264 -0.01271368
 -0.01273622 -0.01276562 -0.01279521 -0.01282266 -0.01284261 -0.01285607 -0.01286229 -0.01286209 -0.01285593 -0.01284339
 -0.01282381 -0.01279969 -0.01277072 -0.01274331 -0.01271818 -0.01270077 -0.01269174 -0.012692 -0.01270155 -0.01271753
 -0.01273948 -0.0127619 -0.01278398 -0.01279841 -0.0128054 -0.01280074 -0.01278732 -0.01276871 -0.01274875 -0.01273552
 -0.01272885 -0.01273255 -0.01274222 -0.01275572 -0.0127703 -0.01278346 -0.01279641 -0.01280951 -0.01282186 -0.01283406
 -0.01284064 -0.01284085 -0.01283102 -0.01281047 -0.01278276 -0.01274812 -0.01271373 -0.01267993 -0.01265283 -0.01263231
 -0.01262143 -0.01261912 -0.01262406 -0.01263433 -0.01264508 -0.01265525 -0.01266085 -0.01266247 -0.01265939 -0.01265214
 -0.01264102 -0.01262601 -0.01260656 -0.01258523 -0.01256209 -0.01254222 -0.01252698 -0.01251847 -0.01251773 -0.01252063
 -0.01252709 -0.01253046 -0.01253042 -0.01252279 -0.01250787 -0.01248679 -0.01246064 -0.01243533 -0.01241223 -0.01239901
 -0.01239603 -0.01240807 -0.01243411 -0.01247472 -0.0125286 -0.0125942 -0.01267189 -0.01276078 -0.0128637 -0.01298204
 -0.01311708 -0.01327151 -0.01343657 -0.01361276 -0.01378111 -0.01393879 -0.01407349 -0.01418289 -0.01427768 -0.01435837
 -0.01444042 -0.01452235 -0.01459306 -0.01464905 -0.01466304 -0.01463826 -0.01456993 -0.01446554 -0.01434021 -0.01419694
 -0.01404537 -0.01389043 -0.01373854 -0.01360028 -0.01348481 -0.01340069 -0.01335593 -0.01334947 -0.01338619 -0.01344734
 -0.01353364 -0.01360576 -0.01365749 -0.0136648 -0.01362233 -0.01356233 -0.01348642 -0.01343867 -0.01341828 -0.01342972
 -0.01346871 -0.01351441 -0.01356403 -0.01359685 -0.01361387 -0.0136061 -0.01357845 -0.01353485 -0.01347874 -0.01341665
 -0.01334615 -0.01326679 -0.01317832 -0.01307818 -0.01297558 -0.01287279 -0.01277821 -0.01269533 -0.01262219 -0.01255912
 -0.01250237 -0.01245143 -0.01240702 -0.01236913 -0.01233646 -0.01230858 -0.01227921 -0.01224862 -0.01221468 -0.01217891
 -0.01214605 -0.01211581 -0.01209077 -0.01206772 -0.01204228 -0.01201318 -0.01197567 -0.01193477 -0.01189185 -0.01185418
 -0.01182686 -0.01181065 -0.01180855 -0.01181227 -0.01182094 -0.01182487 -0.01182191 -0.01181027 -0.01178922 -0.01176434
 -0.01173592 -0.01171058 -0.01168835 -0.01167173 -0.01166002 -0.01165081 -0.01164321 -0.01163259 -0.0116192 -0.01160065
 -0.01157912 -0.01155691 -0.01153604 -0.01152019 -0.01150871 -0.01150267 -0.01149976 -0.01149867 -0.01149907 -0.01150042
 -0.01150347 -0.01150865 -0.0115145 -0.01152108 -0.01152538 -0.01152704 -0.01152493 -0.01151898 -0.01151147 -0.01150253
 -0.01149468 -0.01148769 -0.01148171 -0.01147601 -0.01146806 -0.01145738 -0.01144137 -0.01142066 -0.01139485 -0.01136538
 -0.01133338 -0.01130085 -0.01126914 -0.01124145 -0.01121955 -0.01120637 -0.01120399 -0.01121117 -0.01122899 -0.01125015
 -0.01127409 -0.01129203 -0.01130297 -0.01130269 -0.01129094 -0.01127002 -0.01124033 -0.01120761 -0.01117211 -0.01113834
 -0.01110607 -0.01107664 -0.01105027 -0.01102788 -0.01101047 -0.01100041 -0.0109974 -0.01100288 -0.01101354 -0.0110276
 -0.01104152 -0.01105238 -0.01106033 -0.01106463 -0.01106676 -0.01106738 -0.01106517 -0.0110601 -0.01105002 -0.01103439
 -0.01101645 -0.01099636 -0.0109813 -0.01097139 -0.01096984 -0.01097558 -0.0109836 -0.01099275 -0.01099556 -0.01099306
 -0.01098333 -0.01096923 -0.01095489 -0.01094158 -0.01093327 -0.01092745 -0.0109238 -0.01091883 -0.01090988 -0.01089738
 -0.01087993 -0.01086271 -0.01084663 -0.01083622 -0.01083292 -0.01083487 -0.01084239 -0.01084825 -0.01085203 -0.01084919
 -0.01084002 -0.0108276 -0.01081272 -0.01080218 -0.01079568 -0.01079618 -0.01080202 -0.01081089 -0.01082093 -0.0108281
 -0.01083112 -0.01082674 -0.01081509 -0.01079437 -0.01076791 -0.01073609 -0.01070522 -0.01067787 -0.0106576 -0.01064668
 -0.01064184 -0.01064336 -0.01064433 -0.01064386 -0.01063978 -0.01063187 -0.01062514 -0.01061988 -0.01062179 -0.01063029
 -0.01064486 -0.01066412 -0.01068257 -0.0106996 -0.01071059 -0.0107165 -0.0107169 -0.01071289 -0.01070579 -0.01069569
 -0.01068312 -0.01066792 -0.01064979 -0.01062979 -0.01060773 -0.01058671 -0.01056713 -0.01055315 -0.01054566 -0.01054633
 -0.01055585 -0.01056936 -0.01058665 -0.01059733 -0.01060109 -0.01059121 -0.01056885 -0.01053789 -0.01050015 -0.0104651
 -0.01043254 -0.01040714 -0.01038668 -0.01036902 -0.01035365 -0.0103383 -0.01032553 -0.01031693 -0.01031382 -0.01031838
 -0.01032734 -0.01034058 -0.01035245 -0.0103613 -0.01036437 -0.0103604 -0.01035219 -0.01033957 -0.01032916 -0.01032134
 -0.01032114 -0.01032833 -0.0103404 -0.01035614 -0.01036617 -0.01036987 -0.01035901 -0.01033561 -0.01029957 -0.01025542
 -0.0102105 -0.01016912 -0.01014003 -0.01012344 -0.01012394 -0.01013542 -0.0101568 -0.01017904 -0.01019801 -0.01020967
 -0.01021137 -0.01020605 -0.01019367 -0.01017806 -0.01015983 -0.01013888 -0.01011524 -0.0100881 -0.01005764 -0.01002642
 -0.009995135 -0.009969399 -0.009949893 -0.009942514 -0.009946851 -0.009965781 -0.009996258 -0.01003531 -0.01007764 -0.01011566
 -0.01014575 -0.01016109 -0.01016427 -0.01015361 -0.0101369 -0.01011672 -0.01009893 -0.01008646 -0.01007762 -0.01007314
 -0.01006645 -0.01005678 -0.01004103 -0.0100189 -0.00999363 -0.009965415 -0.009937827 -0.009910585 -0.009883146 -0.009855637
 -0.009827692 -0.009800946 -0.009779477 -0.009764475 -0.009760786 -0.009766374 -0.009781444 -0.009801633 -0.009823361 -0.009843492
 -0.009858812 -0.009869345 -0.009874121 -0.009874857 -0.009871912 -0.009866235 -0.009858326 -0.009846566 -0.009830851 -0.009809492
 -0.009782312 -0.009751629 -0.009717773 -0.009686891 -0.009659187 -0.009639286 -0.00962651 -0.009620758 -0.009621039 -0.009624724
 -0.009631256 -0.00963871 -0.009646182 -0.009652351 -0.009654952 -0.009651584 -0.009640873 -0.00962026 -0.009593295 -0.00955965
 -0.009527323 -0.009498338 -0.009478688 -0.009470571 -0.009471487 -0.009481954 -0.009492793 -0.009503461 -0.009506216 -0.009500996
 -0.009486928 -0.009464712 -0.009438776 -0.009409789 -0.009382935 -0.009358025 -0.009337426 -0.009320104 -0.009305371 -0.00929212
 -0.00927861 -0.009264399 -0.009248173 -0.009230982 -0.009212486 -0.009195838 -0.009182026 -0.009174231 -0.009174275 -0.009180051
 -0.009192296 -0.009202892 -0.00921102 -0.009210462 -0.009200592 -0.00918484 -0.009163677 -0.009146818 -0.009134208 -0.009130648
 -0.009134267 -0.009139957 -0.009146021 -0.009144438 -0.009136798 -0.009121732 -0.009102695 -0.009084128 -0.009066687 -0.009053233
 -0.009041054 -0.009029037 -0.009016015 -0.009000556 -0.008985173 -0.008970458 -0.008957559 -0.008947258 -0.008936543 -0.008925091
 -0.0089113 -0.008894959 -0.008878491 -0.00886204 -0.008848514 -0.008837691 -0.008829156 -0.008822648 -0.008816658 -0.008811553
 -0.008807497 -0.008805055 -0.008805713 -0.008808807 -0.008814728 -0.00882087 -0.008825394 -0.00882531 -0.008818042 -0.00880274
 -0.008778055 -0.008745604 -0.008705471 -0.008659579 -0.008608148 -0.008553363 -0.008495235 -0.008438151 -0.008382343 -0.008333564
 -0.008291999 -0.008260672 -0.008239169 -0.008226006 -0.008220305 -0.008217567 -0.008217294 -0.008215527 -0.008212971 -0.008208822
 -0.008204643 -0.00820244 -0.008202428 -0.008206158 -0.008211304 -0.00821701 -0.008220984 -0.00822147 -0.008219686 -0.008215475
 -0.008211019 -0.008207243 -0.008201881 -0.008195054 -0.008181542 -0.008160912 -0.008132079 -0.008095295 -0.008056919 -0.008017502
 -0.007984507 -0.007957466 -0.007938516 -0.007926464 -0.00791922 -0.007915693 -0.007913071 -0.007910224 -0.007904432 -0.007895406
 -0.007881363 -0.007864329 -0.007844873 -0.007825317 -0.007807591 -0.007789675 -0.007771994 -0.007749326 -0.007720234 -0.00768446
 -0.007641134 -0.00759799 -0.00755544 -0.007521769 -0.007497163 -0.007483391 -0.007479837 -0.00748258 -0.007490835 -0.007499161
 -0.007507202 -0.007511038 -0.007511046 -0.007506329 -0.007496784 -0.007482243 -0.007461632 -0.0074334 -0.007398487 -0.00735569
 -0.007310832 -0.007265554 -0.007226501 -0.007196708 -0.007176321 -0.007166876 -0.007160606 -0.007157054 -0.007147109 -0.007129997
 -0.007102189 -0.007063757 -0.007018276 -0.00696652 -0.00691634 -0.006868217 -0.006828855 -0.00679735 -0.006775086 -0.006759855
 -0.006748105 -0.006738071 -0.006725597 -0.006710773 -0.006691875 -0.006670593 -0.006647599 -0.006623931 -0.006600615 -0.006576443
 -0.006551256 -0.006523954 -0.006493765 -0.006463546 -0.006433213 -0.006408815 -0.006390872 -0.00638159 -0.006380792 -0.006382392
 -0.006385398 -0.006378701 -0.006362052 -0.00632723 -0.006277179 -0.006215478 -0.006146362 -0.006080597 -0.006018586 -0.005965963
 -0.005920043 -0.005880064 -0.005844305 -0.005810956 -0.005780757 -0.005753706 -0.00573022 -0.005710962 -0.005693504 -0.00567801
 -0.005659185 -0.005636751 -0.005603062 -0.005557419 -0.005497087 -0.005422332 -0.005343408 -0.005261282 -0.005189443 -0.005126745
 -0.005075765 -0.005033311 -0.004991447 -0.004947884 -0.004892861 -0.004829558 -0.004756322 -0.004682284 -0.004615491 -0.004562671
 -0.004533525 -0.004520737 -0.004527645 -0.004529713 -0.004521297 -0.004478994 -0.004393733 -0.004274099 -0.004117799 -0.003957281
 -0.003794952 -0.003650554 -0.003524605 -0.003417152 -0.003327254 -0.003247449 -0.003176392 -0.003104569 -0.00303008 -0.002941914
 -0.002840184 -0.002718032 -0.002581327 -0.002434878 -0.002284963 -0.002140827 -0.002001351 -0.001868936 -0.001740015 -0.001613396
 -0.001487062 -0.001360629 -0.001230752 -0.001097524 -0.0009532257 -0.0007969651 -0.0006218576 -0.0004267878 -0.0002198776 -1.79577E-06
 0.0002084718 0.0004116466 0.0006061635 0.0007946559 0.0009894768 0.001190808 0.001405608 0.001632652 0.001871935 0.002124492
 0.002390474 0.002674698 0.002980943 0.003315762 0.003685449 0.004091152 0.004539216 0.005011613 0.005507574 0.005995609
 0.006468272 0.006909951 0.00731628 0.007692465 0.008038059 0.008368924 0.008686225 0.009017098 0.009364037 0.00976483
 0.01021512 0.01072043 0.01126166 0.01177894 0.0122694 0.01269194 0.01306832 0.01341377 0.01374256 0.01407705
 0.01441599 0.01476497 0.01512104 0.01548327 0.01585295 0.01623317 0.01661073 0.01698517 0.01733441 0.01765356
 0.0179461 0.01821108 0.01847269 0.01873178 0.01899521 0.01926106 0.01951262 0.01974948 0.01996048 0.02014818
 0.02031567 0.02046301 0.0205925 0.02070162 0.02078551 0.02084875 0.0208925 0.02092609 0.02095721 0.02098857
 0.02102519 0.0210599 0.02109219 0.02111259 0.02111874 0.02110629 0.02107401 0.02102274 0.02095212 0.02087014
 0.02077728 0.02068508 0.02059321 0.02050341 0.02041394 0.02031644 0.02021069 0.02008992 0.01995884 0.01982233
 0.01968901 0.01957509 0.01948159 0.01941844 0.01937475 0.01934582 0.01932343 0.01930012 0.01928115 0.01926601
 0.01926326 0.01927613 0.01930102 0.01933861 0.01937789 0.0194179 0.01945323 0.01948377 0.01951507 0.01954806
 0.01959455 0.01965451 0.01973486 0.01983324 0.01994603 0.02007064 0.02019923 0.02033191 0.02046494 0.02060082
 0.02074065 0.02088688 0.02104178 0.02120608 0.02138106 0.02156547 0.0217594 0.02196074 0.02216953 0.02238143
 0.02259663 0.02280507 0.02300615 0.02318774 0.02334939 0.0234904 0.02361251 0.02373377 0.02385579 0.02399855
 0.02415748 0.02432921 0.02450708 0.02467431 0.0248293 0.02496284 0.02507447 0.02516011 0.02522089 0.0252555
 0.02526827 0.02526274 0.02523501 0.02518815 0.02510089 0.02496821 0.02477886 0.02452535 0.02425101 0.02395887
 0.02368312 0.023425 0.02316751 0.02290971 0.02263515 0.02234585 0.02204465 0.02173261 0.02141732 0.02109241
 0.02075102 0.0203788 0.01994684 0.01945821 0.01889089 0.0182974 0.01771065 0.01716233 0.01668761 0.01625578
 0.01586319 0.0154859 0.0151143 0.01475648 0.0144121 0.01409224 0.01379889 0.01352012 0.01325522 0.0129802
 0.01269489 0.01238809 0.01206351 0.01173422 0.01140546 0.01110279 0.01082542 0.01058678 0.01037716 0.01018878
 0.01001013 0.009826115 0.009629696 0.009411365 0.009167302 0.008891822 0.00858903 0.008253252 0.007916627 0.007583713
 0.007289443 0.00704379 0.006830314 0.006649261 0.006470557 0.006292874 0.006114372 0.005936862 0.005781958 0.005648814
 0.005545946 0.005466592 0.005391021 0.005317606 0.005229475 0.005137143 0.005048682 0.004975487 0.004936388 0.004926774
 0.004951082 0.004996783 0.005057479 0.005129098 0.005207799 0.005297289 0.005397095 0.005514266 0.005648899 0.005813647
 0.006009647 0.006247305 0.006526998 0.006830449 0.007155128 0.007464288 0.007758716 0.008023769 0.008262736 0.008479828
 0.008675421 0.008851868 0.009009804 0.00914908 0.009276303 0.009397508 0.009520881 0.009657805 0.009801178 0.009953907
 0.01009481 0.01021456 0.0103107 0.01037848 0.01043402 0.01047897 0.01052632 0.01057776 0.01063544 0.01069951
 0.01076621 0.0108358 0.01091009 0.0109905 0.01108658 0.01119862 0.01133449 0.01148974 0.01165937 0.01183633
 0.01200518 0.01216764 0.01231688 0.01246484 0.01261841 0.01278629 0.01297661 0.01318662 0.01341839 0.01366221
 0.01391585 0.01417412 0.01443539 0.01470157 0.01497295 0.01524771 0.0155257 0.01579042 0.0160406 0.01625514
 0.01643458 0.01657114 0.01666672 0.01672414 0.0167437 0.01672802 0.01667515 0.01658338 0.0164504 0.01627219
 0.01604994 0.01578183 0.0154743 0.01512943 0.01475508 0.0143542 0.01393274 0.01349096 0.01304163 0.01258473
 0.01214594 0.01172757 0.01134941 0.0110126 0.01071255 0.01044787 0.01019916 0.009965825 0.00973373 0.009505147
 0.009280548 0.009062312 0.008857134 0.008663865 0.008484154 0.008314871 0.008152991 0.007996636 0.007843358 0.007692397
 0.007542733 0.007394114 0.007245561 0.007100151 0.006957785 0.00682481 0.006702472 0.006593097 0.006497478 0.006409932
 0.006330183 0.006250669 0.006171545 0.006092811 0.006015641 0.00594727 0.00588809 0.005843843 0.005812998 0.005795112
 0.005787862 0.005787407 0.005791818 0.005797378 0.005803317 0.005807806 0.005810895 0.005812139 0.005811807 0.005809787
 0.005806875 0.005803301 0.005799377 0.005795457 0.005789551 0.005781651 0.005767871 0.005747985 0.005720978 0.005687088
 0.00564931 0.005608083 0.005567458 0.005527772 0.005492357 0.00546133 0.005437027 0.00541837 0.00540512 0.005394891
 0.005384676 0.005373396 0.005358401 0.005342174 0.005324767 0.005310544 0.0053012 0.00529936 0.005306592 0.005320879
 0.005342782 0.005365341 0.005388208 0.005402269 0.005406979 0.00539675 0.005371898 0.005335559 0.005289005 0.0052418
 0.005194465 0.005154609 0.005120528 0.005092094 0.005067099 0.005040998 0.005014676 0.004986636 0.004960427 0.004938865
 0.004922953 0.004915194 0.00491112 0.004909868 0.004906715 0.004899351 0.004890241 0.004878632 0.004873536 0.004875909
 0.004890895 0.004918926 0.004952185 0.004989689 0.00501487 0.005027829 0.005019364 0.004993476 0.004959152 0.004922069
 0.00490158 0.004898472 0.004925143 0.004973667 0.005041063 0.005115846 0.00518683 0.005249731 0.005296895 0.005336029
 0.005367579 0.005401705 0.005442244 0.005489314 0.005544487 0.00559879 0.005651387 0.005696569 0.005733893 0.005766188
 0.005793674 0.005820449 0.005846169 0.00587055 0.005893169 0.005911973 0.005927511 0.005940161 0.005950444 0.005959833
 0.005967448 0.005973015 0.005975124 0.005971974 0.005964529 0.005952321 0.005938298 0.005923626 0.005909705 0.005897402
 0.005885659 0.005874295 0.005863355 0.005852748 0.005843897 0.005836928 0.005829389 0.005820882 0.005804447 0.005780009
 0.00574312 0.005695141 0.005638593 0.005575415 0.005511708 0.005448648 0.005391204 0.005339193 0.005294809 0.005256041
 0.005222051 0.00519085 0.005160131 0.005132336 0.005107075 0.005090186 0.005083743 0.005088474 0.005106006 0.005127123
 0.005151381 0.005167009 0.005173177 0.005167335 0.005150032 0.005130289 0.005109246 0.005099349 0.005100187 0.00511753
 0.005148696 0.00519009 0.005238794 0.005287697 0.005336243 0.005380305 0.005422192 0.005461582 0.005503511 0.005549886
 0.005607533 0.005679477 0.005770367 0.005883018 0.006014344 0.006165249 0.006325208 0.00649334 0.006659967 0.006824326
 0.006986089 0.007145841 0.007313831 0.00749116 0.007690951 0.007912381 0.00816052 0.00843107 0.008716351 0.009010985
 0.009301324 0.009586086 0.009856725 0.01011847 0.01037216 0.01062482 0.01088212 0.01114344 0.01141201 0.01167659
 0.01193537 0.0121768 0.01239762 0.01259779 0.01277643 0.01294133 0.01309295 0.01323551 0.01336917 0.01349564
 0.01361627 0.01374082 0.01387179 0.01402518 0.01420072 0.01440712 0.01464002 0.01489637 0.01517059 0.01545536
 0.01574452 0.0160317 0.01630882 0.01656945 0.01680866 0.01702072 0.01721345 0.01738537 0.0175567 0.01773049
 0.01792341 0.01813872 0.01837379 0.018629 0.01888456 0.01913951 0.0193754 0.01959328 0.01979092 0.01997176
 0.02014808 0.02032316 0.02051264 0.02071598 0.0209411 0.02118161 0.02143396 0.02168898 0.02193711 0.02217383
 0.0223927 0.02259617 0.02278343 0.02295875 0.02312301 0.0232798 0.02342925 0.02357803 0.02372641 0.02388478
 0.02405382 0.02424274 0.02445174 0.02468417 0.02493889 0.02521025 0.02549538 0.02578 0.02606106 0.0263228
 0.02656466 0.02677766 0.02696439 0.02712386 0.02726061 0.02737775 0.02748039 0.02757285 0.02765676 0.02773513
 0.02780247 0.0278584 0.0278955 0.02791161 0.02790691 0.02788032 0.02784238 0.02779357 0.02774871 0.02770844
 0.0276848 0.02767741 0.02768989 0.02772033 0.027763 0.0278161 0.02787111 0.02792902 0.0279874 0.02804844
 0.02811514 0.02818552 0.028261 0.02833264 0.02839685 0.02844204 0.02846205 0.0284519 0.02840734 0.02833523
 0.02823531 0.02811976 0.02799013 0.02785262 0.02770781 0.02755627 0.02739822 0.02723822 0.02707696 0.02692272
 0.02677465 0.02663422 0.02649856 0.02636047 0.02621812 0.02606453 0.02589986 0.02572159 0.02553007 0.02532473
 0.025106 0.02487368 0.02462916 0.02437253 0.02410663 0.0238317 0.02355256 0.02326989 0.02298879 0.0227104
 0.02243323 0.02215756 0.02187167 0.02157487 0.02125331 0.02090751 0.02053432 0.02013653 0.01972419 0.01930008
 0.01887784 0.01845669 0.01804221 0.01763081 0.01721926 0.01680705 0.01639121 0.01597642 0.01556543 0.01515931
 0.01476126 0.01436232 0.01396075 0.01354848 0.01312192 0.01268836 0.01224706 0.01181714 0.01139986 0.0110096
 0.0106466 0.01031131 0.01000253 0.009710674 0.009435149 0.009167354 0.008909562 0.008663154 0.008431811 0.008224395
 0.00804007 0.007883265 0.007746641 0.007625347 0.007512603 0.00740156 0.007292718 0.007183904 0.00708 0.006982484
 0.006892706 0.006812091 0.00673476 0.006660489 0.006580949 0.006495308 0.006403912 0.00630725 0.006219041 0.006139941
 0.006082912 0.006045037 0.006021095 0.006006041 0.005981407 0.005947639 0.005894805 0.005830758 0.005762015 0.005694909
 0.005639554 0.005593099 0.00555767 0.005526117 0.005494898 0.005462796 0.005427615 0.005395197 0.005366096 0.005346345
 0.005336747 0.005341216 0.005360093 0.005396463 0.005450213 0.005517513 0.005596415 0.005669099 0.00573338 0.005768208
 0.005776454 0.005753777 0.005707933 0.005652433 0.005591905 0.005539607 0.005493275 0.00545526 0.005423136 0.005394608
 0.005372916 0.005358145 0.005356261 0.005369419 0.005399888 0.005449234 0.005513474 0.005592999 0.005677539 0.005766527
 0.005847978 0.005921484 0.005982194 0.006030968 0.006073094 0.006109544 0.006148223 0.006187947 0.006229715 0.006271133
 0.00630703 0.006338171 0.006362519 0.006384053 0.006406635 0.006430667 0.006459224 0.006485853 0.006507966 0.006522491
 0.006526102 0.006526967 0.006525919 0.006531502 0.006545992 0.00656377 0.00658485 0.006596865 0.006599561 0.006593268
 0.006579631 0.006573455 0.006575917 0.006601138 0.006647226 0.006716966 0.006805617 0.006906088 0.00701205 0.007112326
 0.00720127 0.007268637 0.007314349 0.007333342 0.007334172 0.007317953 0.007297662 0.007277571 0.007265801 0.00726527
 0.007276481 0.007299885 0.007334704 0.007380886 0.007439054 0.007509029 0.007584504 0.00766425 0.007733549 0.007792972
 0.007835835 0.007866993 0.007898463 0.007931997 0.007980595 0.008034121 0.008085065 0.008120891 0.008122174 0.008095777
 0.008034942 0.007967306 0.007904466 0.007863772 0.007857807 0.007871308 0.007905075 0.007932588 0.007948557 0.0079532
 0.007945071 0.007951584 0.007973867 0.008029828 0.008116934 0.008219314 0.008332578 0.008425184 0.008499395 0.008542566
 0.008566246 0.008587874 0.008617098 0.008679205 0.008766699 0.008886154 0.009013601 0.009134998 0.009232354 0.00928984
 0.009314597 0.009302759 0.0092769 0.009241276 0.009210978 0.009189566 0.009176143 0.009171276 0.009165107 0.009157215
 0.009140876 0.009116947 0.00909061 0.009063737 0.009048776 0.009045617 0.009060646 0.00909224 0.009139307 0.009202462
 0.009282771 0.00937905 0.009494094 0.009615207 0.009737054 0.00984146 0.009916143 0.00995976 0.009965113 0.009954886
 0.009931101 0.009921248 0.009930287 0.009967264 0.01003418 0.01011732 0.0102158 0.01030632 0.01038846 0.01044856
 0.01048892 0.01051362 0.01052535 0.01053574 0.01054346 0.01055255 0.01055769 0.01055267 0.01053396 0.01049351
 0.01043684 0.01036229 0.01028572 0.01021273 0.01016044 0.01013633 0.01014674 0.01019564 0.01027724 0.01039251
 0.01052541 0.01067554 0.01081402 0.01093924 0.01101921 0.01105491 0.01104173 0.01098663 0.01092285 0.01085531
 0.0108199 0.01081035 0.01083155 0.01087388 0.01092218 0.0109788 0.01103822 0.01111177 0.01120846 0.01132709
 0.01147487 0.01162694 0.01177829 0.01190235 0.01198937 0.01204205 0.01205721 0.01206142 0.01205685 0.0120583
 0.01206636 0.01207798 0.01209365 0.01211739 0.01215055 0.01220493 0.0122764 0.01235934 0.012446 0.01251428
 0.01256628 0.01259225 0.01260601 0.01261848 0.01263959 0.01268268 0.01274255 0.01282271 0.01290647 0.01299027
 0.01305614 0.01309844 0.01311197 0.01309303 0.01305966 0.01301237 0.01297944 0.01296211 0.01296948 0.01299941
 0.01303267 0.0130664 0.0130742 0.01305825 0.01300965 0.01293668 0.01285215 0.01276471 0.0126935 0.01264162
 0.01261833 0.01262728 0.01267101 0.01276141 0.01290908 0.01310591 0.01336513 0.01361199 0.01383197 0.0139693
 0.01400396 0.01399426 0.013942 0.01392231 0.01393866 0.01401242 0.01413997 0.01428962 0.01445542 0.01458702
 0.01468652 0.01473146 0.01473365 0.01470816 0.0146644 0.01462639 0.0145897 0.01456022 0.01452702 0.01448126
 0.01442453 0.01435292 0.0142789 0.01420598 0.01414247 0.01409058 0.01405655 0.01404125 0.014052 0.01409041
 0.01414651 0.01421962 0.01427709 0.0143181 0.01432053 0.0142891 0.01423729 0.01417148 0.01412203 0.01408709
 0.01408079 0.0140903 0.01410225 0.01410544 0.01407766 0.0140293 0.01395537 0.01388598 0.01383741 0.01382132
 0.01385303 0.01389965 0.01395959 0.0139861 0.01396871 0.01390384 0.01378692 0.01367545 0.01357248 0.01355105
 0.01361059 0.01377116 0.0140209 0.01430569 0.01461334 0.01487007 0.01508116 0.01521935 0.01530196 0.01534495
 0.01535983 0.015363 0.01536712 0.01538218 0.01543091 0.01553141 0.01568203 0.01589653 0.01612047 0.01634602
 0.01651707 0.01661826 0.01666364 0.01665014 0.01664346 0.01664689 0.01669397 0.01678159 0.01688106 0.01698759
 0.01705709 0.01709364 0.017086 0.01704508 0.01699129 0.0169298 0.01687997 0.01683658 0.0167998 0.01676853
 0.01673821 0.01672148 0.01672556 0.01675244 0.01681064 0.01687039 0.01692755 0.01695109 0.01693205 0.01688127
 0.01679712 0.01672015 0.01665245 0.01661506 0.01660568 0.01660193 0.01659856 0.01655129 0.01646257 0.0163116
 0.01611693 0.01590871 0.01570799 0.0155679 0.01548239 0.01547427 0.01550387 0.01555077 0.01557607 0.01554811
 0.01546782 0.01532184 0.01514907 0.01495496 0.01477772 0.01462628 0.01450632 0.01442073 0.01434704 0.01428415
 0.0142102 0.01412509 0.01402285 0.01390354 0.01376437 0.01360491 0.01341899 0.01321323 0.01299634 0.01278351
 0.0126051 0.01246581 0.01239029 0.01235408 0.01235164 0.01234405 0.01230519 0.0122258 0.01208739 0.01193313
 0.01176733 0.01164113 0.01156827 0.01154051 0.01156129 0.01157264 0.01157143</values></Ydata></AB><ScSm><Ydata ylabel="Single channel"><values byteorder="INTEL" format="FLOAT32" numvalues="1814"> 0.06465983 0.06466363 0.06472664 0.06487158 0.06507424 0.06527476 0.06541844 0.06549121 0.06550825 0.06547776
 0.06540772 0.06534861 0.06538273 0.0655439 0.06576647 0.06593055 0.06596072 0.0658935 0.06585245 0.06592593
 0.06604808 0.06602602 0.0657215 0.06520806 0.06472033 0.06443912 0.06438202 0.06454225 0.06500047 0.06570294
 0.06621727 0.06604381 0.06524405 0.06446595 0.06422608 0.06441674 0.0646082 0.06454399 0.06421846 0.06378314
 0.06359565 0.06412273 0.06548102 0.06705803 0.06773124 0.0665763 0.06352914 0.05959963 0.05649878 0.05571835
 0.05747826 0.06042827 0.06266096 0.06323279 0.0626173 0.06174121 0.0609897 0.06031808 0.05989191 0.0601323
 0.06113086 0.06224461 0.06242061 0.06109653 0.05887355 0.05709463 0.05661827 0.05727629 0.05858966 0.06029139
 0.06159817 0.06079565 0.05692498 0.05191648 0.04972738 0.05257897 0.05858638 0.06360513 0.06491818 0.06275189
 0.05906891 0.05594187 0.05477529 0.05592552 0.05863654 0.06167286 0.06406981 0.06517114 0.06446201 0.06201845
 0.05894529 0.05683695 0.0567947 0.05899596 0.06266116 0.06612593 0.06759629 0.0664724 0.06374678 0.06095582
 0.05917038 0.05899841 0.06072953 0.06403011 0.06792893 0.07138422 0.07371002 0.07463919 0.07437593 0.07347022
 0.07240064 0.07149158 0.07120561 0.07186077 0.07286851 0.07295485 0.07154916 0.06955091 0.06840581 0.06861195
 0.0693223 0.06937402 0.06846544 0.06696633 0.06476474 0.06124477 0.05669307 0.05267703 0.05047947 0.05012469
 0.05130835 0.05388866 0.0567812 0.05789807 0.05642774 0.05428975 0.0542256 0.05687524 0.06044743 0.06291103
 0.06387381 0.06444694 0.06580823 0.0679969 0.06975826 0.06949176 0.06684368 0.06360602 0.06245109 0.06430478
 0.06745197 0.069643 0.07046656 0.07109757 0.07224919 0.07306878 0.07202548 0.06872727 0.06489867 0.06331306
 0.06537452 0.06971321 0.07318222 0.07318616 0.06942636 0.06397112 0.05964814 0.05808817 0.05928128 0.06264987
 0.0676828 0.07337861 0.07798751 0.07998684 0.07918932 0.07665768 0.07349076 0.06980449 0.06531519 0.06104054
 0.05950429 0.06235228 0.06825025 0.07399629 0.07737703 0.0782731 0.07741365 0.07500385 0.07093106 0.06610161
 0.0628861 0.06327511 0.06647851 0.069371 0.06976645 0.06841391 0.06739119 0.06751639 0.06804056 0.06823993
 0.06845026 0.06949174 0.07149374 0.07358341 0.07472987 0.07467994 0.07400282 0.07342552 0.07317102 0.07279593
 0.07181858 0.0706874 0.07072347 0.07267247 0.07567713 0.07815888 0.07940057 0.07980183 0.07981914 0.07916047
 0.07720682 0.0741771 0.07159933 0.07117681 0.07314138 0.07610822 0.07851319 0.07973747 0.07996267 0.0796036
 0.07902609 0.07842892 0.07790548 0.07769722 0.07813435 0.07916354 0.08023863 0.0808653 0.0810037 0.08082825
 0.08038354 0.07965449 0.07880969 0.0781997 0.07810634 0.07853415 0.07925791 0.08002327 0.08063071 0.08089538
 0.08071771 0.08022843 0.07971027 0.07933913 0.07912157 0.07907104 0.07926852 0.07970302 0.08019131 0.08053005
 0.08065908 0.08063804 0.08052835 0.08034758 0.08011056 0.07987986 0.07976559 0.07984793 0.08008032 0.08031713
 0.08047932 0.0806317 0.08083516 0.08099724 0.08097032 0.08075647 0.08051781 0.08039919 0.08041245 0.08048251
 0.08053128 0.08048955 0.08028504 0.07990578 0.07949121 0.07928378 0.07943431 0.07988907 0.08047845 0.0810426
 0.08145949 0.08166286 0.08169107 0.08165027 0.08159149 0.0814735 0.0812631 0.08102985 0.08092359 0.08105978
 0.08141498 0.08183835 0.08217554 0.08236539 0.08243091 0.08244379 0.08250113 0.08264998 0.08281115 0.08285327
 0.08276249 0.08267193 0.08270249 0.0828258 0.08290815 0.08286515 0.08275405 0.08271202 0.08281273 0.08300309
 0.08318258 0.08331507 0.08344492 0.08361512 0.0837846 0.08384407 0.08373503 0.08353607 0.0833872 0.08334085
 0.08334658 0.0833737 0.08346769 0.08365797 0.08387432 0.08400601 0.08402354 0.08400251 0.084024 0.0840777
 0.08408076 0.08397897 0.08380665 0.08365028 0.08357624 0.08359429 0.08366527 0.0837293 0.08373868 0.08368222
 0.08358393 0.08347659 0.08337894 0.08330642 0.08329818 0.08340264 0.08360881 0.08380526 0.08384702 0.08368521
 0.08342112 0.08321674 0.08314902 0.08315489 0.08311273 0.08296186 0.08273982 0.08252421 0.08236229 0.08225216
 0.08216767 0.08209158 0.08203845 0.08205274 0.08216497 0.0823316 0.08243647 0.08238529 0.08219752 0.08198272
 0.08183523 0.08177514 0.0817719 0.08178666 0.08180164 0.08183648 0.08192095 0.08203338 0.08209921 0.08207621
 0.08200988 0.08198498 0.08205469 0.08222158 0.08243733 0.08260845 0.0826567 0.0826003 0.08254012 0.08255203
 0.08262525 0.08271306 0.08280092 0.08290263 0.083021 0.08314715 0.08329076 0.08348338 0.08374313 0.08404362
 0.08432214 0.08452212 0.08463977 0.08473708 0.08490088 0.08517492 0.0855256 0.08587268 0.08615472 0.08637165
 0.08656785 0.0867763 0.08699088 0.08720277 0.08744138 0.08774593 0.08810561 0.08846465 0.0887877 0.08908975
 0.08939939 0.08972096 0.09004301 0.09036922 0.09072809 0.09114339 0.09158896 0.09198636 0.09227003 0.09245502
 0.09262817 0.09287746 0.09323095 0.0936369 0.09398897 0.09420559 0.09431581 0.09444223 0.09467074 0.09496357
 0.09523429 0.09547973 0.09578502 0.09620189 0.09666778 0.09706377 0.09733041 0.09751213 0.09769652 0.09792131
 0.09814469 0.09830756 0.09841309 0.09852353 0.09868333 0.09888213 0.0991081 0.09939386 0.09976946 0.1001941
 0.1005792 0.1008703 0.1010769 0.1012344 0.101367 0.1014806 0.1015682 0.1016286 0.1016893 0.1017867
 0.1019146 0.1020251 0.1020966 0.1021696 0.1022949 0.1024813 0.1027164 0.1030013 0.1033281 0.1036524
 0.103937 0.1042166 0.1045639 0.1049751 0.1053388 0.1055518 0.1056309 0.1056709 0.105727 0.1057973
 0.1058973 0.1060802 0.1063705 0.1067278 0.1070935 0.1074448 0.1077898 0.1081312 0.1084464 0.1086925
 0.108835 0.1088805 0.1088832 0.1089168 0.1090377 0.1092623 0.1095615 0.1098768 0.1101526 0.1103535
 0.110453 0.1104393 0.1103552 0.1103042 0.1103676 0.1105131 0.1106118 0.1105481 0.110292 0.1098711
 0.1093132 0.1086398 0.1078979 0.1071725 0.1065557 0.1061062 0.1058459 0.1057919 0.1059766 0.106412
 0.1070396 0.1077381 0.1083862 0.1088967 0.1091894 0.1091809 0.1088376 0.1082215 0.1074546 0.1066509
 0.1058871 0.1051989 0.1045758 0.1039911 0.10348 0.1031806 0.1032708 0.1038623 0.1049486 0.1064126
 0.1080577 0.1096581 0.1110424 0.1121618 0.1130798 0.1138913 0.1146563 0.115401 0.1161435 0.1168832
 0.1175794 0.1181829 0.1186917 0.1191506 0.1195957 0.1200204 0.1203929 0.1206873 0.1209049 0.1210802
 0.1212514 0.1214131 0.1215176 0.1215359 0.1214931 0.121429 0.1213443 0.1211974 0.1209405 0.1205566
 0.1200918 0.1196775 0.1195093 0.1197674 0.1205211 0.1216898 0.1230975 0.1245731 0.125999 0.1272828
 0.1283323 0.1290965 0.129613 0.1299854 0.1303117 0.130645 0.131001 0.1313732 0.1317408 0.1320819
 0.1323919 0.1326907 0.1330091 0.133361 0.1337239 0.1340536 0.1343285 0.1345803 0.1348719 0.1352401
 0.1356568 0.1360558 0.1364036 0.1367302 0.1370752 0.1374204 0.1377095 0.1379274 0.1381237 0.138361
 0.1386672 0.1390325 0.1394183 0.1397688 0.1400454 0.1402589 0.1404545 0.1406665 0.1409007 0.1411506
 0.14141 0.1416705 0.1419256 0.1421845 0.1424709 0.1427935 0.1431189 0.1433894 0.1435787 0.1437228
 0.1438858 0.1440993 0.1443424 0.1445755 0.1447874 0.1450088 0.1452787 0.1455979 0.1459171 0.146178
 0.1463642 0.146509 0.1466591 0.1468404 0.1470553 0.1472931 0.1475366 0.1477681 0.1479825 0.1481923
 0.148413 0.1486466 0.1488833 0.1491152 0.1493426 0.1495681 0.1497922 0.1500138 0.1502377 0.1504801
 0.1507592 0.15107 0.1513736 0.1516256 0.1518146 0.151966 0.1521116 0.1522692 0.1524451 0.1526413
 0.1528544 0.1530766 0.1533008 0.153524 0.1537461 0.1539673 0.1541889 0.1544133 0.1546421 0.1548743
 0.1551068 0.1553399 0.1555768 0.1558159 0.1560471 0.1562606 0.1564592 0.1566576 0.156869 0.1570915
 0.1573085 0.1575052 0.157685 0.1578678 0.1580704 0.1582921 0.1585179 0.158733 0.1589347 0.1591327
 0.1593374 0.1595484 0.159757 0.1599594 0.1601615 0.1603712 0.1605872 0.1607988 0.160998 0.1611898
 0.1613857 0.1615891 0.1617937 0.161997 0.1622055 0.1624253 0.1626506 0.1628671 0.1630652 0.1632497
 0.1634354 0.1636321 0.1638372 0.1640442 0.1642534 0.1644686 0.1646895 0.1649114 0.1651278 0.1653362
 0.1655416 0.1657539 0.165977 0.1662058 0.1664339 0.1666577 0.1668744 0.1670843 0.1672928 0.1675057
 0.1677241 0.1679472 0.1681736 0.1683984 0.168615 0.1688171 0.1690008 0.1691697 0.1693388 0.1695241
 0.1697259 0.1699295 0.1701218 0.1703026 0.1704821 0.1706702 0.1708675 0.1710689 0.1712739 0.171487
 0.1717062 0.1719222 0.1721315 0.1723392 0.1725514 0.1727691 0.1729895 0.1732066 0.1734162 0.1736189
 0.1738184 0.174021 0.174236 0.174467 0.1747044 0.174937 0.175163 0.175382 0.1755885 0.1757834
 0.1759773 0.176177 0.1763826 0.1765963 0.1768179 0.1770399 0.1772562 0.1774697 0.1776847 0.1779021
 0.17812 0.1783338 0.1785434 0.178759 0.1789872 0.179217 0.1794367 0.1796518 0.1798702 0.1800878
 0.1803022 0.1805171 0.1807322 0.1809446 0.181157 0.1813671 0.1815671 0.1817623 0.1819652 0.1821641
 0.1823055 0.1822656 0.1817649 0.1802657 0.1769503 0.1708736 0.161331 0.1482949 0.1325803 0.1155646
 0.09868284 0.08304416 0.06930789 0.05776814 0.048507 0.04148648 0.03659189 0.03371695 0.03286624 0.03426473
 0.03847174 0.04604355 0.05627621 0.06610259 0.07128956 0.06977272 0.06362519 0.05717126 0.05340475 0.0525494
 0.05333653 0.05467004 0.05619168 0.05809305 0.06071515 0.06415183 0.06823003 0.07293549 0.07862281 0.08556147
 0.09338918 0.1012642 0.1085943 0.1154984 0.1225161 0.1299499 0.1375495 0.144765 0.1511823 0.1567214
 0.1615548 0.1659246 0.1700055 0.1738735 0.1775523 0.1810297 0.1841881 0.1867666 0.1884844 0.189258
 0.1893048 0.1890209 0.1887497 0.1886511 0.1887438 0.1890056 0.189417 0.1899578 0.1906069 0.1913428
 0.1921364 0.1929547 0.1937732 0.1945744 0.1953414 0.1960587 0.196717 0.1973125 0.1978486 0.1983362
 0.1987863 0.1992061 0.1996037 0.1999855 0.2003495 0.2006924 0.20102 0.2013384 0.2016401 0.2019114
 0.2021492 0.202365 0.2025747 0.2027889 0.2030072 0.203221 0.203425 0.2036229 0.2038227 0.2040305
 0.2042486 0.2044723 0.2046902 0.2048942 0.2050872 0.2052771 0.2054673 0.205657 0.2058452 0.2060324
 0.2062228 0.2064214 0.2066256 0.2068237 0.207008 0.207185 0.2073686 0.2075661 0.207773 0.2079791
 0.2081794 0.2083791 0.2085837 0.2087909 0.2089972 0.2092067 0.2094214 0.209634 0.209841 0.2100499
 0.2102627 0.2104641 0.2106389 0.2107956 0.2109615 0.2111562 0.2113734 0.2115891 0.2117893 0.211983
 0.2121835 0.2123883 0.2125826 0.2127561 0.2129152 0.2130863 0.2132966 0.2135435 0.2137974 0.2140411
 0.214282 0.2145235 0.2147562 0.2149814 0.2152081 0.2154218 0.2155932 0.2157278 0.2158841 0.2161275
 0.2164635 0.2168241 0.2171333 0.2173796 0.2176073 0.2178579 0.2181409 0.218423 0.2186125 0.2186207
 0.2185046 0.2184869 0.2187569 0.2192867 0.2198874 0.2203999 0.2207866 0.2210874 0.2213439 0.2215573
 0.2216889 0.221709 0.2216671 0.2217099 0.2219802 0.2224679 0.2230048 0.2234357 0.2237415 0.2239757
 0.2241749 0.2243553 0.2244778 0.2243967 0.2240092 0.223523 0.2234026 0.2239223 0.2248591 0.2257338
 0.2262861 0.2266086 0.2268802 0.2271464 0.2273673 0.2274536 0.2271621 0.2262381 0.2249079 0.2240114
 0.2243056 0.2257033 0.2274172 0.2287457 0.2295138 0.2299012 0.2301382 0.2303489 0.2304547 0.2301869
 0.2293891 0.2284026 0.2279707 0.2285494 0.2297957 0.2309368 0.2315607 0.2318269 0.2320424 0.2323198
 0.2325087 0.2321578 0.2307613 0.2285005 0.2266299 0.2266022 0.2286488 0.2315035 0.2336601 0.2346734
 0.2350506 0.2351414 0.2346209 0.2330754 0.2306246 0.2278674 0.2256941 0.2251659 0.2268105 0.2297424
 0.2321681 0.2331571 0.2334273 0.2341618 0.2356003 0.2370443 0.2377638 0.2375618 0.2366579 0.235292
 0.2336061 0.2320085 0.2313935 0.2325099 0.2350514 0.2377658 0.239607 0.2405245 0.240925 0.2404577
 0.2377654 0.2321215 0.2254823 0.2219436 0.2241221 0.2304154 0.2367208 0.2404667 0.2420152 0.2427322
 0.243162 0.24288 0.2407347 0.2354705 0.2277033 0.2211742 0.2202195 0.2254738 0.2331478 0.2385681
 0.2393672 0.2357349 0.2295688 0.2239018 0.2216632 0.2239088 0.2293651 0.2356846 0.2408507 0.2437295
 0.2440593 0.242341 0.2398027 0.2381038 0.2381321 0.2386902 0.2374054 0.2337269 0.2298414 0.2274604
 0.2251717 0.2210529 0.2168979 0.2170294 0.2226793 0.2299259 0.2341041 0.2345353 0.2336684 0.2326163
 0.229235 0.2211957 0.2103851 0.2029817 0.204054 0.212306 0.2212444 0.225542 0.2252651 0.2239602
 0.2239194 0.2238502 0.2207035 0.213656 0.2061377 0.2029524 0.2051605 0.2091261 0.21082 0.2090283
 0.2039213 0.195774 0.1873225 0.1845932 0.1918049 0.2061989 0.2202129 0.2277133 0.226222 0.2155396
 0.1986228 0.1834019 0.1789131 0.187188 0.2007762 0.2096081 0.2089777 0.2003409 0.1870101 0.1719219
 0.1590208 0.1536362 0.1592734 0.1740716 0.1908758 0.2007794 0.198025 0.1844946 0.1701391 0.1658172
 0.1733911 0.1844313 0.1896647 0.1873979 0.1821713 0.1789098 0.1800894 0.1853396 0.1918425 0.1969641
 0.2003434 0.2009175 0.1941021 0.1773016 0.1571985 0.1453573 0.1462215 0.1548239 0.1660387 0.1791824
 0.1920246 0.1976292 0.1921807 0.1822398 0.1791744 0.1870891 0.1993041 0.206526 0.2060464 0.2022336
 0.1997729 0.1986734 0.1966199 0.1943871 0.1960144 0.2032415 0.2124713 0.2187861 0.2210577 0.2214936
 0.221881 0.2222338 0.2220758 0.2212553 0.2198472 0.218265 0.2171434 0.2166187 0.2161966 0.2154998
 0.2142413 0.2110838 0.2039273 0.1928721 0.1821107 0.1766143 0.1768625 0.1791765 0.1811931 0.1832414
 0.183218 0.1751558 0.157111 0.1376225 0.1294963 0.1374287 0.1545096 0.1700881 0.1779217 0.1766963
 0.1668379 0.1507318 0.1353144 0.1299141 0.1386383 0.1564251 0.1744529 0.1877402 0.1957223 0.1980529
 0.1936846 0.1838807 0.1734213 0.1678776 0.1702209 0.1795118 0.1912162 0.1983643 0.1949443 0.1818827
 0.1697316 0.1709019 0.1866275 0.2048996 0.2139578 0.2142018 0.213453 0.2147921 0.2150238 0.2131969
 0.2140244 0.2214136 0.2327057 0.2412893 0.2423959 0.2349774 0.2210985 0.2064212 0.1987304 0.2016666
 0.2105448 0.2174192 0.2187604 0.2149822 0.2057449 0.1919258 0.1806006 0.1807893 0.1930064 0.2080697
 0.2175342 0.2213811 0.2242007 0.2272817 0.227051 0.2204996 0.210221 0.2028188 0.2023719 0.2068576
 0.2115597 0.2140433 0.2141902 0.2113771 0.2048612 0.1969458 0.1930157 0.1968558 0.2067171 0.2169376
 0.2229953 0.2243331 0.2230208 0.2210797 0.2191265 0.2165357 0.2127881 0.2092334 0.208836 0.2129929
 0.2192927 0.2239896 0.2262973 0.2286468 0.2328667 0.2376624 0.2401916 0.239165 0.236073 0.2338892
 0.234684 0.2379761 0.2410895 0.2414402 0.238997 0.2365401 0.2371032 0.2410855 0.246206 0.2500916
 0.252208 0.253373 0.2543637 0.2552379 0.2552922 0.2536007 0.2503302 0.2474988 0.2475394 0.250883
 0.2555481 0.2591852 0.260972 0.2614763 0.2613652 0.2607128 0.2593741 0.2576099 0.2561153 0.2554699
 0.2557147 0.2564908 0.2574218 0.2582831 0.2589684 0.2594607 0.2598057 0.2600449 0.2601969 0.2602987
 0.2603859 0.260422 0.2603427 0.2602044 0.2601899 0.260405 0.260734 0.2609626 0.2609757 0.2607509
 0.2602251 0.2593071 0.2580253 0.2565404 0.2549627 0.2532693 0.2515119 0.2500739 0.2495717 0.250392
 0.2523256 0.2546917 0.2568086 0.2583392 0.2592816 0.2597799 0.2599955 0.2600653 0.2600754 0.2600421
 0.2599381 0.2597446 0.2594728 0.2591446 0.2587779 0.2584019 0.2580644 0.2578017 0.2575995 0.2573951
 0.2571205 0.2567443 0.2562841 0.2557853 0.2552794 0.2547508 0.254145 0.2534129 0.252552 0.2516112
 0.2506673 0.2497857 0.2489823 0.2482159 0.2474249 0.2465717 0.2456345 0.2445765 0.2433731 0.242087
 0.2408683 0.2398368 0.2389809 0.2381893 0.2373505 0.2363984 0.2353043 0.2340796 0.2327774 0.2314538
 0.230123 0.2287623 0.227348 0.225873 0.2243405 0.2227576 0.2211318 0.2194673 0.2177679 0.2160365
 0.2142533 0.21235 0.2102155 0.2077305 0.2047982 0.2013561 0.1973863 0.1929367 0.188136 0.1831792
 0.1782794 0.1736169 0.1693193 0.165474 0.1621444 0.1593799 0.1572247 0.1557221 0.1549047 0.1547827
 0.1553423 0.1565436 0.1583098 0.1605218 0.1630316 0.1656788 0.1683012 0.1707573 0.1729723 0.1749725
 0.1768546 0.1786935 0.1804788 0.1821437 0.1836413 0.1849709 0.1861394 0.1871372 0.1879569 0.1886157
 0.1891464 0.1895775 0.1899283 0.1902157 0.190455 0.1906565 0.1908256 0.1909738 0.191127 0.1913147
 0.1915545 0.1918518 0.1922101 0.1926341 0.193125 0.1936784 0.1942848 0.1949319 0.195614 0.1963359
 0.197103 0.1979166 0.1987931 0.199777 0.2009183 0.2022358 0.203709 0.205296 0.2069459 0.208592
 0.2101452 0.2115135 0.2126382 0.2135133 0.2141695 0.2146466 0.2149795 0.2151946 0.2153053 0.2153149
 0.2152269 0.2150497 0.2147924 0.2144631 0.2140694 0.2136165 0.2131066 0.2125508 0.2119743 0.211404
 0.2108496 0.210304 0.209761 0.2092282 0.2087175 0.2082243 0.2077246 0.2071992 0.2066562 0.2061203
 0.2056007 0.2050731 0.2044918 0.2038162 0.2030301 0.2021409 0.20116 0.2000848 0.1989037 0.1976165
 0.1962433 0.1948104 0.193329 0.1917931 0.1901947 0.1885267 0.1867662 0.1848779 0.1828613 0.180788
 0.1787701 0.1768912 0.1751738 0.1735958 0.1721185 0.1707092 0.1693567 0.1680651 0.1668342 0.165657
 0.1645348 0.1634779 0.162488 0.1615517 0.1606576 0.1598192 0.1590728 0.1584423 0.1579083 0.1574286
 0.1569813 0.156575 0.1562343 0.1559969 0.1559019 0.1559435 0.1560481 0.1561201 0.1561043 0.1560023
 0.1558496 0.1556892 0.1555526 0.1554514 0.1553725 0.1552724 0.1550835 0.1547388 0.1541775 0.1533338
 0.1521602 0.1506769 0.1489735 0.1471651 0.1453686 0.1436979 0.1422437 0.1410561 0.1401471 0.1394805
 0.1389694 0.1385327 0.1381667 0.1379414 0.1379238 0.1380984 0.1383432 0.1385033 0.1385285 0.1385289
 0.1386759 0.1390697 0.1396945 0.1404448 0.1411823 0.1418051 0.1422781 0.1426025 0.1427927 0.1428806
 0.1428911 0.1428141 0.1426401 0.1423986 0.1421284 0.141837 0.1415068 0.1411126 0.1406356 0.1400847
 0.1394793 0.138805 0.1380302 0.1371469 0.1361401 0.1349719 0.1336931 0.1325308 0.131782 0.1316267
 0.1320424 0.1328432 0.1338089 0.1348183 0.135806 0.1365906 0.1369378 0.1369232 0.1370972 0.1380864
 0.1400053 0.1423337 0.1443715 0.1457391 0.1464281 0.1465369 0.146127 0.1452467 0.1439038 0.1420473
 0.1396926 0.1369876 0.1340946 0.131142 0.1283011 0.1257477 0.1235664 0.1217878 0.1204295 0.1195259
 0.1191778 0.1190112 0.1172019 0.1114047 0.1023563 0.0955212 0.09651665 0.1048083 0.1140664 0.118858
 0.118989 0.1173254 0.1158694 0.1149297 0.1143953 0.1143934 0.1150424 0.1162021 0.1175035 0.1185728
 0.1192576 0.1195796 0.119471 0.1185762 0.1162103 0.1115799 0.1044137 0.09554026 0.08663289 0.07924429
 0.07409032 0.07104299 0.06948242 0.06867665 0.06814147 0.06784633 0.06808457 0.06912161 0.07097371 0.07348973
 0.07650895 0.07981224 0.08300956 0.08570024 0.08777732 0.08941545 0.09074726 0.09170318 0.09217218 0.09216692
 0.09179652 0.09118186 0.09043327 0.08963319 0.08877806 0.08777639 0.08659735 0.08542792 0.08457413 0.08416578
 0.08405642 0.08403827 0.08403326 0.08404598 0.08406071 0.08404474 0.08399587 0.08397456 0.08409956 0.08445495
 0.08497525 0.08547532 0.08580595 0.08595513 0.08601284 0.08603224 0.08590182 0.08544452 0.08472106 0.08406761
 0.08365542 0.08318476 0.08227549 0.08105627 0.08010228 0.0798178 0.08007815 0.08045878 0.08063032 0.08051616
 0.08026306 0.08016908 0.08049181 0.08114891</values></Ydata></ScSm><ScRf><Ydata ylabel="Single channel"><values byteorder="INTEL" format="FLOAT32" numvalues="1820"> 0.06049665 0.06066034 0.06075623 0.06078745 0.06077941 0.06077691 0.06083227 0.06097281 0.06117323 0.06136626
 0.06149311 0.06154589 0.0615508 0.06152101 0.06146064 0.06141302 0.06145452 0.06161499 0.0618293 0.06198547
 0.0620171 0.06195936 0.06192383 0.06199144 0.06210482 0.06208724 0.06180635 0.06132484 0.06086025 0.06058557
 0.06052256 0.06066898 0.06110471 0.06178284 0.0622942 0.06215645 0.06141394 0.06067467 0.06043525 0.06060362
 0.06077462 0.06070158 0.06037838 0.05995238 0.0597657 0.06026074 0.06154686 0.06304342 0.06368731 0.06260307
 0.05972902 0.05601928 0.05309058 0.05235248 0.05401432 0.05680417 0.05892405 0.05948333 0.05892447 0.05811356
 0.05740573 0.0567581 0.05633674 0.05655221 0.05749723 0.05856276 0.05874972 0.0575215 0.05543778 0.05375925
 0.05329675 0.05390066 0.05512905 0.0567326 0.05796637 0.05720506 0.05354185 0.04880308 0.04673105 0.04942771
 0.05511316 0.05986691 0.06111448 0.05906955 0.05559513 0.05265512 0.05157007 0.052666 0.05522664 0.05809088
 0.0603518 0.06138959 0.06071842 0.05841228 0.05551451 0.05352799 0.05349173 0.05557678 0.05904967 0.06233402
 0.06372607 0.06265548 0.06006692 0.05742192 0.05573506 0.05557667 0.05721815 0.06034823 0.064054 0.06734885
 0.06957434 0.07046731 0.07021837 0.06935349 0.06833261 0.06746759 0.06719992 0.06783076 0.06879494 0.06887519
 0.0675306 0.06562588 0.06454246 0.0647499 0.06543411 0.06548759 0.06462994 0.0632177 0.06114073 0.05780493
 0.05347919 0.04965872 0.04757111 0.04724215 0.04837916 0.05084397 0.05360652 0.05468341 0.05329965 0.05127272
 0.05120476 0.05370732 0.05708415 0.05941036 0.06031869 0.06086925 0.06217794 0.06427073 0.0659471 0.0656901
 0.06317414 0.06010692 0.05902446 0.06080181 0.06380772 0.06590411 0.06669778 0.06730202 0.06839414 0.06916766
 0.06817439 0.06504859 0.06143181 0.05995508 0.06194327 0.06608745 0.06939598 0.06940491 0.06583502 0.06065739
 0.05656011 0.05508669 0.05622387 0.05943047 0.06423397 0.06968853 0.07412612 0.07608615 0.07537371 0.07298957
 0.06998493 0.06648362 0.06222216 0.05817004 0.05673479 0.05948818 0.06515374 0.07067165 0.07393197 0.07482491
 0.07404032 0.07175937 0.06786896 0.06325063 0.06019517 0.06061607 0.06374387 0.0665671 0.06698591 0.06572538
 0.06478406 0.06494451 0.06548296 0.06570686 0.06595074 0.06701321 0.06901525 0.0711011 0.07226385 0.07225702
 0.07163776 0.07111909 0.07092141 0.07061176 0.06971852 0.06867872 0.06877983 0.07074393 0.07372673 0.07618382
 0.07742099 0.07784219 0.07790349 0.07731637 0.07546445 0.07255659 0.07009112 0.06973761 0.07172006 0.07467987
 0.07708766 0.0783422 0.07862385 0.07833688 0.07783438 0.07730794 0.0768526 0.07671164 0.07720849 0.0782813
 0.07938658 0.08004427 0.0802273 0.08011071 0.07972866 0.07905537 0.07825801 0.07769503 0.07765697 0.07814945
 0.07894023 0.07976754 0.08042999 0.08074387 0.08061014 0.08016221 0.07968977 0.07937286 0.07921349 0.07921828
 0.07946743 0.07995337 0.08049431 0.08088546 0.08106498 0.08109219 0.08103011 0.08089836 0.08071201 0.08053306
 0.08047141 0.08060324 0.08087374 0.08113671 0.08132869 0.08153349 0.08181319 0.08205643 0.08209453 0.08192224
 0.08170843 0.08160943 0.08164589 0.0817477 0.08183715 0.08183838 0.08166906 0.08131437 0.08092149 0.08074039
 0.08092229 0.08141401 0.0820515 0.08267467 0.0831482 0.08339118 0.08344196 0.08341891 0.0833831 0.08329326
 0.08311018 0.08290035 0.08281843 0.08298953 0.08339485 0.08387755 0.08427089 0.08450414 0.08459891 0.08463324
 0.0847144 0.08489661 0.08509876 0.08517927 0.08511388 0.08503295 0.08506316 0.08518546 0.08527285 0.08524257
 0.08515075 0.08513343 0.08526184 0.08547793 0.08567771 0.08582949 0.08598869 0.08620493 0.08642928 0.08653311
 0.08644249 0.0862377 0.08607419 0.08601818 0.08602296 0.08605643 0.08616298 0.08636854 0.08659521 0.08672798
 0.08674297 0.08672599 0.08676255 0.08683728 0.08685809 0.08676377 0.0865871 0.08641995 0.08633942 0.08636424
 0.08645274 0.08652992 0.08653413 0.08645681 0.08633989 0.08623217 0.08615392 0.08611195 0.08613859 0.0862804
 0.0865232 0.08674644 0.08679664 0.08662739 0.08635343 0.08614902 0.086091 0.08610462 0.08605511 0.08587728
 0.08561522 0.08535869 0.08516357 0.08502981 0.08492911 0.08484153 0.0847798 0.08478916 0.08490186 0.08506999
 0.08516455 0.0850812 0.08484481 0.08458236 0.08440278 0.08432798 0.08431737 0.08431925 0.08431143 0.08432138
 0.08438687 0.08448043 0.08451362 0.08444142 0.0843227 0.08425897 0.08431242 0.0844848 0.08471553 0.08488947
 0.08491178 0.08480385 0.08468689 0.08465748 0.0847131 0.0848013 0.08489463 0.08499557 0.08510208 0.08520521
 0.08531625 0.08547042 0.08569144 0.08595786 0.08621065 0.08639559 0.08650689 0.08659837 0.08674791 0.08699752
 0.08732021 0.08764319 0.08790594 0.08810163 0.08826859 0.08844283 0.08862726 0.0888155 0.08902876 0.08929972
 0.08962405 0.08995809 0.09026659 0.09054944 0.09082304 0.09109826 0.09138091 0.09168328 0.09203009 0.09244014
 0.09288417 0.09327476 0.09353255 0.09366782 0.09377979 0.09397888 0.09430997 0.09471801 0.09507161 0.09526347
 0.09532285 0.09539799 0.09559527 0.09587125 0.09612191 0.09634016 0.09662435 0.0970369 0.0975086 0.09790264
 0.09814911 0.09829924 0.09845507 0.09865832 0.09885698 0.09898207 0.0990402 0.09910495 0.09922709 0.09939726
 0.09960788 0.09989686 0.1002892 0.1007289 0.1011172 0.101403 0.1016041 0.1017574 0.1018816 0.1019736
 0.1020192 0.1020204 0.1020221 0.102081 0.1021926 0.1022888 0.1023245 0.1023365 0.1023953 0.1025362
 0.1027584 0.1030522 0.1033867 0.1037003 0.1039548 0.1041961 0.1045091 0.1048948 0.1052363 0.1054228
 0.1054707 0.1054799 0.1055053 0.1055367 0.1055862 0.1057165 0.105964 0.1062908 0.1066352 0.1069746
 0.1073177 0.1076629 0.1079789 0.1082169 0.1083381 0.1083451 0.1082962 0.1082832 0.1083857 0.1086282
 0.108965 0.1093103 0.1095936 0.1097853 0.1098745 0.1098586 0.1097803 0.1097419 0.10983 0.1100181
 0.1101761 0.1101809 0.1099948 0.1096406 0.1091453 0.1085338 0.1078573 0.1071968 0.1066326 0.106215
 0.1059703 0.1059282 0.1061296 0.1065846 0.107226 0.1079277 0.1085756 0.1090955 0.1094134 0.1094402
 0.1091349 0.1085607 0.1078499 0.1071228 0.1064472 0.1058362 0.1052578 0.104679 0.1041461 0.1038135
 0.1038695 0.1044252 0.1054635 0.1068524 0.1083847 0.1098379 0.1110596 0.1120248 0.1128115 0.1135137
 0.1141815 0.1148346 0.1154943 0.1161662 0.1168083 0.1173607 0.1178146 0.1182203 0.1186247 0.1190269
 0.1193922 0.1196872 0.1199083 0.120093 0.1202855 0.1204745 0.1205923 0.1205934 0.1205087 0.1203989
 0.1202828 0.1201268 0.1198816 0.1195198 0.119072 0.1186571 0.1184663 0.1186789 0.1193579 0.1204112
 0.1216602 0.1229559 0.1242179 0.1253775 0.1263365 0.1270245 0.1274696 0.1277765 0.1280424 0.1283138
 0.1286025 0.1289075 0.1292191 0.1295198 0.1297976 0.1300633 0.1303496 0.1306795 0.1310316 0.1313513
 0.1316079 0.1318344 0.1321005 0.132446 0.1328416 0.1332183 0.1335388 0.1338301 0.1341341 0.1344415
 0.1347035 0.1349029 0.13508 0.1352925 0.1355714 0.1359116 0.136274 0.1365962 0.1368341 0.137001
 0.1371535 0.1373385 0.1375629 0.13781 0.1380659 0.1383264 0.1385914 0.1388636 0.1391509 0.1394549
 0.1397518 0.1399986 0.1401729 0.1403047 0.1404534 0.1406517 0.1408802 0.1410963 0.1412859 0.141482
 0.141731 0.1420389 0.1423548 0.1426141 0.1427946 0.1429285 0.1430649 0.1432315 0.1434275 0.1436414
 0.1438625 0.14408 0.1442849 0.1444796 0.1446776 0.1448888 0.1451085 0.1453251 0.1455348 0.145742
 0.1459506 0.1461595 0.1463719 0.1466044 0.1468749 0.1471756 0.1474653 0.1477006 0.1478732 0.1480084
 0.1481358 0.1482725 0.1484266 0.148602 0.1487964 0.1490033 0.1492161 0.1494284 0.1496338 0.1498283
 0.1500142 0.1501997 0.1503935 0.1505992 0.1508153 0.1510399 0.1512719 0.1515058 0.1517311 0.1519398
 0.1521341 0.1523243 0.1525205 0.152723 0.1529218 0.153107 0.1532818 0.1534587 0.1536465 0.1538443
 0.1540464 0.1542464 0.1544398 0.1546266 0.1548119 0.1550011 0.1551965 0.1553956 0.1555929 0.1557837
 0.1559709 0.1561641 0.15637 0.1565835 0.1567919 0.156985 0.1571644 0.1573447 0.1575418 0.1577588
 0.1579822 0.1581932 0.1583821 0.1585563 0.1587342 0.1589307 0.1591453 0.1593649 0.1595755 0.1597729
 0.1599632 0.1601555 0.1603521 0.1605513 0.1607559 0.1609702 0.1611892 0.1614012 0.161603 0.1618027
 0.1620094 0.1622252 0.162447 0.1626701 0.1628924 0.1631155 0.1633395 0.1635585 0.1637645 0.1639558
 0.1641371 0.1643145 0.1644902 0.164661 0.1648254 0.1649915 0.1651714 0.1653652 0.1655604 0.1657469
 0.1659264 0.1661083 0.1663025 0.1665117 0.1667274 0.1669386 0.1671412 0.1673379 0.1675358 0.1677448
 0.1679678 0.1681922 0.1684015 0.1685956 0.1687899 0.1689966 0.1692142 0.1694326 0.169643 0.1698473
 0.170054 0.1702639 0.1704706 0.1706755 0.1708851 0.171097 0.1713031 0.1715038 0.1717033 0.1719025
 0.172106 0.1723214 0.1725451 0.1727636 0.1729701 0.173167 0.1733604 0.1735599 0.1737732 0.1739973
 0.1742264 0.1744612 0.1746988 0.1749268 0.1751384 0.1753406 0.1755414 0.1757451 0.1759554 0.1761694
 0.1763793 0.1765862 0.1767941 0.176988 0.1771211 0.1770829 0.1766075 0.1751701 0.1719661 0.1660649
 0.1567764 0.1440776 0.1287691 0.1121954 0.09575307 0.08052258 0.06715171 0.05593279 0.04694297 0.04013401
 0.03538631 0.03259796 0.03177776 0.03314364 0.03723557 0.04459448 0.05454036 0.06409287 0.06913191 0.06764825
 0.0616658 0.05539983 0.05175906 0.05094567 0.05171383 0.05299902 0.05446268 0.05630019 0.05884667 0.06219158
 0.0661646 0.07075372 0.07630508 0.08307617 0.09070913 0.09838553 0.1055309 0.1122593 0.1190956 0.1263389
 0.1337483 0.1407838 0.14704 0.152446 0.1571749 0.1614555 0.1654438 0.1692085 0.1727833 0.1761707
 0.1792606 0.1817922 0.1834823 0.1842458 0.1842981 0.184032 0.1837846 0.1837062 0.1838076 0.1840664
 0.1844675 0.1849927 0.1856206 0.1863323 0.187104 0.1879056 0.1887097 0.1894961 0.190248 0.1909551
 0.1916124 0.1922163 0.1927662 0.193267 0.1937218 0.1941307 0.1945027 0.1948555 0.1952018 0.1955457
 0.1958895 0.19623 0.1965524 0.1968406 0.1970893 0.1973049 0.1975023 0.1976988 0.1979029 0.1981081
 0.198307 0.1985052 0.1987135 0.1989328 0.1991542 0.1993686 0.1995735 0.1997734 0.1999727 0.2001701
 0.2003618 0.2005505 0.2007431 0.2009411 0.2011398 0.201336 0.2015294 0.2017198 0.201907 0.2020921
 0.2022776 0.2024665 0.2026597 0.2028563 0.203059 0.2032747 0.2035027 0.2037276 0.2039379 0.2041415
 0.2043519 0.2045658 0.204772 0.2049691 0.2051604 0.2053411 0.2055047 0.2056596 0.2058293 0.2060318
 0.2062609 0.2064912 0.2067033 0.206898 0.2070852 0.2072707 0.2074572 0.2076452 0.2078335 0.2080311
 0.2082569 0.2085131 0.2087741 0.2090178 0.2092474 0.2094715 0.2096918 0.2099157 0.2101479 0.2103631
 0.2105246 0.2106426 0.210791 0.2110474 0.2114142 0.2118067 0.2121304 0.2123659 0.212568 0.212797
 0.2130731 0.2133605 0.2135631 0.2135936 0.2135085 0.2135203 0.2138036 0.2143202 0.2148821 0.2153437
 0.2156888 0.215973 0.2162359 0.2164629 0.2166028 0.2166276 0.2165968 0.2166595 0.2169502 0.2174532
 0.2180046 0.218452 0.2187676 0.2189949 0.2191724 0.2193282 0.2194347 0.2193519 0.2189766 0.2185097
 0.2184079 0.218942 0.21989 0.2207725 0.2213266 0.2216435 0.2219037 0.2221567 0.2223684 0.2224593
 0.2221968 0.2213254 0.22005 0.2191796 0.2194583 0.2208167 0.2224984 0.2238187 0.2245982 0.2250026
 0.225253 0.2254731 0.2255905 0.225345 0.2245818 0.2236278 0.2232037 0.2237592 0.2249726 0.2260993
 0.2267298 0.2270032 0.2272124 0.2274783 0.227669 0.2273429 0.2259936 0.2237923 0.2219724 0.2219604
 0.2239792 0.2267864 0.228911 0.22992 0.230306 0.2304065 0.2299035 0.2283946 0.225996 0.223292
 0.2211564 0.2206363 0.2222579 0.225158 0.2275771 0.2285991 0.2289224 0.2296986 0.2311523 0.2325927
 0.2333063 0.2331093 0.2322248 0.2308887 0.2292355 0.2276633 0.2270548 0.2281504 0.2306485 0.2333165
 0.2351316 0.2360539 0.2364842 0.2360659 0.2334518 0.2279244 0.2214101 0.2179379 0.2200843 0.2262798
 0.2324921 0.2361898 0.2377309 0.2384673 0.2389345 0.2387009 0.2366185 0.2314496 0.2238084 0.2173833
 0.2164438 0.2216155 0.2291762 0.2345367 0.2353679 0.2318407 0.2258041 0.2202393 0.2180424 0.2202689
 0.2256741 0.2319436 0.2370781 0.2399475 0.2402909 0.2386105 0.2361257 0.2344736 0.2345257 0.2351
 0.2338612 0.2302683 0.2264695 0.2241408 0.2218875 0.2178272 0.2137475 0.2139208 0.2195545 0.2267634
 0.2309345 0.2313989 0.2305765 0.2295648 0.2262468 0.2183284 0.2076805 0.2004136 0.2015373 0.2097624
 0.218656 0.2229478 0.2227169 0.2214858 0.2215181 0.2215092 0.2184176 0.2114386 0.2040145 0.2009429
 0.2032673 0.2073424 0.2091393 0.2074472 0.2024449 0.1944208 0.1861083 0.1835034 0.1907983 0.2052462
 0.2193231 0.2269207 0.2255623 0.2150407 0.198303 0.1832647 0.1789501 0.1873961 0.2011695 0.2102055
 0.2097811 0.2013322 0.1881656 0.1732297 0.1605038 0.155383 0.1614369 0.1768014 0.1942169 0.2046094
 0.2020913 0.1885755 0.174244 0.1702176 0.1783867 0.1900773 0.1957629 0.1937124 0.1886041 0.1855276
 0.1870653 0.192834 0.1998806 0.2054612 0.209228 0.2100736 0.2031626 0.1857374 0.1647903 0.1524565
 0.1534124 0.1624657 0.1742582 0.1880825 0.2015884 0.2074743 0.2017235 0.1912296 0.1879372 0.196159
 0.2088826 0.2163516 0.2157268 0.2116083 0.2089381 0.2077384 0.2055674 0.2032133 0.2049039 0.2124727
 0.2221579 0.2288003 0.2312082 0.2316993 0.2321646 0.2326307 0.2325901 0.2318656 0.2305277 0.2290138
 0.2279977 0.2276267 0.2273807 0.2268583 0.2257471 0.2226162 0.2152236 0.20367 0.1924116 0.1867328
 0.1871411 0.189724 0.1919629 0.1941966 0.1941939 0.185638 0.1664701 0.1457275 0.1369695 0.1451747
 0.1630295 0.1792603 0.1872776 0.1857325 0.1751193 0.1579605 0.1415124 0.1355147 0.1442483 0.1624222
 0.1808282 0.1942829 0.2022371 0.2043779 0.1996317 0.1892865 0.1782656 0.1723163 0.1745008 0.1838452
 0.1956734 0.2028171 0.1991179 0.1855421 0.1728894 0.1738319 0.1896223 0.2080169 0.2170411 0.2171196
 0.21623 0.2175037 0.2176663 0.2157299 0.21649 0.2239395 0.2353952 0.2441478 0.2453566 0.2379572
 0.2240413 0.2093541 0.2018013 0.2050727 0.2143818 0.2216225 0.2231899 0.2194958 0.2101881 0.1961769
 0.1847152 0.1850302 0.1976332 0.2131204 0.2228609 0.2268545 0.2298086 0.2330388 0.2328853 0.2262749
 0.2158702 0.2084302 0.2081237 0.2128771 0.2178703 0.220621 0.2210026 0.2183464 0.211862 0.2039215
 0.2000967 0.2043032 0.214713 0.2254337 0.2317604 0.2331101 0.2316284 0.2294087 0.2270946 0.224056
 0.2197814 0.2156859 0.2148446 0.2187195 0.224851 0.2293919 0.2315114 0.2336769 0.2377573 0.2424409
 0.2448319 0.2436133 0.2403012 0.2379205 0.2385726 0.2417689 0.244801 0.2450528 0.2424858 0.2399087
 0.2403979 0.2443695 0.2495213 0.2534466 0.2555941 0.2567813 0.2577898 0.2586766 0.2587291 0.2570106
 0.2536911 0.2508119 0.2508308 0.2541817 0.2588617 0.2624998 0.2642716 0.264758 0.2646319 0.2639589
 0.2625854 0.2607805 0.2592593 0.2586159 0.2588882 0.2596982 0.2606452 0.2614901 0.2621325 0.2625762
 0.2628837 0.2630951 0.2632181 0.2632893 0.2633551 0.263384 0.2633016 0.2631529 0.2631267 0.2633487
 0.2637128 0.2639851 0.2640145 0.2637619 0.2631884 0.2622493 0.2609985 0.2595788 0.2580599 0.2563964
 0.2546542 0.2532455 0.2527978 0.2536865 0.2556884 0.2581185 0.2602938 0.2618718 0.2628462 0.2633644
 0.2635928 0.263668 0.2636725 0.2636237 0.2635013 0.2632909 0.2630023 0.2626575 0.2622772 0.2618852
 0.2615156 0.2611966 0.2609209 0.2606407 0.2602999 0.2598711 0.2593675 0.2588287 0.2582908 0.2577515
 0.2571581 0.2564425 0.2555778 0.2546084 0.2536311 0.2527379 0.2519556 0.2512313 0.250485 0.2496688
 0.2487645 0.2477487 0.2466146 0.2454385 0.244367 0.2435009 0.242809 0.2421781 0.2415155 0.240779
 0.2399459 0.239006 0.2379796 0.2369061 0.2358089 0.2346841 0.2335099 0.232257 0.2309042 0.2294567
 0.2279361 0.2263557 0.2247252 0.223068 0.2213936 0.2196451 0.2176951 0.2153963 0.2126228 0.2092839
 0.2053462 0.2008713 0.1960283 0.1910473 0.1861455 0.1814805 0.1771613 0.1732802 0.1699264 0.1671767
 0.1650877 0.1636945 0.1630112 0.1630371 0.1637601 0.1651459 0.1671205 0.169569 0.1723509 0.1753116
 0.1782853 0.1811132 0.1836919 0.1860212 0.1881871 0.1902685 0.1922639 0.1941144 0.1957756 0.1972377
 0.1984951 0.1995358 0.2003685 0.2010363 0.2015938 0.2020771 0.202496 0.2028536 0.2031629 0.2034398
 0.2036871 0.203897 0.2040702 0.2042246 0.2043885 0.204588 0.2048385 0.2051472 0.2055236 0.2059761
 0.2064951 0.2070531 0.2076299 0.2082249 0.2088423 0.2094838 0.2101693 0.2109511 0.2118906 0.2130165
 0.2143038 0.2156874 0.2170897 0.2184355 0.2196516 0.2206684 0.2214356 0.2219406 0.2222123 0.222303
 0.2222541 0.2220772 0.2217704 0.2213494 0.2208522 0.2203138 0.2197446 0.2191357 0.2184807 0.2177899
 0.2170833 0.2163768 0.2156776 0.214992 0.2143262 0.2136809 0.2130529 0.2124403 0.2118411 0.2112519
 0.2106712 0.2100993 0.2095317 0.2089597 0.2083777 0.2077802 0.207144 0.2064285 0.2056035 0.204672
 0.2036544 0.202559 0.201381 0.2001242 0.1988003 0.197405 0.1959168 0.1943274 0.1926579 0.1909266
 0.189114 0.1871805 0.1851301 0.1830453 0.1810437 0.1792036 0.1775322 0.1759901 0.1745317 0.1731319
 0.1717904 0.1705116 0.1692876 0.1681101 0.1669885 0.1659363 0.1649459 0.1639979 0.1630908 0.1622499
 0.1615059 0.1608679 0.1603178 0.1598323 0.1594071 0.1590528 0.1587799 0.1586052 0.158549 0.1585996
 0.1586939 0.1587547 0.1587399 0.1586534 0.1585309 0.1584159 0.1583316 0.1582712 0.1582152 0.1581365
 0.1579804 0.1576595 0.1570795 0.1561758 0.1549424 0.1534308 0.1517169 0.1498851 0.1480528 0.1463671
 0.1449387 0.1437981 0.142921 0.1422603 0.1417555 0.1413576 0.1410617 0.1409018 0.1409132 0.1410825
 0.1413116 0.1414622 0.1414841 0.141479 0.1416149 0.1420008 0.1426351 0.1434181 0.1442077 0.144901
 0.1454607 0.1458668 0.1461033 0.1461948 0.1461931 0.146123 0.1459875 0.1458015 0.1455775 0.1453074
 0.144979 0.1445807 0.1440963 0.143524 0.1428731 0.1421348 0.1413001 0.1403866 0.1393898 0.1382646
 0.137043 0.1359244 0.1351802 0.1349937 0.1353811 0.1361917 0.1372026 0.1382702 0.1393238 0.1401944
 0.1406436 0.1407181 0.1409474 0.1419747 0.1439463 0.1463453 0.148451 0.1498788 0.1506322 0.1508012
 0.1504181 0.1495245 0.1481528 0.1462739 0.1439009 0.1411634 0.1382047 0.1351503 0.1321975 0.1295572
 0.1273243 0.1255091 0.1241033 0.1231365 0.1227308 0.1225262 0.1206592 0.1147229 0.1054817 0.09854844
 0.09966409 0.1082428 0.1177832 0.1227414 0.1229417 0.1213083 0.1198591 0.1188952 0.118323 0.1183015
 0.1189562 0.1201286 0.1214349 0.122502 0.1231833 0.1235097 0.1234182 0.1225307 0.1201072 0.1153088
 0.1078738 0.09868933 0.08948983 0.08186026 0.0765233 0.07335234 0.07172909 0.0709081 0.07037121 0.07005906
 0.07027113 0.07131242 0.07324108 0.07591531 0.07913889 0.08263779 0.08598767 0.08878553 0.09093868 0.09264763
 0.09407666 0.09515841 0.09573472 0.09576976 0.09538291 0.09474784 0.09400379 0.09321417 0.0923426 0.09128833
 0.09003871 0.0888046 0.08790377 0.08746971 0.08736066 0.08736408 0.08737764 0.08738226 0.08736711 0.08732546
 0.0872691 0.08724411 0.08734272 0.08764139 0.08810177 0.08857717 0.08892423 0.08909401 0.0891356 0.08909556
 0.08888623 0.08835555 0.08757333 0.08687221 0.08641355 0.08588271 0.08488543 0.08355343 0.08249156 0.08214147
 0.08238901 0.08277911 0.08293609 0.08276673 0.08244999 0.0823288 0.08266512 0.08333953 0.08386347 0.08383315
</values></Ydata></ScRf><Data_Parameters_AB><parameter name="DPF">1</parameter><parameter name="NPT">3497</parameter><parameter name="FXV">3996</parameter><parameter name="LXV">500</parameter><parameter name="CSF">1</parameter><parameter name="MXY">0.0284620504826307</parameter><parameter name="MNY">-0.027073422446847</parameter><parameter name="DAT">30/05/2022</parameter><parameter name="TIM">11:56:19.173 (GMT+2)</parameter><parameter name="DXU">WN</parameter></Data_Parameters_AB><AB__Qtest><MainReport name="Quality Test Report"><Header><Line><Legend>Test result ok/not ok [1/0]: </Legend><Value>0</Value></Line><Line><Legend>Method file: </Legend><Value>C:\Users\Public\Documents\Bruker\OPUS_8.2.28\QT\IRBT_v3_default.QT</Value></Line></Header><Matrix><Line><Legend></Legend><Legend>min</Legend><Legend>max</Legend><Legend>measured</Legend></Line><Line><Value>Absorption (X-Range 1):</Value><Value>0.400000</Value><Value>2.000000</Value><Value>0.031489</Value></Line><Line><Value>Noise (X-Range 4):</Value><Value></Value><Value>0.000300</Value><Value>0.000065</Value></Line><Line><Value>Signal/Noise (X-Range 2):</Value><Value>200.000000</Value><Value></Value><Value>9.198678</Value></Line><Line><Value>Signal/Noise (X-Range 3):</Value><Value>40.000000</Value><Value></Value><Value>10.783918</Value></Line><Line><Value>Water vapour (X-Range 5):</Value><Value></Value><Value>0.000300</Value><Value>0.000042</Value></Line><Line><Value>Signal/Water (X-Range 2):</Value><Value>100.000000</Value><Value></Value><Value>14.243659</Value></Line><Line><Value>Signal/Water (X-Range 3):</Value><Value>20.000000</Value><Value></Value><Value>16.698318</Value></Line><Line><Value>Fringes (X-Range 6):</Value><Value></Value><Value>0.000100</Value><Value>0.000058</Value></Line></Matrix></MainReport></AB__Qtest><Data_Parameters_ScSm><parameter name="DPF">1</parameter><parameter name="NPT">1814</parameter><parameter name="FXV">3996.33169228125</parameter><parameter name="LXV">499.541461535156</parameter><parameter name="CSF">1</parameter><parameter name="MXY">0.261476308107376</parameter><parameter name="MNY">0.0328662395477295</parameter><parameter name="DAT">30/05/2022</parameter><parameter name="TIM">11:56:19.173 (GMT+2)</parameter><parameter name="DXU">WN</parameter></Data_Parameters_ScSm><Data_Parameters_ScRf><parameter name="DPF">1</parameter><parameter name="NPT">1820</parameter><parameter name="FXV">4004.04661832813</parameter><parameter name="LXV">495.683998511719</parameter><parameter name="CSF">1</parameter><parameter name="MXY">0.264757961034775</parameter><parameter name="MNY">0.0317777618765831</parameter><parameter name="DAT">30/05/2022</parameter><parameter name="TIM">11:55:53.321 (GMT+2)</parameter><parameter name="DXU">WN</parameter></Data_Parameters_ScRf><Optic_Parameters_Rf><parameter name="APR">0</parameter><parameter name="APT">Open</parameter><parameter name="BMS">KBr</parameter><parameter name="DTC">RT-DLaTGS_IR-Biotyper [Microplate reader]</parameter><parameter name="HPF">0</parameter><parameter name="LPF">10.0</parameter><parameter name="LPV">4000</parameter><parameter name="PGR">0</parameter><parameter name="RCH">Module port</parameter><parameter name="RDX">0</parameter><parameter name="SRC">MIR</parameter><parameter name="VEL">10.0</parameter><parameter name="SON">Off</parameter></Optic_Parameters_Rf><Acquisition_Parameters_Rf><parameter name="ADT">1</parameter><parameter name="AQM">DD</parameter><parameter name="CFE">0</parameter><parameter name="COR">0</parameter><parameter name="DEL">0</parameter><parameter name="DLY">0</parameter><parameter name="HFW">8000</parameter><parameter name="LFW">0</parameter><parameter name="NSR">32</parameter><parameter name="PLF">AB</parameter><parameter name="RES">6</parameter><parameter name="RGN">-1</parameter><parameter name="STR">0</parameter><parameter name="TCL">MakeCompatibleScalar (0, {WSV=1.000000, ARV=0});</parameter><parameter name="TDL">37</parameter><parameter name="RPO">0</parameter></Acquisition_Parameters_Rf><FT_-_Parameters_Rf><parameter name="APF">B3</parameter><parameter name="HFQ">500</parameter><parameter name="LFQ">4000</parameter><parameter name="NLI">0</parameter><parameter name="PHR">24</parameter><parameter name="PHZ">ML</parameter><parameter name="SPZ">NO</parameter><parameter name="ZFF">1</parameter></FT_-_Parameters_Rf><Optic_Parameters_><parameter name="APR">0</parameter><parameter name="APT">Open</parameter><parameter name="BMS">KBr</parameter><parameter name="CHN">Module port</parameter><parameter name="DTC">RT-DLaTGS_IR-Biotyper [Microplate reader]</parameter><parameter name="HPF">0</parameter><parameter name="LPF">10.0</parameter><parameter name="LPV">4000</parameter><parameter name="PGN">0</parameter><parameter name="RDX">0</parameter><parameter name="SRC">MIR</parameter><parameter name="VEL">10.0</parameter><parameter name="SON">Off</parameter></Optic_Parameters_><FT_-_Parameters_><parameter name="APF">B3</parameter><parameter name="HFQ">500</parameter><parameter name="LFQ">4000</parameter><parameter name="NLI">0</parameter><parameter name="PHR">24</parameter><parameter name="PHZ">ML</parameter><parameter name="SPZ">NO</parameter><parameter name="ZFF">1</parameter></FT_-_Parameters_><Acquisition_Parameters_><parameter name="ADT">1</parameter><parameter name="AQM">DD</parameter><parameter name="CFE">0</parameter><parameter name="COR">0</parameter><parameter name="DEL">0</parameter><parameter name="DLY">0</parameter><parameter name="HFW">8000</parameter><parameter name="LFW">0</parameter><parameter name="NSS">32</parameter><parameter name="PLF">AB</parameter><parameter name="RES">6</parameter><parameter name="SOT">0</parameter><parameter name="TCL">MakeCompatibleScalar (0, {WSV=1.000000, ARV=0});</parameter><parameter name="TDL">37</parameter><parameter name="SPO">0</parameter><parameter name="SGN">-1</parameter></Acquisition_Parameters_><Instrument_Parameters_Rf><parameter name="HFL">15800.168544</parameter><parameter name="LFL">0</parameter><parameter name="LWN">15800.168544</parameter><parameter name="ABP">32197</parameter><parameter name="SSP">1</parameter><parameter name="ARG">2</parameter><parameter name="ASG">2</parameter><parameter name="ASS">32</parameter><parameter name="GFW">16</parameter><parameter name="GBW">16</parameter><parameter name="BFW">0</parameter><parameter name="BBW">0</parameter><parameter name="PKA">7293</parameter><parameter name="PKL">4996</parameter><parameter name="PRA">7463</parameter><parameter name="PRL">5001</parameter><parameter name="P2A">1</parameter><parameter name="P2L">1</parameter><parameter name="P2R">1</parameter><parameter name="P2K">1</parameter><parameter name="DAQ">0</parameter><parameter name="AG2">1</parameter><parameter name="SSM">1</parameter><parameter name="RSN">25270</parameter><parameter name="CRR">0</parameter><parameter name="SRT">1653911753.321</parameter><parameter name="DUR">19.6379852294922</parameter><parameter name="TSC">28.1</parameter><parameter name="MVD">0.20545020699501</parameter><parameter name="AN1">0.225845735195946</parameter><parameter name="AN2">0</parameter><parameter name="VSN">2.485 Apr  4 2017</parameter><parameter name="SRN">0085</parameter><parameter name="CAM">0</parameter><parameter name="INS">IR-Biotyper</parameter><parameter name="FOC">69</parameter><parameter name="RDY">1</parameter><parameter name="ARS">32</parameter></Instrument_Parameters_Rf><Sample_Parameters_><parameter name="BLD"></parameter><parameter name="CNM">Admin</parameter><parameter name="CPY"></parameter><parameter name="DPM"></parameter><parameter name="EXP">IRBT_v3_32Scans.XPM</parameter><parameter name="LCT"></parameter><parameter name="SFM">Microplate, HTS-XT</parameter><parameter name="SNM">220530-1021_GFG29M (D_13)_B8_a33aa5dc-cf49-4623-abc6-5ccada4c623e.0</parameter><parameter name="XPP">C:\Users\Public\Documents\Bruker\OPUS_8.2.28\XPM</parameter><parameter name="IST">OK</parameter><parameter name="CPG">1252</parameter><parameter name="UID">bb34dccf-8bfa-4f2d-b263-0322a6afc266</parameter></Sample_Parameters_><Instrument_Parameters_><parameter name="HFL">15800.168544</parameter><parameter name="LFL">0</parameter><parameter name="LWN">15800.168544</parameter><parameter name="ABP">32197</parameter><parameter name="SSP">1</parameter><parameter name="ASG">2</parameter><parameter name="ARG">2</parameter><parameter name="ASS">32</parameter><parameter name="GFW">16</parameter><parameter name="GBW">16</parameter><parameter name="BFW">0</parameter><parameter name="BBW">0</parameter><parameter name="PKA">7297</parameter><parameter name="PKL">4988</parameter><parameter name="PRA">7530</parameter><parameter name="PRL">5002</parameter><parameter name="P2A">1</parameter><parameter name="P2L">1</parameter><parameter name="P2R">1</parameter><parameter name="P2K">1</parameter><parameter name="DAQ">0</parameter><parameter name="AG2">1</parameter><parameter name="SSM">1</parameter><parameter name="RSN">13261</parameter><parameter name="CRR">0</parameter><parameter name="SRT">1653911779.173</parameter><parameter name="DUR">19.6379852294922</parameter><parameter name="TSC">28.1</parameter><parameter name="MVD">0.211003631353378</parameter><parameter name="AN1">0.225829708450071</parameter><parameter name="AN2">0</parameter><parameter name="VSN">2.485 Apr  4 2017</parameter><parameter name="SRN">0085</parameter><parameter name="CAM">0</parameter><parameter name="INS">IR-Biotyper</parameter><parameter name="FOC">69</parameter><parameter name="RDY">1</parameter></Instrument_Parameters_><History/></OPUSDataFile>
