<?xml version="1.0" encoding="UTF-8" ?>
<OPUSDataFile><AB><Ydata ylabel="Absorbance Units"><values byteorder="INTEL" format="FLOAT32" numvalues="3497"> -0.05936955 -0.0592641 -0.05916268 -0.05906443 -0.05898316 -0.05891955 -0.05886957 -0.05883249 -0.05879714 -0.0587644
 -0.058733 -0.05870594 -0.05869408 -0.05869713 -0.05872189 -0.05876166 -0.05880921 -0.05885786 -0.05889583 -0.05892423
 -0.05893862 -0.05894662 -0.05895084 -0.05895802 -0.05897182 -0.0589931 -0.0590235 -0.05905833 -0.05909763 -0.05913341
 -0.05916501 -0.05918551 -0.05919452 -0.0591901 -0.05917256 -0.05914514 -0.05910856 -0.05906824 -0.05902539 -0.05898631
 -0.05895335 -0.05893482 -0.05893286 -0.0589563 -0.0590013 -0.05907059 -0.0591489 -0.05922768 -0.05928775 -0.05931446
 -0.05930521 -0.05925156 -0.05917467 -0.05907626 -0.05898373 -0.05890254 -0.05884335 -0.05880849 -0.05879181 -0.05879308
 -0.05880238 -0.05881912 -0.05883331 -0.05884448 -0.05884351 -0.05883227 -0.05881117 -0.05878538 -0.05876758 -0.05876093
 -0.05877814 -0.05881472 -0.05887216 -0.05894054 -0.05901304 -0.05908119 -0.05913865 -0.05918076 -0.05920421 -0.05920793
 -0.05918984 -0.05915657 -0.05910735 -0.05905921 -0.05901305 -0.05899101 -0.0589944 -0.05903931 -0.05912485 -0.05924529
 -0.05939343 -0.05952435 -0.05962845 -0.05963961 -0.05956969 -0.05940499 -0.05918322 -0.05896258 -0.05876562 -0.05864854
 -0.05859645 -0.05862253 -0.05868627 -0.05877089 -0.05884057 -0.0588736 -0.05887087 -0.05882388 -0.05876585 -0.05870021
 -0.05865791 -0.05864369 -0.05865919 -0.05870488 -0.05875654 -0.05881348 -0.05885969 -0.05889873 -0.05894547 -0.05900266
 -0.0590928 -0.0592063 -0.05933494 -0.05945958 -0.05953973 -0.05957598 -0.05954451 -0.05947787 -0.05939583 -0.05931879
 -0.05927042 -0.059233 -0.05920424 -0.05917132 -0.05912435 -0.05909096 -0.05907261 -0.05910585 -0.05919778 -0.05933218
 -0.05950926 -0.05961749 -0.05965301 -0.0595274 -0.0592608 -0.05894159 -0.05858601 -0.05830606 -0.05809283 -0.05798038
 -0.05795402 -0.05800794 -0.05812034 -0.05826829 -0.05842138 -0.05854649 -0.05862856 -0.05864222 -0.05861376 -0.05854383
 -0.05847193 -0.05841185 -0.05836951 -0.05834985 -0.0583371 -0.05832923 -0.05832657 -0.05832888 -0.05835361 -0.05840078
 -0.05847488 -0.05857156 -0.05866548 -0.05875137 -0.05879317 -0.05879454 -0.05874356 -0.05865306 -0.05853942 -0.05841324
 -0.05829395 -0.05818618 -0.05809953 -0.05803693 -0.05800215 -0.05799766 -0.05802616 -0.05808491 -0.05817655 -0.0582833
 -0.05840569 -0.0585069 -0.05858374 -0.05860142 -0.05855728 -0.05845361 -0.05829283 -0.05811599 -0.05792518 -0.05775557
 -0.05760396 -0.05747563 -0.05736887 -0.05728023 -0.05721395 -0.05717699 -0.0571698 -0.05720077 -0.05725357 -0.05732147
 -0.05737841 -0.05740501 -0.05739503 -0.05733547 -0.05725367 -0.05715164 -0.05706622 -0.05700564 -0.05698214 -0.05699939
 -0.05704383 -0.05711497 -0.05719173 -0.05727285 -0.05733639 -0.0573816 -0.05739029 -0.0573667 -0.0573147 -0.05724483
 -0.05718639 -0.05714539 -0.05714953 -0.05718951 -0.05726832 -0.05736626 -0.05746588 -0.05755977 -0.05763385 -0.05770515
 -0.05777743 -0.05786393 -0.05797441 -0.05808631 -0.05820007 -0.05827522 -0.05830613 -0.05828233 -0.05820259 -0.05807648
 -0.05790471 -0.05769715 -0.05745802 -0.05722019 -0.05699005 -0.05681234 -0.05668619 -0.05663576 -0.05664797 -0.05671576
 -0.05681401 -0.05690744 -0.05698368 -0.05701361 -0.05701594 -0.05699273 -0.05696391 -0.05694075 -0.0569235 -0.05691677
 -0.05690501 -0.05688683 -0.0568451 -0.05677658 -0.05668375 -0.05656604 -0.05645233 -0.05634451 -0.05627897 -0.05625489
 -0.0562883 -0.05636895 -0.05646839 -0.05656887 -0.05660332 -0.05657616 -0.05645476 -0.05627589 -0.05607505 -0.05587326
 -0.05570712 -0.05556452 -0.05545045 -0.05534377 -0.05523439 -0.05511914 -0.05499196 -0.05487099 -0.05475863 -0.05466868
 -0.05460458 -0.05455566 -0.05452195 -0.05447106 -0.05440189 -0.05429165 -0.05414513 -0.05398558 -0.05381947 -0.05368797
 -0.05358829 -0.05353436 -0.05352001 -0.05354187 -0.05359124 -0.05366083 -0.0537293 -0.0537787 -0.05378455 -0.05372037
 -0.05359809 -0.05341085 -0.05319665 -0.0529692 -0.05273062 -0.05248589 -0.05221315 -0.05190868 -0.05157753 -0.05121939
 -0.05085794 -0.05049412 -0.05014394 -0.04980785 -0.0494965 -0.0492106 -0.04896009 -0.04874278 -0.04855915 -0.04840379
 -0.04826702 -0.04814498 -0.04803036 -0.04791688 -0.04780038 -0.0476644 -0.04749646 -0.04729106 -0.04703725 -0.04675904
 -0.04646078 -0.04616241 -0.04587022 -0.04558213 -0.04529917 -0.04501133 -0.04471786 -0.044416 -0.04410645 -0.04380441
 -0.04351198 -0.04325465 -0.04302886 -0.0428389 -0.04266777 -0.04247127 -0.04223673 -0.04190785 -0.04151348 -0.04106365
 -0.04059835 -0.04016333 -0.03976256 -0.0394166 -0.03910199 -0.03881576 -0.03852953 -0.03823249 -0.03791792 -0.03757998
 -0.0372385 -0.03689569 -0.03656189 -0.03623876 -0.03590299 -0.03555309 -0.03515689 -0.03471719 -0.03423888 -0.03372996
 -0.03322782 -0.03273626 -0.03228597 -0.03187373 -0.03151019 -0.03118432 -0.03088949 -0.03060675 -0.03031642 -0.03000712
 -0.02966174 -0.02929224 -0.02889882 -0.02849641 -0.0280931 -0.02767859 -0.02725273 -0.02680128 -0.02631943 -0.02583164
 -0.02533856 -0.02488554 -0.02447372 -0.02411813 -0.02381528 -0.02354575 -0.02330427 -0.023058 -0.02280433 -0.02251683
 -0.02220155 -0.02185524 -0.02149084 -0.02112544 -0.02076437 -0.02042351 -0.02008768 -0.01975533 -0.01940121 -0.01901014
 -0.01858259 -0.01811005 -0.01762615 -0.01713518 -0.01666781 -0.01622972 -0.01582466 -0.01545396 -0.01509738 -0.01475379
 -0.01440007 -0.01403646 -0.01365451 -0.01325572 -0.01284256 -0.01241543 -0.01197573 -0.01152544 -0.01106695 -0.01060737
 -0.01015698 -0.009721513 -0.009312168 -0.008924022 -0.00855861 -0.008205695 -0.007859523 -0.007520081 -0.007183811 -0.00686474
 -0.0065653 -0.006294905 -0.006057419 -0.005833344 -0.005622443 -0.005382064 -0.005110587 -0.004781335 -0.004397914 -0.003977252
 -0.003525906 -0.003083957 -0.00265084 -0.002247885 -0.001865902 -0.001496679 -0.00113338 -0.000760063 -0.0003830577 1.569858E-07
 0.0003738886 0.0007267973 0.001055203 0.00134881 0.001632468 0.001908618 0.002211587 0.002551026 0.002932971 0.003362224
 0.00380949 0.004273394 0.004719472 0.005146557 0.00554083 0.005903657 0.006240359 0.006552611 0.006850408 0.007134791
 0.007413295 0.007687517 0.007963973 0.008243983 0.00853316 0.008828608 0.009130852 0.009433002 0.009729583 0.01002008
 0.01030086 0.01058153 0.01086498 0.0111549 0.01145453 0.0117516 0.01204464 0.01232654 0.01259584 0.01286999
 0.01314992 0.01345687 0.01378867 0.01413704 0.0144958 0.01483092 0.01514084 0.01540015 0.01561846 0.01580033
 0.01596144 0.0161265 0.01630259 0.01650927 0.01673551 0.016982 0.01723055 0.01747138 0.0176997 0.0179097
 0.01811246 0.01830893 0.0185103 0.01871887 0.01893423 0.01915685 0.01937694 0.01959411 0.01980073 0.01999835
 0.02019628 0.02039874 0.02063194 0.02089576 0.02120748 0.02155517 0.02192593 0.02230194 0.02265182 0.02296732
 0.02322599 0.0234362 0.02359419 0.0237184 0.02381492 0.02390232 0.02398735 0.0240821 0.02419058 0.02431639
 0.02446085 0.0246218 0.02479927 0.0249887 0.02518982 0.02539754 0.02561156 0.02582705 0.02604369 0.02625751
 0.02646786 0.02667068 0.02686553 0.02704885 0.02722263 0.02738645 0.0275473 0.02771073 0.02788546 0.02808074
 0.02829562 0.02853627 0.02878251 0.0290316 0.02925675 0.0294497 0.02960738 0.02972582 0.02983101 0.02992487
 0.03002413 0.03012884 0.03021758 0.03028848 0.03031203 0.03029353 0.03024085 0.03016555 0.03010771 0.03007293
 0.03009447 0.03016605 0.03029519 0.03046736 0.03067269 0.03089445 0.0311179 0.03133445 0.0315332 0.03172435
 0.03190736 0.03209954 0.03230742 0.03252442 0.03275362 0.03295793 0.03313466 0.03325427 0.03331609 0.03333415
 0.03331209 0.03329213 0.03327402 0.03328025 0.03330417 0.0333346 0.03337124 0.03340402 0.03344558 0.03351125
 0.03360731 0.03375247 0.03392711 0.03412746 0.03432287 0.034495 0.03463627 0.03473572 0.03481568 0.0348775
 0.03494907 0.03503537 0.03514596 0.03528309 0.03542988 0.03558514 0.0357131 0.03581268 0.03585663 0.03585073
 0.03580624 0.03573622 0.03568794 0.03566881 0.0357225 0.03583639 0.03601645 0.03623265 0.0364578 0.0366665
 0.03682835 0.03694563 0.03700591 0.03704017 0.03705359 0.03708081 0.03713132 0.03721963 0.03735001 0.0375193
 0.03772753 0.03797285 0.03825518 0.03857649 0.03893472 0.03931299 0.03970295 0.0400536 0.04035715 0.04055664
 0.04066242 0.04066038 0.04058525 0.04047906 0.04037767 0.04033925 0.04036526 0.04048479 0.04065456 0.04086749
 0.04106344 0.04122085 0.04130216 0.04129066 0.04119559 0.04101186 0.04078888 0.04052959 0.04028536 0.04005855
 0.03986806 0.03971255 0.03958398 0.03948186 0.03939917 0.03933813 0.0393033 0.03929444 0.03931653 0.03935998
 0.03941792 0.03946703 0.03948441 0.03944176 0.03930833 0.03908026 0.03873806 0.03832404 0.03784148 0.0373552
 0.03688041 0.03645806 0.03609817 0.03580433 0.03557872 0.03540277 0.03527532 0.03516098 0.03505715 0.03492137
 0.03475592 0.03454737 0.03430647 0.03406304 0.033821 0.03360959 0.03341212 0.03321718 0.03300625 0.03274856
 0.03245538 0.03211727 0.03177453 0.03144297 0.03115797 0.03093861 0.03078734 0.03071349 0.03068101 0.0306896
 0.03067961 0.03064597 0.03054315 0.03036906 0.03012873 0.02982649 0.02951214 0.02918951 0.02890691 0.02866025
 0.02846259 0.02830553 0.02817652 0.0280704 0.02797416 0.02788481 0.02779594 0.02770149 0.02759583 0.0274727
 0.0273257 0.02715875 0.02696912 0.02677365 0.02657509 0.02638934 0.02622022 0.02606783 0.02593324 0.02580247
 0.02567481 0.02553706 0.02538933 0.02522893 0.02505701 0.0248785 0.02469417 0.02450911 0.02432332 0.02413886
 0.0239565 0.02377788 0.02360488 0.02344082 0.0232846 0.02313795 0.02299439 0.02285161 0.02270286 0.02254465
 0.02237615 0.02219602 0.0220078 0.02181182 0.02161062 0.02140441 0.02119571 0.02098466 0.02077387 0.02056318
 0.02035153 0.0201387 0.01992205 0.01970333 0.01948663 0.01927471 0.01907686 0.01889213 0.01872425 0.01856839
 0.0184202 0.01827745 0.0181351 0.01799916 0.01786965 0.01775848 0.01767052 0.0176107 0.01758456 0.01757394
 0.01758038 0.01756015 0.0175099 0.01738906 0.01719543 0.0169291 0.01659428 0.01624099 0.01587622 0.01556726
 0.0153131 0.01515137 0.01506457 0.01503603 0.01503813 0.01501803 0.01496292 0.01483036 0.01464331 0.01439937
 0.0141418 0.01389513 0.01367799 0.01350832 0.01336479 0.0132458 0.01313021 0.0130108 0.01290531 0.01281327
 0.01277382 0.01278902 0.01286839 0.01300825 0.01316617 0.01333479 0.01344819 0.01350644 0.01346991 0.01335422
 0.01317226 0.01294721 0.01272463 0.01251174 0.01233969 0.01219059 0.01206059 0.01193367 0.01179403 0.01165701
 0.01152264 0.01141458 0.01134359 0.01129587 0.01127378 0.01123833 0.01118432 0.01110918 0.01101253 0.01094078
 0.01089536 0.01090994 0.01097725 0.01107246 0.01118558 0.01126503 0.01131325 0.01130671 0.01126118 0.0111914
 0.01111129 0.01104572 0.01099154 0.01095909 0.01092647 0.01088687 0.01081561 0.01069914 0.01053629 0.01031868
 0.01008134 0.009825745 0.009602029 0.009416123 0.009289345 0.009223266 0.009186456 0.009175453 0.009134341 0.009063778
 0.008936488 0.008762086 0.008560046 0.00833972 0.00813519 0.007945113 0.007783895 0.007643303 0.007519084 0.007405472
 0.007296307 0.007189156 0.007080864 0.006971563 0.006859326 0.006750762 0.006646706 0.00655513 0.006479172 0.006410395
 0.006349531 0.006270756 0.006172606 0.006041119 0.005877831 0.005701626 0.005515635 0.005351095 0.005204253 0.005080184
 0.004968716 0.004845921 0.004709581 0.004540765 0.004353526 0.004155256 0.003962637 0.003793869 0.003650584 0.003540414
 0.003454104 0.003388894 0.003341832 0.003310846 0.003299773 0.003309877 0.00333738 0.003383092 0.003429453 0.003475565
 0.003496712 0.003491839 0.003440275 0.003343622 0.00319899 0.003013159 0.00280771 0.00259194 0.002399705 0.002234983
 0.00212128 0.002053967 0.002037858 0.002064125 0.002127698 0.00222049 0.00233727 0.00247124 0.002619321 0.002775148
 0.002937213 0.003098107 0.003256232 0.003407561 0.003550436 0.003696518 0.003846198 0.004032479 0.004257123 0.0045538
 0.004919886 0.005358244 0.005859629 0.006392018 0.006946407 0.007483555 0.008002206 0.008480621 0.00892654 0.009338595
 0.009730499 0.01011111 0.01049623 0.01089681 0.01132299 0.01178274 0.01227327 0.01279754 0.01333955 0.01389854
 0.01445168 0.01499709 0.01551197 0.01599484 0.01643106 0.01682067 0.01716253 0.0174575 0.01771089 0.01792243
 0.01809254 0.01822335 0.01831604 0.01838355 0.01844534 0.01852045 0.01864195 0.01881328 0.01905426 0.01934242
 0.01967223 0.02001865 0.0203674 0.02071815 0.02106548 0.02142765 0.02180719 0.02221627 0.02265712 0.0231282
 0.02362967 0.02414997 0.02468754 0.02521706 0.02573553 0.02620913 0.02663863 0.02700597 0.0273199 0.0275931
 0.02783351 0.02806601 0.02827957 0.02848054 0.02862768 0.02869891 0.02863056 0.02838327 0.02790599 0.02716091
 0.02616036 0.02488508 0.02343583 0.02181646 0.02017941 0.01853962 0.01702246 0.0156372 0.01442438 0.01338199
 0.01247597 0.01170118 0.01100603 0.01039093 0.009830622 0.009327625 0.008878352 0.008478169 0.008119659 0.007792239
 0.007479134 0.007176151 0.006871737 0.00657321 0.006280538 0.006004479 0.005749258 0.00552202 0.005325317 0.005163778
 0.005038736 0.004951621 0.004902992 0.004889961 0.004912365 0.004969024 0.005059808 0.005184482 0.005340355 0.005511115
 0.005689453 0.005837105 0.005950071 0.005994382 0.005980375 0.005906815 0.005795267 0.005671407 0.005552057 0.005461948
 0.005403629 0.005386541 0.005404396 0.0054561 0.005538886 0.005649851 0.005798089 0.005984053 0.006221394 0.00651398
 0.006846631 0.007220127 0.007548679 0.007824424 0.007900724 0.007772447 0.007322462 0.006571967 0.005530841 0.004249444
 0.002859834 0.001408553 4.556665E-05 -0.001223214 -0.002322598 -0.00328631 -0.004116277 -0.004849993 -0.005513023 -0.006119162
 -0.006681639 -0.007196952 -0.007665767 -0.008087553 -0.008461134 -0.008794629 -0.009088436 -0.009352898 -0.009588687 -0.009803917
 -0.009999052 -0.01018186 -0.01035313 -0.01052259 -0.01069033 -0.01086323 -0.01103829 -0.0112124 -0.01137976 -0.01152744
 -0.01165412 -0.01174971 -0.01182456 -0.01188159 -0.01193831 -0.01200676 -0.01209562 -0.01221477 -0.01235241 -0.01251001
 -0.01266225 -0.01280475 -0.01291971 -0.01300317 -0.01306094 -0.01309272 -0.01312253 -0.01315137 -0.01319777 -0.01326003
 -0.01333463 -0.01341856 -0.01349606 -0.01356883 -0.01363167 -0.01369182 -0.01376094 -0.01384268 -0.01394979 -0.01407338
 -0.01421278 -0.01435093 -0.01447715 -0.01458062 -0.01465189 -0.01469638 -0.01471101 -0.01471607 -0.01471353 -0.01472726
 -0.01476072 -0.0148244 -0.01491968 -0.0150352 -0.01516988 -0.01530091 -0.01542799 -0.01553757 -0.01563174 -0.01571221
 -0.01578057 -0.01584258 -0.01589731 -0.01594559 -0.01598643 -0.01601804 -0.01604243 -0.01606019 -0.01607484 -0.01608887
 -0.01610398 -0.01612173 -0.01614167 -0.01616334 -0.01618936 -0.01621941 -0.01626059 -0.01631382 -0.01638325 -0.01646956
 -0.01656439 -0.01666696 -0.01676039 -0.01684442 -0.01690858 -0.01695502 -0.01698687 -0.01700728 -0.01702699 -0.01704673
 -0.01707386 -0.01710534 -0.01714052 -0.01717552 -0.01720538 -0.01723153 -0.01725149 -0.01727426 -0.01730263 -0.01734506
 -0.01740575 -0.0174834 -0.01757961 -0.01768407 -0.0177961 -0.01790415 -0.01800738 -0.01809757 -0.0181745 -0.0182353
 -0.0182807 -0.01831472 -0.01833871 -0.01836061 -0.01838117 -0.01840685 -0.01843687 -0.01847323 -0.01851379 -0.01855695
 -0.0185998 -0.01863861 -0.01867325 -0.01870123 -0.01872808 -0.01875488 -0.01878879 -0.01883296 -0.01888751 -0.01895405
 -0.01902431 -0.01909774 -0.01916538 -0.01922647 -0.01927793 -0.01931974 -0.0193532 -0.01937836 -0.01939606 -0.0194062
 -0.01940803 -0.01940272 -0.01939199 -0.01937959 -0.01937306 -0.01937639 -0.01939879 -0.01944014 -0.01950508 -0.01958748
 -0.01968637 -0.01979117 -0.01989816 -0.0199957 -0.02007939 -0.02014338 -0.02018448 -0.02020909 -0.02021673 -0.0202224
 -0.02022717 -0.0202414 -0.02026527 -0.02029775 -0.02033832 -0.02038223 -0.02042958 -0.02047847 -0.02052911 -0.02058131
 -0.02063478 -0.02068886 -0.02074341 -0.02079809 -0.0208524 -0.02090629 -0.02095754 -0.02100506 -0.02104608 -0.0210786
 -0.02110312 -0.02111864 -0.02112964 -0.02113655 -0.02114449 -0.02115432 -0.02116756 -0.02118447 -0.02120352 -0.02122468
 -0.02124739 -0.0212719 -0.02130009 -0.02133222 -0.02137048 -0.02141491 -0.02146678 -0.02152582 -0.02159277 -0.02166542
 -0.02174218 -0.02181803 -0.02188745 -0.02194775 -0.02199377 -0.022031 -0.02205963 -0.02208858 -0.02212158 -0.02215962
 -0.02220459 -0.02224865 -0.02229103 -0.02232555 -0.02235148 -0.0223705 -0.02238281 -0.02239373 -0.02240348 -0.02241595
 -0.02243141 -0.02245322 -0.02248152 -0.02251916 -0.02256455 -0.02261689 -0.02267211 -0.02272462 -0.02277042 -0.0228028
 -0.02282243 -0.02282623 -0.02282129 -0.0228089 -0.02279923 -0.02279562 -0.02280477 -0.02282926 -0.02286838 -0.02292299
 -0.02298565 -0.02305607 -0.02312364 -0.02318785 -0.02323928 -0.02327797 -0.02329959 -0.02330558 -0.0232997 -0.02328475
 -0.02327109 -0.0232604 -0.0232619 -0.02327369 -0.02329774 -0.0233295 -0.02336505 -0.02340163 -0.0234358 -0.02346786
 -0.02349712 -0.02352434 -0.02354987 -0.02357296 -0.02359345 -0.0236111 -0.0236256 -0.02363957 -0.02365311 -0.02367027
 -0.0236912 -0.0237174 -0.02374851 -0.02378191 -0.023817 -0.02384921 -0.0238788 -0.02390376 -0.0239257 -0.02394683
 -0.02396873 -0.02399534 -0.02402533 -0.02405995 -0.02409408 -0.02412509 -0.02414784 -0.02415812 -0.02415787 -0.02414527
 -0.02413032 -0.02411457 -0.02410698 -0.02410968 -0.02412084 -0.02414078 -0.02416077 -0.02418047 -0.02419566 -0.02420678
 -0.02421665 -0.02422533 -0.02423492 -0.02424435 -0.02425097 -0.0242549 -0.02425421 -0.02425182 -0.02425108 -0.02425439
 -0.02426643 -0.02428501 -0.02431093 -0.02433894 -0.02436624 -0.02439143 -0.02441271 -0.02443366 -0.02445469 -0.02447901
 -0.02450742 -0.02453901 -0.02457382 -0.02460958 -0.02464615 -0.02468172 -0.02471598 -0.02474518 -0.02476901 -0.02478298
 -0.02478862 -0.0247873 -0.0247827 -0.02478344 -0.02479129 -0.02481413 -0.02484743 -0.02489096 -0.02493605 -0.02497642
 -0.02500708 -0.02502255 -0.025027 -0.02501938 -0.02500975 -0.02500005 -0.02499753 -0.02500389 -0.02501924 -0.02504393
 -0.02507328 -0.02510702 -0.02513911 -0.0251692 -0.02519155 -0.02520635 -0.02521071 -0.02520654 -0.02519774 -0.02518715
 -0.02518333 -0.02518607 -0.02520017 -0.02522041 -0.02524354 -0.02526443 -0.02527726 -0.02528346 -0.02528135 -0.02527674
 -0.02527189 -0.02526759 -0.02526516 -0.02525945 -0.02524958 -0.02523447 -0.02521352 -0.0251949 -0.02517906 -0.02517525
 -0.02518314 -0.02520283 -0.02523281 -0.0252651 -0.02529893 -0.02532741 -0.02535149 -0.02536988 -0.02538373 -0.02539484
 -0.02540209 -0.02540538 -0.0254025 -0.02539085 -0.02537241 -0.02534583 -0.02531962 -0.02529602 -0.02528248 -0.02528232
 -0.02529195 -0.02531223 -0.02533098 -0.02534718 -0.02535314 -0.0253486 -0.02533794 -0.02532193 -0.02531068 -0.02530392
 -0.02530603 -0.02531491 -0.02532601 -0.02533784 -0.02534417 -0.02534642 -0.02534371 -0.02533858 -0.02533408 -0.02532974
 -0.02532665 -0.02532234 -0.02531538 -0.02530603 -0.02529351 -0.02528102 -0.02526917 -0.02525989 -0.02525359 -0.02525081
 -0.02525157 -0.02525726 -0.02526793 -0.02528322 -0.02530282 -0.02532305 -0.02534391 -0.02536285 -0.0253816 -0.02540371
 -0.02543241 -0.02547626 -0.02553786 -0.02562565 -0.02573851 -0.02587967 -0.02604331 -0.02622592 -0.02642397 -0.02663129
 -0.02686035 -0.02711127 -0.02740759 -0.02775715 -0.02816163 -0.02862758 -0.02910803 -0.02960123 -0.03004012 -0.03042134
 -0.03070908 -0.03090454 -0.03101072 -0.03102855 -0.03096463 -0.03081714 -0.0305808 -0.03025942 -0.02985078 -0.02937967
 -0.02887628 -0.02837956 -0.02794462 -0.02758858 -0.02734547 -0.02720444 -0.02717106 -0.02722354 -0.02735907 -0.02754619
 -0.02778158 -0.02801836 -0.02825008 -0.02843728 -0.02857439 -0.02866298 -0.02870302 -0.0287116 -0.02868866 -0.02863769
 -0.02855873 -0.0284536 -0.02832358 -0.02817362 -0.0280058 -0.02782534 -0.02763842 -0.02745597 -0.02728486 -0.02713926
 -0.02701439 -0.02691502 -0.02682254 -0.026729 -0.02661995 -0.0264855 -0.02633252 -0.02615795 -0.02598653 -0.02582101
 -0.02568409 -0.0255789 -0.02550718 -0.02546903 -0.02544351 -0.02542923 -0.0254026 -0.02536465 -0.02530841 -0.02523713
 -0.0251582 -0.02507397 -0.02499356 -0.02491734 -0.02485036 -0.02479079 -0.02473894 -0.0246916 -0.02464584 -0.02460162
 -0.02455695 -0.02451711 -0.02448372 -0.02445993 -0.02444792 -0.02444245 -0.02444345 -0.02444293 -0.02443991 -0.02443297
 -0.02442203 -0.02441152 -0.02440167 -0.02439669 -0.02439651 -0.02440285 -0.0244154 -0.02443439 -0.02445883 -0.02448709
 -0.02451715 -0.02454549 -0.02456958 -0.02458502 -0.02459116 -0.02458519 -0.02457042 -0.024547 -0.02452092 -0.02449449
 -0.02447102 -0.02445213 -0.0244369 -0.02442543 -0.02441635 -0.02440945 -0.02440505 -0.02440315 -0.02440361 -0.02440638
 -0.02441057 -0.02441627 -0.0244239 -0.02443315 -0.02444367 -0.02445378 -0.02445953 -0.02445923 -0.0244476 -0.02442615
 -0.02439324 -0.02435455 -0.02431326 -0.02427579 -0.02424706 -0.02422809 -0.02422173 -0.02422111 -0.02422575 -0.02422637
 -0.02422097 -0.02420733 -0.02418449 -0.02416032 -0.02413523 -0.0241189 -0.02411137 -0.02411556 -0.02413024 -0.02414988
 -0.02417273 -0.0241895 -0.02419982 -0.02419742 -0.02418472 -0.02416202 -0.02413398 -0.0241057 -0.02408128 -0.02406602
 -0.02406039 -0.02406701 -0.02408163 -0.02410411 -0.02412729 -0.02414947 -0.0241653 -0.02417321 -0.02417386 -0.02416687
 -0.02415759 -0.0241463 -0.0241383 -0.02413358 -0.02413359 -0.0241377 -0.02414312 -0.02414905 -0.02415092 -0.02414898
 -0.024141 -0.02412894 -0.02411484 -0.02410089 -0.02409078 -0.02408446 -0.02408367 -0.02408576 -0.02409005 -0.02409335
 -0.02409419 -0.02409116 -0.02408331 -0.02407196 -0.02405696 -0.02404128 -0.02402519 -0.02401108 -0.02399911 -0.02399033
 -0.02398472 -0.02398245 -0.02398312 -0.02398463 -0.02398622 -0.02398367 -0.02397737 -0.02396541 -0.02395049 -0.02393616
 -0.02392479 -0.02392151 -0.02392437 -0.02393422 -0.02394657 -0.02395861 -0.02396962 -0.02397789 -0.02398734 -0.02399896
 -0.0240143 -0.02403454 -0.02405407 -0.02407266 -0.02408303 -0.02408471 -0.02407709 -0.02406056 -0.02404119 -0.02401936
 -0.02400076 -0.02398472 -0.02397209 -0.02396155 -0.02395021 -0.02393743 -0.02392035 -0.02390011 -0.02387634 -0.0238521
 -0.02382957 -0.02381158 -0.0238009 -0.02379667 -0.02379973 -0.02380644 -0.02381603 -0.02382589 -0.02383529 -0.02384416
 -0.02385247 -0.02385971 -0.0238659 -0.02386868 -0.02386797 -0.0238617 -0.02385005 -0.02383287 -0.02381087 -0.02378652
 -0.02376068 -0.02373694 -0.02371517 -0.02369721 -0.0236814 -0.02366655 -0.02365121 -0.02363312 -0.02361372 -0.02359263
 -0.02357343 -0.02355773 -0.0235465 -0.02354105 -0.02353724 -0.02353475 -0.02352885 -0.02351869 -0.02350547 -0.02348917
 -0.02347545 -0.02346433 -0.02345712 -0.02345296 -0.02344626 -0.02343721 -0.02342273 -0.02340564 -0.02339167 -0.02338258
 -0.02338557 -0.02339686 -0.02341578 -0.02343566 -0.02345009 -0.02345694 -0.02345179 -0.02343981 -0.02342133 -0.02340366
 -0.02338895 -0.02338117 -0.02338174 -0.02338954 -0.02340495 -0.02342257 -0.02344213 -0.0234571 -0.02346732 -0.02346958
 -0.02346455 -0.02345488 -0.02344148 -0.02342968 -0.02341909 -0.02341181 -0.02340623 -0.02340022 -0.02339328 -0.02338328
 -0.02337231 -0.02336114 -0.02335242 -0.02334815 -0.02334896 -0.02335591 -0.02336745 -0.02338382 -0.02340131 -0.02341978
 -0.02343315 -0.02344076 -0.02343793 -0.02342424 -0.02340182 -0.02337118 -0.02334111 -0.02331213 -0.0232926 -0.0232815
 -0.02327994 -0.02328518 -0.02329078 -0.02329477 -0.02328959 -0.02327761 -0.02325733 -0.02323559 -0.02321753 -0.0232085
 -0.02321442 -0.02323281 -0.02326559 -0.02330308 -0.02334366 -0.02337717 -0.02340117 -0.02341217 -0.02340893 -0.02339698
 -0.0233765 -0.0233576 -0.02334053 -0.0233302 -0.0233257 -0.02332317 -0.02332153 -0.02331386 -0.02330122 -0.02328202
 -0.02325974 -0.0232397 -0.0232248 -0.02322186 -0.02322897 -0.02324833 -0.02327248 -0.02329822 -0.02331804 -0.02332744
 -0.02332549 -0.02331027 -0.0232868 -0.02325544 -0.02322183 -0.02318675 -0.02315286 -0.02312042 -0.02308991 -0.02306134
 -0.02303495 -0.0230108 -0.02298951 -0.0229709 -0.02295483 -0.02294056 -0.02292592 -0.0229107 -0.02289283 -0.02287417
 -0.022856 -0.02284046 -0.02283056 -0.02282525 -0.02282541 -0.0228273 -0.0228296 -0.0228296 -0.022826 -0.022819
 -0.02280824 -0.02279568 -0.02278145 -0.0227673 -0.02275337 -0.02273968 -0.02272618 -0.02271197 -0.02269721 -0.02268279
 -0.02266896 -0.02265783 -0.02264841 -0.02263912 -0.02262894 -0.02261433 -0.02259745 -0.0225791 -0.02256292 -0.02255379
 -0.02254937 -0.02255135 -0.02255097 -0.02254469 -0.02252768 -0.02249633 -0.02245682 -0.02240901 -0.02236312 -0.02232039
 -0.02228661 -0.02226237 -0.02224604 -0.0222374 -0.0222315 -0.02222829 -0.02222515 -0.02222226 -0.02221938 -0.02221582
 -0.02220985 -0.02220011 -0.0221827 -0.02215833 -0.02212555 -0.02208761 -0.02204682 -0.02200575 -0.02196692 -0.02193037
 -0.02189667 -0.02186543 -0.02183645 -0.02181042 -0.0217875 -0.02176771 -0.02175134 -0.02173544 -0.02171987 -0.02170015
 -0.02167623 -0.02164771 -0.02161527 -0.02158399 -0.02155402 -0.02152932 -0.02150803 -0.02148701 -0.02146482 -0.02143637
 -0.02140377 -0.02136742 -0.02133016 -0.02129575 -0.02126237 -0.02123069 -0.02119626 -0.02115659 -0.0211119 -0.02106085
 -0.021009 -0.02095697 -0.02091035 -0.02086999 -0.02083789 -0.02081432 -0.02079765 -0.02078776 -0.02078183 -0.02077988
 -0.0207808 -0.0207844 -0.0207899 -0.02079576 -0.02079782 -0.02079366 -0.02077613 -0.02074549 -0.02069785 -0.02063816
 -0.02056894 -0.02049613 -0.02042421 -0.02035652 -0.020296 -0.02024212 -0.02019593 -0.02015316 -0.02011338 -0.02007172
 -0.02002727 -0.01997981 -0.01992911 -0.0198809 -0.01983551 -0.01980027 -0.01977482 -0.01976055 -0.01975501 -0.01974859
 -0.01973869 -0.01971137 -0.01966955 -0.01961082 -0.01954248 -0.01947394 -0.01940838 -0.01935295 -0.01930558 -0.01926757
 -0.0192345 -0.01920535 -0.01917448 -0.01914022 -0.01909797 -0.01904589 -0.01898598 -0.01891793 -0.0188476 -0.01877552
 -0.01870156 -0.01862557 -0.0185429 -0.01845391 -0.01835923 -0.01826009 -0.0181625 -0.01806689 -0.01797772 -0.01789434
 -0.0178177 -0.01774683 -0.01768089 -0.01761893 -0.01755934 -0.01750301 -0.0174498 -0.01740143 -0.01735972 -0.01732124
 -0.01728679 -0.01724603 -0.01719679 -0.01713338 -0.01705354 -0.01696786 -0.01687666 -0.01679794 -0.01673215 -0.01668335
 -0.0166492 -0.01661212 -0.01656947 -0.01649765 -0.01640089 -0.01627723 -0.0161362 -0.0159975 -0.01586249 -0.01574359
 -0.01563228 -0.01552423 -0.01541427 -0.01529457 -0.01517421 -0.01505376 -0.01494731 -0.01486086 -0.01479536 -0.01475465
 -0.01472 -0.01469121 -0.01463619 -0.01455226 -0.01442298 -0.01424875 -0.01405378 -0.01384036 -0.01364009 -0.01344997
 -0.01327309 -0.01310457 -0.01293063 -0.0127513 -0.01255913 -0.01235844 -0.0121524 -0.01194371 -0.01173676 -0.01153071
 -0.01132756 -0.01112151 -0.01091266 -0.01068737 -0.01044135 -0.01016589 -0.009856017 -0.009524211 -0.009171003 -0.008811551
 -0.008447506 -0.008075999 -0.007696993 -0.007308728 -0.006912748 -0.006523468 -0.006140423 -0.005771953 -0.005410404 -0.005037249
 -0.004646638 -0.004212775 -0.003747677 -0.003254751 -0.002752796 -0.002265063 -0.001791167 -0.001340031 -0.0008996031 -0.0004657434
 -3.262117E-05 0.0004025735 0.0008412221 0.001281054 0.001741072 0.00221998 0.002767941 0.003389353 0.004108803 0.004924873
 0.005759357 0.00660719 0.007384531 0.008102457 0.008769693 0.009399557 0.01003725 0.01068654 0.01137477 0.01210506
 0.01288688 0.01373961 0.01467792 0.0157397 0.01695823 0.01834459 0.01993319 0.02163757 0.02345137 0.02524043
 0.02697069 0.02858923 0.0300798 0.03146682 0.03274959 0.03397798 0.03515541 0.03635829 0.03759304 0.03896069
 0.04044861 0.0420663 0.04376316 0.04537681 0.04690233 0.04823466 0.04943385 0.05054448 0.05160803 0.05268759
 0.05378601 0.05492367 0.05609522 0.05730144 0.05854323 0.05982775 0.06112181 0.06242316 0.06368315 0.06489093
 0.06605505 0.06717453 0.06828169 0.06937666 0.07042706 0.0714275 0.07231037 0.07307862 0.07371105 0.07421561
 0.07460637 0.07488678 0.07506637 0.07515727 0.07517706 0.07514557 0.07509086 0.07501876 0.07494166 0.07485985
 0.07477645 0.07469002 0.07460362 0.07450177 0.07438476 0.07422207 0.07401053 0.07371908 0.07334356 0.07289192
 0.0723655 0.07182406 0.07126836 0.07073165 0.07020567 0.06966658 0.06910694 0.06848934 0.06781607 0.06706844
 0.06626592 0.0654259 0.06457281 0.06374146 0.06293436 0.06216627 0.06142508 0.06070433 0.06001144 0.05934298
 0.05872797 0.05817395 0.05768947 0.05727921 0.05692239 0.05661789 0.05634633 0.05610694 0.05589603 0.05571392
 0.05556282 0.05544209 0.0553493 0.0552838 0.05524173 0.05522412 0.05523117 0.05526422 0.05532547 0.0554153
 0.05553468 0.05568428 0.0558646 0.05607706 0.05632187 0.05660215 0.05691737 0.05727732 0.05768327 0.05814755
 0.05867376 0.05925475 0.0598916 0.06055077 0.06123053 0.06189808 0.06255306 0.06318151 0.06378219 0.06434206
 0.0648581 0.06531046 0.06570494 0.0660416 0.06633379 0.06660295 0.06685372 0.06710152 0.06733824 0.06756236
 0.06776809 0.06795007 0.06811339 0.06825665 0.06839393 0.06852727 0.06867293 0.06883647 0.06900203 0.06917039
 0.06929642 0.06937799 0.06938996 0.06933272 0.06920132 0.06899709 0.06872375 0.06838251 0.06798222 0.06751601
 0.06698113 0.06635078 0.06558095 0.06465968 0.06353091 0.06227909 0.06094437 0.05960321 0.05832509 0.05706462
 0.0558195 0.05455249 0.05324376 0.05193869 0.05063893 0.04940282 0.04823812 0.04713615 0.04609628 0.0450713
 0.04406127 0.04304985 0.04204305 0.04106637 0.04012116 0.03922876 0.03837883 0.03756007 0.03676055 0.03595627
 0.0351428 0.03430764 0.03344652 0.03255782 0.0316212 0.03062613 0.02955791 0.02838913 0.02720877 0.02602048
 0.02496799 0.02408646 0.02334895 0.02276095 0.02220533 0.02167656 0.02111522 0.02052463 0.01992333 0.01931702
 0.01874883 0.01821394 0.01771774 0.01725549 0.01681374 0.01640428 0.01603704 0.01572923 0.01550664 0.01536853
 0.01532495 0.01536303 0.0154784 0.0156628 0.01591204 0.01622336 0.0165936 0.01703206 0.01753703 0.01814012
 0.01884495 0.01966362 0.02059615 0.02155423 0.02253 0.02339889 0.0241665 0.02479896 0.02530987 0.02572804
 0.02605997 0.02633267 0.02655111 0.02673022 0.02688485 0.02703204 0.02719592 0.02740421 0.02765583 0.02796843
 0.02829206 0.02861161 0.02889723 0.02913374 0.02933914 0.02951352 0.02967846 0.02983675 0.02998945 0.03013668
 0.03026791 0.03038316 0.03047879 0.03055666 0.03062435 0.03068539 0.03075489 0.03083694 0.0309491 0.03109131
 0.03127195 0.03148733 0.03173441 0.0320167 0.03233408 0.03269571 0.03310787 0.03357045 0.03408694 0.03464565
 0.0352438 0.03587633 0.03654076 0.03724664 0.03799501 0.03878887 0.03962829 0.04048041 0.04134189 0.04216101
 0.0429377 0.04364521 0.04428622 0.04485771 0.04535767 0.04578193 0.04612311 0.04636789 0.04651028 0.04653711
 0.04645024 0.04624556 0.0459307 0.04550846 0.04498484 0.04436206 0.0436453 0.04283234 0.0419479 0.04099111
 0.04001611 0.03902758 0.03806933 0.03714391 0.03624938 0.03538413 0.034525 0.03367345 0.03282504 0.03198563
 0.03117497 0.030394 0.0296575 0.02895663 0.0282844 0.027631 0.02698094 0.02633393 0.02568174 0.02503668
 0.02440079 0.02379263 0.02321937 0.02269292 0.02221934 0.0217942 0.02141931 0.02107644 0.02076421 0.02046593
 0.02018061 0.01990942 0.0196536 0.01943077 0.01924124 0.01909706 0.01899461 0.0189282 0.01889266 0.01887382
 0.01886666 0.01885715 0.01884183 0.0188104 0.01876482 0.01870207 0.01862903 0.01854867 0.0184656 0.01838246
 0.01830026 0.01821942 0.01814173 0.01806754 0.0179982 0.01793427 0.01787062 0.01780701 0.01773369 0.01765055
 0.01755317 0.01744311 0.01732668 0.01720687 0.0170977 0.01700108 0.01692966 0.01688094 0.01685749 0.01685334
 0.0168623 0.01688093 0.01690398 0.01693172 0.01696379 0.01699773 0.01703424 0.01706396 0.0170852 0.01708864
 0.01707182 0.01703442 0.01697557 0.01690454 0.0168218 0.01673702 0.01665016 0.01656267 0.01647353 0.01637685
 0.01627246 0.01615598 0.01602938 0.01589482 0.01575525 0.01561622 0.01548051 0.01535348 0.01523652 0.01513309
 0.01504135 0.0149618 0.0148903 0.01482531 0.01476453 0.01470676 0.01465285 0.01460284 0.01455712 0.01451582
 0.01447785 0.01444314 0.01441188 0.01438419 0.01436197 0.01434545 0.01433678 0.01433619 0.01434587 0.01436552
 0.01439594 0.01443588 0.0144837 0.0145382 0.01459694 0.01466058 0.01472859 0.01480281 0.01488424 0.01497364
 0.01507189 0.01517768 0.01529103 0.01540972 0.01553334 0.0156607 0.0157915 0.01592693 0.01606705 0.0162115
 0.01635987 0.01650599 0.01664899 0.01677991 0.01689892 0.01700163 0.01708906 0.01716214 0.01722021 0.01726324
 0.01728857 0.01729253 0.01727463 0.01723205 0.0171691 0.01708686 0.01699087 0.01688414 0.01676723 0.01664143
 0.01650291 0.01635107 0.01618407 0.01600139 0.01580551 0.01559651 0.015378 0.01515017 0.01491612 0.01467614
 0.01443377 0.01418902 0.013944 0.01369819 0.0134509 0.01320287 0.01295466 0.01270832 0.01246722 0.01223074
 0.01200019 0.01177229 0.0115442 0.01131851 0.01109377 0.01088062 0.01068209 0.01050307 0.01034667 0.01020131
 0.01006676 0.009924962 0.009774682 0.009610584 0.009433432 0.00925577 0.009079156 0.008920747 0.008779725 0.008662731
 0.008566523 0.008485924 0.008419152 0.008359666 0.008309932 0.008269206 0.008243505 0.008236572 0.008256161 0.008307113
 0.008396464 0.008528806 0.008704745 0.008926729 0.009186293 0.009483037 0.009805373 0.01015202 0.01051542 0.01089503
 0.01128608 0.01168816 0.01209428 0.01250373 0.01290814 0.01330755 0.01369699 0.0140784 0.01445393 0.01482592
 0.01520046 0.01557625 0.01595505 0.0163324 0.01670425 0.0170702 0.01742761 0.01778181 0.01813518 0.01848794
 0.01884209 0.01918888 0.01952695 0.01985058 0.02015838 0.02045467 0.02073959 0.02101933 0.02129419 0.02156908
 0.02184494 0.02213039 0.02242714 0.02274688 0.02309022 0.02346545 0.02387048 0.02430703 0.02476853 0.02524919
 0.02573888 0.02622628 0.02670748 0.02717428 0.02763635 0.02809465 0.02856175 0.02904268 0.02953784 0.03004944
 0.03056624 0.03108755 0.03160088 0.0321053 0.03259557 0.0330721 0.03354292 0.03400913 0.03448387 0.03496477
 0.03545041 0.03593519 0.03640244 0.0368511 0.03727053 0.03766459 0.03803465 0.03838192 0.03870689 0.03901359
 0.03930099 0.03958522 0.03987178 0.04017541 0.04050369 0.04085175 0.04122115 0.04159671 0.04197629 0.04235562
 0.04273392 0.04312461 0.04352886 0.04396986 0.04444786 0.04497776 0.04555478 0.04616908 0.04681217 0.04745661
 0.04809676 0.04871032 0.04929372 0.04983512 0.05032862 0.05076464 0.05114146 0.05145284 0.05170855 0.05190966
 0.05207022 0.05219344 0.05229294 0.05236997 0.05244506 0.05252021 0.05261542 0.05273258 0.05286933 0.05302446
 0.05317185 0.05330955 0.0534102 0.05347451 0.05348984 0.05346002 0.05338756 0.05327898 0.05314692 0.05299726
 0.05284322 0.05268611 0.0525315 0.05237933 0.05223033 0.05208666 0.0519493 0.05181988 0.05169901 0.05158781
 0.05148625 0.05139766 0.05132284 0.05126001 0.05120942 0.0511575 0.0511035 0.05103309 0.05094641 0.05083875
 0.05070982 0.0505566 0.05037707 0.05016335 0.04991584 0.04963 0.0493114 0.04896383 0.04859659 0.04821767
 0.04783857 0.04746802 0.04711487 0.04678577 0.0464812 0.04620311 0.04594751 0.04571373 0.04550057 0.04530819
 0.04513234 0.04497299 0.0448177 0.04466592 0.04450785 0.04434401 0.04417478 0.04399971 0.04381802 0.04362686
 0.04341787 0.04318919 0.04293278 0.04264974 0.04233751 0.04199979 0.04163754 0.04125877 0.04086716 0.04047403
 0.04008497 0.0397075 0.03934565 0.03899945 0.03867051 0.0383514 0.03804253 0.03772643 0.03740217 0.03704812
 0.03666379 0.03624307 0.03578845 0.03531678 0.03483075 0.03435156 0.03387846 0.03342029 0.03297493 0.03254186
 0.03212093 0.03171163 0.03131445 0.03093063 0.03055737 0.03019473 0.02983516 0.02947555 0.02911003 0.02873469
 0.02835462 0.02796927 0.02758984 0.02721845 0.02685447 0.02649837 0.02613709 0.02577027 0.02539346 0.02500857
 0.02462946 0.02425824 0.02391227 0.02359054 0.02329988 0.02303666 0.02279783 0.02257842 0.02237086 0.02217074
 0.02197069 0.02177048 0.02156668 0.02136439 0.02116442 0.02097346 0.02079383 0.02062915 0.02048133 0.02034664
 0.0202254 0.02010858 0.01999545 0.01988221 0.01976896 0.01966138 0.01955952 0.01946654 0.01938123 0.01929832
 0.01921939 0.01914441 0.01907979 0.01903878 0.01902415 0.01904815 0.01910231 0.01918516 0.01928209 0.01938368
 0.01947869 0.01955924 0.01962233 0.01966431 0.01969088 0.01970193 0.01970671 0.01970666 0.01970504 0.01970234
 0.01969582 0.01968554 0.01967353 0.01966106 0.01966006 0.01967185 0.01970985 0.019772 0.01986107 0.01997009
 0.02008727 0.02020543 0.02030789 0.02039644 0.02046465 0.02052282 0.02057617 0.02063116 0.02069296 0.02076055
 0.02083383 0.02091531 0.02100522 0.0211077 0.02122471 0.02134491 0.02146818 0.02156975 0.02164872 0.02169263
 0.0217036 0.02169413 0.02166811 0.02165 0.02164194 0.02166362 0.02171338 0.02179892 0.02191324 0.02205149
 0.02220304 0.02235606 0.02250316 0.02263496 0.02275181 0.0228511 0.02293676 0.02301013 0.0230711 0.02312024
 0.02315452 0.02317313 0.02317837 0.02317003 0.02315783 0.02314227 0.02313213 0.02312742 0.0231312 0.02314404
 0.02317 0.02321036 0.02327249 0.02335371 0.02345436 0.02356566 0.02367568 0.02377711 0.02385632 0.02391684
 0.02395431 0.02398274 0.02400662 0.02403978 0.02408881 0.02415529 0.02424282 0.02433674 0.02443648 0.02452164
 0.02459025 0.02463516 0.0246565 0.02466909 0.02467449 0.02469448 0.02472747 0.02477852 0.02484228 0.02490389
 0.02496251 0.02500645 0.02504456 0.02508429 0.02513369 0.02520639 0.02529741 0.02540886 0.02553033 0.02565597
 0.02578481 0.0259144 0.02605008 0.02619263 0.02634572 0.02650975 0.02668899 0.02688392 0.02709613 0.02732544
 0.0275614 0.02780287 0.0280341 0.02825589 0.02846372 0.02865957 0.02884733 0.02902791 0.02920454 0.02937859
 0.02955392 0.02972973 0.02990924 0.03008295 0.03024613 0.03038881 0.03050261 0.03059204 0.0306548 0.03070583
 0.03074777 0.03079194 0.03084006 0.03090036 0.03097359 0.03106655 0.03117938 0.0313081 0.03145138 0.03159419
 0.0317359 0.03186465 0.03198231 0.0320882 0.03218487 0.03227804 0.03236745 0.03245621 0.03254041 0.03261598
 0.03268395 0.03274016 0.03279897 0.03286638 0.03295202 0.03306557 0.03318575 0.03331178 0.03341215 0.03347994
 0.03351737 0.03352296 0.03352416 0.03352211 0.03352863 0.03354342 0.03356611 0.03359876 0.03365278 0.03372885
 0.03383715 0.03397235 0.03412768 0.03429926 0.03447807 0.03466339 0.03485325 0.03504149 0.03522377 0.03539401
 0.03554632 0.03568498 0.03580944 0.03592727 0.03604011 0.03615229 0.03626427 0.03638219 0.03650684 0.03663853
 0.03677712 0.03691046 0.03703861 0.0371565 0.03726707 0.03738404 0.0375082 0.03765114 0.03780782 0.03797367
 0.03814238 0.03830381 0.0384504 0.03857221 0.03865978 0.03870131 0.03869885 0.03864564 0.03856452 0.03845899
 0.03835841 0.03826959 0.03821316 0.03819403 0.03821541 0.03827955 0.03835801 0.03844915 0.03850742 0.03853367
 0.03851861 0.03847001 0.03842569 0.03838848 0.03839001 0.03842253 0.03848451 0.03856828 0.03866223 0.03875991
 0.03885138 0.03892982 0.03898423 0.03902197 0.03903964 0.03906155 0.03909794 0.03915251 0.03923252 0.03930794
 0.03937429 0.03941975 0.03944257 0.03944286 0.03942051 0.03936775 0.03928635 0.03919098 0.03908781 0.03902101
 0.03898865 0.03901188 0.03907586 0.03915806 0.03924687 0.03931345 0.03935621 0.03936144 0.03933505 0.03927346
 0.03919511 0.03910647 0.03902783 0.03897006 0.03893266 0.03891855 0.03891749 0.03892782 0.03894797 0.03897846
 0.03900575 0.03902894 0.03901561 0.038966 0.03887086 0.03873578 0.03858795 0.03842956 0.03828276 0.03814492
 0.03801788 0.03790655 0.03782054 0.03776053 0.03773842 0.03772933 0.03771726 0.03768843 0.03762195 0.03755103
 0.03748063 0.03744693 0.03746231 0.03753013 0.03765405 0.03782066 0.03802991 0.03825762 0.03850243 0.0387364
 0.03896027 0.03917438 0.03938194 0.03960359 0.03983624 0.04008067 0.04033136 0.04057507 0.0408113 0.04103365
 0.04124271 0.04143304 0.04161734 0.04179561 0.04200458 0.04226522 0.04259369 0.04301172 0.04347039 0.04396496
 0.04443861 0.0448758 0.04529405 0.04569104 0.04612799 0.04660788 0.047146 0.04773764 0.04833176 0.04892036
 0.0494308 0.04986296 0.0501723 0.05037619 0.05048893 0.05053452 0.05056246 0.05057236 0.05058805 0.05058612
 0.05055227 0.05048217 0.05036514 0.0502196 0.05005078 0.04986787 0.04967399 0.04947359 0.04926708 0.04906359
 0.04886506 0.04866061 0.04844971 0.04821409 0.04795605 0.04769928 0.04744855 0.04724858 0.04709174 0.04697803
 0.04689141 0.04679326 0.04667686 0.04651379 0.04630505 0.04603864 0.04572516 0.04536078 0.04498231 0.04460435
 0.04426676 0.04399374 0.04377737 0.04362657 0.04349147 0.04336607 0.04321027 0.04301855 0.04278356 0.04250465
 0.0421922 0.04184646 0.04147344 0.0410721 0.04063601 0.04017008 0.03968218 0.03919097 0.03874583 0.03835591
 0.03806963 0.03785506 0.03769927 0.03756059 0.03739394 0.03720324 0.03697307 0.0367358 0.03650255 0.03628458
 0.0360879 0.0359093 0.0357481 0.03561007 0.03549647 0.03539878 0.03531658</values></Ydata></AB><ScSm><Ydata ylabel="Single channel"><values byteorder="INTEL" format="FLOAT32" numvalues="1814"> 0.06954131 0.0695342 0.06959291 0.06973903 0.06994381 0.07014534 0.07029085 0.07036933 0.0703963 0.07037647
 0.07031448 0.07026151 0.07030372 0.07047805 0.0707191 0.070904 0.07095143 0.07089382 0.07085773 0.07093878
 0.07107118 0.07105018 0.07072601 0.07017733 0.06965843 0.06936305 0.06930366 0.06946793 0.06994702 0.07069387
 0.0712495 0.07107306 0.07022336 0.06939289 0.06913639 0.06933853 0.06953835 0.06946267 0.06910854 0.06863967
 0.06843784 0.06900175 0.07045719 0.07215046 0.07288143 0.07166095 0.06841867 0.06422985 0.06091661 0.06006907
 0.06192748 0.06506346 0.06745137 0.0680811 0.06744252 0.06650886 0.06568798 0.06494476 0.06447484 0.06473754
 0.06582455 0.06703719 0.06724603 0.06585056 0.06348766 0.06158402 0.06105937 0.06174776 0.06314696 0.06496849
 0.06636763 0.06550866 0.06136557 0.05599913 0.05363865 0.05666233 0.0630615 0.06841271 0.06981888 0.06752419
 0.06361566 0.06029093 0.05904576 0.06027522 0.0631862 0.06645387 0.06903026 0.07020707 0.06944349 0.06683128
 0.06354972 0.0612939 0.06123652 0.06357254 0.06747796 0.07117844 0.07275492 0.07156464 0.06866897 0.06570622
 0.06380925 0.06361742 0.06544264 0.06894095 0.07308574 0.07676913 0.07926102 0.08027557 0.08002107 0.07906713
 0.07791218 0.07690799 0.07656957 0.07725639 0.07834372 0.07845995 0.07698207 0.07486333 0.07364614 0.07386457
 0.07462046 0.07467943 0.07371952 0.07212628 0.06977183 0.06600127 0.06113085 0.05683905 0.05448944 0.05409803
 0.05533766 0.058066 0.0611385 0.06233223 0.06077615 0.05851004 0.05845447 0.06129167 0.06511036 0.0677433
 0.06877436 0.06939214 0.07085083 0.07318404 0.0750498 0.07474945 0.07191649 0.06846128 0.0672242 0.06918879
 0.07253135 0.07485686 0.0757226 0.07637631 0.07758152 0.07843861 0.07731817 0.0737905 0.06967932 0.06794401
 0.07010287 0.07471438 0.07842398 0.07845125 0.07446116 0.06864399 0.06400724 0.0622951 0.06350806 0.06703496
 0.07232917 0.07832348 0.08315843 0.08522063 0.08432169 0.08160104 0.07822736 0.07431649 0.06955704 0.06501738
 0.06336297 0.0663335 0.07251871 0.07853501 0.08204494 0.08292391 0.08194488 0.07933415 0.07498618 0.06985664
 0.06642228 0.06675784 0.0700362 0.07299545 0.07335354 0.07188727 0.07075603 0.07080887 0.07127152 0.07139991
 0.07154436 0.07254992 0.07454619 0.07663079 0.07774173 0.07762118 0.07685691 0.07619489 0.07586266 0.07540609
 0.07432837 0.07308119 0.07301699 0.07491225 0.07790379 0.08037791 0.0815916 0.08194421 0.08190027 0.08116788
 0.07912384 0.07599127 0.07331291 0.0728043 0.07469503 0.0775906 0.07992419 0.08108005 0.08123767 0.08080626
 0.08015116 0.07947397 0.07886821 0.07857629 0.07893284 0.07988495 0.08087897 0.08141661 0.0814689 0.08122836
 0.08074445 0.07998412 0.07908981 0.07840195 0.07821567 0.07855593 0.07920457 0.07989909 0.08043171 0.08062167
 0.08038075 0.07984085 0.07926893 0.07882307 0.07850868 0.07835415 0.07845463 0.07880317 0.07921579 0.07948953
 0.07956326 0.07949094 0.07932831 0.07909407 0.07880855 0.07853381 0.07837103 0.07839398 0.07856138 0.078737
 0.07884132 0.07892968 0.07906006 0.07915169 0.07907213 0.07882506 0.07855983 0.07840992 0.07838953 0.07843331
 0.07846479 0.07840452 0.07816981 0.07774903 0.07728939 0.07703595 0.07713141 0.07751183 0.07800933 0.07848075
 0.07882382 0.0789797 0.07897897 0.07891545 0.07883488 0.07869828 0.07847326 0.07822244 0.07808587 0.07817604
 0.07847586 0.07884318 0.07912866 0.07927382 0.07930396 0.07928724 0.07930902 0.07940909 0.07951979 0.07952935
 0.07942428 0.07931606 0.07931305 0.0794043 0.07948215 0.07946304 0.07937814 0.07933762 0.0794072 0.07954481
 0.07966815 0.079752 0.07983609 0.07995282 0.0800648 0.08008373 0.07996549 0.07977654 0.07963279 0.07958029
 0.07958065 0.07960504 0.07967858 0.07981397 0.07995333 0.08001664 0.07999282 0.079951 0.07995378 0.07997955
 0.07995096 0.07983094 0.07966428 0.07952572 0.07945315 0.07943492 0.07943718 0.07942857 0.07939026 0.07931808
 0.07921951 0.0791055 0.07898359 0.07886573 0.07878503 0.07878614 0.07887442 0.07897807 0.07898824 0.07885459
 0.07863555 0.07844344 0.07833857 0.07828373 0.07820123 0.07805925 0.07789068 0.07774331 0.07763624 0.07756113
 0.07750154 0.07744677 0.07740664 0.07741848 0.07751659 0.07767841 0.07781659 0.07784954 0.0777781 0.0776775
 0.07762119 0.07762936 0.07767911 0.07774055 0.07780613 0.07789766 0.07803239 0.07817806 0.0782717 0.07829484
 0.07829946 0.07834964 0.07846981 0.07865075 0.07885915 0.07903306 0.07911815 0.07912941 0.07914352 0.07921585
 0.0793339 0.07945921 0.07958043 0.07970822 0.07984491 0.07998683 0.08014686 0.08035216 0.08061472 0.08091138
 0.08119372 0.08141881 0.08158217 0.08173089 0.08193621 0.0822372 0.08260536 0.08296819 0.08327085 0.0835163
 0.08374654 0.08399089 0.08424518 0.0845044 0.08479255 0.0851366 0.08552249 0.0859044 0.08625491 0.08658488
 0.08691612 0.08725475 0.08759594 0.08794367 0.08831738 0.08873218 0.08916713 0.08956495 0.08987947 0.09012188
 0.09035156 0.09062899 0.0909784 0.09137133 0.09173323 0.09199566 0.09216963 0.09234756 0.09260458 0.09291665
 0.09320787 0.09346165 0.09374087 0.09409568 0.09449168 0.09484863 0.09512773 0.09536032 0.09559894 0.09585626
 0.09609419 0.09627011 0.09638867 0.09649926 0.09664354 0.09682677 0.09704962 0.09733587 0.0976975 0.09809168
 0.09844682 0.09872423 0.09893161 0.09909166 0.0992242 0.09934573 0.09946333 0.09957799 0.09970091 0.09984329
 0.0999845 0.1000865 0.1001538 0.1002453 0.1004099 0.100643 0.1009198 0.1012338 0.1015766 0.1019117
 0.102211 0.1025058 0.1028569 0.1032634 0.1036367 0.1038895 0.1040245 0.1041081 0.1041889 0.1042858
 0.1044322 0.104672 0.1050053 0.1053791 0.1057418 0.1060831 0.1064161 0.1067414 0.1070358 0.1072669
 0.1074165 0.107499 0.1075587 0.1076507 0.1078173 0.1080641 0.1083511 0.1086148 0.1088095 0.1089197
 0.1089367 0.1088544 0.1087034 0.1085602 0.1084836 0.1084437 0.1083389 0.1080841 0.1076648 0.1071073
 0.1064285 0.1056339 0.1047569 0.1038752 0.1030832 0.1024504 0.1020145 0.1018065 0.1018632 0.102195
 0.102742 0.1033794 0.1039704 0.1044049 0.1045943 0.1044689 0.1040133 0.1032933 0.1024253 0.1015185
 0.1006429 0.09982613 0.09905989 0.09833363 0.09769398 0.0972688 0.09721664 0.09765246 0.09861483 0.1000658
 0.1018846 0.1038711 0.1058001 0.1075093 0.108949 0.1101552 0.1111914 0.1121184 0.1129892 0.113832
 0.1146311 0.1153509 0.1159825 0.1165511 0.1170781 0.1175545 0.1179546 0.1182597 0.118474 0.1186261
 0.1187467 0.1188382 0.1188802 0.11887 0.1188346 0.1187914 0.1187152 0.118554 0.1182635 0.117828
 0.1172782 0.1167211 0.1163567 0.1164394 0.117169 0.1185683 0.1204511 0.1225217 0.1245134 0.1262533
 0.1276531 0.1286998 0.1294553 0.1300244 0.1305023 0.1309486 0.1313909 0.1318316 0.1322576 0.1326589
 0.1330398 0.1334132 0.1337926 0.134185 0.1345822 0.1349607 0.1353051 0.1356304 0.1359733 0.1363564
 0.1367656 0.137167 0.1375471 0.1379249 0.1383142 0.1386886 0.1390078 0.1392718 0.1395245 0.1398087
 0.1401396 0.1405118 0.1409015 0.141267 0.141575 0.1418313 0.1420712 0.1423234 0.1425941 0.1428787
 0.1431711 0.1434626 0.1437471 0.1440319 0.1443357 0.1446641 0.1449903 0.1452716 0.1454914 0.1456789
 0.145882 0.1461231 0.1463838 0.1466325 0.1468629 0.1471038 0.1473897 0.1477216 0.1480595 0.1483561
 0.1485949 0.1487974 0.1489971 0.1492136 0.1494492 0.1496977 0.14995 0.150196 0.1504309 0.1506611
 0.1508979 0.1511467 0.1514046 0.1516657 0.1519245 0.152177 0.1524232 0.1526672 0.1529161 0.1531808
 0.1534717 0.1537841 0.1540907 0.1543587 0.1545784 0.1547688 0.1549545 0.1551472 0.1553483 0.1555608
 0.1557879 0.1560253 0.1562633 0.1564997 0.1567415 0.156992 0.1572433 0.1574868 0.1577238 0.157961
 0.1582013 0.1584475 0.1587039 0.1589684 0.1592275 0.1594667 0.1596858 0.1599 0.1601258 0.1603683
 0.1606175 0.1608571 0.1610794 0.1612926 0.1615112 0.1617414 0.1619772 0.1622093 0.1624352 0.1626591
 0.162885 0.1631121 0.163339 0.1635675 0.1638 0.1640365 0.1642737 0.1645065 0.1647323 0.164955
 0.1651832 0.1654201 0.165661 0.1659002 0.1661351 0.1663632 0.1665809 0.1667899 0.1669981 0.1672142
 0.1674395 0.1676692 0.1678976 0.1681238 0.16835 0.1685759 0.1687994 0.169021 0.1692457 0.1694788
 0.1697226 0.1699744 0.170226 0.1704699 0.1707042 0.1709295 0.171145 0.1713562 0.1715772 0.1718172
 0.1720699 0.1723214 0.1725633 0.172793 0.1730107 0.1732177 0.1734177 0.1736167 0.1738206 0.1740295
 0.1742379 0.1744436 0.1746503 0.1748613 0.1750773 0.1752988 0.175523 0.1757442 0.1759612 0.1761796
 0.1764028 0.1766301 0.1768615 0.1770966 0.1773316 0.177566 0.1778022 0.1780385 0.1782704 0.1785005
 0.1787328 0.1789642 0.17919 0.1794119 0.1796339 0.1798586 0.1800875 0.1803189 0.1805473 0.1807724
 0.1809972 0.1812194 0.1814352 0.1816497 0.1818694 0.1820941 0.1823234 0.1825592 0.1827975 0.1830307
 0.1832578 0.1834807 0.1836998 0.1839201 0.1841477 0.1843771 0.1846 0.18482 0.185045 0.1852758
 0.1855103 0.1857446 0.1859692 0.1861821 0.1863957 0.1866181 0.1868432 0.1870658 0.1872828 0.1874756
 0.1876004 0.1875492 0.1870455 0.1855373 0.1821826 0.1760078 0.1662834 0.1529735 0.1369062 0.1194839
 0.1021697 0.08610594 0.07198742 0.06013052 0.05061761 0.04340037 0.03835829 0.03538698 0.03449593 0.03591853
 0.04023255 0.04801559 0.05854914 0.06867768 0.07403699 0.07249217 0.0661741 0.05953926 0.05567314 0.05480068
 0.0556064 0.05695947 0.05849902 0.06043324 0.06311871 0.0666507 0.07084659 0.07568651 0.0815285 0.08864348
 0.09665966 0.1047232 0.112239 0.1193308 0.1265422 0.1341725 0.1419602 0.1493414 0.1558966 0.1615546
 0.166497 0.1709628 0.1751201 0.1790512 0.182795 0.1863426 0.189566 0.192197 0.1939557 0.1947621
 0.1948355 0.1945769 0.1943338 0.1942618 0.1943703 0.1946346 0.1950435 0.1955881 0.1962515 0.1970087
 0.1978257 0.198667 0.1995062 0.2003248 0.2011079 0.2018444 0.2025249 0.2031387 0.2036854 0.2041825
 0.2046506 0.2050965 0.2055186 0.2059173 0.206295 0.2066551 0.2070017 0.2073342 0.2076438 0.2079203
 0.208162 0.2083778 0.2085848 0.2088016 0.2090357 0.2092788 0.2095165 0.2097409 0.2099525 0.2101589
 0.21037 0.2105898 0.2108122 0.2110296 0.2112395 0.2114407 0.2116317 0.2118173 0.2120082 0.2122099
 0.2124176 0.2126228 0.2128207 0.213012 0.2132029 0.2134005 0.2136042 0.2138065 0.2140013 0.2141908
 0.2143861 0.2146006 0.2148368 0.2150813 0.2153197 0.2155519 0.2157833 0.2160131 0.216239 0.216462
 0.2166752 0.2168619 0.2170157 0.2171553 0.2173139 0.2175128 0.2177454 0.2179833 0.2182059 0.2184179
 0.2186342 0.2188547 0.2190638 0.2192464 0.2194041 0.2195655 0.2197689 0.2200214 0.2202907 0.2205465
 0.2207893 0.2210295 0.2212688 0.2215091 0.2217481 0.2219623 0.2221245 0.2222488 0.2224017 0.2226538
 0.2230133 0.2234066 0.2237425 0.223996 0.224212 0.2244449 0.22472 0.2250156 0.2252401 0.2252925
 0.2252124 0.2252133 0.2254881 0.2260172 0.2266149 0.2271204 0.2274971 0.2277928 0.2280586 0.2282973
 0.2284614 0.2285074 0.2284746 0.2285112 0.2287722 0.229262 0.2298171 0.2302755 0.2306053 0.230851
 0.2310495 0.2312272 0.2313567 0.231295 0.2309321 0.2304682 0.2303693 0.2309161 0.2318873 0.2327948
 0.2333679 0.233699 0.2339745 0.2342444 0.234469 0.2345593 0.2342683 0.2333309 0.2319707 0.2310453
 0.2313368 0.2327624 0.2345172 0.2358823 0.2366781 0.2370813 0.2373158 0.2375078 0.2375956 0.2373253
 0.2365363 0.2355561 0.235125 0.2357087 0.2369697 0.2381297 0.2387661 0.2390324 0.2392377 0.2395019
 0.2396768 0.2393031 0.2378712 0.2355777 0.233703 0.2337072 0.235801 0.2386918 0.2408659 0.2418886
 0.2422731 0.2423625 0.2418241 0.2402449 0.2377468 0.2349268 0.2326846 0.2321133 0.233771 0.2367644
 0.239257 0.2402876 0.24058 0.2413341 0.2427873 0.2442293 0.2449315 0.2447068 0.2437739 0.2423615
 0.2406091 0.2389423 0.2382849 0.2394047 0.2419845 0.2447371 0.2465915 0.2475064 0.2479119 0.2474522
 0.2447268 0.238974 0.2321807 0.2285332 0.2307191 0.2371154 0.2435345 0.2473429 0.248903 0.2496089
 0.2500203 0.2497083 0.2474995 0.2421103 0.2341642 0.2274723 0.2264575 0.2317749 0.2395697 0.2450799
 0.2458864 0.2421712 0.2358574 0.2300348 0.2276999 0.2299394 0.2354537 0.2418433 0.247054 0.2499391
 0.2502381 0.2484607 0.2458503 0.2440883 0.2440809 0.2446175 0.2432801 0.2394924 0.2354757 0.2329888
 0.2306092 0.2263742 0.222091 0.2221516 0.2278216 0.2351269 0.2393193 0.2396898 0.2387189 0.2375548
 0.2340461 0.2258365 0.2148233 0.2072508 0.2082515 0.2165193 0.2254738 0.2297054 0.2292812 0.227815
 0.2276425 0.2274401 0.2241008 0.216792 0.2089962 0.2055784 0.2076076 0.2113928 0.2128427 0.2107371
 0.2052963 0.196844 0.1881225 0.1851298 0.1920506 0.2061121 0.2197659 0.2269107 0.2251119 0.2142109
 0.1971455 0.1817232 0.1768306 0.1844808 0.1973751 0.2056284 0.2046127 0.1957579 0.1823168 0.1671453
 0.1540339 0.1480832 0.1526201 0.1658364 0.1809275 0.1895077 0.1862192 0.1728675 0.1587439 0.153936
 0.1601742 0.1696763 0.1738875 0.1712376 0.1658835 0.162304 0.1627082 0.1667424 0.1718862 0.1757858
 0.1781308 0.1780547 0.1716094 0.1565533 0.1387517 0.1283313 0.1291461 0.1367851 0.1467263 0.1583747
 0.1697749 0.1748279 0.1701877 0.1616503 0.1592424 0.1665811 0.1777628 0.184569 0.1846051 0.1817471
 0.1801372 0.1797307 0.1784194 0.1769115 0.178876 0.185887 0.1946644 0.2007284 0.2030537 0.203662
 0.2041993 0.2046903 0.2046915 0.204039 0.2027865 0.2013187 0.2002291 0.199646 0.1991112 0.1982646
 0.1968244 0.1935683 0.1866202 0.1761379 0.165995 0.1607404 0.1608053 0.1628095 0.1645466 0.1662733
 0.1660978 0.1586671 0.142247 0.1245255 0.1170148 0.1239341 0.1390879 0.1529378 0.1599072 0.1588312
 0.1500834 0.1357823 0.1221558 0.1176244 0.1259294 0.1425413 0.1595165 0.1723338 0.1803948 0.1832537
 0.1798579 0.1713367 0.1621101 0.1573846 0.1600013 0.1691617 0.1806598 0.187932 0.1852543 0.1734456
 0.1624878 0.1641784 0.1796952 0.1975893 0.2066504 0.2072926 0.2070146 0.208739 0.209351 0.2079123
 0.2089653 0.2162783 0.2272591 0.2354859 0.2363429 0.2288455 0.2150217 0.2003514 0.1923629 0.1946267
 0.2027183 0.2090381 0.2101713 0.2064718 0.1975851 0.1843166 0.1733908 0.1734149 0.1849106 0.1991487
 0.2080777 0.2116659 0.2142865 0.2171822 0.2169666 0.2107722 0.2010374 0.1940055 0.1935362 0.1977086
 0.2020438 0.2042194 0.2041127 0.2011351 0.1945962 0.1866901 0.1825073 0.1856095 0.194347 0.2034165
 0.2086176 0.2094795 0.2079811 0.2060323 0.2042112 0.2019309 0.1987009 0.1957618 0.1958491 0.2002398
 0.2066675 0.2116244 0.2143659 0.2171573 0.2217019 0.2267725 0.2296838 0.2292109 0.2267553 0.2251282
 0.2262883 0.2297706 0.2330242 0.2335921 0.2314527 0.2292634 0.229921 0.2338116 0.2387666 0.2425341
 0.2446202 0.2458153 0.2468586 0.247795 0.247943 0.246407 0.2433375 0.2406706 0.2407563 0.244029
 0.2485952 0.2521891 0.2539963 0.2545371 0.2544402 0.2537816 0.2524376 0.2506794 0.249197 0.2485655
 0.2488323 0.2496459 0.2506233 0.2515247 0.2522433 0.2527818 0.2532066 0.2535607 0.2538474 0.2540837
 0.2542899 0.2544244 0.2544227 0.2543362 0.2543445 0.2545659 0.254909 0.2551697 0.2552174 0.2550088
 0.2544801 0.2535596 0.2522939 0.2508401 0.2492875 0.2475948 0.2458105 0.2443202 0.2437343 0.2444295
 0.2462002 0.2483896 0.2503453 0.2517435 0.252579 0.2529947 0.253163 0.2532337 0.253291 0.2533385
 0.2533407 0.2532797 0.2531697 0.2530345 0.2528918 0.2527632 0.2526785 0.2526556 0.2526777 0.2526956
 0.2526524 0.2525151 0.2522933 0.252026 0.2517395 0.2514143 0.250998 0.2504524 0.2497857 0.2490487
 0.2483066 0.2476083 0.2469609 0.2463219 0.2456287 0.2448409 0.2439363 0.2428762 0.2416274 0.2402449
 0.2388793 0.2376585 0.2365829 0.2355597 0.2345002 0.2333599 0.2321247 0.2308025 0.2294199 0.2280058
 0.2265743 0.2251237 0.2236415 0.2221106 0.2205159 0.2188503 0.2171174 0.2153334 0.2135195 0.2116827
 0.2097926 0.2077701 0.2055029 0.2028823 0.1998252 0.1962704 0.1921889 0.1876265 0.1827287 0.1777051
 0.1727632 0.168064 0.1637158 0.1597977 0.1563861 0.1535546 0.1513549 0.1498144 0.1489476 0.148752
 0.1491955 0.1502233 0.1517688 0.1537425 0.1560144 0.1584187 0.1607763 0.1629358 0.1648271 0.1664894
 0.1680285 0.1695274 0.1709912 0.1723722 0.1736328 0.1747675 0.1757677 0.1766002 0.1772471 0.1777448
 0.1781622 0.1785518 0.1789353 0.1793169 0.1796924 0.1800524 0.1803892 0.1806989 0.1809814 0.1812433
 0.1814972 0.1817566 0.1820399 0.1823739 0.1827848 0.1832871 0.1838818 0.18456 0.1853071 0.1861101
 0.1869568 0.1878322 0.1887307 0.1896749 0.1907064 0.1918546 0.193121 0.1944801 0.1958804 0.1972515
 0.1985267 0.1996579 0.2006155 0.2013838 0.2019625 0.2023681 0.2026289 0.2027714 0.2028091 0.2027547
 0.2026418 0.2025133 0.2023842 0.2022339 0.2020368 0.2017855 0.2014912 0.2011783 0.2008756 0.2005965
 0.2003333 0.2000742 0.1998194 0.1995787 0.1993601 0.1991577 0.198952 0.1987244 0.1984686 0.1981809
 0.1978498 0.197465 0.197021 0.1965039 0.1958874 0.1951499 0.1942905 0.193327 0.1922819 0.1911659
 0.189972 0.1886859 0.1872983 0.1858041 0.1842043 0.18251 0.1807312 0.178868 0.1769341 0.1749846
 0.173096 0.1713209 0.1696756 0.1681497 0.1667145 0.1653363 0.1640012 0.1627171 0.1614921 0.1603234
 0.1592057 0.1581398 0.1571294 0.1561751 0.1552741 0.1544326 0.1536761 0.1530336 0.1525059 0.1520604
 0.1516562 0.151271 0.1509188 0.1506515 0.1505196 0.1505111 0.150546 0.1505408 0.1504632 0.1503308
 0.1501817 0.1500523 0.1499617 0.1499057 0.1498599 0.1497788 0.1495987 0.1492508 0.1486703 0.1477995
 0.1466088 0.1451251 0.1434308 0.1416417 0.1398883 0.1382869 0.1369045 0.1357625 0.1348687 0.1342112
 0.133728 0.1333333 0.1329891 0.1327349 0.1326408 0.1327208 0.1328788 0.1329632 0.1329105 0.1328191
 0.1328564 0.1331166 0.1335777 0.1341482 0.1347248 0.1352308 0.1356283 0.1359052 0.1360701 0.1361505
 0.1361658 0.1361027 0.135942 0.1356901 0.1353688 0.1349979 0.1345944 0.1341568 0.1336603 0.1330902
 0.1324553 0.1317511 0.1309555 0.1300647 0.1290792 0.1279829 0.1268154 0.125752 0.1250408 0.1248521
 0.1251866 0.1258864 0.1267439 0.127634 0.1284949 0.1291732 0.1294595 0.1294164 0.1295514 0.1304547
 0.1322368 0.1344077 0.1363101 0.1375799 0.1381903 0.1382253 0.1377606 0.1368703 0.1355812 0.1338515
 0.1316863 0.1291981 0.1265112 0.123736 0.1210517 0.1186572 0.116646 0.115016 0.1137393 0.112846
 0.1124689 0.112283 0.1105694 0.1051121 0.09659813 0.09015962 0.09107606 0.0988542 0.1075625 0.1121154
 0.112333 0.1108702 0.1095549 0.1086617 0.1081198 0.1080877 0.1086922 0.1097956 0.1110283 0.1120143
 0.1126094 0.1128625 0.1127426 0.1119275 0.1097526 0.1054298 0.09868222 0.09031461 0.08193369 0.07499268
 0.07013732 0.06724478 0.06575045 0.06497476 0.06445521 0.0641491 0.06432335 0.06524026 0.06694421 0.06930538
 0.07215574 0.07526799 0.07826553 0.0807691 0.08268048 0.08416475 0.08533445 0.08611329 0.08641323 0.08627382
 0.08579797 0.08507618 0.08420268 0.0832741 0.08231959 0.081277 0.08011878 0.07900754 0.07822396 0.07788979
 0.07785649 0.07790789 0.07795461 0.07799593 0.07803074 0.0780633 0.0781116 0.07819794 0.07837635 0.07871395
 0.07919084 0.07967743 0.08004789 0.08027577 0.08041257 0.08048235 0.08038601 0.07998325 0.07934691 0.07879063
 0.07846908 0.07810032 0.0773302 0.07627257 0.07544318 0.0752013 0.07544316 0.07580623 0.07600238 0.07595642
 0.07579224 0.07576707 0.07609716 0.07670419</values></Ydata></ScSm><ScRf><Ydata ylabel="Single channel"><values byteorder="INTEL" format="FLOAT32" numvalues="1820"> 0.06040067 0.06053508 0.06061473 0.06064501 0.06065091 0.06067294 0.06074996 0.06089491 0.06108441 0.06126945
 0.06140404 0.06147292 0.06148712 0.0614566 0.06139338 0.06134395 0.06137935 0.06152721 0.06172915 0.0618801
 0.06191327 0.06186058 0.06183352 0.06191377 0.06204084 0.06203201 0.06175115 0.06126239 0.0607894 0.06051251
 0.06045689 0.06061617 0.06106006 0.06173312 0.06222782 0.06207385 0.06132771 0.06059954 0.06037794 0.06056093
 0.06073832 0.0606646 0.06033841 0.0599102 0.05972026 0.06020755 0.06148317 0.06297399 0.06362371 0.06255664
 0.05970469 0.05601463 0.05310017 0.05237232 0.05404083 0.05682985 0.05893775 0.05947676 0.0588982 0.05807692
 0.05737216 0.05673798 0.0563304 0.05654938 0.05748497 0.05853323 0.05870093 0.0574556 0.05536299 0.05368982
 0.05324418 0.05386367 0.05509512 0.05669197 0.05792376 0.05717609 0.05353807 0.04882164 0.04675743 0.04944567
 0.05511312 0.05985107 0.06109667 0.05906559 0.05560924 0.05267791 0.05159025 0.05268068 0.05523853 0.05810031
 0.0603548 0.06138237 0.06070236 0.05839534 0.05550699 0.05353376 0.05350181 0.05557265 0.05901642 0.06227396
 0.06365996 0.06260815 0.06004991 0.05742953 0.05575468 0.05559796 0.05723164 0.06034067 0.06401236 0.06727216
 0.06947864 0.07037415 0.07013783 0.06928214 0.06826608 0.06740573 0.06713778 0.06775616 0.06870434 0.0687856
 0.06746667 0.06559643 0.06453467 0.06474443 0.06542055 0.06546497 0.06459794 0.06317452 0.06109244 0.05777124
 0.05348215 0.04970431 0.04764437 0.0473187 0.04843893 0.05087939 0.05362602 0.0547069 0.05334343 0.05133485
 0.05126669 0.05375081 0.05710607 0.05942098 0.06032772 0.06087593 0.06217495 0.06425469 0.06592302 0.06566737
 0.06315926 0.06009873 0.05901448 0.06078112 0.06377472 0.06586502 0.06665973 0.06726841 0.06836779 0.06915615
 0.06818774 0.06508791 0.06148098 0.05998701 0.06193759 0.0660435 0.06933115 0.06934351 0.0657963 0.06064782
 0.05657272 0.05510703 0.05623739 0.05942665 0.06420724 0.06963801 0.07405551 0.0760055 0.07530074 0.07294439
 0.06997989 0.06651916 0.06229055 0.05825744 0.05682092 0.05955365 0.06519265 0.07069264 0.07394545 0.07483526
 0.07405262 0.07178609 0.06792171 0.06332546 0.06027173 0.06067529 0.06378485 0.06660409 0.06703024 0.06577413
 0.06482585 0.06497145 0.06549507 0.06570837 0.06594473 0.06700057 0.06899728 0.07108214 0.07224877 0.07224607
 0.07162628 0.07110351 0.07090503 0.07060233 0.06971899 0.06868047 0.0687664 0.07070358 0.07366157 0.07610605
 0.07734084 0.0777624 0.07782646 0.07725297 0.07542915 0.07255181 0.07010064 0.06973881 0.07170054 0.07464042
 0.07703373 0.07827747 0.07855077 0.07825987 0.0777619 0.07725002 0.07681344 0.07668537 0.07718495 0.07825474
 0.07935546 0.08000512 0.08017442 0.08004211 0.07964961 0.07897606 0.07818806 0.07763738 0.07760534 0.07809342
 0.07887435 0.07969525 0.08036035 0.08068591 0.08056763 0.08013 0.07965656 0.07933077 0.07916461 0.07916972
 0.07942124 0.07990413 0.08043587 0.08081721 0.08099131 0.08101786 0.08095722 0.08082663 0.08064017 0.08045936
 0.08039434 0.08052449 0.08080089 0.08107938 0.08128874 0.0814985 0.08176166 0.08197103 0.0819729 0.08177819
 0.0815648 0.08148722 0.08155558 0.08168696 0.08179552 0.08180466 0.08163562 0.08127597 0.08087313 0.08067948
 0.08085255 0.0813441 0.08198841 0.08262102 0.08310457 0.08335629 0.08340909 0.08337681 0.08332431 0.0832213
 0.08303719 0.08283696 0.08276578 0.08293968 0.08333769 0.08380626 0.08418345 0.08440438 0.08449726 0.08454268
 0.08464216 0.08484009 0.08504964 0.08513027 0.08506297 0.0849834 0.08501851 0.08514266 0.08522218 0.08517607
 0.08506948 0.0850458 0.08517814 0.08540668 0.08562304 0.08578798 0.0859494 0.08615496 0.08636089 0.08644664
 0.08634415 0.08613504 0.08597355 0.08592424 0.08593779 0.08597867 0.08608942 0.08629675 0.0865237 0.0866545
 0.08666541 0.08664539 0.08668311 0.08676308 0.0867897 0.08669765 0.08651805 0.08634405 0.08625486 0.08626993
 0.08634923 0.08642355 0.08643715 0.0863786 0.08627839 0.08617678 0.08609553 0.08604716 0.08606657 0.08620252
 0.0864462 0.08667973 0.08674265 0.08657765 0.08629705 0.08608307 0.08602144 0.08603997 0.08600111 0.08583476
 0.08557977 0.08532263 0.08512041 0.08497787 0.08487222 0.08478738 0.08473714 0.08476341 0.08489107 0.08506432
 0.08515069 0.08504859 0.08478937 0.08450636 0.08431353 0.08423787 0.08424164 0.08426714 0.08427766 0.08428996
 0.08434515 0.08442661 0.08445147 0.08437341 0.08425099 0.08418699 0.08424084 0.08440939 0.08463299 0.08480319
 0.08482966 0.08473226 0.08462817 0.08461001 0.08467229 0.08476281 0.08485734 0.08495912 0.08506221 0.08515526
 0.08525349 0.08539791 0.08561346 0.08587654 0.08612655 0.08630885 0.08641687 0.08650419 0.0866501 0.0868977
 0.08721871 0.08753947 0.08780212 0.08800428 0.08818379 0.08836982 0.0885601 0.08875138 0.08897076 0.08924817
 0.089568 0.08988093 0.09016229 0.09043106 0.0907121 0.09100671 0.09130591 0.09161828 0.09197485 0.09239679
 0.09284903 0.09323847 0.09348589 0.09360376 0.09369375 0.09387123 0.09418734 0.09459019 0.09494829 0.0951525
 0.09522662 0.09531038 0.09550643 0.09577745 0.09602824 0.09625386 0.09654825 0.09696946 0.09744714 0.09784484
 0.09809262 0.0982412 0.09839196 0.09858648 0.09877483 0.0988948 0.09896103 0.09904503 0.09918106 0.09934459
 0.09953371 0.09980799 0.1002043 0.100656 0.1010457 0.1013163 0.1014949 0.101632 0.1017533 0.1018549
 0.1019169 0.1019351 0.1019493 0.1020137 0.1021256 0.1022207 0.1022581 0.1022774 0.1023481 0.1024969
 0.1027106 0.1029759 0.1032749 0.1035656 0.1038187 0.1040714 0.1043926 0.1047748 0.1051067 0.1052889
 0.1053407 0.105355 0.1053825 0.1054189 0.1054828 0.105633 0.105895 0.106224 0.1065612 0.1068925
 0.1072338 0.1075822 0.1078991 0.1081292 0.1082366 0.1082354 0.1081937 0.1082026 0.1083281 0.1085786
 0.1089038 0.1092284 0.1094972 0.1096866 0.1097802 0.1097678 0.1096912 0.1096569 0.1097531 0.1099498
 0.1101105 0.1101079 0.1099049 0.109531 0.1090217 0.1084049 0.1077288 0.1070725 0.1065186 0.1061189
 0.105893 0.1058614 0.1060625 0.1065123 0.10715 0.1078513 0.1085012 0.1090255 0.1093502 0.1093821
 0.1090742 0.1084884 0.1077609 0.1070171 0.1063298 0.1057167 0.1051462 0.1045783 0.10405 0.1037132
 0.1037597 0.1043057 0.105339 0.1067317 0.108277 0.1097491 0.1109922 0.11198 0.112788 0.1135026
 0.1141652 0.1147934 0.1154186 0.1160642 0.1167025 0.1172749 0.117759 0.1181859 0.1185903 0.1189732
 0.119315 0.1195992 0.1198279 0.1200289 0.1202309 0.1204166 0.1205239 0.1205168 0.1204295 0.1203204
 0.1202025 0.120037 0.1197753 0.1193979 0.1189437 0.1185329 0.118351 0.1185711 0.1192538 0.1203092
 0.1215643 0.1228724 0.1241465 0.1253072 0.1262546 0.1269275 0.127362 0.127662 0.127922 0.1281927
 0.1284904 0.1288084 0.1291249 0.1294198 0.1296909 0.1299571 0.1302483 0.1305812 0.1309348 0.1312588
 0.1315211 0.1317466 0.1319996 0.1323234 0.1326997 0.1330706 0.1334037 0.1337219 0.1340555 0.1343818
 0.1346453 0.1348317 0.1349929 0.1351972 0.1354791 0.1358307 0.136206 0.1365367 0.1367773 0.1369454
 0.1371003 0.1372845 0.1375017 0.1377411 0.1379961 0.13826 0.1385241 0.1387897 0.1390711 0.1393734
 0.1396675 0.1399042 0.1400629 0.1401812 0.1403243 0.140525 0.1407607 0.1409875 0.1411903 0.1413997
 0.1416568 0.1419625 0.1422665 0.1425105 0.1426787 0.1428032 0.1429304 0.1430891 0.1432846 0.143506
 0.1437343 0.1439518 0.144152 0.144345 0.1445482 0.1447688 0.144997 0.1452169 0.1454218 0.145617
 0.1458136 0.1460195 0.1462406 0.1464862 0.1467665 0.147073 0.1473666 0.1476017 0.1477639 0.1478794
 0.1479887 0.148121 0.1482875 0.1484842 0.1486966 0.1489077 0.1491089 0.1493036 0.1495011 0.1497047
 0.1499081 0.1501039 0.1502946 0.1504905 0.1506994 0.1509241 0.1511633 0.1514083 0.1516437 0.1518573
 0.1520495 0.152232 0.1524179 0.1526103 0.1527997 0.1529757 0.1531427 0.1533164 0.1535044 0.1536998
 0.1538937 0.1540862 0.154283 0.1544866 0.154694 0.1548992 0.1550962 0.1552836 0.155467 0.1556576
 0.1558642 0.1560849 0.1563069 0.1565184 0.156716 0.1569027 0.1570833 0.1572662 0.1574612 0.157671
 0.1578859 0.1580919 0.1582839 0.1584687 0.1586568 0.158851 0.1590472 0.1592438 0.1594438 0.1596474
 0.1598489 0.1600438 0.1602351 0.1604312 0.1606405 0.1608624 0.1610851 0.1612955 0.1614924 0.1616856
 0.1618845 0.1620935 0.1623123 0.1625368 0.1627623 0.1629864 0.1632066 0.1634174 0.1636164 0.1638088
 0.1639992 0.1641863 0.1643681 0.1645461 0.1647237 0.1649026 0.1650819 0.1652603 0.1654391 0.1656217
 0.1658085 0.1659995 0.1661988 0.1664075 0.1666145 0.166808 0.1669936 0.1671884 0.1674015 0.1676284
 0.1678572 0.1680747 0.1682756 0.1684683 0.1686653 0.1688719 0.1690864 0.1693032 0.1695125 0.1697112
 0.1699105 0.1701211 0.1703388 0.1705547 0.1707693 0.1709869 0.1712055 0.171419 0.1716212 0.1718122
 0.1720032 0.1722063 0.1724192 0.1726322 0.1728461 0.1730674 0.1732943 0.1735181 0.1737317 0.1739335
 0.1741325 0.1743429 0.1745662 0.1747894 0.1750052 0.1752174 0.1754263 0.1756303 0.1758353 0.1760478
 0.1762662 0.176486 0.1766994 0.1768859 0.1770027 0.1769461 0.1764562 0.1750174 0.1718384 0.1659943
 0.156785 0.1441702 0.1289404 0.1124375 0.0960526 0.08085577 0.06749007 0.0562582 0.04725688 0.04045117
 0.0357194 0.03294776 0.03213643 0.03350566 0.03760458 0.04497914 0.05494351 0.06450589 0.06954105 0.06804536
 0.06205087 0.05577444 0.05212171 0.05129505 0.05205375 0.05333797 0.0548098 0.05666284 0.05922928 0.06259262
 0.06657311 0.07115152 0.07667717 0.08342032 0.09103376 0.09869789 0.1058296 0.1125373 0.1193479 0.1265651
 0.1339514 0.1409677 0.1472062 0.1525913 0.1572942 0.1615455 0.1655053 0.1692436 0.1727908 0.1761442
 0.179194 0.1816893 0.1833595 0.1841224 0.1841827 0.1839197 0.1836658 0.1835766 0.1836702 0.1839279
 0.1843342 0.1848698 0.1855118 0.1862369 0.1870148 0.1878117 0.188603 0.1893722 0.190105 0.1907927
 0.1914344 0.1920292 0.1925767 0.1930808 0.1935452 0.1939712 0.1943677 0.1947505 0.1951267 0.1954878
 0.1958225 0.1961261 0.1964001 0.1966512 0.1968877 0.1971143 0.1973334 0.1975483 0.1977616 0.1979719
 0.1981788 0.1983849 0.1985907 0.1987951 0.198999 0.1992041 0.1994096 0.199616 0.1998239 0.2000267
 0.2002148 0.20039 0.2005671 0.2007582 0.2009622 0.2011696 0.2013708 0.2015624 0.2017483 0.2019352
 0.2021267 0.2023229 0.2025197 0.2027104 0.2028955 0.2030886 0.2033016 0.2035251 0.2037394 0.2039414
 0.2041448 0.2043608 0.2045883 0.2048182 0.205035 0.205222 0.2053787 0.2055281 0.2057001 0.2059073
 0.2061352 0.2063567 0.2065587 0.2067509 0.2069482 0.2071515 0.2073501 0.207533 0.2077016 0.2078777
 0.2080909 0.2083455 0.2086145 0.208874 0.2091229 0.2093638 0.2095954 0.2098262 0.2100622 0.2102795
 0.2104435 0.2105661 0.2107191 0.2109731 0.2113238 0.2116892 0.211989 0.2122186 0.2124304 0.212668
 0.212941 0.2132195 0.2134182 0.2134503 0.2133649 0.2133693 0.2136414 0.2141529 0.2147251 0.2152104
 0.2155774 0.2158673 0.2161216 0.2163398 0.2164797 0.2165067 0.2164697 0.2165172 0.2167925 0.2172838
 0.2178223 0.2182538 0.2185621 0.2188038 0.2190125 0.2191948 0.2193074 0.219216 0.2188348 0.2183741
 0.2182835 0.21882 0.2197565 0.220622 0.2211674 0.2214923 0.2217742 0.2220469 0.2222577 0.222322
 0.222023 0.2211287 0.219856 0.2190093 0.2193193 0.2207025 0.2223946 0.2237134 0.2244872 0.2248845
 0.225122 0.2253225 0.2254227 0.2251741 0.2244247 0.2234932 0.2230886 0.2236532 0.2248637 0.2259783
 0.226596 0.2268634 0.2270721 0.227333 0.227509 0.2271704 0.2258285 0.2236581 0.2218771 0.2218907
 0.2239113 0.2267032 0.2288101 0.2298063 0.2301815 0.2302704 0.2297619 0.228265 0.2259001 0.223242
 0.2211462 0.2206433 0.2222566 0.2251355 0.2275343 0.2285371 0.2288321 0.2295661 0.2309728 0.2323771
 0.2330762 0.2328855 0.2320202 0.2307075 0.229077 0.2275244 0.2269314 0.2280394 0.2305489 0.2332239
 0.2350321 0.2359288 0.2363266 0.2358911 0.2332899 0.2278004 0.2213268 0.2178744 0.2200111 0.2261818
 0.2323775 0.2360727 0.2376099 0.2383266 0.2387669 0.2385217 0.2364585 0.231337 0.2237523 0.2173672
 0.2164332 0.2215787 0.2290989 0.2344221 0.2352313 0.2317078 0.2257033 0.2201834 0.218014 0.2202288
 0.2255868 0.2317995 0.2368967 0.2397652 0.240143 0.2385148 0.2360757 0.2344443 0.2344906 0.2350488
 0.2338015 0.2302147 0.2264332 0.2241296 0.2219054 0.2178667 0.2137856 0.2139299 0.2195218 0.2266982
 0.2308579 0.2313271 0.2305128 0.2295067 0.2261985 0.2183042 0.2076907 0.2004477 0.2015669 0.209763
 0.218624 0.2228964 0.2226605 0.2214307 0.221467 0.2214732 0.2184195 0.2114973 0.2041217 0.2010628
 0.2033653 0.2074086 0.2091827 0.2074758 0.2024639 0.1944423 0.1861457 0.1835533 0.1908369 0.205248
 0.2192793 0.2268449 0.2254832 0.2149889 0.1982942 0.1832923 0.1789935 0.1874329 0.2011836 0.2101939
 0.2097569 0.2013167 0.1881775 0.1732821 0.1606028 0.1555158 0.1615677 0.1768934 0.1942646 0.204645
 0.2021606 0.1887043 0.1744192 0.1703956 0.1785263 0.1901702 0.1958304 0.1937802 0.1886833 0.1856128
 0.1871402 0.1928823 0.1998979 0.2054549 0.2092064 0.2100461 0.2031506 0.1857693 0.1648764 0.1525789
 0.1535418 0.1625782 0.1743327 0.1881022 0.2015606 0.2074417 0.2017352 0.1912944 0.1880138 0.1961983
 0.2088762 0.2163382 0.2157508 0.2116747 0.2090112 0.2077812 0.2055729 0.2031925 0.2048536 0.2123725
 0.2219997 0.2286046 0.2310055 0.2315074 0.2319882 0.2324715 0.2324467 0.2317296 0.2303857 0.2288539
 0.2278108 0.2274064 0.2271272 0.2265816 0.2254675 0.2223619 0.215023 0.2035357 0.1923303 0.1866771
 0.1870948 0.1896869 0.1919313 0.1941544 0.1941363 0.1855961 0.1664944 0.1458405 0.1371429 0.1453557
 0.1631856 0.1793939 0.1874091 0.1858796 0.1752944 0.158173 0.1417617 0.1357838 0.1445095 0.1626506
 0.1810114 0.1944258 0.2023608 0.2045095 0.1997877 0.1894677 0.1784659 0.1725331 0.1747306 0.1840736
 0.1958801 0.2029994 0.1993016 0.1857545 0.1731189 0.1740272 0.189744 0.2080822 0.2171042 0.2172126
 0.216342 0.2176197 0.2178001 0.2158987 0.2166699 0.2240714 0.2354375 0.2441108 0.2452887 0.2379136
 0.2240593 0.2094334 0.2019031 0.2051512 0.2144217 0.2216373 0.2231941 0.2194981 0.2102047 0.1962234
 0.1847772 0.1850622 0.1976012 0.2130351 0.22276 0.2267607 0.2297169 0.2329412 0.2327941 0.2262117
 0.2158394 0.2084111 0.2080918 0.2128277 0.2178189 0.2205847 0.2209868 0.2183486 0.2118803 0.2039512
 0.200121 0.2042962 0.214656 0.2253282 0.2316247 0.2329659 0.2314921 0.2292936 0.2270138 0.2240233
 0.2198061 0.2157624 0.2149463 0.21881 0.2249075 0.2294136 0.2315067 0.2336478 0.2377028 0.2423698
 0.2447613 0.243555 0.240252 0.2378659 0.238498 0.2416699 0.2446871 0.2449421 0.2423915 0.2398271
 0.2403085 0.2442534 0.2493798 0.2533019 0.2554662 0.2566705 0.2576829 0.2585671 0.2586264 0.2569328
 0.2536495 0.2507976 0.2508143 0.2541301 0.2587616 0.2623648 0.2641278 0.2646234 0.2645082 0.2638398
 0.2624717 0.2606815 0.2591794 0.2585419 0.2587966 0.2595754 0.2604977 0.2613343 0.2619768 0.2624161
 0.2627128 0.2629193 0.2630563 0.2631584 0.2632569 0.2633064 0.26323 0.263074 0.2630249 0.2632057
 0.2635199 0.263757 0.2637862 0.2635681 0.2630413 0.2621323 0.2608838 0.259451 0.257926 0.2562705
 0.2545371 0.2531225 0.2526546 0.253523 0.2555184 0.2579594 0.260155 0.2617488 0.2627246 0.263231
 0.2634446 0.26351 0.2635094 0.2634568 0.2633308 0.2631169 0.2628226 0.2624683 0.2620776 0.2616807
 0.2613158 0.2610089 0.2607472 0.2604789 0.2601487 0.2597318 0.2592394 0.2587036 0.258156 0.2576005
 0.2569961 0.256281 0.2554272 0.2544761 0.2535207 0.252646 0.2518711 0.2511394 0.2503728 0.2495329
 0.248616 0.247607 0.2464928 0.2453327 0.244263 0.2433893 0.2426957 0.2420761 0.2414245 0.2406778
 0.2398122 0.2388418 0.2378071 0.2367385 0.2356383 0.2345004 0.2333222 0.2320875 0.2307646 0.2293344
 0.2278075 0.2262127 0.224583 0.2229432 0.2212838 0.2195351 0.217575 0.2152643 0.2124776 0.2091292
 0.2052002 0.2007602 0.1959641 0.1910165 0.1861201 0.1814426 0.1771161 0.1732458 0.1699122 0.1671731
 0.1650747 0.1636548 0.162937 0.16293 0.1636279 0.1649986 0.1669697 0.1694261 0.1722206 0.1751907
 0.1781733 0.1810217 0.1836394 0.1860204 0.1882375 0.1903531 0.1923465 0.1941503 0.1957346 0.1971176
 0.198315 0.1993245 0.2001587 0.200855 0.2014482 0.2019519 0.2023697 0.2027147 0.2030106 0.2032766
 0.2035181 0.2037345 0.2039307 0.2041184 0.2043143 0.2045391 0.2048099 0.2051347 0.205519 0.2059692
 0.2064789 0.2070231 0.2075795 0.2081477 0.2087428 0.2093815 0.2100829 0.2108782 0.2118079 0.2129021
 0.2141541 0.2155144 0.2169088 0.2182583 0.2194849 0.2205178 0.2213077 0.2218342 0.2221065 0.2221652
 0.2220712 0.2218743 0.2215925 0.2212266 0.2207813 0.2202655 0.2196867 0.2190545 0.2183806 0.217674
 0.2169458 0.2162217 0.2155333 0.2148886 0.2142623 0.2136279 0.2129928 0.2123863 0.2118165 0.2112568
 0.2106804 0.2100926 0.2095172 0.2089606 0.2084012 0.207808 0.2071566 0.2064266 0.205599 0.204665
 0.2036318 0.2025124 0.201316 0.2000476 0.1987079 0.1972865 0.1957661 0.1941459 0.1924528 0.1907166
 0.1889331 0.1870676 0.1851066 0.1830984 0.1811308 0.1792735 0.1775494 0.1759451 0.1744348 0.1730008
 0.1716466 0.17038 0.1691859 0.1680324 0.166908 0.1658303 0.1648174 0.1638712 0.1629926 0.1621928
 0.1614835 0.1608642 0.1603208 0.1598375 0.1594059 0.15903 0.1587323 0.1585537 0.1585208 0.1586005
 0.1587043 0.1587483 0.1586992 0.1585718 0.1584096 0.1582632 0.1581642 0.1581133 0.158091 0.1580583
 0.1579434 0.15765 0.157086 0.1561894 0.1549498 0.1534182 0.151686 0.1498577 0.1480464 0.1463675
 0.1449098 0.1437209 0.1428127 0.1421539 0.1416674 0.1412774 0.1409635 0.1407663 0.1407456 0.1409127
 0.1411712 0.1413652 0.1414321 0.1414775 0.1416675 0.1420856 0.1427038 0.1434298 0.1441583 0.1448127
 0.1453524 0.1457496 0.1459951 0.1461206 0.1461651 0.1461302 0.1460063 0.145808 0.1455532 0.1452453
 0.1448885 0.1444814 0.1440047 0.1434456 0.142807 0.1420837 0.1412719 0.1403821 0.1393921 0.1382477
 0.1369921 0.1358434 0.1350837 0.1348989 0.1353031 0.1361361 0.1371642 0.1382394 0.1392888 0.1401345
 0.1405373 0.1405674 0.1407847 0.1418377 0.1438551 0.1463056 0.1484608 0.149919 0.1506664 0.1508066
 0.1504115 0.1495414 0.1482025 0.1463273 0.1439205 0.1411367 0.1381518 0.1351129 0.1322174 0.1296505
 0.1274689 0.1256652 0.1242499 0.1232867 0.1229159 0.1227653 0.1209376 0.1149928 0.1056876 0.09866136
 0.09969839 0.1082429 0.1177894 0.1227628 0.1229591 0.1213051 0.1198451 0.1188949 0.1183474 0.1183403
 0.1189969 0.1201683 0.1214716 0.1225219 0.1231661 0.1234491 0.1233334 0.1224518 0.1200471 0.115254
 0.1078036 0.09860112 0.0894047 0.08180475 0.07650316 0.073342 0.07169067 0.07082631 0.07026818 0.06997421
 0.07022876 0.07130589 0.0732413 0.07589537 0.07909761 0.08260037 0.08598112 0.08881624 0.09099364 0.09270561
 0.0941126 0.09515192 0.09568998 0.0957209 0.09536517 0.09476537 0.09403463 0.09323861 0.09235311 0.09127887
 0.0900063 0.08876489 0.08788746 0.08749303 0.08740643 0.08739725 0.08737406 0.08734067 0.08730196 0.08725573
 0.08721156 0.08721188 0.08734627 0.08768523 0.08817339 0.08864088 0.08893853 0.08904503 0.08905287 0.08902821
 0.08886209 0.0883644 0.0875852 0.08686419 0.08637825 0.08582076 0.08480167 0.08346052 0.08240291 0.08204929
 0.08225974 0.08259083 0.08271912 0.08258525 0.08233617 0.08225123 0.08256795 0.08319618 0.08368553 0.08364572
</values></Ydata></ScRf><Data_Parameters_AB><parameter name="DPF">1</parameter><parameter name="NPT">3497</parameter><parameter name="FXV">3996</parameter><parameter name="LXV">500</parameter><parameter name="CSF">1</parameter><parameter name="MXY">0.0751770585775375</parameter><parameter name="MNY">-0.0596530064940453</parameter><parameter name="DAT">30/05/2022</parameter><parameter name="TIM">11:28:27.099 (GMT+2)</parameter><parameter name="DXU">WN</parameter></Data_Parameters_AB><AB__Qtest><MainReport name="Quality Test Report"><Header><Line><Legend>Test result ok/not ok [1/0]: </Legend><Value>0</Value></Line><Line><Legend>Method file: </Legend><Value>C:\Users\Public\Documents\Bruker\OPUS_8.2.28\QT\IRBT_v3_default.QT</Value></Line></Header><Matrix><Line><Legend></Legend><Legend>min</Legend><Legend>max</Legend><Legend>measured</Legend></Line><Line><Value>Absorption (X-Range 1):</Value><Value>0.400000</Value><Value>2.000000</Value><Value>0.098706</Value></Line><Line><Value>Noise (X-Range 4):</Value><Value></Value><Value>0.000300</Value><Value>0.000052</Value></Line><Line><Value>Signal/Noise (X-Range 2):</Value><Value>200.000000</Value><Value></Value><Value>48.235374</Value></Line><Line><Value>Signal/Noise (X-Range 3):</Value><Value>40.000000</Value><Value></Value><Value>20.976839</Value></Line><Line><Value>Water vapour (X-Range 5):</Value><Value></Value><Value>0.000300</Value><Value>0.000039</Value></Line><Line><Value>Signal/Water (X-Range 2):</Value><Value>100.000000</Value><Value></Value><Value>64.207843</Value></Line><Line><Value>Signal/Water (X-Range 3):</Value><Value>20.000000</Value><Value></Value><Value>27.923026</Value></Line><Line><Value>Fringes (X-Range 6):</Value><Value></Value><Value>0.000100</Value><Value>0.000064</Value></Line></Matrix></MainReport></AB__Qtest><Data_Parameters_ScSm><parameter name="DPF">1</parameter><parameter name="NPT">1814</parameter><parameter name="FXV">3996.33169228125</parameter><parameter name="LXV">499.541461535156</parameter><parameter name="CSF">1</parameter><parameter name="MXY">0.255217373371124</parameter><parameter name="MNY">0.0344959273934364</parameter><parameter name="DAT">30/05/2022</parameter><parameter name="TIM">11:28:27.099 (GMT+2)</parameter><parameter name="DXU">WN</parameter></Data_Parameters_ScSm><Data_Parameters_ScRf><parameter name="DPF">1</parameter><parameter name="NPT">1820</parameter><parameter name="FXV">4004.04661832813</parameter><parameter name="LXV">495.683998511719</parameter><parameter name="CSF">1</parameter><parameter name="MXY">0.264623433351517</parameter><parameter name="MNY">0.0321364253759384</parameter><parameter name="DAT">30/05/2022</parameter><parameter name="TIM">11:28:01.247 (GMT+2)</parameter><parameter name="DXU">WN</parameter></Data_Parameters_ScRf><Optic_Parameters_Rf><parameter name="APR">0</parameter><parameter name="APT">Open</parameter><parameter name="BMS">KBr</parameter><parameter name="DTC">RT-DLaTGS_IR-Biotyper [Microplate reader]</parameter><parameter name="HPF">0</parameter><parameter name="LPF">10.0</parameter><parameter name="LPV">4000</parameter><parameter name="PGR">0</parameter><parameter name="RCH">Module port</parameter><parameter name="RDX">0</parameter><parameter name="SRC">MIR</parameter><parameter name="VEL">10.0</parameter><parameter name="SON">Off</parameter></Optic_Parameters_Rf><Acquisition_Parameters_Rf><parameter name="ADT">1</parameter><parameter name="AQM">DD</parameter><parameter name="CFE">0</parameter><parameter name="COR">0</parameter><parameter name="DEL">0</parameter><parameter name="DLY">0</parameter><parameter name="HFW">8000</parameter><parameter name="LFW">0</parameter><parameter name="NSR">32</parameter><parameter name="PLF">AB</parameter><parameter name="RES">6</parameter><parameter name="RGN">-1</parameter><parameter name="STR">0</parameter><parameter name="TCL">MakeCompatibleScalar (0, {WSV=1.000000, ARV=0});</parameter><parameter name="TDL">37</parameter><parameter name="RPO">0</parameter></Acquisition_Parameters_Rf><FT_-_Parameters_Rf><parameter name="APF">B3</parameter><parameter name="HFQ">500</parameter><parameter name="LFQ">4000</parameter><parameter name="NLI">0</parameter><parameter name="PHR">24</parameter><parameter name="PHZ">ML</parameter><parameter name="SPZ">NO</parameter><parameter name="ZFF">1</parameter></FT_-_Parameters_Rf><Optic_Parameters_><parameter name="APR">0</parameter><parameter name="APT">Open</parameter><parameter name="BMS">KBr</parameter><parameter name="CHN">Module port</parameter><parameter name="DTC">RT-DLaTGS_IR-Biotyper [Microplate reader]</parameter><parameter name="HPF">0</parameter><parameter name="LPF">10.0</parameter><parameter name="LPV">4000</parameter><parameter name="PGN">0</parameter><parameter name="RDX">0</parameter><parameter name="SRC">MIR</parameter><parameter name="VEL">10.0</parameter><parameter name="SON">Off</parameter></Optic_Parameters_><FT_-_Parameters_><parameter name="APF">B3</parameter><parameter name="HFQ">500</parameter><parameter name="LFQ">4000</parameter><parameter name="NLI">0</parameter><parameter name="PHR">24</parameter><parameter name="PHZ">ML</parameter><parameter name="SPZ">NO</parameter><parameter name="ZFF">1</parameter></FT_-_Parameters_><Acquisition_Parameters_><parameter name="ADT">1</parameter><parameter name="AQM">DD</parameter><parameter name="CFE">0</parameter><parameter name="COR">0</parameter><parameter name="DEL">0</parameter><parameter name="DLY">0</parameter><parameter name="HFW">8000</parameter><parameter name="LFW">0</parameter><parameter name="NSS">32</parameter><parameter name="PLF">AB</parameter><parameter name="RES">6</parameter><parameter name="SOT">0</parameter><parameter name="TCL">MakeCompatibleScalar (0, {WSV=1.000000, ARV=0});</parameter><parameter name="TDL">37</parameter><parameter name="SPO">0</parameter><parameter name="SGN">-1</parameter></Acquisition_Parameters_><Instrument_Parameters_Rf><parameter name="HFL">15800.168544</parameter><parameter name="LFL">0</parameter><parameter name="LWN">15800.168544</parameter><parameter name="ABP">32197</parameter><parameter name="SSP">1</parameter><parameter name="ARG">2</parameter><parameter name="ASG">2</parameter><parameter name="ASS">32</parameter><parameter name="GFW">16</parameter><parameter name="GBW">16</parameter><parameter name="BFW">0</parameter><parameter name="BBW">0</parameter><parameter name="PKA">7313</parameter><parameter name="PKL">4996</parameter><parameter name="PRA">7474</parameter><parameter name="PRL">5001</parameter><parameter name="P2A">1</parameter><parameter name="P2L">1</parameter><parameter name="P2R">1</parameter><parameter name="P2K">1</parameter><parameter name="DAQ">0</parameter><parameter name="AG2">1</parameter><parameter name="SSM">1</parameter><parameter name="RSN">25208</parameter><parameter name="CRR">0</parameter><parameter name="SRT">1653910081.248</parameter><parameter name="DUR">19.6369934082031</parameter><parameter name="TSC">28</parameter><parameter name="MVD">0.397325485944748</parameter><parameter name="AN1">0.225792165893225</parameter><parameter name="AN2">0</parameter><parameter name="VSN">2.485 Apr  4 2017</parameter><parameter name="SRN">0085</parameter><parameter name="CAM">0</parameter><parameter name="INS">IR-Biotyper</parameter><parameter name="FOC">69</parameter><parameter name="RDY">1</parameter><parameter name="ARS">32</parameter></Instrument_Parameters_Rf><Sample_Parameters_><parameter name="BLD"></parameter><parameter name="CNM">Admin</parameter><parameter name="CPY"></parameter><parameter name="DPM"></parameter><parameter name="EXP">IRBT_v3_32Scans.XPM</parameter><parameter name="LCT"></parameter><parameter name="SFM">Microplate, HTS-XT</parameter><parameter name="SNM">220530-1021_GFG29M (D_11)_C4_0d82355c-6f3e-4be0-b77f-daf4836b376e.0</parameter><parameter name="XPP">C:\Users\Public\Documents\Bruker\OPUS_8.2.28\XPM</parameter><parameter name="IST">OK</parameter><parameter name="CPG">1252</parameter><parameter name="UID">fd05907d-cc0a-43ee-b988-9a13262e5515</parameter></Sample_Parameters_><Instrument_Parameters_><parameter name="HFL">15800.168544</parameter><parameter name="LFL">0</parameter><parameter name="LWN">15800.168544</parameter><parameter name="ABP">32197</parameter><parameter name="SSP">1</parameter><parameter name="ASG">2</parameter><parameter name="ARG">2</parameter><parameter name="ASS">32</parameter><parameter name="GFW">16</parameter><parameter name="GBW">16</parameter><parameter name="BFW">0</parameter><parameter name="BBW">0</parameter><parameter name="PKA">7295</parameter><parameter name="PKL">4988</parameter><parameter name="PRA">7564</parameter><parameter name="PRL">4993</parameter><parameter name="P2A">1</parameter><parameter name="P2L">1</parameter><parameter name="P2R">1</parameter><parameter name="P2K">1</parameter><parameter name="DAQ">0</parameter><parameter name="AG2">1</parameter><parameter name="SSM">1</parameter><parameter name="RSN">13230</parameter><parameter name="CRR">0</parameter><parameter name="SRT">1653910107.1</parameter><parameter name="DUR">19.6369934082031</parameter><parameter name="TSC">28</parameter><parameter name="MVD">0.226303294301033</parameter><parameter name="AN1">0.225780258121982</parameter><parameter name="AN2">0</parameter><parameter name="VSN">2.485 Apr  4 2017</parameter><parameter name="SRN">0085</parameter><parameter name="CAM">0</parameter><parameter name="INS">IR-Biotyper</parameter><parameter name="FOC">69</parameter><parameter name="RDY">1</parameter></Instrument_Parameters_><History/></OPUSDataFile>
