<?xml version="1.0" encoding="UTF-8" ?>
<OPUSDataFile><AB><Ydata ylabel="Absorbance Units"><values byteorder="INTEL" format="FLOAT32" numvalues="3497"> -0.05272461 -0.05274168 -0.05277385 -0.05282268 -0.05286475 -0.05289889 -0.05291025 -0.05289942 -0.05287003 -0.05282383
 -0.0527728 -0.05271744 -0.05266537 -0.05261688 -0.05257554 -0.05254358 -0.05252634 -0.05252472 -0.05254443 -0.05257704
 -0.05262072 -0.05265933 -0.052683 -0.05268483 -0.05265665 -0.05261235 -0.05255222 -0.05249703 -0.05245094 -0.0524206
 -0.0524078 -0.05240355 -0.05240741 -0.05240975 -0.05241084 -0.05241136 -0.05241277 -0.05242407 -0.05244612 -0.05248761
 -0.0525465 -0.05262416 -0.05271376 -0.05280653 -0.05289265 -0.05295707 -0.05299577 -0.05299728 -0.05297293 -0.05292327
 -0.05286752 -0.05281475 -0.05276865 -0.05273487 -0.05269482 -0.05264584 -0.05257702 -0.05248516 -0.05239217 -0.05229907
 -0.05224266 -0.05222297 -0.05225099 -0.05232133 -0.05240737 -0.05250431 -0.05257924 -0.05263499 -0.05266107 -0.05266409
 -0.05265032 -0.05262448 -0.05259476 -0.05256243 -0.05253193 -0.05250037 -0.05246809 -0.05242971 -0.0523823 -0.0523269
 -0.05226126 -0.05219814 -0.0521384 -0.05209845 -0.05208042 -0.05208918 -0.0521252 -0.05217706 -0.05224366 -0.05230689
 -0.05236659 -0.05241301 -0.05244678 -0.05246615 -0.05246927 -0.0524494 -0.05240856 -0.05234322 -0.05226668 -0.05219167
 -0.05213191 -0.05210647 -0.05210918 -0.05214712 -0.05219226 -0.05223523 -0.05225822 -0.05225075 -0.05222839 -0.05219091
 -0.05216246 -0.05214653 -0.05214376 -0.05215443 -0.05216294 -0.05216931 -0.05217064 -0.05216929 -0.05217979 -0.05220211
 -0.05224654 -0.0523055 -0.05236746 -0.05242155 -0.0524408 -0.05242865 -0.05237288 -0.05229692 -0.05221614 -0.05214625
 -0.05210408 -0.05208169 -0.05207948 -0.05209025 -0.05210857 -0.05215083 -0.0522179 -0.05233256 -0.05249985 -0.0527023
 -0.05293986 -0.05311063 -0.05321049 -0.05314951 -0.0529456 -0.05267108 -0.05234245 -0.05206382 -0.0518288 -0.05167329
 -0.05158595 -0.05156572 -0.05159765 -0.05166702 -0.05175324 -0.05183554 -0.05189896 -0.05192653 -0.05192333 -0.05188518
 -0.05182932 -0.05175989 -0.05168639 -0.05161121 -0.05153759 -0.05146556 -0.0514039 -0.05135308 -0.05132613 -0.05132324
 -0.05134979 -0.05140379 -0.05147608 -0.05156267 -0.05164387 -0.05171696 -0.05176421 -0.05178775 -0.05178165 -0.05175309
 -0.05170706 -0.05165293 -0.05159976 -0.05155429 -0.05152363 -0.05150773 -0.0515094 -0.05152187 -0.05154463 -0.0515685
 -0.05159185 -0.05160882 -0.05161855 -0.05161887 -0.05160962 -0.05158822 -0.05155452 -0.05150597 -0.05144273 -0.05136428
 -0.05127176 -0.05116814 -0.05105697 -0.05094782 -0.05084521 -0.05076228 -0.05069882 -0.05066206 -0.05064343 -0.05063891
 -0.05063933 -0.05063638 -0.05063219 -0.05062464 -0.05062164 -0.0506265 -0.05063603 -0.05065118 -0.05066055 -0.05066225
 -0.05065793 -0.05064741 -0.05064579 -0.05065335 -0.05067708 -0.05071429 -0.05074972 -0.05078138 -0.05079083 -0.0507835
 -0.05076351 -0.05073757 -0.05072203 -0.05071355 -0.05071615 -0.05072068 -0.05071734 -0.05071088 -0.0506962 -0.05069773
 -0.050724 -0.05079246 -0.0509151 -0.05107047 -0.05126136 -0.05143417 -0.0515832 -0.0516741 -0.05170412 -0.0516673
 -0.05156416 -0.05140097 -0.05118291 -0.05094675 -0.05070064 -0.05049816 -0.05033991 -0.05025837 -0.05024093 -0.05028528
 -0.05036562 -0.05044781 -0.05051827 -0.05054772 -0.05055232 -0.05053345 -0.0505062 -0.05047951 -0.0504515 -0.05042406
 -0.05039009 -0.05034792 -0.05029747 -0.0502381 -0.05017609 -0.05011176 -0.05005238 -0.04999844 -0.04995866 -0.04993309
 -0.04992835 -0.0499405 -0.04995984 -0.04997716 -0.04995998 -0.04991066 -0.0498117 -0.04968712 -0.0495607 -0.04944879
 -0.04937977 -0.04934078 -0.04933742 -0.04933667 -0.04932538 -0.04928513 -0.049203 -0.0490991 -0.04897291 -0.04885768
 -0.04875799 -0.04868584 -0.04864277 -0.04861383 -0.04859773 -0.04856851 -0.04852679 -0.0484631 -0.04838233 -0.04829955
 -0.04821821 -0.04815541 -0.04811098 -0.04809329 -0.04809873 -0.04812869 -0.04817208 -0.04822264 -0.04826267 -0.04827914
 -0.04826379 -0.0482079 -0.04811892 -0.0479975 -0.04784891 -0.04767429 -0.04747572 -0.04725275 -0.04701567 -0.04676497
 -0.04651517 -0.04626715 -0.04603622 -0.0458239 -0.04564926 -0.04551203 -0.0454243 -0.04537858 -0.04536236 -0.04536569
 -0.04536205 -0.04535235 -0.04532636 -0.04528954 -0.04524859 -0.04519027 -0.04511091 -0.04499111 -0.04481459 -0.04460124
 -0.04434922 -0.04409845 -0.04385724 -0.04364387 -0.04346281 -0.04330778 -0.04317897 -0.04305786 -0.04294365 -0.04282205
 -0.04269382 -0.04255887 -0.04241707 -0.04226984 -0.04211175 -0.04192771 -0.04171556 -0.04145788 -0.04117225 -0.04087234
 -0.04057885 -0.04031833 -0.04009211 -0.03991221 -0.03976206 -0.03964052 -0.03952153 -0.03939713 -0.0392519 -0.03907971
 -0.03888702 -0.03867366 -0.03844847 -0.03821226 -0.03796202 -0.03769762 -0.03741581 -0.03711813 -0.03681505 -0.03650895
 -0.03621593 -0.03593622 -0.03567904 -0.03544261 -0.03522926 -0.03503335 -0.03485038 -0.03467041 -0.03448198 -0.03428184
 -0.03406141 -0.03383252 -0.03359827 -0.03336792 -0.0331482 -0.03292621 -0.03270155 -0.03245585 -0.0321847 -0.03189984
 -0.03160116 -0.0313213 -0.03106109 -0.03083175 -0.03063078 -0.03044326 -0.03026724 -0.03008544 -0.02990012 -0.0297079
 -0.02951374 -0.029326 -0.02914674 -0.02898407 -0.02883254 -0.0286935 -0.0285506 -0.02839636 -0.02821077 -0.02798024
 -0.02770643 -0.02738161 -0.02703885 -0.0266817 -0.02634559 -0.0260366 -0.02576322 -0.02552737 -0.02530502 -0.02509467
 -0.02486409 -0.02461395 -0.02433403 -0.02402897 -0.02371332 -0.02339153 -0.02308349 -0.02279125 -0.02252824 -0.02229403
 -0.02209573 -0.02192545 -0.02178131 -0.0216473 -0.02151377 -0.0213664 -0.02119519 -0.02099858 -0.02077207 -0.0205275
 -0.02026569 -0.0200011 -0.01973603 -0.01947566 -0.01922074 -0.01896713 -0.01871479 -0.01846312 -0.01821334 -0.01797566
 -0.01775074 -0.01754873 -0.01736561 -0.01719659 -0.01703439 -0.01686201 -0.01667625 -0.01646337 -0.0162299 -0.01597496
 -0.01571168 -0.01544849 -0.01519342 -0.01495434 -0.01472527 -0.01450763 -0.01428706 -0.0140604 -0.0138212 -0.01356725
 -0.01330585 -0.0130372 -0.0127727 -0.01251282 -0.01226398 -0.01202607 -0.0118011 -0.01158887 -0.01139011 -0.01120369
 -0.01102752 -0.01085885 -0.01069115 -0.01052296 -0.01034865 -0.01017061 -0.009989017 -0.009806578 -0.009626702 -0.00944536
 -0.009262466 -0.009070828 -0.008866679 -0.008653175 -0.008428686 -0.008207697 -0.007992131 -0.007789707 -0.007601641 -0.007419244
 -0.007241994 -0.007057446 -0.006866328 -0.006669257 -0.006468584 -0.00627599 -0.006091991 -0.005925203 -0.005772379 -0.005631534
 -0.005498621 -0.005366132 -0.00523474 -0.005101555 -0.004970791 -0.004845826 -0.004724621 -0.004609405 -0.004488321 -0.004357766
 -0.004211275 -0.004044896 -0.003868906 -0.003683368 -0.00350457 -0.003334007 -0.00317669 -0.003032597 -0.002895678 -0.00276504
 -0.002630994 -0.002492036 -0.002335752 -0.002161699 -0.001959632 -0.001735761 -0.001495078 -0.001250051 -0.001020884 -0.0008140028
 -0.000646587 -0.0005086011 -0.0004007103 -0.0003055347 -0.0002137756 -0.0001202473 -1.953526E-05 7.986104E-05 0.00017666 0.0002663636
 0.0003471811 0.0004271456 0.000506666 0.0005939005 0.0006890856 0.0007920698 0.0009028574 0.001021283 0.001147963 0.001287051
 0.001436666 0.001594471 0.001755747 0.00190872 0.002052936 0.002180592 0.002299152 0.00241281 0.002528707 0.002655103
 0.002788232 0.002930345 0.003069312 0.003201662 0.003319368 0.003418898 0.003504101 0.003574325 0.003640514 0.003703613
 0.003768686 0.003835747 0.003898059 0.003955108 0.003998384 0.004029612 0.004051755 0.004068803 0.004094504 0.004131396
 0.004192504 0.004275237 0.004383496 0.004508017 0.004642372 0.004775248 0.004895763 0.00500159 0.0050856 0.005162027
 0.005232633 0.005315194 0.005415951 0.005532693 0.005668306 0.005796306 0.005915116 0.005997698 0.006043134 0.006049236
 0.006018379 0.005972432 0.00591376 0.005866007 0.005828306 0.005810124 0.005809893 0.005828426 0.005865685 0.005922833
 0.00599742 0.006089664 0.006190368 0.006294273 0.006391451 0.006474578 0.006543359 0.006594111 0.006638424 0.006677455
 0.006724583 0.00678251 0.006853525 0.006938749 0.007024057 0.007108625 0.007172429 0.007215553 0.007229903 0.007218857
 0.00719401 0.007160518 0.007140608 0.007136967 0.007167702 0.007228482 0.007323759 0.007439846 0.007566701 0.007687017
 0.00778462 0.00785288 0.007881036 0.007881906 0.00785472 0.00782344 0.00779247 0.007782066 0.007795836 0.0078439
 0.007927612 0.00804882 0.008207517 0.00839823 0.008619254 0.008853365 0.009095682 0.00931298 0.009500244 0.009620822
 0.009680507 0.00966776 0.009605856 0.009521558 0.009440622 0.009404256 0.0094117 0.009482938 0.009583686 0.009705988
 0.00980898 0.009875456 0.009889855 0.009841793 0.009750024 0.009613329 0.009470319 0.009324052 0.009203956 0.0091113
 0.009048203 0.009013444 0.008994158 0.008990909 0.008999932 0.009023286 0.009067567 0.009129807 0.00920957 0.009296409
 0.009376651 0.009436397 0.009456614 0.009427436 0.00933312 0.009179456 0.008959438 0.008703131 0.008414821 0.00813677
 0.007879741 0.007667449 0.007507206 0.007389433 0.007314938 0.007256259 0.007211997 0.007158222 0.007094882 0.007012303
 0.006912965 0.006803887 0.006689037 0.006586044 0.006494719 0.006425999 0.006370924 0.006322238 0.006267894 0.006190962
 0.006088835 0.005950172 0.005790318 0.005609979 0.005437444 0.005282217 0.005164372 0.005094198 0.005058153 0.005059466
 0.005051837 0.005031843 0.004958953 0.004831364 0.00465406 0.00443077 0.004204994 0.003979495 0.003793365 0.003642344
 0.003534094 0.003460703 0.003408694 0.003371967 0.003335667 0.00329591 0.003242722 0.003175788 0.003089887 0.00299271
 0.002885252 0.002779681 0.002681306 0.002593673 0.002520508 0.002450715 0.002383772 0.002305537 0.00221432 0.002107048
 0.001983603 0.001853712 0.001718368 0.001591946 0.001474933 0.001378398 0.001300238 0.001241006 0.001194585 0.001148186
 0.001095769 0.001020711 0.0009248169 0.0008016132 0.0006611216 0.0005082125 0.0003523341 0.0002001621 5.456471E-05 -8.215305E-05
 -0.0002088981 -0.0003251884 -0.0004296092 -0.0005214554 -0.0006034302 -0.0006753982 -0.0007448335 -0.000812128 -0.0008832233 -0.000958265
 -0.001040624 -0.001130368 -0.001230342 -0.001339322 -0.001455638 -0.001575934 -0.001691163 -0.001800583 -0.001896931 -0.001986789
 -0.002074548 -0.00216579 -0.002269516 -0.002376908 -0.002488689 -0.002585727 -0.002659636 -0.002705863 -0.0027176 -0.002719196
 -0.002711505 -0.002729546 -0.002777287 -0.002868306 -0.003003372 -0.00316391 -0.003347623 -0.003520945 -0.003682953 -0.003809865
 -0.003905322 -0.003967323 -0.004003954 -0.004031444 -0.004058746 -0.004108515 -0.00418182 -0.004292489 -0.004425992 -0.004578859
 -0.004728364 -0.004860168 -0.004966084 -0.005035963 -0.005086859 -0.00512016 -0.005155351 -0.005197787 -0.005242134 -0.005289529
 -0.005315493 -0.005318771 -0.005290144 -0.005231884 -0.005169789 -0.005108161 -0.005087002 -0.005104373 -0.00517789 -0.005296061
 -0.005441939 -0.005603727 -0.005752452 -0.005889002 -0.006000965 -0.00609953 -0.006191007 -0.0062787 -0.00636917 -0.006450932
 -0.006520725 -0.006571901 -0.006598822 -0.006618262 -0.006630933 -0.006659856 -0.006708464 -0.006774636 -0.006858406 -0.006932774
 -0.006996753 -0.007029708 -0.007034161 -0.007013982 -0.006973255 -0.006928771 -0.006881896 -0.006844538 -0.006815205 -0.00679671
 -0.006787277 -0.006784865 -0.00679158 -0.006806266 -0.006838059 -0.006890793 -0.006973719 -0.007093847 -0.007243854 -0.007427088
 -0.007614437 -0.007802886 -0.007962231 -0.008088213 -0.008176082 -0.008225315 -0.008259368 -0.008279976 -0.008316669 -0.008368849
 -0.008449362 -0.008553401 -0.008671642 -0.00879776 -0.008911555 -0.00901088 -0.009081277 -0.009128601 -0.009151792 -0.009163296
 -0.00917155 -0.009188606 -0.009224451 -0.009280906 -0.009363635 -0.009459061 -0.009566352 -0.009666149 -0.009754113 -0.009825928
 -0.009879378 -0.009933091 -0.009987998 -0.01006456 -0.01016222 -0.01027785 -0.01040822 -0.01053086 -0.01064567 -0.0107385
 -0.01081526 -0.01088307 -0.0109472 -0.01102131 -0.01110317 -0.0111967 -0.01129512 -0.01139405 -0.01148934 -0.01157721
 -0.01165692 -0.01172766 -0.01178821 -0.01183837 -0.01187595 -0.01190046 -0.01191093 -0.01190691 -0.01189186 -0.01186592
 -0.01184004 -0.01181528 -0.01180914 -0.01182207 -0.01186723 -0.01194139 -0.01204125 -0.01216014 -0.0122806 -0.01239728
 -0.01249284 -0.01256636 -0.01260985 -0.01262476 -0.01260954 -0.01256639 -0.0124946 -0.0124016 -0.01228753 -0.01216873
 -0.0120485 -0.0119431 -0.01185737 -0.01178896 -0.01173998 -0.01168189 -0.01161324 -0.01149771 -0.01133485 -0.01111044
 -0.01082876 -0.01050865 -0.01015645 -0.009806239 -0.009460421 -0.009143253 -0.008850836 -0.008588343 -0.008348839 -0.008126451
 -0.007915058 -0.007708445 -0.007500838 -0.007289078 -0.007063608 -0.006821082 -0.006550993 -0.006248529 -0.005915341 -0.005548289
 -0.005170433 -0.004782588 -0.00441839 -0.004079932 -0.0037887 -0.00354433 -0.003343899 -0.00318474 -0.003048441 -0.002932968
 -0.002820964 -0.002711988 -0.002596687 -0.00247448 -0.002340271 -0.002193696 -0.002031201 -0.001856408 -0.001670069 -0.001478724
 -0.001287262 -0.001096159 -0.0009086789 -0.0007152671 -0.0005146349 -0.0002962815 -5.773551E-05 0.0002038717 0.0004894573 0.0007958447
 0.001122981 0.001462536 0.001813302 0.00215549 0.002486776 0.002780996 0.003038649 0.003245888 0.00340855 0.003534552
 0.003628425 0.003705015 0.00375695 0.003786443 0.003770197 0.003693932 0.003526428 0.003245648 0.002833877 0.002272577
 0.001583114 0.0007588639 -0.0001336996 -0.001088952 -0.002023989 -0.002929354 -0.003750118 -0.004481866 -0.005119597 -0.005664858
 -0.006145207 -0.006562412 -0.006942093 -0.007282753 -0.007591255 -0.007867144 -0.008110469 -0.008326964 -0.008525672 -0.008714135
 -0.008907367 -0.009103013 -0.009307092 -0.009506024 -0.009693584 -0.009859857 -0.00999682 -0.01011104 -0.01020138 -0.010282
 -0.01035623 -0.01042677 -0.01049562 -0.01054654 -0.01057876 -0.01056995 -0.01051996 -0.0104238 -0.0102858 -0.01013179
 -0.009968843 -0.009840078 -0.00974643 -0.009715927 -0.009736851 -0.009804378 -0.009899181 -0.009995738 -0.01008006 -0.01012996
 -0.01014452 -0.01011506 -0.01005184 -0.009955875 -0.009840393 -0.00970919 -0.009570556 -0.009426592 -0.009280619 -0.009132163
 -0.008994165 -0.008866799 -0.008789866 -0.00876668 -0.008859173 -0.009068794 -0.009440809 -0.009964155 -0.01062547 -0.01139869
 -0.01221179 -0.01303967 -0.01380036 -0.0144924 -0.01507512 -0.01557387 -0.01599476 -0.01636666 -0.01671069 -0.01703614
 -0.01735377 -0.01765638 -0.01794383 -0.01821004 -0.01845332 -0.01867396 -0.01887169 -0.01904857 -0.01920468 -0.01934334
 -0.01946495 -0.0195769 -0.01967979 -0.01978188 -0.01988272 -0.01998537 -0.02008805 -0.0201879 -0.02028262 -0.02036656
 -0.02043891 -0.02049531 -0.02053894 -0.02056935 -0.02059506 -0.02062012 -0.02065387 -0.02070233 -0.02076577 -0.02084766
 -0.02093491 -0.02102673 -0.02110544 -0.02116833 -0.02121045 -0.02123097 -0.02124191 -0.02124401 -0.02125236 -0.0212666
 -0.02129132 -0.02132534 -0.02136575 -0.02141298 -0.02146646 -0.02152765 -0.02159957 -0.02168165 -0.02177551 -0.02187693
 -0.02198412 -0.0220892 -0.02218832 -0.02227113 -0.02233199 -0.02236655 -0.02236995 -0.02235386 -0.02231767 -0.02228506
 -0.02225876 -0.02225471 -0.02227456 -0.02231401 -0.02237237 -0.02243404 -0.02249849 -0.02255457 -0.022603 -0.02264076
 -0.02266905 -0.02268906 -0.02270281 -0.02271402 -0.0227256 -0.02274328 -0.02276761 -0.02280244 -0.02284301 -0.02288848
 -0.02293145 -0.02296842 -0.02299555 -0.02300993 -0.02301588 -0.02301271 -0.0230114 -0.02301288 -0.02302811 -0.02305808
 -0.02310466 -0.02316745 -0.02323608 -0.02330931 -0.02337226 -0.02342528 -0.02346098 -0.02348258 -0.02349477 -0.02350114
 -0.02351152 -0.0235253 -0.02354721 -0.02357122 -0.02359367 -0.02360936 -0.0236122 -0.02360605 -0.02358921 -0.02357371
 -0.02356261 -0.02356464 -0.02358295 -0.02361546 -0.02366281 -0.02371686 -0.02377707 -0.02383731 -0.02389735 -0.02395411
 -0.02400746 -0.02405469 -0.02409595 -0.02413003 -0.02415799 -0.02418214 -0.02420343 -0.02422504 -0.02424654 -0.02426842
 -0.02429075 -0.02431297 -0.02433778 -0.02436684 -0.02440167 -0.02444477 -0.02449067 -0.02453903 -0.02458158 -0.02461602
 -0.02464139 -0.02465666 -0.02466896 -0.02467874 -0.02469053 -0.02470433 -0.02471739 -0.02472934 -0.02473569 -0.02473678
 -0.02473131 -0.02472063 -0.02470707 -0.02469347 -0.02468597 -0.02468753 -0.02470575 -0.0247388 -0.0247896 -0.02484955
 -0.02491463 -0.02497631 -0.02502917 -0.02507156 -0.02510138 -0.02512159 -0.02513241 -0.02513622 -0.02513316 -0.02512652
 -0.0251164 -0.02510912 -0.02510499 -0.02511011 -0.02512437 -0.02514977 -0.02518541 -0.0252286 -0.02527821 -0.02532971
 -0.02538235 -0.02543267 -0.02548031 -0.02552364 -0.0255618 -0.02559375 -0.02561791 -0.02563274 -0.02563804 -0.02563229
 -0.02562019 -0.02560182 -0.02558603 -0.02557439 -0.02557426 -0.02558723 -0.02561302 -0.02565199 -0.02569606 -0.0257448
 -0.02578939 -0.02582994 -0.02586339 -0.02589058 -0.0259138 -0.02593355 -0.02595252 -0.0259706 -0.02598899 -0.02600702
 -0.02602453 -0.02604029 -0.02605277 -0.02606217 -0.02606729 -0.02607158 -0.02607591 -0.02608442 -0.02609918 -0.02611961
 -0.02614651 -0.02617494 -0.02620433 -0.02623151 -0.02625611 -0.02627818 -0.02629774 -0.0263153 -0.02633103 -0.02634602
 -0.02636092 -0.02637946 -0.02640183 -0.0264312 -0.0264658 -0.02650407 -0.02654316 -0.02657822 -0.02660818 -0.02662984
 -0.02664443 -0.02665145 -0.02665355 -0.02665126 -0.0266487 -0.02664694 -0.02665028 -0.02666015 -0.02667687 -0.02670131
 -0.02672676 -0.02675293 -0.02677063 -0.02677957 -0.02677668 -0.02676294 -0.02674558 -0.0267261 -0.02671589 -0.02671455
 -0.02672791 -0.02675224 -0.02678336 -0.02681671 -0.02684335 -0.02686288 -0.02687042 -0.02687102 -0.02686599 -0.0268617
 -0.0268618 -0.02686857 -0.02688416 -0.02690572 -0.02693347 -0.02696209 -0.02699101 -0.02701564 -0.02703548 -0.02704968
 -0.0270583 -0.02706492 -0.02706973 -0.02707623 -0.02708372 -0.02709063 -0.02709626 -0.02709695 -0.02709424 -0.02708934
 -0.02708439 -0.02708397 -0.0270863 -0.02709218 -0.02709704 -0.02709712 -0.02709266 -0.02708139 -0.02707018 -0.02706071
 -0.02705824 -0.0270651 -0.02707819 -0.02709787 -0.02711663 -0.02713389 -0.02714494 -0.02714963 -0.02714761 -0.0271392
 -0.02712717 -0.02711222 -0.02709901 -0.02708844 -0.02708602 -0.02709156 -0.02710813 -0.02713319 -0.02716522 -0.02719961
 -0.02723134 -0.02725706 -0.02727195 -0.02727807 -0.02727386 -0.02726718 -0.02725995 -0.02725915 -0.02726737 -0.02728379
 -0.02730928 -0.02733619 -0.02736402 -0.02738565 -0.02740083 -0.02740861 -0.02740931 -0.02740569 -0.02739774 -0.02738668
 -0.0273725 -0.02735517 -0.02733617 -0.02731798 -0.02730344 -0.0272982 -0.02730273 -0.02732084 -0.02734801 -0.02738306
 -0.02741954 -0.02745376 -0.02748308 -0.02750546 -0.02752207 -0.02753283 -0.0275388 -0.02754007 -0.02753771 -0.02753171
 -0.02752529 -0.02751863 -0.02751527 -0.02751499 -0.02751686 -0.02752029 -0.02752142 -0.02752059 -0.02751649 -0.02751062
 -0.02750576 -0.02750235 -0.02750288 -0.02750552 -0.02750955 -0.02751283 -0.02751303 -0.02751115 -0.02750643 -0.02750261
 -0.02750091 -0.02750321 -0.02751055 -0.02752129 -0.02753533 -0.02755129 -0.02756896 -0.0275894 -0.02761259 -0.02763698
 -0.027662 -0.02768064 -0.02769283 -0.02769371 -0.02768537 -0.02767184 -0.02765539 -0.02764387 -0.02763577 -0.02763288
 -0.02763144 -0.02762737 -0.02762067 -0.02760893 -0.02759688 -0.02758629 -0.02758039 -0.02758175 -0.02758661 -0.0275951
 -0.02760078 -0.02760236 -0.02759884 -0.02758976 -0.02758025 -0.02757053 -0.02756357 -0.02755907 -0.02755471 -0.0275503
 -0.02754334 -0.02753471 -0.02752608 -0.02751807 -0.02751316 -0.02751075 -0.02751094 -0.02751328 -0.02751728 -0.02752281
 -0.02753023 -0.02753748 -0.02754413 -0.02754681 -0.02754401 -0.02753494 -0.02751863 -0.02749821 -0.02747378 -0.02744958
 -0.02742596 -0.02740581 -0.02738927 -0.02737722 -0.02736957 -0.02736563 -0.02736542 -0.02736872 -0.02737568 -0.02738705
 -0.02740222 -0.02742049 -0.0274405 -0.02745897 -0.02747758 -0.02749473 -0.02751888 -0.02755397 -0.02761184 -0.02769993
 -0.02782316 -0.02798648 -0.02818343 -0.02841454 -0.0286674 -0.02894086 -0.02922156 -0.02950834 -0.02979092 -0.03006877
 -0.03033783 -0.03059706 -0.03083621 -0.03104992 -0.03120387 -0.03129307 -0.03127934 -0.0311695 -0.03095482 -0.03065674
 -0.03029984 -0.02991323 -0.02953612 -0.02918981 -0.02890312 -0.02868187 -0.02853728 -0.02846484 -0.02846755 -0.0285305
 -0.02865489 -0.02880576 -0.02898072 -0.02913223 -0.02925515 -0.02932879 -0.02935213 -0.02934149 -0.02929856 -0.02924779
 -0.02918941 -0.02913816 -0.02909113 -0.02904684 -0.02900122 -0.02894288 -0.02887328 -0.02878837 -0.02869429 -0.02859742
 -0.02849833 -0.02840129 -0.02829929 -0.02818901 -0.02806842 -0.02793322 -0.02779631 -0.02765845 -0.0275384 -0.02743961
 -0.02737045 -0.02733296 -0.02731617 -0.02731949 -0.0273184 -0.02731195 -0.02728055 -0.027226 -0.0271472 -0.02704873
 -0.02694477 -0.02684007 -0.02675264 -0.026684 -0.02664619 -0.0266337 -0.02664757 -0.02667471 -0.02670654 -0.02673087
 -0.02673746 -0.02672652 -0.02669383 -0.02665137 -0.0266008 -0.02655371 -0.02651265 -0.02648001 -0.02645644 -0.02643907
 -0.0264278 -0.0264226 -0.02642367 -0.02643416 -0.02645333 -0.02647951 -0.02650996 -0.02653421 -0.02655061 -0.02654845
 -0.02653205 -0.0265021 -0.0264669 -0.02643654 -0.02641461 -0.02640895 -0.02641406 -0.0264298 -0.0264485 -0.02646657
 -0.02648287 -0.02649576 -0.02650979 -0.02652557 -0.02654555 -0.02657039 -0.02659537 -0.02662024 -0.02663673 -0.02664483
 -0.02664177 -0.02662876 -0.02661145 -0.02659047 -0.02657187 -0.02655361 -0.02653399 -0.02651094 -0.02647906 -0.02644103
 -0.02639665 -0.02635212 -0.02631246 -0.02628088 -0.02626153 -0.02625133 -0.02625067 -0.02625386 -0.02625949 -0.02626435
 -0.0262675 -0.02626922 -0.02626936 -0.02626969 -0.0262703 -0.02627238 -0.02627592 -0.02628125 -0.0262884 -0.02629784
 -0.02630954 -0.02632384 -0.02634028 -0.02635821 -0.02637672 -0.02639407 -0.02640961 -0.02642196 -0.02643069 -0.02643518
 -0.02643464 -0.0264284 -0.02641625 -0.02639747 -0.02637423 -0.02634644 -0.02631852 -0.02629102 -0.02626796 -0.02624991
 -0.02623768 -0.02623135 -0.02622903 -0.02623059 -0.02623387 -0.02623888 -0.02624479 -0.02625149 -0.02625827 -0.02626481
 -0.02626997 -0.02627356 -0.02627443 -0.02627343 -0.02627106 -0.02626818 -0.02626621 -0.02626375 -0.02626104 -0.02625449
 -0.02624238 -0.02622441 -0.02619905 -0.02617304 -0.02614682 -0.02612901 -0.02612087 -0.02612312 -0.0261359 -0.02615117
 -0.02616849 -0.02617996 -0.02618599 -0.02618505 -0.02617801 -0.02616732 -0.02615339 -0.02613825 -0.02612234 -0.02610712
 -0.02609322 -0.02608204 -0.02607336 -0.02606764 -0.02606387 -0.02606166 -0.02606022 -0.02605921 -0.02605803 -0.02605657
 -0.02605396 -0.02605006 -0.02604397 -0.02603553 -0.0260246 -0.02601113 -0.0259965 -0.02598103 -0.02596916 -0.02596154
 -0.02596499 -0.02597899 -0.02600633 -0.02604356 -0.02608418 -0.02612389 -0.02615154 -0.02616741 -0.02616589 -0.02615332
 -0.0261325 -0.0261101 -0.02609148 -0.02607717 -0.02606944 -0.02606354 -0.02605883 -0.02605061 -0.02603776 -0.02601924
 -0.02599456 -0.02596685 -0.02593624 -0.02590933 -0.0258864 -0.02587322 -0.02586918 -0.02587377 -0.02588524 -0.02589647
 -0.02590668 -0.02590943 -0.02590702 -0.02589996 -0.02589184 -0.02588779 -0.02588805 -0.02589564 -0.02590611 -0.02591802
 -0.02592711 -0.02593067 -0.02592944 -0.0259226 -0.02591409 -0.02590455 -0.02589617 -0.02588935 -0.02588375 -0.02587936
 -0.02587599 -0.02587373 -0.02587373 -0.02587597 -0.02588102 -0.02588836 -0.02589657 -0.02590465 -0.02590925 -0.02591008
 -0.02590456 -0.0258945 -0.02588054 -0.02586574 -0.02585331 -0.02584367 -0.025839 -0.02583495 -0.02583053 -0.02582129
 -0.02580501 -0.02578388 -0.02575715 -0.02573301 -0.02571224 -0.02570046 -0.02569811 -0.02570363 -0.02571677 -0.02573284
 -0.0257518 -0.02577129 -0.02579126 -0.02581092 -0.02582892 -0.02584183 -0.02584759 -0.0258403 -0.02582075 -0.02578612
 -0.02574203 -0.02569133 -0.02564126 -0.02559711 -0.02556188 -0.02553887 -0.02552488 -0.02552011 -0.0255192 -0.02552114
 -0.02552304 -0.0255243 -0.02552543 -0.02552642 -0.02552771 -0.0255292 -0.0255293 -0.02552809 -0.02552501 -0.02552087
 -0.02551855 -0.02551888 -0.02552592 -0.02553893 -0.02555916 -0.02558364 -0.02560971 -0.0256335 -0.02565079 -0.0256595
 -0.02565636 -0.02564411 -0.02562219 -0.02559705 -0.0255702 -0.02554656 -0.02552745 -0.02551388 -0.02550603 -0.02550494
 -0.02551067 -0.02552485 -0.02554719 -0.02557306 -0.02560103 -0.02561855 -0.02562517 -0.02561108 -0.02557967 -0.02553374
 -0.02547908 -0.02542755 -0.02538232 -0.0253533 -0.02533778 -0.02533796 -0.02534687 -0.02536132 -0.02537515 -0.02538461
 -0.02538848 -0.02538519 -0.02537757 -0.02536574 -0.02535293 -0.02533946 -0.02532789 -0.02531841 -0.02531248 -0.02531008
 -0.02531096 -0.0253147 -0.02531829 -0.02532135 -0.02532073 -0.02531663 -0.02530784 -0.02529501 -0.02527868 -0.0252596
 -0.02523872 -0.02521703 -0.02519552 -0.02517546 -0.02515775 -0.02514351 -0.02513364 -0.02512761 -0.02512586 -0.02512564
 -0.02512672 -0.02512577 -0.02512232 -0.02511493 -0.02510346 -0.02508722 -0.02506619 -0.02503945 -0.02500738 -0.02497191
 -0.02493431 -0.02490096 -0.02487245 -0.02485433 -0.02484479 -0.02484328 -0.02484755 -0.02485421 -0.02486283 -0.02487207
 -0.02488143 -0.02489126 -0.02489758 -0.0248992 -0.0248918 -0.0248732 -0.02484475 -0.02480556 -0.02476289 -0.02471721
 -0.0246767 -0.02464199 -0.02461751 -0.02460325 -0.02459804 -0.02460125 -0.02460771 -0.02461663 -0.02462191 -0.0246232
 -0.0246162 -0.02460173 -0.02457883 -0.02454974 -0.0245168 -0.02448206 -0.02444832 -0.0244161 -0.02438654 -0.02435947
 -0.02433503 -0.02431327 -0.02429438 -0.02427751 -0.02426282 -0.0242476 -0.02423166 -0.02421202 -0.02418846 -0.02415916
 -0.02412411 -0.02408346 -0.02403772 -0.02399042 -0.02394268 -0.02390121 -0.0238666 -0.02384449 -0.02383348 -0.02383439
 -0.02384354 -0.02385706 -0.0238706 -0.02387889 -0.02387953 -0.02386877 -0.02384866 -0.02381845 -0.02378349 -0.02374512
 -0.02370732 -0.02367119 -0.02363795 -0.0236079 -0.02358101 -0.02355734 -0.0235362 -0.02351751 -0.0234988 -0.02348004
 -0.0234597 -0.02343843 -0.02341812 -0.02339959 -0.02338664 -0.02337836 -0.0233756 -0.02337524 -0.02337357 -0.02336811
 -0.0233547 -0.02333413 -0.02330537 -0.02327082 -0.02323117 -0.02318861 -0.02314371 -0.02309872 -0.02305388 -0.02301248
 -0.02297482 -0.02294453 -0.02292193 -0.02290858 -0.0229044 -0.02290694 -0.02291548 -0.02292353 -0.02292998 -0.02292625
 -0.02291234 -0.02288276 -0.02284059 -0.0227888 -0.02273086 -0.02267302 -0.02261619 -0.02256327 -0.02251453 -0.02247073
 -0.02243256 -0.02240093 -0.02237438 -0.02235348 -0.02233287 -0.02231195 -0.02228465 -0.02225011 -0.02220489 -0.02214859
 -0.02208204 -0.02200552 -0.02192557 -0.02184308 -0.02176834 -0.02170147 -0.02164899 -0.02160935 -0.02158179 -0.02156447
 -0.02155384 -0.02154795 -0.02154385 -0.0215369 -0.02152203 -0.02149533 -0.02145079 -0.02139409 -0.02132418 -0.02125483
 -0.02119012 -0.02113845 -0.02110363 -0.02107989 -0.02106773 -0.02105392 -0.02103743 -0.02101177 -0.02097692 -0.02093634
 -0.02089009 -0.02084056 -0.02078685 -0.02072541 -0.02065692 -0.0205805 -0.02049951 -0.02042076 -0.02034491 -0.02027726
 -0.02021279 -0.02014888 -0.02008057 -0.0200021 -0.0199172 -0.0198243 -0.01973476 -0.01965166 -0.01958308 -0.01953232
 -0.01949617 -0.01947581 -0.01945575 -0.01943509 -0.01939761 -0.01934302 -0.01927315 -0.01918929 -0.01910402 -0.01901661
 -0.01893076 -0.01884384 -0.01874976 -0.0186476 -0.01853173 -0.01840465 -0.01826675 -0.0181225 -0.01797604 -0.01783127
 -0.01769268 -0.01755959 -0.0174343 -0.01730909 -0.01718253 -0.01704658 -0.01689834 -0.01673977 -0.0165705 -0.01639558
 -0.01621555 -0.01602896 -0.01583586 -0.01563696 -0.01543325 -0.01523438 -0.01504041 -0.01485801 -0.01468376 -0.0145113
 -0.01433687 -0.01414856 -0.0139481 -0.01373201 -0.01350531 -0.01327225 -0.01303444 -0.01279413 -0.01255192 -0.01230768
 -0.01206533 -0.01182618 -0.01159266 -0.01136781 -0.01113843 -0.01090565 -0.01063394 -0.01032039 -0.00994327 -0.009503194
 -0.009044523 -0.00857081 -0.008136322 -0.007734314 -0.007361425 -0.007008511 -0.006645377 -0.006270214 -0.005864415 -0.005431208
 -0.004970057 -0.004476477 -0.003951875 -0.003373383 -0.002727595 -0.001993189 -0.001145688 -0.0002206176 0.0007863882 0.001793093
 0.002781221 0.00370782 0.004561632 0.005352451 0.006079376 0.00676958 0.007424854 0.008084088 0.008750888 0.009478909
 0.01026332 0.01111838 0.01201844 0.01288712 0.01371875 0.0144557 0.01512751 0.01575306 0.01635511 0.01696671
 0.01758875 0.01823274 0.01889092 0.01956225 0.02024116 0.02092857 0.02160654 0.02227245 0.02290685 0.02350436
 0.02407723 0.02462557 0.0251719 0.02571653 0.02624485 0.02675407 0.02720958 0.02761359 0.02795858 0.02824951
 0.02850014 0.02870783 0.02887346 0.02899401 0.02905959 0.02908597 0.029083 0.02907043 0.02906701 0.02907649
 0.02910843 0.02914916 0.02919738 0.02923658 0.02926278 0.02926714 0.02924807 0.02919974 0.02912151 0.02900953
 0.02886376 0.02868967 0.02848777 0.02826596 0.02802325 0.02775862 0.02747101 0.02715475 0.02681358 0.02644965
 0.0260741 0.02570341 0.02534733 0.02502406 0.02473097 0.02447292 0.02424149 0.02403286 0.02384488 0.02367512
 0.02352782 0.02340394 0.02330405 0.02322884 0.02317385 0.02313879 0.02312038 0.02311848 0.02313257 0.02316257
 0.02320739 0.02326665 0.02333763 0.02342053 0.02351415 0.02361985 0.02374028 0.02387553 0.02402791 0.02419408
 0.0243718 0.02455747 0.02474653 0.02494159 0.02514104 0.02535444 0.02558365 0.02583999 0.02612688 0.02644785
 0.02680556 0.02718586 0.02758847 0.02798871 0.02838551 0.02876828 0.02913826 0.02950592 0.02987039 0.03023477
 0.03059255 0.03092219 0.03122386 0.03148472 0.03171447 0.03192392 0.03211558 0.03229849 0.03246504 0.03261182
 0.0327353 0.03283273 0.03290321 0.03294874 0.03295508 0.03292003 0.03282849 0.03267423 0.03248356 0.03225787
 0.03202492 0.03178563 0.03152501 0.03124172 0.03091577 0.03054852 0.03013699 0.0296832 0.02919455 0.02866637
 0.0280961 0.02746877 0.0267553 0.02596095 0.02506254 0.02412499 0.02319109 0.02229632 0.02148397 0.02070881
 0.01996293 0.01921607 0.01845356 0.01769823 0.01695014 0.01624163 0.01557699 0.01495123 0.01436392 0.0137833
 0.01320849 0.01261786 0.0120149 0.01140558 0.01079644 0.01021285 0.009656698 0.00914757 0.008676489 0.008240562
 0.007824965 0.00741435 0.006994215 0.006551706 0.006070339 0.005537437 0.004948081 0.004284948 0.003609512 0.002926241
 0.002323286 0.001822789 0.001404757 0.001072071 0.0007540861 0.0004475156 0.0001227139 -0.0002177005 -0.0005530784 -0.0008803564
 -0.001169665 -0.0014266 -0.001654667 -0.001859249 -0.002057877 -0.002243151 -0.002413744 -0.002555212 -0.002649148 -0.002693495
 -0.002677992 -0.002614293 -0.00250509 -0.00236201 -0.002190394 -0.00199394 -0.001776551 -0.001526982 -0.001246107 -0.0009067421
 -0.0005058072 -3.33085E-05 0.0005109005 0.00107115 0.001642956 0.002153408 0.002606681 0.002988673 0.003306611 0.003578729
 0.003805652 0.003996756 0.004152447 0.004273716 0.004371169 0.004452477 0.004538637 0.004649243 0.004792272 0.004985191
 0.005196522 0.005420322 0.005625893 0.005801586 0.005949569 0.006067526 0.006169412 0.006256391 0.006336862 0.006411287
 0.006479982 0.00654291 0.00659929 0.006649912 0.006698492 0.006746607 0.006801254 0.006864161 0.006942434 0.007037564
 0.007154475 0.007295283 0.007463515 0.007662316 0.00789553 0.008163628 0.008469142 0.008806579 0.009174536 0.009568691
 0.009985868 0.0104348 0.01091526 0.01144448 0.01202491 0.01265592 0.01333743 0.01403135 0.014735 0.0154037
 0.01603881 0.016626 0.01716725 0.01766358 0.01811161 0.01850482 0.01883773 0.01909836 0.01928444 0.01938892
 0.01941151 0.01935043 0.01920399 0.01897083 0.01865013 0.01824005 0.01774568 0.01716477 0.01651893 0.01580791
 0.01507431 0.01432163 0.01358733 0.01287359 0.01218758 0.01152849 0.0108869 0.01026322 0.009654962 0.009064248
 0.00849798 0.00795602 0.007442376 0.006953754 0.006487121 0.00603832 0.005601726 0.005174146 0.004750619 0.004332093
 0.003915848 0.003510821 0.003118241 0.0027512 0.002413618 0.002110979 0.001845801 0.001611546 0.001408187 0.001224927
 0.001061163 0.0009115115 0.0007761609 0.0006566535 0.0005531399 0.0004675928 0.0003991384 0.0003461293 0.0003067348 0.0002766394
 0.0002525462 0.0002276039 0.0001985005 0.0001577647 0.0001071584 4.422856E-05 -2.394065E-05 -9.402104E-05 -0.0001616262 -0.0002232167
 -0.0002821854 -0.0003384292 -0.0003968535 -0.00045859 -0.0005238791 -0.0005929326 -0.0006642254 -0.0007376738 -0.0008147665 -0.0008955033
 -0.0009807083 -0.001069547 -0.001157553 -0.001243512 -0.001320392 -0.001388225 -0.001443338 -0.001486929 -0.001519461 -0.001541659
 -0.001554506 -0.001558495 -0.001553535 -0.001542571 -0.001526267 -0.001510135 -0.001496159 -0.001488796 -0.001489781 -0.001500053
 -0.001520127 -0.001549295 -0.001587619 -0.00163341 -0.001686582 -0.001743862 -0.001805044 -0.001866311 -0.001927971 -0.001989664
 -0.002052484 -0.002120301 -0.002193804 -0.002277433 -0.002369195 -0.002468835 -0.002571421 -0.002671625 -0.002764437 -0.002843467
 -0.002908215 -0.002955668 -0.002990506 -0.003013273 -0.00303009 -0.003042464 -0.003055053 -0.00306878 -0.003086876 -0.003109895
 -0.003138056 -0.003171435 -0.003205493 -0.003239975 -0.003269733 -0.003295556 -0.003319545 -0.003343325 -0.003375087 -0.003413541
 -0.003461518 -0.003512486 -0.003556946 -0.003589228 -0.00359655 -0.003583537 -0.003547149 -0.003501045 -0.003452062 -0.00340948
 -0.003380614 -0.003359984 -0.003349119 -0.003333639 -0.003311362 -0.003272141 -0.003214076 -0.00313929 -0.003047693 -0.002953013
 -0.002856228 -0.002774497 -0.002707927 -0.002666659 -0.002648315 -0.002650165 -0.002668254 -0.002691468 -0.002717258 -0.002735505
 -0.002747536 -0.002750057 -0.002747825 -0.002743118 -0.002741349 -0.002745992 -0.002760934 -0.002788162 -0.002830905 -0.002890627
 -0.002967801 -0.003063766 -0.003170599 -0.003288232 -0.003402296 -0.003511877 -0.003609752 -0.003696465 -0.003780149 -0.003862133
 -0.003955828 -0.004060323 -0.004180239 -0.004311779 -0.004448225 -0.004585475 -0.004713199 -0.004829737 -0.004928136 -0.005011017
 -0.005077167 -0.005132866 -0.005181069 -0.005227212 -0.005274653 -0.005323839 -0.005376053 -0.005427765 -0.005478531 -0.005525738
 -0.00556875 -0.005609988 -0.005649526 -0.005692439 -0.005738702 -0.005788529 -0.005841153 -0.005890982 -0.005938404 -0.005981368
 -0.006022036 -0.006065658 -0.006111942 -0.00616442 -0.006217608 -0.006267 -0.006305951 -0.006327569 -0.006327273 -0.006301113
 -0.006244908 -0.006155925 -0.006032845 -0.005873384 -0.00568501 -0.005467643 -0.005234759 -0.004987773 -0.004736122 -0.004480524
 -0.00422395 -0.003966428 -0.003708393 -0.003449786 -0.003190374 -0.002930333 -0.002670129 -0.002410223 -0.002152453 -0.001896105
 -0.001641349 -0.001385798 -0.00112603 -0.0008620461 -0.0005915713 -0.0003188645 -4.570415E-05 0.0002244559 0.0004892501 0.000749412
 0.001004909 0.001255649 0.001502076 0.001740534 0.001970605 0.002190162 0.002398921 0.002602041 0.002800117 0.003004186
 0.003214712 0.003440876 0.00368137 0.003936132 0.004203075 0.004475859 0.004755387 0.005039764 0.005332041 0.005636455
 0.005951605 0.006279296 0.006612666 0.006947633 0.007281392 0.007610376 0.007940196 0.008271609 0.008609801 0.008956704
 0.009308998 0.009666941 0.01002242 0.01037489 0.01072018 0.01105846 0.01139367 0.01172635 0.01206282 0.01240195
 0.01274327 0.01308376 0.0134154 0.01373567 0.01403621 0.01431626 0.01457057 0.01480221 0.01500932 0.01520383
 0.0153904 0.01558462 0.01579585 0.01602503 0.0162765 0.01653588 0.01680033 0.01706519 0.01732837 0.01760329
 0.01789077 0.01819893 0.01852726 0.01886388 0.01920751 0.01954215 0.01986951 0.02018741 0.02049973 0.0208164
 0.02113838 0.02147385 0.02181707 0.02216554 0.02250969 0.02283985 0.02315103 0.02343685 0.02369806 0.02393398
 0.02414404 0.02432787 0.02448539 0.02461528 0.02472661 0.0248199 0.02490663 0.02498784 0.02506283 0.02513119
 0.02518343 0.02521931 0.02523312 0.02522468 0.02519007 0.0251292 0.02503774 0.0249208 0.02478367 0.0246366
 0.02449585 0.02436529 0.02425679 0.02416144 0.02407822 0.0239955 0.02390693 0.02381045 0.02370264 0.02359221
 0.02347973 0.02337592 0.02328262 0.02320107 0.02313177 0.02306349 0.02299567 0.02291787 0.02283069 0.02273458
 0.02262961 0.0225177 0.02239531 0.02225383 0.02209004 0.021892 0.02166342 0.02140195 0.02111866 0.02082111
 0.02052242 0.02023271 0.01996006 0.01971169 0.0194849 0.01928151 0.01909175 0.01891345 0.01874376 0.01858109
 0.01843564 0.01830795 0.01820816 0.01813598 0.01808283 0.01804546 0.01799487 0.01792792 0.01781426 0.01765621
 0.01744286 0.01718211 0.01688308 0.01655382 0.01620807 0.01585238 0.01549575 0.01514699 0.01481349 0.01450242
 0.01422029 0.01396321 0.01373313 0.01351667 0.01331184 0.01310747 0.01290207 0.01268827 0.01246553 0.01222543
 0.01196774 0.01168897 0.0113904 0.01108044 0.01076104 0.0104456 0.01013425 0.009834161 0.009544677 0.009267495
 0.009002949 0.008752496 0.008515391 0.008292538 0.008079658 0.007875137 0.007672915 0.007469761 0.007262908 0.007050304
 0.006834096 0.006614607 0.006392479 0.006168539 0.005935289 0.005692299 0.005431627 0.00515343 0.004864733 0.004567646
 0.004283033 0.004011679 0.00376923 0.003552597 0.003361256 0.003191646 0.003035765 0.002893866 0.002762093 0.002644209
 0.002542879 0.002459471 0.002398165 0.002350225 0.002315519 0.00227599 0.002226103 0.002154328 0.002055177 0.00193816
 0.001802524 0.001670142 0.00154267 0.001432415 0.001339567 0.001261341 0.001197418 0.001143483 0.001100747 0.001072864
 0.001060385 0.001068419 0.001092948 0.001129809 0.001171981 0.001207545 0.001233798 0.001241973 0.001238192 0.001222427
 0.001205249 0.001191344 0.001187662 0.00119788 0.001222287 0.001262161 0.001312614 0.00137355 0.001437546 0.001504071
 0.00156703 0.001626277 0.001681436 0.00173308 0.001785982 0.001840598 0.001902312 0.00196954 0.002041627 0.002114134
 0.002177716 0.002229855 0.00226045 0.002276892 0.002279979 0.00228481 0.002302297 0.002339595 0.002405485 0.002490443
 0.002594771 0.002702958 0.002811863 0.002911578 0.003000228 0.00307433 0.003133334 0.00317907 0.003211715 0.003236618
 0.003253568 0.003263184 0.003264401 0.00325103 0.003225346 0.003188459 0.003148623 0.003123533 0.00311756 0.003148356
 0.00320478 0.003285127 0.003370607 0.003446168 0.003507093 0.003544422 0.003571021 0.003589185 0.00360881 0.003633982
 0.003659342 0.003684963 0.003703024 0.00371262 0.003715881 0.003713076 0.003712794 0.003715599 0.003729738 0.003755818
 0.003801564 0.00386633 0.003953794 0.004059339 0.004176569 0.004298569 0.004412704 0.004515248 0.00459672 0.004660208
 0.004703337 0.00473537 0.00475926 0.004784618 0.004816116 0.00485424 0.00490129 0.004946962 0.004990362 0.00502195
 0.005040641 0.005046356 0.005039234 0.005025515 0.00500625 0.004992994 0.004987581 0.005006053 0.005047292 0.00511865
 0.005212559 0.005317103 0.005425994 0.005522567 0.005611622 0.005690735 0.005768912 0.005853497 0.005943785 0.006043361
 0.006141695 0.00623612 0.00631911 0.006387281 0.006444972 0.006491479 0.006539198 0.006589103 0.006649131 0.006719545
 0.006798915 0.006887748 0.006989448 0.00710647 0.007254655 0.007432167 0.007645279 0.007882516 0.008124025 0.008358304
 0.008558381 0.008723927 0.008843928 0.008924029 0.008964361 0.008971603 0.008946006 0.008903868 0.008847768 0.008802041
 0.008773308 0.008771149 0.008799807 0.00884356 0.008901814 0.008954343 0.00900047 0.009039433 0.009073126 0.009120256
 0.009181864 0.009275026 0.009394866 0.009537004 0.009692164 0.009838134 0.009970497 0.01007131 0.01014567 0.01019093
 0.01021657 0.01022768 0.01023332 0.01023827 0.01025098 0.01027546 0.01031515 0.01037264 0.01044207 0.01052372
 0.01060585 0.01068771 0.01075727 0.01081399 0.01085089 0.01086879 0.01087287 0.01086513 0.01085918 0.01085478
 0.01085867 0.01086865 0.01088211 0.01090032 0.01092353 0.01095459 0.010998 0.01105089 0.01111361 0.01118004
 0.0112468 0.01131196 0.01137379 0.01143353 0.01149085 0.01154877 0.01160738 0.01167163 0.01174205 0.01181966
 0.01190449 0.01199462 0.01209044 0.01219639 0.01231153 0.01243612 0.01256323 0.01266996 0.01275248 0.01278485
 0.01278377 0.01275927 0.01273712 0.01275354 0.01280663 0.01291437 0.01304123 0.01317594 0.01328557 0.01335354
 0.01337624 0.013347 0.01328622 0.01319451 0.01310054 0.01300695 0.01293131 0.01287433 0.01282917 0.01279495
 0.01275793 0.01272107 0.01269241 0.01267654 0.01269544 0.01274489 0.01282962 0.01293591 0.0130449 0.01314703
 0.01322194 0.01327582 0.01330401 0.01332344 0.01334209 0.01336873 0.01341191 0.01345637 0.01349973 0.01353174
 0.01354813 0.01356622 0.01358755 0.0136185 0.01365922 0.01369154 0.01371466 0.01371235 0.0136872 0.01364515
 0.01358857 0.01352853 0.01346534 0.01340318 0.01334635 0.01330329 0.01327687 0.01327694 0.01329293 0.01332174
 0.01334937 0.01336556 0.0133715 0.01336283 0.01335492 0.01334995 0.01336324 0.01339872 0.01345493 0.0135337
 0.01360455 0.01366581 0.01367624 0.01363607 0.01353303 0.01337288 0.01318 0.0129602 0.01274463 0.01253736
 0.01236043 0.01222058 0.01213897 0.01211576 0.01216573 0.0122655 0.01240717 0.01255624 0.01269221 0.01279765
 0.01285932 0.01288316 0.01286572 0.01282916 0.01277567 0.0127268 0.01268519 0.0126552 0.01263721 0.01263979
 0.01266521 0.01274592 0.01288 0.01307869 0.01332791 0.01358413 0.0138401 0.01405186 0.0142348 0.01439359
 0.01454373 0.01470805 0.01488272 0.01507226 0.01527021 0.01547223 0.01568228 0.01590094 0.01613094 0.01637257
 0.01662984 0.01690216 0.01720366 0.01753626 0.01790062 0.01829667 0.01868939 0.01907581 0.01940904 0.0196897
 0.01989505 0.02003198 0.02010945 0.02013889 0.02015084 0.02015221 0.02017259 0.02019895 0.02023195 0.02024731
 0.02022216 0.02015656 0.02003777 0.01989671 0.01974078 0.01959672 0.01947497 0.01937517 0.01930125 0.01922887
 0.01915708 0.01905222 0.01891249 0.01872303 0.0184861 0.01822506 0.01794437 0.01768252 0.0174394 0.01723601
 0.01706734 0.01693454 0.01682709 0.01673182 0.01663241 0.01650314 0.01634203 0.01613229 0.0159007 0.01565671
 0.01542167 0.01521102 0.01500951 0.01481592 0.01461735 0.01440726 0.01421494 0.01404232 0.01391788 0.01384324
 0.01378761 0.01374725 0.01366232 0.01353599 0.01335283 0.01312663 0.01289907 0.01267758 0.01250708 0.01237074
 0.01226421 0.01216261 0.01202827 0.01187002 0.01167444 0.01148101 0.01131137 0.01117728 0.01109643 0.01103115
 0.01097569 0.01089839 0.01078879 0.01066594 0.01052898 0.01042255 0.01034914</values></Ydata></AB><ScSm><Ydata ylabel="Single channel"><values byteorder="INTEL" format="FLOAT32" numvalues="1814"> 0.0684735 0.06848285 0.06855794 0.06871818 0.06893265 0.06913708 0.06927627 0.06933944 0.06934869 0.06931877
 0.06925894 0.06921463 0.06926052 0.06942613 0.06964897 0.06981651 0.06985451 0.06979182 0.06974685 0.06981558
 0.06994352 0.06993529 0.06963588 0.06910735 0.06859224 0.06828958 0.0682283 0.06840392 0.0688965 0.06964257
 0.07018317 0.06999399 0.06914628 0.06832794 0.06808165 0.0682857 0.06848019 0.06839591 0.06803502 0.06756495
 0.06736527 0.06792623 0.06936696 0.07103795 0.0717546 0.07054335 0.06733601 0.06319509 0.05992556 0.05910432
 0.06096372 0.06407616 0.06643003 0.06703557 0.06639372 0.06547506 0.06467996 0.06396545 0.06351541 0.06377634
 0.06483778 0.06601473 0.06619852 0.06480257 0.0624615 0.06058493 0.06007409 0.06075628 0.06213408 0.0639286
 0.06531139 0.06447135 0.06039497 0.05511495 0.05280121 0.05579448 0.06210935 0.06738243 0.06875797 0.06647959
 0.0626113 0.05932664 0.05809942 0.05930843 0.06216251 0.0653593 0.06787893 0.06903188 0.06828277 0.06571607
 0.06249302 0.06028699 0.06025375 0.06257971 0.06644461 0.07009536 0.07164253 0.07045623 0.06758353 0.06464085
 0.0627531 0.06256153 0.06437604 0.06784908 0.07195744 0.07560098 0.07805518 0.0790388 0.07876683 0.0778152
 0.07668365 0.0757147 0.07540164 0.07608344 0.07713953 0.07722898 0.07575513 0.07366563 0.07247508 0.07269994
 0.07344975 0.07350731 0.07255651 0.07097967 0.06865418 0.06493804 0.06014486 0.05592833 0.05363 0.05326311
 0.05450262 0.05720444 0.06023659 0.06140814 0.05986521 0.05762388 0.0575662 0.06036625 0.0641395 0.06674497
 0.0677651 0.06836799 0.06979459 0.07208602 0.07392135 0.07362141 0.07082292 0.06741457 0.06620172 0.06815216
 0.07146376 0.07377544 0.0746513 0.07531556 0.07651198 0.07735112 0.07623573 0.07275788 0.06872609 0.06705319
 0.06921958 0.07379021 0.07745519 0.07747801 0.07353641 0.06780066 0.06324336 0.06158031 0.06280273 0.06630646
 0.07155897 0.07751201 0.08232929 0.08441313 0.08356921 0.08091395 0.07759869 0.07374245 0.06904551 0.06457193
 0.06296252 0.06593776 0.07209967 0.0781008 0.08163132 0.08256613 0.08165885 0.07911611 0.07482232 0.06973311
 0.06633171 0.06670066 0.07001735 0.07302016 0.07342574 0.07201105 0.07093661 0.07104856 0.07156402 0.07173361
 0.07191594 0.07297163 0.07503555 0.07719401 0.07836963 0.07829931 0.07757705 0.07695788 0.07667144 0.0762578
 0.07521753 0.07401347 0.0740148 0.0759999 0.07908627 0.08163609 0.0828983 0.08328438 0.08327623 0.08258492
 0.08057395 0.07745872 0.07479884 0.07433791 0.07631379 0.07931286 0.08174381 0.08297899 0.08319544 0.08280243
 0.08216961 0.08150959 0.08093075 0.08068848 0.08112125 0.08216532 0.08324763 0.08385675 0.08396129 0.08375226
 0.08327503 0.08250281 0.08160179 0.08093853 0.08081536 0.08124299 0.08198349 0.08276224 0.08336546 0.08360554
 0.08338931 0.08285647 0.08229513 0.08188123 0.08162002 0.08152691 0.0816865 0.08208999 0.08255494 0.08287778
 0.08299389 0.08295368 0.08281368 0.08259811 0.08233301 0.08208402 0.08195525 0.08202052 0.08223087 0.08244057
 0.08257314 0.08269947 0.08288585 0.0830386 0.08300262 0.08277334 0.0825145 0.08238076 0.08239208 0.08247016
 0.08252426 0.08247426 0.08224588 0.08183263 0.08138286 0.08114682 0.08127691 0.08171369 0.08228089 0.08281773
 0.08320749 0.08338987 0.08340472 0.08335458 0.08328643 0.08315841 0.08293822 0.08269483 0.08257767 0.08270445
 0.08305372 0.08347229 0.08380129 0.08397785 0.08402698 0.08402319 0.08406538 0.08420291 0.08435923 0.08440119
 0.08430606 0.08419877 0.08420445 0.08430938 0.08438814 0.08434866 0.08423494 0.08417994 0.08426283 0.0844378
 0.08460833 0.08473822 0.08486691 0.08503082 0.08518827 0.08523765 0.08512773 0.08493447 0.08478932 0.08474162
 0.0847453 0.08477189 0.08486111 0.08503477 0.08522195 0.08531943 0.08530772 0.08526739 0.08527652 0.08531837
 0.08530842 0.08519669 0.0850215 0.08486903 0.08480155 0.08482128 0.08488007 0.08491565 0.08489008 0.0848065
 0.08469553 0.08458556 0.08448527 0.08439888 0.08435688 0.08440784 0.08455454 0.08470805 0.08474 0.08459745
 0.08435723 0.08415565 0.0840646 0.08403817 0.08397645 0.08382882 0.08362781 0.08343726 0.0832922 0.08318728
 0.08309945 0.08301257 0.08293895 0.08292426 0.08300698 0.08315587 0.08326764 0.08325379 0.08312297 0.08296099
 0.08284587 0.08280096 0.08280768 0.08283376 0.0828627 0.08291399 0.0830126 0.08312924 0.0831908 0.083169
 0.0831213 0.08312815 0.0832267 0.08340799 0.08362605 0.08379982 0.08386333 0.08383692 0.08381206 0.08385192
 0.0839405 0.08403592 0.08413236 0.08424905 0.08438797 0.08453276 0.08468278 0.08486566 0.08510811 0.08539852
 0.08568317 0.08590336 0.08604561 0.08616146 0.08633392 0.08661388 0.08697952 0.0873536 0.08766603 0.08790709
 0.08812045 0.08834413 0.08857462 0.08880033 0.08904676 0.08935519 0.08972482 0.09010836 0.0904651 0.09079392
 0.09111473 0.09144013 0.09177136 0.09211347 0.09248641 0.09290937 0.09336108 0.09377032 0.09407241 0.09427629
 0.09446106 0.09471196 0.09506314 0.09547465 0.09584799 0.09609752 0.09623834 0.09638123 0.09661265 0.09690575
 0.0971815 0.09743068 0.09772564 0.09811489 0.0985496 0.09893166 0.09921291 0.09943186 0.09965883 0.09991656
 0.1001587 0.1003285 0.1004312 0.1005306 0.1006775 0.1008705 0.1011019 0.1013985 0.101779 0.1021955
 0.1025629 0.1028378 0.103037 0.1031938 0.1033303 0.1034581 0.103576 0.1036773 0.1037739 0.1038913
 0.104025 0.1041349 0.1042057 0.1042795 0.1044063 0.1045941 0.1048307 0.1051185 0.1054538 0.1057962
 0.1061069 0.1064089 0.1067619 0.1071626 0.1075168 0.107738 0.1078424 0.1079091 0.1079815 0.1080591
 0.108166 0.1083606 0.1086671 0.1090421 0.1094249 0.1097911 0.110148 0.1104963 0.1108103 0.1110465
 0.1111757 0.1112129 0.1112201 0.1112746 0.1114292 0.111689 0.1120087 0.1123167 0.1125558 0.1127026
 0.1127503 0.1126981 0.1125789 0.1124735 0.1124525 0.1124942 0.1124903 0.1123378 0.1120072 0.1115215
 0.110902 0.1101617 0.1093395 0.108515 0.1077824 0.1072116 0.1068382 0.1066885 0.1067955 0.1071667
 0.1077377 0.1083829 0.1089792 0.1094384 0.1096779 0.1096101 0.1091983 0.1085058 0.1076607 0.106783
 0.105948 0.105184 0.1044763 0.1038025 0.1032053 0.102827 0.1028485 0.1033925 0.1044725 0.1059968
 0.1077887 0.1096243 0.1113051 0.1127311 0.1139147 0.1149252 0.1158276 0.116668 0.1174832 0.1182865
 0.1190493 0.1197271 0.1203101 0.1208283 0.1213107 0.1217579 0.122149 0.1224619 0.1226919 0.1228634
 0.1230092 0.1231282 0.1231857 0.1231669 0.1231044 0.1230337 0.1229418 0.1227737 0.1224775 0.1220402
 0.1215109 0.1210207 0.1207744 0.1209878 0.1217841 0.1231178 0.1247955 0.1265807 0.1282863 0.1297867
 0.1309991 0.1318984 0.1325401 0.1330283 0.1334531 0.1338611 0.1342671 0.1346686 0.1350543 0.1354162
 0.1357589 0.1360997 0.1364598 0.1368465 0.1372361 0.1375863 0.1378805 0.1381556 0.138473 0.1388604
 0.1392849 0.1396871 0.1400427 0.1403832 0.1407443 0.1411084 0.1414248 0.1416795 0.1419152 0.1421841
 0.1425079 0.1428791 0.1432686 0.1436289 0.1439202 0.1441469 0.1443519 0.1445733 0.1448175 0.1450749
 0.1453435 0.145627 0.1459225 0.1462243 0.1465371 0.146865 0.1471863 0.1474577 0.1476585 0.1478207
 0.148 0.1482235 0.1484727 0.1487147 0.1489424 0.1491851 0.1494772 0.1498159 0.1501517 0.150429
 0.150634 0.1507986 0.1509653 0.1511581 0.1513806 0.1516247 0.151875 0.1521161 0.1523454 0.152575
 0.152818 0.1530746 0.1533322 0.1535771 0.1538064 0.1540309 0.1542647 0.1545118 0.1547662 0.1550282
 0.1553088 0.1556098 0.1559093 0.1561767 0.1563985 0.1565832 0.1567474 0.1569068 0.1570754 0.1572635
 0.157473 0.1576992 0.1579351 0.1581748 0.1584156 0.1586568 0.1588979 0.1591358 0.1593664 0.1595899
 0.1598131 0.1600462 0.1602941 0.160549 0.1607961 0.1610261 0.1612447 0.1614654 0.1616968 0.1619337
 0.1621628 0.1623757 0.1625785 0.1627858 0.1630052 0.1632308 0.1634518 0.1636639 0.1638717 0.1640822
 0.1642985 0.16452 0.1647461 0.1649767 0.1652088 0.1654363 0.1656559 0.1658685 0.1660777 0.1662886
 0.1665059 0.1667298 0.1669562 0.1671813 0.167404 0.1676244 0.1678437 0.1680637 0.1682839 0.1685013
 0.1687154 0.1689281 0.1691408 0.1693549 0.1695745 0.1698015 0.170032 0.1702595 0.1704812 0.1706986
 0.1709159 0.1711365 0.1713624 0.1715933 0.1718258 0.1720522 0.172268 0.1724814 0.1727078 0.1729513
 0.1732 0.1734416 0.1736739 0.1739005 0.1741233 0.1743402 0.1745465 0.1747409 0.174929 0.1751169
 0.1753071 0.1755021 0.1757049 0.1759129 0.1761213 0.1763306 0.1765432 0.1767559 0.1769649 0.1771726
 0.1773847 0.1776076 0.1778447 0.1780902 0.1783296 0.1785548 0.1787688 0.1789767 0.1791828 0.1793942
 0.1796148 0.1798393 0.1800633 0.1802904 0.1805222 0.180755 0.1809868 0.1812159 0.1814401 0.1816617
 0.1818852 0.1821095 0.182334 0.1825661 0.1828066 0.1830404 0.1832568 0.1834639 0.1836729 0.1838864
 0.1841032 0.184322 0.1845407 0.1847621 0.1849893 0.185218 0.1854449 0.1856763 0.1859119 0.1861391
 0.1863528 0.1865638 0.1867823 0.1870119 0.1872541 0.1874986 0.1877277 0.1879387 0.1881396 0.1883186
 0.1884293 0.188362 0.1878469 0.1863372 0.182983 0.1767941 0.167028 0.1536449 0.1374815 0.1199587
 0.1025572 0.08642381 0.07224815 0.06034472 0.05079985 0.04356616 0.03851879 0.0355487 0.03466441 0.03610361
 0.0404527 0.04829319 0.05889321 0.06906915 0.07443593 0.07286288 0.0665039 0.05983626 0.05595147 0.05507043
 0.05587465 0.05723589 0.05879726 0.060766 0.0634902 0.06705353 0.07126762 0.07611831 0.08197634 0.08912189
 0.09718421 0.1053042 0.1128778 0.1200189 0.1272629 0.1349081 0.1427013 0.15009 0.1566627 0.162349
 0.1673265 0.1718278 0.1760119 0.1799518 0.1836872 0.1872232 0.1904468 0.1930913 0.1948677 0.1956861
 0.19576 0.1954862 0.1952158 0.1951203 0.195226 0.1955104 0.1959472 0.1965109 0.1971797 0.1979356
 0.1987533 0.1995996 0.2004452 0.2012677 0.2020496 0.2027782 0.2034453 0.2040477 0.2045932 0.2050984
 0.2055743 0.2060211 0.2064386 0.2068312 0.2072004 0.2075483 0.2078852 0.2082217 0.2085544 0.2088682
 0.2091512 0.2094024 0.2096314 0.2098515 0.210069 0.2102811 0.2104865 0.210692 0.2109055 0.211127
 0.2113516 0.2115738 0.21179 0.2119993 0.2122034 0.2124032 0.2125999 0.2127969 0.2129954 0.2131914
 0.2133823 0.2135733 0.2137712 0.213974 0.2141749 0.2143726 0.2145731 0.2147815 0.2149944 0.2152029
 0.2154046 0.2156111 0.2158339 0.2160671 0.2162961 0.2165184 0.2167415 0.216966 0.2171873 0.2174053
 0.2176197 0.21782 0.2179968 0.2181598 0.2183368 0.2185481 0.2187855 0.2190197 0.2192325 0.2194317
 0.2196324 0.2198357 0.2200332 0.2202185 0.2203958 0.2205853 0.2208135 0.2210828 0.2213652 0.2216346
 0.2218882 0.2221302 0.222364 0.2226011 0.2228467 0.2230746 0.2232495 0.2233828 0.2235443 0.2238067
 0.2241729 0.224565 0.2248962 0.2251492 0.2253681 0.2255989 0.2258618 0.226137 0.2263405 0.2263806
 0.2263035 0.2263221 0.2266202 0.2271655 0.227764 0.2282544 0.2286075 0.2288807 0.22913 0.2293569
 0.2295122 0.2295539 0.2295277 0.2295859 0.2298782 0.2303935 0.230956 0.2314065 0.2317289 0.231981
 0.2321979 0.2323887 0.2325089 0.2324149 0.2320158 0.2315324 0.2314336 0.2319877 0.2329629 0.2338722
 0.2344494 0.2347838 0.2350544 0.235312 0.2355263 0.2356148 0.2353272 0.234392 0.2330329 0.2321121
 0.2324139 0.2338544 0.2356264 0.2370082 0.2378179 0.2382349 0.2384861 0.2386951 0.2387899 0.2385108
 0.2377025 0.2367045 0.236266 0.2368537 0.238126 0.2392977 0.2399397 0.2402031 0.2404026 0.2406678
 0.2408554 0.2405 0.2390793 0.2367808 0.2348891 0.2348803 0.2369778 0.2398842 0.2420699 0.2430926
 0.2434756 0.2435728 0.2430456 0.2414669 0.2389553 0.2361214 0.2338797 0.2333234 0.2350002 0.2380093
 0.240516 0.2415608 0.2418641 0.2426229 0.244077 0.2455177 0.2462157 0.245988 0.2450643 0.2436797
 0.2419643 0.2403263 0.2396825 0.2408095 0.2434033 0.2461789 0.2480555 0.2489818 0.2493843 0.2489066
 0.2461487 0.2403567 0.2335369 0.2298982 0.2321349 0.2386041 0.2450841 0.2489221 0.2504911 0.2512087
 0.2516443 0.2513591 0.2491609 0.2437531 0.2357653 0.2290385 0.2280287 0.2333964 0.2412606 0.2468273
 0.2476609 0.2439438 0.2376122 0.2317747 0.2294441 0.2317129 0.2372783 0.2437314 0.2490039 0.2519364
 0.2522666 0.2505119 0.2479239 0.2461833 0.246188 0.246723 0.2453816 0.2416098 0.2376366 0.2351963
 0.2328279 0.2285617 0.2242505 0.2243427 0.2301077 0.2375187 0.241782 0.2421946 0.241266 0.2401402
 0.2366258 0.2283451 0.2172394 0.2096433 0.2107463 0.2192077 0.2283561 0.2327208 0.2323768 0.2309793
 0.2308874 0.2307629 0.2274628 0.2201475 0.2123543 0.2090243 0.2112399 0.2152505 0.2169024 0.2149512
 0.2096007 0.2011646 0.1924498 0.1895995 0.1968964 0.2115011 0.2256888 0.2332171 0.2315842 0.2206048
 0.2032822 0.1876582 0.1829052 0.1911051 0.204722 0.2135419 0.2127718 0.2038736 0.1902066 0.1747467
 0.1614686 0.1557273 0.1610367 0.1755237 0.19202 0.2016229 0.1985953 0.1848287 0.1702428 0.1656415
 0.1728761 0.1835777 0.1885451 0.1860953 0.1807218 0.177289 0.1782248 0.1831496 0.1892859 0.194046
 0.1970928 0.1974315 0.1906168 0.1741091 0.1544152 0.1428263 0.1436851 0.152121 0.1630913 0.175911
 0.1884218 0.193882 0.1885764 0.178902 0.1759583 0.1837736 0.1958434 0.2030839 0.2028262 0.1993224
 0.1971432 0.1962751 0.194428 0.1923634 0.194072 0.2012808 0.2104468 0.2167141 0.2189676 0.2193972
 0.2197859 0.2201569 0.2200263 0.2192206 0.2178062 0.2162064 0.2150642 0.2145122 0.2140443 0.2132654
 0.2118789 0.2085797 0.201338 0.1902892 0.1795681 0.1740558 0.1742157 0.1764179 0.1783164 0.1802262
 0.1801089 0.1721458 0.1544368 0.1353247 0.1273274 0.1350426 0.1517318 0.1670009 0.1747524 0.1736913
 0.1642098 0.1486085 0.1336627 0.1285379 0.1373148 0.1550646 0.1731278 0.1865858 0.1948423 0.1975005
 0.1934745 0.1839903 0.1738016 0.1684873 0.1710484 0.1805623 0.1924923 0.199862 0.196648 0.1837646
 0.1717817 0.1731599 0.1891524 0.2076983 0.2169755 0.2173915 0.2168211 0.2183555 0.2187542 0.2170403
 0.2179596 0.2254549 0.2368436 0.2454509 0.2464663 0.2388404 0.2246592 0.2096312 0.2016186 0.2043298
 0.2130864 0.2198983 0.2211994 0.2173896 0.208111 0.1942199 0.1828018 0.1829158 0.1950988 0.2101531
 0.2196116 0.223457 0.2262945 0.2294138 0.2292252 0.2227028 0.212437 0.2050384 0.2045903 0.2090634
 0.2137301 0.2161467 0.2161858 0.2132081 0.2064555 0.1982317 0.1939332 0.1973543 0.2067559 0.216502
 0.2221127 0.2230667 0.2214478 0.2192768 0.2171798 0.2145633 0.2109323 0.2076069 0.2074762 0.2118891
 0.2184537 0.2234611 0.2261149 0.2288022 0.2333309 0.2384239 0.241261 0.240553 0.2377707 0.2358638
 0.2368888 0.2403658 0.2436286 0.2440992 0.2417461 0.239352 0.2399606 0.2439824 0.2491421 0.2530716
 0.2552469 0.2564951 0.2575884 0.2585688 0.2587207 0.2571148 0.2539157 0.251139 0.2512229 0.2546129
 0.2593387 0.2630491 0.2649076 0.2654653 0.2653734 0.2646991 0.2633101 0.2615004 0.2599947 0.2593765
 0.2596701 0.2605016 0.2614863 0.2623902 0.2630998 0.2636053 0.2639741 0.2642665 0.2645003 0.2646949
 0.2648657 0.2649674 0.2649352 0.2648234 0.2648176 0.265042 0.265406 0.2656979 0.2657755 0.2655881
 0.2650738 0.2641643 0.2629014 0.2614357 0.259863 0.2581624 0.2564016 0.2549727 0.2544829 0.2553037
 0.2572248 0.2595816 0.26171 0.2632747 0.2642599 0.2647926 0.265023 0.2650875 0.2650829 0.2650439
 0.2649597 0.26482 0.2646323 0.2644034 0.2641323 0.2638394 0.2635773 0.2633892 0.2632611 0.2631281
 0.2629228 0.2626143 0.2622159 0.2617679 0.2613012 0.2608026 0.2602183 0.2594997 0.2586528 0.2577424
 0.2568505 0.2560306 0.2552849 0.2545685 0.2538206 0.2529996 0.252077 0.251008 0.249761 0.2484021
 0.2470974 0.2459795 0.2450363 0.2441522 0.2432175 0.242174 0.2410047 0.2397306 0.2384009 0.2370573
 0.2357085 0.2343386 0.2329226 0.2314346 0.229858 0.2281942 0.2264563 0.2246569 0.2228092 0.2209303
 0.2190223 0.2170314 0.2148347 0.21228 0.2092436 0.2056552 0.2015034 0.196852 0.1918519 0.1867131
 0.1816478 0.1768265 0.1723668 0.1683506 0.1648507 0.1619393 0.159679 0.1581124 0.1572577 0.1571047
 0.1576231 0.1587742 0.1604974 0.1626799 0.1651608 0.1677724 0.1703655 0.1728104 0.1750199 0.1769908
 0.1787994 0.1805255 0.1821792 0.1837091 0.1850728 0.1862712 0.1873126 0.1881846 0.188885 0.1894553
 0.1899569 0.1904299 0.1908897 0.1913392 0.1917675 0.1921522 0.19248 0.1927599 0.1930143 0.1932653
 0.1935253 0.1937996 0.194099 0.1944483 0.1948763 0.1953967 0.1960019 0.1966745 0.1974044 0.1981913
 0.1990282 0.1998948 0.2007841 0.2017306 0.20279 0.203989 0.2053059 0.2066923 0.2080984 0.2094802
 0.2107916 0.2119786 0.2129886 0.2137902 0.2143762 0.2147522 0.2149379 0.2149718 0.2148977 0.2147464
 0.2145377 0.2142863 0.2139962 0.2136647 0.2132938 0.2128888 0.2124498 0.2119817 0.2115029 0.2110327
 0.2105786 0.2101437 0.2097358 0.2093616 0.2090184 0.2086946 0.2083715 0.2080292 0.2076562 0.2072524
 0.2068205 0.2063534 0.2058237 0.2051924 0.2044404 0.203586 0.2026586 0.2016588 0.2005624 0.1993579
 0.1980599 0.1966849 0.1952296 0.1936812 0.1920409 0.1903203 0.1885102 0.1865819 0.1845412 0.1824656
 0.1804607 0.1785877 0.1768486 0.1752221 0.1736881 0.1722293 0.1708332 0.1694998 0.1682408 0.1670664
 0.1659698 0.1649241 0.1639011 0.1628966 0.1619347 0.1610556 0.1602941 0.1596553 0.1591115 0.1586352
 0.1582234 0.1578784 0.157593 0.1573771 0.157266 0.1572661 0.1573143 0.1573216 0.1572438 0.1570999
 0.1569397 0.1568041 0.1567049 0.1566292 0.1565551 0.1564509 0.1562611 0.155909 0.1553179 0.1544296
 0.1532191 0.151709 0.1499716 0.1481182 0.1462846 0.1446009 0.143154 0.1419768 0.1410643 0.1403787
 0.1398499 0.1394092 0.1390388 0.1387859 0.1387207 0.1388556 0.1390864 0.1392462 0.1392572 0.1392119
 0.1392842 0.1395832 0.1400991 0.1407399 0.1413937 0.1419794 0.1424567 0.1428061 0.1430274 0.1431461
 0.1431845 0.1431334 0.142983 0.1427547 0.1424738 0.1421416 0.1417491 0.1412883 0.14075 0.1401362
 0.1394584 0.1387139 0.1378921 0.1369918 0.1359908 0.1348489 0.133616 0.1325028 0.1317776 0.1316069
 0.1319886 0.1327704 0.1337396 0.1347493 0.1357135 0.1364675 0.1368063 0.1368092 0.1370042 0.1379957
 0.1398939 0.1421921 0.1442071 0.1455601 0.1462354 0.1463386 0.1459438 0.1450888 0.1437568 0.1418954
 0.1395421 0.1368573 0.1339986 0.131089 0.1283018 0.125817 0.1237154 0.1220075 0.1206806 0.1197539
 0.1193457 0.1191193 0.1172818 0.1114931 0.102468 0.09564443 0.09663415 0.1049158 0.1141763 0.1190004
 0.1192045 0.1176369 0.1162598 0.1153565 0.1148189 0.1147858 0.115386 0.1164944 0.1177539 0.1187905
 0.1194455 0.1197402 0.1196155 0.1187285 0.1163941 0.1117951 0.1046363 0.09574962 0.08682252 0.07940424
 0.07420275 0.07110462 0.06951566 0.06871236 0.06819673 0.06791731 0.06816012 0.06920571 0.07108386 0.07362588
 0.07664248 0.07991714 0.08308356 0.08574543 0.08778393 0.08937867 0.09068233 0.09162902 0.09208261 0.09202038
 0.09153806 0.09078228 0.0899054 0.08900976 0.0880863 0.08703701 0.08582947 0.08464424 0.08378325 0.08338612
 0.0833201 0.08337396 0.08344355 0.08350546 0.08354849 0.08357935 0.08361971 0.08369902 0.08388366 0.08424209
 0.08473636 0.08521959 0.08556862 0.08577416 0.08590676 0.08599952 0.08593406 0.08552389 0.08481196 0.084135
 0.08369321 0.0832132 0.08231242 0.08110001 0.08014093 0.07984933 0.08011618 0.08051443 0.08069591 0.08057998
 0.08033337 0.08026569 0.08061576 0.08127379</values></Ydata></ScSm><ScRf><Ydata ylabel="Single channel"><values byteorder="INTEL" format="FLOAT32" numvalues="1820"> 0.06034984 0.06050252 0.06060075 0.06064291 0.06064578 0.06064896 0.06070322 0.0608365 0.06102872 0.06122129
 0.06135921 0.06142863 0.06144647 0.06142227 0.06136212 0.06131149 0.06134778 0.06150324 0.06171647 0.06187681
 0.06191415 0.06185795 0.06181775 0.06187809 0.06198592 0.06196382 0.06167518 0.06118282 0.06071278 0.06044742
 0.06040703 0.06057619 0.0610222 0.06169739 0.06220091 0.06205729 0.06131147 0.06056926 0.06032615 0.06049062
 0.06065984 0.06059077 0.06027939 0.05987113 0.05970334 0.06021373 0.06150843 0.06300561 0.06364563 0.0625618
 0.05970059 0.0560145 0.05310792 0.05237835 0.05403415 0.05681097 0.0589157 0.05945631 0.0588765 0.05805238
 0.0573499 0.05672494 0.05632954 0.05655885 0.0574986 0.05854224 0.05869993 0.05744823 0.05535889 0.0536954
 0.05325836 0.05388143 0.05511192 0.05670328 0.05792347 0.05715924 0.05350556 0.04877995 0.04671262 0.04939967
 0.05506663 0.05980697 0.06105805 0.05903221 0.05557789 0.05264479 0.05155199 0.05263475 0.05518473 0.05804186
 0.06029814 0.06133558 0.06067102 0.05837768 0.05549427 0.05351755 0.0534805 0.05554971 0.05899365 0.06224883
 0.06362996 0.06257507 0.06001773 0.05739893 0.05572054 0.05555285 0.05717251 0.06027333 0.06394832 0.06721875
 0.06943314 0.07033049 0.07009701 0.0692508 0.06824481 0.0673843 0.067104 0.06770674 0.06864612 0.06872821
 0.06741425 0.06554493 0.06447666 0.06467745 0.0653514 0.06540594 0.06455883 0.06315712 0.06109025 0.05777349
 0.05347861 0.04968897 0.04761748 0.04728583 0.04840728 0.05085362 0.05360632 0.05468994 0.05332518 0.05131372
 0.05124488 0.05373305 0.05709726 0.0594238 0.06033988 0.06088845 0.06217522 0.06423448 0.06588542 0.06562592
 0.06312913 0.0600866 0.05901569 0.06078526 0.06377275 0.06585194 0.06663448 0.0672335 0.06832763 0.06911432
 0.06814668 0.0650509 0.0614517 0.05996682 0.06192527 0.066038 0.06933349 0.06935517 0.06581596 0.06066993
 0.05659077 0.05511875 0.05624472 0.05942956 0.06420082 0.06961845 0.0740259 0.07597128 0.0752598 0.07288717
 0.06990193 0.0664303 0.06220786 0.05818984 0.05676331 0.05949503 0.065127 0.07062142 0.07387264 0.07476225
 0.07397902 0.07171606 0.06786624 0.06329393 0.06026091 0.06066998 0.06377092 0.06657834 0.06699833 0.06574294
 0.06479947 0.06495225 0.06548555 0.06570981 0.0659541 0.0670099 0.06899838 0.07107236 0.07223277 0.07223302
 0.07162431 0.07111375 0.07091945 0.07060985 0.06971499 0.06866896 0.0687529 0.07068895 0.07364446 0.07608834
 0.07732638 0.07775023 0.07780942 0.07722615 0.07539812 0.07252825 0.07008938 0.06973295 0.07169057 0.07462405
 0.07701537 0.07826214 0.0785414 0.07825688 0.07776208 0.0772469 0.07679962 0.07665333 0.07712725 0.07816821
 0.07924671 0.07989011 0.08007155 0.07996487 0.07960247 0.07895379 0.07817911 0.07762943 0.07758933 0.07806513
 0.07883431 0.07964693 0.08030725 0.08063121 0.08051564 0.08008508 0.07961994 0.07930021 0.07913643 0.07913987
 0.07938607 0.07986286 0.08039175 0.08077416 0.08094886 0.08097002 0.08089669 0.08075137 0.08055674 0.08037941
 0.08032686 0.0804704 0.08075325 0.08102719 0.08122209 0.08141515 0.08167084 0.08188887 0.08191061 0.0817337
 0.08152585 0.08144148 0.08149737 0.08161713 0.08171956 0.08173075 0.0815707 0.08122189 0.08082767 0.08064068
 0.08081988 0.0813156 0.08195889 0.08258286 0.0830517 0.08329055 0.08334343 0.08332752 0.0832964 0.08320355
 0.08301331 0.08279946 0.08271705 0.08288454 0.08328095 0.08375527 0.08414513 0.08437771 0.08447307 0.08451221
 0.08460312 0.08479455 0.08500038 0.08507938 0.08501026 0.08492616 0.08495682 0.08508411 0.0851763 0.08514364
 0.08504157 0.08501412 0.08514217 0.08536974 0.08558575 0.0857483 0.08590691 0.08611238 0.08632237 0.08641594
 0.08632219 0.08611679 0.08594884 0.08588542 0.08588694 0.08592534 0.08604126 0.08625426 0.08648302 0.08661211
 0.0866193 0.08659434 0.08662654 0.08670109 0.08672239 0.08662583 0.0864455 0.08627891 0.08620717 0.0862461
 0.08634688 0.08643075 0.0864377 0.08636004 0.08623664 0.08611496 0.08602013 0.0859649 0.08598197 0.08611639
 0.08635725 0.08658801 0.08665077 0.0864884 0.08621094 0.08599889 0.08593762 0.08595455 0.0859113 0.08573932
 0.0854831 0.08523504 0.08505183 0.08493008 0.08483805 0.08475694 0.08470309 0.08471975 0.08483039 0.08498141
 0.08505091 0.08494934 0.08470906 0.08445147 0.08427589 0.08420122 0.08418995 0.08419265 0.08418617 0.08419618
 0.08426091 0.08435676 0.08439992 0.08434452 0.084241 0.08418165 0.08422738 0.08438665 0.08460552 0.08477066
 0.0847875 0.08468029 0.08457175 0.08455241 0.08461005 0.08469024 0.0847731 0.08486816 0.08497392 0.08507941
 0.0851943 0.08535051 0.08556782 0.08582452 0.08606409 0.08623428 0.08633201 0.08641662 0.08657011 0.08683147
 0.08716448 0.08748814 0.08774093 0.08792366 0.08808465 0.0882636 0.08845817 0.0886549 0.08887395 0.089152
 0.0894855 0.08982541 0.09013343 0.09041625 0.09069842 0.09098625 0.09127317 0.09157009 0.09191377 0.09232943
 0.09277865 0.09316376 0.09340927 0.09353792 0.09365405 0.09386012 0.09418947 0.09458563 0.09492899 0.09512454
 0.09519977 0.09528913 0.09549025 0.09576511 0.09601963 0.09624743 0.09653787 0.09694503 0.09739968 0.09777299
 0.09800542 0.09815377 0.09831582 0.09852404 0.09872344 0.0988525 0.09892532 0.09901161 0.09914872 0.09931703
 0.09950978 0.09977412 0.1001445 0.10057 0.1009521 0.1012371 0.1014392 0.1015927 0.1017172 0.1018143
 0.1018724 0.1018896 0.1019024 0.1019621 0.1020691 0.1021654 0.1022118 0.1022395 0.1023077 0.1024443
 0.1026499 0.102924 0.1032468 0.1035622 0.1038268 0.1040741 0.1043797 0.1047455 0.1050646 0.105236
 0.1052789 0.10529 0.1053225 0.1053675 0.105435 0.1055796 0.1058324 0.1061575 0.1064981 0.1068321
 0.1071687 0.1075097 0.1078266 0.1080673 0.1081875 0.1081911 0.108144 0.1081403 0.1082507 0.108489
 0.1088127 0.1091503 0.1094384 0.1096376 0.1097248 0.1097 0.1096203 0.1095963 0.1097081 0.1099162
 0.1100814 0.1100792 0.1098769 0.1095057 0.1089975 0.1083743 0.1076852 0.1070199 0.1064705 0.1060863
 0.105874 0.1058422 0.1060268 0.1064525 0.1070721 0.1077707 0.1084317 0.1089703 0.1093003 0.1093255
 0.1090066 0.1084139 0.1076854 0.1069436 0.1062609 0.1056575 0.1051006 0.1045454 0.1040249 0.103692
 0.1037425 0.1042943 0.1053297 0.1067107 0.1082269 0.1096625 0.110878 0.1118549 0.1126636 0.1133834
 0.1140565 0.114706 0.1153613 0.1160336 0.116682 0.1172451 0.1177103 0.118123 0.118526 0.1189159
 0.1192588 0.1195296 0.119739 0.1199319 0.1201435 0.1203442 0.1204549 0.1204349 0.120329 0.1202114
 0.1201032 0.1199613 0.1197257 0.1193683 0.1189265 0.1185233 0.1183451 0.1185636 0.1192385 0.1202813
 0.1215205 0.12281 0.124067 0.1252179 0.126164 0.1268401 0.1272801 0.1275889 0.1278602 0.1281394
 0.1284387 0.1287521 0.1290608 0.1293484 0.1296166 0.1298864 0.1301855 0.1305256 0.1308808 0.1311982
 0.1314479 0.131662 0.1319127 0.1322463 0.1326376 0.1330178 0.133348 0.1336533 0.13397 0.1342817
 0.1345362 0.13472 0.1348803 0.1350801 0.135356 0.1357088 0.1360991 0.1364548 0.1367197 0.1369014
 0.1370578 0.1372378 0.1374508 0.1376853 0.1379333 0.1381894 0.1384467 0.1387057 0.1389815 0.1392847
 0.1395906 0.1398454 0.1400168 0.1401329 0.1402586 0.1404365 0.1406567 0.1408807 0.1410886 0.141304
 0.1415684 0.1418895 0.1422178 0.1424851 0.1426663 0.1427923 0.1429126 0.1430573 0.1432339 0.1434379
 0.1436557 0.1438695 0.1440726 0.1442755 0.1444904 0.1447129 0.1449282 0.1451297 0.1453253 0.1455271
 0.1457413 0.145966 0.1461988 0.1464451 0.1467161 0.1470092 0.1472935 0.1475291 0.1477025 0.147835
 0.1479575 0.1480898 0.1482425 0.1484219 0.1486256 0.1488414 0.149055 0.1492591 0.1494546 0.1496475
 0.1498425 0.1500397 0.1502382 0.1504415 0.1506569 0.1508883 0.151128 0.1513588 0.1515662 0.1517512
 0.1519297 0.1521185 0.1523224 0.1525331 0.1527365 0.1529258 0.1531093 0.1533012 0.1535039 0.1537054
 0.1538951 0.1540751 0.154254 0.1544387 0.1546312 0.1548291 0.1550271 0.1552215 0.155413 0.1556047
 0.1557985 0.155995 0.1561933 0.1563918 0.1565885 0.1567825 0.1569782 0.1571837 0.1574013 0.1576213
 0.1578298 0.1580221 0.1582063 0.1583946 0.1585928 0.1587962 0.1589945 0.1591838 0.1593707 0.1595643
 0.1597671 0.1599742 0.1601787 0.1603778 0.1605778 0.1607862 0.161002 0.1612182 0.1614327 0.1616466
 0.1618574 0.1620632 0.1622704 0.1624856 0.1627075 0.162931 0.1631546 0.1633776 0.1635948 0.1637963
 0.1639743 0.1641326 0.164288 0.1644562 0.1646383 0.1648254 0.1650087 0.1651859 0.1653621 0.1655474
 0.1657458 0.1659507 0.1661568 0.1663654 0.1665764 0.1667856 0.1669916 0.1671957 0.1673963 0.167592
 0.1677855 0.1679799 0.1681774 0.1683805 0.1685881 0.1687966 0.1690072 0.1692243 0.1694448 0.1696621
 0.1698768 0.1700924 0.1703061 0.1705145 0.1707183 0.1709181 0.1711152 0.1713157 0.1715229 0.1717325
 0.1719401 0.1721461 0.1723494 0.1725513 0.1727588 0.1729732 0.1731854 0.1733915 0.173599 0.1738129
 0.1740324 0.1742567 0.1744817 0.1746985 0.1749054 0.1751098 0.1753174 0.1755319 0.1757555 0.1759792
 0.1761901 0.1763917 0.1765935 0.1767803 0.1769022 0.176852 0.1763748 0.1749579 0.1718038 0.1659827
 0.1568004 0.1442249 0.1290409 0.1125717 0.09619901 0.08100393 0.0676468 0.05643306 0.04744681 0.04064056
 0.03589091 0.0330919 0.0322541 0.03360531 0.03769811 0.04507955 0.0550629 0.0646516 0.06971231 0.06823359
 0.06224354 0.05596153 0.05230107 0.05147146 0.05223173 0.05351748 0.05498914 0.05684185 0.05940741 0.0627667
 0.06674043 0.07131434 0.07684148 0.08358958 0.09120527 0.098867 0.1059955 0.1127016 0.1195084 0.1267166
 0.134092 0.1411 0.1473284 0.1526919 0.1573588 0.1615713 0.1655052 0.1692362 0.1727868 0.1761439
 0.1791954 0.1816929 0.1833638 0.1841194 0.1841653 0.1838927 0.1836475 0.1835846 0.1837057 0.1839741
 0.1843715 0.1848875 0.1855057 0.1862032 0.1869523 0.1877287 0.1885169 0.1892998 0.1900519 0.1907529
 0.191399 0.1919958 0.1925472 0.1930539 0.1935157 0.1939361 0.1943247 0.1946916 0.1950389 0.1953656
 0.1956797 0.1959904 0.1962938 0.1965754 0.1968257 0.1970479 0.1972541 0.1974591 0.197671 0.1978881
 0.1981056 0.1983224 0.1985387 0.1987532 0.1989637 0.1991688 0.1993666 0.1995578 0.1997462 0.1999345
 0.200122 0.2003093 0.2004998 0.2006966 0.2008986 0.2011001 0.201293 0.2014737 0.2016484 0.2018286
 0.2020224 0.2022302 0.2024447 0.2026541 0.2028529 0.2030518 0.2032634 0.203484 0.2037012 0.2039145
 0.2041324 0.2043559 0.2045777 0.20479 0.2049811 0.2051387 0.2052687 0.2054031 0.2055763 0.205795
 0.2060342 0.2062615 0.2064672 0.2066675 0.2068789 0.2070976 0.2073043 0.2074839 0.2076421 0.2078112
 0.2080266 0.2082876 0.2085554 0.208801 0.2090298 0.2092557 0.2094824 0.2097144 0.2099521 0.2101708
 0.2103377 0.2104614 0.2106072 0.210847 0.21119 0.211567 0.2118927 0.2121416 0.2123521 0.2125752
 0.2128392 0.2131227 0.2133329 0.2133731 0.213289 0.2132892 0.2135514 0.2140478 0.214604 0.2150798
 0.2154504 0.2157563 0.2160304 0.2162641 0.2164146 0.2164523 0.2164263 0.2164802 0.2167546 0.2172415
 0.2177755 0.2182006 0.2184939 0.2187095 0.2188896 0.2190563 0.2191759 0.2191093 0.2187582 0.21832
 0.2182337 0.2187504 0.2196493 0.2204808 0.2210169 0.2213582 0.2216641 0.2219543 0.2221782 0.2222576
 0.2219723 0.2210826 0.2198047 0.2189475 0.2192447 0.2206127 0.222287 0.2235875 0.2243485 0.224745
 0.2249935 0.2252086 0.2253194 0.2250769 0.2243304 0.2233973 0.222985 0.2235392 0.2247439 0.2258615
 0.2264885 0.2267684 0.2269938 0.2272741 0.2274638 0.2271262 0.2257768 0.2235969 0.2218022 0.2217951
 0.2237964 0.2265805 0.2286899 0.2296905 0.2300677 0.2301578 0.2296516 0.2281577 0.2257965 0.2231451
 0.2210598 0.2205665 0.2221799 0.2250484 0.2274372 0.2284405 0.2287442 0.2294863 0.2308972 0.2323063
 0.2330155 0.2328374 0.2319782 0.2306615 0.2290239 0.2274686 0.2268735 0.2279722 0.2304667 0.2331315
 0.2349397 0.2358419 0.2362432 0.2358105 0.2332194 0.2277507 0.2212982 0.2178514 0.2199744 0.2261215
 0.2322944 0.2359745 0.2375091 0.238236 0.2386878 0.2384408 0.2363608 0.2312236 0.2236402 0.2172705
 0.2163491 0.2214964 0.2290181 0.2343554 0.2351903 0.2316914 0.225699 0.2201762 0.2179971 0.2202079
 0.2255722 0.2317903 0.2368758 0.2397113 0.2400476 0.238386 0.235929 0.2342936 0.2343492 0.2349309
 0.2337171 0.2301587 0.2263877 0.2240806 0.2218577 0.2178364 0.213778 0.2139292 0.219504 0.226651
 0.2307867 0.2312482 0.2304443 0.2294623 0.2261837 0.2183154 0.2077179 0.2004758 0.2015786 0.2097474
 0.2185851 0.222849 0.2226181 0.2213999 0.2214509 0.2214748 0.2184399 0.2115325 0.2041615 0.2010938
 0.2033783 0.2074057 0.2091762 0.2074808 0.2024909 0.1944935 0.1862115 0.1836131 0.1908677 0.2052395
 0.2192418 0.2268001 0.2254501 0.2149781 0.1983093 0.1833267 0.1790262 0.18744 0.2011597 0.2101611
 0.2097493 0.201355 0.1882564 0.1733774 0.1606883 0.1555757 0.1615982 0.1768987 0.1942541 0.2046308
 0.2021521 0.1887012 0.1744091 0.1703639 0.1784709 0.1901063 0.1957819 0.1937676 0.1887163 0.1856863
 0.1872343 0.1929719 0.1999658 0.2054967 0.209227 0.2100593 0.2031803 0.1858359 0.1649777 0.1526896
 0.1536377 0.1626521 0.1743832 0.1881193 0.2015388 0.2073988 0.2017025 0.1912865 0.1880188 0.196197
 0.2088608 0.2163112 0.2157171 0.2116416 0.2089905 0.2077848 0.2056034 0.2032379 0.2048939 0.2123921
 0.2219917 0.2285675 0.2309418 0.2314239 0.2318923 0.2323662 0.2323336 0.2316161 0.2302853 0.2287782
 0.2277632 0.2273848 0.2271276 0.2265962 0.2254821 0.2223648 0.2150215 0.203558 0.192401 0.1867918
 0.1872209 0.189791 0.1920035 0.194211 0.194203 0.1856896 0.1666129 0.1459637 0.1372425 0.1454147
 0.1632109 0.1794092 0.1874361 0.1859312 0.1753791 0.1582902 0.1418923 0.1358965 0.1445848 0.1626951
 0.1810453 0.1944615 0.2024002 0.2045581 0.1998613 0.1895769 0.1786019 0.1726741 0.1748603 0.1841888
 0.1959887 0.2031178 0.1994452 0.1859224 0.1732872 0.174165 0.1898352 0.2081326 0.2171285 0.2172196
 0.216336 0.2176113 0.2178034 0.2159143 0.2166799 0.2240614 0.2354168 0.2441029 0.2453068 0.237954
 0.2241149 0.2095005 0.2019716 0.2051991 0.2144311 0.2216139 0.2231637 0.2194846 0.2102172 0.1962579
 0.1848216 0.1851003 0.1976196 0.2130293 0.2227332 0.2267216 0.2296767 0.2329082 0.2327704 0.226196
 0.2158274 0.208393 0.2080578 0.2127796 0.2177687 0.2205407 0.2209484 0.218316 0.2118608 0.2039491
 0.2001255 0.2042874 0.2146271 0.2252952 0.2316086 0.2329704 0.2315046 0.2293005 0.22701 0.2240127
 0.2197987 0.215765 0.2149507 0.2187962 0.2248621 0.229341 0.2314197 0.2335528 0.2375956 0.2422457
 0.2446318 0.2434464 0.2401807 0.2378187 0.2384442 0.2415898 0.2445849 0.244836 0.2422984 0.2397536
 0.2402504 0.2441985 0.2493146 0.2532172 0.255363 0.2565597 0.2575787 0.2584797 0.2585614 0.2568915
 0.253625 0.2507746 0.2507764 0.2540694 0.2586842 0.2622851 0.2640558 0.2645556 0.2644327 0.2637509
 0.2623757 0.2605911 0.2591044 0.2584848 0.2587529 0.259537 0.2604572 0.2612875 0.2619224 0.2623525
 0.2626355 0.2628226 0.2629368 0.2630172 0.2631017 0.2631525 0.2630956 0.2629697 0.2629467 0.2631422
 0.2634653 0.2637155 0.2637614 0.263547 0.2629939 0.2620335 0.2607372 0.2592869 0.2577738 0.2561399
 0.254423 0.2530195 0.2525623 0.2534434 0.2554517 0.2579003 0.260093 0.2616752 0.2626392 0.2631397
 0.2633514 0.2634155 0.2634151 0.2633664 0.2632456 0.2630326 0.2627333 0.2623713 0.2619762 0.2615828
 0.2612261 0.2609208 0.2606457 0.2603557 0.2600124 0.2596029 0.2591383 0.258641 0.2581248 0.2575729
 0.2569388 0.2561801 0.2552984 0.2543477 0.2534093 0.2525468 0.2517649 0.2510077 0.2502114 0.249353
 0.2484303 0.2474176 0.2462967 0.2451368 0.2440859 0.2432473 0.2425892 0.2419903 0.2413409 0.2405829
 0.2396978 0.2387027 0.237648 0.2365836 0.2355213 0.2344355 0.2332917 0.2320634 0.2307333 0.2292963
 0.2277618 0.2261527 0.2245026 0.2228445 0.2211785 0.219438 0.2174958 0.2152055 0.2124386 0.2091059
 0.2051844 0.2007448 0.195948 0.1910019 0.1861107 0.1814441 0.1771301 0.1732632 0.1699178 0.1671574
 0.1650355 0.1635926 0.1628538 0.1628323 0.1635268 0.164906 0.1668914 0.1693605 0.1721641 0.1751396
 0.1781162 0.1809362 0.1835054 0.185836 0.1880188 0.1901263 0.1921423 0.193994 0.1956322 0.1970544
 0.1982685 0.1992748 0.2000884 0.2007526 0.2013175 0.2018148 0.2022536 0.2026324 0.2029569 0.2032416
 0.2034957 0.2037164 0.2039029 0.2040701 0.2042447 0.2044506 0.2047019 0.2050071 0.2053798 0.2058339
 0.2063614 0.2069257 0.2074944 0.2080689 0.2086709 0.2093159 0.2100216 0.2108237 0.2117642 0.212865
 0.2141197 0.2154939 0.216919 0.2182952 0.2195185 0.2205147 0.2212535 0.2217402 0.2219993 0.2220679
 0.2219892 0.2218 0.2215209 0.2211613 0.2207263 0.2202158 0.2196294 0.2189811 0.2182983 0.2176005
 0.2168919 0.2161802 0.2154829 0.2148096 0.2141529 0.2135081 0.2128857 0.2122929 0.2117148 0.2111276
 0.2105258 0.2099257 0.2093416 0.2087705 0.2081991 0.207614 0.2069954 0.206309 0.2055194 0.2046098
 0.203586 0.2024621 0.2012496 0.1999577 0.1985976 0.1971798 0.1957068 0.194171 0.1925609 0.1908617
 0.1890487 0.1871013 0.1850463 0.1829762 0.1809988 0.1791683 0.1774752 0.1758893 0.1743901 0.1729674
 0.1716154 0.1703306 0.1691079 0.1679445 0.1668449 0.1658121 0.1648362 0.163902 0.1630112 0.1621886
 0.1614639 0.1608447 0.1603095 0.1598313 0.1594005 0.1590257 0.1587287 0.1585427 0.1584893 0.1585386
 0.1586113 0.158632 0.158571 0.1584429 0.158288 0.1581504 0.1580528 0.1579937 0.1579611 0.1579259
 0.1578185 0.1575384 0.1569921 0.1561212 0.1549143 0.1534101 0.1516842 0.149837 0.147994 0.1462869
 0.144812 0.1436177 0.1427175 0.1420784 0.1416106 0.1412224 0.1408962 0.1406941 0.1406899 0.1408838
 0.1411597 0.141352 0.1413954 0.1413935 0.1415224 0.1418991 0.1425315 0.1433292 0.1441467 0.1448605
 0.1454128 0.1457871 0.1459931 0.1460804 0.1461046 0.1460712 0.1459535 0.1457503 0.1454869 0.1451867
 0.1448586 0.1444843 0.1440217 0.1434486 0.1427775 0.1420209 0.1411844 0.1402803 0.139292 0.1381717
 0.1369567 0.1358495 0.1351182 0.1349404 0.1353292 0.1361356 0.1371394 0.1381915 0.13921 0.1400234
 0.1404123 0.1404535 0.1406897 0.1417456 0.1437406 0.1461568 0.148291 0.1497577 0.1505363 0.1507023
 0.1503035 0.149407 0.1480575 0.1462156 0.1438709 0.1411378 0.138169 0.1351155 0.1321898 0.1295961
 0.1274106 0.1256316 0.1242554 0.1233233 0.1229565 0.1227808 0.1209216 0.1149658 0.1056696 0.09865168
 0.09969048 0.1082428 0.1178088 0.122807 0.1230297 0.1214004 0.1199513 0.1189865 0.1184011 0.118349
 0.1189721 0.1201301 0.1214358 0.1225006 0.1231758 0.1235005 0.1234124 0.1225272 0.1200982 0.1152766
 0.1077935 0.09854721 0.08929835 0.08165066 0.07632726 0.07318757 0.0715919 0.07078084 0.07024355 0.06994002
 0.0701776 0.07124895 0.07319137 0.07585132 0.07904166 0.08251214 0.0858551 0.08866623 0.09084244 0.09257209
 0.0940078 0.09508286 0.09565766 0.09571085 0.09535061 0.09472728 0.09397119 0.09315356 0.09224974 0.09116893
 0.08990625 0.08867413 0.08778189 0.08734957 0.08723154 0.08722916 0.08725652 0.0872917 0.08730631 0.08728364
 0.08723657 0.08721305 0.08731005 0.08761351 0.08808187 0.08854595 0.0888515 0.08897831 0.08902062 0.08903426
 0.08888942 0.08838464 0.08758419 0.08685426 0.08637951 0.08583775 0.08482778 0.083496 0.08245414 0.08211648
 0.08233748 0.08267511 0.08280362 0.08265612 0.0823805 0.08227102 0.08258231 0.0832292 0.08375075 0.08373834
</values></Ydata></ScRf><Data_Parameters_AB><parameter name="DPF">1</parameter><parameter name="NPT">3497</parameter><parameter name="FXV">3996</parameter><parameter name="LXV">500</parameter><parameter name="CSF">1</parameter><parameter name="MXY">0.0329550839960575</parameter><parameter name="MNY">-0.0532104857265949</parameter><parameter name="DAT">30/05/2022</parameter><parameter name="TIM">11:14:18.526 (GMT+2)</parameter><parameter name="DXU">WN</parameter></Data_Parameters_AB><AB__Qtest><MainReport name="Quality Test Report"><Header><Line><Legend>Test result ok/not ok [1/0]: </Legend><Value>0</Value></Line><Line><Legend>Method file: </Legend><Value>C:\Users\Public\Documents\Bruker\OPUS_8.2.28\QT\IRBT_v3_default.QT</Value></Line></Header><Matrix><Line><Legend></Legend><Legend>min</Legend><Legend>max</Legend><Legend>measured</Legend></Line><Line><Value>Absorption (X-Range 1):</Value><Value>0.400000</Value><Value>2.000000</Value><Value>0.055177</Value></Line><Line><Value>Noise (X-Range 4):</Value><Value></Value><Value>0.000300</Value><Value>0.000061</Value></Line><Line><Value>Signal/Noise (X-Range 2):</Value><Value>200.000000</Value><Value></Value><Value>21.272224</Value></Line><Line><Value>Signal/Noise (X-Range 3):</Value><Value>40.000000</Value><Value></Value><Value>11.402533</Value></Line><Line><Value>Water vapour (X-Range 5):</Value><Value></Value><Value>0.000300</Value><Value>0.000040</Value></Line><Line><Value>Signal/Water (X-Range 2):</Value><Value>100.000000</Value><Value></Value><Value>32.303933</Value></Line><Line><Value>Signal/Water (X-Range 3):</Value><Value>20.000000</Value><Value></Value><Value>17.315851</Value></Line><Line><Value>Fringes (X-Range 6):</Value><Value></Value><Value>0.000100</Value><Value>0.000055</Value></Line></Matrix></MainReport></AB__Qtest><Data_Parameters_ScSm><parameter name="DPF">1</parameter><parameter name="NPT">1814</parameter><parameter name="FXV">3996.33169228125</parameter><parameter name="LXV">499.541461535156</parameter><parameter name="CSF">1</parameter><parameter name="MXY">0.265775471925735</parameter><parameter name="MNY">0.0346644148230553</parameter><parameter name="DAT">30/05/2022</parameter><parameter name="TIM">11:14:18.526 (GMT+2)</parameter><parameter name="DXU">WN</parameter></Data_Parameters_ScSm><Data_Parameters_ScRf><parameter name="DPF">1</parameter><parameter name="NPT">1820</parameter><parameter name="FXV">4004.04661832813</parameter><parameter name="LXV">495.683998511719</parameter><parameter name="CSF">1</parameter><parameter name="MXY">0.26455557346344</parameter><parameter name="MNY">0.0322540998458862</parameter><parameter name="DAT">30/05/2022</parameter><parameter name="TIM">11:13:52.674 (GMT+2)</parameter><parameter name="DXU">WN</parameter></Data_Parameters_ScRf><Optic_Parameters_Rf><parameter name="APR">0</parameter><parameter name="APT">Open</parameter><parameter name="BMS">KBr</parameter><parameter name="DTC">RT-DLaTGS_IR-Biotyper [Microplate reader]</parameter><parameter name="HPF">0</parameter><parameter name="LPF">10.0</parameter><parameter name="LPV">4000</parameter><parameter name="PGR">0</parameter><parameter name="RCH">Module port</parameter><parameter name="RDX">0</parameter><parameter name="SRC">MIR</parameter><parameter name="VEL">10.0</parameter><parameter name="SON">Off</parameter></Optic_Parameters_Rf><Acquisition_Parameters_Rf><parameter name="ADT">1</parameter><parameter name="AQM">DD</parameter><parameter name="CFE">0</parameter><parameter name="COR">0</parameter><parameter name="DEL">0</parameter><parameter name="DLY">0</parameter><parameter name="HFW">8000</parameter><parameter name="LFW">0</parameter><parameter name="NSR">32</parameter><parameter name="PLF">AB</parameter><parameter name="RES">6</parameter><parameter name="RGN">-1</parameter><parameter name="STR">0</parameter><parameter name="TCL">MakeCompatibleScalar (0, {WSV=1.000000, ARV=0});</parameter><parameter name="TDL">37</parameter><parameter name="RPO">0</parameter></Acquisition_Parameters_Rf><FT_-_Parameters_Rf><parameter name="APF">B3</parameter><parameter name="HFQ">500</parameter><parameter name="LFQ">4000</parameter><parameter name="NLI">0</parameter><parameter name="PHR">24</parameter><parameter name="PHZ">ML</parameter><parameter name="SPZ">NO</parameter><parameter name="ZFF">1</parameter></FT_-_Parameters_Rf><Optic_Parameters_><parameter name="APR">0</parameter><parameter name="APT">Open</parameter><parameter name="BMS">KBr</parameter><parameter name="CHN">Module port</parameter><parameter name="DTC">RT-DLaTGS_IR-Biotyper [Microplate reader]</parameter><parameter name="HPF">0</parameter><parameter name="LPF">10.0</parameter><parameter name="LPV">4000</parameter><parameter name="PGN">0</parameter><parameter name="RDX">0</parameter><parameter name="SRC">MIR</parameter><parameter name="VEL">10.0</parameter><parameter name="SON">Off</parameter></Optic_Parameters_><FT_-_Parameters_><parameter name="APF">B3</parameter><parameter name="HFQ">500</parameter><parameter name="LFQ">4000</parameter><parameter name="NLI">0</parameter><parameter name="PHR">24</parameter><parameter name="PHZ">ML</parameter><parameter name="SPZ">NO</parameter><parameter name="ZFF">1</parameter></FT_-_Parameters_><Acquisition_Parameters_><parameter name="ADT">1</parameter><parameter name="AQM">DD</parameter><parameter name="CFE">0</parameter><parameter name="COR">0</parameter><parameter name="DEL">0</parameter><parameter name="DLY">0</parameter><parameter name="HFW">8000</parameter><parameter name="LFW">0</parameter><parameter name="NSS">32</parameter><parameter name="PLF">AB</parameter><parameter name="RES">6</parameter><parameter name="SOT">0</parameter><parameter name="TCL">MakeCompatibleScalar (0, {WSV=1.000000, ARV=0});</parameter><parameter name="TDL">37</parameter><parameter name="SPO">0</parameter><parameter name="SGN">-1</parameter></Acquisition_Parameters_><Instrument_Parameters_Rf><parameter name="HFL">15800.168544</parameter><parameter name="LFL">0</parameter><parameter name="LWN">15800.168544</parameter><parameter name="ABP">32197</parameter><parameter name="SSP">1</parameter><parameter name="ARG">2</parameter><parameter name="ASG">2</parameter><parameter name="ASS">32</parameter><parameter name="GFW">16</parameter><parameter name="GBW">16</parameter><parameter name="BFW">0</parameter><parameter name="BBW">0</parameter><parameter name="PKA">7322</parameter><parameter name="PKL">4990</parameter><parameter name="PRA">7479</parameter><parameter name="PRL">5001</parameter><parameter name="P2A">1</parameter><parameter name="P2L">1</parameter><parameter name="P2R">1</parameter><parameter name="P2K">1</parameter><parameter name="DAQ">0</parameter><parameter name="AG2">1</parameter><parameter name="SSM">1</parameter><parameter name="RSN">25176</parameter><parameter name="CRR">0</parameter><parameter name="SRT">1653909232.675</parameter><parameter name="DUR">19.6369934082031</parameter><parameter name="TSC">27.9</parameter><parameter name="MVD">0.376954257488251</parameter><parameter name="AN1">0.225801903848476</parameter><parameter name="AN2">0</parameter><parameter name="VSN">2.485 Apr  4 2017</parameter><parameter name="SRN">0085</parameter><parameter name="CAM">0</parameter><parameter name="INS">IR-Biotyper</parameter><parameter name="FOC">69</parameter><parameter name="RDY">1</parameter><parameter name="ARS">32</parameter></Instrument_Parameters_Rf><Sample_Parameters_><parameter name="BLD"></parameter><parameter name="CNM">Admin</parameter><parameter name="CPY"></parameter><parameter name="DPM"></parameter><parameter name="EXP">IRBT_v3_32Scans.XPM</parameter><parameter name="LCT"></parameter><parameter name="SFM">Microplate, HTS-XT</parameter><parameter name="SNM">220530-1021_GFG29M (D_11)_C2_c2f4250c-c882-4052-92cd-6bc8b904e4b6.0</parameter><parameter name="XPP">C:\Users\Public\Documents\Bruker\OPUS_8.2.28\XPM</parameter><parameter name="IST">OK</parameter><parameter name="CPG">1252</parameter><parameter name="UID">0144721e-4dae-48d5-9c70-27792a298752</parameter></Sample_Parameters_><Instrument_Parameters_><parameter name="HFL">15800.168544</parameter><parameter name="LFL">0</parameter><parameter name="LWN">15800.168544</parameter><parameter name="ABP">32197</parameter><parameter name="SSP">1</parameter><parameter name="ASG">2</parameter><parameter name="ARG">2</parameter><parameter name="ASS">32</parameter><parameter name="GFW">16</parameter><parameter name="GBW">16</parameter><parameter name="BFW">0</parameter><parameter name="BBW">0</parameter><parameter name="PKA">7507</parameter><parameter name="PKL">4990</parameter><parameter name="PRA">7753</parameter><parameter name="PRL">4993</parameter><parameter name="P2A">1</parameter><parameter name="P2L">1</parameter><parameter name="P2R">1</parameter><parameter name="P2K">1</parameter><parameter name="DAQ">0</parameter><parameter name="AG2">1</parameter><parameter name="SSM">1</parameter><parameter name="RSN">13214</parameter><parameter name="CRR">0</parameter><parameter name="SRT">1653909258.527</parameter><parameter name="DUR">19.6369934082031</parameter><parameter name="TSC">27.9</parameter><parameter name="MVD">0.291998267173767</parameter><parameter name="AN1">0.22580779715848</parameter><parameter name="AN2">0</parameter><parameter name="VSN">2.485 Apr  4 2017</parameter><parameter name="SRN">0085</parameter><parameter name="CAM">0</parameter><parameter name="INS">IR-Biotyper</parameter><parameter name="FOC">69</parameter><parameter name="RDY">1</parameter></Instrument_Parameters_><History/></OPUSDataFile>
