<?xml version="1.0" encoding="UTF-8" ?>
<OPUSDataFile><AB><Ydata ylabel="Absorbance Units"><values byteorder="INTEL" format="FLOAT32" numvalues="3497"> -0.08071607 -0.0807398 -0.08074674 -0.0807372 -0.08070547 -0.0806513 -0.08058457 -0.08050645 -0.08043462 -0.08036917
 -0.08032036 -0.08028601 -0.08026387 -0.08025242 -0.08024599 -0.08024671 -0.08025528 -0.08027434 -0.08030949 -0.08035497
 -0.08041081 -0.08046307 -0.08050382 -0.080526 -0.08052241 -0.08050378 -0.08047001 -0.08043841 -0.08041228 -0.08039814
 -0.08039749 -0.08040502 -0.08042051 -0.0804364 -0.08045237 -0.08046266 -0.08046715 -0.08046148 -0.08044668 -0.08042295
 -0.08039358 -0.08036593 -0.08034323 -0.08033489 -0.08034012 -0.08036327 -0.08039774 -0.08044105 -0.08048395 -0.08052123
 -0.08054587 -0.08055402 -0.08054288 -0.08051006 -0.08046003 -0.08039159 -0.08032065 -0.0802478 -0.08019707 -0.08016986
 -0.08018339 -0.08023644 -0.08031866 -0.08042435 -0.08051363 -0.0805833 -0.08059711 -0.08056358 -0.08048128 -0.08036803
 -0.08025169 -0.08014641 -0.08008168 -0.08005604 -0.08008241 -0.08014052 -0.08022638 -0.08031093 -0.08038272 -0.08042264
 -0.08042105 -0.08038403 -0.08030859 -0.08022197 -0.08012564 -0.080052 -0.08000295 -0.08000416 -0.08005569 -0.08016623
 -0.08033025 -0.08052255 -0.08073065 -0.08089365 -0.08100852 -0.08102961 -0.08098007 -0.08087562 -0.08074307 -0.0806237
 -0.08052085 -0.0804562 -0.08040744 -0.08037028 -0.08031818 -0.08023528 -0.08012754 -0.07998737 -0.07985841 -0.07974607
 -0.07968782 -0.07969046 -0.07974261 -0.07984414 -0.07994747 -0.08005145 -0.08012924 -0.08018535 -0.08023515 -0.08028211
 -0.08034992 -0.08043232 -0.08052865 -0.08062531 -0.08069801 -0.08074085 -0.08073352 -0.08068702 -0.08060233 -0.08049377
 -0.08036903 -0.08023906 -0.08010656 -0.0799914 -0.07989617 -0.07985011 -0.07985827 -0.07994214 -0.080107 -0.08033479
 -0.0806255 -0.08086745 -0.08105454 -0.08106334 -0.08091162 -0.08065173 -0.08030698 -0.07999645 -0.07971969 -0.07953464
 -0.07943218 -0.0794271 -0.07949818 -0.07963364 -0.07979401 -0.07994507 -0.08005539 -0.08008956 -0.08006565 -0.07997561
 -0.07987034 -0.07976324 -0.07967971 -0.07962885 -0.07960089 -0.07959615 -0.07959989 -0.07961115 -0.07962891 -0.07965346
 -0.07969075 -0.07973974 -0.07979762 -0.07986061 -0.07991286 -0.07995161 -0.07996075 -0.07994261 -0.07989236 -0.07981736
 -0.07972257 -0.07961964 -0.07951799 -0.07943112 -0.07936947 -0.07933955 -0.07934933 -0.07938725 -0.07945499 -0.07952496
 -0.07959285 -0.07963847 -0.07965808 -0.07965522 -0.07962982 -0.07959188 -0.07954126 -0.07947619 -0.07939614 -0.07929514
 -0.07917599 -0.07904427 -0.07890714 -0.07878499 -0.07868396 -0.07862702 -0.07860809 -0.07863453 -0.07868211 -0.07873563
 -0.0787691 -0.07875925 -0.0787074 -0.07860252 -0.07847795 -0.07833835 -0.07822011 -0.07813195 -0.07808353 -0.07807818
 -0.07810176 -0.07815371 -0.07821605 -0.07828798 -0.07835565 -0.07841861 -0.07846686 -0.0785009 -0.07851641 -0.07851598
 -0.07850344 -0.07848239 -0.07846089 -0.07844112 -0.07842933 -0.07842509 -0.07842934 -0.07844378 -0.07846766 -0.07850956
 -0.07857279 -0.07866314 -0.07878636 -0.07892612 -0.07908333 -0.07922333 -0.07934226 -0.07941935 -0.07945299 -0.07943542
 -0.07936653 -0.0792413 -0.07906393 -0.07885879 -0.07863453 -0.07843962 -0.07827646 -0.0781796 -0.07813786 -0.07815287
 -0.07819814 -0.07823986 -0.0782646 -0.07824118 -0.07819305 -0.07812422 -0.07805913 -0.07801307 -0.07798102 -0.07796783
 -0.07794834 -0.07791824 -0.07786335 -0.07777975 -0.07768291 -0.07757343 -0.07747416 -0.07738555 -0.07731488 -0.07726096
 -0.07721933 -0.07718866 -0.07716186 -0.07713754 -0.07710803 -0.07707389 -0.07703168 -0.07698478 -0.07693695 -0.07688808
 -0.07684114 -0.07678965 -0.07673116 -0.07665892 -0.07656828 -0.0764612 -0.07633559 -0.07620323 -0.07606553 -0.07593375
 -0.07580987 -0.0756942 -0.07558709 -0.07547803 -0.07536679 -0.07524733 -0.07512202 -0.07500576 -0.07490005 -0.07482046
 -0.07476313 -0.07472493 -0.07470371 -0.07469343 -0.07469525 -0.07471066 -0.07473363 -0.07476415 -0.07478178 -0.07477476
 -0.07472754 -0.07462665 -0.07448337 -0.07429715 -0.0740847 -0.0738503 -0.0735952 -0.07332017 -0.07302228 -0.07270115
 -0.07236411 -0.0720124 -0.07166994 -0.07133961 -0.07105569 -0.07081665 -0.070639 -0.07051007 -0.07040463 -0.07031161
 -0.07019291 -0.07006016 -0.06991012 -0.06976328 -0.06964475 -0.06954148 -0.0694619 -0.06935849 -0.0692083 -0.06900109
 -0.06872299 -0.06840809 -0.06806047 -0.06770657 -0.06735009 -0.06700465 -0.06667134 -0.06636192 -0.066077 -0.06582788
 -0.0656141 -0.06544001 -0.06530087 -0.06518338 -0.06507462 -0.0649324 -0.0647485 -0.06447837 -0.0641466 -0.06376259
 -0.06336151 -0.06298214 -0.06263348 -0.06233628 -0.06207503 -0.06185232 -0.06163579 -0.06141732 -0.06117141 -0.06088895
 -0.06057696 -0.06023389 -0.05988296 -0.05952591 -0.05917014 -0.05881539 -0.0584516 -0.05807905 -0.05769434 -0.05730081
 -0.05691087 -0.05652769 -0.05616659 -0.05582828 -0.0555228 -0.05524526 -0.05499662 -0.05476244 -0.05453071 -0.05428893
 -0.05402222 -0.05373784 -0.05343394 -0.05312446 -0.05281618 -0.05250213 -0.0521838 -0.05184124 -0.05147032 -0.05107786
 -0.05066318 -0.05026349 -0.04988035 -0.04954109 -0.04924412 -0.04899078 -0.04877621 -0.04858169 -0.04840088 -0.04820563
 -0.04799471 -0.04774982 -0.04748019 -0.04718912 -0.04688903 -0.04659469 -0.0463068 -0.04603429 -0.04575973 -0.04547829
 -0.04517418 -0.04483825 -0.04447991 -0.04409733 -0.04371466 -0.04333479 -0.04297296 -0.04263086 -0.04230471 -0.04199396
 -0.04168493 -0.041377 -0.04105932 -0.04073203 -0.04038955 -0.04003341 -0.03966305 -0.0392846 -0.03890805 -0.0385422
 -0.03820499 -0.03789556 -0.03762278 -0.03737261 -0.03713894 -0.03691022 -0.03667818 -0.03644404 -0.03620596 -0.03596971
 -0.03573725 -0.03550543 -0.03527518 -0.03503211 -0.0347754 -0.03448899 -0.03417267 -0.03382656 -0.03345358 -0.03307755
 -0.03270203 -0.03235745 -0.03204123 -0.03176414 -0.0315162 -0.03128389 -0.03105726 -0.03081582 -0.03055839 -0.03027402
 -0.02997297 -0.02965722 -0.02934048 -0.02903038 -0.02873105 -0.02844737 -0.02816952 -0.027897 -0.02761742 -0.02732857
 -0.02702826 -0.02671578 -0.02640089 -0.02608423 -0.02577947 -0.02548683 -0.02521467 -0.02496152 -0.02472576 -0.0245046
 -0.02428938 -0.02407782 -0.02386108 -0.02363909 -0.02340703 -0.02316878 -0.02292499 -0.02268313 -0.0224485 -0.02222517
 -0.02201855 -0.02182062 -0.02163119 -0.02143773 -0.02123655 -0.02102694 -0.02080762 -0.02058737 -0.02036706 -0.02014518
 -0.01992135 -0.01968262 -0.01942964 -0.0191609 -0.01888136 -0.01861329 -0.0183605 -0.01814833 -0.01797127 -0.01783312
 -0.01772054 -0.01761619 -0.01751169 -0.01738986 -0.01725667 -0.01710926 -0.0169604 -0.01681619 -0.01668116 -0.01655959
 -0.01644476 -0.01633679 -0.01622504 -0.01610825 -0.01597814 -0.01583379 -0.01567388 -0.0154986 -0.01531675 -0.01512881
 -0.01494398 -0.01476019 -0.01457256 -0.01437868 -0.01416652 -0.01394064 -0.01370214 -0.01346192 -0.01323633 -0.01303112
 -0.01285996 -0.01271767 -0.01260605 -0.01251538 -0.01244172 -0.01237818 -0.01232225 -0.01226802 -0.01221422 -0.01215491
 -0.0120888 -0.01201543 -0.01193445 -0.01185157 -0.01176689 -0.01167971 -0.01158855 -0.01147871 -0.01134988 -0.01119004
 -0.01100601 -0.01081002 -0.01061315 -0.0104462 -0.01030967 -0.0102226 -0.01016632 -0.01013244 -0.01009585 -0.01003421
 -0.009942343 -0.009806721 -0.00965136 -0.009478939 -0.009319065 -0.009180517 -0.009068429 -0.008986468 -0.008916223 -0.008856322
 -0.008796704 -0.008737415 -0.008694354 -0.008668657 -0.008679497 -0.008723158 -0.008793134 -0.008881968 -0.00896293 -0.009032799
 -0.009070305 -0.009080376 -0.009059465 -0.009017657 -0.008963247 -0.00890497 -0.008852922 -0.008805923 -0.008768705 -0.008727152
 -0.008678106 -0.008609009 -0.008513819 -0.008402902 -0.008274379 -0.008161515 -0.008066787 -0.008015831 -0.008009318 -0.008039021
 -0.008102028 -0.008165919 -0.008230538 -0.008276515 -0.008309438 -0.008337954 -0.008363609 -0.008397065 -0.00842912 -0.008449619
 -0.008454829 -0.008431118 -0.00839734 -0.00836042 -0.008342214 -0.008361145 -0.008404354 -0.008477302 -0.008538423 -0.008578375
 -0.008575887 -0.008522879 -0.008445323 -0.008343481 -0.008263478 -0.008207396 -0.008202427 -0.008246914 -0.008336351 -0.008465531
 -0.008607608 -0.008756328 -0.00887801 -0.008970018 -0.0090081 -0.008999154 -0.008939051 -0.008846187 -0.008735125 -0.008627645
 -0.00854477 -0.008494279 -0.008489341 -0.008514402 -0.008569742 -0.008629468 -0.008687866 -0.008728812 -0.008749155 -0.008742006
 -0.008706877 -0.008632563 -0.008518541 -0.008356233 -0.008148206 -0.007914471 -0.007663182 -0.007446747 -0.007270487 -0.00718341
 -0.007175106 -0.007253216 -0.007390363 -0.007551891 -0.007710177 -0.007820407 -0.007878951 -0.007861755 -0.007800058 -0.007697291
 -0.007601232 -0.007529011 -0.007508713 -0.007553958 -0.007651199 -0.007803276 -0.007969701 -0.008147376 -0.008305506 -0.008442776
 -0.008557682 -0.008651506 -0.008737805 -0.008816279 -0.008893237 -0.008965349 -0.009025099 -0.009069967 -0.009088608 -0.00908603
 -0.00906072 -0.009029573 -0.009006727 -0.009013565 -0.009071305 -0.009186948 -0.009374238 -0.009614279 -0.009907587 -0.0102199
 -0.01054485 -0.01085237 -0.01113695 -0.01138357 -0.01158981 -0.0117586 -0.01189024 -0.01200442 -0.01210247 -0.01220685
 -0.01231582 -0.01243304 -0.01255366 -0.01266176 -0.01275871 -0.0128359 -0.01290635 -0.01298532 -0.01308509 -0.01322896
 -0.01340863 -0.01363141 -0.01386701 -0.01410462 -0.01431347 -0.01447838 -0.01459269 -0.01464778 -0.01466994 -0.01465856
 -0.01466266 -0.01468616 -0.01476993 -0.01491588 -0.01512567 -0.01539577 -0.01568797 -0.01599811 -0.01628278 -0.0165436
 -0.0167623 -0.01694444 -0.01709357 -0.0172138 -0.01731205 -0.01739314 -0.01746243 -0.0175301 -0.01760449 -0.01769468
 -0.01780951 -0.0179451 -0.01810463 -0.01827098 -0.01844092 -0.01860133 -0.0187485 -0.01888636 -0.01901443 -0.01914586
 -0.01928128 -0.01942636 -0.0195807 -0.019741 -0.01990694 -0.02007553 -0.02024637 -0.02041777 -0.02058696 -0.02074726
 -0.02089574 -0.02102305 -0.02113321 -0.02122463 -0.02130889 -0.0213931 -0.0214888 -0.02160462 -0.02174331 -0.02190945
 -0.02209475 -0.02229981 -0.02250783 -0.02271689 -0.02291085 -0.02308759 -0.02324419 -0.02338052 -0.0235107 -0.02363592
 -0.02377506 -0.02392736 -0.0240995 -0.02428739 -0.024481 -0.02467648 -0.02485896 -0.02502972 -0.02518263 -0.02532464
 -0.02546086 -0.02559719 -0.02574213 -0.02589034 -0.02604488 -0.02618642 -0.02630934 -0.02639734 -0.02644164 -0.02645561
 -0.02643575 -0.0264305 -0.02644331 -0.02652159 -0.02666785 -0.02688408 -0.02716636 -0.02746792 -0.02778363 -0.02805862
 -0.0282953 -0.02847012 -0.02859451 -0.02868113 -0.02874412 -0.02881245 -0.02889176 -0.02900311 -0.02913521 -0.02928909
 -0.02944414 -0.02958783 -0.02971442 -0.02981516 -0.0299079 -0.02999559 -0.03009157 -0.03020158 -0.03030633 -0.03040579
 -0.03046354 -0.03047764 -0.03043841 -0.03034899 -0.03024557 -0.03013416 -0.03006962 -0.0300516 -0.03011168 -0.0302378
 -0.03042034 -0.03064184 -0.03086878 -0.03109354 -0.03129139 -0.0314715 -0.03163245 -0.03178563 -0.03194002 -0.03209009
 -0.03223773 -0.03236813 -0.03247611 -0.03256268 -0.0326255 -0.03268194 -0.0327338 -0.03278807 -0.03284523 -0.03289342
 -0.03293232 -0.03295359 -0.03295959 -0.03296002 -0.0329573 -0.0329662 -0.03298508 -0.03301815 -0.0330609 -0.03310801
 -0.03315574 -0.03319623 -0.03323266 -0.03326084 -0.03329817 -0.03335009 -0.0334398 -0.03358037 -0.03377078 -0.03401965
 -0.03428529 -0.03456476 -0.03480648 -0.03500356 -0.03514459 -0.03522852 -0.03529378 -0.03534303 -0.03542291 -0.03553095
 -0.03567809 -0.03585551 -0.03603712 -0.03621723 -0.03636683 -0.036491 -0.03658367 -0.03665536 -0.03671663 -0.0367726
 -0.03683151 -0.03689271 -0.03695807 -0.03702574 -0.03709625 -0.03716435 -0.03722961 -0.03728346 -0.03732312 -0.0373531
 -0.03737218 -0.0374052 -0.03745352 -0.0375376 -0.03765625 -0.03779702 -0.03795584 -0.03809958 -0.03822952 -0.03833018
 -0.03841085 -0.03848673 -0.03856393 -0.03866282 -0.03877611 -0.03890556 -0.03903672 -0.03915771 -0.03926195 -0.039341
 -0.03939904 -0.03943593 -0.03945543 -0.03945925 -0.03944495 -0.0394119 -0.03936103 -0.03929136 -0.03921772 -0.03914084
 -0.03908661 -0.03905608 -0.0390703 -0.03912732 -0.03922753 -0.03936468 -0.03951706 -0.03967777 -0.03981873 -0.03993776
 -0.04001756 -0.04006168 -0.04006683 -0.04003911 -0.03998122 -0.03990144 -0.03980344 -0.03969871 -0.03959159 -0.03949274
 -0.03940627 -0.03933511 -0.03928174 -0.03923674 -0.03920057 -0.03915038 -0.03908495 -0.03897503 -0.03881998 -0.03860367
 -0.03832981 -0.03801206 -0.03765761 -0.03730069 -0.03694507 -0.03661856 -0.03631784 -0.03605085 -0.03581025 -0.03559163
 -0.03538556 -0.03518438 -0.03497711 -0.03475568 -0.03451332 -0.03424362 -0.03395258 -0.03363845 -0.03331849 -0.03299452
 -0.03268468 -0.03239094 -0.03212632 -0.03189171 -0.03169485 -0.0315356 -0.03141311 -0.03132601 -0.03126499 -0.03122895
 -0.03120918 -0.03120462 -0.03121063 -0.03122072 -0.03122436 -0.03120911 -0.03115478 -0.03105712 -0.03090118 -0.03070269
 -0.03046369 -0.03020773 -0.02994613 -0.0296862 -0.02943462 -0.02917851 -0.02891742 -0.02863489 -0.02832873 -0.02799264
 -0.02762592 -0.02723697 -0.02682725 -0.0264211 -0.02602131 -0.02565944 -0.02533487 -0.02506466 -0.02484084 -0.0246527
 -0.02449153 -0.02433286 -0.02418447 -0.02403698 -0.02392711 -0.02387395 -0.02393253 -0.02413917 -0.02452929 -0.02513409
 -0.02593027 -0.02692971 -0.02804337 -0.029265 -0.03047688 -0.03166654 -0.03274584 -0.03370802 -0.03453303 -0.03522301
 -0.03581524 -0.03631376 -0.03676477 -0.03716709 -0.03754024 -0.03788127 -0.03819001 -0.03847037 -0.03872756 -0.03896978
 -0.03921093 -0.03945068 -0.03969648 -0.03993585 -0.04016434 -0.04036971 -0.04054454 -0.04068847 -0.04079875 -0.04088396
 -0.0409453 -0.04098869 -0.04101562 -0.04102083 -0.04100424 -0.04095162 -0.04086291 -0.04073433 -0.0405702 -0.04039671
 -0.04022155 -0.0400909 -0.04000529 -0.03999405 -0.04004294 -0.0401435 -0.04027382 -0.0404039 -0.04051782 -0.0405909
 -0.04061927 -0.04059245 -0.04051688 -0.0403913 -0.04022815 -0.04003002 -0.03980828 -0.03956527 -0.03930744 -0.03903446
 -0.03876339 -0.03849442 -0.03828216 -0.03813134 -0.03813058 -0.0382823 -0.03865338 -0.03922861 -0.03999158 -0.0409073
 -0.0418791 -0.04287519 -0.04378922 -0.04462001 -0.04531706 -0.04590938 -0.04640346 -0.04682984 -0.04721057 -0.04755667
 -0.04787836 -0.04817563 -0.0484495 -0.0487029 -0.04893634 -0.04915291 -0.04935327 -0.0495358 -0.04970038 -0.04984757
 -0.04997776 -0.05009917 -0.05021241 -0.05032652 -0.05044056 -0.05055616 -0.05067074 -0.05077851 -0.05087735 -0.05096003
 -0.05102767 -0.05107724 -0.05111497 -0.05114415 -0.05117327 -0.05120866 -0.05125443 -0.0513154 -0.05138591 -0.05146705
 -0.05154463 -0.05161643 -0.05167103 -0.0517059 -0.05172553 -0.05172973 -0.05173679 -0.0517473 -0.05177224 -0.05180963
 -0.0518495 -0.05188993 -0.0519155 -0.05193046 -0.05193684 -0.05194282 -0.05196566 -0.05200725 -0.05207994 -0.05217425
 -0.05228813 -0.05240672 -0.05252099 -0.05261941 -0.05269428 -0.05274311 -0.05276173 -0.05276053 -0.05273893 -0.05271813
 -0.05270023 -0.05270347 -0.05272957 -0.05277735 -0.05284598 -0.05291649 -0.05298798 -0.05304412 -0.053087 -0.05311648
 -0.05313555 -0.05315298 -0.05316863 -0.05318664 -0.05320495 -0.05322229 -0.05323778 -0.05325044 -0.05325897 -0.05326298
 -0.05325901 -0.05324489 -0.05322091 -0.05318462 -0.0531477 -0.05311079 -0.05309094 -0.05309081 -0.05311569 -0.05316661
 -0.05322891 -0.05330151 -0.05336234 -0.05341163 -0.05344021 -0.05345113 -0.05345256 -0.05344698 -0.05344638 -0.05344907
 -0.05345795 -0.05346934 -0.05347881 -0.05348593 -0.05348758 -0.05348807 -0.05348889 -0.05349462 -0.0535082 -0.05352975
 -0.05356043 -0.05359683 -0.05363827 -0.05368356 -0.05373219 -0.05378719 -0.05384883 -0.05391741 -0.05399257 -0.05406538
 -0.05413493 -0.05418926 -0.05422927 -0.05425186 -0.05425975 -0.0542592 -0.0542513 -0.05424157 -0.05422866 -0.05421228
 -0.05419325 -0.05417075 -0.05415032 -0.05413495 -0.05412947 -0.05413819 -0.05415741 -0.05418831 -0.05421999 -0.05425051
 -0.05427223 -0.05428321 -0.05428731 -0.05428447 -0.05428532 -0.05429021 -0.05430476 -0.05432802 -0.05435512 -0.0543846
 -0.05440702 -0.05442262 -0.05442626 -0.05442106 -0.05441011 -0.05439727 -0.05438947 -0.05438761 -0.05439562 -0.05441104
 -0.05443317 -0.05446064 -0.05449205 -0.05452931 -0.05457323 -0.05462293 -0.05467946 -0.05473449 -0.05478735 -0.0548293
 -0.05485946 -0.05487821 -0.05488578 -0.05488919 -0.0548887 -0.05488941 -0.05489099 -0.05489457 -0.05490005 -0.05490802
 -0.05491791 -0.05492933 -0.05494049 -0.05494855 -0.05495289 -0.05495076 -0.05494592 -0.05493922 -0.05493655 -0.0549414
 -0.05495462 -0.05497823 -0.05500654 -0.05503897 -0.05506966 -0.05509765 -0.055121 -0.05513946 -0.05515337 -0.0551627
 -0.05516698 -0.05516626 -0.05516051 -0.05515011 -0.05513686 -0.05512106 -0.05510427 -0.05508713 -0.05507098 -0.05505808
 -0.05505172 -0.05505464 -0.05507159 -0.05510088 -0.05514469 -0.0551944 -0.05524756 -0.05529437 -0.05533097 -0.05535319
 -0.05535868 -0.05535126 -0.05533047 -0.05530627 -0.05527921 -0.05526047 -0.05525043 -0.0552536 -0.05526907 -0.05529091
 -0.05531791 -0.05534073 -0.05536034 -0.05537455 -0.05538543 -0.05539699 -0.05540828 -0.05542023 -0.05543008 -0.0554342
 -0.0554348 -0.05543063 -0.0554297 -0.05543587 -0.05545249 -0.05548346 -0.05551946 -0.05556025 -0.05559171 -0.05561148
 -0.05561512 -0.05560171 -0.05557877 -0.05554671 -0.05551466 -0.05548254 -0.05545315 -0.05542607 -0.05540031 -0.05537656
 -0.05535626 -0.0553406 -0.05533323 -0.05533341 -0.05534233 -0.05535696 -0.05537499 -0.05539351 -0.05540975 -0.05542264
 -0.05543091 -0.05543478 -0.05543398 -0.05542932 -0.05542077 -0.0554099 -0.05539688 -0.05538324 -0.05536909 -0.05535565
 -0.05534299 -0.05533267 -0.05532468 -0.05531996 -0.05531786 -0.055316 -0.05531347 -0.05530588 -0.05529372 -0.05527513
 -0.05525272 -0.05522933 -0.05520715 -0.05518999 -0.055177 -0.05516928 -0.05516371 -0.05515904 -0.05515327 -0.05514502
 -0.05513549 -0.05512429 -0.05511512 -0.05510842 -0.05510679 -0.0551106 -0.0551181 -0.05512912 -0.05513785 -0.05514409
 -0.05514313 -0.05513588 -0.05512413 -0.05510966 -0.05509911 -0.05509292 -0.05509587 -0.05510578 -0.05512191 -0.0551412
 -0.0551604 -0.05517722 -0.05518946 -0.05519491 -0.05519192 -0.05517971 -0.05515683 -0.05512728 -0.05509095 -0.05505558
 -0.05502231 -0.05499528 -0.05497512 -0.05495971 -0.05494896 -0.0549405 -0.05493455 -0.0549323 -0.05493385 -0.05494072
 -0.05495193 -0.05496552 -0.05498016 -0.05499219 -0.05500066 -0.05500266 -0.05499771 -0.05498387 -0.0549625 -0.05493265
 -0.05490023 -0.05486671 -0.05484063 -0.05482562 -0.05482451 -0.05484016 -0.05486314 -0.05489344 -0.05491509 -0.0549266
 -0.05492046 -0.05489653 -0.05486336 -0.05482217 -0.05478853 -0.05476222 -0.05475111 -0.05475257 -0.05476293 -0.05477901
 -0.05479215 -0.05480098 -0.05479927 -0.05478833 -0.05476648 -0.05473772 -0.05470361 -0.05466968 -0.05463904 -0.05461494
 -0.05459986 -0.05459146 -0.05459027 -0.05459023 -0.05459052 -0.05458714 -0.05457954 -0.05456779 -0.05455186 -0.0545323
 -0.05450903 -0.05448113 -0.05444889 -0.05441298 -0.05437461 -0.05433797 -0.05430384 -0.05427633 -0.05425451 -0.05423876
 -0.05422802 -0.0542211 -0.05421793 -0.05421809 -0.05422173 -0.05422914 -0.05423929 -0.05425236 -0.05426558 -0.05427885
 -0.0542874 -0.05429069 -0.05428391 -0.05426637 -0.05423923 -0.05420263 -0.0541648 -0.05412615 -0.05409458 -0.05406912
 -0.05404917 -0.05403284 -0.05401323 -0.05399028 -0.05395979 -0.05392411 -0.05388497 -0.05384446 -0.05380616 -0.0537689
 -0.05373335 -0.05369668 -0.05365719 -0.05361474 -0.05356803 -0.05352166 -0.05347604 -0.05343689 -0.05340534 -0.05338307
 -0.05337061 -0.05336384 -0.05336252 -0.05335846 -0.05335138 -0.05333512 -0.05331067 -0.05327934 -0.0532438 -0.05321297
 -0.05318978 -0.05318494 -0.05319998 -0.05324198 -0.05331074 -0.0534093 -0.05353485 -0.05368742 -0.05386081 -0.05405255
 -0.05425614 -0.05446805 -0.0546882 -0.0549148 -0.05515612 -0.05541353 -0.05569037 -0.05598811 -0.05629042 -0.05659629
 -0.05687288 -0.05711891 -0.05730884 -0.05744397 -0.05751919 -0.05753414 -0.05748757 -0.05737202 -0.05716585 -0.05687474
 -0.05648678 -0.05604129 -0.05557266 -0.05512023 -0.05472651 -0.05440325 -0.05416841 -0.05401803 -0.05395597 -0.05397
 -0.05406273 -0.05419737 -0.05437302 -0.0545268 -0.05465255 -0.05471419 -0.05470998 -0.0546583 -0.05456172 -0.05445479
 -0.05433886 -0.05423925 -0.05415475 -0.05409636 -0.0540585 -0.05403517 -0.05401886 -0.05399473 -0.05395967 -0.05390405
 -0.05382961 -0.05373457 -0.05362163 -0.05349111 -0.05334738 -0.05319084 -0.0530299 -0.05286589 -0.05270849 -0.05255954
 -0.0524235 -0.05230127 -0.05219008 -0.05208981 -0.05199548 -0.05190723 -0.05182534 -0.05175028 -0.05168553 -0.05163005
 -0.05158263 -0.05154095 -0.05149855 -0.05145531 -0.05140749 -0.05135776 -0.05130802 -0.05125932 -0.05121407 -0.05116904
 -0.05112327 -0.05107383 -0.0510187 -0.0509598 -0.05089674 -0.05083416 -0.05077273 -0.05071554 -0.05066301 -0.05061585
 -0.05057414 -0.05053799 -0.05050759 -0.05048498 -0.05047046 -0.05046732 -0.0504746 -0.05049166 -0.05051517 -0.05053739
 -0.05055536 -0.05055981 -0.05055281 -0.05053176 -0.05050335 -0.05047174 -0.05044226 -0.05041965 -0.05040328 -0.05039469
 -0.050389 -0.05038521 -0.05038033 -0.05037332 -0.05036616 -0.05035884 -0.05035471 -0.05035396 -0.05035437 -0.05035538
 -0.05034902 -0.05033526 -0.05030925 -0.05027306 -0.0502311 -0.05018603 -0.05014688 -0.0501136 -0.05009084 -0.05007553
 -0.05006625 -0.05005954 -0.05005198 -0.05004247 -0.05002923 -0.0500132 -0.04999441 -0.04997352 -0.04995071 -0.04992635
 -0.04990041 -0.04987382 -0.04984656 -0.04982087 -0.04979688 -0.04977659 -0.04975991 -0.04974626 -0.04973516 -0.04972338
 -0.04971064 -0.04969367 -0.04967381 -0.04965204 -0.04963107 -0.04961614 -0.04960802 -0.04961092 -0.04962064 -0.04963618
 -0.049651 -0.04966076 -0.04966369 -0.04965724 -0.04964564 -0.04962934 -0.04961246 -0.04959604 -0.04957988 -0.04956409
 -0.04954777 -0.04953087 -0.04951509 -0.0495006 -0.04949021 -0.04948369 -0.04948131 -0.04948233 -0.04948428 -0.04948643
 -0.04948599 -0.04948219 -0.04947262 -0.04945685 -0.04943312 -0.04940234 -0.04936399 -0.0493212 -0.04927521 -0.04922953
 -0.04918565 -0.04914594 -0.04911108 -0.04908314 -0.04906243 -0.04905143 -0.04905061 -0.04905891 -0.04907632 -0.04909517
 -0.04911493 -0.04912632 -0.04912975 -0.04912258 -0.04910656 -0.04908689 -0.04906455 -0.04904498 -0.0490271 -0.04901149
 -0.04899698 -0.04898182 -0.04896698 -0.04895248 -0.04893987 -0.04893062 -0.04892323 -0.04891797 -0.0489113 -0.04890221
 -0.04888931 -0.04887202 -0.04885157 -0.04882805 -0.04880199 -0.04877343 -0.04874234 -0.04870887 -0.04867502 -0.04864122
 -0.04861107 -0.04858477 -0.04856488 -0.04855153 -0.04854646 -0.04854937 -0.0485614 -0.04857957 -0.04860189 -0.04862259
 -0.04863624 -0.04863944 -0.0486276 -0.04860407 -0.04856822 -0.04852705 -0.04848209 -0.04843903 -0.04839906 -0.0483655
 -0.04833889 -0.04832022 -0.04830961 -0.04830342 -0.04830126 -0.04829653 -0.04828922 -0.04827571 -0.04825716 -0.04823595
 -0.0482134 -0.04819404 -0.04817848 -0.04816989 -0.04816801 -0.04817436 -0.04818667 -0.04820463 -0.04822306 -0.04823931
 -0.04824859 -0.04824771 -0.04823743 -0.04821672 -0.04819055 -0.04815976 -0.04812676 -0.04809206 -0.04805458 -0.04801426
 -0.04797338 -0.04793234 -0.04789826 -0.04787119 -0.04785569 -0.04784995 -0.04784993 -0.047853 -0.04785016 -0.04784089
 -0.04781923 -0.04778848 -0.0477494 -0.04770753 -0.04766812 -0.04763328 -0.04760709 -0.0475845 -0.0475649 -0.04754205
 -0.04751311 -0.04748014 -0.0474422 -0.04740844 -0.04737996 -0.04736067 -0.04735097 -0.04734458 -0.04734117 -0.04733416
 -0.04732431 -0.04731359 -0.04730299 -0.04729808 -0.04729756 -0.04730146 -0.04730694 -0.04730878 -0.04730586 -0.04729413
 -0.04727538 -0.04724936 -0.04721918 -0.04718632 -0.04715378 -0.04712293 -0.04709614 -0.04707448 -0.04705822 -0.04704793
 -0.04704086 -0.04703701 -0.04703151 -0.04702407 -0.04701175 -0.04699467 -0.04697469 -0.04695225 -0.04693164 -0.04691251
 -0.04689614 -0.04688115 -0.04686434 -0.0468455 -0.04682212 -0.04679632 -0.04677 -0.04674388 -0.04672026 -0.04669572
 -0.04666884 -0.04663739 -0.04659862 -0.04655817 -0.0465164 -0.0464812 -0.04645481 -0.04643663 -0.04642742 -0.0464188
 -0.04641027 -0.04639614 -0.04637644 -0.04635223 -0.04632392 -0.0462949 -0.04626533 -0.04623776 -0.04621192 -0.04618866
 -0.04616692 -0.0461453 -0.04612264 -0.04609631 -0.04606754 -0.04603575 -0.04600451 -0.04597583 -0.04595192 -0.04593493
 -0.04592246 -0.04591484 -0.04590691 -0.04589777 -0.04588411 -0.0458652 -0.04584223 -0.0458152 -0.04578777 -0.04576007
 -0.04573441 -0.04571053 -0.0456876 -0.04566517 -0.04564091 -0.04561472 -0.04558489 -0.04555227 -0.04551749 -0.04548162
 -0.04544657 -0.04541209 -0.04537896 -0.04534556 -0.04531073 -0.04527478 -0.04523684 -0.04520055 -0.04516679 -0.04513798
 -0.04511534 -0.04509539 -0.04507816 -0.04505716 -0.04503191 -0.04499897 -0.04495841 -0.04491188 -0.04485989 -0.04480673
 -0.04475283 -0.04470235 -0.04465528 -0.04461377 -0.04457748 -0.04454685 -0.04452124 -0.0445005 -0.04448261 -0.04446649
 -0.04444844 -0.04442598 -0.04439662 -0.04435777 -0.04431258 -0.04426067 -0.04420884 -0.04415842 -0.04411326 -0.04407438
 -0.04403907 -0.04400732 -0.04397304 -0.04393602 -0.04389289 -0.04384422 -0.04379253 -0.04373875 -0.04368847 -0.04364145
 -0.04360022 -0.04356331 -0.04352925 -0.04349645 -0.04346224 -0.04342578 -0.04338508 -0.04334093 -0.04329259 -0.04324317
 -0.04319367 -0.04314684 -0.04310442 -0.04306391 -0.04302565 -0.04298373 -0.04293728 -0.04288483 -0.04282603 -0.04276731
 -0.04270898 -0.04265763 -0.042613 -0.04257627 -0.04254653 -0.04252067 -0.04249768 -0.0424733 -0.04244677 -0.04241443
 -0.04237686 -0.04233265 -0.04228453 -0.04223419 -0.04218464 -0.0421387 -0.04209628 -0.04205893 -0.04202214 -0.04198519
 -0.04194332 -0.04189495 -0.04184083 -0.04178035 -0.04172049 -0.04166169 -0.04161045 -0.04156687 -0.04153078 -0.04150157
 -0.04147445 -0.04144889 -0.04142046 -0.04138856 -0.04134963 -0.04130275 -0.04124384 -0.04117422 -0.04109274 -0.04100434
 -0.04091274 -0.04082267 -0.04073849 -0.04066149 -0.04059359 -0.04053342 -0.04048125 -0.04043434 -0.04039251 -0.04035189
 -0.04031216 -0.04026914 -0.0402225 -0.04017022 -0.04011237 -0.04005187 -0.03998925 -0.03993054 -0.03987525 -0.0398253
 -0.03977791 -0.03972621 -0.03966829 -0.03959571 -0.03951221 -0.03941824 -0.03932048 -0.03922566 -0.03913687 -0.03905923
 -0.03898918 -0.03892714 -0.03886668 -0.03880564 -0.03874159 -0.0386733 -0.03860287 -0.03853069 -0.03845565 -0.0383778
 -0.03829299 -0.03820126 -0.03810478 -0.03800457 -0.03791009 -0.03782161 -0.037746 -0.03768135 -0.0376263 -0.03757771
 -0.03752938 -0.03747804 -0.03741652 -0.03734391 -0.03725503 -0.03715606 -0.0370476 -0.0369412 -0.03684285 -0.03675664
 -0.03668692 -0.03662494 -0.03657035 -0.03651161 -0.03644681 -0.03637328 -0.03629049 -0.03620346 -0.03611233 -0.0360191
 -0.03592327 -0.03582111 -0.03571256 -0.03559465 -0.03546929 -0.03534026 -0.03520956 -0.0350836 -0.03496128 -0.03484431
 -0.03472957 -0.03461446 -0.03449753 -0.03437628 -0.03425304 -0.03412794 -0.03400426 -0.03388332 -0.03376581 -0.03365268
 -0.03354022 -0.03342867 -0.03330909 -0.0331809 -0.03303599 -0.03287425 -0.03269795 -0.03250768 -0.03230979 -0.03210376
 -0.03189017 -0.03166887 -0.03143908 -0.03120242 -0.03096207 -0.03071854 -0.03047471 -0.03022811 -0.02997741 -0.02972064
 -0.02945589 -0.02918282 -0.02890066 -0.02860989 -0.02830893 -0.028006 -0.02770096 -0.02741029 -0.02713649 -0.02688661
 -0.02666181 -0.02645377 -0.02626206 -0.02607781 -0.02590112 -0.02572952 -0.02556279 -0.02539914 -0.02523714 -0.02507163
 -0.0249015 -0.02472156 -0.02453269 -0.02433365 -0.02412629 -0.02391242 -0.02369187 -0.02346568 -0.02323122 -0.02298718
 -0.02273316 -0.02246801 -0.02219587 -0.02191817 -0.02163356 -0.02134411 -0.02102758 -0.02068276 -0.02028244 -0.01982636
 -0.01933089 -0.01879912 -0.01826842 -0.01773587 -0.01720676 -0.01667695 -0.01613532 -0.01558339 -0.01501993 -0.01444499
 -0.0138632 -0.01325941 -0.01262632 -0.01193379 -0.01115738 -0.01028512 -0.009292201 -0.008230325 -0.007102338 -0.005989897
 -0.00491374 -0.003905128 -0.00297358 -0.002105925 -0.00130251 -0.0005384393 0.0001880595 0.0009167502 0.001651731 0.002452278
 0.003312946 0.004248958 0.005231715 0.006175634 0.007074524 0.007864712 0.008577942 0.009234435 0.009856791 0.01047889
 0.0110995 0.01172849 0.01235813 0.01298569 0.01361115 0.01423588 0.0148508 0.01545583 0.01603365 0.01658063
 0.01709833 0.01758637 0.01805301 0.0184981 0.01890638 0.01927623 0.01958415 0.01983276 0.02002102 0.02015582
 0.02025649 0.0203307 0.02040519 0.02047965 0.02056764 0.02065856 0.02074542 0.02082369 0.02088676 0.02093773
 0.02097693 0.0210054 0.02102439 0.02103041 0.02102301 0.02099893 0.0209572 0.02089994 0.02082689 0.02074767
 0.02066271 0.02057949 0.02049701 0.02040884 0.02031301 0.02019579 0.02005747 0.01988953 0.01969863 0.01949206
 0.01928214 0.01909091 0.01892345 0.01879462 0.01869996 0.01863825 0.01861381 0.01862563 0.01868845 0.01880905
 0.01898655 0.01922464 0.01950318 0.01981972 0.02016141 0.02052674 0.02091333 0.02132099 0.0217463 0.02218926
 0.02264814 0.02312366 0.02361942 0.0241345 0.02466882 0.02521882 0.0257767 0.02634042 0.02690257 0.02746554
 0.02802815 0.02859578 0.02917165 0.02976032 0.03036575 0.03098642 0.03162389 0.03227039 0.0329252 0.03357882
 0.03423054 0.03486805 0.03549054 0.03608394 0.03664769 0.03717977 0.03768136 0.03816589 0.0386315 0.03907782
 0.03949695 0.03986095 0.04016951 0.0404055 0.04057921 0.04069915 0.04077249 0.04081022 0.04081489 0.04079284
 0.04074052 0.040665 0.04053441 0.04035151 0.0400353 0.03956801 0.03889184 0.03798051 0.03694755 0.03579893
 0.03465376 0.03351664 0.03235939 0.0311798 0.02994199 0.02865356 0.02733719 0.02599993 0.02468277 0.02337318
 0.02207113 0.02074442 0.01933252 0.01784805 0.0162494 0.0146573 0.01315453 0.01179725 0.01066202 0.009657552
 0.008769484 0.007920933 0.007085139 0.006259188 0.005437118 0.004643784 0.003881816 0.003151376 0.002452342 0.001764849
 0.001089071 0.0004193839 -0.0002409218 -0.0008760603 -0.001485478 -0.002057127 -0.002596859 -0.003111848 -0.003606807 -0.004092875
 -0.00456996 -0.005040661 -0.005508349 -0.005972126 -0.006448682 -0.006945336 -0.007477229 -0.008062571 -0.008654913 -0.009254469
 -0.009776233 -0.01020056 -0.01053543 -0.01077718 -0.01098645 -0.01116608 -0.01134665 -0.01152685 -0.01170127 -0.01186834
 -0.0120158 -0.0121462 -0.01226303 -0.01236613 -0.0124598 -0.01253549 -0.0125819 -0.01259223 -0.01255167 -0.01246725
 -0.01233871 -0.01217571 -0.01198455 -0.0117657 -0.01152155 -0.01124708 -0.01094294 -0.01059726 -0.01021041 -0.009755271
 -0.009228827 -0.008618346 -0.007923648 -0.007210064 -0.006483861 -0.005842491 -0.005282174 -0.004832972 -0.004484294 -0.004216339
 -0.004022285 -0.003879157 -0.003779675 -0.003706447 -0.003644435 -0.003575013 -0.003475645 -0.003320148 -0.003107877 -0.002820855
 -0.002506842 -0.002178922 -0.001871246 -0.001599675 -0.001349503 -0.001122057 -0.0008907648 -0.0006526932 -0.0003994992 -0.0001307332
 0.0001389842 0.0004089261 0.000664547 0.0009085819 0.00114741 0.001387312 0.001653305 0.001948962 0.002298124 0.002692505
 0.003130903 0.003601224 0.004086234 0.004589011 0.005104496 0.005643887 0.006213735 0.006813974 0.007447719 0.008105118
 0.008782804 0.009482714 0.01020293 0.01096174 0.01176156 0.01260343 0.01348731 0.01436327 0.01522772 0.01602042
 0.01674384 0.01738274 0.01793992 0.01842097 0.01881746 0.01911457 0.01929958 0.01934242 0.01924474 0.01899176
 0.01860437 0.018092 0.01747693 0.01677475 0.01599265 0.0151363 0.01420776 0.01320354 0.0121522 0.01105296
 0.009966033 0.008897247 0.00788572 0.006933791 0.006026968 0.005163332 0.004312306 0.003476426 0.002653737 0.001851331
 0.001095088 0.0003852603 -0.0002611908 -0.0008560079 -0.001409148 -0.001934708 -0.002453841 -0.00297039 -0.003497737 -0.004023127
 -0.004545663 -0.00504547 -0.0055137 -0.005944112 -0.006331025 -0.006687597 -0.007014328 -0.007328175 -0.007631212 -0.007928954
 -0.00822181 -0.008501531 -0.008767193 -0.009004408 -0.009212965 -0.009383797 -0.009518566 -0.009617685 -0.009684263 -0.009724867
 -0.009743982 -0.009751492 -0.009751028 -0.009751309 -0.009751368 -0.009753492 -0.009755102 -0.009753732 -0.009753919 -0.009755117
 -0.009768613 -0.009797219 -0.009847897 -0.009923067 -0.01001919 -0.01013651 -0.01026659 -0.01040897 -0.01055936 -0.01071774
 -0.01088382 -0.01105659 -0.01123068 -0.01140289 -0.01155895 -0.01169635 -0.01180043 -0.01187419 -0.01191454 -0.0119291
 -0.01192544 -0.01190915 -0.01188814 -0.01186153 -0.01183137 -0.01179421 -0.0117484 -0.01169496 -0.01163249 -0.01156993
 -0.01150766 -0.0114591 -0.01142563 -0.01141642 -0.01143209 -0.01147087 -0.01153205 -0.01160518 -0.01168943 -0.01177409
 -0.01185964 -0.01194144 -0.01202176 -0.01210334 -0.01218898 -0.01228517 -0.01239199 -0.01251333 -0.01264448 -0.01278386
 -0.0129245 -0.01306221 -0.0131924 -0.01331224 -0.01342035 -0.0135156 -0.01359926 -0.01367109 -0.01373446 -0.01378956
 -0.01384053 -0.01388764 -0.01393205 -0.01397363 -0.01401039 -0.01404244 -0.014069 -0.01409096 -0.01411117 -0.01413051
 -0.01415325 -0.01417797 -0.01420532 -0.01423062 -0.01424925 -0.01425598 -0.01424433 -0.01421382 -0.01416112 -0.01409212
 -0.01400744 -0.01391555 -0.01381848 -0.01372317 -0.01363119 -0.01354586 -0.01346796 -0.01339563 -0.01332884 -0.01326177
 -0.01319422 -0.01312182 -0.01304513 -0.01296522 -0.01288308 -0.012803 -0.01272543 -0.01265349 -0.01258741 -0.01252833
 -0.01247813 -0.01243894 -0.01241373 -0.01240629 -0.01241611 -0.01244537 -0.01248753 -0.0125413 -0.01259874 -0.01265737
 -0.01271332 -0.01276515 -0.01281403 -0.01285958 -0.0129078 -0.01295898 -0.01302289 -0.01309973 -0.01319455 -0.01330562
 -0.01342446 -0.01354866 -0.01366335 -0.01376995 -0.01386342 -0.01394882 -0.01403338 -0.01411875 -0.01421142 -0.01430654
 -0.01440292 -0.01449419 -0.01457573 -0.01464599 -0.01470214 -0.01474928 -0.01478749 -0.01482488 -0.01486303 -0.01490604
 -0.01495488 -0.01500702 -0.01506241 -0.0151161 -0.01516789 -0.01521473 -0.01525625 -0.0152888 -0.01531181 -0.01532079
 -0.01531611 -0.01529605 -0.01526216 -0.01521613 -0.01515983 -0.01509591 -0.0150265 -0.01495474 -0.01488026 -0.01480562
 -0.0147229 -0.01463081 -0.01451795 -0.01438005 -0.01421511 -0.01402068 -0.0138075 -0.01357615 -0.01333871 -0.01309604
 -0.01285313 -0.01261013 -0.01236928 -0.01213111 -0.01190028 -0.01167769 -0.01146976 -0.01127626 -0.01110101 -0.01094041
 -0.01079136 -0.01064679 -0.01049732 -0.01033653 -0.01015491 -0.009952319 -0.009724237 -0.009478941 -0.009216744 -0.008952544
 -0.008689531 -0.008442407 -0.00821481 -0.008011732 -0.007834989 -0.007676025 -0.007534534 -0.007396694 -0.00726199 -0.007121093
 -0.006974312 -0.006819089 -0.006656288 -0.006487816 -0.006314544 -0.006139883 -0.005963764 -0.005788024 -0.005611189 -0.005432679
 -0.00524967 -0.005060339 -0.004860137 -0.00464605 -0.004414624 -0.004162279 -0.003893806 -0.003608272 -0.003318262 -0.003025987
 -0.002739491 -0.002460564 -0.002185661 -0.001914678 -0.001643247 -0.001371607 -0.001104474 -0.0008427521 -0.0005956389 -0.0003626551
 -0.0001474859 5.250691E-05 0.0002419898 0.0004240622 0.0006068612 0.000791031 0.0009810278 0.001175333 0.001373212 0.001576237
 0.00178414 0.002001916 0.002232343 0.002475314 0.002732633 0.002996528 0.003266224 0.003533493 0.003797262 0.004052772
 0.00429954 0.004538671 0.004770701 0.005006651 0.005247159 0.005503875 0.005773568 0.00605032 0.006328131 0.006586933
 0.006825537 0.007031641 0.00720869 0.007356703 0.007477319 0.007571244 0.007641951 0.007689055 0.007724811 0.007753267
 0.007786706 0.007830534 0.007885431 0.007952766 0.008028331 0.008111389 0.00820359 0.008304933 0.008419856 0.00854837
 0.008690467 0.008845175 0.009005955 0.009170652 0.009326842 0.009472999 0.009597361 0.009702801 0.009787689 0.009859134
 0.009925121 0.00999233 0.01006973 0.01016001 0.01026879 0.0103912 0.01052911 0.0106671 0.01080233 0.01091784
 0.01100908 0.01107228 0.01110572 0.01111724 0.01110723 0.01108281 0.01104434 0.01099771 0.01094357 0.01089026
 0.01083756 0.01078936 0.01074402 0.01069802 0.01065255 0.01060728 0.01056618 0.01053577 0.01051432 0.01050521
 0.01049745 0.01048594 0.01046025 0.0104132 0.01034551 0.01025452 0.01015007 0.01003371 0.009912062 0.009786765
 0.009654055 0.009513811 0.009361009 0.009195926 0.009026262 0.008853372 0.00869222 0.008542037 0.008408119 0.008287357
 0.008173429 0.008064996 0.007956128 0.007847895 0.007739339 0.007631598 0.007524989 0.007421653 0.007322296 0.007230972
 0.007149402 0.007080909 0.007026907 0.006988722 0.006967308 0.006960215 0.006968048 0.006980255 0.006996272 0.007003421
 0.007001502 0.006989918 0.006969844 0.00695133 0.006933689 0.006920016 0.006907028 0.006886582 0.006857362 0.006812371
 0.006753368 0.006679771 0.00659363 0.006496341 0.006390315 0.00627732 0.006159355 0.00603825 0.00591263 0.005782193
 0.005646844 0.005505656 0.005364857 0.005225346 0.005089444 0.004957747 0.004819854 0.004675309 0.004514858 0.004339992
 0.004158908 0.003973665 0.003799189 0.003633242 0.003477914 0.003328413 0.003175236 0.003018312 0.002851646 0.002682265
 0.002513635 0.002354549 0.002212375 0.002089771 0.001991235 0.001910534 0.001847503 0.001792829 0.001744199 0.001698393
 0.001654015 0.001617187 0.001588096 0.001576496 0.001582642 0.001609425 0.001655395 0.001710354 0.001771615 0.001821691
 0.001859049 0.001870169 0.001855226 0.001807664 0.001729801 0.001619696 0.00148666 0.001335501 0.001183759 0.001043664
 0.000928247 0.0008489728 0.0008006897 0.0007861938 0.0007888812 0.0008054644 0.0008269655 0.0008509777 0.0008818628 0.0009197044
 0.0009707183 0.001034845 0.001106769 0.001185013 0.001253598 0.001313029 0.001355009 0.001385599 0.001417741 0.001457562
 0.001526086 0.001618938 0.001741321 0.001880574 0.002025946 0.002169843 0.002302841 0.002426182 0.002538462 0.002640828
 0.002733946 0.002815686 0.002885503 0.002943179 0.002988233 0.003024366 0.003051596 0.003078097 0.003104433 0.003143137
 0.003194379 0.00326625 0.003356131 0.003456649 0.003564082 0.003662392 0.00375251 0.00382737 0.003892647 0.003954132
 0.004013889 0.004077686 0.004140579 0.00420042 0.004255094 0.00430046 0.004346631 0.004394605 0.00445872 0.004543325
 0.004649675 0.004779771 0.004919972 0.005069489 0.005215511 0.005357622 0.005493924 0.005624495 0.005749875 0.00586879
 0.005974888 0.006067851 0.006141415 0.006200685 0.006251822 0.006302417 0.006367994 0.006446649 0.00654576 0.00665019
 0.006752244 0.006839729 0.006901731 0.006945841 0.006970247 0.006992362 0.007016409 0.007048342 0.007090067 0.007137963
 0.007191689 0.007253191 0.007322593 0.007404144 0.007496876 0.007593929 0.007693138 0.007779826 0.007853968 0.007906765
 0.007941842 0.007961306 0.007971322 0.007980747 0.007996159 0.008027878 0.0080775 0.008151434 0.008241305 0.008346872
 0.008452879 0.008554489 0.008641141 0.008707457 0.008762314 0.008803944 0.00886225 0.008939365 0.009060457 0.009226095
 0.009426481 0.009658101 0.0098827 0.01009909 0.01027948 0.01042943 0.01055062 0.01065048 0.01074529 0.0108393
 0.01094584 0.01106543 0.01120441 0.0113585 0.0115284 0.01170408 0.01188163 0.01205158 0.01220869 0.01235438
 0.01248623 0.01261862 0.0127532 0.01290127 0.01306479 0.01323159 0.01340077 0.01354387 0.01366119 0.0137429
 0.01379405 0.01383531 0.01386988 0.01392004 0.01398235 0.01405967 0.01414945 0.01424793 0.01435715 0.01447945
 0.0146114 0.01475442 0.01489481 0.01502668 0.01513946 0.01522595 0.01529274 0.01533746 0.01538269 0.01543085
 0.01550213 0.01559924 0.01571847 0.01585934 0.01599694 0.0161304 0.01624094 0.01633039 0.01639831 0.01644663
 0.01648015 0.01650177 0.01651814 0.01653584 0.01656839 0.01661717 0.01669118 0.01678131 0.01688326 0.01699197
 0.01710252 0.0172183 0.01734201 0.01746435 0.01758585 0.01768559 0.01775895 0.01780752 0.01782993 0.01785187
 0.01787446 0.01791129 0.01796134 0.01801818 0.01808123 0.0181442 0.01820766 0.01827039 0.01833255 0.01839288
 0.01845398 0.01851882 0.01859066 0.01867618 0.0187702 0.01887365 0.01897309 0.01906217 0.01913198 0.01917641
 0.01919957 0.01919951 0.01919165 0.01917765 0.01917119 0.01917422 0.019183 0.01919731 0.01920585 0.01920984
 0.01921853 0.01923431 0.01927816 0.01934404 0.0194254 0.0195109 0.01956927 0.01960192 0.01959418 0.01955993
 0.01950934 0.01945025 0.01939211 0.01933639 0.0192837 0.0192435 0.01921811 0.01921899 0.01925187 0.01930686
 0.01938447 0.01946586 0.01954927 0.01962499 0.01969254 0.01975149 0.01980264 0.01985563 0.01990955 0.01996665
 0.02002106 0.02005238 0.02006076 0.02003255 0.01998054 0.01992077 0.01985653 0.01980295 0.01974222 0.01966407
 0.01956145 0.01942266 0.01926721 0.01909918 0.01893445 0.01877918 0.01863129 0.01849108 0.01835723 0.01822951
 0.01811032 0.01799974 0.01789486 0.01779554 0.01769969 0.01760657 0.0175136 0.01741535 0.01729262 0.01714035
 0.01693251 0.01668108 0.0163876 0.01607968 0.01578773 0.01553022 0.01533398 0.0151945 0.01512293 0.01508585
 0.01507907 0.01505384 0.01499299 0.01489505 0.01474988 0.01462917 0.01453844 0.01453302 0.0146155 0.01475588
 0.01495065 0.01514831 0.01535025 0.01554038 0.01571842 0.01587528 0.01600859 0.01610442 0.01617176 0.0162158
 0.01625237 0.01630074 0.01637102 0.01647661 0.0166227 0.01681626 0.01705535 0.01734276 0.01766626 0.01802252
 0.018408 0.01881956 0.01927503 0.01977597 0.0203333 0.02094749 0.02159811 0.02228216 0.02295986 0.0236259
 0.0242312 0.02477054 0.02519515 0.02551414 0.0257169 0.02583267 0.0259035 0.02594958 0.02601618 0.02608985
 0.02617736 0.02625456 0.02630898 0.02633069 0.02631406 0.02625256 0.02614471 0.02598094 0.02575874 0.02547865
 0.02513939 0.02475862 0.02433731 0.02390997 0.02347887 0.0230833 0.02272121 0.02240352 0.02212155 0.02184948
 0.02158417 0.02130273 0.0210132 0.02071946 0.02042606 0.02014092 0.01986225 0.01958863 0.01932678 0.01907751
 0.01885496 0.01866503 0.01851392 0.01840614 0.01833355 0.01829878 0.01826919 0.01824391 0.01816721 0.01803602
 0.01782829 0.01754852 0.0172504 0.01694003 0.01668535 0.01647744 0.01632241 0.01620507 0.01608851 0.01597433
 0.01584528 0.01571692 0.01560193 0.01550722 0.01544663 0.01540769 0.01539165 0.01537134 0.01533717 0.01527053
 0.01516046 0.01502419 0.01486038 0.01470532 0.01456344 0.01444274 0.01434387</values></Ydata></AB><ScSm><Ydata ylabel="Single channel"><values byteorder="INTEL" format="FLOAT32" numvalues="1814"> 0.07301658 0.0730357 0.07311825 0.07328159 0.0734956 0.07369934 0.07384098 0.0739103 0.07392572 0.07389694
 0.07383235 0.07378295 0.07383187 0.07401324 0.07426101 0.07445234 0.07450412 0.07444663 0.07440796 0.07448718
 0.07461736 0.07458782 0.07424584 0.07367463 0.07313617 0.07282901 0.072768 0.07294485 0.07345464 0.0742431
 0.07482801 0.07464793 0.0737698 0.07291652 0.07265884 0.07286596 0.07305464 0.07294928 0.07256036 0.07206766
 0.07187055 0.07248239 0.07402106 0.07579165 0.07653889 0.07523823 0.07182638 0.06743312 0.06396701 0.06309382
 0.06506191 0.06836531 0.07087184 0.07152185 0.07083591 0.06984168 0.06897064 0.06818877 0.0677033 0.0679929
 0.06914487 0.07041869 0.07062969 0.06915556 0.06667379 0.06468453 0.06414593 0.06487202 0.06633041 0.0682243
 0.06967689 0.06876719 0.06442042 0.05880117 0.05634605 0.05954184 0.0662694 0.0718824 0.07334539 0.07092292
 0.06681126 0.06331834 0.06201041 0.06329578 0.06634019 0.06975991 0.0724638 0.07370855 0.07291785 0.07018077
 0.0667355 0.06436542 0.06430496 0.0667607 0.07086678 0.07475581 0.07640758 0.07514486 0.07208373 0.06895104
 0.06694829 0.06675678 0.06870046 0.07240192 0.07676867 0.08063491 0.0832398 0.08429082 0.08401392 0.08301152
 0.08180512 0.08075744 0.08040343 0.08111851 0.08224826 0.08235699 0.08079629 0.07856999 0.07729571 0.07752848
 0.07831956 0.07837209 0.0773546 0.07567974 0.07321319 0.06926061 0.06415109 0.05965107 0.05719615 0.05680179
 0.05812073 0.0609991 0.06422881 0.06547231 0.0638206 0.06142617 0.06136042 0.06433749 0.0683493 0.07112111
 0.0722113 0.07285935 0.07438236 0.07682659 0.07878795 0.07847239 0.07548505 0.07184009 0.07053787 0.0726156
 0.07614589 0.07860228 0.07952058 0.08021529 0.0814849 0.08237714 0.08118226 0.07746287 0.07314828 0.07134588
 0.0736353 0.07848743 0.08237521 0.0823862 0.07818145 0.07207018 0.06720901 0.06541958 0.06669684 0.07040377
 0.07597208 0.08227868 0.08736616 0.08954248 0.08861394 0.0857731 0.08223782 0.07812884 0.0731296 0.06837048
 0.06664582 0.06977038 0.07625879 0.08256592 0.08624951 0.08718623 0.0861859 0.08347473 0.07892805 0.07354647
 0.06994261 0.07030679 0.07376738 0.07688864 0.07727504 0.07575524 0.0746029 0.07469833 0.07521179 0.07535926
 0.0755228 0.07660448 0.07873957 0.08096653 0.08216004 0.08205314 0.0812732 0.08060591 0.080282 0.0798174
 0.07869603 0.0774082 0.07738395 0.07943031 0.08262287 0.08525814 0.08656211 0.08696292 0.08694598 0.08619177
 0.08403631 0.08072232 0.07789616 0.07738417 0.07942913 0.08254493 0.08506217 0.08632471 0.08652368 0.08609274
 0.08541691 0.08471088 0.08408171 0.08379586 0.08421039 0.08526333 0.08636139 0.08697443 0.08706862 0.08683811
 0.0863253 0.08549973 0.08453358 0.08380988 0.08364752 0.08406117 0.08480283 0.08558498 0.08618635 0.08641419
 0.08617069 0.08559726 0.08499193 0.08454052 0.08425164 0.08413999 0.08428958 0.08468971 0.08515328 0.08547243
 0.08558252 0.08553614 0.08538811 0.08515793 0.08487154 0.08460119 0.08445631 0.08450978 0.08471027 0.08491312
 0.0850423 0.0851649 0.08534253 0.08548184 0.0854331 0.08519657 0.08493547 0.08479968 0.08480638 0.08487972
 0.08493283 0.08488461 0.08465469 0.08423166 0.08376525 0.0835119 0.08362982 0.08406298 0.08463712 0.08519001
 0.08559684 0.0857882 0.08580428 0.08575661 0.08569627 0.08557472 0.08535279 0.0851032 0.08498521 0.08511987
 0.08547918 0.08590312 0.08623506 0.08642088 0.08648898 0.08650668 0.08656203 0.08669953 0.08684657 0.0868793
 0.08678421 0.08668993 0.08671805 0.08684845 0.08695216 0.08693795 0.08685261 0.08683069 0.08694877 0.08715454
 0.08734655 0.08748993 0.08762924 0.08780324 0.08796833 0.08802217 0.08791682 0.08773196 0.08759838 0.08756374
 0.08758515 0.08763994 0.08776765 0.0879845 0.08821643 0.08835941 0.08838723 0.08837013 0.08838525 0.08842849
 0.08842885 0.08833985 0.08819447 0.08807057 0.08802281 0.08805101 0.08811347 0.0881587 0.08815421 0.08809881
 0.0880133 0.08791886 0.0878249 0.08774243 0.0877078 0.08776998 0.0879292 0.08809516 0.08814023 0.08801359
 0.08779333 0.08761224 0.08753391 0.0875083 0.08744232 0.08729601 0.08710453 0.08692659 0.08679326 0.08670082
 0.08663006 0.08656615 0.08651768 0.08652394 0.08662143 0.08678222 0.08690374 0.08689384 0.08676359 0.08661169
 0.08652475 0.08651774 0.08655636 0.08660334 0.08664915 0.08671857 0.08683308 0.08695864 0.08702548 0.08701435
 0.08698624 0.0870156 0.08713194 0.08732559 0.08755459 0.08774057 0.08781723 0.08780533 0.08779991 0.08786912
 0.08799714 0.08813319 0.0882595 0.08839257 0.0885444 0.08871095 0.08889423 0.08911379 0.08938707 0.08970129
 0.09000853 0.0902556 0.09043221 0.09059317 0.09082066 0.09115244 0.09154896 0.0919313 0.09224737 0.09250507
 0.09274936 0.09301091 0.09328274 0.09355336 0.09384663 0.09420088 0.09461305 0.09503342 0.09541981 0.09577459
 0.09612541 0.09649001 0.0968677 0.0972559 0.09766625 0.098114 0.098583 0.09901549 0.099359 0.09962207
 0.0998714 0.1001801 0.1005791 0.1010304 0.1014358 0.1017086 0.1018676 0.1020336 0.102301 0.1026401
 0.1029606 0.1032443 0.1035649 0.103978 0.104439 0.1048498 0.1051625 0.1054166 0.1056817 0.1059773
 0.1062545 0.1064568 0.1065911 0.106721 0.1068946 0.107109 0.1073587 0.1076765 0.108087 0.1085438
 0.1089566 0.1092741 0.1095076 0.1096899 0.1098459 0.1099922 0.1101336 0.1102666 0.1104 0.1105502
 0.1107052 0.110829 0.110919 0.1110251 0.1111915 0.111417 0.1116891 0.1120161 0.1123911 0.1127617
 0.1130839 0.1133912 0.1137577 0.1141857 0.1145761 0.1148351 0.1149721 0.1150599 0.1151395 0.1152167
 0.1153275 0.1155367 0.115865 0.1162615 0.1166601 0.1170332 0.1173861 0.1177226 0.1180259 0.1182656
 0.1184195 0.1184958 0.1185368 0.1186037 0.1187516 0.1190003 0.1193155 0.1196288 0.1198852 0.1200614
 0.1201414 0.1201109 0.1199993 0.1198955 0.1198764 0.1199179 0.1199059 0.1197336 0.1193707 0.118841
 0.1181703 0.1173779 0.1165075 0.1156427 0.1148809 0.1142941 0.1139216 0.1137972 0.1139604 0.1144172
 0.1150931 0.1158481 0.1165422 0.1170675 0.117327 0.1172347 0.1167719 0.1160218 0.115121 0.114184
 0.113277 0.1124272 0.1116278 0.1108674 0.1101944 0.1097496 0.1097142 0.1102221 0.1113134 0.1129254
 0.1148911 0.1169645 0.1189019 0.1205585 0.1219231 0.1230669 0.1240728 0.1250061 0.1259139 0.1268086
 0.1276559 0.1284085 0.1290596 0.1296442 0.1301899 0.130689 0.131114 0.1314439 0.1316801 0.1318509
 0.1319907 0.1321027 0.1321597 0.1321508 0.132103 0.1320398 0.1319371 0.1317339 0.1313782 0.1308603
 0.1302338 0.129636 0.1292884 0.1294407 0.1302572 0.1317145 0.1336004 0.1356283 0.1375588 0.1392375
 0.1405753 0.1415528 0.142237 0.1427511 0.1432048 0.143652 0.1441006 0.1445393 0.144958 0.1453565
 0.1457416 0.1461242 0.1465172 0.1469262 0.1473338 0.1477054 0.1480257 0.1483234 0.1486507 0.1490379
 0.1494666 0.1498895 0.1502807 0.1506596 0.1510516 0.1514382 0.1517719 0.1520414 0.15229 0.1525723
 0.1529133 0.1533048 0.1537112 0.1540811 0.1543817 0.1546271 0.1548605 0.1551123 0.1553851 0.1556707
 0.1559635 0.1562602 0.1565568 0.1568552 0.1571655 0.1574922 0.1578139 0.1580918 0.1583086 0.1584932
 0.1586948 0.1589363 0.1591985 0.1594478 0.1596765 0.1599167 0.1602103 0.1605599 0.1609131 0.1612053
 0.1614172 0.1615872 0.1617712 0.1619986 0.1622624 0.1625378 0.1628025 0.1630439 0.1632631 0.1634759
 0.1637051 0.1639616 0.1642354 0.1645059 0.1647607 0.1650014 0.165238 0.16548 0.1657352 0.166014
 0.1663245 0.1666557 0.166971 0.1672317 0.1674315 0.1675993 0.1677705 0.1679622 0.1681737 0.1683981
 0.1686295 0.1688644 0.1691006 0.1693362 0.1695703 0.1698049 0.1700433 0.1702851 0.1705285 0.1707763
 0.1710356 0.1713088 0.1715883 0.1718613 0.1721177 0.1723544 0.1725745 0.1727858 0.1729979 0.1732151
 0.1734344 0.1736524 0.1738737 0.1741056 0.1743472 0.1745865 0.1748117 0.1750217 0.1752274 0.1754438
 0.1756782 0.1759243 0.1761686 0.1764027 0.1766267 0.176844 0.1770571 0.1772704 0.1774905 0.1777217
 0.1779601 0.1781949 0.1784204 0.1786422 0.1788689 0.1790998 0.1793276 0.1795487 0.1797656 0.1799811
 0.1801968 0.1804132 0.1806304 0.1808472 0.1810631 0.18128 0.1815013 0.1817291 0.1819608 0.1821921
 0.1824242 0.1826613 0.1829012 0.183136 0.1833628 0.1835863 0.1838116 0.184042 0.1842808 0.1845296
 0.1847873 0.1850504 0.1853115 0.1855589 0.1857849 0.1859906 0.1861836 0.1863731 0.1865666 0.1867648
 0.1869612 0.187154 0.1873495 0.1875518 0.1877569 0.1879618 0.1881695 0.1883839 0.1886073 0.1888395
 0.1890762 0.1893124 0.1895451 0.1897708 0.1899868 0.1901989 0.190417 0.1906417 0.1908662 0.1910904
 0.191319 0.1915528 0.1917913 0.1920335 0.1922719 0.1924973 0.1927106 0.1929208 0.1931364 0.1933641
 0.1936053 0.1938488 0.1940826 0.1943069 0.1945248 0.1947325 0.194931 0.1951332 0.1953488 0.195577
 0.1958147 0.1960565 0.1962955 0.196532 0.1967696 0.1970023 0.1972235 0.1974406 0.1976631 0.1978888
 0.1981137 0.1983384 0.1985605 0.198779 0.1989983 0.1992164 0.1994245 0.1996251 0.1998271 0.2000185
 0.2001502 0.2000959 0.1995494 0.197919 0.1943129 0.1877023 0.1773137 0.1631084 0.1459694 0.1273926
 0.1089358 0.09181157 0.07675838 0.06411807 0.05398283 0.04629717 0.04092389 0.0377489 0.03678874 0.03830153
 0.04290788 0.05121955 0.06245841 0.07324768 0.07893464 0.07725906 0.07050972 0.06343849 0.05932062 0.05838262
 0.05922077 0.06063898 0.06226538 0.06432999 0.06720942 0.0709918 0.07547022 0.08062145 0.08683396 0.09440493
 0.1029427 0.1115345 0.1195348 0.1270632 0.1346965 0.1427655 0.1510087 0.1588345 0.1657926 0.1717978
 0.1770385 0.1817702 0.1861709 0.1903234 0.1942695 0.1980097 0.2014173 0.2042024 0.2060562 0.206893
 0.2069572 0.2066792 0.2064174 0.2063268 0.2064212 0.2066852 0.207111 0.2076857 0.2083874 0.2091861
 0.210043 0.2109222 0.211801 0.2126585 0.2134692 0.2142182 0.2149082 0.2155454 0.2161323 0.2166725
 0.2171697 0.2176248 0.2180435 0.2184385 0.2188189 0.2191853 0.2195363 0.2198702 0.220181 0.220464
 0.220722 0.2209646 0.2212031 0.2214443 0.2216852 0.2219151 0.2221289 0.2223336 0.2225404 0.2227552
 0.2229774 0.2232028 0.2234271 0.2236493 0.2238699 0.2240847 0.2242868 0.2244756 0.2246578 0.22484
 0.2250278 0.2252269 0.2254387 0.2256559 0.2258696 0.2260771 0.2262821 0.226491 0.2267054 0.2269181
 0.2271215 0.2273225 0.2275361 0.2277649 0.2279981 0.2282283 0.2284558 0.2286792 0.2288971 0.2291123
 0.2293221 0.2295125 0.2296779 0.2298384 0.2300277 0.2302619 0.2305214 0.2307668 0.2309779 0.2311697
 0.231367 0.2315744 0.2317771 0.2319597 0.2321226 0.2322928 0.2325083 0.2327788 0.2330742 0.2333607
 0.233627 0.233872 0.2340993 0.2343266 0.2345634 0.2347814 0.2349423 0.235062 0.2352192 0.2354881
 0.2358629 0.2362545 0.2365738 0.2368123 0.2370231 0.237252 0.2375142 0.2377917 0.2380047 0.2380553
 0.2379767 0.2379794 0.2382606 0.2388027 0.2394142 0.2399269 0.2403043 0.240597 0.2408542 0.241075
 0.2412169 0.2412482 0.2412154 0.2412632 0.2415387 0.2420423 0.2426106 0.2430819 0.2434222 0.243673
 0.2438692 0.2440336 0.2441306 0.2440092 0.2435687 0.2430401 0.2429183 0.2434834 0.2444867 0.245417
 0.2460024 0.246343 0.2466237 0.2468857 0.2470885 0.2471487 0.2468156 0.2458146 0.2443803 0.2434089
 0.2437144 0.2452058 0.2470405 0.2484671 0.2492972 0.2497167 0.2499617 0.2501634 0.2502503 0.2499473
 0.2490815 0.248003 0.2475065 0.2480976 0.249422 0.2506434 0.2512975 0.2515404 0.2517086 0.251945
 0.2521047 0.2517038 0.2501935 0.2477641 0.2457566 0.2457206 0.247898 0.2509339 0.2532201 0.2542799
 0.254651 0.2547067 0.2541067 0.2524179 0.2497672 0.2467843 0.2444161 0.2438061 0.2455338 0.2486596
 0.2512571 0.2523146 0.2525882 0.2533435 0.2548435 0.2563462 0.2570762 0.2568303 0.2558445 0.254365
 0.2525306 0.2507758 0.2500664 0.2512126 0.2538871 0.2567439 0.2586636 0.2596032 0.2600092 0.2595029
 0.2566155 0.2505546 0.2434081 0.2395631 0.2418317 0.2485109 0.2552133 0.2591826 0.2608035 0.2615395
 0.2619721 0.2616409 0.2593073 0.2536275 0.2452644 0.2382218 0.2371358 0.2426842 0.25082 0.2565556
 0.2573646 0.2534426 0.2468061 0.2406937 0.2382423 0.2405805 0.2463401 0.2530122 0.2584558 0.2614716
 0.2617797 0.2599072 0.2571561 0.2552868 0.2552449 0.2557699 0.2543491 0.2503919 0.2462092 0.2436119
 0.2410966 0.2366216 0.2321025 0.2321481 0.2380779 0.2457214 0.250108 0.2505023 0.2494992 0.2482833
 0.2445873 0.2359506 0.2243821 0.216434 0.2174699 0.226101 0.2354307 0.2398069 0.2393081 0.2377101
 0.2374514 0.2371607 0.2336113 0.2259465 0.2178073 0.2142731 0.2164583 0.2205163 0.2221888 0.2202001
 0.2147496 0.2061412 0.1972383 0.1943356 0.201827 0.2168054 0.2313524 0.2390612 0.2373584 0.2260583
 0.2082597 0.1922199 0.1873264 0.1956785 0.2095282 0.2184175 0.2174729 0.2082312 0.1941494 0.1782643
 0.1646197 0.1586701 0.1639933 0.1786733 0.1954039 0.2051242 0.2019981 0.1879449 0.1730495 0.1683045
 0.1756034 0.1864422 0.1914639 0.1889555 0.1834869 0.1800075 0.1809903 0.1860496 0.1923558 0.1972758
 0.2004732 0.2009338 0.1941124 0.1773966 0.1573977 0.1456149 0.146482 0.1550555 0.1662181 0.1792832
 0.1920488 0.1976317 0.1922302 0.1823514 0.1793009 0.187182 0.1993695 0.206619 0.2062214 0.2025027
 0.2001089 0.1990388 0.1969775 0.1946769 0.1961413 0.2031027 0.2119954 0.2179395 0.219826 0.2198703
 0.2198657 0.2198274 0.2192725 0.2180464 0.2162323 0.2142485 0.2127213 0.211782 0.2109528 0.2098759
 0.2082743 0.2048527 0.1975976 0.1866313 0.1760084 0.170523 0.1706456 0.172831 0.1747736 0.1767575
 0.1767582 0.1690666 0.151852 0.1333596 0.1259351 0.1341289 0.1513132 0.1672021 0.1756693 0.1752764
 0.1662721 0.1509258 0.1361477 0.1313204 0.1406273 0.1590306 0.1776817 0.1915738 0.2001224 0.2029248
 0.1988549 0.1891591 0.1787157 0.173266 0.1759153 0.1857373 0.1980665 0.2056954 0.2023897 0.1890846
 0.1766836 0.1780311 0.1944085 0.2133842 0.2227901 0.2230669 0.2223431 0.2238105 0.2241264 0.2222625
 0.2230777 0.2306237 0.2421634 0.2508637 0.2518001 0.2439029 0.2293119 0.2138551 0.2055483 0.2081805
 0.2170083 0.2239126 0.225255 0.2214118 0.2119874 0.1978418 0.1861956 0.1862809 0.1986429 0.2139032
 0.2234189 0.2271534 0.2297969 0.2326985 0.2322609 0.2254376 0.2148363 0.2071159 0.206394 0.2106332
 0.2150719 0.2172406 0.2170114 0.2137659 0.2067739 0.1983554 0.1939022 0.1971948 0.2064907 0.2161709
 0.2217918 0.2228766 0.2215325 0.2197557 0.218105 0.2159162 0.2126643 0.2096881 0.2099142 0.2146996
 0.2216164 0.2269189 0.2298196 0.2327466 0.2375234 0.2428398 0.2458328 0.2452071 0.2424704 0.2406243
 0.2417592 0.2453931 0.2488256 0.2494379 0.2471859 0.244881 0.2456048 0.2497696 0.2550617 0.259075
 0.2612786 0.2625109 0.2635586 0.2644781 0.2645623 0.2628777 0.2595955 0.256779 0.2569275 0.2604936
 0.2654411 0.2693367 0.2713057 0.2719085 0.2718214 0.2711266 0.2696941 0.267816 0.2662217 0.2655072
 0.2657145 0.2664872 0.2674519 0.2683727 0.2691226 0.2696722 0.2700696 0.2703689 0.2706073 0.2708385
 0.2710965 0.2713181 0.271404 0.2713901 0.2714652 0.2717558 0.2721613 0.272462 0.2725245 0.2723159
 0.2717816 0.2708509 0.2695626 0.2680618 0.2664295 0.2646292 0.2627363 0.2611808 0.2606186 0.2614462
 0.2634361 0.2658745 0.268049 0.2696034 0.2705317 0.2709876 0.2711495 0.2711733 0.2711599 0.2711315
 0.271055 0.2709005 0.2706727 0.2703943 0.2700865 0.269778 0.2695099 0.2693079 0.2691528 0.2689904
 0.268766 0.2684507 0.2680508 0.267598 0.2671195 0.2666075 0.2660169 0.265298 0.26444 0.2634917
 0.2625388 0.2616497 0.260832 0.2600348 0.2591948 0.2582784 0.2572692 0.2561306 0.2548323 0.2534354
 0.2521012 0.2509643 0.2500184 0.249149 0.2482426 0.2472389 0.2461232 0.2449156 0.2436553 0.2423656
 0.2410374 0.2396511 0.2381985 0.236682 0.2351041 0.2334647 0.2317649 0.230013 0.2282261 0.2264177
 0.2245704 0.2226126 0.2204273 0.2178863 0.214874 0.2112961 0.2071126 0.202392 0.1973161 0.1921108
 0.1869732 0.1820569 0.1774934 0.1734027 0.1698834 0.1669987 0.1647772 0.1632336 0.1623819 0.1622265
 0.1627511 0.1639206 0.1656768 0.1679236 0.170522 0.1732987 0.1760619 0.1786425 0.180963 0.1830684
 0.1850664 0.1870238 0.1889159 0.1906652 0.1922154 0.1935596 0.1947064 0.1956511 0.1963964 0.196975
 0.1974303 0.1977919 0.1980827 0.1983276 0.1985394 0.1987118 0.1988336 0.1989077 0.1989605 0.1990389
 0.1991833 0.1993982 0.1996639 0.1999737 0.2003455 0.2007966 0.2013216 0.201894 0.2024856 0.2030844
 0.2037003 0.2043584 0.205096 0.2059586 0.2069846 0.2081905 0.2095656 0.2110645 0.2126009 0.2140693
 0.2153822 0.2164816 0.2173318 0.2179241 0.2182832 0.218452 0.2184655 0.21834 0.2180817 0.2177079
 0.2172558 0.2167587 0.2162209 0.2156321 0.2149956 0.2143268 0.2136428 0.2129727 0.2123542 0.2118002
 0.2112876 0.2107891 0.2102964 0.2098122 0.2093422 0.2088972 0.2084829 0.2080874 0.2076906 0.2072815
 0.2068603 0.2064191 0.2059236 0.2053232 0.2045902 0.203737 0.2027849 0.2017301 0.2005562 0.1992671
 0.1978897 0.1964499 0.1949569 0.1934112 0.1918207 0.1901937 0.188509 0.1867146 0.184789 0.1827906
 0.1808227 0.1789573 0.1772087 0.1755614 0.1740002 0.1725218 0.1711277 0.1698058 0.1685307 0.1672925
 0.1661083 0.1649932 0.1639376 0.1629255 0.1619637 0.1610839 0.1603185 0.1596701 0.159104 0.1585819
 0.1580964 0.1576671 0.1573185 0.157079 0.1569718 0.1569784 0.157027 0.1570328 0.1569472 0.1567714
 0.1565458 0.1563225 0.1561312 0.1559731 0.1558409 0.1557165 0.1555422 0.1552185 0.1546458 0.1537617
 0.1525498 0.1510354 0.1492839 0.1474058 0.1455471 0.1438465 0.1423906 0.1412119 0.1403118 0.1396551
 0.1391616 0.1387495 0.1383975 0.1381553 0.1380937 0.1382216 0.138431 0.1385528 0.1385128 0.1384184
 0.1384614 0.1387582 0.1392884 0.1399389 0.140581 0.1411307 0.1415559 0.1418439 0.1419961 0.1420447
 0.1420217 0.1419161 0.1417053 0.141409 0.141071 0.140711 0.1403209 0.1398806 0.139365 0.1387556
 0.1380459 0.1372362 0.1363477 0.1354187 0.1344392 0.1333383 0.1321212 0.130981 0.1302046 0.1299852
 0.1303317 0.13109 0.1320436 0.1330422 0.1339994 0.1347519 0.1350884 0.1350764 0.1352419 0.1362011
 0.1380719 0.1403445 0.1423361 0.1436777 0.1443521 0.144444 0.1440156 0.143129 0.1418069 0.1400068
 0.1377396 0.1351356 0.1323355 0.1294479 0.126638 0.1241021 0.1219511 0.1202092 0.1188633 0.1179398
 0.117561 0.1173801 0.1156112 0.1099515 0.1011154 0.09444604 0.09544027 0.1035716 0.1126395 0.1173358
 0.1174882 0.1158997 0.1145111 0.1136184 0.1131191 0.1131382 0.1137975 0.1149748 0.1163014 0.1173801
 0.1180525 0.1183701 0.1182935 0.1174672 0.1151874 0.1106442 0.1035663 0.09479576 0.08600655 0.07872985
 0.07366458 0.07068692 0.06918284 0.06841837 0.06791326 0.06764354 0.0678995 0.0689462 0.07081002 0.07334058
 0.0763651 0.07966402 0.08285719 0.08553853 0.08758342 0.08916274 0.090421 0.09129515 0.09166206 0.09151163
 0.0909467 0.09011528 0.08916083 0.08817092 0.08713939 0.08600044 0.08475398 0.08357702 0.08273801 0.08234803
 0.08226758 0.0822935 0.08233782 0.0823995 0.08248387 0.08259088 0.08271097 0.0828418 0.08304663 0.08342079
 0.08395296 0.08449572 0.08490302 0.0851429 0.08527442 0.08532871 0.08519773 0.08472476 0.08399299 0.08335744
 0.08298972 0.08256407 0.08167613 0.08045967 0.07950582 0.07921734 0.07945958 0.079809 0.07994854 0.07981974
 0.07958436 0.07953371 0.07989779 0.08057959</values></Ydata></ScSm><ScRf><Ydata ylabel="Single channel"><values byteorder="INTEL" format="FLOAT32" numvalues="1820"> 0.06037343 0.06052438 0.06061114 0.06063849 0.06063412 0.06064422 0.06071584 0.06086562 0.06106371 0.06125078
 0.06137875 0.06144039 0.06145374 0.06142588 0.0613612 0.06130531 0.06133662 0.06148931 0.06170397 0.06186949
 0.06191273 0.06186105 0.06182476 0.06188922 0.06200088 0.06198391 0.06170641 0.06123186 0.06077654 0.06050967
 0.06045019 0.06059638 0.06102964 0.0617031 0.06220804 0.06206513 0.0613218 0.06058601 0.06035268 0.06053007
 0.06071428 0.06065646 0.06034528 0.05992489 0.05973841 0.06023036 0.06151129 0.06300342 0.0636501 0.06258091
 0.05973012 0.0560385 0.05311069 0.05235612 0.05399508 0.05676709 0.05887755 0.05943278 0.05887393 0.0580707
 0.05738085 0.05675588 0.05635062 0.05656805 0.0575008 0.0585444 0.05870706 0.05746181 0.05537598 0.05371048
 0.05326965 0.05389539 0.05513797 0.0567442 0.05797365 0.05721143 0.05355558 0.04882498 0.04674984 0.04942874
 0.05509166 0.05983324 0.06108665 0.05905883 0.05559815 0.05266007 0.0515692 0.05265985 0.05521728 0.05807603
 0.06032863 0.06136193 0.06069702 0.05840648 0.05552422 0.05354233 0.05349409 0.05555291 0.05899566 0.06225962
 0.06364946 0.06259272 0.06002518 0.05740057 0.05572883 0.05557535 0.05720615 0.06030932 0.06397937 0.06724176
 0.06944734 0.07033511 0.07009231 0.06924209 0.06824338 0.06740217 0.06714624 0.06776783 0.06871307 0.06878892
 0.06746458 0.06558742 0.06451319 0.06470628 0.06537175 0.06542157 0.06457449 0.06317391 0.06110667 0.05778939
 0.05349623 0.04971017 0.04764052 0.04730541 0.04841805 0.05085378 0.05359795 0.054677 0.053312 0.05130429
 0.05124172 0.05373608 0.05710393 0.0594308 0.06034607 0.06089715 0.06219301 0.06426688 0.06593339 0.06568579
 0.0631946 0.06014987 0.05906811 0.06082015 0.06379069 0.0658628 0.06665109 0.06726189 0.06836487 0.06915513
 0.06818931 0.0650966 0.06150132 0.06001872 0.06197404 0.06607635 0.06935771 0.06936795 0.06582192 0.06067
 0.0565833 0.05510453 0.05622817 0.05941588 0.06419413 0.0696219 0.07404093 0.07599603 0.07529044 0.072923
 0.06994773 0.06649035 0.062277 0.05825303 0.05680592 0.05951348 0.06513041 0.07062563 0.07389242 0.07480477
 0.07404001 0.07178032 0.06791499 0.06331606 0.06025913 0.06065551 0.06375247 0.06655808 0.06697691 0.06572433
 0.06478966 0.06495523 0.0655009 0.06573312 0.06597999 0.06703558 0.0690237 0.07109709 0.07225598 0.07225458
 0.07164433 0.07113059 0.07093082 0.07061604 0.06971987 0.06867762 0.06876962 0.07071644 0.073683 0.0761351
 0.07737628 0.07779869 0.07785475 0.07726848 0.07543533 0.0725544 0.07009925 0.06972788 0.07167892 0.07461672
 0.07702078 0.07828283 0.07857254 0.07828867 0.07778663 0.07726455 0.07681872 0.07668355 0.0771734 0.07822941
 0.07931848 0.07996411 0.08013517 0.08000565 0.07961561 0.07894528 0.07816242 0.07761975 0.07759792 0.07809358
 0.0788728 0.07968119 0.08033012 0.08064704 0.08053278 0.08010589 0.07963933 0.07931305 0.079144 0.07914839
 0.07939996 0.07988077 0.08040965 0.08079182 0.08097243 0.08100761 0.08095201 0.08082099 0.0806316 0.08044762
 0.08037801 0.08050135 0.08077071 0.0810435 0.08124809 0.08145612 0.08172607 0.08195239 0.08197418 0.08179173
 0.08157878 0.08149433 0.08155437 0.08167609 0.08177084 0.08176418 0.08158588 0.08123051 0.08084297 0.08066519
 0.08084524 0.08133359 0.08196966 0.08259298 0.08306665 0.08331069 0.08336457 0.08334437 0.08330639 0.08320865
 0.08301754 0.08280432 0.08272068 0.08288573 0.08328231 0.0837613 0.08415817 0.0843951 0.08448792 0.08451817
 0.08459984 0.08478749 0.08499463 0.085077 0.08501501 0.08494574 0.08499484 0.08513228 0.08521979 0.08517452
 0.08506338 0.08503412 0.08516204 0.08538498 0.08559214 0.08574745 0.08590484 0.08611257 0.08632167 0.08640876
 0.08630879 0.08610588 0.08595078 0.08590293 0.08591373 0.08595499 0.08607553 0.08629923 0.08653811 0.08666813
 0.08666921 0.08664069 0.08667596 0.08675469 0.08677527 0.08667286 0.0864841 0.08630693 0.0862216 0.08624578
 0.08633702 0.08642353 0.08644599 0.08638987 0.08628482 0.08617169 0.08607344 0.08600736 0.08601695 0.08615477
 0.08640456 0.08663809 0.08669491 0.08652624 0.08624817 0.08603738 0.08597392 0.08598683 0.08594388 0.08577941
 0.08553444 0.08529443 0.08511169 0.08498433 0.0848847 0.08479463 0.08472864 0.08473273 0.0848391 0.08500007
 0.08508843 0.08500147 0.08476228 0.08449402 0.08430499 0.08422154 0.08420846 0.08421594 0.08421986 0.08424278
 0.08431649 0.08441107 0.08444215 0.08437097 0.08425829 0.08420163 0.08425763 0.08442588 0.08464885 0.08481645
 0.08483587 0.08472645 0.08460717 0.08457424 0.0846248 0.08470631 0.08479435 0.08489646 0.0850118 0.08512564
 0.08524067 0.0853878 0.08559402 0.08584534 0.08608724 0.08626484 0.08637042 0.0864588 0.08661062 0.08686804
 0.08720033 0.08753041 0.0877967 0.08799364 0.08815905 0.08832744 0.08850479 0.08869252 0.08891572 0.08920066
 0.08953094 0.08985539 0.09014283 0.09040768 0.09067975 0.09096871 0.09126547 0.09157029 0.09191057 0.09231582
 0.09276244 0.09315986 0.09342256 0.09355725 0.09366302 0.09385088 0.09416623 0.09455864 0.09490678 0.09511055
 0.09519391 0.09529074 0.09549837 0.09577662 0.09602984 0.09625503 0.09654834 0.0969682 0.09744358 0.09783835
 0.09808372 0.0982303 0.09837857 0.09857097 0.09875962 0.09888057 0.0989427 0.09901771 0.0991508 0.09932637
 0.0995334 0.09981082 0.1001874 0.1006112 0.1009866 0.1012632 0.1014582 0.1016097 0.1017398 0.1018458
 0.1019068 0.1019169 0.1019182 0.10197 0.1020721 0.1021606 0.1021959 0.1022168 0.1022884 0.1024352
 0.1026486 0.1029224 0.1032395 0.1035496 0.1038134 0.1040666 0.104385 0.1047669 0.105101 0.1052851
 0.105339 0.1053577 0.1053899 0.1054246 0.1054758 0.1056058 0.1058523 0.1061808 0.1065296 0.1068704
 0.1072095 0.1075492 0.107861 0.1080942 0.1082104 0.1082187 0.1081806 0.1081808 0.1082872 0.1085194
 0.1088395 0.1091739 0.1094586 0.1096599 0.1097589 0.1097506 0.1096829 0.1096631 0.1097744 0.1099805
 0.1101429 0.110136 0.109925 0.1095403 0.1090207 0.1083998 0.1077278 0.1070775 0.1065234 0.1061157
 0.1058795 0.1058399 0.1060354 0.1064803 0.1071137 0.1078122 0.1084615 0.1089872 0.1093135 0.1093464
 0.1090409 0.1084625 0.1077475 0.1070174 0.1063398 0.1057319 0.1051656 0.104603 0.1040775 0.1037361
 0.103773 0.1043133 0.1053486 0.1067444 0.1082847 0.1097411 0.1109616 0.111925 0.1127117 0.1134143
 0.1140797 0.1147268 0.1153803 0.1160505 0.1166971 0.1172599 0.1177273 0.118145 0.1185551 0.118954
 0.1193096 0.1195968 0.1198218 0.1200235 0.1202344 0.1204281 0.1205318 0.1205087 0.1204018 0.1202789
 0.1201566 0.1199954 0.1197439 0.1193793 0.1189368 0.1185329 0.1183511 0.1185653 0.1192398 0.1202888
 0.1215406 0.1228462 0.1241168 0.1252733 0.1262169 0.126887 0.1273224 0.1276299 0.1279041 0.1281905
 0.1284968 0.1288123 0.1291194 0.1294087 0.1296855 0.1299672 0.130274 0.1306126 0.130958 0.1312654
 0.1315129 0.1317309 0.1319817 0.1323055 0.1326818 0.1330503 0.133377 0.1336898 0.1340271 0.1343663
 0.1346422 0.1348309 0.1349817 0.1351668 0.1354287 0.1357666 0.1361383 0.1364743 0.1367245 0.1369023
 0.1370666 0.1372618 0.1374897 0.1377324 0.1379803 0.1382327 0.1384884 0.1387517 0.1390368 0.1393479
 0.1396528 0.139897 0.1400585 0.1401787 0.1403261 0.1405304 0.1407642 0.1409836 0.1411793 0.1413865
 0.1416454 0.1419528 0.1422549 0.142493 0.1426538 0.1427726 0.142896 0.1430501 0.1432393 0.1434554
 0.1436814 0.1438979 0.1440987 0.144298 0.1445142 0.1447481 0.1449821 0.1452013 0.1454078 0.1456133
 0.1458229 0.1460329 0.146244 0.1464715 0.1467343 0.147028 0.1473141 0.1475472 0.147716 0.1478482
 0.1479773 0.1481167 0.1482666 0.1484309 0.1486152 0.1488162 0.1490241 0.1492307 0.1494336 0.1496342
 0.1498368 0.1500458 0.1502626 0.1504844 0.1507078 0.1509321 0.1511572 0.1513793 0.1515928 0.1517949
 0.1519888 0.1521814 0.1523784 0.1525811 0.1527839 0.152977 0.1531566 0.1533295 0.1535075 0.1536958
 0.1538916 0.1540902 0.1542884 0.1544857 0.1546828 0.1548821 0.1550831 0.1552809 0.1554703 0.155654
 0.1558399 0.1560296 0.1562167 0.1563981 0.1565815 0.1567759 0.1569832 0.1571995 0.1574212 0.1576437
 0.1578611 0.1580677 0.1582606 0.1584419 0.1586188 0.1587988 0.1589852 0.1591772 0.1593735 0.1595735
 0.1597782 0.1599876 0.1601973 0.160403 0.1606091 0.1608255 0.1610517 0.1612749 0.1614855 0.1616872
 0.1618893 0.1620984 0.1623162 0.1625397 0.162764 0.1629885 0.1632141 0.1634364 0.1636452 0.1638318
 0.1639966 0.1641504 0.1643076 0.1644751 0.1646525 0.1648401 0.1650384 0.1652402 0.1654357 0.1656245
 0.165812 0.1660002 0.1661896 0.1663837 0.166585 0.1667944 0.1670123 0.1672341 0.1674475 0.1676428
 0.1678229 0.1680004 0.168191 0.1684052 0.1686355 0.1688618 0.1690733 0.1692763 0.1694786 0.1696822
 0.1698893 0.1701004 0.1703119 0.170523 0.1707367 0.1709519 0.171164 0.1713738 0.1715836 0.1717907
 0.1719946 0.1721996 0.1724081 0.1726195 0.1728332 0.1730454 0.17325 0.1734488 0.1736492 0.1738534
 0.1740623 0.1742812 0.1745067 0.1747265 0.1749388 0.1751543 0.1753767 0.1756008 0.1758241 0.1760449
 0.1762605 0.1764742 0.1766872 0.1768802 0.1770067 0.1769608 0.1764834 0.1750593 0.1718957 0.1660663
 0.1568699 0.1442661 0.129043 0.1125398 0.09615131 0.0809597 0.06761666 0.05641659 0.04743643 0.04062852
 0.03587401 0.03306977 0.03222453 0.03356382 0.03764372 0.04501972 0.05501094 0.06461836 0.06969911 0.06823239
 0.06224451 0.05596084 0.05230113 0.05147427 0.05223375 0.05351125 0.05496778 0.05680155 0.059349 0.0626974
 0.06667174 0.07125484 0.0767916 0.08354534 0.09116654 0.09883989 0.105987 0.1127127 0.1195311 0.1267343
 0.1340862 0.1410623 0.14727 0.1526374 0.1573281 0.1615653 0.1655114 0.1692453 0.1728024 0.1761767
 0.17925 0.1817622 0.1834373 0.1841949 0.1842481 0.1839831 0.1837342 0.1836552 0.1837595 0.1840196
 0.1844155 0.1849338 0.185562 0.1862789 0.1870476 0.1878316 0.1886142 0.1893888 0.1901392 0.1908435
 0.1914882 0.1920718 0.1926015 0.1930901 0.1935454 0.1939676 0.1943608 0.1947353 0.1950977 0.1954449
 0.1957728 0.1960807 0.196369 0.1966379 0.1968866 0.1971128 0.19732 0.1975217 0.1977301 0.197942
 0.1981469 0.1983439 0.1985424 0.1987487 0.1989596 0.199167 0.199367 0.1995634 0.1997626 0.199966
 0.2001705 0.2003748 0.2005783 0.2007789 0.2009763 0.2011712 0.2013607 0.2015403 0.2017146 0.201896
 0.2020915 0.2022972 0.2025054 0.2027088 0.2029041 0.203096 0.2032946 0.2035043 0.2037216 0.2039433
 0.2041681 0.2043936 0.2046183 0.2048412 0.2050532 0.2052373 0.2053852 0.2055144 0.2056639 0.2058649
 0.2061115 0.2063649 0.2065942 0.2068013 0.2070016 0.2071975 0.2073819 0.207552 0.2077137 0.2078864
 0.2080948 0.2083413 0.2085969 0.2088365 0.2090621 0.2092846 0.2095081 0.2097403 0.2099849 0.2102172
 0.2103988 0.2105318 0.2106801 0.2109192 0.2112616 0.2116376 0.211962 0.212211 0.2124234 0.2126481
 0.2129112 0.2131946 0.2134114 0.2134668 0.2134005 0.2134117 0.2136737 0.2141615 0.2147053 0.2151659
 0.215519 0.2158082 0.2160703 0.2162968 0.2164438 0.2164815 0.2164566 0.216507 0.2167702 0.2172431
 0.2177719 0.2182099 0.2185331 0.2187823 0.218984 0.219155 0.2192699 0.2191989 0.2188419 0.2183914
 0.2182918 0.2188088 0.2197293 0.2205923 0.2211471 0.2214792 0.2217536 0.222011 0.2222206 0.2223059
 0.2220329 0.2211478 0.2198652 0.2190012 0.2192946 0.2206626 0.2223406 0.2236486 0.2244184 0.2248218
 0.2250739 0.225291 0.2254041 0.2251644 0.2244195 0.2234849 0.2230697 0.2236248 0.2248368 0.2259639
 0.2265937 0.226864 0.2270695 0.2273312 0.2275137 0.2271798 0.225836 0.2236598 0.2218723 0.2218799
 0.2238972 0.2266888 0.2287936 0.2297845 0.2301581 0.2302572 0.2297688 0.2282902 0.2259314 0.2232662
 0.2211584 0.2206478 0.2222595 0.2251376 0.227532 0.2285295 0.2288253 0.2295685 0.2309866 0.2323954
 0.2330896 0.2328914 0.2320242 0.2307187 0.2291019 0.2275605 0.2269618 0.2280398 0.2305069 0.2331516
 0.2349571 0.2358709 0.236286 0.2358578 0.2332607 0.2277829 0.2213295 0.2178964 0.2200432 0.226212
 0.232397 0.2360801 0.2376104 0.2383254 0.2387627 0.2385107 0.2364434 0.2313279 0.2237556 0.2173772
 0.2164401 0.2215821 0.2291082 0.2344433 0.2352607 0.231739 0.2257329 0.2202095 0.2180369 0.2202537
 0.2256179 0.2318304 0.236912 0.2397483 0.240085 0.2384208 0.2359676 0.2343496 0.2344233 0.235004
 0.2337694 0.2301899 0.226411 0.2241044 0.2218799 0.2178544 0.2137958 0.2139549 0.2195468 0.2267199
 0.2308859 0.231369 0.2305673 0.2295707 0.2262739 0.2183938 0.2077908 0.200546 0.2016498 0.2098283
 0.2186849 0.2229669 0.2227348 0.2214857 0.2214857 0.2214638 0.2184091 0.2115104 0.204164 0.20112
 0.2034152 0.2074363 0.2091893 0.2074809 0.2024961 0.1945193 0.1862579 0.1836679 0.1909206 0.2052873
 0.2192848 0.2268404 0.2254916 0.215023 0.1983528 0.1833612 0.1790522 0.1874711 0.2012143 0.2102452
 0.2098467 0.2014388 0.1883118 0.1734119 0.1607186 0.1556091 0.1616317 0.1769321 0.1942968 0.2046933
 0.2022321 0.1887828 0.174479 0.1704254 0.1785376 0.1901839 0.19586 0.193828 0.1887452 0.1856823
 0.1872123 0.192958 0.1999806 0.2055406 0.2092838 0.2101108 0.2032112 0.1858348 0.1649455 0.1526482
 0.1536184 0.1626695 0.1744255 0.1881655 0.2015774 0.2074274 0.2017194 0.1912918 0.1880219 0.1962137
 0.2089005 0.2163682 0.2157759 0.2116886 0.2090204 0.2077986 0.2056039 0.2032287 0.2048803 0.2123821
 0.2219944 0.2285898 0.2309852 0.2314847 0.2319666 0.2324524 0.2324275 0.2317049 0.230352 0.2288119
 0.2277679 0.2273777 0.2271315 0.2266291 0.2255483 0.2224538 0.2151136 0.2036321 0.1924416 0.1867957
 0.1872001 0.1897637 0.1919769 0.1941749 0.194146 0.1856196 0.1665556 0.1459413 0.1372576 0.1454546
 0.1632614 0.1794611 0.1874816 0.1859604 0.1753823 0.1582665 0.1418522 0.135855 0.1445529 0.1626788
 0.1810481 0.1944812 0.2024243 0.204567 0.1998398 0.1895248 0.1785367 0.1726205 0.1748327 0.1841827
 0.1959896 0.2031148 0.1994349 0.1859037 0.1732605 0.1741338 0.1898038 0.2081008 0.2170952 0.2171913
 0.2163257 0.2176235 0.2178268 0.2159362 0.2167027 0.2240946 0.2354569 0.2441337 0.2453199 0.237957
 0.2241177 0.2095055 0.2019794 0.205215 0.2144591 0.2216487 0.2231926 0.2194975 0.2102167 0.1962619
 0.1848553 0.185183 0.1977541 0.2131997 0.2229122 0.22688 0.2297921 0.232971 0.2327875 0.2261909
 0.2158296 0.2084229 0.2081179 0.2128588 0.2178521 0.2206167 0.2210111 0.2183666 0.2119071 0.2040049
 0.2002017 0.2043785 0.21471 0.2253507 0.2316431 0.2330097 0.2315675 0.2293848 0.2271005 0.224094
 0.219862 0.2158133 0.2150013 0.2188699 0.2249656 0.2294594 0.2315288 0.2336403 0.2376712 0.2423297
 0.2447318 0.2435483 0.2402676 0.2378942 0.2385311 0.2417067 0.2447324 0.2450041 0.242478 0.2399346
 0.2404173 0.2443393 0.2494318 0.2533262 0.2554775 0.2566824 0.2577046 0.2586045 0.258681 0.2569954
 0.253699 0.250816 0.2508034 0.2541065 0.258736 0.2623331 0.264084 0.2645712 0.2644565 0.2637924
 0.262426 0.2606363 0.2591398 0.2585153 0.2587849 0.2595728 0.2604946 0.2613239 0.2619593 0.2623951
 0.2626875 0.2628803 0.2629926 0.2630697 0.2631566 0.2632138 0.2631611 0.2630391 0.263029 0.2632459
 0.2635833 0.2638258 0.2638481 0.2636189 0.2630787 0.2621498 0.2608725 0.2594053 0.2578482 0.2561725
 0.2544377 0.2530395 0.2525964 0.2534861 0.2554922 0.257935 0.2601324 0.2617356 0.2627279 0.2632503
 0.2634708 0.2635316 0.2635186 0.2634514 0.2633132 0.2630956 0.2628143 0.2624897 0.2621294 0.2617409
 0.2613554 0.2610179 0.2607418 0.2604823 0.2601668 0.2597532 0.2592577 0.2587307 0.2582065 0.2576674
 0.2570518 0.2563016 0.2554108 0.2544367 0.2534695 0.2525834 0.2517951 0.2510579 0.2503048 0.2494937
 0.2485994 0.2475846 0.2464374 0.2452434 0.2441651 0.2433127 0.2426561 0.2420728 0.2414472 0.2407102
 0.239834 0.238833 0.2377585 0.2366628 0.2355654 0.2344545 0.2333049 0.2320858 0.2307674 0.2293377
 0.2278133 0.2262281 0.2246166 0.2229963 0.2213458 0.2195873 0.217602 0.2152663 0.2124732 0.2091399
 0.2052332 0.2008102 0.1960268 0.1910921 0.1862062 0.1815284 0.1771838 0.1732814 0.1699187 0.1671704
 0.1650812 0.1636745 0.1629652 0.1629623 0.1636594 0.1650247 0.1669917 0.1694538 0.1722646 0.1752517
 0.1782367 0.1810635 0.183641 0.18598 0.1881676 0.1902708 0.1922671 0.1940844 0.1956887 0.1970979
 0.1983259 0.1993626 0.2002129 0.2009167 0.2015174 0.2020327 0.2024631 0.202814 0.2031 0.2033362
 0.203536 0.2037148 0.2038932 0.2040911 0.2043174 0.2045672 0.2048315 0.2051158 0.2054494 0.205864
 0.2063598 0.2069046 0.2074714 0.2080612 0.2086845 0.209343 0.2100488 0.2108445 0.211785 0.2128994
 0.2141714 0.2155467 0.2169509 0.2183022 0.2195197 0.220532 0.2212915 0.221788 0.2220498 0.2221265
 0.2220639 0.2218868 0.2216053 0.2212324 0.2207866 0.2202798 0.2197156 0.2191002 0.2184404 0.2177352
 0.2169889 0.2162313 0.2155063 0.2148344 0.2141979 0.2135676 0.2129354 0.212314 0.211713 0.2111266
 0.2105466 0.2099761 0.2094194 0.2088663 0.208298 0.2076985 0.2070486 0.2063216 0.2055 0.2045872
 0.2035874 0.2024898 0.2012871 0.1999984 0.1986536 0.1972596 0.1957952 0.1942371 0.1925835 0.1908462
 0.1890282 0.1871203 0.1851333 0.1831222 0.1811642 0.1793152 0.1775939 0.1759921 0.1744858 0.1730498
 0.1716774 0.1703798 0.169163 0.1680183 0.1669364 0.1659109 0.1649294 0.1639769 0.1630579 0.1622042
 0.1614539 0.1608211 0.1602871 0.159822 0.1594071 0.1590396 0.1587365 0.1585375 0.1584739 0.1585214
 0.1586027 0.1586457 0.1586216 0.1585352 0.1584108 0.1582845 0.1581829 0.1581067 0.15804 0.1579587
 0.1578174 0.1575398 0.1570296 0.1561987 0.1550064 0.1534843 0.151722 0.1498413 0.1479876 0.1463037
 0.1448813 0.1437443 0.1428768 0.1422338 0.1417398 0.1413279 0.1409943 0.1407978 0.1408008 0.1409922
 0.1412466 0.1414002 0.1414112 0.141417 0.1416018 0.1420412 0.1426836 0.143418 0.1441365 0.144773
 0.1453035 0.1457105 0.1459803 0.1461303 0.1461929 0.1461733 0.1460612 0.1458625 0.1455907 0.1452566
 0.1448779 0.1444609 0.1439828 0.1434196 0.1427666 0.1420187 0.1411778 0.1402669 0.139281 0.138173
 0.1369711 0.1358715 0.1351451 0.134973 0.1353648 0.1361678 0.1371689 0.1382315 0.1392767 0.140124
 0.1405439 0.1406082 0.140853 0.1418965 0.143862 0.146246 0.1483531 0.1497923 0.1505376 0.1506751
 0.1502689 0.1493892 0.1480682 0.1462548 0.1439392 0.1412425 0.1383156 0.1352904 0.1323554 0.1297124
 0.1274673 0.1256556 0.124282 0.1233621 0.122989 0.1227874 0.1209075 0.1149594 0.1056981 0.0987186
 0.09977397 0.1083111 0.1178366 0.1227865 0.1229749 0.1213412 0.1199161 0.1189892 0.1184437 0.1184308
 0.119091 0.120276 0.1215859 0.1226229 0.1232412 0.1234962 0.1233466 0.1224246 0.1199952 0.1152143
 0.1077971 0.09860511 0.08936928 0.08169837 0.07634848 0.07320609 0.0716292 0.07083341 0.07028923 0.06996809
 0.07020831 0.07131499 0.07330271 0.07598957 0.07918664 0.08265884 0.08600178 0.08880046 0.09094702 0.09263728
 0.09403187 0.09506617 0.09560181 0.09562264 0.09524591 0.09463124 0.09391044 0.09314164 0.09227763 0.09121323
 0.08995027 0.08872336 0.08786002 0.08747829 0.0874095 0.08742564 0.08742618 0.08740247 0.08736028 0.08731249
 0.08727422 0.08727023 0.08737289 0.08766213 0.08810912 0.08856317 0.08887871 0.08902351 0.08906613 0.08905202
 0.08887534 0.08836716 0.08758999 0.08687553 0.08638959 0.08583113 0.08482602 0.08351468 0.08248237 0.08213605
 0.0823487 0.08269194 0.08282997 0.08268043 0.08239474 0.08228409 0.08260973 0.08327805 0.08382352 0.08384569
</values></Ydata></ScRf><Data_Parameters_AB><parameter name="DPF">1</parameter><parameter name="NPT">3497</parameter><parameter name="FXV">3996</parameter><parameter name="LXV">500</parameter><parameter name="CSF">1</parameter><parameter name="MXY">0.0408148914575577</parameter><parameter name="MNY">-0.081063337624073</parameter><parameter name="DAT">30/05/2022</parameter><parameter name="TIM">11:17:48.533 (GMT+2)</parameter><parameter name="DXU">WN</parameter></Data_Parameters_AB><AB__Qtest><MainReport name="Quality Test Report"><Header><Line><Legend>Test result ok/not ok [1/0]: </Legend><Value>0</Value></Line><Line><Legend>Method file: </Legend><Value>C:\Users\Public\Documents\Bruker\OPUS_8.2.28\QT\IRBT_v3_default.QT</Value></Line></Header><Matrix><Line><Legend></Legend><Legend>min</Legend><Legend>max</Legend><Legend>measured</Legend></Line><Line><Value>Absorption (X-Range 1):</Value><Value>0.400000</Value><Value>2.000000</Value><Value>0.073903</Value></Line><Line><Value>Noise (X-Range 4):</Value><Value></Value><Value>0.000300</Value><Value>0.000037</Value></Line><Line><Value>Signal/Noise (X-Range 2):</Value><Value>200.000000</Value><Value></Value><Value>33.557597</Value></Line><Line><Value>Signal/Noise (X-Range 3):</Value><Value>40.000000</Value><Value></Value><Value>12.065641</Value></Line><Line><Value>Water vapour (X-Range 5):</Value><Value></Value><Value>0.000300</Value><Value>0.000033</Value></Line><Line><Value>Signal/Water (X-Range 2):</Value><Value>100.000000</Value><Value></Value><Value>37.403366</Value></Line><Line><Value>Signal/Water (X-Range 3):</Value><Value>20.000000</Value><Value></Value><Value>13.448388</Value></Line><Line><Value>Fringes (X-Range 6):</Value><Value></Value><Value>0.000100</Value><Value>0.000070</Value></Line></Matrix></MainReport></AB__Qtest><Data_Parameters_ScSm><parameter name="DPF">1</parameter><parameter name="NPT">1814</parameter><parameter name="FXV">3996.33169228125</parameter><parameter name="LXV">499.541461535156</parameter><parameter name="CSF">1</parameter><parameter name="MXY">0.272524535655975</parameter><parameter name="MNY">0.0367887355387211</parameter><parameter name="DAT">30/05/2022</parameter><parameter name="TIM">11:17:48.533 (GMT+2)</parameter><parameter name="DXU">WN</parameter></Data_Parameters_ScSm><Data_Parameters_ScRf><parameter name="DPF">1</parameter><parameter name="NPT">1820</parameter><parameter name="FXV">4004.04661832813</parameter><parameter name="LXV">495.683998511719</parameter><parameter name="CSF">1</parameter><parameter name="MXY">0.264571249485016</parameter><parameter name="MNY">0.0322245322167873</parameter><parameter name="DAT">30/05/2022</parameter><parameter name="TIM">11:17:23.716 (GMT+2)</parameter><parameter name="DXU">WN</parameter></Data_Parameters_ScRf><Optic_Parameters_Rf><parameter name="APR">0</parameter><parameter name="APT">Open</parameter><parameter name="BMS">KBr</parameter><parameter name="DTC">RT-DLaTGS_IR-Biotyper [Microplate reader]</parameter><parameter name="HPF">0</parameter><parameter name="LPF">10.0</parameter><parameter name="LPV">4000</parameter><parameter name="PGR">0</parameter><parameter name="RCH">Module port</parameter><parameter name="RDX">0</parameter><parameter name="SRC">MIR</parameter><parameter name="VEL">10.0</parameter><parameter name="SON">Off</parameter></Optic_Parameters_Rf><Acquisition_Parameters_Rf><parameter name="ADT">1</parameter><parameter name="AQM">DD</parameter><parameter name="CFE">0</parameter><parameter name="COR">0</parameter><parameter name="DEL">0</parameter><parameter name="DLY">0</parameter><parameter name="HFW">8000</parameter><parameter name="LFW">0</parameter><parameter name="NSR">32</parameter><parameter name="PLF">AB</parameter><parameter name="RES">6</parameter><parameter name="RGN">-1</parameter><parameter name="STR">0</parameter><parameter name="TCL">MakeCompatibleScalar (0, {WSV=1.000000, ARV=0});</parameter><parameter name="TDL">37</parameter><parameter name="RPO">0</parameter></Acquisition_Parameters_Rf><FT_-_Parameters_Rf><parameter name="APF">B3</parameter><parameter name="HFQ">500</parameter><parameter name="LFQ">4000</parameter><parameter name="NLI">0</parameter><parameter name="PHR">24</parameter><parameter name="PHZ">ML</parameter><parameter name="SPZ">NO</parameter><parameter name="ZFF">1</parameter></FT_-_Parameters_Rf><Optic_Parameters_><parameter name="APR">0</parameter><parameter name="APT">Open</parameter><parameter name="BMS">KBr</parameter><parameter name="CHN">Module port</parameter><parameter name="DTC">RT-DLaTGS_IR-Biotyper [Microplate reader]</parameter><parameter name="HPF">0</parameter><parameter name="LPF">10.0</parameter><parameter name="LPV">4000</parameter><parameter name="PGN">0</parameter><parameter name="RDX">0</parameter><parameter name="SRC">MIR</parameter><parameter name="VEL">10.0</parameter><parameter name="SON">Off</parameter></Optic_Parameters_><FT_-_Parameters_><parameter name="APF">B3</parameter><parameter name="HFQ">500</parameter><parameter name="LFQ">4000</parameter><parameter name="NLI">0</parameter><parameter name="PHR">24</parameter><parameter name="PHZ">ML</parameter><parameter name="SPZ">NO</parameter><parameter name="ZFF">1</parameter></FT_-_Parameters_><Acquisition_Parameters_><parameter name="ADT">1</parameter><parameter name="AQM">DD</parameter><parameter name="CFE">0</parameter><parameter name="COR">0</parameter><parameter name="DEL">0</parameter><parameter name="DLY">0</parameter><parameter name="HFW">8000</parameter><parameter name="LFW">0</parameter><parameter name="NSS">32</parameter><parameter name="PLF">AB</parameter><parameter name="RES">6</parameter><parameter name="SOT">0</parameter><parameter name="TCL">MakeCompatibleScalar (0, {WSV=1.000000, ARV=0});</parameter><parameter name="TDL">37</parameter><parameter name="SPO">0</parameter><parameter name="SGN">-1</parameter></Acquisition_Parameters_><Instrument_Parameters_Rf><parameter name="HFL">15800.168544</parameter><parameter name="LFL">0</parameter><parameter name="LWN">15800.168544</parameter><parameter name="ABP">32197</parameter><parameter name="SSP">1</parameter><parameter name="ARG">2</parameter><parameter name="ASG">2</parameter><parameter name="ASS">32</parameter><parameter name="GFW">16</parameter><parameter name="GBW">16</parameter><parameter name="BFW">0</parameter><parameter name="BBW">0</parameter><parameter name="PKA">7322</parameter><parameter name="PKL">4990</parameter><parameter name="PRA">7479</parameter><parameter name="PRL">5001</parameter><parameter name="P2A">1</parameter><parameter name="P2L">1</parameter><parameter name="P2R">1</parameter><parameter name="P2K">1</parameter><parameter name="DAQ">0</parameter><parameter name="AG2">1</parameter><parameter name="SSM">1</parameter><parameter name="RSN">25184</parameter><parameter name="CRR">0</parameter><parameter name="SRT">1653909443.716</parameter><parameter name="DUR">19.6369934082031</parameter><parameter name="TSC">27.9</parameter><parameter name="MVD">0.337654590606689</parameter><parameter name="AN1">0.225802702273846</parameter><parameter name="AN2">0</parameter><parameter name="VSN">2.485 Apr  4 2017</parameter><parameter name="SRN">0085</parameter><parameter name="CAM">0</parameter><parameter name="INS">IR-Biotyper</parameter><parameter name="FOC">69</parameter><parameter name="RDY">1</parameter><parameter name="ARS">32</parameter></Instrument_Parameters_Rf><Sample_Parameters_><parameter name="BLD"></parameter><parameter name="CNM">Admin</parameter><parameter name="CPY"></parameter><parameter name="DPM"></parameter><parameter name="EXP">IRBT_v3_32Scans.XPM</parameter><parameter name="LCT"></parameter><parameter name="SFM">Microplate, HTS-XT</parameter><parameter name="SNM">220530-1021_GFG29M (D_12)_G2_89c06f0c-fd38-47bc-b330-b563b2f31673.0</parameter><parameter name="XPP">C:\Users\Public\Documents\Bruker\OPUS_8.2.28\XPM</parameter><parameter name="IST">OK</parameter><parameter name="CPG">1252</parameter><parameter name="UID">37096b5b-89ca-4607-a506-ec7c0cab3882</parameter></Sample_Parameters_><Instrument_Parameters_><parameter name="HFL">15800.168544</parameter><parameter name="LFL">0</parameter><parameter name="LWN">15800.168544</parameter><parameter name="ABP">32197</parameter><parameter name="SSP">1</parameter><parameter name="ASG">2</parameter><parameter name="ARG">2</parameter><parameter name="ASS">32</parameter><parameter name="GFW">16</parameter><parameter name="GBW">16</parameter><parameter name="BFW">0</parameter><parameter name="BBW">0</parameter><parameter name="PKA">7822</parameter><parameter name="PKL">4988</parameter><parameter name="PRA">8080</parameter><parameter name="PRL">4993</parameter><parameter name="P2A">1</parameter><parameter name="P2L">1</parameter><parameter name="P2R">1</parameter><parameter name="P2K">1</parameter><parameter name="DAQ">0</parameter><parameter name="AG2">1</parameter><parameter name="SSM">1</parameter><parameter name="RSN">13218</parameter><parameter name="CRR">0</parameter><parameter name="SRT">1653909468.534</parameter><parameter name="DUR">19.6369934082031</parameter><parameter name="TSC">27.9</parameter><parameter name="MVD">0.261730939149857</parameter><parameter name="AN1">0.225800403055152</parameter><parameter name="AN2">0</parameter><parameter name="VSN">2.485 Apr  4 2017</parameter><parameter name="SRN">0085</parameter><parameter name="CAM">0</parameter><parameter name="INS">IR-Biotyper</parameter><parameter name="FOC">69</parameter><parameter name="RDY">1</parameter></Instrument_Parameters_><History/></OPUSDataFile>
