<?xml version="1.0" encoding="UTF-8" ?>
<OPUSDataFile><AB><Ydata ylabel="Absorbance Units"><values byteorder="INTEL" format="FLOAT32" numvalues="3497"> -0.08385772 -0.08386736 -0.08386705 -0.0838568 -0.08383621 -0.08380527 -0.08377188 -0.08373666 -0.08370996 -0.08369176
 -0.08368815 -0.08369689 -0.0837134 -0.08373553 -0.0837548 -0.08377334 -0.08379071 -0.08380957 -0.08383506 -0.08386157
 -0.08388818 -0.08390427 -0.08390244 -0.08388194 -0.08383828 -0.08378464 -0.08372247 -0.08366691 -0.08362078 -0.08359142
 -0.08358008 -0.08358666 -0.08361119 -0.08364549 -0.08368862 -0.08372634 -0.08375842 -0.08377525 -0.08377962 -0.08377549
 -0.08376711 -0.08376713 -0.0837761 -0.08380251 -0.08383972 -0.08388508 -0.08392817 -0.08395963 -0.08397426 -0.08396535
 -0.08393675 -0.08388789 -0.08382498 -0.08374921 -0.08366571 -0.08357456 -0.08348574 -0.08339965 -0.08333254 -0.08328535
 -0.08326835 -0.08328071 -0.08331437 -0.08336685 -0.08341864 -0.08346935 -0.08350655 -0.08353274 -0.08354773 -0.08355368
 -0.08355375 -0.08355004 -0.08354523 -0.0835435 -0.08354914 -0.08356418 -0.08359321 -0.08362766 -0.08366756 -0.0836961
 -0.08370843 -0.0836968 -0.08365703 -0.08360302 -0.08353455 -0.08347939 -0.08343909 -0.08343752 -0.08347446 -0.0835536
 -0.08367024 -0.08379951 -0.0839339 -0.08403061 -0.08409072 -0.08409109 -0.08404736 -0.08397451 -0.08388718 -0.08381123
 -0.08374518 -0.0837002 -0.08365848 -0.08361398 -0.08355021 -0.08345465 -0.08334059 -0.08320393 -0.08308656 -0.0829948
 -0.08295831 -0.08298309 -0.08305369 -0.08316971 -0.08328627 -0.08340209 -0.0834894 -0.08355127 -0.08359317 -0.0836184
 -0.08364294 -0.08366527 -0.08369105 -0.08371385 -0.08372526 -0.08372081 -0.08368921 -0.08363713 -0.08356392 -0.08348365
 -0.08340401 -0.0833339 -0.08327891 -0.08324084 -0.08321992 -0.083223 -0.08324979 -0.08331747 -0.08342899 -0.08358338
 -0.08378133 -0.08394498 -0.08406932 -0.08405505 -0.08391663 -0.08369692 -0.08341587 -0.08317567 -0.08297327 -0.08285383
 -0.08280233 -0.08281684 -0.08287529 -0.08295236 -0.0830285 -0.0830757 -0.08309681 -0.08308148 -0.08305311 -0.08302
 -0.08299212 -0.08297691 -0.08295961 -0.08293852 -0.08290358 -0.08285199 -0.08279907 -0.08274546 -0.08271574 -0.08270986
 -0.08273115 -0.0827755 -0.08281744 -0.08285413 -0.08285793 -0.0828362 -0.08279234 -0.08273675 -0.08269258 -0.08265562
 -0.08263154 -0.08260968 -0.08257977 -0.08254541 -0.08250272 -0.08246786 -0.08244673 -0.08244865 -0.08248057 -0.08252825
 -0.08259252 -0.08264435 -0.08268046 -0.08268449 -0.08265503 -0.08259917 -0.08251793 -0.08242895 -0.08233254 -0.08223957
 -0.08214846 -0.08205864 -0.08196919 -0.0818762 -0.08178297 -0.08169231 -0.08161017 -0.08154599 -0.08150037 -0.08147948
 -0.08147393 -0.08148101 -0.08148967 -0.08149367 -0.08149207 -0.08148244 -0.08147126 -0.08145951 -0.08145066 -0.08144555
 -0.08144119 -0.08143744 -0.08142974 -0.08141814 -0.08140247 -0.08138365 -0.08136762 -0.08135521 -0.08135343 -0.08136121
 -0.08137991 -0.08140705 -0.0814399 -0.08147401 -0.08150364 -0.08152325 -0.08152396 -0.08151042 -0.08147837 -0.0814496
 -0.08143078 -0.08144192 -0.08149397 -0.08157523 -0.08168918 -0.08179542 -0.0818896 -0.08194849 -0.08197019 -0.08195311
 -0.08189698 -0.0817946 -0.08164845 -0.08146897 -0.08126488 -0.08107665 -0.08091 -0.08080359 -0.08074982 -0.08075923
 -0.08080557 -0.08086127 -0.08090459 -0.08090035 -0.08086208 -0.08078463 -0.08069497 -0.08060355 -0.08052535 -0.08046781
 -0.08043087 -0.0804171 -0.08041375 -0.08042014 -0.08042129 -0.08041607 -0.0803999 -0.08037327 -0.08034527 -0.08031734
 -0.08030505 -0.08030722 -0.08033091 -0.08036662 -0.08039366 -0.0804031 -0.08036365 -0.08028702 -0.08017281 -0.08004022
 -0.07990874 -0.07978107 -0.07966683 -0.07955487 -0.07944117 -0.07932407 -0.0791993 -0.07908379 -0.07898027 -0.07889965
 -0.07884522 -0.0788026 -0.07877141 -0.07872248 -0.07865506 -0.07855512 -0.07842635 -0.07828876 -0.07814594 -0.07802414
 -0.0779219 -0.07784769 -0.07780097 -0.07778475 -0.07779816 -0.07784527 -0.07791314 -0.07799747 -0.07806996 -0.07811233
 -0.07810672 -0.07803646 -0.07791565 -0.077744 -0.07753999 -0.07730786 -0.07705259 -0.07677473 -0.07648148 -0.07617307
 -0.07586467 -0.07555732 -0.07527019 -0.07500477 -0.07478198 -0.07460106 -0.07447281 -0.07438963 -0.07433782 -0.07430828
 -0.07427534 -0.07424124 -0.07419797 -0.0741512 -0.07410974 -0.0740563 -0.07398769 -0.07387258 -0.07369044 -0.07345071
 -0.07314683 -0.07281817 -0.07247124 -0.0721316 -0.0718032 -0.07149754 -0.0712156 -0.07096533 -0.07074704 -0.07056597
 -0.0704212 -0.07031058 -0.07022923 -0.07015903 -0.07008852 -0.06997649 -0.06981732 -0.06957275 -0.06926618 -0.06890853
 -0.06853175 -0.06817096 -0.06783719 -0.06754948 -0.06730127 -0.06709737 -0.06691655 -0.06675513 -0.06659001 -0.066415
 -0.06622505 -0.06601831 -0.06580032 -0.06557148 -0.0653297 -0.06507482 -0.06480276 -0.06451482 -0.06421925 -0.06391787
 -0.06362341 -0.06333511 -0.06305727 -0.06278858 -0.06252857 -0.06227633 -0.06203138 -0.06179047 -0.06155058 -0.06130913
 -0.06106253 -0.06081385 -0.0605647 -0.06031303 -0.06006141 -0.05979278 -0.05950391 -0.05918428 -0.05882915 -0.05846667
 -0.05809787 -0.05776639 -0.05747317 -0.05722902 -0.0570304 -0.05685496 -0.05669887 -0.05653314 -0.05635826 -0.0561589
 -0.0559418 -0.05571122 -0.05547649 -0.05525277 -0.05504281 -0.05485886 -0.05468615 -0.05452358 -0.05434211 -0.05412672
 -0.05386792 -0.05355416 -0.05321319 -0.05284705 -0.05248777 -0.0521406 -0.05181371 -0.05150842 -0.05121624 -0.05093692
 -0.05066627 -0.05040468 -0.05015519 -0.04991568 -0.04967941 -0.04944187 -0.04918496 -0.04891011 -0.04860839 -0.04829124
 -0.04796999 -0.04765469 -0.04736122 -0.04708652 -0.04683526 -0.04659549 -0.04636289 -0.04612974 -0.04589162 -0.04565094
 -0.04540656 -0.04516766 -0.04493538 -0.04471533 -0.04450836 -0.04430825 -0.04411437 -0.04391135 -0.04369888 -0.04346652
 -0.04321685 -0.04295526 -0.04268559 -0.04242273 -0.04216608 -0.0419231 -0.04168754 -0.04145364 -0.04121757 -0.04097126
 -0.04072094 -0.04046768 -0.04021899 -0.03998096 -0.03974765 -0.03952037 -0.03928402 -0.03903467 -0.03876939 -0.03848583
 -0.03819916 -0.03791011 -0.03763632 -0.03737836 -0.03714201 -0.03692625 -0.03672497 -0.03653688 -0.03635281 -0.03617259
 -0.0359908 -0.03580859 -0.03562564 -0.03544312 -0.03526255 -0.03508459 -0.03491078 -0.03474021 -0.03457407 -0.03440671
 -0.03423671 -0.03405647 -0.03386138 -0.0336568 -0.03344069 -0.03323419 -0.03304028 -0.03286957 -0.03272412 -0.03258281
 -0.03244427 -0.03227659 -0.0320809 -0.03185186 -0.03159561 -0.031338 -0.03108313 -0.03085825 -0.03065953 -0.03049364
 -0.03035211 -0.0302254 -0.03010895 -0.02999349 -0.02988198 -0.02977358 -0.02967193 -0.02958013 -0.02949375 -0.02941327
 -0.02932876 -0.02923821 -0.02913522 -0.02901828 -0.02888813 -0.02874446 -0.02859434 -0.02843822 -0.02828715 -0.02814095
 -0.02800395 -0.02787324 -0.02773742 -0.02759398 -0.0274272 -0.02724199 -0.02703871 -0.02682789 -0.02662532 -0.02643586
 -0.02627199 -0.02612839 -0.02600578 -0.02589677 -0.02579764 -0.02570556 -0.02561924 -0.02553596 -0.02545556 -0.02537213
 -0.0252845 -0.0251919 -0.0250937 -0.02500112 -0.02491472 -0.02484603 -0.02479372 -0.02475133 -0.02471527 -0.02466388
 -0.02459712 -0.0245014 -0.02438356 -0.02425033 -0.02410951 -0.0239765 -0.02385157 -0.02374202 -0.02364134 -0.02354671
 -0.02345489 -0.02336141 -0.02327409 -0.02319372 -0.02313058 -0.02308867 -0.02306391 -0.02305784 -0.02305076 -0.02304111
 -0.02301668 -0.0229774 -0.02293678 -0.0228964 -0.02287818 -0.02287994 -0.02290403 -0.02294431 -0.02298274 -0.02301623
 -0.02302817 -0.0230225 -0.0229968 -0.02295839 -0.02291376 -0.02286777 -0.02282725 -0.02278894 -0.0227554 -0.02271342
 -0.0226594 -0.02258318 -0.02247889 -0.02236015 -0.02222529 -0.022112 -0.02202312 -0.02198759 -0.02200612 -0.0220667
 -0.02216551 -0.02225986 -0.02234878 -0.0224025 -0.02242837 -0.02243351 -0.02242509 -0.02242399 -0.02242713 -0.02244006
 -0.02245508 -0.02246438 -0.0224689 -0.02246534 -0.02246111 -0.02246051 -0.02246242 -0.02246954 -0.0224695 -0.02245989
 -0.02243282 -0.02238533 -0.02232716 -0.0222581 -0.02220153 -0.0221586 -0.02214949 -0.02217355 -0.02223338 -0.02232534
 -0.02243357 -0.02255327 -0.02266115 -0.02275478 -0.02281637 -0.02284959 -0.02284952 -0.02282811 -0.02279385 -0.02276169
 -0.022746 -0.02275084 -0.02278514 -0.02283511 -0.0228998 -0.02295986 -0.02301068 -0.02304146 -0.02305019 -0.02303065
 -0.02298242 -0.02289577 -0.02277033 -0.0226032 -0.02239697 -0.02217496 -0.02194384 -0.02175016 -0.0215976 -0.02152606
 -0.02152611 -0.02160246 -0.02173065 -0.02187933 -0.02202245 -0.0221186 -0.02216293 -0.0221318 -0.02205436 -0.02193274
 -0.02181485 -0.02171697 -0.02167055 -0.02168955 -0.02176467 -0.02189964 -0.02205436 -0.02222606 -0.02238011 -0.022515
 -0.02262493 -0.02271122 -0.02278632 -0.02285028 -0.02291046 -0.02296382 -0.02300432 -0.02302932 -0.0230279 -0.02300502
 -0.02295888 -0.02290765 -0.02286664 -0.02285836 -0.0229066 -0.02301402 -0.02319468 -0.02341909 -0.02368411 -0.02394916
 -0.02420406 -0.02442615 -0.02460942 -0.02475448 -0.02486015 -0.0249412 -0.02499849 -0.02505642 -0.02511605 -0.02519902
 -0.02530245 -0.02542389 -0.02555689 -0.0256768 -0.02578466 -0.02586644 -0.02593658 -0.02601017 -0.02610088 -0.0262331
 -0.02640045 -0.0266116 -0.02683874 -0.02707319 -0.02728336 -0.02745567 -0.02757583 -0.02763445 -0.02764816 -0.02761488
 -0.02757714 -0.02753803 -0.02753658 -0.02757466 -0.02765865 -0.02778646 -0.02793642 -0.02810704 -0.02827872 -0.02845311
 -0.02862644 -0.0287986 -0.0289689 -0.02913325 -0.0292844 -0.02942133 -0.02953805 -0.02964172 -0.02973459 -0.02982623
 -0.02992265 -0.0300272 -0.03014337 -0.03026704 -0.03039843 -0.03053056 -0.03066239 -0.0307895 -0.03091122 -0.03102805
 -0.03114003 -0.03125028 -0.03135887 -0.03146756 -0.03157625 -0.03168554 -0.031795 -0.03190397 -0.03201111 -0.03211271
 -0.03220887 -0.0322961 -0.03238067 -0.03246668 -0.03256323 -0.03268036 -0.03281669 -0.03297731 -0.03314675 -0.03332129
 -0.03348688 -0.03363786 -0.03377637 -0.03390131 -0.03402163 -0.03413843 -0.03425189 -0.03436202 -0.03446092 -0.03454875
 -0.03462381 -0.03468866 -0.03475629 -0.03483003 -0.03492943 -0.03505307 -0.03521008 -0.03539073 -0.03558521 -0.03578138
 -0.03596101 -0.03612079 -0.036251 -0.03635716 -0.03644016 -0.03650302 -0.03654711 -0.03657313 -0.03657882 -0.03657975
 -0.0365754 -0.03659903 -0.03665371 -0.03676264 -0.03692706 -0.03713571 -0.03738564 -0.03763838 -0.03789066 -0.03810341
 -0.03827776 -0.03839411 -0.0384617 -0.0384884 -0.03849133 -0.03850058 -0.03852915 -0.03860757 -0.03872668 -0.03889485
 -0.03908211 -0.03927515 -0.03945231 -0.03959904 -0.03972244 -0.03982047 -0.03990871 -0.03999139 -0.04006179 -0.04012071
 -0.0401446 -0.04013224 -0.04007884 -0.03998714 -0.03988955 -0.03979093 -0.03973779 -0.0397283 -0.03978442 -0.03989346
 -0.0400382 -0.04020481 -0.04036034 -0.04050595 -0.0406265 -0.04073877 -0.04085211 -0.04097546 -0.04112151 -0.04127273
 -0.04142797 -0.04156156 -0.04166404 -0.04173611 -0.04177343 -0.04180551 -0.04183469 -0.04188436 -0.04195591 -0.04204177
 -0.04214015 -0.04222508 -0.04229593 -0.04233495 -0.04234502 -0.04232588 -0.04228251 -0.04222548 -0.04216031 -0.04209992
 -0.04204927 -0.04201857 -0.04201096 -0.04203175 -0.04208313 -0.04216742 -0.04228625 -0.04244224 -0.04262946 -0.04285026
 -0.04308118 -0.04332102 -0.04353493 -0.04371907 -0.0438541 -0.04393871 -0.0439902 -0.04401127 -0.04404327 -0.04408706
 -0.04417134 -0.04428973 -0.04443625 -0.0446012 -0.0447575 -0.0449021 -0.04501566 -0.04510521 -0.04517037 -0.04522105
 -0.04526561 -0.04530839 -0.045355 -0.04540284 -0.04545298 -0.04549885 -0.04553881 -0.0455691 -0.04558742 -0.04560305
 -0.04561569 -0.04564747 -0.04569965 -0.04578501 -0.04590211 -0.04603378 -0.04617641 -0.04629708 -0.04639845 -0.0464699
 -0.04652249 -0.04657815 -0.04664364 -0.04674418 -0.04687013 -0.04702333 -0.04718435 -0.04733797 -0.04747198 -0.04757362
 -0.04764517 -0.04768342 -0.04769786 -0.04769007 -0.04766823 -0.04763374 -0.04759261 -0.04754525 -0.04749942 -0.04745554
 -0.04742706 -0.04741476 -0.04743314 -0.04748124 -0.04756216 -0.04767087 -0.04779153 -0.04791763 -0.04802444 -0.04811088
 -0.04816204 -0.0481851 -0.04818186 -0.04816119 -0.04813169 -0.04809606 -0.04805886 -0.04801752 -0.04797168 -0.04792066
 -0.04786359 -0.04780402 -0.04774282 -0.04768004 -0.04761659 -0.04754143 -0.04745404 -0.04733621 -0.04718762 -0.04699925
 -0.04677404 -0.04652526 -0.04625808 -0.04599999 -0.04575166 -0.04553099 -0.04533007 -0.04514432 -0.04496438 -0.04477548
 -0.04457773 -0.04436426 -0.04414416 -0.04392087 -0.04370056 -0.04348737 -0.04327995 -0.04307852 -0.04288203 -0.04268946
 -0.04250668 -0.04233394 -0.04217917 -0.04204289 -0.04192755 -0.04183282 -0.04175379 -0.04168981 -0.04163394 -0.04158662
 -0.04154573 -0.04151229 -0.04148893 -0.04147355 -0.04146548 -0.04145776 -0.04144225 -0.04141272 -0.04136033 -0.04128538
 -0.04118508 -0.04106322 -0.04092121 -0.04075924 -0.04057777 -0.04037537 -0.04015125 -0.0399087 -0.03964753 -0.03937587
 -0.03909413 -0.03881325 -0.03853431 -0.03827495 -0.03803724 -0.03784436 -0.03769602 -0.03760586 -0.03756722 -0.03757156
 -0.03760981 -0.03766013 -0.03772327 -0.03778664 -0.03786834 -0.03797504 -0.03813496 -0.03836562 -0.03868661 -0.03911324
 -0.03963902 -0.04027089 -0.04096974 -0.04173427 -0.04250356 -0.04327203 -0.04398477 -0.04463779 -0.04520998 -0.04570228
 -0.04613057 -0.04649782 -0.0468321 -0.04713339 -0.04741676 -0.04767997 -0.04792399 -0.04814915 -0.04835561 -0.04854634
 -0.04872566 -0.04889378 -0.04905334 -0.04920043 -0.04933308 -0.04944995 -0.04954883 -0.0496349 -0.04970879 -0.04977645
 -0.04983986 -0.04989702 -0.04994883 -0.04998229 -0.04999678 -0.04997481 -0.04991622 -0.04981578 -0.04967745 -0.04952416
 -0.04936329 -0.04923756 -0.04914853 -0.04912571 -0.0491574 -0.04923922 -0.04935237 -0.04947194 -0.04958498 -0.04967109
 -0.04972762 -0.04974641 -0.04973225 -0.04968359 -0.04961196 -0.04951904 -0.04941913 -0.04931485 -0.04921639 -0.04912471
 -0.04905022 -0.04899321 -0.04898177 -0.04901824 -0.04914748 -0.04936972 -0.04971282 -0.05016662 -0.05070975 -0.05132287
 -0.05194545 -0.05256285 -0.05311796 -0.05361373 -0.05402765 -0.05437729 -0.05466953 -0.05492125 -0.05514519 -0.05534828
 -0.05553599 -0.05571161 -0.05587628 -0.05603535 -0.05619006 -0.05634319 -0.05649567 -0.05664294 -0.05678482 -0.05691467
 -0.05703238 -0.05713623 -0.05722681 -0.0573074 -0.05737874 -0.05744585 -0.05750847 -0.05756889 -0.05762568 -0.05767684
 -0.05772262 -0.05776088 -0.05779701 -0.05783451 -0.05787907 -0.05793728 -0.05800435 -0.05808236 -0.05815577 -0.05822078
 -0.05826569 -0.05828617 -0.05828694 -0.05826694 -0.05824414 -0.05821961 -0.05820954 -0.05821411 -0.0582353 -0.05827155
 -0.058312 -0.05835601 -0.05839405 -0.05842879 -0.0584625 -0.05849786 -0.05854217 -0.05859323 -0.0586523 -0.05871364
 -0.05877272 -0.05882502 -0.05886657 -0.05889479 -0.05890739 -0.05890447 -0.05888388 -0.05885508 -0.05881792 -0.05879058
 -0.05877542 -0.05878228 -0.05881239 -0.05885451 -0.0589077 -0.05895256 -0.05898975 -0.05901435 -0.05902963 -0.05904725
 -0.05906863 -0.05910497 -0.05915266 -0.05921127 -0.05927429 -0.05933352 -0.05938335 -0.05941547 -0.05942849 -0.05941771
 -0.05938902 -0.05934198 -0.05928924 -0.05923364 -0.05918712 -0.05915287 -0.05913462 -0.05913359 -0.05914674 -0.05917401
 -0.05921091 -0.05925715 -0.05930794 -0.05936245 -0.05941217 -0.05945636 -0.05948625 -0.05950379 -0.05950893 -0.05950613
 -0.05950451 -0.05950529 -0.05951577 -0.05952979 -0.05954481 -0.05955397 -0.05955017 -0.05953702 -0.05951237 -0.05948872
 -0.05946947 -0.05946245 -0.05947078 -0.05949109 -0.05952382 -0.05956043 -0.05960037 -0.05963673 -0.05966924 -0.05969355
 -0.05970988 -0.05971758 -0.05971771 -0.05971459 -0.05970928 -0.05970718 -0.05970823 -0.05971473 -0.05972648 -0.05974386
 -0.05976761 -0.05979867 -0.05983713 -0.0598845 -0.05993642 -0.05999257 -0.06004461 -0.06009039 -0.06012233 -0.06013795
 -0.06013721 -0.06011893 -0.06009308 -0.06006012 -0.06003303 -0.0600122 -0.060002 -0.06000131 -0.06000291 -0.06000578
 -0.0600008 -0.05998942 -0.05997024 -0.05994702 -0.05992598 -0.05991077 -0.05990939 -0.05992204 -0.05995312 -0.05999726
 -0.06005384 -0.06011307 -0.0601708 -0.06021949 -0.06025531 -0.0602782 -0.06028676 -0.06028717 -0.06027986 -0.06027122
 -0.0602618 -0.0602546 -0.06024963 -0.06024542 -0.06024163 -0.06023452 -0.06022454 -0.0602111 -0.0601962 -0.06018543
 -0.06017995 -0.06018583 -0.0602001 -0.06022219 -0.06024636 -0.06026651 -0.06028048 -0.06028411 -0.06028046 -0.06026987
 -0.06025515 -0.06023781 -0.06021655 -0.06019131 -0.06016107 -0.06012517 -0.06008842 -0.06005093 -0.06002254 -0.06000365
 -0.06000083 -0.06001337 -0.06003874 -0.06007518 -0.06011336 -0.0601523 -0.06018383 -0.06020908 -0.06022641 -0.06023724
 -0.06024313 -0.06024407 -0.06024045 -0.06023241 -0.06021942 -0.06020414 -0.06018726 -0.06017223 -0.06016045 -0.06015297
 -0.0601505 -0.06015165 -0.06015645 -0.06016245 -0.0601695 -0.06017484 -0.06017838 -0.06017946 -0.06017851 -0.06017891
 -0.06018088 -0.06018773 -0.06019813 -0.0602102 -0.06022182 -0.06022742 -0.06022699 -0.06021759 -0.06020155 -0.06018018
 -0.06015503 -0.06012776 -0.06009826 -0.06006642 -0.06003381 -0.05999995 -0.0599708 -0.0599473 -0.05993515 -0.05993587
 -0.05994653 -0.05996742 -0.0599859 -0.06000136 -0.06000279 -0.05999108 -0.05996929 -0.05993989 -0.05991688 -0.05990028
 -0.05989889 -0.05990797 -0.05992243 -0.05993748 -0.0599426 -0.05994005 -0.05992646 -0.05991045 -0.05989708 -0.05989151
 -0.05989948 -0.05991468 -0.05993771 -0.05995601 -0.05996657 -0.05996393 -0.05994597 -0.05992015 -0.0598867 -0.05985679
 -0.05983078 -0.05981025 -0.0597943 -0.05977472 -0.05975142 -0.05971871 -0.05967912 -0.0596371 -0.05959546 -0.05956294
 -0.05953864 -0.05952576 -0.05952053 -0.05952047 -0.05952246 -0.05952363 -0.05952242 -0.05951781 -0.05950759 -0.05949076
 -0.05946635 -0.05943336 -0.05939559 -0.05935295 -0.05931292 -0.05927609 -0.05924737 -0.05922691 -0.05921403 -0.0592083
 -0.05920549 -0.05920514 -0.05920259 -0.05919803 -0.05918929 -0.05917758 -0.05916413 -0.05915047 -0.05913966 -0.05913148
 -0.05912757 -0.059125 -0.05912245 -0.05911707 -0.05910667 -0.05909177 -0.05907156 -0.05904943 -0.05902592 -0.05900387
 -0.05898379 -0.05896691 -0.05895337 -0.0589441 -0.05893914 -0.05893908 -0.05894357 -0.05894977 -0.05895666 -0.05895764
 -0.05895208 -0.05893395 -0.0589048 -0.05886401 -0.05881567 -0.05876499 -0.05871623 -0.05867615 -0.0586453 -0.05862714
 -0.0586174 -0.05861511 -0.058616 -0.05861808 -0.05862086 -0.05862386 -0.0586277 -0.05863283 -0.05863564 -0.05863599
 -0.0586284 -0.05861269 -0.05858841 -0.05855611 -0.05852117 -0.0584842 -0.05845132 -0.05842218 -0.05839912 -0.05838095
 -0.05836652 -0.05835429 -0.0583415 -0.05832722 -0.05830938 -0.05828811 -0.05826296 -0.05823392 -0.05820072 -0.05816398
 -0.05812311 -0.05808221 -0.05804159 -0.05800742 -0.05798094 -0.05796324 -0.05795484 -0.0579493 -0.05794632 -0.05793989
 -0.05793025 -0.05791789 -0.05790329 -0.05788945 -0.05787603 -0.05786348 -0.05785114 -0.05783761 -0.05782302 -0.05780675
 -0.05778968 -0.05777233 -0.05775579 -0.05774096 -0.05772867 -0.0577202 -0.05771335 -0.05770858 -0.05769975 -0.05768562
 -0.05766139 -0.05762547 -0.0575816 -0.05752956 -0.05748002 -0.05743348 -0.05739759 -0.05737192 -0.05735479 -0.05734506
 -0.05733582 -0.05732685 -0.05731354 -0.0572968 -0.05727629 -0.05725305 -0.05722862 -0.05720347 -0.05717877 -0.05715431
 -0.05713063 -0.05710631 -0.05708111 -0.05705271 -0.05702015 -0.05698254 -0.05693902 -0.05689219 -0.05684195 -0.05679344
 -0.05674706 -0.0567068 -0.05667286 -0.05664499 -0.0566229 -0.05660327 -0.05658628 -0.05657085 -0.05655837 -0.05655273
 -0.05655523 -0.05657125 -0.05659975 -0.05664197 -0.05669531 -0.05675673 -0.05682665 -0.05690248 -0.05699181 -0.05709638
 -0.05722727 -0.05738936 -0.05758603 -0.0578206 -0.05808366 -0.05837516 -0.05868012 -0.05899716 -0.05931754 -0.05964074
 -0.05995959 -0.06027164 -0.0605493 -0.06078603 -0.06093064 -0.06098165 -0.06090263 -0.06070636 -0.06039797 -0.06000303
 -0.05955904 -0.05909528 -0.05865684 -0.0582611 -0.05793563 -0.05768372 -0.05751413 -0.05742453 -0.05741771 -0.05748296
 -0.05762387 -0.05780016 -0.05801118 -0.05818588 -0.05831724 -0.05836605 -0.05833049 -0.05824008 -0.05809838 -0.05795657
 -0.05781442 -0.05769894 -0.05760281 -0.05751663 -0.05743186 -0.05732188 -0.05718933 -0.05702295 -0.05683808 -0.05664651
 -0.05646178 -0.05630018 -0.05616031 -0.05604848 -0.05594984 -0.05586093 -0.05576893 -0.05566838 -0.05556289 -0.05545107
 -0.0553475 -0.05525357 -0.055177 -0.05511817 -0.05506798 -0.05502545 -0.05497568 -0.05491939 -0.05485266 -0.05477786
 -0.05470136 -0.05462389 -0.05455072 -0.05448028 -0.05441214 -0.0543456 -0.05427882 -0.05421432 -0.05415298 -0.05409816
 -0.05405249 -0.05401529 -0.05398805 -0.0539641 -0.05394227 -0.05391669 -0.05388561 -0.05385108 -0.05381284 -0.05377801
 -0.05374696 -0.05372227 -0.05370349 -0.0536859 -0.0536691 -0.05364823 -0.05362386 -0.05359549 -0.05356355 -0.05352891
 -0.05349126 -0.05344992 -0.05340603 -0.05335967 -0.05331456 -0.05327343 -0.05323913 -0.05321493 -0.05319793 -0.05318881
 -0.0531802 -0.05317044 -0.05315454 -0.05313088 -0.05310191 -0.0530675 -0.05303364 -0.05300067 -0.05297079 -0.05294374
 -0.05291667 -0.05288943 -0.05285945 -0.05282731 -0.05279367 -0.05275908 -0.05272543 -0.05269238 -0.05266047 -0.05262865
 -0.05259578 -0.05256179 -0.05252564 -0.05248952 -0.05245386 -0.05242205 -0.05239571 -0.0523756 -0.05236297 -0.05235337
 -0.05234659 -0.05233661 -0.05232269 -0.05230304 -0.05227755 -0.05224807 -0.05221463 -0.05217825 -0.05213867 -0.05209451
 -0.05204629 -0.05199445 -0.05194103 -0.05189088 -0.05184606 -0.05181281 -0.05178998 -0.05178017 -0.05177715 -0.05177788
 -0.05177449 -0.05176126 -0.05173636 -0.05169606 -0.0516487 -0.05159472 -0.05154609 -0.05150526 -0.05147602 -0.05145953
 -0.05144919 -0.05144469 -0.05143891 -0.05143198 -0.05142415 -0.05141594 -0.0514111 -0.05140878 -0.05140823 -0.05140752
 -0.0514014 -0.05138895 -0.05136563 -0.05133323 -0.05129123 -0.05124406 -0.05119463 -0.05114738 -0.0511059 -0.05107113
 -0.05104492 -0.05102386 -0.05100772 -0.0509923 -0.05097689 -0.05095896 -0.05093815 -0.05091365 -0.05088538 -0.05085508
 -0.05082301 -0.05079352 -0.05076651 -0.05074398 -0.05072473 -0.05070527 -0.05068494 -0.05065982 -0.05063131 -0.05060006
 -0.05056736 -0.05053541 -0.05050356 -0.0504717 -0.05044006 -0.05040805 -0.05037848 -0.05035234 -0.05033129 -0.05031645
 -0.05030556 -0.05029861 -0.0502923 -0.05028634 -0.05027816 -0.0502676 -0.05025136 -0.05022936 -0.05019934 -0.05016196
 -0.05011995 -0.05007442 -0.05003126 -0.04999023 -0.04995402 -0.04992101 -0.04988945 -0.04985865 -0.04982648 -0.04979471
 -0.04976375 -0.04973609 -0.04971388 -0.0496962 -0.0496841 -0.04967234 -0.04965995 -0.04964191 -0.04961675 -0.04958536
 -0.04954733 -0.04950897 -0.04947061 -0.04943766 -0.04941007 -0.04938793 -0.04937061 -0.04935415 -0.04933802 -0.04931796
 -0.04929445 -0.04926609 -0.0492345 -0.04920168 -0.04916923 -0.04914006 -0.04911442 -0.04909389 -0.04907679 -0.04906302
 -0.04904962 -0.04903566 -0.04901816 -0.04899592 -0.04896843 -0.04893487 -0.04889944 -0.04886227 -0.04882933 -0.04880102
 -0.04877925 -0.04876379 -0.04875096 -0.04874041 -0.04872786 -0.04871372 -0.04869738 -0.04867951 -0.04866168 -0.04864387
 -0.04862696 -0.04861017 -0.04859315 -0.0485746 -0.04855334 -0.04852853 -0.04849906 -0.04846575 -0.0484281 -0.0483894
 -0.04835014 -0.04831414 -0.04828225 -0.04825592 -0.04823557 -0.04821964 -0.04820811 -0.04819778 -0.04818849 -0.04817691
 -0.04816298 -0.04814455 -0.04812185 -0.04809465 -0.0480634 -0.04802916 -0.04799223 -0.04795359 -0.04791349 -0.04787254
 -0.04783096 -0.0477892 -0.04774704 -0.04770451 -0.04766121 -0.04761669 -0.04757201 -0.04752714 -0.04748405 -0.04744323
 -0.04740475 -0.04736877 -0.04733348 -0.04729875 -0.04726589 -0.04723519 -0.04721208 -0.04719648 -0.04719129 -0.04719489
 -0.04720264 -0.04721284 -0.0472183 -0.04721947 -0.04721374 -0.04720232 -0.04718614 -0.04716476 -0.04713825 -0.04710564
 -0.04706568 -0.04702036 -0.04696964 -0.04691755 -0.04686512 -0.04681506 -0.04676802 -0.04672528 -0.04668702 -0.04665419
 -0.04662688 -0.04660415 -0.04658578 -0.04656781 -0.04655005 -0.04652901 -0.04650496 -0.04647708 -0.04644582 -0.04641191
 -0.04637568 -0.04633788 -0.04629918 -0.04626069 -0.04622306 -0.04618718 -0.04615349 -0.04612248 -0.04609441 -0.04606986
 -0.04604748 -0.04602778 -0.0460056 -0.04598017 -0.04594716 -0.04590554 -0.04585831 -0.04580551 -0.04575476 -0.04570619
 -0.04566237 -0.04562274 -0.04558419 -0.04554684 -0.0455093 -0.04547263 -0.04543927 -0.04540903 -0.04538328 -0.04535991
 -0.04533715 -0.04531241 -0.04528271 -0.04524698 -0.04520313 -0.04515321 -0.04509656 -0.04503937 -0.04498276 -0.04493342
 -0.04489307 -0.04486327 -0.04484484 -0.04483286 -0.04482713 -0.04482028 -0.04481195 -0.04479559 -0.04477121 -0.0447354
 -0.04468902 -0.04463327 -0.04456997 -0.04450431 -0.04443803 -0.04437698 -0.04432113 -0.0442734 -0.04423141 -0.04419449
 -0.04415932 -0.04412351 -0.04408565 -0.04404402 -0.04400073 -0.04395589 -0.04391218 -0.04387035 -0.04383036 -0.04379251
 -0.04375391 -0.04371441 -0.04367061 -0.04362247 -0.04356953 -0.04351223 -0.04345349 -0.04339378 -0.04333671 -0.04328198
 -0.04323063 -0.04318205 -0.04313551 -0.04309085 -0.04304755 -0.04300561 -0.04296472 -0.04292529 -0.04288711 -0.04285196
 -0.04282069 -0.04279398 -0.04277308 -0.04275354 -0.04273522 -0.04271103 -0.04267987 -0.04263949 -0.04258949 -0.04253521
 -0.04247703 -0.04242248 -0.04237167 -0.04232951 -0.04229508 -0.04226786 -0.04224535 -0.04222073 -0.04219162 -0.04214927
 -0.04209572 -0.04202869 -0.04195461 -0.04187851 -0.0418049 -0.04173936 -0.04167897 -0.04162458 -0.0415699 -0.04151292
 -0.04145122 -0.04138347 -0.04131262 -0.04123869 -0.04116587 -0.04109447 -0.04102664 -0.04096242 -0.04090218 -0.04084609
 -0.04079586 -0.04075189 -0.04071737 -0.04069129 -0.04067373 -0.04066072 -0.04064513 -0.04062324 -0.04058575 -0.04053552
 -0.04047048 -0.04039864 -0.0403247 -0.0402531 -0.04018795 -0.04012653 -0.04006938 -0.04001104 -0.03995008 -0.03988611
 -0.03981849 -0.0397522 -0.03968751 -0.03962885 -0.03957632 -0.0395304 -0.03949074 -0.03945514 -0.03942276 -0.03938911
 -0.03935309 -0.03930873 -0.03925675 -0.03919495 -0.03912659 -0.03905506 -0.03898288 -0.03891382 -0.0388484 -0.03878819
 -0.0387326 -0.03868201 -0.03863461 -0.03859024 -0.0385459 -0.03850101 -0.03845341 -0.03840285 -0.03834749 -0.03828725
 -0.03821857 -0.03814135 -0.03805374 -0.03795651 -0.03785484 -0.03774996 -0.03765056 -0.03755607 -0.03746992 -0.03738982
 -0.03731268 -0.03723739 -0.03716045 -0.03708363 -0.03700682 -0.0369335 -0.03686613 -0.03680601 -0.0367554 -0.03671006
 -0.03667028 -0.03662705 -0.03657865 -0.03651859 -0.036445 -0.0363629 -0.03627224 -0.03618542 -0.03610276 -0.0360277
 -0.03595868 -0.03588395 -0.03580226 -0.03570011 -0.03558122 -0.03544838 -0.03530783 -0.03517423 -0.03504844 -0.03493891
 -0.03484099 -0.03475378 -0.03467141 -0.03458958 -0.03450534 -0.03441565 -0.03432229 -0.03422457 -0.0341275 -0.0340321
 -0.0339413 -0.03385628 -0.03377201 -0.0336884 -0.03359589 -0.03349425 -0.03338256 -0.0332615 -0.03313702 -0.03300866
 -0.03287754 -0.03274247 -0.03260017 -0.03245081 -0.03229304 -0.03212782 -0.03195582 -0.03177806 -0.03159511 -0.03140981
 -0.03122395 -0.03104025 -0.03086148 -0.03068438 -0.03050914 -0.0303295 -0.03014329 -0.0299525 -0.02975663 -0.02956284
 -0.02937181 -0.02918382 -0.02899885 -0.02881442 -0.0286311 -0.0284531 -0.02828087 -0.02812048 -0.02796832 -0.02781868
 -0.02766398 -0.02748468 -0.02728016 -0.0270373 -0.02676998 -0.02648648 -0.02619927 -0.02592069 -0.02565191 -0.02539707
 -0.02515231 -0.02491763 -0.0246882 -0.02446449 -0.02423419 -0.02399743 -0.02372851 -0.02342533 -0.02307073 -0.02266501
 -0.02223584 -0.02178568 -0.02135036 -0.02092597 -0.02051225 -0.02010471 -0.01968859 -0.01926466 -0.01882764 -0.01837926
 -0.01792259 -0.01745064 -0.01696193 -0.01643728 -0.01586326 -0.01522737 -0.01451148 -0.01374752 -0.01293499 -0.01213356
 -0.01135795 -0.0106319 -0.009962836 -0.009337581 -0.008756097 -0.008198488 -0.007663508 -0.007126329 -0.006584225 -0.005998656
 -0.005372584 -0.004692297 -0.003977878 -0.003286881 -0.002626395 -0.002046267 -0.001524513 -0.001050949 -0.0006051196 -0.0001606136
 0.0002868511 0.0007498553 0.001221129 0.001700829 0.00218035 0.002658097 0.003122942 0.003572536 0.003997873 0.004396425
 0.004773148 0.005128123 0.005469022 0.005795894 0.006100823 0.006383002 0.006630335 0.006844809 0.007029075 0.007187186
 0.00733336 0.007469164 0.007606009 0.007740121 0.007869968 0.007994662 0.008110593 0.008224522 0.008340844 0.008461622
 0.008591448 0.008720391 0.008846802 0.008960189 0.009057197 0.009136849 0.009198275 0.009244956 0.009277198 0.00929544
 0.009299682 0.009288294 0.009261584 0.009222162 0.009170241 0.009108537 0.009036358 0.008952408 0.008857259 0.008750043
 0.008635262 0.008518189 0.008404908 0.008302862 0.008217724 0.008153961 0.008120546 0.008122423 0.008166734 0.008259512
 0.008391189 0.008562327 0.00875463 0.008965256 0.009185879 0.00941552 0.009650978 0.009892016 0.01013309 0.01037456
 0.01061728 0.01086321 0.01112305 0.01139767 0.01169602 0.0120164 0.01235983 0.01272358 0.01310533 0.01349949
 0.01390133 0.01430132 0.01469116 0.0150656 0.01541768 0.01575501 0.01607709 0.01639806 0.01672166 0.0170531
 0.01739503 0.01773662 0.01807744 0.0184032 0.01871347 0.01901346 0.0193052 0.01961385 0.01993757 0.02028379
 0.02064131 0.02097653 0.0212844 0.02153479 0.02173561 0.02188672 0.02199338 0.02206228 0.02209266 0.02208642
 0.02204082 0.02195953 0.02182247 0.02163143 0.02133399 0.02091625 0.02035526 0.01963329 0.01885813 0.01803734
 0.01725653 0.01651882 0.01578311 0.01504614 0.0142581 0.0134226 0.0125334 0.01159571 0.01062694 0.009620769
 0.008575759 0.007474697 0.006276884 0.005011712 0.003667413 0.002358261 0.001176531 0.0001523454 -0.0006510906 -0.001331605
 -0.001909727 -0.002458013 -0.003002324 -0.003547566 -0.004099873 -0.004636227 -0.005154479 -0.005649546 -0.006121337 -0.00658679
 -0.007046795 -0.007517645 -0.007997602 -0.008486939 -0.008981264 -0.009466596 -0.009939438 -0.01038434 -0.01080254 -0.01118786
 -0.01154658 -0.01188108 -0.01220265 -0.01251756 -0.01284253 -0.01318828 -0.01356231 -0.01397863 -0.01439568 -0.0148105
 -0.015165 -0.015444 -0.01566608 -0.01582976 -0.01598493 -0.01613393 -0.01629719 -0.01647315 -0.01665009 -0.01682631
 -0.01698514 -0.01712981 -0.01726365 -0.01738766 -0.01750975 -0.01761905 -0.01770378 -0.01775072 -0.0177364 -0.01766869
 -0.01754144 -0.01737943 -0.01719337 -0.01700156 -0.01681491 -0.01663249 -0.01645957 -0.01627183 -0.01606916 -0.01580882
 -0.01548639 -0.01507832 -0.01458374 -0.01405423 -0.01349529 -0.01299064 -0.01253728 -0.01216205 -0.01185643 -0.01160484
 -0.01140414 -0.01123984 -0.01111159 -0.01101513 -0.01094377 -0.0108936 -0.01084438 -0.0107814 -0.01068559 -0.01053581
 -0.01035239 -0.01013398 -0.009917259 -0.00971394 -0.009528325 -0.009364935 -0.009203412 -0.009042428 -0.008864075 -0.008667453
 -0.008457363 -0.008235211 -0.008020305 -0.007812284 -0.007620688 -0.00744046 -0.00726105 -0.007074405 -0.006856192 -0.006603668
 -0.006299213 -0.005950724 -0.005560129 -0.005134955 -0.004682575 -0.004203882 -0.003700267 -0.003174977 -0.002628294 -0.002067779
 -0.001496196 -0.0009133454 -0.0003212763 0.0002958178 0.0009393443 0.001620814 0.002340775 0.003071476 0.003809354 0.004501069
 0.00514633 0.005716643 0.006214258 0.006634363 0.006973312 0.007221325 0.007372144 0.007408859 0.007335274 0.007145534
 0.006855757 0.006476005 0.006019255 0.005497485 0.004907342 0.004250448 0.003520398 0.002710631 0.001846893 0.0009268976
 1.532905E-05 -0.0008818996 -0.001719028 -0.002493351 -0.003216416 -0.003890286 -0.004546303 -0.005182691 -0.005805622 -0.006409655
 -0.006977027 -0.007508341 -0.007993822 -0.008442217 -0.008863163 -0.009264165 -0.009658472 -0.01004656 -0.0104343 -0.010816
 -0.0111909 -0.01155155 -0.01189531 -0.01221625 -0.01251204 -0.0127816 -0.01302368 -0.0132442 -0.01344331 -0.01362992
 -0.01380453 -0.01396892 -0.01412236 -0.01425541 -0.01436725 -0.0144473 -0.01449741 -0.01451792 -0.01451254 -0.01448979
 -0.01445307 -0.01441146 -0.0143674 -0.01432682 -0.01429165 -0.01426503 -0.01424848 -0.01424406 -0.01425064 -0.01426902
 -0.01429455 -0.01432649 -0.01435998 -0.01439353 -0.01442902 -0.01446606 -0.01451289 -0.01456994 -0.01464211 -0.0147289
 -0.01482499 -0.01492888 -0.01502892 -0.01512394 -0.01520323 -0.0152673 -0.01531128 -0.01533785 -0.01534912 -0.01534754
 -0.0153373 -0.01531799 -0.01529058 -0.01525448 -0.0152086 -0.01515651 -0.01509828 -0.01504116 -0.01498662 -0.01494133
 -0.01490657 -0.01488645 -0.01488168 -0.01489262 -0.01491938 -0.01495618 -0.01500249 -0.01504935 -0.01509672 -0.01513945
 -0.01517854 -0.01521485 -0.01524939 -0.01528503 -0.01532219 -0.01536268 -0.01540712 -0.01545688 -0.01551239 -0.01557498
 -0.01564302 -0.01571698 -0.01579171 -0.0158661 -0.01593334 -0.01599134 -0.01603673 -0.01606798 -0.01608871 -0.01609881
 -0.01610562 -0.01610957 -0.01611528 -0.01612267 -0.01613144 -0.01614115 -0.01614899 -0.01615471 -0.01615609 -0.01615267
 -0.01614246 -0.01612461 -0.01609667 -0.01605847 -0.01600817 -0.01594807 -0.01587864 -0.01580441 -0.01572777 -0.01565253
 -0.01558086 -0.01551401 -0.0154529 -0.01539692 -0.0153464 -0.01529867 -0.01525384 -0.0152054 -0.01515299 -0.01508903
 -0.01501357 -0.01492578 -0.01482704 -0.0147256 -0.01462317 -0.01453099 -0.01444894 -0.01438296 -0.01433076 -0.01429126
 -0.0142622 -0.0142399 -0.01422476 -0.01421546 -0.01421408 -0.01422194 -0.0142386 -0.01426508 -0.01429691 -0.01433357
 -0.01436936 -0.01440316 -0.01443199 -0.01445518 -0.01447427 -0.01448928 -0.01450577 -0.01452403 -0.01454931 -0.01458088
 -0.01461674 -0.01465556 -0.01469042 -0.01472236 -0.01474981 -0.01477601 -0.01480689 -0.01484194 -0.01488491 -0.0149285
 -0.01496802 -0.01499759 -0.01501046 -0.01501158 -0.01499992 -0.0149865 -0.01497485 -0.01496791 -0.01496798 -0.01496605
 -0.01496144 -0.01494637 -0.01492017 -0.01488841 -0.01485175 -0.01482297 -0.01480153 -0.01479096 -0.01478831 -0.01478419
 -0.01477597 -0.01475167 -0.01471172 -0.01465061 -0.01457184 -0.01447672 -0.01437064 -0.01425836 -0.01414403 -0.01403283
 -0.01392117 -0.01381109 -0.01368909 -0.0135527 -0.01338824 -0.01319164 -0.0129639 -0.01270344 -0.01242782 -0.01213795
 -0.01185376 -0.01157566 -0.01131141 -0.01106001 -0.0108182 -0.0105854 -0.01035761 -0.0101351 -0.009916851 -0.009702481
 -0.009490753 -0.009281582 -0.009074132 -0.008869215 -0.008668398 -0.008468437 -0.008269641 -0.008062842 -0.007843837 -0.007609107
 -0.007354482 -0.007091926 -0.006821932 -0.006561282 -0.006312404 -0.006079871 -0.005864298 -0.005657895 -0.005460188 -0.005262313
 -0.005064347 -0.004862287 -0.004657101 -0.004450263 -0.004243089 -0.004040413 -0.003841331 -0.003647942 -0.003454911 -0.003257006
 -0.003048454 -0.002820914 -0.002576516 -0.002311275 -0.002038902 -0.001762296 -0.00149888 -0.001254721 -0.00103676 -0.0008490184
 -0.0006808646 -0.0005322705 -0.0003859893 -0.0002408453 -8.769616E-05 7.351091E-05 0.0002429443 0.0004201345 0.0006024547 0.00078882
 0.000973717 0.001155854 0.001327972 0.001492041 0.001647495 0.001798593 0.001951272 0.002106078 0.002265528 0.002429136
 0.002595522 0.002770777 0.002956619 0.003159541 0.003383937 0.003621602 0.003873574 0.004119399 0.004356631 0.004573496
 0.004768663 0.004952378 0.005125785 0.005312286 0.005511906 0.005737742 0.005984989 0.006241794 0.006501744 0.006740671
 0.006957705 0.00713878 0.007289051 0.007409333 0.007504687 0.007579788 0.00763808 0.007682494 0.007716366 0.007742251
 0.00775968 0.007769785 0.007767325 0.007750866 0.007720876 0.007676228 0.007629664 0.007581864 0.007547007 0.007525183
 0.007516551 0.007519278 0.007519416 0.007516147 0.00749721 0.007466243 0.00742605 0.007382062 0.007346686 0.007320379
 0.007309929 0.007310753 0.007320771 0.007337203 0.007357884 0.007380923 0.007406428 0.007427435 0.007442473 0.007444198
 0.00743027 0.007401662 0.007358127 0.007302326 0.007234542 0.007151681 0.007053779 0.00694151 0.006816025 0.006687073
 0.006554703 0.006424902 0.00629556 0.006162946 0.006027667 0.005888024 0.005748104 0.005613562 0.005484349 0.005364171
 0.00524629 0.005128024 0.00500277 0.004866442 0.004718016 0.004555514 0.004383783 0.004202814 0.004020679 0.003838321
 0.003661487 0.00349078 0.003325064 0.003164086 0.003001886 0.002838057 0.002666719 0.002487896 0.002298165 0.002098602
 0.001889923 0.001674308 0.001456062 0.001237055 0.001021271 0.0008103462 0.0006067351 0.0004125226 0.0002306304 5.875407E-05
 -0.0001015772 -0.0002603173 -0.0004200044 -0.0005880736 -0.0007678752 -0.0009530786 -0.001143975 -0.001327764 -0.001503457 -0.001665511
 -0.001813902 -0.001950661 -0.002076121 -0.002193309 -0.002302966 -0.002409465 -0.002514283 -0.002624067 -0.002739141 -0.00286406
 -0.002996299 -0.00313514 -0.003276026 -0.003414279 -0.003547606 -0.003671717 -0.003791275 -0.003906386 -0.004024868 -0.004150461
 -0.00428102 -0.004418173 -0.004549138 -0.004672104 -0.004782281 -0.004878738 -0.00497333 -0.005066617 -0.005169986 -0.005282332
 -0.005399669 -0.005520125 -0.005632855 -0.005737964 -0.00582999 -0.005910379 -0.005979206 -0.006038192 -0.006089093 -0.006134848
 -0.006178485 -0.006222937 -0.006271654 -0.006323666 -0.00638115 -0.006435372 -0.006485467 -0.006518295 -0.006530477 -0.006517472
 -0.006476822 -0.006422204 -0.006354123 -0.0062926 -0.006238218 -0.006196829 -0.006167376 -0.006142932 -0.00612362 -0.006106159
 -0.006092068 -0.006084771 -0.006083753 -0.006089924 -0.006101598 -0.006116278 -0.006134463 -0.006156099 -0.006180695 -0.006209645
 -0.006236307 -0.006259124 -0.006268902 -0.00626156 -0.006236299 -0.006190655 -0.006136253 -0.006073811 -0.006017108 -0.005967612
 -0.005924512 -0.005887326 -0.005840159 -0.005782481 -0.005702081 -0.005601126 -0.005482993 -0.00535026 -0.00521243 -0.005070112
 -0.004928309 -0.00478849 -0.004654049 -0.004527884 -0.004414687 -0.004313754 -0.004227173 -0.004149517 -0.004079059 -0.004011021
 -0.003943499 -0.003874211 -0.003802137 -0.003727732 -0.00365046 -0.003575829 -0.003504203 -0.00344067 -0.00338513 -0.003330406
 -0.003275234 -0.003203906 -0.003118182 -0.003015753 -0.002903892 -0.002803066 -0.002718382 -0.002673487 -0.002660166 -0.002680671
 -0.002715433 -0.002746318 -0.002759682 -0.00273747 -0.002686381 -0.00260194 -0.002504826 -0.00240028 -0.00230418 -0.002221775
 -0.002154768 -0.002104706 -0.00206442 -0.002033567 -0.00200453 -0.001977007 -0.001947398 -0.001916058 -0.001884703 -0.001853775
 -0.001826703 -0.001802669 -0.00178173 -0.001761237 -0.001735769 -0.001703602 -0.001658705 -0.001604345 -0.001540111 -0.001473674
 -0.001410759 -0.001354046 -0.001308144 -0.001265502 -0.001224765 -0.001179357 -0.001125999 -0.001071888 -0.001017211 -0.0009719652
 -0.0009374823 -0.0009081535 -0.0008834929 -0.0008482069 -0.0008024641 -0.0007415482 -0.0006670569 -0.000584793 -0.000494747 -0.0003995367
 -0.000299159 -0.0001932922 -8.605045E-05 1.706482E-05 0.0001122433 0.0001919376 0.0002599837 0.000315912 0.0003663334 0.0004155771
 0.0004623454 0.0005075841 0.000546804 0.0005773946 0.0006078334 0.0006378937 0.0006848528 0.0007505734 0.0008365296 0.0009423567
 0.001047132 0.001150138 0.001234991 0.001304784 0.001366184 0.001422425 0.001487563 0.001561286 0.001648816 0.001750991
 0.00187044 0.002009905 0.00217551 0.002361055 0.002567631 0.002777595 0.002983514 0.00317104 0.003332603 0.003467519
 0.003573733 0.003656815 0.003717262 0.003759017 0.003782288 0.003792237 0.003789309 0.003786015 0.003783504 0.003798598
 0.003830781 0.003888011 0.003965601 0.004053814 0.004147149 0.00422839 0.004297193 0.004344832 0.004375324 0.004388769
 0.004391342 0.004384413 0.004382629 0.004390696 0.004429055 0.004508122 0.004627245 0.004793518 0.004969153 0.005151578
 0.005296104 0.005397742 0.005448037 0.005447103 0.005426061 0.005387284 0.005366763 0.005363602 0.005391891 0.005449453
 0.005536055 0.005652094 0.005800266 0.005976328 0.006180894 0.006393645 0.006596434 0.006766906 0.006877841 0.006937836
 0.006937401 0.006914837 0.006881013 0.006862053 0.006868679 0.006895303 0.006943218 0.006999258 0.0070623 0.007126309
 0.007190875 0.007246915 0.007294184 0.007325229 0.007342638 0.007355466 0.007367248 0.007395316 0.007438423 0.007503237
 0.007584813 0.007678228 0.007780739 0.007887743 0.007997791 0.008110592 0.008218204 0.008319928 0.008397269 0.008443983
 0.008447078 0.00839821 0.008317046 0.008201952 0.00809962 0.008014213 0.00797327 0.007977851 0.008014644 0.008081792
 0.008155128 0.008233975 0.008303626 0.008362317 0.008394703 0.00840378 0.008383917 0.008350701 0.008326043 0.008319319
 0.008354552 0.008416205 0.00850158 0.008593064 0.008676141 0.008760568 0.008844687 0.008947803 0.009078459 0.009221639
 0.009377218 0.009523905 0.00965909 0.009783214 0.009896187 0.009998264 0.01008842 0.01015503 0.01019723 0.01020256
 0.01017472 0.01011667 0.0100381 0.009961765 0.009894372 0.009860278 0.00984965 0.009863529 0.009884679 0.009897809
 0.00990202 0.009892083 0.00987375 0.009851253 0.009812742 0.009755444 0.009674116 0.009563359 0.009458626 0.009361989
 0.009312321 0.009311269 0.009342689 0.009402856 0.00944163 0.009460415 0.009438853 0.00938626 0.009324597 0.009257554
 0.009208831 0.009165839 0.009120149 0.009058406 0.008955075 0.008827729 0.008675173 0.008534646 0.008430799 0.008363917
 0.008345941 0.008339664 0.00833482 0.008326123 0.008307124 0.008317123 0.008360784 0.00843961 0.008553437 0.00864153
 0.008702983 0.008704262 0.008655913 0.008599372 0.008544871 0.00855224 0.008616571 0.00875957 0.008963959 0.009214342
 0.009491054 0.009766193 0.01003021 0.01026442 0.01047575 0.01066187 0.01083445 0.01099667 0.01115827 0.01132027
 0.01149951 0.01169901 0.01192813 0.01218983 0.01245907 0.01273455 0.01297901 0.01319269 0.01336868 0.01350916
 0.01362396 0.01371188 0.01377045 0.01380498 0.01382282 0.01383796 0.01388108 0.01394621 0.01404625 0.01414837
 0.01422881 0.01427429 0.01426335 0.01422471 0.01416302 0.01410603 0.01406567 0.01403233 0.01400862 0.01396331
 0.0138932 0.01378325 0.0136326 0.01346597 0.01328592 0.01313388 0.01300693 0.01291143 0.01283805 0.01275475
 0.01266191 0.01254194 0.01240569 0.01226546 0.0121224 0.01198338 0.01184465 0.01170114 0.01156479 0.0114407
 0.01133727 0.01126454 0.01119901 0.01113835 0.01105482 0.01094121 0.01080169 0.01063534 0.0104577 0.01026956
 0.01006703 0.009849569 0.009607095 0.009342434 0.009064441 0.008781604 0.00852695 0.008309941 0.008173217 0.008110561
 0.008138971 0.008226683 0.008346939 0.008467888 0.008551872 0.00859627 0.008586442 0.008539896 0.008458938 0.008361582
 0.008251573 0.008146543 0.008050294 0.007970246 0.007908782 0.00784826 0.007787787</values></Ydata></AB><ScSm><Ydata ylabel="Single channel"><values byteorder="INTEL" format="FLOAT32" numvalues="1814"> 0.07360804 0.07361806 0.07369354 0.07385597 0.07407646 0.07429029 0.07444181 0.07452047 0.07454599 0.07452755
 0.07447065 0.07442397 0.07447095 0.07464771 0.07488917 0.07507272 0.07511689 0.0750547 0.07501471 0.0750937
 0.07522342 0.07519399 0.07485209 0.07427757 0.07372985 0.07340972 0.07333784 0.07351126 0.07402697 0.07482677
 0.07541838 0.07523063 0.07433039 0.07345273 0.07318389 0.07339966 0.07360998 0.07352442 0.07314105 0.07263821
 0.07242636 0.07303444 0.07458735 0.07638147 0.07714244 0.07583016 0.07238062 0.06793911 0.06443837 0.06356184
 0.06555547 0.06889178 0.07141739 0.07206936 0.07137934 0.07038329 0.06951003 0.0687196 0.06822017 0.06849895
 0.06965077 0.07093059 0.07113759 0.06963866 0.06712121 0.06510654 0.06456201 0.06529482 0.06676789 0.06868667
 0.07016481 0.06925426 0.06486623 0.05919238 0.05671841 0.05995318 0.06675164 0.07242048 0.07389453 0.07144072
 0.06728087 0.06375442 0.06244741 0.06376424 0.06684823 0.07029445 0.07300517 0.07424002 0.07342583 0.07065618
 0.06717959 0.06479278 0.06473985 0.06722899 0.07138304 0.07531074 0.07697091 0.07568762 0.07259741 0.06944355
 0.06742921 0.06723438 0.06918874 0.07292115 0.07733536 0.0812497 0.08388281 0.08493049 0.08462635 0.08359335
 0.08236873 0.08131886 0.08097674 0.08171175 0.08285467 0.08295328 0.08135976 0.07910092 0.07781948 0.07807373
 0.07889418 0.07896041 0.07793307 0.07622969 0.07372002 0.06971264 0.06454767 0.06000711 0.05753239 0.05713446
 0.05846373 0.06136585 0.06462137 0.06587289 0.06420563 0.06179174 0.0617292 0.06473735 0.06878726 0.07158137
 0.07267793 0.07333574 0.0748851 0.07736252 0.07934038 0.07901032 0.0759877 0.07231548 0.07101599 0.07312125
 0.07668008 0.07915106 0.08007443 0.0807744 0.08205019 0.08294128 0.08172878 0.07797648 0.07363203 0.07182749
 0.0741498 0.0790507 0.08297296 0.08298416 0.07874624 0.07258883 0.06769542 0.0659038 0.06720883 0.07096522
 0.07659522 0.08296584 0.08810931 0.09032297 0.08940519 0.08654995 0.08298588 0.07884026 0.07379669 0.06899945
 0.06727628 0.07046172 0.07704762 0.08344376 0.08718132 0.08813877 0.08713578 0.08440009 0.07980673 0.07437265
 0.07074718 0.07114743 0.07468247 0.0778628 0.07825942 0.07671896 0.07555663 0.07567234 0.07622391 0.076408
 0.07660456 0.07772753 0.07991707 0.08219966 0.08343256 0.08334215 0.08256388 0.08189847 0.08158395 0.08112617
 0.07999581 0.07869449 0.07868718 0.08080107 0.08408995 0.08680773 0.08815645 0.08857127 0.08855575 0.087796
 0.08562048 0.08227436 0.07943073 0.07894603 0.0810633 0.08426537 0.08684879 0.08814213 0.0883425 0.08790317
 0.08722746 0.08653188 0.08591394 0.08563952 0.08607715 0.08716899 0.08830892 0.08895099 0.08905689 0.08882514
 0.08830518 0.08747599 0.08651963 0.08582085 0.08568959 0.08613156 0.08690031 0.08771503 0.08835259 0.08860874
 0.08837838 0.0878079 0.08720414 0.08675519 0.08646843 0.08636306 0.08653207 0.08696702 0.08747089 0.08782279
 0.0879533 0.08791925 0.08778095 0.08755873 0.08727545 0.08700164 0.08685217 0.08691111 0.08713356 0.0873689
 0.08752984 0.08767815 0.08787565 0.08802728 0.08798058 0.08773887 0.08747393 0.08734173 0.0873581 0.08744115
 0.08749823 0.08744554 0.08720413 0.0867687 0.08629911 0.08606059 0.08621161 0.08668721 0.08730181 0.08788568
 0.08831109 0.08850884 0.08852202 0.08846695 0.08839941 0.08827317 0.08804806 0.08779511 0.08767705 0.0878242
 0.08821386 0.08867741 0.08904018 0.0892354 0.08929421 0.08929844 0.08935156 0.08950404 0.08967736 0.08973642
 0.08965997 0.08957525 0.08960523 0.08973101 0.08982541 0.08980093 0.08970881 0.08968566 0.08980757 0.09002095
 0.09022287 0.09037567 0.09052169 0.09070171 0.09087626 0.09094128 0.09084114 0.09065197 0.09051078 0.09047179
 0.09049051 0.09054054 0.09066533 0.09088604 0.09112255 0.09125983 0.09127424 0.09125319 0.09128425 0.09135284
 0.09136871 0.09127696 0.09111702 0.09097877 0.09092643 0.09096351 0.09104389 0.09110455 0.09110157 0.09103149
 0.09092484 0.09081686 0.09072316 0.09065032 0.0906295 0.09071116 0.09089695 0.09108758 0.09114043 0.09099916
 0.09075305 0.09055363 0.09047396 0.0904558 0.09038833 0.09022276 0.09000385 0.08980674 0.08966711 0.08957095
 0.08948746 0.08940189 0.08933298 0.0893301 0.08943193 0.08960424 0.08973434 0.08972159 0.08957478 0.08939727
 0.08928286 0.08924994 0.08926313 0.08928521 0.08931182 0.08937463 0.08949611 0.08963323 0.08970233 0.08967704
 0.08962509 0.08963518 0.08974574 0.08994506 0.09018223 0.0903679 0.09042768 0.09038322 0.09034041 0.09037961
 0.0904901 0.09061959 0.09074648 0.09088138 0.09102956 0.09118601 0.09136097 0.09158412 0.09187348 0.09220544
 0.09251945 0.0927572 0.09291151 0.09304519 0.09324962 0.09356947 0.09396535 0.09435266 0.09467455 0.09493779
 0.09518643 0.09544785 0.09571369 0.09597579 0.09626145 0.09660728 0.09700671 0.09741355 0.09779646 0.09816331
 0.09853207 0.09890379 0.09927242 0.09964693 0.1000548 0.1005168 0.1010088 0.101458 0.1018 0.1020437
 0.1022684 0.1025585 0.1029449 0.103383 0.1037728 0.1040347 0.1041939 0.1043685 0.1046433 0.104981
 0.1052926 0.105569 0.1058921 0.1063181 0.1067942 0.1072109 0.1075137 0.1077451 0.1079864 0.1082691
 0.1085479 0.1087591 0.1088983 0.1090241 0.1091889 0.1093996 0.1096587 0.109999 0.1104347 0.1109053
 0.111314 0.1116142 0.1118287 0.1120005 0.1121582 0.1123125 0.112457 0.1125824 0.1127024 0.1128419
 0.1129898 0.1131023 0.1131707 0.1132508 0.1134014 0.1136271 0.1139061 0.1142353 0.1146091 0.1149819
 0.1153087 0.1156168 0.1159823 0.1164138 0.1168112 0.117071 0.1171968 0.1172663 0.1173304 0.117402
 0.1175191 0.1177437 0.1180882 0.1184915 0.1188859 0.1192564 0.1196238 0.1199929 0.1203317 0.1205911
 0.1207408 0.1207948 0.1208096 0.1208594 0.1210046 0.1212658 0.1216082 0.1219581 0.1222469 0.1224372
 0.1225099 0.1224587 0.1223266 0.1222168 0.1222155 0.1222978 0.1223371 0.1222121 0.1218828 0.1213702
 0.120703 0.1199114 0.119054 0.1182227 0.1175105 0.1169767 0.1166495 0.1165577 0.1167426 0.1172138
 0.1178993 0.1186613 0.1193667 0.1199189 0.1202249 0.1201867 0.1197644 0.1190295 0.1181276 0.1171955
 0.1163171 0.1155185 0.1147784 0.1140752 0.1134632 0.1130998 0.1131742 0.1138072 0.1150039 0.1166586
 0.1185759 0.1205167 0.1222798 0.1237741 0.1250218 0.1260933 0.1270491 0.1279358 0.1287993 0.1296616
 0.1304897 0.1312278 0.1318614 0.1324257 0.1329527 0.1334393 0.133862 0.1342006 0.1344527 0.1346411
 0.1347968 0.1349207 0.134982 0.1349672 0.1349076 0.1348391 0.1347497 0.1345816 0.1342767 0.1338206
 0.1332715 0.1327751 0.1325482 0.1328098 0.1336755 0.1350841 0.1368281 0.1386706 0.1404314 0.141985
 0.1432366 0.1441507 0.1447834 0.1452502 0.1456551 0.1460575 0.146479 0.146914 0.1473383 0.1477294
 0.1480863 0.1484312 0.1487956 0.1491965 0.1496148 0.1500046 0.1503359 0.1506314 0.1509515 0.1513391
 0.1517771 0.152207 0.1525934 0.1529588 0.1533389 0.1537185 0.1540449 0.1543006 0.1545303 0.1547959
 0.1551286 0.1555217 0.1559369 0.1563163 0.1566175 0.1568486 0.1570576 0.1572879 0.1575546 0.1578533
 0.1581732 0.1584976 0.1588082 0.1591031 0.1594044 0.1597305 0.1600594 0.1603381 0.1605408 0.1607044
 0.1608934 0.1611356 0.1614053 0.1616639 0.1619055 0.1621624 0.1624696 0.1628231 0.1631723 0.1634583
 0.1636626 0.163819 0.1639803 0.1641781 0.1644121 0.1646661 0.1649241 0.1651752 0.1654177 0.1656605
 0.1659159 0.1661867 0.1664622 0.1667268 0.1669717 0.1672001 0.1674231 0.1676513 0.1678934 0.1681622
 0.1684703 0.1688077 0.1691337 0.1694052 0.1696145 0.1697895 0.169961 0.1701439 0.1703401 0.1705484
 0.1707672 0.1709957 0.1712323 0.1714721 0.1717096 0.1719459 0.1721863 0.1724314 0.172675 0.1729119
 0.1731459 0.173387 0.1736393 0.1738935 0.1741329 0.1743519 0.1745624 0.1747835 0.1750238 0.1752745
 0.1755166 0.1757367 0.175939 0.1761408 0.1763539 0.1765756 0.1767979 0.1770197 0.1772455 0.1774767
 0.177709 0.1779376 0.1781621 0.1783845 0.178604 0.1788194 0.1790328 0.1792463 0.1794582 0.1796672
 0.1798785 0.1800985 0.1803263 0.1805556 0.1807828 0.1810091 0.1812368 0.1814634 0.1816825 0.1818924
 0.1821021 0.1823235 0.182557 0.1827916 0.1830158 0.1832273 0.1834335 0.1836451 0.1838643 0.1840828
 0.184295 0.1845078 0.1847306 0.1849627 0.1851972 0.1854291 0.1856577 0.1858861 0.1861205 0.186364
 0.1866133 0.1868629 0.1871087 0.187346 0.1875681 0.1877702 0.1879528 0.1881255 0.1883033 0.1884926
 0.1886877 0.1888835 0.1890841 0.1892942 0.1895111 0.1897302 0.1899481 0.190162 0.1903722 0.1905815
 0.1907913 0.1910027 0.1912197 0.1914422 0.1916636 0.1918812 0.1920999 0.1923224 0.192545 0.192766
 0.1929857 0.1932042 0.1934258 0.1936558 0.1938904 0.1941194 0.194341 0.194561 0.1947825 0.1950058
 0.1952302 0.1954506 0.1956655 0.1958821 0.1961062 0.1963345 0.1965644 0.1967978 0.1970306 0.1972547
 0.1974692 0.1976795 0.1978925 0.1981173 0.1983543 0.1985879 0.1988062 0.1990183 0.199236 0.199458
 0.1996818 0.1999095 0.2001355 0.200352 0.2005617 0.2007712 0.200982 0.2011972 0.2014142 0.2016089
 0.2017288 0.2016536 0.2010839 0.1994263 0.1957784 0.1890965 0.1785967 0.1642384 0.1469138 0.1281399
 0.1095029 0.09223609 0.07707928 0.06435955 0.05415644 0.0464157 0.04100959 0.03782705 0.03687593 0.03840426
 0.0430347 0.05139101 0.06269592 0.07354859 0.07926366 0.07757066 0.07077792 0.06366317 0.05951218 0.0585508
 0.05937874 0.06080754 0.06246494 0.06456763 0.06747536 0.07126856 0.07574759 0.08090752 0.0871536 0.09478415
 0.1033918 0.112048 0.1201081 0.1277059 0.1354249 0.143585 0.15191 0.1598041 0.1668222 0.1728836
 0.1781786 0.1829651 0.1874237 0.1916341 0.1956309 0.1994125 0.2028577 0.2056819 0.20757 0.2084174
 0.2084528 0.2081115 0.207778 0.2076345 0.207707 0.2079767 0.2084228 0.209016 0.2097224 0.2105123
 0.2113543 0.2122171 0.2130783 0.2139214 0.2147292 0.2154896 0.2161969 0.2168431 0.2174211 0.2179373
 0.2184092 0.2188523 0.2192744 0.2196765 0.2200548 0.2204094 0.2207483 0.2210739 0.221374 0.2216379
 0.2218737 0.2221003 0.2223293 0.2225578 0.2227759 0.2229799 0.2231783 0.2233838 0.2235992 0.2238172
 0.2240325 0.2242441 0.224453 0.2246606 0.2248689 0.2250749 0.2252732 0.225466 0.2256601 0.2258554
 0.2260459 0.2262301 0.226412 0.2265933 0.2267743 0.226958 0.2271487 0.2273488 0.2275562 0.2277634
 0.2279652 0.2281695 0.2283897 0.2286242 0.2288564 0.2290754 0.2292829 0.229484 0.2296848 0.229891
 0.2300972 0.2302836 0.230437 0.2305709 0.2307203 0.2309134 0.2311473 0.2313896 0.2316101 0.2318065
 0.231996 0.2321905 0.2323871 0.2325731 0.2327423 0.2329149 0.2331268 0.2333853 0.2336558 0.2339066
 0.2341405 0.234371 0.2346018 0.2348368 0.235076 0.2352924 0.2354506 0.235561 0.2356967 0.2359388
 0.2362968 0.2366903 0.2370234 0.2372733 0.2374876 0.2377183 0.237987 0.23827 0.2384762 0.2385061
 0.2384046 0.2383903 0.2386559 0.2391768 0.2397649 0.2402623 0.2406349 0.2409258 0.2411775 0.2413884
 0.2415158 0.2415257 0.2414672 0.2414964 0.241771 0.2422865 0.2428627 0.2433279 0.2436567 0.2439024
 0.2440971 0.2442519 0.2443307 0.244194 0.2437451 0.2432074 0.2430726 0.2436295 0.2446348 0.2455654
 0.2461354 0.2464473 0.2467031 0.2469571 0.2471665 0.2472363 0.2469052 0.2458947 0.244443 0.2434527
 0.2437435 0.2452272 0.2470586 0.2484805 0.249299 0.2497026 0.2499373 0.2501392 0.2502275 0.2499126
 0.2490202 0.2479128 0.247397 0.2479793 0.2493006 0.2505234 0.2511852 0.2514416 0.2516231 0.2518652
 0.25202 0.2516052 0.2500745 0.2476209 0.2455904 0.2455393 0.2477122 0.2507507 0.2530397 0.2541
 0.2544727 0.2545346 0.2539429 0.2522566 0.2495968 0.2465968 0.2442136 0.2435988 0.2453315 0.2484663
 0.251073 0.2521392 0.2524204 0.253179 0.2546756 0.2561699 0.2568897 0.2566311 0.2556276 0.2541268
 0.252273 0.2505044 0.2497865 0.2509284 0.2536025 0.2564626 0.2583877 0.2593329 0.2597417 0.2592315
 0.256333 0.2502599 0.2431112 0.2392816 0.2415782 0.2482825 0.2549956 0.2589622 0.2605758 0.2613053
 0.2617324 0.2613949 0.2590525 0.2533613 0.2449891 0.2379491 0.2368818 0.2424587 0.2506234 0.256384
 0.2572131 0.2533062 0.2466807 0.2405769 0.2381354 0.2404907 0.2462761 0.2529731 0.2584257 0.2614319
 0.2617227 0.2598365 0.2570803 0.2552182 0.2551967 0.2557435 0.254331 0.2503687 0.2461848 0.243601
 0.241103 0.2366325 0.2321057 0.2321499 0.2380961 0.2457662 0.2501756 0.2505847 0.2495932 0.2483884
 0.2446981 0.2360591 0.2244915 0.2165715 0.2176802 0.2264201 0.2358662 0.2403454 0.2399356 0.2384246
 0.2382581 0.2380581 0.2345808 0.2269625 0.2188628 0.2153896 0.2176627 0.2218097 0.223541 0.2215649
 0.2160791 0.2073974 0.1984127 0.1954651 0.2029809 0.2180437 0.232691 0.2404713 0.2387799 0.2274118
 0.2094792 0.1933152 0.1884129 0.1969133 0.2109995 0.2200959 0.2192603 0.2100369 0.1959228 0.1799934
 0.166343 0.1605047 0.1661243 0.1812725 0.1985193 0.2086215 0.2056136 0.1914534 0.1764451 0.1718174
 0.1794924 0.1907639 0.1960614 0.193635 0.1881608 0.1847126 0.1858441 0.1911731 0.1977903 0.2029819
 0.2063927 0.2069519 0.1999476 0.1826915 0.1620334 0.1498549 0.1507219 0.1595206 0.1709713 0.1843717
 0.1974548 0.2031281 0.1974798 0.1872206 0.1839969 0.1920296 0.2044921 0.2118654 0.2113642 0.2074551
 0.2049381 0.2038227 0.2017213 0.1993929 0.2009461 0.2081656 0.2173985 0.2236413 0.2257557 0.2260053
 0.2262169 0.2263997 0.2260553 0.225013 0.2233426 0.2214813 0.2201073 0.2193829 0.2188066 0.2179783
 0.2165874 0.2132742 0.2059256 0.1946518 0.1836812 0.1780294 0.1781961 0.1804806 0.1824847 0.184528
 0.1845129 0.1764675 0.1584504 0.1390512 0.1311578 0.13951 0.1571611 0.1733727 0.1818142 0.1810901
 0.1715386 0.155519 0.1401227 0.1349685 0.1443237 0.1629865 0.1818646 0.1958392 0.2043421 0.2069863
 0.2026341 0.1925701 0.1817839 0.1761267 0.1787417 0.1886548 0.2010908 0.2087117 0.2052031 0.191551
 0.1788457 0.1801196 0.1966637 0.2158664 0.225386 0.2256568 0.224901 0.2263483 0.2266293 0.2247304
 0.2255851 0.2332819 0.2450298 0.253913 0.254962 0.2470939 0.2324588 0.216955 0.2087153 0.2115709
 0.2206714 0.2277482 0.2291155 0.225183 0.2155729 0.2011825 0.1893737 0.1895369 0.2022059 0.2178229
 0.2275995 0.2315124 0.2343317 0.2374024 0.2370318 0.2301152 0.219343 0.2115392 0.2109058 0.2153383
 0.2199612 0.2222641 0.2221318 0.2189266 0.2118852 0.2033751 0.1989253 0.2024205 0.2120784 0.2221262
 0.2279781 0.2291126 0.227677 0.2257296 0.2238656 0.2214231 0.2178808 0.2146295 0.2146788 0.219413
 0.2263276 0.2315733 0.234344 0.2371385 0.2418404 0.2471178 0.2500331 0.2492442 0.2462867 0.2442396
 0.2452525 0.2488315 0.2522048 0.2526908 0.2502529 0.2477727 0.2483975 0.2525438 0.2578526 0.2618754
 0.2640684 0.2652772 0.2663004 0.2672027 0.2672676 0.2655357 0.2621652 0.2592447 0.2593153 0.2628426
 0.2677665 0.2716268 0.273548 0.2741084 0.2739964 0.2732897 0.2718446 0.2699464 0.2683319 0.2676104
 0.2678296 0.2686265 0.2696163 0.2705524 0.2712969 0.2718165 0.2721677 0.2724132 0.2725831 0.272718
 0.2728592 0.2729742 0.2729878 0.2729317 0.2729724 0.2732221 0.2735811 0.2738398 0.2738703 0.2736319
 0.2730541 0.2720577 0.2706929 0.2691278 0.26746 0.2656555 0.2637819 0.262259 0.2617328 0.2625915
 0.2646009 0.2670433 0.2692087 0.2707508 0.2716742 0.2721353 0.272306 0.2723356 0.2723228 0.2722898
 0.2722004 0.2720191 0.2717449 0.2713995 0.2710091 0.2706129 0.2702637 0.2699932 0.2697769 0.2695479
 0.2692432 0.268836 0.2683402 0.2677982 0.2672526 0.2667036 0.2660896 0.2653257 0.2643822 0.2633258
 0.2622792 0.2613334 0.2604914 0.2596808 0.2588173 0.2578585 0.2567962 0.2556141 0.2542983 0.2529074
 0.2515814 0.2504362 0.2494648 0.2485661 0.2476381 0.2466208 0.245489 0.2442475 0.2429319 0.2415881
 0.2402421 0.2388824 0.2374685 0.2359608 0.2343496 0.232653 0.2308937 0.2290863 0.2272448 0.2253828
 0.2234908 0.2215058 0.2193112 0.2167698 0.2137587 0.21019 0.2060368 0.2013691 0.1963563 0.191217
 0.1861579 0.181343 0.1768899 0.1728864 0.1694105 0.1665346 0.1643123 0.1627751 0.1619438 0.161826
 0.1624018 0.1636213 0.1654118 0.1676771 0.1702903 0.1730902 0.1758909 0.1785206 0.1808887 0.1830238
 0.1850272 0.1869745 0.1888566 0.1906122 0.1921973 0.1936094 0.1948522 0.1959091 0.196766 0.1974438
 0.1979936 0.1984684 0.1988999 0.1992906 0.1996254 0.1998958 0.2001095 0.2002832 0.2004414 0.2006165
 0.2008352 0.2011067 0.2014358 0.2018358 0.2023121 0.2028509 0.2034337 0.2040522 0.2047059 0.2053967
 0.2061288 0.206911 0.2077626 0.2087202 0.2098239 0.2110942 0.2125182 0.2140502 0.2156173 0.217137
 0.218534 0.2197436 0.2207137 0.2214212 0.221882 0.2221387 0.2222409 0.2222286 0.2221185 0.2219062
 0.2215927 0.221196 0.2207384 0.2202338 0.2196915 0.2191194 0.2185259 0.2179258 0.2173356 0.2167607
 0.2161994 0.2156571 0.215141 0.2146447 0.2141539 0.2136618 0.2131703 0.2126808 0.2121921 0.2117003
 0.2111981 0.2106693 0.2100825 0.2093982 0.2085944 0.2076735 0.2066381 0.2054819 0.2042137 0.2028645
 0.2014592 0.2 0.1984821 0.1969032 0.1952594 0.1935429 0.19174 0.1898284 0.187802 0.185708
 0.1836427 0.1816966 0.1799052 0.1782458 0.1766751 0.1751717 0.1737406 0.172379 0.1710635 0.1697825
 0.168558 0.1674154 0.1663531 0.1653528 0.1644047 0.1635192 0.1627245 0.1620447 0.1614711 0.1609666
 0.1605083 0.1601123 0.1598152 0.1596411 0.1595802 0.1595843 0.1595894 0.1595487 0.1594464 0.1592927
 0.1591174 0.1589545 0.1588219 0.1587208 0.158647 0.1585749 0.1584337 0.158121 0.1575443 0.1566446
 0.1554031 0.1538481 0.1520559 0.1501441 0.1482577 0.1465331 0.1450563 0.1438598 0.1429412 0.1422556
 0.1417166 0.1412527 0.1408653 0.1406173 0.1405721 0.1407278 0.1409736 0.1411382 0.141141 0.1410862
 0.1411737 0.1415285 0.1421267 0.1428408 0.143528 0.1441014 0.1445348 0.144819 0.1449537 0.1449745
 0.1449342 0.144852 0.1447177 0.1445288 0.1442869 0.1439843 0.1436156 0.1431783 0.1426595 0.1420504
 0.1413575 0.1405804 0.1397097 0.138745 0.1376784 0.1364966 0.1352639 0.1341749 0.1334673 0.1332943
 0.1336615 0.1344224 0.1353589 0.136327 0.1372611 0.1380109 0.1383621 0.1383803 0.1385998 0.1396373
 0.1415928 0.1439337 0.1459691 0.1473349 0.1480159 0.1480897 0.1476157 0.1466673 0.1452809 0.1434128
 0.1410658 0.1383754 0.1355024 0.1325707 0.1297381 0.1271744 0.124974 0.1231774 0.1218044 0.1208915
 0.1205366 0.1203493 0.11849 0.1126193 0.1034964 0.09660934 0.09758901 0.105894 0.1151705 0.1199703
 0.1201052 0.1184531 0.117024 0.1161293 0.1156449 0.1156723 0.1163248 0.1174839 0.1187912 0.1198602
 0.1205364 0.1208613 0.1207759 0.1199061 0.1175374 0.1128548 0.1055859 0.09658474 0.08756015 0.08008611
 0.07488318 0.07181996 0.07026566 0.06947348 0.06894852 0.06865348 0.06888321 0.06992559 0.0718268 0.07443526
 0.07755311 0.08092306 0.08414069 0.08681016 0.08883931 0.09042332 0.0917154 0.09265684 0.09312348 0.09309241
 0.09265317 0.09195341 0.09114214 0.0903027 0.08940972 0.08836876 0.08715656 0.08595261 0.08505587 0.08461215
 0.08449809 0.08450784 0.08453985 0.08457156 0.08458799 0.08458729 0.08458339 0.08460878 0.08474898 0.08509405
 0.08560714 0.08611991 0.08648698 0.08668978 0.08679432 0.08682857 0.08668165 0.08619766 0.08545637 0.08480436
 0.0844146 0.08397906 0.08310559 0.08191045 0.08095267 0.08062917 0.08083267 0.08116354 0.08129835 0.08115746
 0.08089292 0.08080206 0.08112532 0.08177111</values></Ydata></ScSm><ScRf><Ydata ylabel="Single channel"><values byteorder="INTEL" format="FLOAT32" numvalues="1820"> 0.06039782 0.0605576 0.06065575 0.06068881 0.06068382 0.06068984 0.06075499 0.06089688 0.06108784 0.06126934
 0.06139273 0.06145208 0.06146801 0.06144784 0.06139382 0.06134925 0.06139025 0.06154851 0.06176398 0.0619272
 0.06196644 0.06190881 0.06186467 0.06192099 0.06202593 0.06200353 0.06172002 0.06123742 0.06077383 0.06050339
 0.06044837 0.06060546 0.06105148 0.06173567 0.06224663 0.06210427 0.06135863 0.06062125 0.06038594 0.06055609
 0.06072711 0.0606571 0.06034174 0.05992434 0.05974141 0.06023332 0.06151217 0.06300308 0.06364881 0.06257618
 0.05972043 0.05602875 0.05311091 0.05237222 0.05402158 0.05679143 0.05889205 0.05944114 0.05888547 0.05808961
 0.05740198 0.0567697 0.05635059 0.05655354 0.05747586 0.05851486 0.05867789 0.05743558 0.05535341 0.05369137
 0.05325223 0.05387495 0.05510902 0.05670533 0.05792954 0.0571691 0.05351979 0.04879829 0.04673481 0.04942593
 0.05509463 0.05982956 0.06106779 0.05902939 0.05557314 0.0526519 0.05157705 0.05267199 0.05522352 0.05807662
 0.06032952 0.06136351 0.06069246 0.05839307 0.05551098 0.0535422 0.05351065 0.05557791 0.05901801 0.06227414
 0.06365816 0.06260078 0.0600357 0.05741233 0.05573917 0.05558518 0.05722056 0.06033258 0.06401074 0.06727743
 0.06948647 0.07038116 0.07014622 0.06929432 0.06827687 0.06740591 0.0671252 0.0677378 0.0686869 0.06877002
 0.06745236 0.06558482 0.06452598 0.06473529 0.06540856 0.06545368 0.06459498 0.06318468 0.06111282 0.05779318
 0.05349758 0.04971022 0.04764149 0.04730764 0.04841999 0.05085493 0.05359952 0.05467909 0.05331214 0.05130065
 0.05123732 0.05373877 0.05712138 0.05946459 0.0603897 0.06093989 0.06222623 0.0642866 0.06593741 0.06567081
 0.06315862 0.06009794 0.05901404 0.06078006 0.06377339 0.06586647 0.06666844 0.06728547 0.06838518 0.06915829
 0.06816399 0.06504485 0.06143949 0.05996654 0.06194385 0.06606939 0.06936482 0.06937382 0.06581397 0.06064634
 0.05655185 0.05507599 0.05621105 0.05941477 0.06420768 0.06964253 0.07406013 0.07601052 0.07530116 0.07292736
 0.0699359 0.06645212 0.06221354 0.05818132 0.05674999 0.05948966 0.06513894 0.07065409 0.07392529 0.07483014
 0.07405066 0.07177348 0.06789403 0.06329139 0.06024459 0.06066123 0.06377955 0.06659875 0.06701916 0.06575758
 0.06480838 0.06495899 0.06549275 0.06571783 0.06596144 0.0670132 0.06899258 0.07105449 0.07220731 0.07221092
 0.07161376 0.07111252 0.0709173 0.07059774 0.06969343 0.06864946 0.06875062 0.07071097 0.0736851 0.07613633
 0.07737489 0.07779881 0.07785818 0.07727017 0.07542802 0.07253777 0.07008348 0.06972671 0.07169819 0.07465034
 0.07705662 0.07831049 0.07858635 0.07828676 0.0777685 0.07722993 0.07677011 0.0766307 0.0771313 0.07820857
 0.07931823 0.07997763 0.08015776 0.08003538 0.07964835 0.07897329 0.07817802 0.07761984 0.07758585 0.07807853
 0.0788659 0.07968964 0.08035265 0.08067448 0.08055469 0.08011889 0.0796494 0.07932816 0.0791651 0.07916911
 0.07941487 0.07989161 0.08042275 0.08081141 0.08099698 0.08103134 0.08096829 0.08082515 0.08062328 0.08043225
 0.08036438 0.08049496 0.08076928 0.08104081 0.08124171 0.08144923 0.08172315 0.08195664 0.08198847 0.0818181
 0.0816149 0.08153269 0.0815863 0.08169658 0.08177967 0.0817643 0.08158141 0.08122556 0.08084134 0.08067031
 0.08085951 0.08135697 0.08199905 0.08262372 0.08309588 0.08333908 0.08339489 0.08337891 0.08334699 0.08325805
 0.08307825 0.08287505 0.08279487 0.08295402 0.08333646 0.08379805 0.08418224 0.08441848 0.08452244 0.084566
 0.08465143 0.08483028 0.08502309 0.08509389 0.08502452 0.08494866 0.08499101 0.08512469 0.08521482 0.0851782
 0.08507772 0.08505535 0.08518336 0.08540298 0.08560961 0.08576854 0.08593002 0.08614136 0.08635631 0.08644982
 0.08634882 0.08613452 0.085967 0.08591744 0.08593664 0.08598355 0.08609662 0.08630349 0.08652957 0.08665986
 0.08667172 0.08665688 0.0867047 0.08679496 0.08682553 0.08673023 0.08654553 0.08636986 0.08628277 0.08630108
 0.08638193 0.08645242 0.08645248 0.08637093 0.08624576 0.08612572 0.08603513 0.08598566 0.0860135 0.08616728
 0.08643028 0.08667319 0.08673194 0.08655578 0.08626557 0.08604852 0.08599187 0.08602026 0.08598778 0.08581918
 0.08556037 0.08531012 0.08512674 0.08500154 0.08489728 0.0847955 0.08471902 0.08472186 0.08483703 0.08501031
 0.08510646 0.0850208 0.08478251 0.08452184 0.08434677 0.08427577 0.08426514 0.08426278 0.08425051 0.08426145
 0.08433433 0.08443563 0.08446971 0.08439001 0.08425957 0.08418461 0.08422939 0.0843973 0.08463085 0.08481701
 0.0848586 0.08477114 0.08466873 0.08464028 0.08467888 0.08473735 0.084802 0.08488648 0.08499005 0.08509861
 0.08521722 0.08537567 0.08559568 0.08585863 0.08610798 0.08628748 0.0863893 0.08647159 0.08662017 0.0868794
 0.08721381 0.08753796 0.08778785 0.08796807 0.08813128 0.08831504 0.08851181 0.08870823 0.08892918 0.08921352
 0.08955546 0.08990171 0.09020833 0.09047762 0.09073859 0.0910121 0.09130257 0.09161605 0.09197497 0.09239718
 0.09284834 0.09323598 0.09348298 0.09360632 0.09370887 0.09389886 0.09421825 0.09461419 0.0949627 0.0951608
 0.09523179 0.09531203 0.09550332 0.09577036 0.09602037 0.09624934 0.09654932 0.09697412 0.09744914 0.09783716
 0.09807295 0.09821491 0.09836928 0.09857595 0.09877831 0.09890562 0.09896696 0.09903897 0.09917133 0.09934787
 0.09955211 0.09981929 0.100183 0.1006025 0.1009893 0.1012897 0.1015091 0.1016738 0.1018018 0.1018982
 0.1019548 0.1019683 0.1019716 0.1020169 0.1021109 0.1021995 0.102241 0.1022631 0.1023269 0.1024629
 0.102669 0.1029393 0.1032561 0.1035704 0.1038422 0.1041023 0.1044225 0.1048032 0.1051358 0.1053169
 0.1053655 0.1053788 0.105409 0.1054442 0.1054954 0.1056231 0.1058637 0.1061824 0.1065207 0.1068576
 0.1072033 0.1075561 0.1078796 0.1081178 0.1082308 0.1082303 0.1081842 0.1081838 0.108297 0.1085366
 0.1088587 0.1091906 0.1094722 0.1096706 0.1097657 0.1097519 0.1096776 0.1096509 0.1097563 0.1099578
 0.1101156 0.1101046 0.1098969 0.1095286 0.1090312 0.1084231 0.107749 0.1070919 0.1065369 0.1061333
 0.1059002 0.1058624 0.1060617 0.1065132 0.107153 0.1078542 0.1084991 0.1090118 0.1093201 0.1093379
 0.1090252 0.1084459 0.1077325 0.1070063 0.1063363 0.1057359 0.1051698 0.1045982 0.1040617 0.1037164
 0.103758 0.1043047 0.105341 0.1067316 0.1082665 0.1097243 0.1109547 0.1119338 0.1127369 0.1134513
 0.1141194 0.1147581 0.1153948 0.1160479 0.1166867 0.1172563 0.1177419 0.1181791 0.1185993 0.1189948
 0.1193388 0.1196149 0.1198335 0.1200317 0.1202403 0.1204345 0.1205416 0.1205215 0.1204145 0.120291
 0.1201721 0.1200187 0.1197761 0.1194189 0.1189829 0.1185863 0.1184107 0.1186235 0.1192839 0.1203109
 0.1215445 0.1228434 0.1241161 0.1252772 0.1262279 0.1269115 0.1273643 0.127682 0.1279501 0.1282172
 0.128507 0.128821 0.1291399 0.1294404 0.1297163 0.1299849 0.1302763 0.1306058 0.1309484 0.1312537
 0.1314991 0.1317226 0.1319922 0.1323417 0.1327376 0.1331111 0.1334293 0.1337234 0.1340345 0.1343455
 0.1346019 0.1347891 0.1349562 0.1351662 0.1354519 0.1358084 0.1361915 0.1365301 0.1367758 0.1369472
 0.1371067 0.137297 0.137517 0.1377508 0.1379925 0.138242 0.1384983 0.1387663 0.139059 0.1393762
 0.1396825 0.1399257 0.140086 0.1402008 0.1403325 0.1405159 0.1407381 0.1409636 0.1411744 0.1413906
 0.1416506 0.1419634 0.142283 0.1425425 0.1427142 0.1428303 0.1429463 0.1430984 0.1432914 0.1435116
 0.1437393 0.1439581 0.1441633 0.1443616 0.144562 0.1447665 0.1449713 0.1451745 0.1453795 0.1455899
 0.145804 0.1460161 0.1462286 0.1464614 0.1467361 0.1470443 0.1473397 0.1475723 0.1477303 0.1478449
 0.1479583 0.148096 0.1482617 0.1484474 0.1486438 0.1488461 0.1490549 0.1492698 0.1494861 0.1496965
 0.1498985 0.1500964 0.1502967 0.1505024 0.1507141 0.1509362 0.1511734 0.1514184 0.151651 0.151854
 0.1520303 0.1522001 0.1523834 0.1525832 0.1527849 0.1529742 0.1531543 0.1533394 0.1535359 0.1537362
 0.1539311 0.154121 0.154313 0.154512 0.1547145 0.1549121 0.1551011 0.1552866 0.1554764 0.1556729
 0.1558747 0.1560801 0.1562868 0.1564913 0.1566901 0.1568807 0.1570659 0.1572559 0.1574607 0.1576768
 0.1578875 0.158081 0.1582614 0.1584435 0.1586367 0.1588369 0.1590331 0.1592224 0.1594122 0.1596092
 0.1598114 0.1600141 0.1602175 0.1604243 0.1606361 0.1608513 0.1610651 0.1612737 0.1614775 0.1616795
 0.1618835 0.1620962 0.1623248 0.1625671 0.1628104 0.1630433 0.1632628 0.1634706 0.1636675 0.1638517
 0.1640209 0.1641785 0.164336 0.1645039 0.1646828 0.1648687 0.1650607 0.1652584 0.1654576 0.1656526
 0.1658401 0.1660222 0.1662089 0.1664107 0.1666275 0.166849 0.1670651 0.1672705 0.1674649 0.1676533
 0.1678421 0.1680332 0.1682283 0.168433 0.168648 0.1688661 0.1690822 0.1692981 0.169513 0.1697235
 0.1699319 0.1701444 0.1703641 0.1705903 0.1708161 0.1710282 0.1712232 0.1714157 0.1716189 0.1718294
 0.172041 0.1722547 0.1724694 0.1726784 0.1728792 0.1730739 0.1732666 0.173468 0.1736882 0.1739209
 0.1741512 0.1743721 0.1745836 0.1747871 0.1749904 0.1752022 0.1754176 0.1756267 0.1758298 0.1760321
 0.1762375 0.1764528 0.1766776 0.1768872 0.1770282 0.1769891 0.176507 0.1750656 0.1718732 0.166007
 0.1567727 0.144138 0.1288961 0.1123841 0.09599018 0.08079259 0.06744449 0.05624182 0.04725932 0.04044661
 0.03568674 0.03288239 0.03204556 0.03339751 0.03748458 0.04485389 0.05482259 0.06439678 0.06944461 0.06795776
 0.06196699 0.05568869 0.05202959 0.0511959 0.05195006 0.0532331 0.05470857 0.05657175 0.05915203 0.06252645
 0.06651177 0.07109074 0.07661553 0.08335684 0.09096768 0.09863155 0.1057697 0.1124907 0.1193138 0.1265345
 0.1339141 0.1409212 0.1471567 0.1525492 0.1572672 0.1615341 0.1655019 0.1692398 0.1727871 0.1761517
 0.1792246 0.1817445 0.183429 0.1841921 0.1842427 0.1839663 0.1837012 0.1836093 0.1837108 0.1839806
 0.1843931 0.1849255 0.1855599 0.1862787 0.1870517 0.1878425 0.1886279 0.1893973 0.1901392 0.1908416
 0.1914963 0.1920958 0.1926364 0.1931248 0.1935724 0.1939863 0.1943711 0.1947343 0.1950822 0.1954184
 0.1957477 0.1960705 0.1963778 0.1966581 0.1969081 0.1971332 0.197342 0.1975455 0.1977543 0.1979723
 0.1981943 0.1984111 0.1986172 0.1988159 0.1990132 0.1992082 0.1993963 0.1995815 0.1997756 0.1999839
 0.2001998 0.2004144 0.2006217 0.2008176 0.2010014 0.2011796 0.2013603 0.2015466 0.2017356 0.2019235
 0.2021113 0.2023075 0.2025166 0.2027298 0.2029382 0.2031487 0.2033729 0.203604 0.2038236 0.2040252
 0.2042158 0.2044051 0.2046037 0.2048202 0.2050443 0.2052483 0.2054162 0.205564 0.2057264 0.2059257
 0.2061531 0.2063804 0.2065898 0.2067889 0.2069921 0.2072001 0.2074013 0.2075842 0.2077505 0.2079254
 0.2081427 0.2084037 0.2086707 0.2089123 0.2091339 0.2093538 0.2095817 0.2098229 0.2100703 0.2102897
 0.2104464 0.2105556 0.2106899 0.2109226 0.2112594 0.2116269 0.2119415 0.2121864 0.2124071 0.2126492
 0.2129258 0.2132083 0.2134119 0.2134502 0.2133686 0.2133689 0.2136274 0.2141222 0.214683 0.2151662
 0.2155393 0.2158401 0.2161067 0.2163384 0.2164952 0.216543 0.2165253 0.2165846 0.2168599 0.2173381
 0.2178535 0.2182618 0.2185542 0.2187834 0.2189763 0.2191436 0.2192551 0.219182 0.2188294 0.2183915
 0.218307 0.2188339 0.2197555 0.2206093 0.2211444 0.2214545 0.2217192 0.2219853 0.2222111 0.2223083
 0.2220401 0.2211549 0.2198693 0.2190048 0.2193071 0.2206926 0.2223885 0.2237085 0.224483 0.2248833
 0.2251259 0.2253321 0.2254353 0.225184 0.2244258 0.2234839 0.223073 0.2236363 0.2248464 0.2259562
 0.2265624 0.2268176 0.2270258 0.2273059 0.2275122 0.2271962 0.2258589 0.2236787 0.2218806 0.2218759
 0.2238836 0.2266716 0.2287796 0.2297792 0.2301652 0.230279 0.2298042 0.2283342 0.2259763 0.2233053
 0.221189 0.2206716 0.2222778 0.2251479 0.227531 0.2285174 0.228805 0.2295429 0.2309581 0.2323656
 0.2330558 0.2328461 0.2319642 0.2306525 0.229042 0.2275121 0.2269242 0.2280169 0.2305065 0.2331765
 0.2350034 0.2359373 0.2363767 0.2359715 0.2333797 0.227879 0.221384 0.2179154 0.2200501 0.2262255
 0.2324176 0.2361001 0.2376322 0.2383625 0.2388231 0.2385828 0.2365002 0.2313462 0.2237346 0.2173399
 0.2164126 0.2215723 0.2291069 0.2344431 0.2352623 0.2317399 0.2257231 0.2201824 0.2179976 0.2202133
 0.2255881 0.2318209 0.2369266 0.2397845 0.2401387 0.2384886 0.2360395 0.2344081 0.2344556 0.2350092
 0.2337538 0.2301642 0.2263921 0.2241044 0.2218876 0.2178419 0.2137519 0.2139013 0.2195144 0.2267156
 0.2308891 0.2313539 0.2305232 0.2295029 0.2261909 0.2182969 0.2076785 0.2004275 0.2015444 0.2097476
 0.218622 0.2229065 0.2226719 0.2214291 0.2214466 0.2214417 0.2183865 0.2114615 0.204075 0.2010032
 0.2033004 0.2073494 0.2091399 0.2074596 0.2024785 0.1944768 0.1861786 0.1835713 0.1908469 0.2052693
 0.219326 0.2269129 0.2255509 0.2150284 0.1982862 0.1832357 0.1789066 0.1873472 0.2011293 0.2101824
 0.2097768 0.201349 0.1882067 0.1732928 0.1605767 0.1554443 0.1614643 0.1767868 0.1941799 0.2045909
 0.2021251 0.188662 0.1743516 0.17031 0.1784471 0.1901119 0.1957891 0.1937492 0.188662 0.1855994
 0.1871297 0.192876 0.1999038 0.2054749 0.2092305 0.2100614 0.2031506 0.1857543 0.1648519 0.1525532
 0.1535224 0.1625675 0.1743283 0.1880998 0.2015572 0.2074346 0.2017203 0.1912678 0.1879781 0.1961629
 0.2088477 0.2163111 0.2157116 0.2116169 0.2089425 0.2077184 0.2055297 0.2031716 0.2048475 0.2123709
 0.221998 0.2286055 0.2310131 0.2315167 0.2319871 0.2324547 0.2324245 0.2317189 0.2303961 0.2288834
 0.2278515 0.2274522 0.2271798 0.2266471 0.2255419 0.2224256 0.215059 0.2035519 0.1923543 0.1867283
 0.1871652 0.1897495 0.1919646 0.1941575 0.1941224 0.1855752 0.1664646 0.1457951 0.1370813 0.1452889
 0.1631314 0.1793663 0.1874088 0.1858966 0.1753154 0.1581827 0.1417429 0.1357249 0.1444136 0.162536
 0.1809007 0.1943299 0.2022741 0.2044223 0.1997024 0.1893947 0.1784068 0.1724771 0.1746682 0.1840051
 0.1958122 0.2029371 0.1992433 0.1856945 0.1730586 0.1739826 0.1897325 0.2081014 0.2171315 0.2172248
 0.2163289 0.2175781 0.2177253 0.2157916 0.2165506 0.2239791 0.2354067 0.2441446 0.2453553 0.2379715
 0.2240899 0.209451 0.2019309 0.205191 0.2144533 0.2216476 0.2231927 0.2195 0.2102092 0.1962197
 0.1847649 0.1850563 0.1976158 0.2130669 0.2227933 0.226789 0.2297504 0.2329874 0.232839 0.226229
 0.2158161 0.2083599 0.2080398 0.2127971 0.2178132 0.2205937 0.2210017 0.2183687 0.2119062 0.2039805
 0.200152 0.2043307 0.2146981 0.2253831 0.2316937 0.2330395 0.2315533 0.2293291 0.2270193 0.223999
 0.2197538 0.2156888 0.214866 0.2187406 0.2248576 0.229374 0.2314595 0.2335887 0.237648 0.2423363
 0.2447496 0.2435539 0.2402526 0.2378647 0.2384937 0.2416624 0.2446779 0.2449323 0.2423809 0.2398156
 0.2402985 0.2442482 0.2493799 0.253306 0.2554761 0.2566889 0.2577046 0.2585784 0.258618 0.2569057
 0.2536064 0.2507381 0.250742 0.2540568 0.2586994 0.2623178 0.2640931 0.2645955 0.2644829 0.263818
 0.2624592 0.2606821 0.2591894 0.2585523 0.2588011 0.2595753 0.260502 0.2613549 0.2620197 0.262475
 0.262773 0.2629673 0.2630814 0.2631501 0.2632104 0.2632346 0.2631635 0.263045 0.2630492 0.2632771
 0.2636175 0.2638582 0.2638768 0.26364 0.2630858 0.2621435 0.2608676 0.2594229 0.2578971 0.2562438
 0.2545159 0.253114 0.2526627 0.2535435 0.2555445 0.2579889 0.2601923 0.2618006 0.2627923 0.263305
 0.2635094 0.2635598 0.2635544 0.2635095 0.2633904 0.2631728 0.2628693 0.2625082 0.2621121 0.261707
 0.2613339 0.2610286 0.2607816 0.2605293 0.2601963 0.2597527 0.259233 0.2586995 0.258186 0.2576676
 0.2570754 0.2563447 0.2554619 0.2544804 0.2534938 0.2525852 0.2517798 0.2510349 0.2502795 0.2494639
 0.2485613 0.2475396 0.2463901 0.2451986 0.2441311 0.2433 0.242665 0.2420887 0.2414564 0.2407155
 0.2398493 0.2388651 0.2378004 0.2367017 0.2355925 0.2344691 0.2333129 0.2320951 0.2307838 0.2293644
 0.2278491 0.2262659 0.2246448 0.2230065 0.2213378 0.2195671 0.2175783 0.215251 0.2124827 0.2091839
 0.2052986 0.2008596 0.196021 0.191018 0.1860856 0.181402 0.1770858 0.1732202 0.1698752 0.1671152
 0.1649971 0.1635652 0.1628465 0.1628507 0.1635689 0.1649633 0.1669531 0.1694156 0.1722062 0.1751753
 0.1781673 0.1810256 0.1836374 0.18599 0.188162 0.1902328 0.1922054 0.1940269 0.1956607 0.1971044
 0.1983533 0.1993908 0.2002226 0.2008922 0.2014515 0.2019315 0.2023456 0.2027048 0.2030184 0.2032892
 0.2035182 0.2037144 0.2038969 0.2040855 0.2042932 0.204529 0.2048015 0.2051198 0.2054916 0.2059189
 0.2063917 0.2068956 0.2074296 0.2080078 0.2086389 0.2093181 0.210049 0.210863 0.2118083 0.2129192
 0.214193 0.2155819 0.2170019 0.2183589 0.2195717 0.2205781 0.2213368 0.221836 0.2221009 0.2221819
 0.2221262 0.2219542 0.2216667 0.2212693 0.2207856 0.2202443 0.2196645 0.219054 0.2184122 0.2177337
 0.2170193 0.2162888 0.2155726 0.2148856 0.2142184 0.213561 0.212922 0.2123165 0.2117388 0.2111633
 0.2105738 0.2099792 0.2093973 0.2088339 0.2082803 0.2077145 0.2070954 0.2063751 0.2055316 0.2045832
 0.2035564 0.2024538 0.2012623 0.1999804 0.1986227 0.197202 0.1957182 0.1941639 0.1925349 0.1908284
 0.1890315 0.1871235 0.1851108 0.1830564 0.1810578 0.179187 0.1774593 0.1758535 0.1743486 0.1729395
 0.1716246 0.1703861 0.1691913 0.1680215 0.1668894 0.1658193 0.1648182 0.1638767 0.1629895 0.1621666
 0.1614291 0.1607953 0.1602665 0.1598249 0.1594467 0.1591164 0.1588392 0.1586461 0.1585692 0.1585968
 0.158664 0.1586951 0.1586493 0.1585314 0.1583794 0.158237 0.1581267 0.1580477 0.1579916 0.1579344
 0.1578144 0.157538 0.1570091 0.1561544 0.1549477 0.153426 0.1516744 0.1498024 0.1479433 0.1462399
 0.1447952 0.1436466 0.1427851 0.1421626 0.1416911 0.1412893 0.1409483 0.1407337 0.1407187 0.1409019
 0.1411675 0.1413536 0.1413982 0.1414075 0.1415589 0.1419606 0.1425975 0.1433593 0.1441107 0.1447702
 0.1453185 0.1457388 0.1460037 0.146125 0.1461508 0.146106 0.1459859 0.1457949 0.1455506 0.1452645
 0.144939 0.1445563 0.1440796 0.1434888 0.1427941 0.142006 0.1411379 0.1402189 0.1392431 0.1381541
 0.1369661 0.1358664 0.1351302 0.1349522 0.1353545 0.1361897 0.1372393 0.1383495 0.1394139 0.1402318
 0.1405841 0.1405847 0.1408141 0.1418982 0.143925 0.1463455 0.1484462 0.1498488 0.15055 0.150651
 0.1502189 0.1493191 0.1479789 0.146148 0.1438158 0.1410947 0.1381324 0.1350786 0.1321459 0.1295357
 0.1273291 0.1255412 0.1241752 0.1232534 0.1228762 0.122677 0.1208075 0.1148669 0.1056012 0.09861337
 0.09967183 0.1082273 0.1177785 0.1227486 0.1229357 0.1212689 0.1197952 0.1188415 0.1183086 0.1183257
 0.1190026 0.1201934 0.1215239 0.1226028 0.1232605 0.1235343 0.1233982 0.1225071 0.1201147 0.1153397
 0.1078895 0.09866355 0.08942685 0.08177376 0.07642208 0.07324776 0.0716335 0.07082086 0.07028389 0.06997943
 0.07022779 0.07132356 0.07328229 0.0759311 0.0790935 0.08254801 0.08589953 0.08872939 0.09091242 0.09262579
 0.09402516 0.09505892 0.0956084 0.09566316 0.09532127 0.09471472 0.09396882 0.09316399 0.09228127 0.0912239
 0.08997902 0.08875793 0.08787163 0.08743891 0.08731323 0.08730024 0.08731797 0.08733928 0.08732739 0.08726993
 0.08719848 0.08717425 0.08728769 0.08760783 0.08808508 0.08855687 0.08887951 0.08903231 0.08909339 0.08910021
 0.08892293 0.08838053 0.08755618 0.08681543 0.0863331 0.08578844 0.0847908 0.08348733 0.08247835 0.08217156
 0.08242345 0.08278565 0.08291487 0.08274002 0.08243088 0.08230416 0.08261019 0.08324544 0.08374998 0.08373924
</values></Ydata></ScRf><Data_Parameters_AB><parameter name="DPF">1</parameter><parameter name="NPT">3497</parameter><parameter name="FXV">3996</parameter><parameter name="LXV">500</parameter><parameter name="CSF">1</parameter><parameter name="MXY">0.0220926553010941</parameter><parameter name="MNY">-0.0840910896658897</parameter><parameter name="DAT">30/05/2022</parameter><parameter name="TIM">11:32:01.243 (GMT+2)</parameter><parameter name="DXU">WN</parameter></Data_Parameters_AB><AB__Qtest><MainReport name="Quality Test Report"><Header><Line><Legend>Test result ok/not ok [1/0]: </Legend><Value>0</Value></Line><Line><Legend>Method file: </Legend><Value>C:\Users\Public\Documents\Bruker\OPUS_8.2.28\QT\IRBT_v3_default.QT</Value></Line></Header><Matrix><Line><Legend></Legend><Legend>min</Legend><Legend>max</Legend><Legend>measured</Legend></Line><Line><Value>Absorption (X-Range 1):</Value><Value>0.400000</Value><Value>2.000000</Value><Value>0.061259</Value></Line><Line><Value>Noise (X-Range 4):</Value><Value></Value><Value>0.000300</Value><Value>0.000051</Value></Line><Line><Value>Signal/Noise (X-Range 2):</Value><Value>200.000000</Value><Value></Value><Value>16.747889</Value></Line><Line><Value>Signal/Noise (X-Range 3):</Value><Value>40.000000</Value><Value></Value><Value>9.438494</Value></Line><Line><Value>Water vapour (X-Range 5):</Value><Value></Value><Value>0.000300</Value><Value>0.000027</Value></Line><Line><Value>Signal/Water (X-Range 2):</Value><Value>100.000000</Value><Value></Value><Value>32.127164</Value></Line><Line><Value>Signal/Water (X-Range 3):</Value><Value>20.000000</Value><Value></Value><Value>18.105688</Value></Line><Line><Value>Fringes (X-Range 6):</Value><Value></Value><Value>0.000100</Value><Value>0.000049</Value></Line></Matrix></MainReport></AB__Qtest><Data_Parameters_ScSm><parameter name="DPF">1</parameter><parameter name="NPT">1814</parameter><parameter name="FXV">3996.33169228125</parameter><parameter name="LXV">499.541461535156</parameter><parameter name="CSF">1</parameter><parameter name="MXY">0.274108350276947</parameter><parameter name="MNY">0.0368759334087372</parameter><parameter name="DAT">30/05/2022</parameter><parameter name="TIM">11:32:01.243 (GMT+2)</parameter><parameter name="DXU">WN</parameter></Data_Parameters_ScSm><Data_Parameters_ScRf><parameter name="DPF">1</parameter><parameter name="NPT">1820</parameter><parameter name="FXV">4004.04661832813</parameter><parameter name="LXV">495.683998511719</parameter><parameter name="CSF">1</parameter><parameter name="MXY">0.264595508575439</parameter><parameter name="MNY">0.0320455580949783</parameter><parameter name="DAT">30/05/2022</parameter><parameter name="TIM">11:31:35.622 (GMT+2)</parameter><parameter name="DXU">WN</parameter></Data_Parameters_ScRf><Optic_Parameters_Rf><parameter name="APR">0</parameter><parameter name="APT">Open</parameter><parameter name="BMS">KBr</parameter><parameter name="DTC">RT-DLaTGS_IR-Biotyper [Microplate reader]</parameter><parameter name="HPF">0</parameter><parameter name="LPF">10.0</parameter><parameter name="LPV">4000</parameter><parameter name="PGR">0</parameter><parameter name="RCH">Module port</parameter><parameter name="RDX">0</parameter><parameter name="SRC">MIR</parameter><parameter name="VEL">10.0</parameter><parameter name="SON">Off</parameter></Optic_Parameters_Rf><Acquisition_Parameters_Rf><parameter name="ADT">1</parameter><parameter name="AQM">DD</parameter><parameter name="CFE">0</parameter><parameter name="COR">0</parameter><parameter name="DEL">0</parameter><parameter name="DLY">0</parameter><parameter name="HFW">8000</parameter><parameter name="LFW">0</parameter><parameter name="NSR">32</parameter><parameter name="PLF">AB</parameter><parameter name="RES">6</parameter><parameter name="RGN">-1</parameter><parameter name="STR">0</parameter><parameter name="TCL">MakeCompatibleScalar (0, {WSV=1.000000, ARV=0});</parameter><parameter name="TDL">37</parameter><parameter name="RPO">0</parameter></Acquisition_Parameters_Rf><FT_-_Parameters_Rf><parameter name="APF">B3</parameter><parameter name="HFQ">500</parameter><parameter name="LFQ">4000</parameter><parameter name="NLI">0</parameter><parameter name="PHR">24</parameter><parameter name="PHZ">ML</parameter><parameter name="SPZ">NO</parameter><parameter name="ZFF">1</parameter></FT_-_Parameters_Rf><Optic_Parameters_><parameter name="APR">0</parameter><parameter name="APT">Open</parameter><parameter name="BMS">KBr</parameter><parameter name="CHN">Module port</parameter><parameter name="DTC">RT-DLaTGS_IR-Biotyper [Microplate reader]</parameter><parameter name="HPF">0</parameter><parameter name="LPF">10.0</parameter><parameter name="LPV">4000</parameter><parameter name="PGN">0</parameter><parameter name="RDX">0</parameter><parameter name="SRC">MIR</parameter><parameter name="VEL">10.0</parameter><parameter name="SON">Off</parameter></Optic_Parameters_><FT_-_Parameters_><parameter name="APF">B3</parameter><parameter name="HFQ">500</parameter><parameter name="LFQ">4000</parameter><parameter name="NLI">0</parameter><parameter name="PHR">24</parameter><parameter name="PHZ">ML</parameter><parameter name="SPZ">NO</parameter><parameter name="ZFF">1</parameter></FT_-_Parameters_><Acquisition_Parameters_><parameter name="ADT">1</parameter><parameter name="AQM">DD</parameter><parameter name="CFE">0</parameter><parameter name="COR">0</parameter><parameter name="DEL">0</parameter><parameter name="DLY">0</parameter><parameter name="HFW">8000</parameter><parameter name="LFW">0</parameter><parameter name="NSS">32</parameter><parameter name="PLF">AB</parameter><parameter name="RES">6</parameter><parameter name="SOT">0</parameter><parameter name="TCL">MakeCompatibleScalar (0, {WSV=1.000000, ARV=0});</parameter><parameter name="TDL">37</parameter><parameter name="SPO">0</parameter><parameter name="SGN">-1</parameter></Acquisition_Parameters_><Instrument_Parameters_Rf><parameter name="HFL">15800.168544</parameter><parameter name="LFL">0</parameter><parameter name="LWN">15800.168544</parameter><parameter name="ABP">32197</parameter><parameter name="SSP">1</parameter><parameter name="ARG">2</parameter><parameter name="ASG">2</parameter><parameter name="ASS">32</parameter><parameter name="GFW">16</parameter><parameter name="GBW">16</parameter><parameter name="BFW">0</parameter><parameter name="BBW">0</parameter><parameter name="PKA">7310</parameter><parameter name="PKL">4990</parameter><parameter name="PRA">7471</parameter><parameter name="PRL">5001</parameter><parameter name="P2A">1</parameter><parameter name="P2L">1</parameter><parameter name="P2R">1</parameter><parameter name="P2K">1</parameter><parameter name="DAQ">0</parameter><parameter name="AG2">1</parameter><parameter name="SSM">1</parameter><parameter name="RSN">25216</parameter><parameter name="CRR">0</parameter><parameter name="SRT">1653910295.623</parameter><parameter name="DUR">19.6369934082031</parameter><parameter name="TSC">28.1</parameter><parameter name="MVD">7.75487947463989</parameter><parameter name="AN1">0.225799853141946</parameter><parameter name="AN2">0</parameter><parameter name="VSN">2.485 Apr  4 2017</parameter><parameter name="SRN">0085</parameter><parameter name="CAM">0</parameter><parameter name="INS">IR-Biotyper</parameter><parameter name="FOC">69</parameter><parameter name="RDY">1</parameter><parameter name="ARS">32</parameter></Instrument_Parameters_Rf><Sample_Parameters_><parameter name="BLD"></parameter><parameter name="CNM">Admin</parameter><parameter name="CPY"></parameter><parameter name="DPM"></parameter><parameter name="EXP">IRBT_v3_32Scans.XPM</parameter><parameter name="LCT"></parameter><parameter name="SFM">Microplate, HTS-XT</parameter><parameter name="SNM">220530-1021_GFG29M (D_12)_G4_3c476181-9fa1-4a8d-a87a-43ebcfcd6f17.0</parameter><parameter name="XPP">C:\Users\Public\Documents\Bruker\OPUS_8.2.28\XPM</parameter><parameter name="IST">OK</parameter><parameter name="CPG">1252</parameter><parameter name="UID">2052b6e6-b8f6-4108-932c-3ae6c3211b36</parameter></Sample_Parameters_><Instrument_Parameters_><parameter name="HFL">15800.168544</parameter><parameter name="LFL">0</parameter><parameter name="LWN">15800.168544</parameter><parameter name="ABP">32197</parameter><parameter name="SSP">1</parameter><parameter name="ASG">2</parameter><parameter name="ARG">2</parameter><parameter name="ASS">32</parameter><parameter name="GFW">16</parameter><parameter name="GBW">16</parameter><parameter name="BFW">0</parameter><parameter name="BBW">0</parameter><parameter name="PKA">7891</parameter><parameter name="PKL">4990</parameter><parameter name="PRA">8173</parameter><parameter name="PRL">4993</parameter><parameter name="P2A">1</parameter><parameter name="P2L">1</parameter><parameter name="P2R">1</parameter><parameter name="P2K">1</parameter><parameter name="DAQ">0</parameter><parameter name="AG2">1</parameter><parameter name="SSM">1</parameter><parameter name="RSN">13234</parameter><parameter name="CRR">0</parameter><parameter name="SRT">1653910321.243</parameter><parameter name="DUR">19.6379852294922</parameter><parameter name="TSC">28.1</parameter><parameter name="MVD">0.261621385812759</parameter><parameter name="AN1">0.225811895427982</parameter><parameter name="AN2">0</parameter><parameter name="VSN">2.485 Apr  4 2017</parameter><parameter name="SRN">0085</parameter><parameter name="CAM">0</parameter><parameter name="INS">IR-Biotyper</parameter><parameter name="FOC">69</parameter><parameter name="RDY">1</parameter></Instrument_Parameters_><History/></OPUSDataFile>
