<?xml version="1.0" encoding="UTF-8" ?>
<OPUSDataFile><AB><Ydata ylabel="Absorbance Units"><values byteorder="INTEL" format="FLOAT32" numvalues="3497"> -0.07868452 -0.07867611 -0.0786548 -0.07862084 -0.0785701 -0.07850236 -0.07841523 -0.0783096 -0.07819536 -0.07807489
 -0.07796767 -0.07787417 -0.07780734 -0.07776403 -0.07774319 -0.0777422 -0.07775551 -0.07778405 -0.07782768 -0.07788459
 -0.07795623 -0.0780314 -0.07810598 -0.07816672 -0.07820623 -0.07822451 -0.07821792 -0.07820193 -0.07817801 -0.07816114
 -0.0781534 -0.07815672 -0.07817128 -0.07818847 -0.07820798 -0.07822353 -0.07823589 -0.0782464 -0.07825588 -0.07826845
 -0.07828327 -0.07830071 -0.07831932 -0.07833673 -0.07835262 -0.07836507 -0.0783762 -0.0783864 -0.07839958 -0.07841841
 -0.07844379 -0.07847876 -0.07851358 -0.07854814 -0.07856475 -0.0785598 -0.07852714 -0.07846435 -0.07839001 -0.07830501
 -0.07823957 -0.07819425 -0.0781847 -0.07820743 -0.07825 -0.07830785 -0.07835681 -0.07839775 -0.07841942 -0.0784279
 -0.07842816 -0.07842513 -0.07842757 -0.07843424 -0.07844862 -0.07846329 -0.07847571 -0.07847829 -0.07846657 -0.07844097
 -0.07839885 -0.07835261 -0.07830258 -0.07826795 -0.07825049 -0.07826569 -0.07831456 -0.07839923 -0.07851829 -0.0786541
 -0.07880198 -0.07892503 -0.0790194 -0.07904789 -0.07901787 -0.0789244 -0.07878612 -0.07863172 -0.07847475 -0.07834373
 -0.07823942 -0.0781741 -0.07813658 -0.0781262 -0.07812507 -0.07812559 -0.0781194 -0.07810028 -0.07808025 -0.07805922
 -0.07805692 -0.07807618 -0.07811905 -0.07818597 -0.07825547 -0.07832673 -0.07838233 -0.07842498 -0.07846311 -0.07849966
 -0.07855254 -0.07861692 -0.07869251 -0.07876752 -0.07881995 -0.07884752 -0.07883449 -0.07879578 -0.0787385 -0.07867374
 -0.07861134 -0.07855015 -0.07848924 -0.07843783 -0.0783943 -0.07838671 -0.07841935 -0.0785142 -0.07867715 -0.07888144
 -0.07912659 -0.07929453 -0.07938081 -0.0792871 -0.07903397 -0.07870708 -0.07832497 -0.07800665 -0.07774527 -0.07758322
 -0.07750748 -0.07751893 -0.07759615 -0.07771978 -0.07785757 -0.07797655 -0.07805835 -0.07807607 -0.07805289 -0.07798772
 -0.07791899 -0.07785908 -0.07781802 -0.0778012 -0.07779649 -0.07780295 -0.07781413 -0.0778295 -0.0778534 -0.07788602
 -0.07793173 -0.07798948 -0.07805593 -0.07812724 -0.07818871 -0.0782339 -0.078238 -0.07820066 -0.0781047 -0.07796726
 -0.07779788 -0.07762349 -0.07746956 -0.07735269 -0.07729176 -0.07728397 -0.07733659 -0.07742605 -0.07755126 -0.07767427
 -0.07778878 -0.0778669 -0.07790374 -0.07790021 -0.07785596 -0.07778493 -0.07768742 -0.07756899 -0.07742974 -0.07727162
 -0.07709754 -0.0769186 -0.07674009 -0.07658125 -0.07644459 -0.07634506 -0.07627769 -0.07624491 -0.07623383 -0.07623565
 -0.07623737 -0.07622758 -0.07620499 -0.07616433 -0.0761167 -0.07606304 -0.07601754 -0.07598267 -0.07596825 -0.0759759
 -0.07600825 -0.07606574 -0.07613816 -0.07622392 -0.07629536 -0.07635055 -0.07635963 -0.07632776 -0.07625644 -0.07615755
 -0.07606381 -0.07597946 -0.07593024 -0.07590634 -0.07590698 -0.07591964 -0.07592949 -0.07594183 -0.07595102 -0.07598082
 -0.07604053 -0.07614195 -0.0762959 -0.07647577 -0.07668251 -0.07686542 -0.07701944 -0.07710709 -0.07712581 -0.07704548
 -0.07686607 -0.07658031 -0.07619851 -0.07578672 -0.07535823 -0.07500432 -0.07472283 -0.07455886 -0.07449342 -0.07452052
 -0.07460415 -0.07469725 -0.07477581 -0.0747942 -0.07477339 -0.07470979 -0.07463662 -0.07456967 -0.07451675 -0.07448728
 -0.07445905 -0.07443083 -0.07437467 -0.07428568 -0.07416518 -0.07401242 -0.07385858 -0.07370542 -0.07358643 -0.07350068
 -0.07346097 -0.07345896 -0.07347134 -0.07348383 -0.07344169 -0.07335006 -0.07318546 -0.07297803 -0.07275992 -0.07254254
 -0.07235233 -0.07217354 -0.07200348 -0.07183041 -0.07164497 -0.07145765 -0.07126876 -0.07109216 -0.07093238 -0.07078432
 -0.07064937 -0.07050515 -0.07035048 -0.07015794 -0.0699273 -0.06965344 -0.06934169 -0.06902933 -0.06871903 -0.06844451
 -0.06819791 -0.06797436 -0.06776875 -0.06756856 -0.06737444 -0.06718432 -0.06699324 -0.06679901 -0.06658863 -0.06635353
 -0.06608599 -0.06578162 -0.0654338 -0.06504175 -0.06459106 -0.06407622 -0.06350694 -0.06288108 -0.06223892 -0.06158306
 -0.06093939 -0.06030845 -0.05969554 -0.05910186 -0.05853994 -0.05801037 -0.0575266 -0.0570794 -0.05665309 -0.05623406
 -0.05578865 -0.05531272 -0.05478864 -0.05421285 -0.05357705 -0.0528776 -0.05210024 -0.05128024 -0.05042358 -0.04958006
 -0.04877164 -0.04799315 -0.04725076 -0.04650791 -0.04576064 -0.0449869 -0.0441843 -0.04336314 -0.04252533 -0.0417127
 -0.04092677 -0.04020559 -0.03953585 -0.03889006 -0.03823733 -0.03746881 -0.03659048 -0.03553914 -0.03439554 -0.03324516
 -0.03213106 -0.03114036 -0.03022738 -0.02939361 -0.02857773 -0.02774921 -0.02688961 -0.02598097 -0.02505459 -0.02411323
 -0.02318576 -0.0222793 -0.02137392 -0.02046968 -0.01951286 -0.01850211 -0.01741513 -0.01625959 -0.01508466 -0.01389833
 -0.01276397 -0.01167629 -0.01065401 -0.009686712 -0.008764052 -0.007876949 -0.007011109 -0.006155936 -0.00529565 -0.00442875
 -0.003548013 -0.002661776 -0.001778915 -0.0008763533 4.259507E-05 0.001040261 0.002133156 0.00333085 0.0046464 0.005968117
 0.007289828 0.008499174 0.009595078 0.01058824 0.01148801 0.01237399 0.01324887 0.01416971 0.01512521 0.01611551
 0.01712378 0.01811416 0.01908646 0.02001723 0.02093621 0.0218589 0.02282046 0.02385644 0.02495474 0.02612926
 0.02731931 0.02850848 0.029661 0.03076309 0.03182561 0.0328471 0.03385112 0.03483912 0.03583204 0.03683055
 0.03784408 0.03887106 0.03990226 0.04093701 0.04196548 0.04299232 0.04402654 0.04507034 0.04613576 0.04721332
 0.0482963 0.04937341 0.05042937 0.05146541 0.05247576 0.05347119 0.05445476 0.05543568 0.0564185 0.05740235
 0.05838887 0.05936841 0.06033944 0.06129991 0.06224908 0.06320126 0.06415696 0.06512498 0.06610343 0.06707945
 0.06805198 0.06900793 0.06995109 0.07088644 0.07181555 0.07274529 0.07367179 0.07459202 0.07550432 0.07640475
 0.07729691 0.07818133 0.07906321 0.0799444 0.08083074 0.0817243 0.08262891 0.08354651 0.08447322 0.08540927
 0.08634658 0.08728474 0.08821439 0.08913476 0.09002911 0.09089674 0.09172248 0.09250984 0.09326561 0.09399614
 0.09472431 0.09545188 0.09619408 0.09694736 0.09771337 0.09848782 0.09926777 0.1000484 0.1008251 0.1015974
 0.1023628 0.1031271 0.1038937 0.1046561 0.1054167 0.1061475 0.1068441 0.1074978 0.1081059 0.1087135
 0.1093232 0.1099927 0.1107192 0.1115054 0.1123386 0.1131607 0.1139622 0.1146809 0.1153267 0.1158836
 0.116381 0.1168528 0.1173223 0.1178305 0.1183676 0.1189435 0.1195307 0.1201157 0.1206949 0.1212611
 0.1218333 0.122415 0.1230142 0.1236334 0.124266 0.1249117 0.1255645 0.1262241 0.1268824 0.127539
 0.1281864 0.1288277 0.1294737 0.1301267 0.1308035 0.1314938 0.1321875 0.1328689 0.1335084 0.1341054
 0.1346456 0.1351428 0.1356028 0.1360349 0.1364459 0.1368374 0.1372099 0.1375697 0.1379166 0.1382644
 0.1386144 0.1389795 0.1393608 0.1397649 0.140192 0.1406448 0.1411234 0.1416308 0.1421653 0.1427233
 0.1432977 0.1438664 0.1444204 0.1449277 0.1453921 0.1457998 0.1461735 0.1465284 0.1468886 0.1472796
 0.1476999 0.1481624 0.148632 0.1491034 0.1495354 0.1499147 0.1502397 0.1505046 0.1507542 0.1509919
 0.1512475 0.1515211 0.1517752 0.1520057 0.1521535 0.1522265 0.1522261 0.1521731 0.1521322 0.1521164
 0.1521889 0.152339 0.1525845 0.1528935 0.1532436 0.1536001 0.1539272 0.1542223 0.1544647 0.154703
 0.1549456 0.1552442 0.1556199 0.1560507 0.1565439 0.1570036 0.1574231 0.1577235 0.1579026 0.1579742
 0.1579456 0.1578956 0.1578265 0.1577928 0.1577845 0.1577957 0.1578247 0.1578581 0.1579157 0.1580227
 0.1581867 0.1584376 0.1587344 0.1590647 0.1593725 0.1596193 0.1598065 0.1599162 0.1600086 0.1600928
 0.1602177 0.1603951 0.1606167 0.1608844 0.1611501 0.1614112 0.1616169 0.1617669 0.1618371 0.161835
 0.1617817 0.1616925 0.1616261 0.1615947 0.1616574 0.1618047 0.1620573 0.162377 0.162738 0.163095
 0.1634035 0.1636548 0.163823 0.1639535 0.1640515 0.1641739 0.1643365 0.1645595 0.1648492 0.1652009
 0.1656141 0.166098 0.1666529 0.1672873 0.1679956 0.168732 0.1694803 0.1701335 0.1706824 0.1710318
 0.1712066 0.1712003 0.1710737 0.1709097 0.1707637 0.1707339 0.1708145 0.1710486 0.1713585 0.171727
 0.1720561 0.1723077 0.1724303 0.1723979 0.1722351 0.171936 0.1715789 0.1711691 0.1707815 0.1704194
 0.1701057 0.1698377 0.169594 0.1693737 0.1691585 0.168955 0.1687753 0.1686244 0.1685257 0.1684633
 0.1684347 0.1683931 0.1682951 0.1680881 0.1677131 0.1671685 0.1664215 0.1655501 0.1645633 0.1635691
 0.1625944 0.1617008 0.1609045 0.1602034 0.1596001 0.1590603 0.1585822 0.1581177 0.1576643 0.1571748
 0.1566536 0.1560948 0.1555127 0.154954 0.1544213 0.1539526 0.153519 0.1530966 0.152651 0.1521272
 0.1515356 0.1508524 0.1501415 0.1494228 0.1487652 0.1482019 0.1477482 0.1474238 0.1471678 0.1469805
 0.1467572 0.1464884 0.146103 0.1455977 0.1449946 0.1443009 0.1436069 0.1429171 0.1423054 0.1417626
 0.1412984 0.1408979 0.1405315 0.1401915 0.1398526 0.1395142 0.1391674 0.1388103 0.1384406 0.1380521
 0.13764 0.1372043 0.1367404 0.1362662 0.1357826 0.1353175 0.1348761 0.1344687 0.134098 0.1337441
 0.1334059 0.1330545 0.1326898 0.1322997 0.1318862 0.1314544 0.1310065 0.1305526 0.1300955 0.1296464
 0.1292073 0.1287888 0.1283838 0.1279925 0.1275973 0.1271853 0.1267439 0.1262591 0.1257427 0.125192
 0.1246354 0.1240794 0.1235412 0.1230259 0.1225283 0.1220487 0.1215761 0.12111 0.1206479 0.1201898
 0.1197371 0.1192892 0.1188433 0.1183986 0.1179502 0.1174975 0.1170368 0.1165682 0.1160903 0.1156049
 0.1151124 0.1146173 0.1141214 0.1136338 0.1131565 0.1127078 0.1122938 0.1119297 0.1116254 0.1113602
 0.1111381 0.1108914 0.110615 0.110244 0.1097747 0.1092078 0.108549 0.1078682 0.1071739 0.1065517
 0.1060001 0.1055655 0.1052275 0.104969 0.104755 0.1045212 0.1042468 0.1038742 0.1034292 0.1029037
 0.1023563 0.1018182 0.1013177 0.1008796 0.100477 0.100108 0.0997472 0.09938493 0.09905051 0.09874392
 0.09852009 0.0983819 0.09833729 0.09838072 0.09844647 0.09852419 0.09851814 0.09842854 0.09819842 0.09784976
 0.09739988 0.09688216 0.09636057 0.09584881 0.09539418 0.09497526 0.0945916 0.09421946 0.0938383 0.09346376
 0.09309244 0.09276074 0.09248137 0.09225314 0.09208208 0.0919254 0.09177899 0.09162008 0.09144724 0.09128601
 0.0911378 0.09103011 0.09095858 0.09091152 0.09088298 0.09084383 0.09079604 0.09072912 0.09064872 0.09056214
 0.09046569 0.09036273 0.09023457 0.09007189 0.08984718 0.08954247 0.08914407 0.08863459 0.08804701 0.0873762
 0.08670661 0.08604807 0.08548333 0.08502463 0.08467886 0.08444718 0.08424825 0.0840764 0.08383292 0.08352122
 0.08310696 0.08260765 0.08206635 0.08149981 0.08097243 0.08048347 0.08006442 0.07969777 0.07937746 0.07908249
 0.07879452 0.07849968 0.0781834 0.07784806 0.07748707 0.07712458 0.07676379 0.07643265 0.07613979 0.07587471
 0.0756405 0.07537855 0.07508568 0.07471427 0.07426684 0.07376806 0.07322687 0.07271456 0.07222857 0.07180244
 0.07141705 0.0710407 0.07066377 0.07024818 0.06981374 0.06936588 0.06893137 0.06853826 0.06818686 0.06788838
 0.06762438 0.06738794 0.06717619 0.06698436 0.06682881 0.06671266 0.06664041 0.0666151 0.06660733 0.06661575
 0.06658711 0.06651911 0.06636629 0.0661323 0.06581259 0.06542064 0.06500097 0.06456968 0.06418935 0.06386524
 0.06363729 0.06349546 0.06344555 0.06347064 0.06355955 0.06369841 0.0638762 0.0640871 0.06432599 0.06459331
 0.06488825 0.06521202 0.06556407 0.06594918 0.06636617 0.06683908 0.06736901 0.06800286 0.06874251 0.06962654
 0.07065021 0.07180599 0.07308147 0.07442688 0.07583237 0.07724662 0.07867169 0.08008593 0.08150059 0.08291984
 0.08435536 0.08581702 0.08731555 0.08885628 0.09045756 0.09212491 0.09388195 0.09573845 0.09769514 0.09975991
 0.101883 0.104064 0.1062157 0.1083331 0.1103295 0.1122006 0.1138738 0.1153445 0.1165454 0.1174779
 0.1181002 0.118442 0.1185383 0.1184601 0.1183323 0.1182398 0.1183343 0.1186593 0.1193123 0.1202663
 0.121542 0.1230702 0.1248316 0.1267633 0.1288456 0.1310394 0.1333348 0.1357124 0.1381677 0.1407044
 0.143322 0.1460457 0.148877 0.1518436 0.154946 0.1582015 0.1616095 0.1651788 0.1689039 0.1727841
 0.176791 0.1809038 0.1850182 0.1890672 0.1927671 0.1959521 0.1981184 0.1989693 0.1980516 0.1950391
 0.1900434 0.1829022 0.1744797 0.1648297 0.1551084 0.145442 0.1366331 0.1287435 0.1219646 0.116283
 0.1114703 0.1074953 0.1040422 0.1010978 0.09844676 0.09608603 0.09390427 0.09189382 0.08999243 0.08819349
 0.0864617 0.08480492 0.08321511 0.08171148 0.0803034 0.07900304 0.07781908 0.07674991 0.07579628 0.07495749
 0.07423192 0.07363099 0.07315516 0.07282145 0.07263117 0.07258798 0.07269006 0.07290864 0.07323567 0.07360384
 0.07400297 0.07435404 0.07465872 0.07487464 0.07502458 0.075124 0.07520787 0.07532214 0.07550045 0.07578214
 0.07620108 0.07678068 0.07756475 0.07856608 0.07985274 0.08143202 0.08341976 0.08583235 0.08879451 0.09233878
 0.09636856 0.1008913 0.1052614 0.1094172 0.1122077 0.1135911 0.1126379 0.10951 0.104279 0.09729771
 0.08950466 0.08118945 0.07333098 0.06597587 0.05960399 0.05406747 0.04941122 0.04544632 0.04207373 0.03916113
 0.03663471 0.03441449 0.03246919 0.03073721 0.02920469 0.02782475 0.02659081 0.02547401 0.02447218 0.02356337
 0.02274606 0.02199351 0.02130361 0.02064794 0.02002604 0.0194196 0.01883204 0.01826216 0.01771554 0.0172033
 0.01672491 0.01628823 0.01587911 0.01549093 0.01510265 0.01469786 0.01427079 0.01380941 0.01333845 0.01285893
 0.01240954 0.01199906 0.01164279 0.01134642 0.0110828 0.01085099 0.01060624 0.01034749 0.01005756 0.009740477
 0.00941892 0.009095369 0.008795801 0.008511686 0.008235062 0.007953157 0.00763466 0.007282963 0.006883585 0.006461231
 0.006030416 0.005617789 0.005245339 0.004922173 0.004660026 0.004448857 0.004291562 0.004161059 0.004055916 0.003934948
 0.00379349 0.003599831 0.003350758 0.003054325 0.002712429 0.002366883 0.002019776 0.001707489 0.001426867 0.001184723
 0.0009753387 0.0007866523 0.0006150706 0.0004482785 0.0002851531 0.0001188812 -4.914958E-05 -0.0002211375 -0.0003917385 -0.0005593395
 -0.0007161221 -0.0008575768 -0.0009822719 -0.001086225 -0.001183524 -0.001274088 -0.001383532 -0.001515194 -0.001683571 -0.001890573
 -0.002121072 -0.002373503 -0.002613764 -0.002841113 -0.003032616 -0.003192419 -0.003324899 -0.003436663 -0.003548872 -0.00366363
 -0.003797212 -0.003942387 -0.004097999 -0.004252281 -0.004391897 -0.004516486 -0.004617054 -0.004713754 -0.004810807 -0.004932983
 -0.005090575 -0.005287112 -0.005527867 -0.005791639 -0.006077336 -0.006359821 -0.006637094 -0.00689757 -0.007141119 -0.0073694
 -0.007583083 -0.007787857 -0.007984262 -0.008177281 -0.008367685 -0.008560153 -0.008755169 -0.008956763 -0.009162484 -0.009371776
 -0.009579335 -0.009779852 -0.009970567 -0.01014684 -0.01031274 -0.01046856 -0.01061948 -0.0107677 -0.01091326 -0.01105665
 -0.01119614 -0.01133115 -0.01146518 -0.01159836 -0.01173598 -0.01187808 -0.01202389 -0.01217218 -0.01231274 -0.01244417
 -0.01255366 -0.01264319 -0.01270945 -0.0127605 -0.01280906 -0.01286474 -0.01294716 -0.01305745 -0.01320631 -0.0133832
 -0.01358579 -0.01380086 -0.01402182 -0.01424163 -0.01445685 -0.01466473 -0.01486439 -0.01505357 -0.01523169 -0.01539931
 -0.01555626 -0.01570847 -0.01585625 -0.01600552 -0.01615578 -0.01630564 -0.01645396 -0.01659432 -0.01672708 -0.01684934
 -0.0169635 -0.01707304 -0.01717958 -0.01728704 -0.01739532 -0.01750536 -0.01761779 -0.01773312 -0.01785225 -0.01797642
 -0.01810314 -0.01823214 -0.0183602 -0.01848576 -0.0186126 -0.0187405 -0.0188782 -0.01902649 -0.01918747 -0.01936089
 -0.01953802 -0.01971814 -0.01989071 -0.02005645 -0.0202126 -0.02036131 -0.02050752 -0.0206524 -0.02080161 -0.02095265
 -0.02110543 -0.02125473 -0.02139497 -0.02152448 -0.02163853 -0.02174417 -0.0218424 -0.0219431 -0.02205026 -0.02216616
 -0.02229298 -0.02242387 -0.02255842 -0.02268926 -0.0228157 -0.02293599 -0.02305015 -0.02316057 -0.02326768 -0.02337609
 -0.02348633 -0.02360376 -0.02372773 -0.02386031 -0.02399795 -0.02413514 -0.02426758 -0.02438561 -0.02449088 -0.02457917
 -0.02466034 -0.02473908 -0.02482468 -0.02492417 -0.02503585 -0.02516227 -0.02529242 -0.02542472 -0.02554945 -0.0256647
 -0.02576926 -0.02586267 -0.02595053 -0.02603316 -0.02611737 -0.02620304 -0.02629217 -0.0263839 -0.02647508 -0.02656536
 -0.0266517 -0.02673507 -0.02681605 -0.02689533 -0.02697481 -0.02705278 -0.02712848 -0.02719968 -0.02726422 -0.02732225
 -0.02737257 -0.02741876 -0.02746129 -0.0275049 -0.02755073 -0.02760134 -0.02765767 -0.02771676 -0.02777862 -0.02783668
 -0.02789068 -0.0279377 -0.02797832 -0.02801676 -0.02805354 -0.02809387 -0.02813673 -0.02818198 -0.02822797 -0.02827077
 -0.02831063 -0.02834566 -0.02837811 -0.0284094 -0.02844164 -0.02847705 -0.02851558 -0.02855844 -0.02860247 -0.02864766
 -0.0286879 -0.02872208 -0.02874486 -0.02875477 -0.02875421 -0.02874282 -0.02873276 -0.0287247 -0.0287321 -0.02875477
 -0.02879679 -0.02885648 -0.02892794 -0.02900959 -0.02909335 -0.02917914 -0.02926296 -0.02934535 -0.02942567 -0.02950375
 -0.02957953 -0.02965189 -0.02972031 -0.02978315 -0.02983954 -0.02988846 -0.02992907 -0.02996256 -0.02998859 -0.03001113
 -0.03003052 -0.03005125 -0.03007378 -0.03009957 -0.03012863 -0.03015871 -0.03018983 -0.03022087 -0.03025266 -0.03028888
 -0.03032998 -0.03037994 -0.03043707 -0.0305002 -0.03056665 -0.03063161 -0.03069462 -0.03075336 -0.03080856 -0.03086048
 -0.03090836 -0.03095179 -0.03099058 -0.03102394 -0.03105502 -0.0310842 -0.03111479 -0.03114754 -0.03118207 -0.03121842
 -0.03125565 -0.03129379 -0.03133489 -0.03137909 -0.03142886 -0.03148367 -0.03154243 -0.03160398 -0.03166426 -0.03172229
 -0.03177385 -0.0318191 -0.03185602 -0.03188641 -0.03191099 -0.03193237 -0.03195259 -0.03197323 -0.03199553 -0.03202029
 -0.03204788 -0.03207925 -0.03211468 -0.03215458 -0.03219921 -0.0322471 -0.03229827 -0.03234952 -0.03240069 -0.03244753
 -0.03248995 -0.03252487 -0.03255323 -0.03257778 -0.03260044 -0.03262918 -0.03266419 -0.03271103 -0.03276592 -0.03282616
 -0.03288706 -0.0329422 -0.03299066 -0.03302899 -0.03306042 -0.03308544 -0.03310775 -0.03312887 -0.03315012 -0.03317195
 -0.03319536 -0.03322018 -0.03325034 -0.03328605 -0.03333246 -0.03338977 -0.03345771 -0.03353548 -0.03361486 -0.03369466
 -0.03376402 -0.03382313 -0.03386621 -0.03389573 -0.03391328 -0.0339234 -0.03393329 -0.03394683 -0.03397179 -0.03400667
 -0.03405397 -0.0341074 -0.03416419 -0.03422095 -0.03427498 -0.03432941 -0.03438463 -0.03444245 -0.03450386 -0.03456354
 -0.03462118 -0.03467143 -0.03471408 -0.03475133 -0.03478381 -0.034819 -0.03485764 -0.03490708 -0.03496863 -0.0350498
 -0.03515285 -0.03528619 -0.03545156 -0.03565556 -0.0358979 -0.03618089 -0.03650324 -0.03686437 -0.03726437 -0.03770258
 -0.03818129 -0.03870103 -0.0392639 -0.03987011 -0.0405229 -0.04122211 -0.04197593 -0.04278528 -0.04365491 -0.04458458
 -0.04553597 -0.04649995 -0.04736537 -0.04811809 -0.04861912 -0.0488712 -0.04880254 -0.0484409 -0.04780087 -0.04693696
 -0.04592441 -0.04484343 -0.04380502 -0.04286679 -0.04210944 -0.04154401 -0.04119885 -0.04105984 -0.04113459 -0.04137943
 -0.04179918 -0.04228227 -0.04282046 -0.04326742 -0.04360563 -0.0438005 -0.04385038 -0.04383471 -0.04375643 -0.04367348
 -0.04358247 -0.04349309 -0.04340354 -0.04331323 -0.04322204 -0.04313073 -0.04303628 -0.04293533 -0.04282254 -0.04269067
 -0.04253684 -0.04235558 -0.04214955 -0.04191697 -0.04166733 -0.04140154 -0.04113557 -0.04087146 -0.04063058 -0.04041624
 -0.04024418 -0.04011718 -0.04002813 -0.0399766 -0.03993248 -0.03989452 -0.03983746 -0.03976416 -0.03967676 -0.03958035
 -0.03949396 -0.03941916 -0.03937002 -0.03934292 -0.03933953 -0.03935277 -0.0393764 -0.03940272 -0.03942355 -0.03943585
 -0.03943456 -0.03942437 -0.03940502 -0.0393845 -0.03936456 -0.03935101 -0.039345 -0.03934974 -0.03936571 -0.03939413
 -0.03943507 -0.03948558 -0.03954519 -0.03960729 -0.0396714 -0.03973136 -0.03978743 -0.03983693 -0.03988096 -0.03992027
 -0.03995687 -0.03999418 -0.04003393 -0.04008008 -0.04013114 -0.04018823 -0.04024639 -0.04030363 -0.04035519 -0.04039862
 -0.04043264 -0.04045607 -0.04047118 -0.0404778 -0.04048074 -0.04048024 -0.0404826 -0.04048818 -0.04050194 -0.04052379
 -0.04055413 -0.04059184 -0.04063096 -0.04066983 -0.04069911 -0.04071892 -0.04072363 -0.04071736 -0.04070336 -0.04068756
 -0.04067839 -0.04067785 -0.04069138 -0.04071507 -0.04074901 -0.0407869 -0.04082664 -0.04086339 -0.04089547 -0.04092076
 -0.04093836 -0.04094975 -0.04095469 -0.04095924 -0.04096374 -0.04097527 -0.04099382 -0.04102165 -0.04105781 -0.04109798
 -0.04114134 -0.04118223 -0.04122139 -0.04125733 -0.04129206 -0.04132833 -0.04136728 -0.041412 -0.0414607 -0.04151389
 -0.04156677 -0.04161751 -0.04166049 -0.04169297 -0.0417129 -0.04171837 -0.0417139 -0.04169928 -0.04168355 -0.04166742
 -0.0416592 -0.0416594 -0.04167287 -0.04169956 -0.04174018 -0.04179363 -0.04185427 -0.04192001 -0.04198011 -0.04203387
 -0.04207317 -0.04210128 -0.04211931 -0.04213206 -0.04214614 -0.04216263 -0.04218554 -0.04221129 -0.04223898 -0.04226574
 -0.04228951 -0.04231225 -0.04233365 -0.04235788 -0.04238579 -0.04241865 -0.04245686 -0.04249828 -0.04254279 -0.0425877
 -0.0426329 -0.04267662 -0.04271881 -0.04275814 -0.04279487 -0.0428289 -0.04286109 -0.04289367 -0.04292676 -0.04296219
 -0.04299789 -0.04303231 -0.04306339 -0.04308807 -0.04310824 -0.0431232 -0.04313821 -0.04315522 -0.04317727 -0.04320623
 -0.04323929 -0.04327654 -0.04331322 -0.04334871 -0.04338173 -0.04341216 -0.0434424 -0.04347246 -0.0435032 -0.04353418
 -0.04356288 -0.04358938 -0.04361236 -0.04363301 -0.04365373 -0.04367533 -0.0437007 -0.04372901 -0.04376056 -0.04379404
 -0.0438286 -0.04386311 -0.04389682 -0.04392861 -0.04395761 -0.04398434 -0.04400823 -0.04403306 -0.04405932 -0.0440903
 -0.04412664 -0.04416672 -0.0442105 -0.044254 -0.04429714 -0.04433865 -0.04437853 -0.04441661 -0.04445213 -0.04448206
 -0.04450601 -0.04452056 -0.04452793 -0.04452946 -0.04452949 -0.04453387 -0.04454481 -0.04456706 -0.04459784 -0.04463764
 -0.04468097 -0.04472582 -0.04476874 -0.04480806 -0.0448443 -0.04487703 -0.04490927 -0.04494118 -0.04497653 -0.04501557
 -0.0450597 -0.04510865 -0.04515804 -0.04520729 -0.04524999 -0.04528692 -0.04531704 -0.04534265 -0.04536922 -0.04539787
 -0.04543367 -0.04547502 -0.04552233 -0.04557288 -0.04562477 -0.04567543 -0.04572295 -0.04576556 -0.04580164 -0.04583264
 -0.04585784 -0.04588291 -0.04590855 -0.04594016 -0.04597869 -0.04602384 -0.04607572 -0.04612792 -0.04618 -0.04622423
 -0.04626096 -0.04628808 -0.04630744 -0.04632502 -0.0463423 -0.04636665 -0.04639682 -0.04643413 -0.04647642 -0.04652083
 -0.04656806 -0.04661757 -0.04667093 -0.04672987 -0.04679192 -0.04685724 -0.04692051 -0.04698004 -0.04703391 -0.04708099
 -0.04712468 -0.04716518 -0.04720611 -0.04724777 -0.04728938 -0.04733071 -0.04736714 -0.04739863 -0.04742211 -0.04743879
 -0.0474514 -0.04746181 -0.04747633 -0.04749567 -0.04752418 -0.04756104 -0.04760722 -0.04766092 -0.04772146 -0.04778583
 -0.04785255 -0.04791806 -0.04798035 -0.04803838 -0.04809095 -0.04814075 -0.04818796 -0.04823553 -0.04828396 -0.04833316
 -0.04838321 -0.04843182 -0.04847893 -0.04852308 -0.04856448 -0.04860396 -0.04864184 -0.04868009 -0.04871832 -0.04875696
 -0.04879466 -0.04882915 -0.04885967 -0.04888392 -0.04890305 -0.04891684 -0.04892784 -0.04893738 -0.04894769 -0.04896018
 -0.04897524 -0.04899368 -0.04901325 -0.04903387 -0.04905226 -0.04906784 -0.04908069 -0.04909071 -0.04910167 -0.04911369
 -0.04912937 -0.04914825 -0.04916833 -0.0491892 -0.04920794 -0.04922507 -0.04924029 -0.04925464 -0.04927003 -0.04928651
 -0.04930522 -0.04932517 -0.0493458 -0.04936667 -0.04938726 -0.04940771 -0.04942824 -0.04944763 -0.04946579 -0.04948047
 -0.04949102 -0.04949742 -0.04949944 -0.0494994 -0.04949748 -0.04949356 -0.04948755 -0.04947727 -0.04946312 -0.04944674
 -0.04942922 -0.04941633 -0.04940784 -0.04940654 -0.04941033 -0.04941654 -0.04942368 -0.04942823 -0.04943101 -0.04943127
 -0.0494308 -0.04943083 -0.04943126 -0.04943294 -0.04943283 -0.04943038 -0.0494226 -0.04940837 -0.04938949 -0.0493658
 -0.04934181 -0.04931785 -0.04929562 -0.04927514 -0.04925625 -0.0492394 -0.0492281 -0.04922282 -0.04922844 -0.04924306
 -0.04926484 -0.04928995 -0.04931037 -0.04932369 -0.0493231 -0.04930909 -0.04927899 -0.04923651 -0.04918175 -0.04912281
 -0.04906251 -0.04900882 -0.04896523 -0.04893291 -0.04891355 -0.04890057 -0.04889364 -0.0488853 -0.04887496 -0.04885981
 -0.04883994 -0.04881853 -0.04879598 -0.04877722 -0.04876159 -0.04874959 -0.04873906 -0.04872407 -0.04870368 -0.0486725
 -0.0486328 -0.04858481 -0.04853214 -0.04847833 -0.04842515 -0.04837508 -0.04832741 -0.04828304 -0.04823847 -0.04819312
 -0.04814325 -0.04808757 -0.04802717 -0.04796156 -0.04789751 -0.04783539 -0.04778238 -0.04773879 -0.04770972 -0.04769526
 -0.04769915 -0.04772016 -0.04775654 -0.04780377 -0.04784949 -0.04788797 -0.04790113 -0.04788992 -0.04784553 -0.04777842
 -0.04769471 -0.04760364 -0.04751414 -0.04742623 -0.04734291 -0.04725878 -0.04717219 -0.04708231 -0.0469877 -0.04689561
 -0.04680652 -0.04672839 -0.04666191 -0.04660977 -0.04657205 -0.04654938 -0.04654111 -0.04654427 -0.0465551 -0.04655607
 -0.04654293 -0.04649133 -0.04640774 -0.04629015 -0.04615348 -0.04601785 -0.04589048 -0.04578651 -0.0457035 -0.04564507
 -0.04560442 -0.04558159 -0.04556248 -0.04554475 -0.04550946 -0.04545157 -0.04536562 -0.04524869 -0.04511715 -0.04497181
 -0.04483099 -0.04469519 -0.0445691 -0.04445209 -0.04434104 -0.04423556 -0.04413228 -0.04403164 -0.04393294 -0.04383722
 -0.04374731 -0.04366073 -0.04357736 -0.04348877 -0.04338628 -0.0432667 -0.04312163 -0.04296435 -0.0427972 -0.04263669
 -0.04248997 -0.04235819 -0.0422444 -0.04213592 -0.04203172 -0.0419203 -0.04180057 -0.04167024 -0.04152924 -0.0413786
 -0.0412175 -0.04103952 -0.04084342 -0.04061833 -0.0403676 -0.04009409 -0.03980424 -0.0395141 -0.03922231 -0.03893534
 -0.03864554 -0.03834583 -0.03803739 -0.03771545 -0.03739453 -0.0370801 -0.03678203 -0.03650713 -0.03624702 -0.03600395
 -0.03575221 -0.03549061 -0.0351819 -0.03482275 -0.03439814 -0.03390898 -0.03339561 -0.03286114 -0.03235273 -0.03186478
 -0.0313976 -0.03094158 -0.03046773 -0.02997338 -0.0294375 -0.02886663 -0.02826003 -0.02762725 -0.02697798 -0.02631604
 -0.02565239 -0.02496779 -0.0242648 -0.02349252 -0.02263558 -0.02166063 -0.02054994 -0.01934361 -0.01804389 -0.01669312
 -0.01529695 -0.01382221 -0.01226716 -0.01059014 -0.00879547 -0.00690503 -0.00492401 -0.002886583 -0.0007962329 0.001341752
 0.003473359 0.005509152 0.007350007 0.008789789 0.009858019 0.01046969 0.01080058 0.01093749 0.01102547 0.01115917
 0.01138566 0.01174373 0.01221684 0.01280422 0.01350792 0.01432133 0.01531914 0.01650818 0.01791427 0.01953317
 0.02117988 0.02284474 0.02435216 0.02572705 0.02699751 0.02818863 0.02939339 0.03061259 0.03188964 0.03322296
 0.03461541 0.03610265 0.03770206 0.03949911 0.04155528 0.04392978 0.04670098 0.0497475 0.05307847 0.0564383
 0.05976969 0.06293923 0.0659128 0.06871118 0.07133058 0.073853 0.07628481 0.07877857 0.08135123 0.0842424
 0.08743077 0.09098313 0.09478041 0.09846762 0.1020193 0.1051675 0.1080551 0.1107781 0.1134453 0.1162166
 0.1190951 0.1221331 0.1253023 0.1285977 0.1320139 0.1355643 0.1391663 0.142814 0.1463837 0.1498475
 0.1532311 0.1565329 0.1598226 0.1630992 0.1662309 0.1692038 0.171815 0.1740868 0.1760173 0.1776492
 0.1791294 0.1804443 0.1816515 0.1826857 0.18345 0.1839737 0.1842315 0.1843186 0.1843011 0.1842165
 0.1841067 0.1839525 0.1837593 0.1834915 0.1831452 0.1826796 0.1820902 0.1813336 0.180404 0.1793117
 0.1780588 0.1767431 0.1753666 0.1739906 0.1726024 0.1711693 0.1696807 0.1680824 0.1663817 0.1645596
 0.1626474 0.1606812 0.1586892 0.1567208 0.1547665 0.1528342 0.150912 0.1489805 0.147095 0.145259
 0.1435663 0.1420454 0.1407082 0.1395666 0.1385543 0.1376666 0.136857 0.1361238 0.1354691 0.1348934
 0.1344038 0.1339952 0.1336458 0.1333491 0.1330722 0.1328138 0.1325554 0.1322971 0.1320319 0.1317583
 0.1314706 0.1311738 0.1308672 0.1305641 0.1302711 0.1299967 0.129746 0.1295191 0.1293167 0.1291398
 0.1289892 0.1288615 0.1287571 0.128662 0.1285756 0.1284962 0.1284266 0.1283967 0.1284083 0.12849
 0.1286312 0.1288118 0.129022 0.1292281 0.1294328 0.1296303 0.1298121 0.1299737 0.1300893 0.1301389
 0.1301069 0.1299785 0.1297554 0.1294314 0.1290279 0.1285398 0.1280401 0.1275393 0.1270863 0.126692
 0.1262727 0.1258242 0.1252539 0.1245616 0.1237135 0.1227131 0.1215597 0.1202557 0.118815 0.1172225
 0.1154642 0.1134968 0.1112267 0.1086891 0.1058218 0.1028692 0.1000037 0.09734338 0.09504608 0.09293228
 0.09097449 0.08902342 0.08702423 0.08498918 0.08290731 0.08085427 0.07883789 0.07687142 0.0749552 0.07304481
 0.07113989 0.06921904 0.06729039 0.06538742 0.0635158 0.06171818 0.05998014 0.05829456 0.05663734 0.05496634
 0.05327234 0.05153188 0.04973685 0.04788698 0.04593405 0.04385612 0.04160919 0.03913003 0.0366025 0.03402967
 0.031731 0.02978216 0.02814058 0.02681959 0.02557433 0.02439326 0.02314724 0.02184311 0.02051637 0.01918034
 0.0179313 0.01676056 0.0156881 0.0147022 0.01377563 0.01292946 0.01217993 0.01155898 0.01111608 0.01084236
 0.01075193 0.01081369 0.01100981 0.0113402 0.01179091 0.0124119 0.01319637 0.01427313 0.01564519 0.01753998
 0.01998338 0.02307207 0.0268078 0.03072441 0.03477452 0.03823582 0.04112599 0.04316252 0.04441909 0.0449837
 0.04493362 0.04446823 0.04367191 0.04275689 0.0417849 0.04089924 0.0401332 0.03956292 0.03917123 0.03899281
 0.03890847 0.03888841 0.03882587 0.03868086 0.03845007 0.03812409 0.03774222 0.03730726 0.03684755 0.0363646
 0.03586229 0.03534026 0.03479439 0.03422608 0.0336392 0.0330395 0.03244395 0.0318674 0.03134812 0.03090614
 0.03059036 0.03041041 0.03039316 0.03054743 0.03088353 0.03142118 0.03217664 0.03314825 0.03434636 0.03573084
 0.03729255 0.03900973 0.04087174 0.04292073 0.04516069 0.04761593 0.0502874 0.05304497 0.05587572 0.0585748
 0.06114825 0.06352378 0.06572335 0.06779088 0.06972756 0.07156422 0.07327741 0.07484551 0.07624266 0.07743341
 0.07839761 0.07911231 0.07955553 0.0797094 0.07956428 0.07910571 0.07836333 0.07733095 0.07609323 0.07465483
 0.0731375 0.07155281 0.06998855 0.06844995 0.0669484 0.06548204 0.06402823 0.06258804 0.06115669 0.05973753
 0.05834249 0.0569677 0.05561224 0.05426582 0.05291235 0.05154188 0.05013866 0.04869241 0.04718911 0.04562734
 0.04399414 0.04232401 0.04061805 0.03894173 0.03731173 0.03576832 0.03432482 0.03296457 0.03168864 0.03045854
 0.02927216 0.02812135 0.02700867 0.02596718 0.0249994 0.0241395 0.02338217 0.02272802 0.02216755 0.02167919
 0.02125546 0.02087568 0.02053338 0.02021513 0.01991231 0.01961606 0.0193146 0.01900051 0.01866255 0.018294
 0.01789317 0.01745576 0.0169972 0.0165171 0.01604535 0.01558459 0.01515989 0.01477285 0.01442071 0.01410181
 0.01379177 0.01349035 0.01318248 0.01287256 0.01256781 0.01227384 0.01200754 0.01177215 0.01158009 0.01143351
 0.01133963 0.01129894 0.01131577 0.01138415 0.01150471 0.01166244 0.01185434 0.01205951 0.01227418 0.01247394
 0.01265521 0.01279532 0.01289128 0.01293411 0.01292307 0.01286872 0.01277221 0.01265175 0.01250813 0.01235482
 0.01219236 0.01202957 0.01186734 0.01171273 0.01156488 0.01142602 0.01129339 0.01116424 0.01103778 0.01091152
 0.01078856 0.01066955 0.01055851 0.01045757 0.01036716 0.01028856 0.01021726 0.01015329 0.01008862 0.01002242
 0.009949702 0.009870088 0.009784882 0.009694316 0.009602298 0.009508693 0.009414161 0.009319002 0.00922346 0.009130616
 0.009046803 0.008977831 0.008936102 0.008926 0.008958417 0.009032386 0.009151786 0.009310898 0.009508125 0.00973707
 0.009995263 0.01027748 0.01058259 0.01090423 0.01124226 0.01158473 0.01193136 0.01226165 0.01257446 0.0128461
 0.01307613 0.013253 0.01338005 0.01347095 0.01353279 0.01359903 0.01367512 0.01379363 0.01395031 0.01415732
 0.0143957 0.01465214 0.01489823 0.01510714 0.01525839 0.01533013 0.0153248 0.0152355 0.01508127 0.01486475
 0.01460559 0.0143068 0.01398553 0.01364334 0.01329809 0.01295096 0.01261383 0.01228647 0.0119671 0.01165389
 0.01133454 0.0110069 0.01065611 0.01028175 0.009873608 0.009436578 0.008972328 0.008491279 0.008005871 0.007525575
 0.007062608 0.006621049 0.006205923 0.005820404 0.005466395 0.005147316 0.004865618 0.004616726 0.004401733 0.004205258
 0.004025961 0.003850129 0.003676648 0.003509543 0.003350238 0.003223012 0.003129697 0.00309634 0.003119607 0.003202162
 0.003336041 0.003500689 0.003694794 0.003903141 0.004137057 0.004403757 0.004714461 0.005083144 0.005509097 0.005995261
 0.006540642 0.007141538 0.007814508 0.008561182 0.009405666 0.01035528 0.01140576 0.01256161 0.01376641 0.01501763
 0.01622724 0.01739186 0.01844727 0.01939828 0.02024314 0.02099431 0.02169817 0.02236621 0.0230506 0.02375765
 0.02452215 0.02534524 0.02624411 0.02721051 0.02824774 0.02933305 0.03045922 0.03159144 0.0327177 0.03380079
 0.03482834 0.03577845 0.03664236 0.03743076 0.03814168 0.03881224 0.03944454 0.04007323 0.0406994 0.04134077
 0.04199832 0.04268632 0.04340826 0.04418586 0.0450219 0.04593635 0.04692576 0.04799575 0.04913482 0.05033292
 0.05157525 0.05284537 0.05413545 0.05543486 0.05674651 0.05807014 0.05940533 0.06075454 0.06210329 0.06345022
 0.06477855 0.06608585 0.06736626 0.06861912 0.06984612 0.07104743 0.07222671 0.07338426 0.07452448 0.07564645
 0.07674891 0.07783017 0.07888319 0.07991167 0.08091761 0.08190861 0.08289727 0.08388196 0.08486784 0.08584448
 0.08680519 0.08774952 0.08867272 0.08958906 0.09050151 0.09142118 0.09235231 0.09328895 0.0942322 0.0951615
 0.09607568 0.09695376 0.09779552 0.09859847 0.09936482 0.1001108 0.1008361 0.1015508 0.1022473 0.1029129
 0.1035365 0.1040937 0.1045734 0.1049531 0.1052224 0.1053634 0.1053748 0.1052466 0.1049963 0.1046259
 0.1041609 0.1036089 0.1029859 0.1022966 0.1015451 0.1007325 0.09985965 0.09892674 0.09793654 0.09688938
 0.09579116 0.09464252 0.0934509 0.09221657 0.09094391 0.08963401 0.08829022 0.08691784 0.08552621 0.08412463
 0.08272759 0.08134492 0.07999011 0.07866907 0.07739194 0.07615075 0.07494917 0.07376008 0.07257847 0.07137498
 0.07014216 0.06887057 0.06755755 0.06620732 0.06482004 0.06339589 0.06193506 0.06044057 0.05891463 0.05737524
 0.05582527 0.05428669 0.05275996 0.0512568 0.04977803 0.04832981 0.04691445 0.04553845 0.0442001 0.04290202
 0.04163593 0.04039855 0.03917991 0.03797488 0.03677795 0.03558549 0.03440057 0.03322193 0.03206122 0.03091915
 0.02980963 0.02873358 0.02770328 0.02671942 0.02579468 0.02492949 0.02413399 0.02340662 0.02274688 0.02215135
 0.02161058 0.02112179 0.02067563 0.02027002 0.0198983 0.01956012 0.01925131 0.01897745 0.01873953 0.01854673
 0.01840458 0.01831348 0.01827803 0.01828007 0.01832084 0.01836054 0.01839744 0.01837305 0.01828363 0.01807215
 0.01773685 0.01725384 0.01662689 0.01587367 0.01500097 0.01404665 0.01301659 0.01194585 0.01083848 0.009718932
 0.008587214 0.007454031 0.00631548 0.00517104 0.004019107 0.002856734 0.001689519 0.0005176914 -0.0006482461 -0.001806379
 -0.002943655 -0.004058065 -0.005135748 -0.006174795 -0.007166482 -0.008110042 -0.009000866 -0.009838503 -0.01061344 -0.01132499
 -0.01196175 -0.01252596 -0.01301987 -0.01344949 -0.01383305 -0.01417479 -0.01449259 -0.01478481 -0.01505719 -0.01530511
 -0.01552564 -0.01571708 -0.01587677 -0.01600682 -0.01610797 -0.01618032 -0.01622493 -0.01623694 -0.01621482 -0.01615945
 -0.016069 -0.01596285 -0.01584171 -0.01573598 -0.01564693 -0.01559491 -0.01557902 -0.01560142 -0.01565938 -0.01574284
 -0.01584811 -0.01595979 -0.01607494 -0.01617988 -0.01627541 -0.01635654 -0.0164264 -0.01648671 -0.01653826 -0.01658223
 -0.01661828 -0.01664599 -0.01666734 -0.01668311 -0.01669331 -0.01669893 -0.01669409 -0.01667843 -0.01664495 -0.01659305
 -0.01651988 -0.01642535 -0.01630938 -0.0161717 -0.01601047 -0.0158242 -0.01560543 -0.0153523 -0.01505407 -0.01471349
 -0.01432803 -0.01390857 -0.01346782 -0.01301754 -0.01257457 -0.01214182 -0.01172711 -0.0113265 -0.01094005 -0.01056416
 -0.01019833 -0.009837463 -0.009481248 -0.009120871 -0.008754919 -0.008379522 -0.007993789 -0.007607473 -0.007221443 -0.006857105
 -0.006516252 -0.006223959 -0.005980496 -0.005802412 -0.005684811 -0.005624428 -0.005610657 -0.005622339 -0.005647811 -0.005661695
 -0.00565845 -0.005621531 -0.005556864 -0.005460424 -0.00534959 -0.005229867 -0.005119326 -0.005025259 -0.004955343 -0.004912902
 -0.004897434 -0.004909348 -0.004947208 -0.00501123 -0.005094084 -0.005195012 -0.005293495 -0.005388279 -0.00545776 -0.005504703
 -0.005528797 -0.005537601 -0.005553763 -0.005582093 -0.005645377 -0.005738928 -0.005867097 -0.006020335 -0.006190499 -0.006371847
 -0.006558573 -0.006746377 -0.006933754 -0.007110923 -0.007274698 -0.00741774 -0.007536252 -0.007637621 -0.007721687 -0.007801761
 -0.007879351 -0.007952927 -0.008022086 -0.008070648 -0.008097973 -0.008091346 -0.008051799 -0.007977405 -0.007869813 -0.007732213
 -0.007567376 -0.007380777 -0.007178776 -0.006971457 -0.006766839 -0.006577429 -0.006404676 -0.006255767 -0.00612104 -0.005998329
 -0.005877601 -0.005753641 -0.00562851 -0.005501981 -0.00537612 -0.005253043 -0.005116019 -0.004964275 -0.004775643 -0.004549463
 -0.00428638 -0.003988544 -0.00367672 -0.003352645 -0.003035269 -0.002725234 -0.002434924 -0.002162798 -0.001914685 -0.00168065
 -0.001450131 -0.001211635 -0.0009458924 -0.0006589221 -0.0003451051 -2.541636E-05 0.0002908395 0.0005923113 0.0008720332 0.001131795
 0.001371645 0.001589091 0.001784118 0.001951051 0.002088766 0.002206628 0.00230548 0.002412588 0.002529462 0.002683182
 0.00287085 0.003095137 0.003346534 0.00359665 0.00383902 0.00404185 0.004215252 0.004357834 0.004487526 0.004624931
 0.004772882 0.004941942 0.005122643 0.005311198 0.005507432 0.005708982 0.005924204 0.00615478 0.006404792 0.006674658
 0.006970036 0.007291376 0.007645057 0.008031034 0.00843514 0.008855046 0.009259601 0.009650824 0.01001876 0.01037507
 0.01074891 0.01115521 0.01164058 0.01221128 0.012901 0.01369681 0.01460471 0.01558983 0.01663766 0.01769498
 0.0187434 0.01970624 0.02056349 0.02122333 0.0216583 0.02183373 0.02172864 0.02144121 0.02097267 0.0205012
 0.02003556 0.01970369 0.01950345 0.01946112 0.01956569 0.01977779 0.02008473 0.02042695 0.02079549 0.02114147
 0.02146467 0.02174384 0.02198246 0.02217846 0.02232914 0.02243248 0.02248486 0.02248046 0.02243133 0.02233542
 0.02222508 0.02210433 0.02201278 0.02195704 0.02195936 0.02202357 0.02213678 0.02229822 0.02247925 0.02267982
 0.02289052 0.02311213 0.02334625 0.02358862 0.0238251 0.0240541 0.02426268 0.0244578 0.02464795 0.02482878
 0.02500345 0.025153 0.02525993 0.02532776 0.02534228 0.0253556 0.02538027 0.02546494 0.02563353 0.02584754
 0.02610721 0.02635536 0.02658549 0.02678858 0.02696416 0.02712412 0.02726957 0.02741773 0.02756667 0.02771813
 0.0278631 0.02797029 0.02803873 0.02804347 0.02800687 0.02795143 0.02789802 0.02788414 0.02789928 0.02795
 0.02801507 0.02808224 0.02814976 0.02821266 0.02828088 0.02835608 0.02844482 0.02854954 0.0286643 0.02879037
 0.02889535 0.02897746 0.02899459 0.02894686 0.02882251 0.0286243 0.02836319 0.02803691 0.02764024 0.02717719
 0.02664266 0.02607057 0.02550559 0.02498937 0.02459134 0.0243104 0.02417413 0.0241492 0.02422818 0.02437546
 0.02458031 0.02480535 0.02503758 0.02526913 0.02549263 0.02574769 0.02603845 0.02637505 0.02675772 0.02712888
 0.02748756 0.02780076 0.02807832 0.02835926 0.02865082 0.02899884 0.02940171 0.02987711 0.03042346 0.03104999
 0.03174346 0.03250038 0.03328679 0.03407764 0.03484539 0.03556533 0.03623996 0.03686127 0.03745284 0.03801725
 0.03858181 0.03915314 0.03973211 0.04032236 0.0408722 0.04137898 0.04179051 0.04211054 0.04236766 0.04257249
 0.04280353 0.04305857 0.04337204 0.04373435 0.0441372 0.04458135 0.04506793 0.04558895 0.04614283 0.04670204
 0.04724061 0.04775628 0.04823114 0.04870785 0.04919636 0.04973463 0.05033765 0.05100341 0.05173733 0.05250387
 0.0533019 0.05407781 0.05482868 0.05552027 0.05615492 0.05675248 0.05731795 0.05789222 0.05847267 0.05907203
 0.05968452 0.06030562 0.06092462 0.06153085 0.06209292 0.06257362 0.06294598 0.0631667 0.06325993 0.063222
 0.06309622 0.06290536 0.06264069 0.0623083 0.06187105 0.06132037 0.06066026 0.05988849 0.0590401 0.05811691
 0.05713412 0.05609109 0.05498139 0.05380599 0.0525646 0.0512647 0.04992888 0.04857134 0.04723656 0.04593305
 0.0446971 0.04352275 0.04241398 0.04137318 0.04039872 0.03950857 0.03871773 0.03801541 0.03741065 0.03684779
 0.03631502 0.03577202 0.03520695 0.03462857 0.03403624 0.03344516 0.03285618</values></Ydata></AB><ScSm><Ydata ylabel="Single channel"><values byteorder="INTEL" format="FLOAT32" numvalues="1814"> 0.07292497 0.07292546 0.07299371 0.07315215 0.07336685 0.07356882 0.07370398 0.07376778 0.07378393 0.07376017
 0.07369922 0.07365061 0.07370041 0.07388401 0.07413268 0.07432165 0.07436926 0.07430836 0.0742684 0.07435007
 0.0744874 0.07446498 0.07411962 0.07352941 0.07296467 0.07263869 0.07257348 0.0727578 0.07328092 0.0740809
 0.07466307 0.0744566 0.07353642 0.07264953 0.07238621 0.07261424 0.07283284 0.07274878 0.07236502 0.07186434
 0.07165689 0.07226954 0.07382768 0.07562917 0.07639675 0.07508224 0.07161477 0.06714142 0.06360656 0.06270928
 0.06470469 0.0680602 0.07060614 0.07126673 0.07057512 0.0695769 0.06870455 0.06791382 0.06741169 0.06769143
 0.06885151 0.07014081 0.07034989 0.0688452 0.06632136 0.0643055 0.06376418 0.0645 0.06597284 0.0678899
 0.0693699 0.06846657 0.06408404 0.05840292 0.05590676 0.05911511 0.06589457 0.07155207 0.07301532 0.07054852
 0.06637657 0.06284084 0.06152777 0.06284589 0.06594367 0.06941411 0.07214987 0.07340126 0.07259034 0.06981148
 0.06632074 0.0639253 0.06387279 0.06636574 0.07052289 0.07445639 0.0761272 0.07485157 0.07175486 0.06857872
 0.06653643 0.06632121 0.06827033 0.07201158 0.07644179 0.08037201 0.08301654 0.08406928 0.0837635 0.08272396
 0.08149122 0.08043429 0.08008662 0.08081775 0.08195923 0.08205765 0.08045942 0.07818447 0.07687557 0.07710079
 0.07790177 0.07795858 0.07692273 0.07520767 0.07269175 0.06869196 0.06354292 0.05901557 0.05654918 0.05615458
 0.05746935 0.06032419 0.06350723 0.06469059 0.06298399 0.06056158 0.06050637 0.06351939 0.06756073 0.07033458
 0.07140918 0.07205042 0.07358888 0.07606037 0.07803978 0.07771997 0.07470775 0.07102816 0.06969215 0.07174214
 0.07524951 0.07768299 0.07857598 0.0792464 0.08049599 0.08136731 0.08014037 0.0763744 0.07200685 0.07015669
 0.07240677 0.07721902 0.0810553 0.08100442 0.07673956 0.07057704 0.06566692 0.06381869 0.06501708 0.06861838
 0.07405566 0.08021824 0.08516428 0.08721096 0.08616743 0.08322498 0.0795999 0.07541671 0.07035843 0.06552491
 0.06365253 0.06652318 0.07268547 0.07866822 0.0820794 0.08279727 0.081622 0.07880409 0.07425495 0.06893463
 0.0653095 0.06544359 0.06851289 0.07126848 0.07143871 0.0698012 0.06850757 0.06839839 0.0686952 0.06864769
 0.06859156 0.06936137 0.07109891 0.07293225 0.07382479 0.0735234 0.07260053 0.07177958 0.07128099 0.07067007
 0.0694649 0.06808314 0.06780916 0.0693928 0.07202482 0.0741706 0.07511273 0.07522111 0.07494609 0.0740409
 0.07193804 0.06883283 0.06613825 0.06544268 0.06697028 0.06943679 0.07139026 0.07225753 0.07220368 0.07160842
 0.07081152 0.06999977 0.06925608 0.06879523 0.06891514 0.06956623 0.07025427 0.07053797 0.07038961 0.06997253
 0.06932956 0.06844442 0.06746025 0.06668509 0.06637092 0.06652074 0.06692854 0.06736664 0.06766479 0.06766856
 0.06729484 0.06665576 0.06599139 0.06545047 0.06504031 0.06477427 0.06472037 0.06487121 0.06507856 0.06517453
 0.06510477 0.06491279 0.06464565 0.06431796 0.06394643 0.06358492 0.0633192 0.06321191 0.06323221 0.06326751
 0.06324446 0.06320125 0.06318808 0.06314909 0.06298387 0.06269413 0.06239108 0.06217358 0.06205352 0.06198351
 0.06190245 0.06174496 0.06144811 0.06100487 0.06052838 0.06021187 0.06017593 0.06037704 0.06068073 0.06096767
 0.0611524 0.06118755 0.06110067 0.06097052 0.06083328 0.0606541 0.06040537 0.06013799 0.05996312 0.05996679
 0.06013076 0.06034102 0.06048525 0.06052686 0.0604878 0.0604131 0.06036118 0.06036603 0.0603868 0.0603456
 0.06022838 0.06010804 0.06006116 0.06008923 0.06012404 0.06010073 0.06002703 0.05997315 0.05998906 0.06005456
 0.06012083 0.06017022 0.06021604 0.0602634 0.06028572 0.06024094 0.06011974 0.0599742 0.05987457 0.05983941
 0.05983627 0.05984443 0.05987928 0.05995091 0.0600304 0.06007263 0.06006259 0.06002858 0.06000406 0.05998255
 0.05992625 0.05982003 0.05969682 0.0596038 0.05955847 0.05954216 0.05952367 0.05948322 0.05941855 0.05933413
 0.05923048 0.05910635 0.05896471 0.05881522 0.05867917 0.05858815 0.05855852 0.05856288 0.0585422 0.05845614
 0.05831759 0.05817503 0.05806377 0.05797733 0.05788713 0.05778347 0.05768637 0.05761869 0.05758303 0.05756758
 0.05755998 0.05755197 0.057547 0.05757099 0.05765938 0.05781661 0.05799583 0.05813538 0.05821636 0.05827294
 0.05834843 0.05845486 0.05857644 0.05869939 0.05883214 0.05899597 0.05919207 0.05938374 0.05952898 0.05963051
 0.05973292 0.0598716 0.06004751 0.06024757 0.06045649 0.06064633 0.06078923 0.06089275 0.06099859 0.06113656
 0.06129693 0.06145533 0.06160602 0.06176033 0.06192689 0.06210897 0.0623149 0.06255721 0.06283839 0.06314078
 0.06343057 0.06367563 0.06387231 0.06405948 0.06429391 0.06460191 0.06495777 0.06531129 0.06563175 0.06592588
 0.06621858 0.06652068 0.06682127 0.06711556 0.06742649 0.06778024 0.06816751 0.06855173 0.06891392 0.06926888
 0.06963637 0.07001578 0.07039443 0.0707701 0.07115683 0.07156777 0.07199176 0.07239332 0.07274394 0.0730519
 0.07335526 0.07368924 0.07406296 0.07445337 0.0748129 0.07510142 0.07533195 0.07557168 0.0758746 0.07622055
 0.07654544 0.07682602 0.07710448 0.07742561 0.0777792 0.07811958 0.07842315 0.07870798 0.0790031 0.07931145
 0.07960349 0.07984419 0.08002769 0.08018359 0.08034779 0.08053795 0.08076416 0.08104448 0.08138409 0.08174731
 0.0820767 0.0823408 0.08254786 0.08272338 0.08289534 0.08309035 0.08331859 0.08356461 0.08380511 0.08402511
 0.08421224 0.08436204 0.0845028 0.08468757 0.08494262 0.08524637 0.08557209 0.08592273 0.08630352 0.08668933
 0.08705287 0.087411 0.08780514 0.08823276 0.08863114 0.08894331 0.0891748 0.08936842 0.08955199 0.08974074
 0.08996765 0.09026907 0.09064203 0.09104374 0.0914339 0.09179884 0.0921386 0.09244983 0.0927245 0.0929559
 0.09314357 0.09329636 0.09343269 0.09357908 0.09376259 0.09399109 0.094236 0.09444456 0.09457449 0.09460856
 0.09453754 0.09435292 0.09407112 0.09374411 0.0934159 0.09306866 0.09263172 0.09204633 0.09130446 0.09042615
 0.08942365 0.0883022 0.0870845 0.08582334 0.08459222 0.08346618 0.08251147 0.08179593 0.08139919 0.08138195
 0.08171996 0.0822704 0.08281471 0.08313814 0.08308601 0.08258989 0.08168009 0.08047189 0.07911146 0.07771205
 0.0763238 0.07494003 0.07352084 0.07203332 0.07050519 0.06904846 0.06782663 0.06702343 0.06687796 0.06771252
 0.06980009 0.07309853 0.07712211 0.0811529 0.08463214 0.08738117 0.08952044 0.09126297 0.09278139 0.09417185
 0.09546003 0.09663363 0.09768696 0.09863435 0.09948622 0.1002308 0.1008417 0.1012942 0.1015801 0.1017202
 0.1017569 0.101727 0.1016509 0.1015463 0.1014278 0.1012789 0.1010345 0.1006009 0.09989002 0.09883094
 0.09736792 0.0955148 0.09352455 0.09204586 0.09197043 0.09389812 0.0976478 0.1023306 0.1069299 0.1108176
 0.1138327 0.1160784 0.1177428 0.1190199 0.1200658 0.120976 0.1217963 0.1225461 0.1232338 0.1238677
 0.1244616 0.1250318 0.1255917 0.1261481 0.1266972 0.1272266 0.1277305 0.1282193 0.1287134 0.1292245
 0.1297446 0.1302536 0.1307418 0.1312211 0.1317049 0.1321833 0.1326322 0.1330453 0.1334426 0.1338496
 0.13428 0.1347335 0.1351961 0.1356423 0.1360509 0.136421 0.1367709 0.1371191 0.1374702 0.1378192
 0.1381641 0.1385099 0.138862 0.1392238 0.1395987 0.1399835 0.1403582 0.1406965 0.1409918 0.1412662
 0.1415488 0.1418497 0.1421584 0.1424623 0.1427647 0.143084 0.143436 0.143815 0.1441944 0.1445465
 0.1448631 0.1451589 0.1454569 0.1457714 0.1461022 0.1464419 0.1467836 0.1471249 0.1474668 0.1478113
 0.1481575 0.1484998 0.1488311 0.1491481 0.1494524 0.1497491 0.1500448 0.150346 0.1506587 0.150988
 0.151333 0.151684 0.1520243 0.1523413 0.1526342 0.1529129 0.1531907 0.1534779 0.153778 0.1540875
 0.1544003 0.1547127 0.1550245 0.1553361 0.1556466 0.1559543 0.1562574 0.1565545 0.1568459 0.1571368
 0.1574362 0.1577509 0.1580798 0.1584128 0.1587381 0.1590515 0.1593591 0.1596696 0.1599869 0.1603071
 0.1606208 0.1609192 0.1612019 0.1614799 0.1617659 0.1620624 0.1623616 0.1626564 0.1629474 0.1632396
 0.1635359 0.1638344 0.1641315 0.1644247 0.1647123 0.1649945 0.1652756 0.1655618 0.1658552 0.1661517
 0.1664442 0.1667278 0.1670044 0.1672808 0.1675607 0.1678406 0.1681151 0.1683835 0.1686479 0.1689091
 0.1691673 0.1694233 0.1696769 0.1699289 0.1701825 0.1704394 0.1706972 0.1709526 0.1712059 0.1714596
 0.1717156 0.1719745 0.1722355 0.1724969 0.1727574 0.1730154 0.1732693 0.1735196 0.1737678 0.1740122
 0.1742515 0.1744912 0.1747394 0.1749978 0.1752628 0.1755288 0.1757883 0.1760361 0.1762732 0.1765041
 0.1767302 0.1769515 0.1771707 0.1773909 0.1776156 0.1778493 0.1780924 0.1783397 0.1785893 0.1788445
 0.1791051 0.1793659 0.179625 0.1798823 0.1801347 0.180382 0.18063 0.1808814 0.1811347 0.1813916
 0.1816547 0.1819204 0.1821837 0.1824432 0.1826968 0.1829428 0.1831866 0.1834361 0.1836938 0.1839595
 0.1842302 0.1844975 0.1847551 0.1850068 0.1852569 0.1855048 0.1857557 0.18602 0.1862965 0.1865725
 0.1868391 0.1870914 0.1873263 0.1875528 0.1877892 0.188045 0.1883174 0.1886029 0.188894 0.1891783
 0.1894515 0.1897168 0.189974 0.1902268 0.190489 0.1907641 0.1910389 0.191307 0.1915719 0.1918193
 0.1919975 0.1919823 0.1914787 0.1899097 0.1863987 0.179938 0.1697809 0.1559047 0.1391885 0.1211124
 0.1032125 0.08667076 0.07218674 0.06006786 0.05038725 0.04308169 0.03800567 0.03502897 0.03414821 0.03560378
 0.03999794 0.04793317 0.05868129 0.06901755 0.0744808 0.07288988 0.06642373 0.0596357 0.05567628 0.05477577
 0.05559716 0.05699503 0.05860477 0.06063363 0.06343538 0.06709907 0.0714381 0.07644337 0.082498 0.08988849
 0.09822826 0.106629 0.1144719 0.1218846 0.1294298 0.1374186 0.1455849 0.1533487 0.1602754 0.1662861
 0.1715604 0.1763352 0.1807755 0.1849669 0.1889605 0.1927604 0.1962346 0.1990885 0.2010103 0.2019057
 0.2020064 0.2017423 0.2014916 0.201435 0.2015945 0.2019388 0.2024363 0.2030579 0.2037804 0.2045838
 0.2054459 0.2063458 0.2072664 0.2081811 0.2090522 0.2098534 0.2105825 0.2112499 0.211867 0.2124434
 0.2129822 0.2134789 0.2139338 0.2143568 0.2147593 0.2151501 0.215536 0.2159148 0.2162734 0.2165999
 0.2168959 0.2171718 0.2174389 0.2177062 0.2179753 0.2182392 0.2184927 0.2187412 0.2189936 0.2192527
 0.2195159 0.219779 0.2200372 0.2202887 0.2205358 0.2207784 0.2210127 0.2212392 0.2214646 0.2216957
 0.221936 0.2221871 0.2224462 0.2227054 0.2229592 0.2232096 0.2234611 0.2237155 0.2239703 0.2242196
 0.2244615 0.2247059 0.2249663 0.2252419 0.2255196 0.2257909 0.226055 0.2263111 0.2265604 0.2268077
 0.2270492 0.2272692 0.2274619 0.2276493 0.2278679 0.2281367 0.2284371 0.228729 0.228991 0.2292372
 0.2294905 0.2297523 0.2300071 0.2302419 0.2304591 0.2306806 0.2309367 0.2312344 0.2315511 0.2318662
 0.2321781 0.2324858 0.2327845 0.233081 0.2333795 0.2336529 0.2338654 0.2340313 0.2342286 0.2345396
 0.234971 0.2354382 0.2358428 0.2361613 0.2364393 0.2367251 0.2370408 0.2373715 0.2376349 0.2377301
 0.2376919 0.2377337 0.2380555 0.2386432 0.239309 0.2398849 0.2403318 0.2407024 0.2410502 0.2413702
 0.2416036 0.2417051 0.2417258 0.2418281 0.2421713 0.2427487 0.2433821 0.2439048 0.2442924 0.2445972
 0.2448591 0.2451027 0.2452897 0.2452565 0.2448864 0.2444109 0.2443471 0.2449956 0.2461024 0.2471302
 0.2477895 0.2481876 0.248526 0.2488517 0.2491159 0.2492244 0.2489182 0.2479188 0.2464714 0.2455021
 0.2458529 0.2474319 0.2493668 0.2508788 0.2517744 0.2522509 0.2525555 0.2528209 0.2529652 0.2526986
 0.2518474 0.2507816 0.2503198 0.2509733 0.2523714 0.2536588 0.2543656 0.2546555 0.2548742 0.2551656
 0.2553725 0.2549857 0.2534356 0.2509289 0.2488698 0.2488685 0.2511629 0.254333 0.2567134 0.257829
 0.2582503 0.2583589 0.2577869 0.2560751 0.2533568 0.2502937 0.2478687 0.2472565 0.2490492 0.2522814
 0.2549741 0.2560882 0.2564016 0.2572113 0.258777 0.2603326 0.2610901 0.2608472 0.2598401 0.2583145
 0.2564152 0.2545984 0.2538689 0.2550677 0.2578525 0.2608225 0.2628156 0.2637914 0.2642189 0.2637126
 0.2607562 0.254521 0.247153 0.2431906 0.2455571 0.2524953 0.2594522 0.2635594 0.2652143 0.2659459
 0.2663721 0.2660222 0.2636155 0.2577668 0.2491589 0.2419053 0.240769 0.2464547 0.2548133 0.2607147
 0.2615484 0.2575055 0.2506552 0.2443293 0.2417689 0.2441572 0.2500922 0.2569743 0.2625749 0.265649
 0.2659176 0.2639415 0.2610663 0.2590917 0.2589804 0.2594375 0.257887 0.253731 0.2493552 0.2466202
 0.2439629 0.2392708 0.2345147 0.2344355 0.240386 0.2480764 0.2523944 0.2525794 0.2513098 0.2498391
 0.2458713 0.2368799 0.2248856 0.2165477 0.2173301 0.2258389 0.2350747 0.2392751 0.2384849 0.2365212
 0.2358678 0.2351587 0.2311486 0.2229524 0.2141613 0.2098107 0.2110178 0.2139545 0.2143464 0.2109259
 0.2040139 0.1940689 0.1839557 0.1798286 0.1860476 0.1999012 0.2136897 0.2210373 0.2193226 0.2083826
 0.1912007 0.1755148 0.1700843 0.1769374 0.1889786 0.1965446 0.1951012 0.1860673 0.17265 0.1575987
 0.1444637 0.1380112 0.14134 0.1527243 0.1657869 0.1727625 0.1687829 0.1555692 0.1415874 0.1359634
 0.1402947 0.1476393 0.150323 0.1468918 0.1410199 0.1366458 0.1356432 0.1376796 0.1406354 0.142518
 0.1430721 0.1417656 0.1356415 0.1229555 0.1082753 0.0995624 0.0998726 0.1057229 0.1135037 0.1227039
 0.1317723 0.1359058 0.1324608 0.1260055 0.124478 0.1307705 0.1402118 0.146242 0.1469118 0.145301
 0.1447337 0.1451676 0.1448785 0.1444286 0.1468094 0.1532991 0.161173 0.1667083 0.1690461 0.1698681
 0.1705592 0.1711704 0.1713666 0.1710359 0.1702415 0.1693251 0.1687905 0.1687265 0.1687273 0.1684942
 0.1677953 0.1655539 0.1600879 0.1514617 0.1429883 0.1386183 0.1387635 0.1405327 0.1420608 0.1436294
 0.1436164 0.1373222 0.1231734 0.1078573 0.1014761 0.1078015 0.1214722 0.1341316 0.1408338 0.1404673
 0.1332609 0.1210435 0.1094293 0.106084 0.1144312 0.1303368 0.1465538 0.1589813 0.1670756 0.170352
 0.1677415 0.160263 0.1520865 0.1481668 0.1512547 0.1606685 0.1724441 0.1802395 0.1784096 0.1676786
 0.1578312 0.160495 0.1767989 0.1953475 0.205007 0.2062512 0.2066017 0.2089327 0.2100391 0.2089706
 0.2103709 0.2180849 0.2294462 0.2378535 0.2385222 0.2303513 0.2152835 0.1987573 0.1884068 0.1881922
 0.1943198 0.199721 0.2010515 0.1982872 0.1905764 0.1783575 0.1681558 0.1685552 0.1802414 0.1947184
 0.204051 0.2081717 0.2113839 0.2148982 0.2152959 0.2096554 0.2003894 0.1937676 0.193665 0.1980985
 0.2024695 0.2043595 0.2036319 0.1997616 0.1921427 0.1830041 0.1774143 0.1789369 0.186016 0.1934956
 0.197279 0.1969209 0.1943825 0.1915638 0.1890882 0.1864737 0.1832935 0.18068 0.1811276 0.1857574
 0.1923619 0.1975762 0.2006788 0.2038387 0.2087117 0.2141542 0.2175996 0.2178636 0.2163116 0.2157002
 0.2179345 0.2224934 0.2267806 0.2283185 0.2270833 0.2257363 0.2271756 0.2317716 0.2373243 0.241564
 0.244016 0.2455126 0.2468335 0.2480565 0.2485161 0.2473035 0.244541 0.2421611 0.2425475 0.2461623
 0.251093 0.255025 0.2571166 0.2578949 0.2579875 0.2574309 0.2560562 0.2541342 0.2524044 0.2515094
 0.2515585 0.2522452 0.2531994 0.2541556 0.254961 0.2555795 0.2560554 0.2564267 0.2567072 0.2569365
 0.2571537 0.2573174 0.2573499 0.2572943 0.2573355 0.2576025 0.2580076 0.2583462 0.2584876 0.2583863
 0.2579657 0.2571335 0.2559169 0.2544609 0.2528464 0.2510249 0.2490463 0.2473167 0.2464835 0.2469643
 0.2485878 0.2507177 0.2526952 0.2541505 0.2550017 0.2553223 0.2552688 0.2550497 0.2548532 0.2547639
 0.2547587 0.2547844 0.2548198 0.2548603 0.254885 0.2548796 0.2548789 0.2549489 0.2551188 0.2553454
 0.2555437 0.2556501 0.2556565 0.2555903 0.2554623 0.2552419 0.2548828 0.2543626 0.2536943 0.2529074
 0.2520335 0.2511078 0.2501661 0.2492189 0.2482297 0.2471302 0.2458506 0.2443325 0.2425485 0.2405424
 0.2384353 0.2363645 0.2344232 0.2326555 0.2310565 0.2295555 0.2280368 0.2264073 0.2246305 0.222704
 0.2206422 0.2184893 0.2163164 0.2141892 0.2121369 0.2101461 0.2081752 0.2061799 0.2041312 0.2020071
 0.199767 0.1973352 0.1946146 0.1915162 0.1879748 0.1839471 0.1794288 0.1744946 0.1693071 0.1640697
 0.1589665 0.154138 0.1496838 0.1456779 0.1421831 0.1392497 0.1369013 0.1351386 0.1339629 0.1333832
 0.1333956 0.1339645 0.135019 0.136458 0.138165 0.1400191 0.1418932 0.1436653 0.1452679 0.1467305
 0.1481511 0.1496153 0.1511422 0.1526971 0.1542378 0.1557416 0.1571969 0.1585935 0.159934 0.1612411
 0.1625397 0.1638367 0.1651288 0.1664162 0.1676979 0.1689572 0.1701599 0.1712779 0.1723254 0.1733663
 0.1744722 0.1756756 0.1769777 0.1783845 0.1799081 0.1815365 0.183225 0.1849205 0.1865906 0.1882334
 0.1898667 0.191513 0.1932017 0.194977 0.1968836 0.1989329 0.2010845 0.2032558 0.2053478 0.2072718
 0.208964 0.2103815 0.2114977 0.2123109 0.2128443 0.2131282 0.2131865 0.2130437 0.2127445 0.2123719
 0.2120436 0.2118675 0.2118868 0.212074 0.2123711 0.2127227 0.2130907 0.213468 0.213874 0.2143198
 0.2147824 0.2152217 0.2156127 0.2159501 0.2162309 0.2164375 0.216538 0.2165079 0.2163535 0.2161107
 0.2158141 0.2154618 0.2150071 0.2143913 0.2135926 0.2126337 0.2115425 0.2103275 0.2089996 0.2075943
 0.206156 0.2047109 0.203254 0.2017508 0.2001562 0.1984401 0.1965926 0.1946154 0.1925351 0.1904219
 0.1883678 0.1864366 0.1846393 0.1829477 0.1813188 0.179718 0.1781288 0.1765467 0.1749743 0.1734297
 0.1719406 0.1705185 0.1691551 0.1678491 0.1666223 0.1655049 0.1645148 0.1636502 0.1628975 0.1622504
 0.1617179 0.161307 0.1610112 0.1608228 0.1607379 0.1607323 0.1607515 0.1607389 0.1606682 0.1605533
 0.1604371 0.160361 0.1603333 0.1603326 0.1603363 0.1603206 0.1602358 0.1600021 0.1595334 0.1587605
 0.1576507 0.156223 0.1545474 0.1527342 0.1509208 0.1492388 0.1477731 0.146559 0.1456011 0.1448639
 0.1442651 0.1437321 0.1432709 0.1429604 0.1428769 0.1430113 0.1432314 0.1433494 0.1432792 0.1431222
 0.1430747 0.1432675 0.1437022 0.1442855 0.1448893 0.1454021 0.1457588 0.1459417 0.145977 0.1459206
 0.1458155 0.1456623 0.145451 0.1451896 0.1448772 0.1444903 0.1440164 0.1434668 0.1428497 0.14216
 0.1413876 0.1405199 0.1395554 0.1385092 0.1373712 0.1361019 0.1347381 0.1334728 0.132572 0.1322126
 0.1323866 0.1329074 0.1335268 0.1340906 0.1345304 0.1347059 0.1344589 0.1339733 0.1339195 0.1349787
 0.1371774 0.1398039 0.1419993 0.1433447 0.1438828 0.1437852 0.1431691 0.1421176 0.1406615 0.1387668
 0.1364492 0.1338279 0.1310172 0.1281049 0.1252547 0.1226676 0.1204484 0.1186139 0.1171602 0.1161339
 0.1156656 0.1154033 0.1135686 0.1078867 0.09907955 0.09244274 0.09340951 0.101449 0.1104205 0.1150633
 0.1151909 0.1135657 0.1121172 0.1111624 0.1106199 0.1106151 0.1112525 0.1123912 0.1136582 0.1146646
 0.1152598 0.1154986 0.1153567 0.1145169 0.1123208 0.1079802 0.1012035 0.09277615 0.08430135 0.07725069
 0.07229704 0.06933364 0.06779252 0.06698219 0.06643388 0.06610502 0.0662657 0.06718587 0.06891505 0.07131016
 0.07417448 0.07726058 0.0801898 0.08258427 0.08435073 0.08568503 0.08675131 0.087494 0.08778082 0.08758982
 0.0870277 0.08625701 0.08541943 0.08456762 0.08364519 0.08255382 0.08128752 0.0800275 0.07904766 0.0784719
 0.07817622 0.07796037 0.07772778 0.07747194 0.07720047 0.0769213 0.07664497 0.07640161 0.07627603 0.07635339
 0.07659613 0.07685464 0.07701873 0.07709777 0.07716062 0.07722649 0.07718906 0.07690163 0.07642531 0.07606637
 0.07598414 0.0758992 0.07544523 0.07472107 0.0742383 0.07435173 0.07493289 0.07557704 0.07596502 0.07602958
 0.07594436 0.07602913 0.07653366 0.07736115</values></Ydata></ScSm><ScRf><Ydata ylabel="Single channel"><values byteorder="INTEL" format="FLOAT32" numvalues="1820"> 0.06060249 0.06074924 0.06083044 0.06085154 0.06084038 0.06084353 0.06091007 0.06106067 0.06126784 0.06146863
 0.06160775 0.06167483 0.0616906 0.06166474 0.06160005 0.06153941 0.06156198 0.06170611 0.06191586 0.06207962
 0.06212123 0.06206673 0.06202824 0.06209289 0.06220484 0.0621822 0.0618888 0.06139147 0.06091677 0.06064155
 0.06058143 0.06072599 0.06115454 0.06182468 0.06232744 0.06217719 0.061421 0.06067569 0.06044153 0.0606204
 0.06079932 0.06072962 0.06040805 0.05998622 0.05981069 0.06032624 0.06163841 0.06315534 0.06380004 0.06268863
 0.05976326 0.05599476 0.05302361 0.05227873 0.05397148 0.05680978 0.05896575 0.05953155 0.05895572 0.05812228
 0.05739827 0.05674185 0.05631704 0.05653479 0.05748605 0.05855078 0.05871543 0.05744399 0.05531967 0.05362908
 0.05318381 0.05381204 0.05505595 0.0566703 0.05791445 0.0571493 0.05345282 0.04866531 0.04656873 0.04929004
 0.0550313 0.05982924 0.06108155 0.05900493 0.05548315 0.05250357 0.05140575 0.05252219 0.05512457 0.05802973
 0.0603152 0.06135696 0.06067035 0.05833339 0.05539956 0.05338699 0.05334858 0.05546035 0.0589796 0.06230751
 0.06371751 0.06263246 0.06000867 0.05732537 0.0556099 0.05544045 0.05709384 0.060259 0.06401447 0.06735893
 0.06961986 0.07052805 0.07027821 0.06940541 0.06837551 0.06750139 0.06722482 0.06784782 0.06880309 0.06886865
 0.06750298 0.06557849 0.06448731 0.06470212 0.06539963 0.06545731 0.06458554 0.06314246 0.0610256 0.05764923
 0.05329052 0.04945006 0.04735327 0.04702017 0.0481582 0.0506319 0.05340272 0.05447016 0.05305661 0.05100227
 0.05093618 0.05347237 0.05689142 0.05924368 0.06015696 0.06070657 0.06202799 0.06415332 0.06586631 0.06562229
 0.06308213 0.05997236 0.05886393 0.06064659 0.06367321 0.06578636 0.0665932 0.0672168 0.06833294 0.06912123
 0.06812085 0.06496569 0.06131288 0.059818 0.0618211 0.06600425 0.0693486 0.06936561 0.06576915 0.06054167
 0.0563916 0.05488184 0.05601338 0.05925329 0.06412552 0.06966299 0.07416557 0.07614879 0.07541667 0.07298954
 0.06994125 0.06640214 0.06210015 0.05800477 0.05654612 0.05932017 0.06504636 0.07063378 0.0739432 0.07485582
 0.07406618 0.07175909 0.06782179 0.06314586 0.06004938 0.06046924 0.06362464 0.06646508 0.066869 0.06557998
 0.06462564 0.06479166 0.06533599 0.06555615 0.06579727 0.06687408 0.06890933 0.07103201 0.07221676 0.07221043
 0.07157686 0.07103927 0.070823 0.07049403 0.06958194 0.06853499 0.06865542 0.07066634 0.07370657 0.07621288
 0.07748367 0.07792239 0.07798368 0.0773777 0.07548919 0.07253271 0.070022 0.069649 0.07164877 0.07465006
 0.07709952 0.0783805 0.07867058 0.07837783 0.07786214 0.07732161 0.07685456 0.07670775 0.07721096 0.07830368
 0.07943173 0.0801014 0.08028266 0.0801567 0.07976296 0.07907798 0.07827276 0.07770946 0.07767802 0.07818133
 0.07898661 0.07983194 0.08051214 0.08083788 0.08070745 0.08025508 0.07977211 0.07944176 0.07927246 0.07927717
 0.0795349 0.08002853 0.08056827 0.08095198 0.08112724 0.08115751 0.08110058 0.08096962 0.08077946 0.08059618
 0.08053253 0.08066549 0.08093957 0.08120616 0.08139956 0.08160462 0.08188535 0.08212744 0.08215624 0.08196761
 0.08174174 0.08164567 0.08169831 0.08181773 0.08191729 0.08192161 0.08175255 0.08139566 0.08099629 0.08080786
 0.08099064 0.08149691 0.08215668 0.08279714 0.08327587 0.08351639 0.08356425 0.0835363 0.08348523 0.08336817
 0.08315661 0.08292957 0.08284531 0.08302574 0.08344866 0.08395237 0.08436187 0.08460042 0.08469199 0.08472151
 0.08480012 0.08498189 0.0851848 0.08526641 0.08520206 0.08512336 0.08515815 0.08528376 0.08536585 0.08531879
 0.08520577 0.08517474 0.08530354 0.08553107 0.08574519 0.08590791 0.08607227 0.08628696 0.08650276 0.08659345
 0.08649008 0.08627698 0.08611028 0.08605428 0.08605862 0.08608876 0.08619156 0.08639945 0.08663769 0.08678624
 0.0868133 0.08680093 0.08683555 0.086905 0.08692118 0.08682597 0.08665182 0.0864871 0.08640569 0.08642618
 0.08651069 0.08659035 0.08660606 0.08654318 0.08643302 0.08631928 0.08622609 0.08616718 0.08617947 0.08631182
 0.08655097 0.08677632 0.08683379 0.08667497 0.0864097 0.08620692 0.08614337 0.08615033 0.08609861 0.08592324
 0.08566554 0.08541396 0.08522522 0.08509859 0.08500215 0.08491272 0.08484533 0.08485205 0.08496926 0.08514476
 0.08524059 0.08514749 0.08489431 0.08461756 0.08443254 0.08435959 0.08435235 0.08435687 0.08435394 0.08437337
 0.08445115 0.08455673 0.08460021 0.08453543 0.08441971 0.08435416 0.08440179 0.08456437 0.08478118 0.08493988
 0.08495128 0.08484131 0.08473109 0.08471258 0.08477631 0.08486338 0.08494367 0.08502354 0.08511008 0.08520125
 0.08530707 0.08545719 0.08567522 0.08594523 0.08620828 0.0864011 0.08651055 0.08659333 0.08673447 0.08697879
 0.08729847 0.0876206 0.0878849 0.08808476 0.08825953 0.08844543 0.08864276 0.08884333 0.08907011 0.08935534
 0.08968689 0.09001422 0.09030853 0.09058616 0.09087196 0.09116688 0.09145965 0.09175717 0.09209488 0.09250416
 0.09295624 0.09335414 0.09361153 0.09374003 0.0938437 0.09403489 0.0943578 0.09475809 0.09510757 0.0953014
 0.09536697 0.09544772 0.09564789 0.09592681 0.09618366 0.09641004 0.09670015 0.09711492 0.09758744 0.09798205
 0.09822601 0.09836733 0.09850989 0.0987027 0.09889977 0.09903216 0.09910157 0.09917608 0.09930284 0.09947152
 0.09967607 0.09995718 0.1003413 0.1007738 0.1011593 0.1014508 0.1016643 0.1018285 0.1019547 0.1020415
 0.1020813 0.1020809 0.1020853 0.1021488 0.1022648 0.1023619 0.1023939 0.1024 0.1024547 0.1025919
 0.1028061 0.1030866 0.1034099 0.1037234 0.1039917 0.104256 0.1045912 0.1049869 0.1053204 0.1054856
 0.1055122 0.1055117 0.1055417 0.1055872 0.1056539 0.1058 0.1060601 0.1063948 0.1067419 0.1070808
 0.1074247 0.1077741 0.108094 0.1083296 0.108441 0.1084388 0.1083922 0.1083965 0.1085229 0.1087816
 0.1091187 0.1094523 0.1097232 0.1099096 0.1100017 0.109994 0.1099278 0.1099049 0.1100092 0.1102088
 0.1103689 0.1103657 0.1101659 0.1097999 0.1092974 0.1086783 0.107989 0.1073165 0.1067531 0.1063507
 0.1061201 0.1060766 0.1062638 0.1067077 0.107352 0.1080677 0.1087299 0.1092558 0.1095678 0.1095766
 0.1092435 0.108638 0.1079006 0.1071572 0.1064758 0.1058667 0.105295 0.1047234 0.1041914 0.10385
 0.1038941 0.104448 0.1055013 0.1069149 0.1084687 0.1099365 0.1111718 0.1121544 0.1129588 0.113673
 0.1143444 0.1149937 0.1156435 0.1163018 0.1169324 0.1174831 0.1179478 0.1183701 0.1187842 0.1191811
 0.1195325 0.1198227 0.1200604 0.1202735 0.1204802 0.120652 0.1207309 0.1206992 0.1206064 0.1205073
 0.120399 0.1202319 0.1199611 0.1195778 0.1191269 0.1187255 0.1185511 0.1187721 0.1194526 0.1205099
 0.1217742 0.1230937 0.1243762 0.1255413 0.1264912 0.1271652 0.1275997 0.1278994 0.1281591 0.1284284
 0.1287237 0.1290417 0.1293624 0.1296646 0.1299438 0.130218 0.1305155 0.1308482 0.1311915 0.1314984
 0.1317476 0.1319758 0.132249 0.1325993 0.1329918 0.1333592 0.133674 0.1339726 0.1342944 0.1346143
 0.1348688 0.1350417 0.1351906 0.13539 0.1356764 0.1360423 0.1364418 0.136801 0.1370616 0.1372308
 0.1373734 0.1375482 0.1377667 0.1380076 0.1382519 0.1384951 0.1387414 0.1390019 0.1392919 0.1396118
 0.1399259 0.140178 0.1403443 0.1404635 0.140603 0.140798 0.1410304 0.1412603 0.1414717 0.1416905
 0.1419552 0.1422676 0.1425762 0.1428183 0.1429768 0.1430892 0.143208 0.1433619 0.1435495 0.1437565
 0.1439696 0.1441799 0.1443841 0.1445874 0.1447999 0.1450233 0.1452473 0.1454612 0.1456657 0.1458672
 0.1460683 0.1462693 0.1464781 0.146712 0.1469855 0.1472896 0.1475855 0.1478295 0.1480074 0.1481411
 0.1482651 0.1484025 0.1485621 0.1487441 0.1489417 0.1491445 0.1493455 0.1495472 0.1497567 0.1499748
 0.1501945 0.150408 0.1506136 0.1508147 0.1510182 0.1512337 0.1514642 0.1516957 0.1519067 0.1520906
 0.1522638 0.1524476 0.1526483 0.1528551 0.153052 0.1532334 0.1534104 0.1535994 0.1538037 0.1540107
 0.154208 0.1543966 0.1545863 0.1547846 0.1549912 0.155198 0.155395 0.1555786 0.1557578 0.1559476
 0.1561545 0.1563683 0.1565736 0.1567652 0.1569504 0.1571383 0.1573333 0.157535 0.1577385 0.1579382
 0.158133 0.1583262 0.1585185 0.1587085 0.1588992 0.1590958 0.1592992 0.1595053 0.1597101 0.1599112
 0.1601098 0.1603111 0.1605189 0.16073 0.1609398 0.1611498 0.161365 0.1615857 0.161807 0.1620223
 0.1622289 0.1624318 0.1626413 0.1628635 0.1630943 0.1633232 0.1635397 0.1637408 0.1639314 0.1641182
 0.1643004 0.1644741 0.1646414 0.1648086 0.1649802 0.1651583 0.165344 0.1655348 0.1657276 0.1659245
 0.1661285 0.1663356 0.1665387 0.166736 0.1669307 0.1671263 0.1673253 0.1675276 0.1677314 0.1679372
 0.1681458 0.1683552 0.1685638 0.1687741 0.1689858 0.1691924 0.1693917 0.1695888 0.1697886 0.169992
 0.1702012 0.1704176 0.1706395 0.1708646 0.1710885 0.1713025 0.1715031 0.1716982 0.1718979 0.1721052
 0.1723199 0.1725397 0.1727564 0.1729657 0.1731728 0.1733793 0.1735783 0.1737718 0.1739737 0.1741905
 0.1744143 0.1746346 0.1748452 0.1750471 0.1752522 0.1754714 0.1756992 0.1759238 0.176143 0.1763584
 0.176568 0.1767732 0.1769741 0.1771549 0.1772749 0.1772269 0.1767355 0.175257 0.1719717 0.1659398
 0.1564663 0.1435347 0.1279731 0.1111672 0.09454718 0.07920711 0.06579025 0.05457366 0.04561358 0.03884086
 0.03412046 0.03134235 0.03051288 0.03185203 0.03590733 0.04323266 0.05316051 0.06271309 0.06776007 0.06627794
 0.06028483 0.05400132 0.05034327 0.04951504 0.05027215 0.05155635 0.05303354 0.05489169 0.05745191 0.06079902
 0.06477161 0.06936876 0.07494231 0.08175211 0.08943935 0.09717783 0.1043839 0.1111714 0.1180752 0.1254025
 0.1329098 0.140046 0.1463947 0.1518807 0.1566806 0.1610289 0.165087 0.1689291 0.1725904 0.1760643
 0.1792242 0.1817982 0.1835058 0.1842715 0.184317 0.1840386 0.1837792 0.1836961 0.1838019 0.1840688
 0.1844769 0.18501 0.1856501 0.1863765 0.1871614 0.187976 0.1887968 0.1895997 0.1903606 0.1910712
 0.1917369 0.1923575 0.1929237 0.1934334 0.1938936 0.1943124 0.1947 0.1950703 0.1954316 0.1957824
 0.1961176 0.1964321 0.1967213 0.1969837 0.1972221 0.1974399 0.1976417 0.197838 0.1980404 0.1982547
 0.1984817 0.1987197 0.1989618 0.1991963 0.1994126 0.1996064 0.1997841 0.1999634 0.2001591 0.200366
 0.2005651 0.2007491 0.2009292 0.2011179 0.201316 0.201518 0.2017188 0.2019144 0.2021042 0.2022931
 0.2024875 0.2026885 0.2028897 0.2030835 0.2032729 0.2034736 0.2036959 0.2039286 0.2041532 0.2043654
 0.2045726 0.2047763 0.2049744 0.2051701 0.205364 0.2055435 0.2056984 0.205843 0.2060109 0.2062223
 0.2064635 0.2067013 0.2069157 0.2071132 0.2073085 0.2075052 0.2076956 0.2078708 0.2080337 0.2082101
 0.208432 0.2087002 0.208979 0.2092393 0.2094826 0.209719 0.2099524 0.2101891 0.2104278 0.2106375
 0.2107841 0.210888 0.2110302 0.2112849 0.2116473 0.2120314 0.2123495 0.2125877 0.2127948 0.2130192
 0.2132791 0.213551 0.2137509 0.2137883 0.2137055 0.2137074 0.2139764 0.2144879 0.2150594 0.2155384
 0.215896 0.2161797 0.2164344 0.2166596 0.2168131 0.2168591 0.2168382 0.2168899 0.2171584 0.2176454
 0.2181956 0.2186533 0.2189835 0.2192242 0.2194102 0.2195677 0.2196706 0.2195814 0.2191993 0.2187276
 0.2186233 0.2191552 0.2200993 0.2209774 0.2215293 0.2218474 0.2221125 0.2223717 0.2225865 0.222671
 0.2223877 0.2214818 0.2201707 0.2192853 0.2195836 0.2209836 0.2226995 0.2240315 0.2248108 0.2252187
 0.225476 0.2256969 0.2258063 0.2255476 0.2247673 0.2237961 0.2233668 0.2239401 0.2251856 0.2263363
 0.2269731 0.2272453 0.2274576 0.2277274 0.2279099 0.2275579 0.2261709 0.2239339 0.2220962 0.222094
 0.2241454 0.2269894 0.2291375 0.2301574 0.2305545 0.2306685 0.2301642 0.2286234 0.2261726 0.223422
 0.2212648 0.2207532 0.2224094 0.225354 0.2278006 0.2288152 0.2291033 0.2298379 0.2312566 0.2326695
 0.2333633 0.2331577 0.2322769 0.2309502 0.2293036 0.2277331 0.2271301 0.2282478 0.2307876 0.2335043
 0.2353562 0.2362938 0.2367222 0.2362852 0.2336181 0.2279875 0.2213477 0.2178004 0.2199749 0.226278
 0.2326044 0.2363744 0.2379509 0.2387064 0.2391815 0.238937 0.2368156 0.2315723 0.2238313 0.2173251
 0.2163745 0.2216112 0.2292611 0.2346693 0.2354737 0.2318566 0.2257116 0.2200769 0.2178833 0.2201749
 0.2256625 0.2319942 0.2371628 0.2400474 0.2403933 0.2387001 0.2361899 0.2345182 0.2345733 0.2351593
 0.2339024 0.2302493 0.2263853 0.2240221 0.2217467 0.2176371 0.2134944 0.2136538 0.2193535 0.2266639
 0.2309046 0.2313857 0.2305517 0.2295172 0.226145 0.218114 0.2073189 0.1999546 0.2011061 0.2094695
 0.2185123 0.2228716 0.2226178 0.2213316 0.2213296 0.2213072 0.2181835 0.2111268 0.203603 0.2004657
 0.2027872 0.2068946 0.2087123 0.2070116 0.20198 0.1939132 0.1855564 0.1829454 0.1903186 0.2049252
 0.2191742 0.2268764 0.2255035 0.2148355 0.1978589 0.1825962 0.1781966 0.1867346 0.200686 0.2098501
 0.209437 0.2009059 0.1876166 0.1725504 0.1597086 0.1545234 0.1606054 0.1760961 0.1936834 0.2042028
 0.2016901 0.1880512 0.173553 0.1694362 0.1776424 0.189439 0.1952003 0.1931489 0.1879901 0.1848764
 0.1864437 0.1923138 0.1994812 0.2051437 0.2089422 0.2097805 0.2028058 0.1852409 0.1641187 0.1516523
 0.1525536 0.1616158 0.1734756 0.1874332 0.2010941 0.2070598 0.2012625 0.1906614 0.1873205 0.1956019
 0.2084348 0.2159769 0.2153637 0.2112336 0.2085658 0.2073763 0.2051987 0.2028292 0.2045356 0.2121728
 0.221951 0.228667 0.2311174 0.2316406 0.2321454 0.2326556 0.2326484 0.2319332 0.2305796 0.229041
 0.2280086 0.2276322 0.2273863 0.226873 0.2257832 0.2226626 0.2152282 0.2035701 0.1921874 0.1864181
 0.1867794 0.1893332 0.1915528 0.1937886 0.1937854 0.1851609 0.1658298 0.1448972 0.1360278 0.1442463
 0.1622052 0.1785651 0.1866768 0.1851453 0.1744446 0.1571282 0.1405346 0.134487 0.1432865 0.1615889
 0.1801181 0.1936586 0.2016548 0.2037804 0.1989509 0.1884774 0.177339 0.1713345 0.1735464 0.182987
 0.1949357 0.2021558 0.1984292 0.1847344 0.1719781 0.1729509 0.1889082 0.2074806 0.2165798 0.2166439
 0.2157372 0.217024 0.2171945 0.2152503 0.2160403 0.2236031 0.2352233 0.2441045 0.2453344 0.2378296
 0.22372 0.2088406 0.2012012 0.2045295 0.2139752 0.2213322 0.2229462 0.2192255 0.2098142 0.1956398
 0.1840433 0.1843593 0.1971098 0.2127874 0.2226598 0.2267205 0.229727 0.2330068 0.2328537 0.2261544
 0.2156022 0.2080428 0.2077109 0.2125284 0.2176232 0.2204658 0.2209016 0.2182406 0.2116866 0.2036472
 0.1997622 0.2039972 0.2145164 0.2253736 0.2318059 0.2331993 0.2317038 0.2294421 0.2270826 0.2239924
 0.2196493 0.2154928 0.2146532 0.2186092 0.2248428 0.2294331 0.2315477 0.2337137 0.237838 0.2425815
 0.244997 0.2437478 0.240375 0.2379502 0.2386118 0.2418684 0.2449645 0.2452302 0.2426203 0.2399934
 0.2404793 0.2444963 0.2497005 0.2536569 0.2558241 0.2570387 0.2580795 0.2589868 0.2590319 0.2572641
 0.2538531 0.2508751 0.2508433 0.2542153 0.2589574 0.2626517 0.2644573 0.2649679 0.2648673 0.2642167
 0.262851 0.2610327 0.2594803 0.2588012 0.2590508 0.2598629 0.2608353 0.2617145 0.262382 0.2628319
 0.2631318 0.2633376 0.2634674 0.2635531 0.2636297 0.2636614 0.2635801 0.2634326 0.263399 0.2635934
 0.2639149 0.2641559 0.2641911 0.2639762 0.2634373 0.262501 0.2612315 0.2598066 0.2583148 0.2566915
 0.254968 0.253544 0.2530687 0.2539484 0.2559685 0.2584272 0.2606223 0.262205 0.2631704 0.2636691
 0.2638778 0.2639466 0.2639593 0.2639184 0.263787 0.2635508 0.2632362 0.2628808 0.2625036 0.2621157
 0.2617483 0.2614402 0.2611871 0.2609239 0.2605773 0.260127 0.2596098 0.2590769 0.2585522 0.2580141
 0.2574067 0.2566753 0.2558047 0.2548339 0.2538459 0.2529268 0.2521114 0.2513617 0.2506121 0.2498222
 0.2489634 0.2479849 0.246856 0.2456526 0.2445457 0.2436656 0.242995 0.2424066 0.2417741 0.24103
 0.2401598 0.2391858 0.2381518 0.2370901 0.2360021 0.2348731 0.2336888 0.2324296 0.2310765 0.2296331
 0.2281249 0.2265707 0.2249751 0.2233438 0.2216738 0.2199145 0.2179548 0.2156514 0.2128695 0.2095182
 0.2055798 0.201127 0.1963148 0.1913469 0.1864296 0.1817355 0.177396 0.1735136 0.1701704 0.1674288
 0.1653357 0.1639234 0.1632075 0.1631917 0.1638761 0.165245 0.167236 0.169725 0.1725444 0.175516
 0.1784765 0.1812922 0.183886 0.186264 0.1884953 0.1906315 0.1926484 0.19448 0.1960951 0.1975087
 0.1987365 0.1997752 0.2006304 0.2013352 0.2019303 0.2024368 0.202859 0.2032071 0.2035051 0.2037716
 0.2040046 0.2041958 0.2043539 0.2045061 0.2046802 0.2048908 0.2051411 0.205437 0.2057976 0.2062392
 0.2067486 0.2072885 0.2078376 0.2084084 0.2090218 0.2096854 0.2104075 0.2112213 0.212177 0.2133054
 0.2145875 0.2159587 0.2173388 0.218655 0.2198411 0.2208352 0.2215912 0.2220937 0.222362 0.2224405
 0.2223765 0.2222002 0.2219244 0.221559 0.2211169 0.2206066 0.2200315 0.2193989 0.2187244 0.218024
 0.217311 0.2166003 0.2159088 0.2152431 0.2145901 0.2139314 0.2132691 0.212625 0.2120134 0.2114271
 0.2108521 0.2102824 0.2097157 0.2091495 0.208582 0.2080017 0.2073717 0.2066417 0.2057877 0.2048307
 0.2038045 0.2027146 0.2015387 0.2002605 0.1988904 0.1974518 0.1959605 0.194413 0.1927915 0.1910748
 0.1892485 0.1873112 0.1852878 0.1832425 0.1812631 0.1794193 0.1777316 0.1761766 0.1747132 0.173311
 0.1719654 0.1706856 0.1694708 0.168308 0.1671881 0.1661069 0.1650594 0.1640507 0.1631105 0.1622812
 0.1615858 0.1610101 0.160512 0.1600527 0.1596216 0.1592367 0.1589305 0.158741 0.1586923 0.1587587
 0.1588598 0.1589091 0.1588657 0.1587419 0.1585823 0.1584387 0.1583461 0.1583096 0.1583035 0.1582705
 0.1581294 0.1577993 0.1572145 0.1563228 0.1551033 0.1535907 0.1518651 0.1500268 0.1481947 0.1464995
 0.1450426 0.1438727 0.1429954 0.14237 0.141905 0.1415102 0.1411701 0.1409537 0.1409479 0.1411584
 0.141455 0.1416512 0.1416801 0.1416663 0.141803 0.1421962 0.1428248 0.1435815 0.1443357 0.1449975
 0.1455313 0.1459188 0.1461559 0.1462777 0.1463252 0.1462958 0.1461734 0.1459778 0.1457407 0.145469
 0.1451488 0.1447516 0.1442472 0.1436369 0.1429467 0.1421791 0.1413232 0.1403917 0.1393834 0.1382634
 0.1370747 0.1360186 0.1353498 0.1352185 0.1356135 0.1363875 0.1373511 0.1383899 0.1394279 0.1402635
 0.1406408 0.1406325 0.1408157 0.1418565 0.1438838 0.1463489 0.1485094 0.1499676 0.1507185 0.1508565
 0.1504316 0.1494972 0.1480802 0.1461392 0.1436864 0.1408646 0.1378375 0.1347459 0.131786 0.1291535
 0.1269282 0.1251169 0.1237152 0.1227573 0.122371 0.1221939 0.1203384 0.1143641 0.1050351 0.09801781
 0.09911989 0.1077717 0.1174206 0.1224544 0.1226711 0.1210204 0.1195537 0.1185774 0.1179877 0.1179538
 0.1186335 0.119878 0.1212656 0.1223745 0.1230525 0.123365 0.1232793 0.1224231 0.1200521 0.1153176
 0.107931 0.09874907 0.08950657 0.08182444 0.07646132 0.07329789 0.07170102 0.07090968 0.07040159 0.07012498
 0.07038738 0.07148328 0.07343909 0.07608812 0.07924701 0.08268622 0.08601961 0.08884982 0.09106202 0.09282415
 0.09427375 0.09534052 0.09589391 0.09592867 0.0955593 0.09492345 0.09414007 0.0932923 0.09237804 0.09131367
 0.09008442 0.08888757 0.08801678 0.08758131 0.08743596 0.08738978 0.08736762 0.08736457 0.08736416 0.087337
 0.08727155 0.08721647 0.08729771 0.0876227 0.08814351 0.08866994 0.08902851 0.08918609 0.08923175 0.08922405
 0.0890399 0.08848602 0.08763687 0.08686963 0.08637635 0.08583446 0.08483543 0.08351902 0.08249637 0.08218284
 0.08243061 0.08279318 0.08293773 0.08278914 0.08249913 0.08238368 0.0827132 0.0833891 0.08392728 0.08392017
</values></Ydata></ScRf><Data_Parameters_AB><parameter name="DPF">1</parameter><parameter name="NPT">3497</parameter><parameter name="FXV">3996</parameter><parameter name="LXV">500</parameter><parameter name="CSF">1</parameter><parameter name="MXY">0.198969289660454</parameter><parameter name="MNY">-0.0793808102607727</parameter><parameter name="DAT">02/06/2022</parameter><parameter name="TIM">11:39:09.101 (GMT+2)</parameter><parameter name="DXU">WN</parameter></Data_Parameters_AB><AB__Qtest><MainReport name="Quality Test Report"><Header><Line><Legend>Test result ok/not ok [1/0]: </Legend><Value>0</Value></Line><Line><Legend>Method file: </Legend><Value>C:\Users\Public\Documents\Bruker\OPUS_8.2.28\QT\IRBT_v3_default.QT</Value></Line></Header><Matrix><Line><Legend></Legend><Legend>min</Legend><Legend>max</Legend><Legend>measured</Legend></Line><Line><Value>Absorption (X-Range 1):</Value><Value>0.400000</Value><Value>2.000000</Value><Value>0.233818</Value></Line><Line><Value>Noise (X-Range 4):</Value><Value></Value><Value>0.000300</Value><Value>0.000049</Value></Line><Line><Value>Signal/Noise (X-Range 2):</Value><Value>200.000000</Value><Value></Value><Value>112.667880</Value></Line><Line><Value>Signal/Noise (X-Range 3):</Value><Value>40.000000</Value><Value></Value><Value>58.884707</Value></Line><Line><Value>Water vapour (X-Range 5):</Value><Value></Value><Value>0.000300</Value><Value>0.000087</Value></Line><Line><Value>Signal/Water (X-Range 2):</Value><Value>100.000000</Value><Value></Value><Value>62.901670</Value></Line><Line><Value>Signal/Water (X-Range 3):</Value><Value>20.000000</Value><Value></Value><Value>32.874910</Value></Line><Line><Value>Fringes (X-Range 6):</Value><Value></Value><Value>0.000100</Value><Value>0.000068</Value></Line></Matrix></MainReport></AB__Qtest><Data_Parameters_ScSm><parameter name="DPF">1</parameter><parameter name="NPT">1814</parameter><parameter name="FXV">3996.33169228125</parameter><parameter name="LXV">499.541461535156</parameter><parameter name="CSF">1</parameter><parameter name="MXY">0.266372114419937</parameter><parameter name="MNY">0.034148208796978</parameter><parameter name="DAT">02/06/2022</parameter><parameter name="TIM">11:39:09.101 (GMT+2)</parameter><parameter name="DXU">WN</parameter></Data_Parameters_ScSm><Data_Parameters_ScRf><parameter name="DPF">1</parameter><parameter name="NPT">1820</parameter><parameter name="FXV">4004.04661832813</parameter><parameter name="LXV">495.683998511719</parameter><parameter name="CSF">1</parameter><parameter name="MXY">0.264967858791351</parameter><parameter name="MNY">0.0305128842592239</parameter><parameter name="DAT">02/06/2022</parameter><parameter name="TIM">11:38:42.993 (GMT+2)</parameter><parameter name="DXU">WN</parameter></Data_Parameters_ScRf><Optic_Parameters_Rf><parameter name="APR">0</parameter><parameter name="APT">Open</parameter><parameter name="BMS">KBr</parameter><parameter name="DTC">RT-DLaTGS_IR-Biotyper [Microplate reader]</parameter><parameter name="HPF">0</parameter><parameter name="LPF">10.0</parameter><parameter name="LPV">4000</parameter><parameter name="PGR">0</parameter><parameter name="RCH">Module port</parameter><parameter name="RDX">0</parameter><parameter name="SRC">MIR</parameter><parameter name="VEL">10.0</parameter><parameter name="SON">Off</parameter></Optic_Parameters_Rf><Acquisition_Parameters_Rf><parameter name="ADT">1</parameter><parameter name="AQM">DD</parameter><parameter name="CFE">0</parameter><parameter name="COR">0</parameter><parameter name="DEL">0</parameter><parameter name="DLY">0</parameter><parameter name="HFW">8000</parameter><parameter name="LFW">0</parameter><parameter name="NSR">32</parameter><parameter name="PLF">AB</parameter><parameter name="RES">6</parameter><parameter name="RGN">-1</parameter><parameter name="STR">0</parameter><parameter name="TCL">MakeCompatibleScalar (0, {WSV=1.000000, ARV=0});</parameter><parameter name="TDL">37</parameter><parameter name="RPO">0</parameter></Acquisition_Parameters_Rf><FT_-_Parameters_Rf><parameter name="APF">B3</parameter><parameter name="HFQ">500</parameter><parameter name="LFQ">4000</parameter><parameter name="NLI">0</parameter><parameter name="PHR">24</parameter><parameter name="PHZ">ML</parameter><parameter name="SPZ">NO</parameter><parameter name="ZFF">1</parameter></FT_-_Parameters_Rf><Optic_Parameters_><parameter name="APR">0</parameter><parameter name="APT">Open</parameter><parameter name="BMS">KBr</parameter><parameter name="CHN">Module port</parameter><parameter name="DTC">RT-DLaTGS_IR-Biotyper [Microplate reader]</parameter><parameter name="HPF">0</parameter><parameter name="LPF">10.0</parameter><parameter name="LPV">4000</parameter><parameter name="PGN">0</parameter><parameter name="RDX">0</parameter><parameter name="SRC">MIR</parameter><parameter name="VEL">10.0</parameter><parameter name="SON">Off</parameter></Optic_Parameters_><FT_-_Parameters_><parameter name="APF">B3</parameter><parameter name="HFQ">500</parameter><parameter name="LFQ">4000</parameter><parameter name="NLI">0</parameter><parameter name="PHR">24</parameter><parameter name="PHZ">ML</parameter><parameter name="SPZ">NO</parameter><parameter name="ZFF">1</parameter></FT_-_Parameters_><Acquisition_Parameters_><parameter name="ADT">1</parameter><parameter name="AQM">DD</parameter><parameter name="CFE">0</parameter><parameter name="COR">0</parameter><parameter name="DEL">0</parameter><parameter name="DLY">0</parameter><parameter name="HFW">8000</parameter><parameter name="LFW">0</parameter><parameter name="NSS">32</parameter><parameter name="PLF">AB</parameter><parameter name="RES">6</parameter><parameter name="SOT">0</parameter><parameter name="TCL">MakeCompatibleScalar (0, {WSV=1.000000, ARV=0});</parameter><parameter name="TDL">37</parameter><parameter name="SPO">0</parameter><parameter name="SGN">-1</parameter></Acquisition_Parameters_><Instrument_Parameters_Rf><parameter name="HFL">15800.168544</parameter><parameter name="LFL">0</parameter><parameter name="LWN">15800.168544</parameter><parameter name="ABP">32197</parameter><parameter name="SSP">1</parameter><parameter name="ARG">2</parameter><parameter name="ASG">2</parameter><parameter name="ASS">32</parameter><parameter name="GFW">16</parameter><parameter name="GBW">16</parameter><parameter name="BFW">0</parameter><parameter name="BBW">0</parameter><parameter name="PKA">7271</parameter><parameter name="PKL">4996</parameter><parameter name="PRA">7451</parameter><parameter name="PRL">5001</parameter><parameter name="P2A">1</parameter><parameter name="P2L">1</parameter><parameter name="P2R">1</parameter><parameter name="P2K">1</parameter><parameter name="DAQ">0</parameter><parameter name="AG2">1</parameter><parameter name="SSM">1</parameter><parameter name="RSN">26075</parameter><parameter name="CRR">0</parameter><parameter name="SRT">1654169922.993</parameter><parameter name="DUR">19.6379852294922</parameter><parameter name="TSC">28.8</parameter><parameter name="MVD">0.49975311756134</parameter><parameter name="AN1">0.225842992740419</parameter><parameter name="AN2">0</parameter><parameter name="VSN">2.485 Apr  4 2017</parameter><parameter name="SRN">0085</parameter><parameter name="CAM">0</parameter><parameter name="INS">IR-Biotyper</parameter><parameter name="FOC">69</parameter><parameter name="RDY">1</parameter><parameter name="ARS">32</parameter></Instrument_Parameters_Rf><Sample_Parameters_><parameter name="BLD"></parameter><parameter name="CNM">Admin</parameter><parameter name="CPY"></parameter><parameter name="DPM"></parameter><parameter name="EXP">IRBT_v3_32Scans.XPM</parameter><parameter name="LCT"></parameter><parameter name="SFM">Microplate, HTS-XT</parameter><parameter name="SNM">220602-1054_GFG29M (D_2)_G4_5e148975-9e0e-47c8-8455-e045c46cf7a4.0</parameter><parameter name="XPP">C:\Users\Public\Documents\Bruker\OPUS_8.2.28\XPM</parameter><parameter name="IST">OK</parameter><parameter name="CPG">1252</parameter><parameter name="UID">c26499d5-105f-4dd6-b409-9f42bd37557e</parameter></Sample_Parameters_><Instrument_Parameters_><parameter name="HFL">15800.168544</parameter><parameter name="LFL">0</parameter><parameter name="LWN">15800.168544</parameter><parameter name="ABP">32197</parameter><parameter name="SSP">1</parameter><parameter name="ASG">2</parameter><parameter name="ARG">2</parameter><parameter name="ASS">32</parameter><parameter name="GFW">16</parameter><parameter name="GBW">16</parameter><parameter name="BFW">0</parameter><parameter name="BBW">0</parameter><parameter name="PKA">7142</parameter><parameter name="PKL">4988</parameter><parameter name="PRA">7416</parameter><parameter name="PRL">4993</parameter><parameter name="P2A">1</parameter><parameter name="P2L">1</parameter><parameter name="P2R">1</parameter><parameter name="P2K">1</parameter><parameter name="DAQ">0</parameter><parameter name="AG2">1</parameter><parameter name="SSM">1</parameter><parameter name="RSN">13663</parameter><parameter name="CRR">0</parameter><parameter name="SRT">1654169949.102</parameter><parameter name="DUR">19.6379852294922</parameter><parameter name="TSC">28.2</parameter><parameter name="MVD">3.32076239585876</parameter><parameter name="AN1">0.225835011677665</parameter><parameter name="AN2">0</parameter><parameter name="VSN">2.485 Apr  4 2017</parameter><parameter name="SRN">0085</parameter><parameter name="CAM">0</parameter><parameter name="INS">IR-Biotyper</parameter><parameter name="FOC">69</parameter><parameter name="RDY">1</parameter></Instrument_Parameters_><History/></OPUSDataFile>
