<?xml version="1.0" encoding="UTF-8" ?>
<OPUSDataFile><AB><Ydata ylabel="Absorbance Units"><values byteorder="INTEL" format="FLOAT32" numvalues="3497"> -0.07878291 -0.07880204 -0.07883152 -0.0788723 -0.07891023 -0.07894459 -0.07896768 -0.07898013 -0.07898826 -0.07899293
 -0.07900332 -0.07901739 -0.07903322 -0.07904762 -0.07905092 -0.07904478 -0.07902587 -0.07900137 -0.07897822 -0.07896119
 -0.07895768 -0.07896473 -0.07898349 -0.07900786 -0.0790355 -0.07906415 -0.07909251 -0.07912172 -0.07915193 -0.07918303
 -0.07921509 -0.07924713 -0.07927909 -0.07931064 -0.07934181 -0.07937341 -0.07940555 -0.07943935 -0.07947498 -0.07951387
 -0.0795556 -0.07960033 -0.07964646 -0.0796917 -0.07973425 -0.07977087 -0.07980159 -0.07982482 -0.07984303 -0.07985729
 -0.07986886 -0.07987931 -0.0798852 -0.07988627 -0.07987777 -0.07985813 -0.07983023 -0.07979347 -0.07976104 -0.07973365
 -0.07972506 -0.07973516 -0.07976637 -0.0798165 -0.07987389 -0.07993618 -0.07998826 -0.0800304 -0.08005471 -0.08006507
 -0.08006297 -0.08005555 -0.08005095 -0.08005588 -0.08007984 -0.08012077 -0.08018326 -0.08025203 -0.08032387 -0.08038113
 -0.08041738 -0.08043013 -0.08041587 -0.08039217 -0.08035942 -0.08034442 -0.08034872 -0.08039405 -0.08047992 -0.08060648
 -0.08076787 -0.0809302 -0.08108506 -0.08117966 -0.08121958 -0.08118591 -0.0811023 -0.08100007 -0.08089555 -0.08082361
 -0.08077967 -0.0807747 -0.08078985 -0.08081821 -0.08084376 -0.08085595 -0.08085932 -0.08085032 -0.08085061 -0.08086351
 -0.08090274 -0.08097154 -0.08105621 -0.08115625 -0.08124103 -0.08131 -0.08134831 -0.08135942 -0.08135751 -0.08134618
 -0.08134768 -0.08135969 -0.081389 -0.08142873 -0.08146914 -0.08150874 -0.08154011 -0.08156934 -0.08160105 -0.08163293
 -0.08166729 -0.08169258 -0.08170176 -0.08170096 -0.08168565 -0.08168909 -0.0817158 -0.08179371 -0.0819294 -0.08209857
 -0.08230083 -0.08242822 -0.08247752 -0.08237185 -0.08213077 -0.08184435 -0.08152787 -0.08129002 -0.08112284 -0.08106145
 -0.08109143 -0.08120896 -0.08138902 -0.08160698 -0.08182598 -0.08200725 -0.08213113 -0.08216673 -0.0821436 -0.08206113
 -0.08196761 -0.08187865 -0.0818074 -0.08176038 -0.08172524 -0.08170067 -0.08168612 -0.08168137 -0.0817004 -0.08174323
 -0.08181345 -0.08190784 -0.082008 -0.08210952 -0.08218493 -0.08223422 -0.0822418 -0.08221415 -0.08215334 -0.08207074
 -0.08197942 -0.08189146 -0.08182164 -0.08177479 -0.08175923 -0.08176981 -0.08180711 -0.08186297 -0.08193553 -0.08201881
 -0.08211266 -0.08220546 -0.08229744 -0.0823609 -0.08239421 -0.08237206 -0.08229517 -0.0821722 -0.08200749 -0.08183413
 -0.08165426 -0.08149323 -0.08135092 -0.08123931 -0.0811584 -0.08111473 -0.08110475 -0.08112973 -0.0811772 -0.08123907
 -0.08130013 -0.08134779 -0.08137976 -0.08138961 -0.08139024 -0.0813832 -0.08138197 -0.08138991 -0.08140932 -0.08144131
 -0.08147991 -0.08152484 -0.08156898 -0.08161195 -0.08164716 -0.08167437 -0.08168828 -0.08168977 -0.08167811 -0.08165701
 -0.08163451 -0.08161605 -0.08161508 -0.08163401 -0.0816828 -0.08175656 -0.08185474 -0.08197203 -0.0821037 -0.08225238
 -0.08241936 -0.08260199 -0.082805 -0.08299804 -0.0831788 -0.08330759 -0.08337842 -0.08338418 -0.08332391 -0.08320406
 -0.08302524 -0.08279368 -0.08251552 -0.08223422 -0.0819594 -0.08175531 -0.08162034 -0.08158915 -0.08164015 -0.08175808
 -0.08190463 -0.08202137 -0.08209824 -0.08209555 -0.08205251 -0.08198135 -0.0819131 -0.0818686 -0.08184087 -0.08183514
 -0.08182435 -0.08180399 -0.08175768 -0.08168129 -0.08158738 -0.08147611 -0.08137867 -0.08129662 -0.08125927 -0.08126549
 -0.08132568 -0.08143029 -0.08155056 -0.08166963 -0.08172192 -0.08171391 -0.08161676 -0.08147029 -0.08131635 -0.08117469
 -0.08108589 -0.08102634 -0.08099777 -0.08096148 -0.0808982 -0.08079953 -0.0806536 -0.08049148 -0.08031619 -0.08015762
 -0.08002114 -0.0799057 -0.07981196 -0.07971659 -0.07961881 -0.07950308 -0.07937215 -0.07923895 -0.07910614 -0.07899227
 -0.07889593 -0.07882159 -0.07876985 -0.07874443 -0.07874432 -0.07877441 -0.07881904 -0.07887096 -0.07890266 -0.07889301
 -0.07883476 -0.07871619 -0.07855372 -0.0783524 -0.0781106 -0.07782958 -0.07749981 -0.07711811 -0.07670383 -0.07625757
 -0.07581399 -0.07537465 -0.07496659 -0.07459059 -0.07426628 -0.07399201 -0.07377418 -0.07360499 -0.07346722 -0.0733536
 -0.07324143 -0.07313091 -0.07301672 -0.07289011 -0.07274828 -0.07256293 -0.07231101 -0.07199284 -0.07159209 -0.0711621
 -0.07071603 -0.07028606 -0.06988393 -0.06949981 -0.06913424 -0.06877279 -0.06841424 -0.06805937 -0.06770884 -0.06737728
 -0.06706571 -0.06679107 -0.06654903 -0.06633565 -0.06613483 -0.06590044 -0.06562131 -0.06524365 -0.06479587 -0.06428842
 -0.06376068 -0.06325709 -0.06278424 -0.06236226 -0.06197582 -0.0616249 -0.06128836 -0.06096046 -0.06062596 -0.06028051
 -0.05992025 -0.05954447 -0.05914973 -0.05873598 -0.0582912 -0.05781512 -0.05730234 -0.05675573 -0.0561944 -0.0556223
 -0.05506726 -0.05452906 -0.05402205 -0.05354224 -0.05309046 -0.05265861 -0.05223794 -0.05181812 -0.05138374 -0.05093878
 -0.05047739 -0.05001943 -0.04957596 -0.04914438 -0.04873345 -0.04829942 -0.04783458 -0.04731048 -0.04671694 -0.04610308
 -0.04547068 -0.0448928 -0.04437074 -0.04391439 -0.0435181 -0.04314179 -0.04278192 -0.04240071 -0.04200165 -0.04157367
 -0.04112466 -0.04066519 -0.04019909 -0.0397387 -0.03927652 -0.03881188 -0.0383317 -0.03782495 -0.03729261 -0.03672824
 -0.03615287 -0.03557105 -0.03499993 -0.03444474 -0.03390721 -0.03338883 -0.03288225 -0.03238729 -0.03189036 -0.03139088
 -0.03087778 -0.03035219 -0.02981811 -0.02927723 -0.02874058 -0.02820574 -0.0276716 -0.0271348 -0.02658574 -0.02602933
 -0.02546664 -0.02490712 -0.02436177 -0.02383077 -0.02331951 -0.02281879 -0.02232553 -0.0218341 -0.02134059 -0.02085056
 -0.02036402 -0.01988921 -0.01942801 -0.01897684 -0.01853599 -0.01808942 -0.01763648 -0.01716578 -0.01667869 -0.01618153
 -0.01567595 -0.01517383 -0.0146732 -0.01417466 -0.01367554 -0.01316934 -0.01265875 -0.01214317 -0.01163005 -0.01112599
 -0.01063692 -0.01017025 -0.009722895 -0.009297721 -0.008881114 -0.008470758 -0.008050864 -0.007617482 -0.007163686 -0.006687402
 -0.006192666 -0.005679361 -0.005157986 -0.004629219 -0.004106853 -0.00359147 -0.003094607 -0.002615242 -0.002155347 -0.001712633
 -0.001281371 -0.000860343 -0.0004442502 -3.336387E-05 0.0003742389 0.0007776218 0.001176583 0.001570259 0.001956751 0.002340145
 0.002720104 0.003107003 0.003505048 0.0039158 0.004343126 0.004767485 0.00518735 0.005582388 0.005950138 0.006298642
 0.006628906 0.006970421 0.007323449 0.007704469 0.008108782 0.008523896 0.00894434 0.009346003 0.009730218 0.01008588
 0.01042239 0.01074815 0.01107079 0.01140381 0.01174096 0.01208474 0.01241945 0.01273761 0.01303243 0.01329784
 0.01354361 0.01376935 0.01399234 0.01421453 0.01445009 0.01470044 0.01496992 0.01525847 0.01555894 0.01587093
 0.01618726 0.01650958 0.01684279 0.01718708 0.01754861 0.01791957 0.01828861 0.01864537 0.0189682 0.01925811
 0.01950496 0.01972305 0.01991844 0.02010384 0.02028853 0.02047148 0.02065573 0.02083097 0.02099504 0.02114345
 0.02127397 0.02139769 0.02151484 0.02164528 0.02178993 0.02196267 0.02216294 0.0223922 0.02264797 0.02292096
 0.02320596 0.02348359 0.02374762 0.02397416 0.02416536 0.02430936 0.02442457 0.02452189 0.02462501 0.02475646
 0.02491875 0.02512504 0.02534611 0.02557776 0.02578588 0.02595947 0.02609728 0.02619486 0.02628393 0.0263668
 0.02646471 0.02657788 0.02668687 0.02678917 0.02685131 0.02687632 0.0268593 0.02680929 0.02675122 0.02669169
 0.02665732 0.02664757 0.02667412 0.02673072 0.02681652 0.02692242 0.02704155 0.02716938 0.02729979 0.02744067
 0.02759313 0.02776502 0.02796189 0.02816561 0.02837766 0.02855276 0.02868739 0.02874747 0.02873215 0.02865434
 0.0285183 0.02837096 0.02821385 0.02808041 0.02796602 0.02787156 0.02779758 0.02774259 0.02771626 0.02773559
 0.02779724 0.02791311 0.02804925 0.02818874 0.02829648 0.02834402 0.02834239 0.02828147 0.02821343 0.02814777
 0.02812254 0.02814813 0.02821037 0.02831078 0.02839802 0.02846949 0.02847862 0.02842662 0.02830498 0.02812217
 0.02791396 0.02769122 0.02750807 0.02736641 0.02730085 0.02729686 0.02735225 0.02744123 0.02753776 0.02762113
 0.02766543 0.02767285 0.02763282 0.02757226 0.02749555 0.02743353 0.02739454 0.02739215 0.02743012 0.02750725
 0.02762372 0.02777929 0.0279739 0.02820694 0.02847602 0.02875969 0.02905039 0.02929852 0.02949788 0.02959794
 0.02960854 0.02951841 0.02935902 0.02916844 0.02898077 0.02885022 0.0287797 0.02879803 0.02886366 0.02897055
 0.02905865 0.02910651 0.02907714 0.0289537 0.02874767 0.02845409 0.02812524 0.02776424 0.02742588 0.02711267
 0.02684525 0.02662192 0.02643161 0.02627336 0.02613584 0.02602171 0.02593494 0.02587538 0.02584849 0.02584326
 0.02585039 0.02584677 0.02580769 0.02570871 0.02552137 0.02524418 0.02486053 0.02440926 0.02389319 0.02337381
 0.022865 0.02240906 0.02201624 0.02168954 0.0214314 0.02121708 0.02104516 0.02087843 0.02071523 0.02052277
 0.02030435 0.02005772 0.01979246 0.01954081 0.01930439 0.01910907 0.01893525 0.01876747 0.01858017 0.01833494
 0.0180342 0.01765724 0.01724814 0.01681709 0.01642269 0.01608977 0.01584207 0.01569782 0.01561476 0.01559499
 0.01555289 0.0154811 0.01531936 0.01506496 0.01473065 0.01432179 0.01390218 0.01347572 0.01309799 0.0127643
 0.01249045 0.01226567 0.01207536 0.01190801 0.01173982 0.0115638 0.01136182 0.01113723 0.01088515 0.01061624
 0.01033494 0.01004778 0.009758627 0.009467547 0.009174578 0.008882639 0.008591413 0.008309691 0.008038335 0.007781999
 0.00754087 0.00730849 0.007084073 0.006856224 0.006625098 0.006384789 0.006137815 0.005889002 0.005641623 0.005406309
 0.005182434 0.004975847 0.004778705 0.004586414 0.004387516 0.004171557 0.003933209 0.003665074 0.003373352 0.003057307
 0.002728715 0.002390052 0.00204993 0.001709898 0.001375441 0.001047049 0.0007305589 0.0004262924 0.0001381814 -0.0001341446
 -0.0003935744 -0.0006412599 -0.0008851559 -0.001125879 -0.001370006 -0.001616782 -0.001868134 -0.002122065 -0.002376114 -0.002629259
 -0.002878439 -0.003126476 -0.003375244 -0.003624617 -0.003879156 -0.004121998 -0.004350373 -0.004541182 -0.004683526 -0.004791197
 -0.004858378 -0.004952455 -0.005078247 -0.005300372 -0.005622236 -0.006035903 -0.006535098 -0.00704092 -0.007546614 -0.007970117
 -0.008317434 -0.008560461 -0.008720457 -0.008828502 -0.008910561 -0.009023657 -0.009176732 -0.009409058 -0.009696176 -0.01003732
 -0.01039222 -0.0107361 -0.01105681 -0.01133886 -0.01160725 -0.01186657 -0.01213008 -0.01240586 -0.012656 -0.01287933
 -0.01301919 -0.01307253 -0.01303189 -0.01290277 -0.01275108 -0.01258705 -0.01250572 -0.01250719 -0.01264894 -0.01291006
 -0.01327613 -0.01371423 -0.01416354 -0.01460746 -0.01499755 -0.01535 -0.01566007 -0.01595095 -0.01623939 -0.01651858
 -0.01679273 -0.01703913 -0.01724863 -0.01743093 -0.01758279 -0.01774365 -0.01791827 -0.01811584 -0.01833707 -0.0185399
 -0.0187224 -0.01884576 -0.01891564 -0.01894479 -0.01894241 -0.01894974 -0.01896715 -0.01901788 -0.01909354 -0.01919045
 -0.01930221 -0.01941777 -0.01954088 -0.01966707 -0.01981345 -0.01998535 -0.02020515 -0.02048514 -0.02082602 -0.02123762
 -0.02167464 -0.02213557 -0.0225512 -0.02291336 -0.02319267 -0.02338696 -0.02354106 -0.02365963 -0.02381871 -0.02401691
 -0.02428849 -0.02461976 -0.02498083 -0.02535803 -0.02570116 -0.02601117 -0.02626426 -0.02647424 -0.02664693 -0.02679672
 -0.02693671 -0.02707617 -0.02722381 -0.0273828 -0.02755815 -0.0277415 -0.02793346 -0.02811651 -0.0282867 -0.02844113
 -0.02857721 -0.02872233 -0.0288779 -0.02907401 -0.02930965 -0.02957715 -0.02987144 -0.03015515 -0.03042954 -0.03067639
 -0.03090682 -0.03114008 -0.03138144 -0.03165321 -0.03194261 -0.0322457 -0.03254405 -0.03282007 -0.03306745 -0.03327662
 -0.03345172 -0.03359291 -0.03370129 -0.03377733 -0.03382022 -0.03382853 -0.03381159 -0.03376883 -0.03372589 -0.03368414
 -0.03367953 -0.03371348 -0.03381433 -0.03397944 -0.0342097 -0.03449593 -0.03480691 -0.03513122 -0.03542529 -0.03568355
 -0.03587532 -0.03600499 -0.03606371 -0.03606383 -0.03601047 -0.03591957 -0.03579995 -0.03566647 -0.03552612 -0.03538971
 -0.03526136 -0.0351465 -0.03504759 -0.03496047 -0.03488632 -0.03480373 -0.03471169 -0.0345738 -0.03438858 -0.03412607
 -0.03378959 -0.03338226 -0.0329137 -0.03242082 -0.03191199 -0.03142823 -0.03096803 -0.03054911 -0.03016194 -0.0298018
 -0.02946172 -0.02913367 -0.02881626 -0.02850779 -0.02820383 -0.02790381 -0.02759815 -0.02728284 -0.02695926 -0.02662387
 -0.02630295 -0.02599754 -0.02574492 -0.0255475 -0.02542197 -0.02536714 -0.02536621 -0.02541576 -0.02548501 -0.02557337
 -0.02566276 -0.02575375 -0.02584143 -0.02591987 -0.02597855 -0.02600748 -0.02598796 -0.02592208 -0.02580022 -0.02564373
 -0.0254604 -0.02527222 -0.02509205 -0.02492125 -0.02476498 -0.02460747 -0.02444701 -0.02426976 -0.02407333 -0.02385799
 -0.02362339 -0.02338926 -0.02315788 -0.02296817 -0.0228224 -0.02275768 -0.02276873 -0.02285896 -0.0230134 -0.02319679
 -0.02339629 -0.02356948 -0.02372206 -0.02383669 -0.02394486 -0.02405905 -0.02423003 -0.02448661 -0.02487461 -0.02542348
 -0.02613649 -0.02703048 -0.02804385 -0.02917606 -0.03032437 -0.03147896 -0.03255393 -0.03354291 -0.03441987 -0.03518641
 -0.03586965 -0.03647317 -0.0370347 -0.03755356 -0.0380467 -0.03851214 -0.03895116 -0.03936761 -0.03976791 -0.04015804
 -0.04055083 -0.04094087 -0.04133208 -0.04170482 -0.04204903 -0.04235005 -0.04259636 -0.0427953 -0.0429443 -0.0430642
 -0.04315872 -0.04323959 -0.04330988 -0.04335889 -0.04338634 -0.04336961 -0.04330872 -0.0432004 -0.04305103 -0.04290093
 -0.04276049 -0.0426949 -0.04270461 -0.04282949 -0.04305106 -0.04335887 -0.04372514 -0.04411207 -0.04449897 -0.04485421
 -0.04517233 -0.04543877 -0.04566448 -0.04584801 -0.04601041 -0.04615732 -0.04630227 -0.04645054 -0.04659458 -0.04673449
 -0.04685713 -0.04696108 -0.04706483 -0.0471718 -0.04734564 -0.04759127 -0.04797899 -0.04850104 -0.04917216 -0.049964
 -0.05081398 -0.05169021 -0.05250156 -0.05324496 -0.05387088 -0.05441445 -0.05488599 -0.05532647 -0.05576752 -0.056218
 -0.05669392 -0.05717251 -0.0576515 -0.05810722 -0.05853378 -0.05892517 -0.05927909 -0.05960467 -0.05990223 -0.06018516
 -0.06045387 -0.06071574 -0.06097 -0.06121455 -0.06144852 -0.0616667 -0.06186989 -0.06205717 -0.06223052 -0.06239238
 -0.06254603 -0.06269524 -0.06284616 -0.06300478 -0.06317732 -0.06337109 -0.0635823 -0.06381449 -0.06404897 -0.06428277
 -0.06449404 -0.06467698 -0.06482697 -0.06494104 -0.06503929 -0.06512265 -0.06521695 -0.06532246 -0.06544178 -0.06557188
 -0.0656902 -0.06579659 -0.06587526 -0.06593508 -0.0659909 -0.06605285 -0.06614985 -0.06627817 -0.06644898 -0.06664374
 -0.06685118 -0.06705309 -0.06723423 -0.06738786 -0.06750613 -0.06759377 -0.06764847 -0.06768615 -0.06770749 -0.06773727
 -0.0677783 -0.06784919 -0.0679518 -0.06808262 -0.06824072 -0.06840546 -0.06857565 -0.06873237 -0.06887638 -0.06900042
 -0.06910653 -0.069196 -0.06927165 -0.06933866 -0.06940063 -0.06946478 -0.06953167 -0.06960575 -0.06968164 -0.06975785
 -0.069828 -0.06988772 -0.06993871 -0.06997868 -0.0700199 -0.0700639 -0.07012296 -0.07019955 -0.07029257 -0.07040254
 -0.07051222 -0.07062066 -0.07070882 -0.0707776 -0.07082418 -0.07085256 -0.0708782 -0.07090439 -0.07094978 -0.07101136
 -0.07109433 -0.07118905 -0.07128538 -0.07137517 -0.07144513 -0.07149877 -0.07153154 -0.07155862 -0.07158469 -0.07162367
 -0.07168185 -0.07176048 -0.07186185 -0.07197782 -0.07210809 -0.07224236 -0.07238 -0.07251051 -0.07263336 -0.07273857
 -0.07282657 -0.07289506 -0.0729467 -0.07299133 -0.07303238 -0.07308516 -0.07314959 -0.07323437 -0.07333352 -0.07344366
 -0.07355675 -0.07366335 -0.07376125 -0.0738445 -0.07392 -0.07398872 -0.0740591 -0.07413502 -0.07421553 -0.07430216
 -0.07438545 -0.07446443 -0.07453198 -0.07458729 -0.07463279 -0.07466877 -0.07470197 -0.07473235 -0.0747624 -0.07479148
 -0.0748173 -0.07484103 -0.07486356 -0.07488903 -0.07492609 -0.07497708 -0.07505092 -0.07514179 -0.07524946 -0.07536206
 -0.07547168 -0.0755716 -0.07565518 -0.07572719 -0.0757868 -0.07584336 -0.07589883 -0.07595776 -0.07602122 -0.07608864
 -0.07616004 -0.07623426 -0.07631125 -0.07639074 -0.07647245 -0.07655442 -0.07663585 -0.07671212 -0.07678276 -0.07684349
 -0.07689589 -0.07694022 -0.07698029 -0.07702126 -0.07706606 -0.07712042 -0.07718194 -0.07725201 -0.07732365 -0.07739382
 -0.0774589 -0.07751567 -0.07757016 -0.07762241 -0.0776819 -0.07775047 -0.07782806 -0.07791524 -0.07799961 -0.07808058
 -0.07814632 -0.07819744 -0.07823379 -0.07825737 -0.07827719 -0.07829481 -0.07831974 -0.07835185 -0.07839612 -0.07845001
 -0.07851306 -0.07858022 -0.07864668 -0.07870869 -0.07876117 -0.07880677 -0.07884428 -0.07888125 -0.07892003 -0.07896427
 -0.07901583 -0.07907137 -0.07913081 -0.07918996 -0.07924841 -0.07930592 -0.07936244 -0.07941715 -0.07946955 -0.07951457
 -0.07955217 -0.0795785 -0.07959605 -0.07960951 -0.07962263 -0.07964572 -0.07967921 -0.07972942 -0.07979123 -0.07986277
 -0.07993714 -0.08000875 -0.08007495 -0.08013237 -0.08018368 -0.08022878 -0.08027154 -0.08031296 -0.08035409 -0.08039528
 -0.08043606 -0.08047634 -0.0805174 -0.08055933 -0.08060419 -0.08065178 -0.08070133 -0.08075217 -0.08080054 -0.08084643
 -0.08088766 -0.0809252 -0.08096004 -0.08099265 -0.08102431 -0.08105457 -0.08108314 -0.08111054 -0.08113673 -0.08116323
 -0.08119109 -0.08121977 -0.08124994 -0.08127791 -0.08130293 -0.0813228 -0.0813366 -0.08134843 -0.08135834 -0.08137488
 -0.0813984 -0.08143383 -0.08148049 -0.08153464 -0.08159487 -0.08165223 -0.08170657 -0.08175219 -0.08179098 -0.08182402
 -0.08185314 -0.08188196 -0.08190981 -0.08193771 -0.08196367 -0.08198627 -0.08200547 -0.08202034 -0.08203343 -0.08204544
 -0.0820578 -0.08207134 -0.08208428 -0.08209648 -0.08210627 -0.08211339 -0.0821193 -0.08212411 -0.0821302 -0.08213758
 -0.08214707 -0.08215881 -0.08217385 -0.08219263 -0.08221743 -0.08224797 -0.08228504 -0.08232738 -0.08237347 -0.08242244
 -0.08247295 -0.08252434 -0.08257617 -0.08262669 -0.08267492 -0.08271993 -0.08276056 -0.08279963 -0.08283743 -0.08287686
 -0.08291883 -0.08296075 -0.08300258 -0.0830394 -0.08307101 -0.08309679 -0.08311725 -0.08313703 -0.0831567 -0.08318158
 -0.08321164 -0.08324984 -0.08329504 -0.08334677 -0.08340245 -0.08345833 -0.08351199 -0.0835593 -0.08359994 -0.08363199
 -0.08365721 -0.08367585 -0.08368973 -0.08369929 -0.08370671 -0.08371212 -0.08371969 -0.08372982 -0.0837469 -0.08377149
 -0.08380312 -0.08384167 -0.08388047 -0.08391925 -0.08395232 -0.08398068 -0.08400632 -0.08403048 -0.08405895 -0.08409022
 -0.08412457 -0.08415842 -0.08418594 -0.08420651 -0.08421597 -0.08421911 -0.08421756 -0.08421674 -0.08422024 -0.08422908
 -0.08424509 -0.08426466 -0.0842875 -0.08430938 -0.08432946 -0.08434693 -0.08436141 -0.08437696 -0.08439379 -0.08441697
 -0.08444633 -0.08448239 -0.08452419 -0.08456714 -0.08461042 -0.08464874 -0.08468243 -0.08470935 -0.08473105 -0.08474888
 -0.08476419 -0.08477939 -0.08479355 -0.08480717 -0.08481774 -0.08482379 -0.08482506 -0.08482057 -0.08481342 -0.08480395
 -0.08479549 -0.08478851 -0.0847852 -0.08478577 -0.08479208 -0.08480418 -0.08482096 -0.08484185 -0.08486027 -0.08487575
 -0.08488159 -0.0848793 -0.08486981 -0.08485569 -0.08484345 -0.0848335 -0.08482993 -0.08483041 -0.08483404 -0.08483854
 -0.08484169 -0.08484332 -0.08484256 -0.08484053 -0.08483753 -0.0848338 -0.0848295 -0.0848242 -0.08481771 -0.08481093
 -0.08480378 -0.08479942 -0.08479801 -0.08480276 -0.08481379 -0.08483306 -0.08486071 -0.08489854 -0.08494676 -0.08500704
 -0.0850796 -0.08516525 -0.08526532 -0.08538117 -0.08551662 -0.08567538 -0.08586275 -0.08608358 -0.08634142 -0.08663934
 -0.08697863 -0.08736069 -0.08778429 -0.0882505 -0.08875188 -0.08928928 -0.08984203 -0.09040911 -0.09096346 -0.09150367
 -0.092011 -0.09248441 -0.09291043 -0.0932821 -0.09355863 -0.09372582 -0.09371075 -0.0935144 -0.09308642 -0.09247749
 -0.09173043 -0.09092473 -0.09016543 -0.08949018 -0.08896451 -0.08858187 -0.08835614 -0.08827113 -0.08832717 -0.08849807
 -0.08878652 -0.08912377 -0.0895061 -0.0898316 -0.09008913 -0.09023833 -0.09027722 -0.09024671 -0.09015007 -0.0900361
 -0.0899061 -0.08979341 -0.08969488 -0.08962166 -0.0895611 -0.08949065 -0.08939961 -0.08925673 -0.0890705 -0.0888347
 -0.08857016 -0.08829052 -0.08801017 -0.08774086 -0.0874861 -0.08724993 -0.08703091 -0.08682955 -0.08664307 -0.08647138
 -0.08631046 -0.08616006 -0.0860152 -0.08587562 -0.08573834 -0.08560372 -0.0854753 -0.08535403 -0.0852478 -0.08515602
 -0.08508171 -0.08502183 -0.08497107 -0.08492663 -0.08488128 -0.08483497 -0.08478498 -0.08473166 -0.08467491 -0.08461369
 -0.0845471 -0.0844758 -0.08439878 -0.08432163 -0.08424512 -0.08417561 -0.08411455 -0.08406286 -0.08402102 -0.08398479
 -0.08395399 -0.08392609 -0.08390136 -0.08388241 -0.08386964 -0.08386721 -0.08387406 -0.08388942 -0.08391045 -0.08393034
 -0.08394664 -0.08395176 -0.08394664 -0.08392826 -0.08390167 -0.083869 -0.08383654 -0.08380869 -0.08378725 -0.08377511
 -0.08376654 -0.08376132 -0.08375097 -0.08373383 -0.08370702 -0.0836697 -0.08362675 -0.08357839 -0.08353186 -0.08348733
 -0.08344908 -0.08341654 -0.083389 -0.08336517 -0.08334006 -0.08331318 -0.08328 -0.08324304 -0.08320379 -0.08316604
 -0.08313558 -0.0831119 -0.08309825 -0.08308719 -0.08307618 -0.0830577 -0.08302708 -0.08298636 -0.08293355 -0.08288082
 -0.08282947 -0.08279099 -0.08276714 -0.08275712 -0.08276092 -0.08276646 -0.08277309 -0.08276952 -0.08275639 -0.08273153
 -0.08269658 -0.08265613 -0.08261155 -0.08256824 -0.08252687 -0.08249118 -0.08246034 -0.08243523 -0.08241355 -0.08239345
 -0.08237441 -0.08235469 -0.08233808 -0.08232557 -0.08232006 -0.08232358 -0.08233116 -0.08234302 -0.08234916 -0.08234848
 -0.08233596 -0.08231124 -0.08227829 -0.08223763 -0.08219725 -0.08215737 -0.08212351 -0.08209526 -0.08207419 -0.08205957
 -0.08205047 -0.08204614 -0.08204493 -0.08204645 -0.08204969 -0.08205424 -0.08205967 -0.082065 -0.08206972 -0.08207287
 -0.08207382 -0.08207268 -0.08206938 -0.08206405 -0.08205684 -0.08204648 -0.08203291 -0.08201458 -0.08199138 -0.08196506
 -0.08193587 -0.08190813 -0.08188169 -0.0818582 -0.08183656 -0.08181348 -0.08178841 -0.08175763 -0.08172309 -0.08168554
 -0.08164893 -0.08161837 -0.08159573 -0.08158568 -0.0815837 -0.08159009 -0.08159539 -0.08159593 -0.08158633 -0.08156309
 -0.08153197 -0.08149262 -0.08145654 -0.08142503 -0.08140384 -0.08139344 -0.08139133 -0.08139727 -0.08140682 -0.08141985
 -0.08143345 -0.08144726 -0.08145841 -0.08146652 -0.08146894 -0.08146624 -0.08145796 -0.08144521 -0.0814292 -0.08141046
 -0.08138948 -0.08136752 -0.08134493 -0.08132433 -0.08130687 -0.08129393 -0.08128669 -0.08128217 -0.08128031 -0.08127633
 -0.08126962 -0.08125874 -0.08124357 -0.08122679 -0.08120859 -0.08119213 -0.08117744 -0.08116621 -0.08115843 -0.08115529
 -0.08115625 -0.08116106 -0.0811679 -0.08117381 -0.08117673 -0.08117259 -0.08116153 -0.08114157 -0.08111587 -0.08108494
 -0.08105392 -0.08102458 -0.08100163 -0.08098695 -0.08098149 -0.08098647 -0.08099598 -0.08100984 -0.08101917 -0.08102338
 -0.08101795 -0.08100304 -0.08098076 -0.08095166 -0.08092028 -0.08088681 -0.08085438 -0.08082291 -0.08079373 -0.08076692
 -0.08074291 -0.08072268 -0.08070742 -0.08069822 -0.0806971 -0.08070224 -0.08071419 -0.08072735 -0.08073988 -0.08074705
 -0.08074688 -0.08073899 -0.0807227 -0.08070075 -0.08067316 -0.08064445 -0.08061486 -0.08059131 -0.080574 -0.0805674
 -0.08057053 -0.0805795 -0.08059269 -0.08060131 -0.08060587 -0.08060283 -0.08059438 -0.08058309 -0.08056973 -0.08055685
 -0.08054277 -0.08052675 -0.08050787 -0.08048471 -0.0804595 -0.08043218 -0.08040731 -0.08038612 -0.08037145 -0.08036462
 -0.08036247 -0.08036517 -0.08036508 -0.08036172 -0.08035074 -0.08033237 -0.08031052 -0.08028582 -0.08026487 -0.08024696
 -0.08023291 -0.08022138 -0.08020859 -0.08019535 -0.08018084 -0.08016741 -0.08015843 -0.08015301 -0.08015275 -0.0801524
 -0.08014906 -0.08014008 -0.08012252 -0.08010069 -0.08007492 -0.08005043 -0.08002876 -0.08000893 -0.07999127 -0.07997136
 -0.07994892 -0.07992272 -0.07989285 -0.07986106 -0.07982755 -0.07979436 -0.0797618 -0.07973215 -0.0797054 -0.07968318
 -0.07966421 -0.07964699 -0.07963029 -0.07961129 -0.07959142 -0.0795703 -0.07955128 -0.07953668 -0.07952697 -0.07952384
 -0.07952285 -0.0795236 -0.07952005 -0.0795109 -0.07949334 -0.0794666 -0.07943277 -0.07939187 -0.07934827 -0.07930215
 -0.07925713 -0.07921322 -0.07917254 -0.07913489 -0.07910079 -0.07906945 -0.0790392 -0.07900921 -0.0789768 -0.07894261
 -0.07890587 -0.07886886 -0.07883317 -0.07880094 -0.07877436 -0.07875277 -0.07873715 -0.07872343 -0.07871112 -0.07869482
 -0.07867336 -0.07864399 -0.07860594 -0.07856151 -0.07851074 -0.0784578 -0.0784029 -0.07834952 -0.07829777 -0.07825007
 -0.07820636 -0.07816794 -0.07813413 -0.07810382 -0.07807642 -0.07805017 -0.07802539 -0.07800213 -0.07797998 -0.07795967
 -0.0779375 -0.07791194 -0.07787848 -0.07783404 -0.07777961 -0.07771374 -0.07764395 -0.07757092 -0.07750355 -0.07744315
 -0.07739307 -0.07735378 -0.07732049 -0.07729281 -0.07726261 -0.07723008 -0.07719249 -0.07715113 -0.07711015 -0.07707024
 -0.07703569 -0.07700572 -0.07698126 -0.07696044 -0.07694183 -0.07692234 -0.07689916 -0.07686907 -0.07682843 -0.07677869
 -0.07671846 -0.07665449 -0.07658822 -0.07652553 -0.07646816 -0.0764167 -0.07637174 -0.07632945 -0.07628971 -0.07624639
 -0.07619922 -0.07614353 -0.07607985 -0.07600972 -0.07593448 -0.07586073 -0.0757889 -0.07572396 -0.07566469 -0.07561105
 -0.07556208 -0.0755165 -0.07547381 -0.07543392 -0.07539397 -0.07535303 -0.07530603 -0.07525023 -0.07518394 -0.07510506
 -0.07501862 -0.07492471 -0.07483108 -0.07473872 -0.07465222 -0.07457204 -0.0744981 -0.07443038 -0.07436834 -0.07431234
 -0.07426536 -0.07422747 -0.07420156 -0.07418524 -0.07417466 -0.07416444 -0.07414245 -0.07410565 -0.07404259 -0.07395991
 -0.07385771 -0.07374842 -0.07364018 -0.07353994 -0.07345445 -0.07337894 -0.07331448 -0.07325041 -0.07318442 -0.07311188
 -0.07303127 -0.07294812 -0.07286258 -0.0727834 -0.07271086 -0.07264961 -0.07259894 -0.072556 -0.07251855 -0.07247534
 -0.07242457 -0.07235378 -0.07226647 -0.07216246 -0.07204812 -0.07193269 -0.07181784 -0.07170852 -0.07160407 -0.07150447
 -0.07141233 -0.07132842 -0.07125606 -0.07119756 -0.07114881 -0.07111087 -0.07107028 -0.07102595 -0.07096368 -0.07088218
 -0.07077777 -0.07065079 -0.07051148 -0.07036117 -0.07021546 -0.07007447 -0.06994712 -0.06983209 -0.06973008 -0.06964014
 -0.06956132 -0.06949152 -0.06942903 -0.06936794 -0.06930231 -0.06922782 -0.06913803 -0.06903812 -0.06892803 -0.06881576
 -0.06870488 -0.06859432 -0.06848536 -0.06836995 -0.06824691 -0.06811415 -0.06797114 -0.06782581 -0.06767853 -0.06753702
 -0.06740046 -0.06726594 -0.0671315 -0.06698598 -0.06682978 -0.06665701 -0.06647196 -0.06628066 -0.06608574 -0.06589381
 -0.06570462 -0.06551967 -0.06534015 -0.06516676 -0.06500208 -0.06484818 -0.06470353 -0.06456893 -0.06443866 -0.06431226
 -0.06418232 -0.06404856 -0.06389853 -0.06373134 -0.06353627 -0.06331342 -0.06307261 -0.06281586 -0.06256542 -0.06232096
 -0.06209352 -0.06187941 -0.06167436 -0.06147349 -0.06126494 -0.06104613 -0.06080628 -0.06055154 -0.06028154 -0.06000969
 -0.05974627 -0.05949446 -0.05926336 -0.05903134 -0.05879581 -0.05852874 -0.05822083 -0.05787569 -0.05749078 -0.05709113
 -0.05667873 -0.05626311 -0.05584457 -0.05542316 -0.05499982 -0.0545841 -0.05417582 -0.05378217 -0.0533961 -0.05300222
 -0.0525904 -0.05212982 -0.0516235 -0.05105763 -0.05045279 -0.04982393 -0.04918681 -0.04855767 -0.04793979 -0.04733844
 -0.04675367 -0.04618714 -0.04563541 -0.04510109 -0.04456252 -0.0440206 -0.04342503 -0.04277186 -0.04202548 -0.04118628
 -0.04030358 -0.03938212 -0.03848965 -0.03761856 -0.03676791 -0.03592794 -0.03506699 -0.03418512 -0.03326783 -0.03231737
 -0.03133659 -0.03031086 -0.02923596 -0.02807155 -0.02679044 -0.02536186 -0.02374763 -0.02200437 -0.02012603 -0.01823954
 -0.01637223 -0.01459663 -0.01293016 -0.01136892 -0.009915357 -0.008531719 -0.007215006 -0.005891585 -0.004553698 -0.003089799
 -0.001510576 0.0002104055 0.002018954 0.003751481 0.005396849 0.006834182 0.008126155 0.009313401 0.01044408 0.01158791
 0.01274788 0.01394858 0.01517595 0.016428 0.01769817 0.01898842 0.0202726 0.02154783 0.0227798 0.02396019
 0.02510089 0.02620197 0.02728354 0.02834516 0.02934293 0.03027279 0.03107359 0.03175323 0.03231575 0.03277735
 0.0331925 0.03356521 0.03393577 0.03428604 0.03460324 0.03488194 0.0351051 0.0352937 0.03545889 0.03561042
 0.03576095 0.03589287 0.03600499 0.03607369 0.03609297 0.03605227 0.03594832 0.0357852 0.03556203 0.03530281
 0.03500896 0.03471324 0.03441508 0.03412174 0.03382982 0.0335251 0.03320788 0.03286847 0.0325163 0.03216308
 0.03182557 0.03153426 0.03129663 0.03113339 0.03103976 0.03101651 0.03106546 0.03118731 0.03138511 0.03166458
 0.03200473 0.03240347 0.03283523 0.03329419 0.03378323 0.03430168 0.03486351 0.03546913 0.03611579 0.03680244
 0.03751669 0.03825939 0.0390283 0.03982567 0.04065756 0.04152513 0.04243366 0.04338362 0.04437854 0.04541666
 0.04649861 0.04761928 0.04877572 0.04996288 0.05117763 0.05241706 0.05367955 0.05496412 0.05627102 0.0575959
 0.05894012 0.06028304 0.06162362 0.06293397 0.06421312 0.06546615 0.06669596 0.06794101 0.06919362 0.07044096
 0.07165905 0.07275693 0.07373542 0.0745457 0.07521459 0.07576772 0.07620829 0.07655365 0.07678766 0.07690126
 0.0768918 0.07676137 0.07648751 0.07607666 0.07544598 0.07457165 0.07343117 0.07199592 0.07046896 0.06886633
 0.06731927 0.06583229 0.06431303 0.06275669 0.06107822 0.05928678 0.05738766 0.05539075 0.05334054 0.051218
 0.04901788 0.04668266 0.04410274 0.041298 0.0381828 0.03499664 0.03189597 0.02901669 0.02651953 0.02424608
 0.02217663 0.02017474 0.01818999 0.0162404 0.01431783 0.0124883 0.01075988 0.009123832 0.007579315 0.006060663
 0.004567005 0.003063483 0.00155931 8.53391E-05 -0.00134919 -0.002692963 -0.003954084 -0.005121653 -0.006215821 -0.007262874
 -0.008276692 -0.009280362 -0.010285 -0.01129959 -0.01235087 -0.01345551 -0.01462719 -0.01589794 -0.01715898 -0.0184027
 -0.01947205 -0.02032638 -0.02101212 -0.02152459 -0.02200439 -0.02245816 -0.02295179 -0.02348102 -0.02401868 -0.02455831
 -0.02504738 -0.02549281 -0.0258916 -0.02625003 -0.02658757 -0.02688929 -0.02714303 -0.02732857 -0.02741343 -0.02740491
 -0.02729412 -0.02710491 -0.02684856 -0.02653615 -0.02617588 -0.02576356 -0.02530241 -0.02477214 -0.02417363 -0.02346116
 -0.02263008 -0.02165296 -0.02052906 -0.01934815 -0.01811983 -0.01699054 -0.01595497 -0.01506026 -0.01429055 -0.01361527
 -0.01302868 -0.01250441 -0.01203935 -0.01162397 -0.01123814 -0.01086299 -0.01046402 -0.01000331 -0.009481738 -0.008875526
 -0.0082498 -0.007624492 -0.00703669 -0.006506136 -0.006006187 -0.005536928 -0.005062629 -0.004579287 -0.004074752 -0.003548348
 -0.003014955 -0.002475487 -0.001947577 -0.00142756 -0.000907081 -0.0003755046 0.0002072209 0.0008500571 0.00159824 0.002441781
 0.003387949 0.00441637 0.005503342 0.006647276 0.007838738 0.009082585 0.01038446 0.01172689 0.01310795 0.01450024
 0.01589371 0.01728962 0.01868364 0.02010775 0.02156589 0.02306358 0.024601 0.02609706 0.02754474 0.02883118
 0.02995825 0.03088014 0.03160241 0.03212534 0.03244001 0.03252864 0.03237522 0.03194136 0.03123137 0.0302261
 0.0289624 0.02745649 0.02575601 0.02389016 0.02188728 0.01976288 0.01753283 0.01519491 0.01280591 0.01036535
 0.007987956 0.005684617 0.00353423 0.001541481 -0.000316833 -0.00204491 -0.003705912 -0.005297362 -0.00683894 -0.00831945
 -0.00970743 -0.01100025 -0.01217108 -0.01323514 -0.01420256 -0.01509389 -0.01593621 -0.01674206 -0.01753094 -0.01830394
 -0.01906849 -0.01981542 -0.02054436 -0.02124161 -0.02190312 -0.02252352 -0.02309998 -0.0236421 -0.0241504 -0.02463545
 -0.02509787 -0.02552675 -0.02592029 -0.02625063 -0.0265183 -0.02671081 -0.02683362 -0.02689999 -0.0269135 -0.0268895
 -0.0268281 -0.02673508 -0.02661267 -0.02646375 -0.02629529 -0.02611165 -0.02592415 -0.02573736 -0.02556843 -0.02542266
 -0.02531976 -0.02526549 -0.02527207 -0.02534351 -0.02547663 -0.02567253 -0.02591297 -0.026197 -0.02650207 -0.0268273
 -0.02715688 -0.02749003 -0.02781515 -0.02812957 -0.02841767 -0.02867697 -0.02889244 -0.02906632 -0.02919456 -0.029283
 -0.02933686 -0.02936039 -0.02935816 -0.02933402 -0.02928995 -0.02923293 -0.02916539 -0.02909431 -0.02902207 -0.02895139
 -0.0288829 -0.02881877 -0.02875888 -0.02871029 -0.02867335 -0.02865837 -0.02866568 -0.02870283 -0.0287689 -0.02886311
 -0.02898245 -0.02911601 -0.02926049 -0.02940155 -0.02953978 -0.02966854 -0.02979282 -0.02991576 -0.0300417 -0.03017599
 -0.03031814 -0.03047005 -0.03062773 -0.03079046 -0.0309537 -0.03111637 -0.03127474 -0.03142827 -0.03157304 -0.03170866
 -0.03183166 -0.03194181 -0.03203765 -0.0321192 -0.03218671 -0.03223975 -0.03227608 -0.03229446 -0.03228866 -0.03225891
 -0.03220181 -0.03212035 -0.03201785 -0.03189734 -0.0317638 -0.03161864 -0.03146389 -0.03130252 -0.03113578 -0.03096892
 -0.03080439 -0.03064465 -0.03049129 -0.03034241 -0.03019788 -0.03005633 -0.02991747 -0.02978241 -0.02965118 -0.02952607
 -0.02940732 -0.02929895 -0.02920123 -0.02911865 -0.02904992 -0.0289934 -0.0289458 -0.02889764 -0.02884797 -0.02878875
 -0.0287264 -0.02866374 -0.02861128 -0.02857951 -0.02857204 -0.02859627 -0.02864312 -0.02871164 -0.0287903 -0.028875
 -0.02896363 -0.02905472 -0.02915257 -0.02925781 -0.02936952 -0.02948772 -0.02960706 -0.02972745 -0.02984717 -0.02996652
 -0.03008695 -0.03020786 -0.03032781 -0.0304458 -0.03055838 -0.03066568 -0.03076636 -0.03086098 -0.0309501 -0.03103295
 -0.03110935 -0.03117767 -0.03123677 -0.03128617 -0.0313249 -0.03135524 -0.03137718 -0.03139488 -0.03140919 -0.03142179
 -0.03143321 -0.03144096 -0.03144492 -0.03144148 -0.03143054 -0.03141014 -0.03138043 -0.03134137 -0.03129365 -0.03123974
 -0.03118058 -0.03112028 -0.03105811 -0.03099569 -0.0309292 -0.03085549 -0.03076902 -0.03066483 -0.030537 -0.03038098
 -0.03019264 -0.02996826 -0.02971059 -0.02941841 -0.02910137 -0.02876116 -0.02840328 -0.02802913 -0.02763366 -0.02721666
 -0.02677273 -0.02630212 -0.02580899 -0.02529429 -0.02476654 -0.02422607 -0.02367854 -0.02312417 -0.02256609 -0.02200503
 -0.02144351 -0.0208824 -0.02032362 -0.01976808 -0.019217 -0.01867151 -0.018132 -0.01760115 -0.01707865 -0.01657255
 -0.01608439 -0.01562288 -0.01519099 -0.0147856 -0.01440779 -0.01404087 -0.01368389 -0.01332185 -0.01295436 -0.01257534
 -0.01218438 -0.01177597 -0.01134894 -0.01089504 -0.01041462 -0.009903704 -0.009364924 -0.00880064 -0.008214507 -0.007611358
 -0.006995563 -0.006372088 -0.005744758 -0.005116872 -0.0044914 -0.003868943 -0.003256739 -0.002655639 -0.002077194 -0.001524023
 -0.001000718 -0.0005088536 -4.097442E-05 0.000403288 0.0008309279 0.001241862 0.001633648 0.00200604 0.002355364 0.002683236
 0.002993406 0.003289424 0.003582193 0.003874948 0.004179717 0.004494678 0.004824396 0.005160156 0.005495748 0.005825293
 0.006141059 0.006449521 0.006750547 0.007054263 0.007364289 0.007682553 0.008009977 0.008346286 0.00869076 0.009052016
 0.009430346 0.00984259 0.01028942 0.01078398 0.01132432 0.0119048 0.01251887 0.01313766 0.01375419 0.01433454
 0.0148773 0.01536447 0.01579693 0.0161698 0.01648101 0.01672601 0.01690729 0.01702249 0.01708368 0.01709467
 0.01706665 0.01700388 0.01691048 0.01678682 0.01664167 0.01647503 0.01630486 0.01613227 0.01597326 0.01582822
 0.01570316 0.01559692 0.01550499 0.01542423 0.01533944 0.01524758 0.01513125 0.0149926 0.01482636 0.01463855
 0.01443534 0.01421962 0.01399705 0.01376559 0.01352646 0.01327435 0.01300839 0.01272027 0.01240728 0.01206486
 0.0116902 0.01129173 0.01086925 0.01043908 0.01000226 0.00957147 0.009147188 0.008737291 0.008341511 0.007962616
 0.007598295 0.00724068 0.006886841 0.006523811 0.006152374 0.005767699 0.005372213 0.004968036 0.004554377 0.004131412
 0.003697779 0.003252714 0.002795297 0.002326743 0.001838979 0.001331659 0.0007898458 0.0002102276 -0.0004142965 -0.001086054
 -0.001796753 -0.002546312 -0.003316957 -0.004107586 -0.004897428 -0.005685564 -0.006455041 -0.007206273 -0.007932048 -0.008633145
 -0.009308293 -0.009957348 -0.01057865 -0.01117414 -0.01174478 -0.01229503 -0.01283013 -0.01335018 -0.01385815 -0.01434807
 -0.01481746 -0.01526456 -0.01568683 -0.01609173 -0.01647975 -0.01686017 -0.01723425 -0.01760732 -0.01798004 -0.01835014
 -0.01871707 -0.01906829 -0.01940272 -0.01970546 -0.01997739 -0.02021404 -0.02041805 -0.02059451 -0.02074543 -0.02087655
 -0.02099023 -0.02109187 -0.02118291 -0.02126842 -0.02134269 -0.02140468 -0.02144566 -0.0214596 -0.02144934 -0.02141251
 -0.02136304 -0.02130328 -0.02124297 -0.02118396 -0.02112782 -0.02107478 -0.02102565 -0.0209804 -0.02093831 -0.02089881
 -0.02085649 -0.02081123 -0.02075919 -0.02070159 -0.02064026 -0.02057556 -0.02050968 -0.02044077 -0.02036725 -0.0202876
 -0.02019897 -0.02010342 -0.01999974 -0.01989588 -0.01979437 -0.01970368 -0.01962839 -0.01956587 -0.0195183 -0.01946927
 -0.01941729 -0.01934757 -0.01925859 -0.01915029 -0.01902308 -0.01888978 -0.01875199 -0.01862829 -0.01852002 -0.01844438
 -0.01839879 -0.01838691 -0.01840044 -0.01842542 -0.01845418 -0.01846902 -0.01847046 -0.01845189 -0.01841862 -0.01837325
 -0.01831611 -0.01824967 -0.0181665 -0.01806508 -0.01793861 -0.01778395 -0.01760696 -0.01740647 -0.01720325 -0.01699863
 -0.01681172 -0.01664287 -0.01648998 -0.01635074 -0.01620386 -0.01604839 -0.01586691 -0.01566438 -0.01544434 -0.01521614
 -0.01500033 -0.01480212 -0.01464058 -0.01450726 -0.01440462 -0.01431224 -0.01421785 -0.01410614 -0.01396452 -0.0137967
 -0.01359931 -0.01338767 -0.01316424 -0.01294039 -0.01271794 -0.01250253 -0.0122945 -0.01210286 -0.01192817 -0.01178293
 -0.01166663 -0.01158174 -0.01152407 -0.01147624 -0.0114328 -0.01136728 -0.01128009 -0.01115735 -0.01100703 -0.01083444
 -0.01064633 -0.01045291 -0.01025235 -0.01004695 -0.009832283 -0.009605082 -0.009369634 -0.009124847 -0.008883267 -0.008647517
 -0.008424998 -0.008218131 -0.008019774 -0.007829878 -0.007634521 -0.007433224 -0.007221238 -0.006999504 -0.006774644 -0.006547583
 -0.006326174 -0.006110406 -0.005904338 -0.005707458 -0.005521447 -0.005343676 -0.005171693 -0.005001819 -0.004828455 -0.004653004
 -0.004473634 -0.004296157 -0.004124134 -0.003956218 -0.003794588 -0.003628027 -0.00345452 -0.003266049 -0.003060232 -0.002842471
 -0.00261244 -0.002387549 -0.002168776 -0.001976624 -0.001810741 -0.001678076 -0.001574072 -0.00148101 -0.001393785 -0.001285706
 -0.00115927 -0.00100489 -0.0008318122 -0.0006496962 -0.0004642002 -0.0002859793 -0.0001126226 5.345362E-05 0.0002184609 0.000384829
 0.000556532 0.0007361153 0.0009216736 0.00111332 0.001308314 0.001505658 0.001710024 0.00192172 0.002144991 0.002379698
 0.002614229 0.002847223 0.003059665 0.00325326 0.003425512 0.003580966 0.003733449 0.003883374 0.004039926 0.004197357
 0.004351925 0.004496763 0.004622142 0.004728633 0.004809875 0.004881321 0.00494637 0.005025982 0.005129662 0.005260342
 0.005422775 0.005599861 0.005789668 0.005981516 0.006174129 0.006367677 0.006561853 0.006744177 0.006913187 0.007047028
 0.007149023 0.007222068 0.007275118 0.007339309 0.007416793 0.007531082 0.007670094 0.007827993 0.007988816 0.008131645
 0.008254698 0.00834561 0.008423227 0.008491744 0.00857286 0.008677159 0.008804986 0.008960678 0.00912601 0.009299473
 0.009463823 0.009617603 0.009747596 0.009853178 0.009926199 0.009968854 0.009998177 0.01002025 0.01007685 0.01016817
 0.01032032 0.01052177 0.01076191 0.01102727 0.01129258 0.01155207 0.01178915 0.01200717 0.01220126 0.01238368
 0.01255892 0.0127368 0.01292378 0.01311383 0.01330684 0.01349593 0.01367816 0.01386743 0.01406448 0.01428439
 0.01452761 0.01478499 0.01505513 0.01531986 0.01557944 0.01582631 0.01606118 0.01628207 0.01648997 0.01668559
 0.01687085 0.01705136 0.01722116 0.01737854 0.01751084 0.01760563 0.01766475 0.01768218 0.01767671 0.01765409
 0.01762392 0.01758906 0.01755494 0.01751984 0.01751271 0.01753545 0.01761857 0.01776323 0.01796035 0.01820724
 0.01847196 0.01875276 0.01902585 0.01928808 0.01951593 0.019709 0.01984969 0.01995304 0.02003293 0.02010538
 0.020196 0.0203025 0.02042831 0.02057832 0.02074822 0.02097207 0.02126657 0.02162692 0.02206767 0.02250048
 0.02291247 0.02325844 0.02353084 0.0237507 0.02391889 0.02405645 0.02416373 0.02425147 0.02431889 0.0243687
 0.02439768 0.02439515 0.02436225 0.02429325 0.0241981 0.02409168 0.0239754 0.02385954 0.02373287 0.02358608
 0.02342539 0.02324649 0.02307571 0.02292351 0.02279691 0.02270271 0.02262174 0.02255188 0.02248032 0.02240527
 0.02232758 0.02224721 0.02216376 0.02207704 0.02198531 0.02188737 0.02177733 0.02165142 0.02149177 0.02130067
 0.02106916 0.02081456 0.02056037 0.02031814 0.02011413 0.01993752 0.01978453 0.01965838 0.01955397 0.01949763
 0.01950092 0.01956568 0.01969985 0.01986911 0.02007251 0.02025914 0.02042557 0.02051377 0.02052087 0.02043523
 0.02026452 0.02009479 0.01993597 0.01989488 0.01995925 0.02014761 0.02043515 0.02077357 0.02114963 0.02152366
 0.0218855 0.0222114 0.02249093 0.02270308 0.02286369 0.02296967 0.02305809 0.02314328 0.02324074 0.02336061
 0.02348585 0.02361709 0.02372449 0.02380542 0.02383636 0.02381615 0.02376353 0.02368348 0.02364542 0.0236488
 0.02373396 0.02388059 0.02403859 0.0241942 0.02427985 0.02432119 0.02432459 0.02432791 0.02438404 0.02448998
 0.02467219 0.02487969 0.02509904 0.02526779 0.025357 0.02534579 0.02521352 0.02501621 0.02475526 0.02451262
 0.02429844 0.02412914 0.02400592 0.02389374 0.02379324 0.02370367 0.02362911 0.02359755 0.02360275 0.0236386
 0.02369502 0.02374353 0.02378353 0.02380405 0.02380036 0.02376525 0.02368915 0.02355783 0.02338179 0.02315957
 0.02291328 0.02265208 0.02238297 0.02210809 0.02183629 0.02156688 0.02132618 0.02111756 0.02094596 0.02081176
 0.0206796 0.02054785 0.02038516 0.02019457 0.01997738 0.01973889 0.01949762 0.01925804 0.01904104 0.01884508
 0.01867896 0.01853405 0.01840064 0.01828263 0.01817575 0.01809874 0.01806604 0.01806893 0.01811502 0.01815959
 0.01819091 0.01818991 0.01814746 0.01809229 0.01802643 0.01796997 0.01792413</values></Ydata></AB><ScSm><Ydata ylabel="Single channel"><values byteorder="INTEL" format="FLOAT32" numvalues="1814"> 0.07307874 0.07311108 0.07320566 0.07337821 0.07360145 0.07381804 0.07397555 0.07405868 0.07408179 0.07405612
 0.07399473 0.07395126 0.07400743 0.07419395 0.07444252 0.07463218 0.07468542 0.07463607 0.07460915 0.07469974
 0.07484536 0.07484465 0.07454428 0.07401309 0.07350031 0.07320794 0.07316203 0.07335188 0.07385517 0.07461084
 0.07515919 0.07497146 0.07412174 0.07331093 0.07308866 0.07332259 0.07353538 0.07345107 0.07307893 0.07260095
 0.07241286 0.07301559 0.07452242 0.07625642 0.07699418 0.07573383 0.07240942 0.0681213 0.06473544 0.06388525
 0.0658191 0.06906441 0.0715298 0.07217267 0.07150281 0.07053399 0.0696981 0.06896314 0.06852058 0.06882435
 0.06995786 0.0712074 0.07141984 0.06997637 0.06752956 0.06555792 0.06502421 0.06575857 0.06722791 0.06911947
 0.07055313 0.06962752 0.06528687 0.05968966 0.05724735 0.06043026 0.06713119 0.07273642 0.07423383 0.07187784
 0.06782866 0.06436389 0.06304729 0.06430537 0.06732117 0.07071678 0.07340249 0.07464261 0.07387149 0.07117811
 0.06778302 0.06544453 0.06538016 0.06779635 0.07184445 0.07568493 0.07732145 0.07608278 0.07307344 0.07000235
 0.06805414 0.0678947 0.06983671 0.07350194 0.07781057 0.08161834 0.08418569 0.08523017 0.08497258 0.0840032
 0.08283588 0.08182867 0.08150568 0.08222994 0.08335037 0.08345237 0.08190507 0.07970826 0.07846193 0.07871126
 0.07951505 0.07959175 0.07861486 0.07698427 0.07454774 0.07060571 0.06549513 0.06098827 0.05851823 0.05809765
 0.05938175 0.06222325 0.06542548 0.06666222 0.06501719 0.06260827 0.0624736 0.06533603 0.06923859 0.07195525
 0.07305336 0.07374737 0.0753261 0.07782428 0.07984279 0.07959527 0.07667692 0.07306547 0.07172476 0.07370101
 0.07712627 0.07952833 0.0804399 0.0811329 0.08238541 0.08327202 0.08212095 0.07849577 0.07428326 0.07254167
 0.07483642 0.0796673 0.08355224 0.0836043 0.07947409 0.07343704 0.06862138 0.06684397 0.06810746 0.0717739
 0.07726832 0.08347785 0.08847687 0.09060191 0.08966306 0.08683817 0.08333459 0.07927594 0.07434525 0.06964663
 0.06792977 0.07098457 0.07734449 0.08350734 0.08706272 0.0878959 0.08681601 0.08405468 0.07949573 0.07412733
 0.07051737 0.07081696 0.0741757 0.07723019 0.07763109 0.07618025 0.07509081 0.07521072 0.07571313 0.07581776
 0.07589465 0.076837 0.07879883 0.08086252 0.08194149 0.08177398 0.08096035 0.08025604 0.07988952 0.07940458
 0.07830445 0.0770473 0.07699578 0.07892647 0.08195891 0.08445738 0.08566864 0.08599435 0.08590524 0.08511388
 0.08299984 0.07979281 0.07705075 0.07650425 0.0783803 0.08126229 0.0835627 0.08466426 0.08476023 0.08427311
 0.08357157 0.08285272 0.08220389 0.08186221 0.08215863 0.08304195 0.0839673 0.08444364 0.08443758 0.0841307
 0.08357032 0.08273532 0.08178362 0.08106066 0.08085069 0.08115874 0.08175366 0.08237708 0.08283624 0.08296143
 0.08266515 0.08207606 0.08146281 0.08098957 0.08066109 0.08049065 0.0805545 0.08084176 0.08118153 0.08138455
 0.08139385 0.08126336 0.08105078 0.08077663 0.0804605 0.08016072 0.07997066 0.07995504 0.0800704 0.08018859
 0.0802416 0.08029177 0.08039773 0.0804742 0.08037981 0.08010873 0.07980643 0.07961012 0.07954016 0.07953446
 0.07951966 0.07942466 0.07917631 0.07876019 0.07830453 0.07803495 0.07809304 0.07843128 0.07889786 0.07935245
 0.07968496 0.07982814 0.07980905 0.07972308 0.079622 0.07947601 0.07925878 0.07902792 0.07890768 0.07899614
 0.07927547 0.07961611 0.07988366 0.08002651 0.08006616 0.08006223 0.08009462 0.08020377 0.08032453 0.08034442
 0.08024719 0.0801432 0.08014151 0.08023205 0.08030877 0.08029157 0.08021426 0.08018625 0.08027124 0.08042726
 0.0805728 0.08068101 0.08078831 0.08092599 0.0810587 0.08110166 0.0810135 0.08086057 0.08075453 0.08073508
 0.08075967 0.08080004 0.08088748 0.0810457 0.08122699 0.08134875 0.08138053 0.08137085 0.08138259 0.08141713
 0.08142053 0.08135825 0.08125931 0.08118325 0.08116477 0.08119579 0.08124286 0.08127051 0.08125818 0.08120687
 0.08113278 0.08105172 0.08096953 0.08089393 0.08085604 0.08090003 0.08102861 0.0811653 0.08119898 0.08108159
 0.0808766 0.08070177 0.08062214 0.0806018 0.08055943 0.08045809 0.08032916 0.08022141 0.08015221 0.08010857
 0.08007158 0.08003211 0.08000295 0.08002423 0.08013353 0.08031078 0.08046956 0.08052878 0.08048893 0.08042036
 0.08038764 0.08040603 0.08045752 0.08052123 0.08059356 0.08069363 0.08083503 0.0809852 0.0810845 0.08111961
 0.08114669 0.08122937 0.0813867 0.08160283 0.08184133 0.08204155 0.08215161 0.08218774 0.0822268 0.08232489
 0.0824707 0.0826269 0.08278409 0.08295566 0.08314472 0.08334414 0.08356164 0.08382168 0.08413637 0.08448209
 0.08480869 0.08507332 0.08527558 0.08546685 0.08571665 0.08605728 0.08645774 0.08685195 0.0871933 0.08748628
 0.08777 0.08807193 0.08838558 0.08870044 0.08903754 0.0894286 0.08986633 0.09030418 0.09070817 0.09108528
 0.09146051 0.09184811 0.09225108 0.09267253 0.09311831 0.0935886 0.09406518 0.09451203 0.09490037 0.09523578
 0.09555624 0.09590706 0.09631488 0.09676385 0.09718846 0.09751904 0.09775964 0.09799941 0.09831849 0.09869973
 0.09906566 0.09938775 0.09971713 0.1001053 0.1005335 0.1009396 0.1012926 0.1016178 0.101956 0.1023108
 0.1026415 0.1029052 0.1031038 0.1032843 0.1034927 0.1037439 0.104042 0.1044033 0.1048326 0.1052889
 0.1057064 0.1060461 0.1063117 0.1065265 0.106717 0.1069074 0.1071088 0.1073181 0.1075322 0.1077477
 0.1079439 0.1080988 0.1082332 0.1084074 0.1086591 0.10897 0.1093105 0.1096801 0.1100802 0.110478
 0.110843 0.1112031 0.1116166 0.1120792 0.1125021 0.112807 0.1130076 0.1131701 0.1133313 0.1134992
 0.1137067 0.1140053 0.1144032 0.1148477 0.1152788 0.1156759 0.1160493 0.1164066 0.1167354 0.1170101
 0.117214 0.1173561 0.1174722 0.1176109 0.1178128 0.1180871 0.1183986 0.1186882 0.1189123 0.1190535
 0.119098 0.1190349 0.1188955 0.1187614 0.1186951 0.1186648 0.1185647 0.118307 0.1178764 0.1173002
 0.1166016 0.1157968 0.1149244 0.1140591 0.1132947 0.1127143 0.1123731 0.1123059 0.1125346 0.1130461
 0.1137602 0.1145403 0.1152491 0.1157832 0.1160576 0.1159979 0.1155845 0.1148897 0.1140438 0.1131654
 0.1123286 0.1115668 0.1108814 0.110268 0.1097713 0.1095137 0.1096509 0.1102947 0.111469 0.1131026
 0.115035 0.1170471 0.1189342 0.1205812 0.121981 0.1231875 0.1242639 0.125266 0.1262392 0.1271989
 0.1281154 0.128944 0.1296724 0.1303241 0.1309192 0.1314512 0.1318987 0.1322457 0.1324961 0.1326788
 0.1328307 0.1329674 0.1330816 0.1331744 0.1332673 0.1333673 0.1334369 0.1334119 0.1332448 0.1329329
 0.1325295 0.1321582 0.1320142 0.1323176 0.1332155 0.1346921 0.1365647 0.1385745 0.1404926 0.1421687
 0.1435307 0.1445818 0.1453899 0.1460489 0.1466335 0.147184 0.1477191 0.1482451 0.1487572 0.1492467
 0.1497125 0.1501673 0.1506333 0.1511254 0.1516317 0.1521184 0.1525626 0.1529786 0.1534058 0.1538721
 0.1543668 0.1548521 0.1553035 0.1557347 0.156171 0.1566052 0.1570042 0.1573568 0.1576917 0.1580472
 0.1584423 0.1588752 0.1593235 0.1597472 0.1601138 0.1604281 0.1607266 0.1610405 0.1613754 0.1617215
 0.1620711 0.1624206 0.1627656 0.1631072 0.1634601 0.163838 0.1642241 0.1645726 0.1648532 0.1650857
 0.1653206 0.1655903 0.1658884 0.1661905 0.1664876 0.1667982 0.1671488 0.1675394 0.1679315 0.1682783
 0.1685647 0.1688159 0.1690697 0.1693453 0.1696375 0.1699338 0.1702303 0.1705302 0.1708354 0.171144
 0.171453 0.1717606 0.1720672 0.1723747 0.1726834 0.1729897 0.1732889 0.1735816 0.1738774 0.174193
 0.1745405 0.1749101 0.1752683 0.1755804 0.1758383 0.1760617 0.1762793 0.1765124 0.1767695 0.1770466
 0.1773331 0.1776223 0.1779158 0.1782157 0.1785173 0.1788144 0.1791057 0.1793951 0.1796858 0.1799775
 0.1802703 0.1805693 0.1808824 0.1812088 0.1815341 0.1818385 0.1821143 0.1823734 0.1826355 0.1829101
 0.183189 0.1834599 0.1837213 0.1839823 0.1842507 0.1845272 0.1848087 0.1850907 0.185369 0.1856434
 0.1859162 0.1861883 0.1864573 0.1867218 0.186985 0.1872529 0.1875284 0.1878077 0.1880847 0.188359
 0.1886342 0.1889094 0.1891806 0.1894489 0.1897198 0.1899932 0.1902639 0.1905294 0.1907931 0.1910586
 0.1913271 0.1915966 0.191864 0.1921289 0.1923924 0.1926537 0.1929121 0.1931734 0.1934449 0.193727
 0.1940158 0.1943084 0.1945995 0.1948814 0.1951519 0.1954174 0.195685 0.1959592 0.196241 0.1965262
 0.1968085 0.1970871 0.1973651 0.1976425 0.1979162 0.1981849 0.1984464 0.1986968 0.198937 0.199173
 0.1994108 0.1996557 0.199911 0.2001721 0.2004293 0.2006807 0.2009322 0.2011888 0.2014521 0.2017234
 0.2020003 0.2022783 0.2025574 0.2028399 0.2031237 0.2034047 0.2036809 0.2039508 0.2042167 0.2044863
 0.2047623 0.2050382 0.205311 0.2055858 0.205864 0.206139 0.2064065 0.2066678 0.2069269 0.2071905
 0.2074612 0.2077307 0.2079913 0.2082498 0.208515 0.2087835 0.2090504 0.2093173 0.209586 0.2098579
 0.2101365 0.2104175 0.2106892 0.2109506 0.2112122 0.2114774 0.2117419 0.2120065 0.2122708 0.2125292
 0.2127839 0.2130441 0.21331 0.2135778 0.2138496 0.214122 0.2143849 0.2146408 0.2148979 0.2151369
 0.2152949 0.2152301 0.2146084 0.2127683 0.2086945 0.2012149 0.1894694 0.173454 0.1542128 0.1334693
 0.112992 0.09413231 0.07768497 0.06398852 0.05310087 0.04491861 0.03925185 0.03593826 0.03495879 0.03656266
 0.0414111 0.05018988 0.06211611 0.07360769 0.07967501 0.07786405 0.0706031 0.0629869 0.05854186 0.05752284
 0.05843225 0.05999274 0.06179879 0.0640728 0.06719781 0.07127914 0.0761338 0.08177062 0.08861177 0.09695914
 0.1063682 0.1158371 0.1246643 0.1329962 0.1414861 0.1505062 0.1597558 0.1685564 0.1763899 0.1831542
 0.1890599 0.194396 0.1993677 0.2040755 0.2085725 0.2128569 0.216772 0.2199699 0.2220831 0.2230042
 0.223013 0.2226171 0.2222524 0.2221146 0.2222167 0.2225244 0.2230146 0.2236671 0.2244572 0.2253525
 0.2263095 0.2272861 0.2282576 0.2292089 0.2301209 0.2309761 0.2317664 0.2324906 0.2331515 0.2337554
 0.2343049 0.2348002 0.2352529 0.2356851 0.2361095 0.2365214 0.2369106 0.2372699 0.2375938 0.2378807
 0.2381369 0.2383749 0.2386082 0.2388462 0.2390899 0.2393346 0.2395784 0.2398213 0.2400598 0.2402894
 0.2405116 0.2407305 0.2409478 0.2411656 0.2413892 0.2416191 0.2418492 0.2420752 0.2422985 0.2425209
 0.2427441 0.2429682 0.2431899 0.2434034 0.2436099 0.2438183 0.2440365 0.2442641 0.2444924 0.2447111
 0.2449218 0.245143 0.2453908 0.2456572 0.2459199 0.2461693 0.2464109 0.24665 0.246889 0.2471305
 0.2473684 0.2475851 0.2477701 0.2479378 0.2481215 0.2483469 0.2486097 0.2488804 0.2491344 0.2493708
 0.2495976 0.2498156 0.2500208 0.2502131 0.2504005 0.2506068 0.25086 0.251157 0.2514598 0.2517411
 0.252009 0.2522783 0.2525496 0.2528214 0.2530857 0.2533131 0.2534798 0.2536155 0.2537997 0.2540987
 0.2545017 0.2549233 0.2552802 0.2555628 0.2558195 0.2560942 0.256404 0.2567263 0.2569685 0.2570269
 0.2569475 0.2569584 0.2572614 0.2578308 0.2584707 0.259015 0.2594261 0.2597513 0.2600409 0.2602987
 0.2604795 0.2605417 0.2605271 0.2605888 0.2608896 0.2614331 0.2620417 0.2625369 0.2628852 0.2631437
 0.2633613 0.2635633 0.2637072 0.2636304 0.2632183 0.2626972 0.2625733 0.2631444 0.264167 0.2651182
 0.2657176 0.2660723 0.2663808 0.2666863 0.2669352 0.2670266 0.2666978 0.2656738 0.2642069 0.2632218
 0.2635483 0.2650833 0.2669581 0.2684095 0.2692581 0.2697021 0.2699769 0.2702008 0.2702903 0.2699731
 0.2690938 0.2680193 0.2675444 0.2681605 0.2695 0.2707291 0.2713978 0.2716718 0.2718819 0.2721564
 0.2723343 0.2719159 0.2703432 0.2678267 0.2657605 0.2657394 0.2679982 0.271129 0.2734791 0.2745718
 0.274967 0.2750418 0.274438 0.2727077 0.2699782 0.2668881 0.2644121 0.2637528 0.2655386 0.2688046
 0.2715392 0.2726738 0.2729812 0.273768 0.2753033 0.2768247 0.2775459 0.2772705 0.2762435 0.27471
 0.2728061 0.2709827 0.2702468 0.2714382 0.2742101 0.2771619 0.2791352 0.2800885 0.2804846 0.279931
 0.2769101 0.2706067 0.2631939 0.2592268 0.261613 0.2685645 0.2755184 0.2796229 0.2812862 0.2820248
 0.2824452 0.2820834 0.2796537 0.2737292 0.264971 0.2575637 0.2563891 0.2621874 0.2707196 0.2767372
 0.2775832 0.2734797 0.2665586 0.2602045 0.2576709 0.2601114 0.2660896 0.2729999 0.2786257 0.2817285
 0.2820279 0.2800833 0.2772437 0.2753153 0.2752587 0.2757576 0.2742092 0.2700185 0.2656043 0.2628426
 0.260146 0.2553885 0.2505957 0.2505917 0.2567353 0.2646493 0.2691465 0.2694843 0.2683893 0.267082
 0.2631557 0.2540241 0.2418189 0.2334335 0.2344832 0.2434868 0.2532134 0.2577707 0.2572697 0.2556536
 0.2554291 0.2551316 0.2514107 0.2434237 0.2349915 0.2313701 0.2336388 0.2377186 0.2391611 0.2366823
 0.2305538 0.2211516 0.2115091 0.2081946 0.2157239 0.2309817 0.2457048 0.2532992 0.2511775 0.2391813
 0.2205061 0.203663 0.1983144 0.2065874 0.2204807 0.2292561 0.2279443 0.2181257 0.2033094 0.1865935
 0.1721442 0.1655375 0.1703593 0.1845998 0.2008643 0.2100702 0.2064084 0.1918317 0.1764197 0.17111
 0.1777573 0.1879061 0.1923051 0.1893099 0.1834626 0.1795906 0.1800228 0.1843414 0.1898391 0.1940084
 0.1965318 0.1964617 0.1894913 0.1731489 0.1537658 0.1423487 0.1431314 0.1513237 0.1619346 0.1742728
 0.1863193 0.1916212 0.1865769 0.1773166 0.1745431 0.182165 0.1939126 0.2009983 0.2008153 0.1974388
 0.1952549 0.1942382 0.1921839 0.1898432 0.1910867 0.1976024 0.2059833 0.211534 0.213154 0.2129394
 0.2126147 0.2122236 0.2113279 0.209784 0.2076589 0.2053304 0.2033746 0.2019119 0.2005045 0.1988345
 0.1966673 0.1928404 0.1855337 0.174871 0.1645661 0.1590261 0.1587178 0.1604069 0.161956 0.1636099
 0.1635483 0.1565881 0.141046 0.1244004 0.1178722 0.1255972 0.1415417 0.1563425 0.1644233 0.1644688
 0.1566791 0.1431139 0.1301769 0.1266422 0.1364711 0.1549734 0.1738226 0.1882344 0.197534 0.2012067
 0.1981059 0.1894331 0.179949 0.1752966 0.1785645 0.1888663 0.2016114 0.2096846 0.2068975 0.194135
 0.1822151 0.1839672 0.2007302 0.2201067 0.229898 0.2305152 0.2301121 0.2319215 0.2325976 0.2310686
 0.2321472 0.2398549 0.2514427 0.2600827 0.2608573 0.2526898 0.2377118 0.2217686 0.2129191 0.2149958
 0.2232801 0.2296642 0.2305272 0.2262806 0.2165562 0.2021918 0.1903323 0.1901356 0.2021354 0.2170092
 0.2261742 0.2295922 0.2319046 0.2344499 0.2336953 0.22665 0.2158689 0.2078738 0.2066825 0.2102697
 0.2139575 0.2153614 0.2144296 0.2106323 0.2032906 0.1946286 0.1898032 0.1924306 0.2008778 0.2098479
 0.2151758 0.2164581 0.215717 0.214826 0.214262 0.2133296 0.2114699 0.2099202 0.2114581 0.2173529
 0.2252077 0.231358 0.2350544 0.2387105 0.2441299 0.2500043 0.2534814 0.2532698 0.2508819 0.2493413
 0.2507732 0.2547132 0.2584465 0.2593289 0.2573032 0.2551755 0.2560202 0.2602431 0.2655292 0.2694728
 0.2715469 0.2726062 0.2734615 0.2741962 0.2741421 0.2724187 0.26923 0.2666096 0.2669806 0.2707384
 0.275849 0.2799103 0.2820563 0.2828211 0.28285 0.2822154 0.2807977 0.2789056 0.2772798 0.2765209
 0.276672 0.2773767 0.2782659 0.2791179 0.2798281 0.2803853 0.2808363 0.2812114 0.281517 0.2817922
 0.2820814 0.2823423 0.2824856 0.2825412 0.282686 0.2830391 0.2834969 0.2838402 0.2839341 0.2837305
 0.2831481 0.2820999 0.2806367 0.2789315 0.2770866 0.2750781 0.2729939 0.271279 0.2705995 0.2713559
 0.2733175 0.2757612 0.2779628 0.2795567 0.2805279 0.2810184 0.2811979 0.2812248 0.2812129 0.281196
 0.2811426 0.2810181 0.280827 0.2805957 0.280341 0.2800754 0.2798304 0.2796404 0.2794977 0.2793427
 0.2791047 0.2787504 0.2782969 0.27779 0.2772653 0.276715 0.2760861 0.275315 0.2743794 0.2733266
 0.2722555 0.2712585 0.2703622 0.2695122 0.268622 0.2676325 0.2665119 0.2652183 0.2637288 0.2621242
 0.2605815 0.2592276 0.2580287 0.2568507 0.2555837 0.254183 0.2526444 0.2509932 0.2492783 0.2475429
 0.2458005 0.2440451 0.2422701 0.2404711 0.2386377 0.2367503 0.2347905 0.2327599 0.2306828 0.2285787
 0.2264212 0.2241213 0.2215502 0.2185843 0.2151313 0.2111329 0.2065808 0.2015557 0.1962357 0.1908418
 0.1855703 0.180571 0.1759609 0.1718383 0.1682827 0.1653502 0.1630745 0.1614781 0.1605798 0.1603857
 0.1608754 0.1620007 0.1636888 0.1658348 0.1682938 0.1708842 0.1734128 0.1757259 0.1777672 0.1795909
 0.1813083 0.1830057 0.1846965 0.1863358 0.1878742 0.1892897 0.1905679 0.1916814 0.1926125 0.1933821
 0.194033 0.1945985 0.1951014 0.1955669 0.1960142 0.1964444 0.1968504 0.1972381 0.1976359 0.1980819
 0.198598 0.1991786 0.1998092 0.2004871 0.2012208 0.2020153 0.202861 0.2037361 0.2046268 0.2055482
 0.2065312 0.2075939 0.2087503 0.2100453 0.2115504 0.2133105 0.2153064 0.2174602 0.219661 0.221792
 0.223751 0.2254579 0.2268613 0.2279517 0.2287602 0.2293352 0.22972 0.2299483 0.2300479 0.2300439
 0.2299578 0.2297934 0.2295324 0.2291603 0.2286915 0.2281526 0.2275573 0.2269137 0.2262404 0.225556
 0.2248664 0.2241717 0.2234752 0.2227842 0.2221092 0.221456 0.2208147 0.2201667 0.2195048 0.2188358
 0.2181621 0.2174699 0.2167311 0.2159135 0.2149971 0.2139798 0.2128606 0.211628 0.2102744 0.2088112
 0.2072657 0.2056701 0.2040498 0.202406 0.200713 0.1989357 0.1970433 0.1950144 0.1928602 0.190646
 0.1884703 0.1864136 0.1845089 0.1827423 0.1810701 0.1794535 0.1778883 0.1763944 0.1749843 0.1736562
 0.1724044 0.1712171 0.1700742 0.1689642 0.1678988 0.1669071 0.1660203 0.1652552 0.1646058 0.1640489
 0.16356 0.1631225 0.1627401 0.162442 0.1622546 0.1621546 0.1620702 0.1619359 0.1617295 0.161467
 0.1611839 0.1609174 0.1606829 0.1604709 0.1602687 0.1600604 0.1597959 0.1593766 0.1586902 0.1576629
 0.1562897 0.1546262 0.1527573 0.1507828 0.1488265 0.1470218 0.1454666 0.1442 0.1432166 0.1424745
 0.1418969 0.1414084 0.1409858 0.1406713 0.1405322 0.1405832 0.1407238 0.1407882 0.1407013 0.1405675
 0.140578 0.1408549 0.1413879 0.142063 0.142733 0.1432957 0.1437233 0.1440187 0.1441789 0.144215
 0.1441585 0.1440246 0.1438046 0.1434996 0.1431359 0.1427485 0.1423513 0.1419147 0.1413856 0.1407448
 0.140018 0.1392269 0.138371 0.1374426 0.1364065 0.1352116 0.1339115 0.1327389 0.1319829 0.1318011
 0.1321515 0.1328464 0.1336798 0.1345513 0.135419 0.1361108 0.1363671 0.1362325 0.1362706 0.1371518
 0.1390003 0.1412579 0.1431927 0.1444257 0.1449612 0.1449044 0.1443218 0.1432739 0.1417885 0.1398305
 0.1374085 0.1346461 0.1316874 0.1286513 0.1256985 0.1230044 0.1206702 0.1187382 0.1172265 0.1161829
 0.115731 0.1154979 0.1136532 0.107874 0.09891462 0.09218319 0.09318864 0.1013429 0.1103755 0.1149672
 0.1149918 0.1133046 0.1118703 0.1109826 0.1105323 0.1106432 0.1114348 0.1127735 0.1142743 0.1155225
 0.1163419 0.116773 0.1167836 0.1160374 0.1138413 0.1093828 0.1023907 0.09371194 0.08501548 0.0778152
 0.07279958 0.0698524 0.06837238 0.06762616 0.06712337 0.06683752 0.06707558 0.06812361 0.07000617 0.07254417
 0.07553674 0.07876199 0.0818602 0.08444989 0.08642465 0.08796789 0.08923399 0.09016785 0.0906506 0.09067024
 0.09032032 0.08973049 0.08901529 0.0882302 0.08735009 0.08631091 0.08512334 0.08396761 0.0831062 0.08265032
 0.08248316 0.08244188 0.0824627 0.08252228 0.08257458 0.08259134 0.08258258 0.08258506 0.0826835 0.08297151
 0.08342697 0.08389313 0.08422278 0.08439448 0.08448321 0.08453201 0.08443792 0.08403687 0.08338112 0.08278356
 0.0824063 0.08196472 0.0810964 0.0799209 0.07898149 0.07867233 0.07890256 0.07928197 0.0794746 0.07938202
 0.07914839 0.07906896 0.0793798 0.07998998</values></Ydata></ScSm><ScRf><Ydata ylabel="Single channel"><values byteorder="INTEL" format="FLOAT32" numvalues="1820"> 0.0606585 0.06080342 0.06089671 0.06094069 0.06095543 0.06097688 0.06104524 0.0611801 0.06136242 0.06154136
 0.06166907 0.06173438 0.0617544 0.06173908 0.06169347 0.06165697 0.06169815 0.061846 0.06204533 0.06219504
 0.06223057 0.06218064 0.06214957 0.06221614 0.06232765 0.06231574 0.06205308 0.06159893 0.06116299 0.060914
 0.0608722 0.06102771 0.06144676 0.06208109 0.062547 0.06239775 0.06168809 0.06100076 0.06079954 0.06098203
 0.06115482 0.06108614 0.06077667 0.06037081 0.06019716 0.06068012 0.06192381 0.06336856 0.06398956 0.0629399
 0.06015502 0.05655418 0.05370669 0.0529884 0.0546083 0.0573273 0.05938904 0.05992179 0.05935845 0.05855161
 0.05785918 0.05724453 0.05685996 0.05708792 0.05801056 0.05904244 0.05922068 0.05802137 0.05598363 0.05433944
 0.05388983 0.05449076 0.05570064 0.05726615 0.05845634 0.0576801 0.05405203 0.04937745 0.04734746 0.05002748
 0.05564971 0.06034595 0.06158892 0.0595935 0.05618152 0.05327453 0.05218134 0.05324248 0.05576027 0.05858474
 0.06081613 0.06184432 0.06119412 0.05893962 0.05610353 0.0541545 0.0541049 0.05612274 0.0594976 0.06269478
 0.06405217 0.06301419 0.06050177 0.05793528 0.05630135 0.0561622 0.05778714 0.06086206 0.0644803 0.06767988
 0.06983718 0.07071123 0.07048602 0.06966279 0.06868194 0.06784455 0.06757825 0.06817574 0.06909491 0.06916603
 0.06787093 0.06604239 0.06500858 0.06522041 0.0658922 0.06595268 0.06512539 0.0637444 0.06168911 0.0583826
 0.05410896 0.05034775 0.04829486 0.04796052 0.04905841 0.05146698 0.05418098 0.05524257 0.05387396 0.05184675
 0.05171293 0.05408734 0.05733584 0.05959598 0.06050772 0.06108955 0.06241845 0.06451894 0.06621555 0.06600986
 0.06356324 0.060538 0.05942394 0.06109561 0.0639772 0.06599193 0.06675768 0.06735496 0.06843973 0.06922853
 0.06831242 0.06532502 0.06184669 0.06043097 0.06237905 0.0664355 0.06969358 0.06974027 0.06628379 0.06123689
 0.05722831 0.05577858 0.05688611 0.06002554 0.06473036 0.0700693 0.07440913 0.07632425 0.07562858 0.07330538
 0.07038598 0.06699104 0.06285802 0.05892744 0.05754546 0.06024241 0.06576841 0.07113503 0.07428454 0.07511488
 0.07430702 0.07204346 0.06821135 0.06366324 0.06063415 0.06100532 0.06404619 0.06682888 0.0672978 0.06614196
 0.06529181 0.06549735 0.06604569 0.06625932 0.0664666 0.06745359 0.06935054 0.07133826 0.07244726 0.07244052
 0.07185362 0.07136758 0.07118697 0.07089327 0.07004116 0.06906272 0.06919755 0.07112838 0.07403298 0.07642801
 0.0776502 0.07808229 0.07815462 0.07759421 0.07582209 0.07304516 0.07069694 0.07037257 0.07228369 0.07512543
 0.07743008 0.07862417 0.0788886 0.07861789 0.07815023 0.07766242 0.07723789 0.07710617 0.0775785 0.07860047
 0.07965554 0.08028294 0.08045292 0.08033299 0.07996133 0.07931842 0.07856436 0.07803763 0.07800962 0.07848124
 0.07923193 0.08001675 0.0806468 0.08094728 0.08082287 0.08039774 0.07994371 0.07963389 0.07947935 0.07949191
 0.07974117 0.08020872 0.08071856 0.08108135 0.08124362 0.08126227 0.08119573 0.08106373 0.08088477 0.08072037
 0.08067256 0.08080928 0.08107521 0.0813278 0.08150277 0.08168188 0.08193479 0.08216511 0.08221085 0.08205885
 0.08186685 0.08178705 0.08183876 0.08194584 0.08202562 0.08201015 0.08183555 0.08149651 0.08112831 0.08096041
 0.08113645 0.08161162 0.0822313 0.08283804 0.083298 0.08353417 0.0835852 0.08356345 0.08352482 0.0834313
 0.08325171 0.08305369 0.08298121 0.08314716 0.08353394 0.08399761 0.08438019 0.08460805 0.08469814 0.08473139
 0.0848197 0.08501472 0.08522752 0.08531186 0.08524643 0.08516861 0.08520842 0.08534234 0.08543573 0.085402
 0.08529764 0.08526057 0.0853672 0.08556938 0.08577094 0.08593725 0.08611179 0.08633384 0.08655338 0.08664799
 0.08654951 0.08633825 0.08616665 0.08610052 0.086096 0.08612473 0.08623412 0.0864512 0.0866935 0.08683568
 0.08684629 0.08681464 0.08683808 0.08691064 0.08693928 0.08685468 0.08668384 0.08651957 0.08644087 0.08646336
 0.08654206 0.08660649 0.08660473 0.08653225 0.08642587 0.08632769 0.08625649 0.0862212 0.08625479 0.08640245
 0.08664942 0.08687591 0.08692662 0.08674967 0.08645736 0.08623121 0.0861605 0.08617685 0.08614147 0.08598025
 0.08573116 0.08548242 0.08529107 0.08515818 0.08505672 0.08496965 0.08491309 0.08493063 0.08504731 0.08521008
 0.08529378 0.08520295 0.08496655 0.08470765 0.08452883 0.08445082 0.08443785 0.08444189 0.0844373 0.08444487
 0.08450256 0.08459122 0.08462806 0.08456263 0.08444436 0.08437371 0.08442108 0.08459435 0.08482972 0.08500516
 0.08502442 0.0849129 0.08479483 0.08476686 0.08482653 0.08492078 0.08501726 0.08511297 0.08520886 0.08530587
 0.08541856 0.08557317 0.0857842 0.08603349 0.08627318 0.08645537 0.08657201 0.08667176 0.08682959 0.08708638
 0.0874135 0.08773599 0.08799279 0.08818027 0.08834101 0.08851184 0.08869357 0.08888042 0.08909789 0.08938037
 0.0897181 0.09005845 0.09036253 0.09063633 0.09090728 0.0911918 0.09149068 0.09180657 0.09215917 0.09256843
 0.09300777 0.09339149 0.09364232 0.09377222 0.09387986 0.09407289 0.09439512 0.09479644 0.09515531 0.09536903
 0.09545696 0.09554848 0.09574087 0.09600089 0.09624198 0.0964645 0.09676129 0.09718692 0.0976691 0.09806948
 0.09831381 0.09844942 0.09858122 0.09876115 0.09894769 0.09907639 0.09915054 0.0992339 0.09936497 0.09952784
 0.09971869 0.09998531 0.1003612 0.1007949 0.1011877 0.1014828 0.1016893 0.1018408 0.101962 0.1020583
 0.1021159 0.1021276 0.102128 0.1021723 0.1022667 0.102354 0.1023922 0.102413 0.1024817 0.1026283
 0.1028446 0.1031186 0.1034306 0.1037346 0.1039954 0.1042456 0.1045553 0.1049233 0.1052443 0.1054209
 0.1054738 0.1054964 0.1055362 0.1055806 0.1056412 0.1057771 0.1060219 0.1063407 0.1066774 0.107012
 0.1073546 0.107704 0.1080252 0.1082627 0.1083763 0.1083767 0.1083304 0.1083279 0.1084386 0.1086771
 0.1089975 0.1093245 0.1095984 0.1097896 0.1098782 0.109858 0.1097772 0.1097439 0.1098414 0.1100346
 0.1101875 0.1101769 0.1099713 0.1096039 0.1091077 0.1085024 0.1078295 0.1071683 0.1066065 0.1062002
 0.1059702 0.1059359 0.1061329 0.1065761 0.1072063 0.1079024 0.10855 0.1090739 0.1093989 0.1094325
 0.1091285 0.1085484 0.1078278 0.1070913 0.1064086 0.1057932 0.1052124 0.1046324 0.1040986 0.1037651
 0.1038207 0.104379 0.1054256 0.106826 0.1083635 0.1098111 0.1110255 0.1119961 0.1128025 0.1135259
 0.1142041 0.1148548 0.1155041 0.1161631 0.1167954 0.1173465 0.1178087 0.1182282 0.1186455 0.1190517
 0.1194074 0.1196858 0.1198999 0.1200962 0.1203083 0.1205059 0.1206143 0.1205976 0.1204983 0.1203813
 0.1202629 0.120106 0.1198609 0.1195022 0.1190618 0.1186558 0.11847 0.1186813 0.1193576 0.1204151
 0.1216798 0.1229966 0.1242724 0.1254298 0.1263747 0.1270491 0.1274893 0.1277989 0.1280711 0.1283508
 0.1286463 0.1289493 0.1292482 0.1295379 0.1298227 0.130114 0.1304269 0.1307658 0.131108 0.1314119
 0.1316598 0.1318855 0.1321498 0.1324837 0.132858 0.1332134 0.1335267 0.1338334 0.1341693 0.1345064
 0.1347799 0.1349724 0.1351364 0.1353383 0.135611 0.1359502 0.1363187 0.1366534 0.1369045 0.1370795
 0.1372325 0.1374116 0.1376295 0.1378754 0.1381343 0.1383919 0.1386396 0.138885 0.1391502 0.1394465
 0.1397457 0.1399938 0.1401656 0.1402973 0.1404528 0.1406613 0.1408977 0.141119 0.1413147 0.1415198
 0.1417778 0.1420898 0.1424031 0.1426572 0.1428345 0.1429652 0.1430939 0.1432496 0.1434396 0.1436547
 0.143878 0.1440926 0.1442906 0.1444795 0.1446742 0.1448821 0.145096 0.1453056 0.1455107 0.1457189
 0.1459351 0.1461573 0.1463862 0.146633 0.1469096 0.1472046 0.1474763 0.1476846 0.1478291 0.1479473
 0.1480775 0.1482342 0.1484129 0.1486035 0.1487968 0.1489886 0.149181 0.1493786 0.1495836 0.1497959
 0.1500121 0.1502259 0.1504308 0.1506277 0.1508268 0.1510391 0.1512646 0.1514909 0.1517053 0.1519061
 0.1521009 0.1522993 0.1525055 0.1527145 0.1529134 0.1530951 0.1532692 0.153453 0.1536513 0.1538544
 0.1540535 0.1542481 0.1544401 0.1546299 0.1548213 0.1550213 0.1552315 0.1554424 0.1556412 0.1558251
 0.1560038 0.1561879 0.1563797 0.1565767 0.1567765 0.1569766 0.1571737 0.1573671 0.1575591 0.1577509
 0.1579431 0.1581363 0.1583316 0.1585302 0.1587332 0.1589382 0.1591402 0.1593391 0.1595407 0.1597473
 0.1599535 0.1601532 0.1603461 0.1605383 0.1607385 0.1609516 0.1611708 0.161384 0.1615886 0.1617931
 0.1620044 0.1622227 0.1624463 0.1626739 0.1629023 0.1631292 0.1633539 0.1635752 0.1637886 0.1639901
 0.1641771 0.1643494 0.1645108 0.1646685 0.1648305 0.1650034 0.1651863 0.1653714 0.1655538 0.1657381
 0.16593 0.166127 0.1663231 0.1665152 0.1667037 0.1668926 0.1670901 0.1673013 0.1675226 0.1677476
 0.1679707 0.1681848 0.1683856 0.1685798 0.1687788 0.1689842 0.1691904 0.169394 0.1695976 0.1698062
 0.1700217 0.1702379 0.1704474 0.1706518 0.1708578 0.1710647 0.1712679 0.1714674 0.1716637 0.1718539
 0.1720408 0.1722336 0.1724366 0.1726478 0.1728657 0.1730873 0.1733074 0.1735263 0.1737484 0.1739714
 0.1741881 0.1743967 0.1745989 0.1747995 0.1750092 0.1752329 0.17546 0.1756813 0.1759017 0.1761238
 0.1763409 0.1765539 0.176769 0.1769705 0.1771057 0.1770532 0.1765333 0.1749991 0.1716135 0.1654122
 0.1556912 0.1424509 0.126552 0.1094144 0.09249953 0.07692586 0.06335188 0.05205817 0.04309268 0.03636572
 0.03171112 0.02898563 0.02817208 0.02948325 0.03347331 0.04071042 0.05054557 0.06002092 0.06501972 0.06351776
 0.05751985 0.05123195 0.04756454 0.04672696 0.04748356 0.04877856 0.05026958 0.05213438 0.05469741 0.05806258
 0.06208604 0.0667658 0.07243656 0.07934174 0.08711802 0.0949452 0.1022488 0.1091504 0.1161875 0.1236616
 0.1313167 0.1385902 0.1450612 0.1506548 0.1555483 0.1599802 0.1641213 0.1680542 0.1718143 0.1753902
 0.1786495 0.1813101 0.183072 0.1838423 0.1838457 0.1835037 0.1831888 0.1830757 0.1831782 0.1834584
 0.1838835 0.1844309 0.185088 0.1858417 0.1866616 0.1875063 0.1883447 0.1891578 0.1899315 0.1906597
 0.1913424 0.191973 0.192542 0.1930514 0.193517 0.1939548 0.1943735 0.1947726 0.1951434 0.1954822
 0.1957994 0.1961068 0.1964028 0.1966777 0.1969262 0.1971519 0.1973653 0.1975794 0.1977973 0.1980091
 0.1982072 0.1983992 0.1985984 0.1988097 0.1990279 0.1992439 0.1994498 0.1996447 0.1998352 0.2000252
 0.2002122 0.2003945 0.2005756 0.2007595 0.2009475 0.20114 0.2013361 0.2015334 0.2017298 0.2019261
 0.2021268 0.2023374 0.2025564 0.202771 0.2029697 0.2031589 0.2033589 0.203582 0.2038219 0.2040629
 0.2042904 0.2044983 0.2046922 0.2048813 0.2050661 0.2052377 0.2053919 0.2055408 0.205709 0.2059154
 0.2061534 0.2063926 0.2066095 0.2068079 0.2070027 0.207197 0.2073835 0.2075567 0.2077199 0.2078912
 0.2080956 0.2083381 0.2085963 0.2088504 0.2091014 0.2093503 0.2095872 0.209808 0.2100158 0.2102013
 0.2103528 0.2104912 0.2106749 0.2109527 0.2113132 0.2116838 0.2119916 0.2122249 0.2124263 0.2126442
 0.2129033 0.2131868 0.2134136 0.2134891 0.2134393 0.2134471 0.2136876 0.2141553 0.2146931 0.2151571
 0.2155115 0.2157982 0.2160617 0.2163013 0.2164703 0.2165283 0.2165146 0.2165699 0.2168367 0.2173112
 0.2178349 0.2182585 0.2185608 0.2187893 0.2189772 0.2191453 0.2192703 0.2192246 0.2189065 0.2184938
 0.2184086 0.2189057 0.2197851 0.2206089 0.2211396 0.2214619 0.2217384 0.2220093 0.2222358 0.2223319
 0.2220707 0.2212207 0.2199998 0.2191899 0.2194882 0.220806 0.2224126 0.2236653 0.2244106 0.2248127
 0.2250719 0.225292 0.2254036 0.2251733 0.2244646 0.2235833 0.2232006 0.2237374 0.2248933 0.2259693
 0.226582 0.2268628 0.2270831 0.2273477 0.2275251 0.2272011 0.2259098 0.2238279 0.2221293 0.2221584
 0.2241127 0.2268026 0.2288286 0.2297836 0.230144 0.23024 0.2297756 0.2283676 0.2261135 0.2235475
 0.2214923 0.2209657 0.2225053 0.2253032 0.2276611 0.2286696 0.2289733 0.2296748 0.2310117 0.2323529
 0.2330346 0.2328779 0.2320783 0.2308422 0.2292871 0.2277949 0.2272199 0.2282815 0.230695 0.233275
 0.2350309 0.2359174 0.2363224 0.2359152 0.2334102 0.2281163 0.2218778 0.2185633 0.2206471 0.2266164
 0.2325928 0.2361444 0.2376175 0.2383129 0.2387531 0.2385364 0.2365576 0.2315998 0.2242288 0.2180082
 0.2170929 0.2221113 0.2294567 0.2346687 0.2354873 0.2320888 0.2262719 0.2209169 0.2188123 0.2209658
 0.2261694 0.2321948 0.2371283 0.2398948 0.2402499 0.2386712 0.2363161 0.2347448 0.2347943 0.2353353
 0.2341291 0.2306643 0.2270187 0.2247999 0.222638 0.2186999 0.2147246 0.2148678 0.2203126 0.2272991
 0.2313573 0.2318355 0.2310678 0.2300966 0.2268488 0.2191014 0.208701 0.2016157 0.2027206 0.2107408
 0.2193976 0.2235623 0.2233285 0.2221373 0.2221867 0.2221953 0.2192068 0.2124615 0.2053248 0.2024429
 0.2047767 0.2087331 0.2103901 0.2086001 0.2035684 0.1956042 0.1874137 0.1848773 0.1920636 0.2062269
 0.2199816 0.227382 0.226042 0.2157605 0.1994033 0.1847137 0.1805263 0.1888188 0.2023013 0.2111431
 0.2107529 0.2025162 0.1896043 0.1748795 0.1622995 0.1572215 0.1631535 0.1782458 0.1953812 0.205662
 0.2032748 0.1900544 0.1760004 0.1720577 0.1800726 0.1914965 0.1969877 0.1949131 0.1899117 0.1869448
 0.1884691 0.1940776 0.2009129 0.206333 0.2099992 0.2107933 0.2039482 0.1867641 0.1661422 0.1540512
 0.1551024 0.1641303 0.1757637 0.1892767 0.2024501 0.2082178 0.2026374 0.192391 0.1891396 0.1971388
 0.2095789 0.2169338 0.2164018 0.2124387 0.2098442 0.2086307 0.2064294 0.2040482 0.2056533 0.2130467
 0.2225393 0.2290667 0.2314411 0.2319088 0.232315 0.2327035 0.2326046 0.2318651 0.2305569 0.2290885
 0.2280873 0.22768 0.2273699 0.2267916 0.2256603 0.2225854 0.2153732 0.2041127 0.1931538 0.1876659
 0.1881473 0.1907606 0.1930235 0.1952482 0.1952298 0.1867727 0.1678824 0.1474624 0.1388417 0.1469052
 0.1644554 0.1803959 0.1882318 0.1866421 0.1761512 0.1592763 0.1431491 0.137325 0.1460163 0.1640374
 0.1823159 0.1957054 0.2036437 0.2058472 0.2012792 0.1911896 0.1804104 0.1746249 0.1768674 0.1861417
 0.1977977 0.2048031 0.2011592 0.1878084 0.1752907 0.1760361 0.1913636 0.2093433 0.2182047 0.2182825
 0.2173835 0.2186506 0.2189271 0.2171837 0.2179879 0.2251857 0.2362151 0.2446308 0.2457678 0.2385772
 0.2250522 0.2107446 0.2033325 0.2064188 0.2153702 0.2223161 0.223761 0.2201148 0.2110284 0.1973684
 0.186193 0.186507 0.1988189 0.2139477 0.2234528 0.2273201 0.2301446 0.2332262 0.2330153 0.2265245
 0.2163504 0.2090869 0.2088071 0.2134856 0.2184034 0.2211247 0.2215246 0.218953 0.2126399 0.2049043
 0.2011809 0.2052722 0.2153769 0.2257615 0.23188 0.2331948 0.2317893 0.2296737 0.2274609 0.224555
 0.2204798 0.2165979 0.2158519 0.219631 0.2255587 0.2299288 0.2319444 0.2339959 0.2379096 0.2424438
 0.244809 0.2437114 0.2405766 0.2382955 0.2388992 0.2419504 0.2448731 0.2451555 0.2427433 0.2403164
 0.2408167 0.2446379 0.2495744 0.2533347 0.255409 0.2565863 0.2576033 0.2585023 0.2586039 0.2570246
 0.2539262 0.2512355 0.2512724 0.2544456 0.2588675 0.2623109 0.2640086 0.2645026 0.2644057 0.2637672
 0.2624558 0.2607435 0.2593021 0.2586747 0.2588937 0.2596201 0.2604932 0.261283 0.261876 0.2622656
 0.2625232 0.2627115 0.2628496 0.2629614 0.2630704 0.2631338 0.2630772 0.2629403 0.2628978 0.2630693
 0.2633662 0.2635885 0.2636116 0.263397 0.2628832 0.2619947 0.2607665 0.2593426 0.2578077 0.2561285
 0.2543721 0.2529454 0.2524734 0.2533348 0.2553145 0.257733 0.2599047 0.2614783 0.2624456 0.2629619
 0.2632013 0.263294 0.2633079 0.2632543 0.2631212 0.2629051 0.2626185 0.2622792 0.2619045 0.2615169
 0.2611495 0.2608323 0.2605622 0.2602914 0.2599575 0.2595284 0.2590223 0.2584867 0.2579568 0.2574205
 0.2568192 0.2560897 0.2552156 0.2542484 0.2532841 0.2524079 0.2516382 0.2509155 0.2501587 0.2493258
 0.248408 0.2473866 0.2462531 0.2450781 0.2440065 0.2431448 0.24247 0.2418657 0.2412193 0.2404706
 0.239602 0.2386287 0.2375899 0.2365203 0.2354285 0.2343045 0.2331354 0.2318998 0.2305698 0.2291315
 0.2275978 0.2259987 0.2243703 0.2227426 0.2211045 0.2193736 0.2174135 0.2150846 0.2122755 0.2089111
 0.2049696 0.2005131 0.1956964 0.1907325 0.185831 0.1811555 0.1768245 0.1729367 0.1695844 0.1668462
 0.1647772 0.1634056 0.1627371 0.1627666 0.1634827 0.1648546 0.1668159 0.1692637 0.1720648 0.1750602
 0.1780722 0.1809332 0.1835361 0.1858767 0.1880337 0.1900817 0.1920226 0.1938086 0.1954083 0.1968198
 0.1980379 0.1990494 0.1998656 0.200535 0.2011126 0.2016233 0.2020629 0.202427 0.2027287 0.2029844
 0.2031995 0.2033791 0.2035424 0.2037119 0.2039002 0.2041143 0.2043657 0.2046738 0.2050607 0.2055344
 0.2060693 0.2066196 0.2071628 0.2077178 0.2083151 0.2089692 0.2096907 0.2105083 0.2114641 0.2125858
 0.2138641 0.2152502 0.2166707 0.2180413 0.2192771 0.2203054 0.221081 0.221592 0.2218569 0.2219201
 0.2218364 0.2216445 0.2213592 0.2209874 0.2205398 0.220025 0.2194485 0.2188231 0.2181692 0.217501
 0.2168172 0.2161119 0.2153936 0.2146906 0.2140281 0.213404 0.2127966 0.2121937 0.2116004 0.2110208
 0.2104475 0.2098718 0.209293 0.208714 0.208134 0.2075444 0.2069237 0.206238 0.2054521 0.2045456
 0.2035202 0.2023915 0.201177 0.1998877 0.1985273 0.197095 0.1955884 0.1940085 0.1923624 0.1906524
 0.1888601 0.186957 0.1849507 0.182915 0.1809545 0.1791375 0.1774656 0.1758991 0.1744003 0.1729625
 0.171604 0.1703332 0.1691255 0.167951 0.1668126 0.1657382 0.1647415 0.1638118 0.1629398 0.1621364
 0.1614226 0.1608025 0.1602555 0.1597588 0.159315 0.1589458 0.1586715 0.1585083 0.1584638 0.1585132
 0.1585925 0.1586324 0.1585941 0.1584821 0.1583393 0.1582192 0.1581431 0.1580931 0.158046 0.1579807
 0.1578465 0.1575517 0.1569947 0.1561021 0.1548599 0.1533229 0.1515886 0.1497665 0.1479726 0.1463186
 0.1448789 0.1436878 0.142765 0.1421015 0.1416297 0.1412576 0.1409456 0.1407346 0.1407005 0.1408647
 0.141126 0.1413152 0.1413614 0.1413729 0.1415286 0.1419313 0.1425697 0.1433465 0.1441231 0.1447874
 0.1452947 0.1456432 0.1458507 0.1459591 0.1460081 0.1459948 0.1458965 0.1457113 0.1454505 0.1451262
 0.1447606 0.144364 0.1439086 0.1433581 0.1427026 0.1419502 0.1411233 0.1402452 0.1392845 0.1381689
 0.136932 0.1357964 0.1350517 0.1348817 0.1352909 0.1361147 0.1371243 0.1381792 0.1392112 0.14004
 0.1404136 0.1403919 0.1405509 0.1415758 0.1436114 0.1461005 0.1482772 0.1497265 0.1504403 0.150523
 0.1500439 0.14907 0.14762 0.1456335 0.1431174 0.1402251 0.1371232 0.1339448 0.1308878 0.1281633
 0.1258645 0.1240011 0.1225656 0.1215842 0.1211744 0.1209708 0.1190906 0.1131031 0.1037963 0.09686644
 0.09811158 0.1068858 0.116553 0.1214947 0.1215809 0.1198348 0.1183353 0.117384 0.1168634 0.1169225
 0.1176958 0.1190292 0.120519 0.1217569 0.1225701 0.1229852 0.1229553 0.1221261 0.1197685 0.115028
 0.1076162 0.09841502 0.08918462 0.08154142 0.07622105 0.0730893 0.07151283 0.07073857 0.07025586 0.07001746
 0.07031497 0.07141586 0.07333958 0.07594743 0.07909505 0.08256627 0.08595213 0.08881615 0.09101573 0.09271947
 0.0940959 0.09511828 0.09567845 0.09575234 0.09541461 0.09478466 0.09400016 0.09317122 0.09229514 0.0912597
 0.09002699 0.08880567 0.08792591 0.0875186 0.08741964 0.08739956 0.08736663 0.08733252 0.08730688 0.08727482
 0.08722619 0.08719984 0.08730249 0.08762586 0.08812368 0.08861885 0.08894537 0.08906732 0.08906978 0.08901721
 0.08881026 0.08828522 0.08751628 0.0868351 0.08638731 0.08585327 0.08485605 0.08353721 0.08248071 0.08210169
 0.08229594 0.08265696 0.08285025 0.08276996 0.08253494 0.08243681 0.08273791 0.08335691 0.08384275 0.0838099
</values></Ydata></ScRf><Data_Parameters_AB><parameter name="DPF">1</parameter><parameter name="NPT">3497</parameter><parameter name="FXV">3996</parameter><parameter name="LXV">500</parameter><parameter name="CSF">1</parameter><parameter name="MXY">0.0769012644886971</parameter><parameter name="MNY">-0.093725822865963</parameter><parameter name="DAT">27/05/2022</parameter><parameter name="TIM">12:24:40.891 (GMT+2)</parameter><parameter name="DXU">WN</parameter></Data_Parameters_AB><AB__Qtest><MainReport name="Quality Test Report"><Header><Line><Legend>Test result ok/not ok [1/0]: </Legend><Value>0</Value></Line><Line><Legend>Method file: </Legend><Value>C:\Users\Public\Documents\Bruker\OPUS_8.2.28\QT\IRBT_v3_default.QT</Value></Line></Header><Matrix><Line><Legend></Legend><Legend>min</Legend><Legend>max</Legend><Legend>measured</Legend></Line><Line><Value>Absorption (X-Range 1):</Value><Value>0.400000</Value><Value>2.000000</Value><Value>0.123457</Value></Line><Line><Value>Noise (X-Range 4):</Value><Value></Value><Value>0.000300</Value><Value>0.000038</Value></Line><Line><Value>Signal/Noise (X-Range 2):</Value><Value>200.000000</Value><Value></Value><Value>55.062111</Value></Line><Line><Value>Signal/Noise (X-Range 3):</Value><Value>40.000000</Value><Value></Value><Value>36.353027</Value></Line><Line><Value>Water vapour (X-Range 5):</Value><Value></Value><Value>0.000300</Value><Value>0.000051</Value></Line><Line><Value>Signal/Water (X-Range 2):</Value><Value>100.000000</Value><Value></Value><Value>41.184132</Value></Line><Line><Value>Signal/Water (X-Range 3):</Value><Value>20.000000</Value><Value></Value><Value>27.190527</Value></Line><Line><Value>Fringes (X-Range 6):</Value><Value></Value><Value>0.000100</Value><Value>0.000075</Value></Line></Matrix></MainReport></AB__Qtest><Data_Parameters_ScSm><parameter name="DPF">1</parameter><parameter name="NPT">1814</parameter><parameter name="FXV">3996.33169228125</parameter><parameter name="LXV">499.541461535156</parameter><parameter name="CSF">1</parameter><parameter name="MXY">0.283934086561203</parameter><parameter name="MNY">0.0349587947130203</parameter><parameter name="DAT">27/05/2022</parameter><parameter name="TIM">12:24:40.891 (GMT+2)</parameter><parameter name="DXU">WN</parameter></Data_Parameters_ScSm><Data_Parameters_ScRf><parameter name="DPF">1</parameter><parameter name="NPT">1820</parameter><parameter name="FXV">4004.04661832813</parameter><parameter name="LXV">495.683998511719</parameter><parameter name="CSF">1</parameter><parameter name="MXY">0.264502644538879</parameter><parameter name="MNY">0.0281720794737339</parameter><parameter name="DAT">27/05/2022</parameter><parameter name="TIM">12:24:13.951 (GMT+2)</parameter><parameter name="DXU">WN</parameter></Data_Parameters_ScRf><Optic_Parameters_Rf><parameter name="APR">0</parameter><parameter name="APT">Open</parameter><parameter name="BMS">KBr</parameter><parameter name="DTC">RT-DLaTGS_IR-Biotyper [Microplate reader]</parameter><parameter name="HPF">0</parameter><parameter name="LPF">10.0</parameter><parameter name="LPV">4000</parameter><parameter name="PGR">0</parameter><parameter name="RCH">Module port</parameter><parameter name="RDX">0</parameter><parameter name="SRC">MIR</parameter><parameter name="VEL">10.0</parameter><parameter name="SON">Off</parameter></Optic_Parameters_Rf><Acquisition_Parameters_Rf><parameter name="ADT">1</parameter><parameter name="AQM">DD</parameter><parameter name="CFE">0</parameter><parameter name="COR">0</parameter><parameter name="DEL">0</parameter><parameter name="DLY">0</parameter><parameter name="HFW">8000</parameter><parameter name="LFW">0</parameter><parameter name="NSR">32</parameter><parameter name="PLF">AB</parameter><parameter name="RES">6</parameter><parameter name="RGN">-1</parameter><parameter name="STR">0</parameter><parameter name="TCL">MakeCompatibleScalar (0, {WSV=1.000000, ARV=0});</parameter><parameter name="TDL">37</parameter><parameter name="RPO">0</parameter></Acquisition_Parameters_Rf><FT_-_Parameters_Rf><parameter name="APF">B3</parameter><parameter name="HFQ">500</parameter><parameter name="LFQ">4000</parameter><parameter name="NLI">0</parameter><parameter name="PHR">24</parameter><parameter name="PHZ">ML</parameter><parameter name="SPZ">NO</parameter><parameter name="ZFF">1</parameter></FT_-_Parameters_Rf><Optic_Parameters_><parameter name="APR">0</parameter><parameter name="APT">Open</parameter><parameter name="BMS">KBr</parameter><parameter name="CHN">Module port</parameter><parameter name="DTC">RT-DLaTGS_IR-Biotyper [Microplate reader]</parameter><parameter name="HPF">0</parameter><parameter name="LPF">10.0</parameter><parameter name="LPV">4000</parameter><parameter name="PGN">0</parameter><parameter name="RDX">0</parameter><parameter name="SRC">MIR</parameter><parameter name="VEL">10.0</parameter><parameter name="SON">Off</parameter></Optic_Parameters_><FT_-_Parameters_><parameter name="APF">B3</parameter><parameter name="HFQ">500</parameter><parameter name="LFQ">4000</parameter><parameter name="NLI">0</parameter><parameter name="PHR">24</parameter><parameter name="PHZ">ML</parameter><parameter name="SPZ">NO</parameter><parameter name="ZFF">1</parameter></FT_-_Parameters_><Acquisition_Parameters_><parameter name="ADT">1</parameter><parameter name="AQM">DD</parameter><parameter name="CFE">0</parameter><parameter name="COR">0</parameter><parameter name="DEL">0</parameter><parameter name="DLY">0</parameter><parameter name="HFW">8000</parameter><parameter name="LFW">0</parameter><parameter name="NSS">32</parameter><parameter name="PLF">AB</parameter><parameter name="RES">6</parameter><parameter name="SOT">0</parameter><parameter name="TCL">MakeCompatibleScalar (0, {WSV=1.000000, ARV=0});</parameter><parameter name="TDL">37</parameter><parameter name="SPO">0</parameter><parameter name="SGN">-1</parameter></Acquisition_Parameters_><Instrument_Parameters_Rf><parameter name="HFL">15800.168544</parameter><parameter name="LFL">0</parameter><parameter name="LWN">15800.168544</parameter><parameter name="ABP">32197</parameter><parameter name="SSP">1</parameter><parameter name="ARG">2</parameter><parameter name="ASG">2</parameter><parameter name="ASS">32</parameter><parameter name="GFW">16</parameter><parameter name="GBW">16</parameter><parameter name="BFW">0</parameter><parameter name="BBW">0</parameter><parameter name="PKA">7267</parameter><parameter name="PKL">4996</parameter><parameter name="PRA">7454</parameter><parameter name="PRL">5001</parameter><parameter name="P2A">1</parameter><parameter name="P2L">1</parameter><parameter name="P2R">1</parameter><parameter name="P2K">1</parameter><parameter name="DAQ">0</parameter><parameter name="AG2">1</parameter><parameter name="SSM">1</parameter><parameter name="RSN">24972</parameter><parameter name="CRR">0</parameter><parameter name="SRT">1653654253.952</parameter><parameter name="DUR">19.635986328125</parameter><parameter name="TSC">27.9</parameter><parameter name="MVD">0.596093654632568</parameter><parameter name="AN1">0.225772795602391</parameter><parameter name="AN2">0</parameter><parameter name="VSN">2.485 Apr  4 2017</parameter><parameter name="SRN">0085</parameter><parameter name="CAM">0</parameter><parameter name="INS">IR-Biotyper</parameter><parameter name="FOC">69</parameter><parameter name="RDY">1</parameter><parameter name="ARS">32</parameter></Instrument_Parameters_Rf><Sample_Parameters_><parameter name="BLD"></parameter><parameter name="CNM">Admin</parameter><parameter name="CPY"></parameter><parameter name="DPM"></parameter><parameter name="EXP">IRBT_v3_32Scans.XPM</parameter><parameter name="LCT"></parameter><parameter name="SFM">Microplate, HTS-XT</parameter><parameter name="SNM">220527-1039(v.2)_GFG29M (D_8)_F11_995d0091-4492-4ad8-b8a0-d8f9917655e2.0</parameter><parameter name="XPP">C:\Users\Public\Documents\Bruker\OPUS_8.2.28\XPM</parameter><parameter name="IST">OK</parameter><parameter name="CPG">1252</parameter><parameter name="UID">191c5994-bc07-4542-b3fa-85d8a5fe1a9a</parameter></Sample_Parameters_><Instrument_Parameters_><parameter name="HFL">15800.168544</parameter><parameter name="LFL">0</parameter><parameter name="LWN">15800.168544</parameter><parameter name="ABP">32197</parameter><parameter name="SSP">1</parameter><parameter name="ASG">2</parameter><parameter name="ARG">2</parameter><parameter name="ASS">32</parameter><parameter name="GFW">16</parameter><parameter name="GBW">16</parameter><parameter name="BFW">0</parameter><parameter name="BBW">0</parameter><parameter name="PKA">7996</parameter><parameter name="PKL">4988</parameter><parameter name="PRA">8260</parameter><parameter name="PRL">4993</parameter><parameter name="P2A">1</parameter><parameter name="P2L">1</parameter><parameter name="P2R">1</parameter><parameter name="P2K">1</parameter><parameter name="DAQ">0</parameter><parameter name="AG2">1</parameter><parameter name="SSM">1</parameter><parameter name="RSN">13112</parameter><parameter name="CRR">0</parameter><parameter name="SRT">1653654280.891</parameter><parameter name="DUR">19.635986328125</parameter><parameter name="TSC">27.9</parameter><parameter name="MVD">0.323264628648758</parameter><parameter name="AN1">0.225816178840853</parameter><parameter name="AN2">0</parameter><parameter name="VSN">2.485 Apr  4 2017</parameter><parameter name="SRN">0085</parameter><parameter name="CAM">0</parameter><parameter name="INS">IR-Biotyper</parameter><parameter name="FOC">69</parameter><parameter name="RDY">1</parameter></Instrument_Parameters_><History/></OPUSDataFile>
