<?xml version="1.0" encoding="UTF-8" ?>
<OPUSDataFile><AB><Ydata ylabel="Absorbance Units"><values byteorder="INTEL" format="FLOAT32" numvalues="3497"> -0.08186541 -0.08192241 -0.0819733 -0.08201941 -0.08204032 -0.08203501 -0.08199491 -0.08192107 -0.08182307 -0.08170418
 -0.08158854 -0.08147763 -0.08139073 -0.08132397 -0.08127777 -0.08124832 -0.08122807 -0.08121949 -0.08122242 -0.08123971
 -0.0812762 -0.08132435 -0.08138352 -0.08143972 -0.08148715 -0.08151956 -0.08153281 -0.08153354 -0.08152161 -0.08150776
 -0.0814931 -0.08148364 -0.08147976 -0.08148185 -0.08148994 -0.08150437 -0.08152551 -0.08155618 -0.08159551 -0.08164285
 -0.08169511 -0.08174438 -0.08178931 -0.08182278 -0.0818487 -0.08186855 -0.08188648 -0.08190805 -0.08192944 -0.08195148
 -0.08196507 -0.08196683 -0.08195163 -0.08191641 -0.08186547 -0.08179773 -0.08172742 -0.08165532 -0.08159895 -0.08155935
 -0.08154383 -0.0815516 -0.08157358 -0.08160836 -0.0816423 -0.08167594 -0.08170468 -0.08172815 -0.08174419 -0.08174989
 -0.08173782 -0.08171074 -0.08166565 -0.08161584 -0.08157039 -0.08154003 -0.08153649 -0.08155139 -0.08158718 -0.08162227
 -0.08165085 -0.08166283 -0.08165348 -0.08163578 -0.08160943 -0.08160096 -0.08161188 -0.08166456 -0.08175846 -0.08189349
 -0.08206332 -0.08223156 -0.08238869 -0.08247654 -0.0825 -0.0824349 -0.08230688 -0.08214706 -0.08197707 -0.08183745
 -0.0817287 -0.0816685 -0.08163785 -0.08163336 -0.08163066 -0.08161725 -0.0815898 -0.08154106 -0.08149573 -0.08145617
 -0.0814466 -0.0814712 -0.0815242 -0.08160563 -0.08168418 -0.08175891 -0.08180889 -0.08183713 -0.08185161 -0.08185595
 -0.08186917 -0.08188929 -0.08192278 -0.08196191 -0.08199611 -0.08202097 -0.08202517 -0.08201332 -0.08198583 -0.08194581
 -0.08189577 -0.08183473 -0.0817598 -0.08168357 -0.08160447 -0.08155563 -0.08154102 -0.08159469 -0.08172286 -0.08191999
 -0.08218694 -0.08241466 -0.08259655 -0.08260112 -0.08244716 -0.08218955 -0.08185356 -0.08156872 -0.08133172 -0.08120045
 -0.08115841 -0.08120783 -0.08132242 -0.08147635 -0.08163793 -0.08177168 -0.0818633 -0.08188903 -0.08186899 -0.08180267
 -0.0817211 -0.08163407 -0.08155123 -0.08147681 -0.0814048 -0.08133458 -0.08126638 -0.08120006 -0.08114695 -0.08110769
 -0.0810948 -0.08110715 -0.08114588 -0.08120505 -0.08126477 -0.08131606 -0.08132406 -0.08129002 -0.08119494 -0.08105826
 -0.08089351 -0.08072319 -0.08057167 -0.0804477 -0.0803643 -0.08031777 -0.08031071 -0.0803334 -0.08038513 -0.08045152
 -0.08053104 -0.08060667 -0.08067697 -0.08072408 -0.08074685 -0.0807312 -0.08067737 -0.08058703 -0.08046291 -0.08032338
 -0.08017121 -0.08002649 -0.07989083 -0.07977808 -0.07968911 -0.07963333 -0.079606 -0.07960877 -0.07962592 -0.07964671
 -0.07965416 -0.07963219 -0.0795842 -0.07950414 -0.07941422 -0.07931923 -0.07923489 -0.07916581 -0.07911159 -0.07907254
 -0.07904868 -0.07903995 -0.0790521 -0.07908487 -0.07913554 -0.07920134 -0.07926226 -0.0793159 -0.07934021 -0.07933935
 -0.07931101 -0.07926433 -0.07921429 -0.07916727 -0.07913838 -0.07912621 -0.07913532 -0.07916041 -0.07919884 -0.07924972
 -0.07931297 -0.0793849 -0.0794676 -0.07954134 -0.07960332 -0.07963669 -0.07963791 -0.07961543 -0.07956971 -0.07949885
 -0.07940191 -0.07925758 -0.07907022 -0.07885741 -0.07863017 -0.07844426 -0.07830104 -0.0782378 -0.0782369 -0.07829054
 -0.07836522 -0.07841289 -0.078422 -0.07835618 -0.07824861 -0.07810668 -0.07796533 -0.07784402 -0.07774781 -0.07768613
 -0.07763391 -0.07758956 -0.07752247 -0.07742736 -0.07730527 -0.07715538 -0.07700968 -0.07686968 -0.07676432 -0.07669218
 -0.07665985 -0.07666011 -0.07667013 -0.07667841 -0.07663867 -0.0765557 -0.07641004 -0.07622852 -0.07604 -0.07585561
 -0.07570125 -0.07555871 -0.07542649 -0.07528055 -0.07510697 -0.07490693 -0.07467391 -0.07443484 -0.0741935 -0.07397064
 -0.07377076 -0.07358615 -0.0734171 -0.07323107 -0.07302683 -0.0727791 -0.07249267 -0.07218961 -0.07187638 -0.07159357
 -0.07133826 -0.07112288 -0.07094312 -0.0707973 -0.07068112 -0.07059421 -0.07051637 -0.07043617 -0.07031851 -0.07013577
 -0.06987894 -0.06953137 -0.06912135 -0.06865485 -0.06814682 -0.06760167 -0.06702097 -0.06640382 -0.06576894 -0.06511734
 -0.0644697 -0.06382677 -0.06319982 -0.06258985 -0.06201053 -0.06146137 -0.06095092 -0.06047125 -0.06000631 -0.0595473
 -0.05906863 -0.05857112 -0.05804746 -0.05749469 -0.05691183 -0.05628345 -0.05559465 -0.05485486 -0.05405712 -0.05324326
 -0.05242603 -0.05162209 -0.05083911 -0.05006541 -0.04930064 -0.04853287 -0.04776106 -0.04698376 -0.04620158 -0.04542926
 -0.04466783 -0.04393657 -0.04322769 -0.04252428 -0.04180629 -0.04100312 -0.04011927 -0.03911415 -0.03804271 -0.03696374
 -0.03590739 -0.0349326 -0.03401322 -0.03315216 -0.03231513 -0.031487 -0.03065113 -0.02979839 -0.0289291 -0.0280416
 -0.02714107 -0.02622904 -0.02529704 -0.02434499 -0.02334967 -0.02231093 -0.02122775 -0.02010557 -0.01898734 -0.01787626
 -0.01681196 -0.01578695 -0.01480084 -0.01384567 -0.01290624 -0.01197801 -0.0110506 -0.01011703 -0.00916545 -0.008198622
 -0.007210669 -0.006221085 -0.005240967 -0.00426667 -0.003307543 -0.002314297 -0.001277564 -0.0001696167 0.001021064 0.002230245
 0.003455222 0.004609933 0.005692836 0.006693195 0.007617455 0.008510874 0.009378809 0.01026973 0.01118091 0.01213321
 0.01311304 0.01410421 0.01509627 0.01606224 0.01701675 0.01795781 0.01891872 0.01992327 0.02098128 0.02211125
 0.0232781 0.02447715 0.02567109 0.02685051 0.02800262 0.02912435 0.03021431 0.03127199 0.03230369 0.03330991
 0.03430179 0.03528002 0.03625368 0.03722525 0.03820905 0.03920977 0.04025048 0.04132799 0.04245199 0.04360449
 0.04476691 0.0459209 0.04703974 0.04812376 0.04916219 0.05017104 0.05115412 0.05212641 0.0530947 0.05405956
 0.05502315 0.05597676 0.05691834 0.05785378 0.05878266 0.05973146 0.06070104 0.06170548 0.06274166 0.06378943
 0.06484574 0.0658844 0.06690896 0.06791618 0.06891038 0.06990018 0.07088358 0.07186306 0.07283136 0.07378276
 0.07471118 0.07560797 0.07648108 0.07732701 0.07817376 0.07902907 0.07991275 0.08083414 0.08177599 0.08273858
 0.08369271 0.08463566 0.08556403 0.08647795 0.08738708 0.08829003 0.08917887 0.09005112 0.09088958 0.09169666
 0.09246844 0.09321305 0.0939433 0.09466879 0.09540942 0.09616647 0.09695276 0.09775181 0.09855814 0.09935329
 0.1001238 0.1008751 0.1016047 0.1023271 0.1030471 0.1037584 0.1044607 0.105146 0.1058123 0.106486
 0.1071685 0.1078973 0.1086699 0.1094837 0.1103293 0.1111623 0.1119764 0.1127269 0.1134215 0.1140497
 0.1146328 0.1151959 0.1157547 0.116339 0.1169376 0.1175546 0.1181685 0.118766 0.1193513 0.1199198
 0.1204932 0.1210769 0.1216744 0.1222879 0.1229068 0.1235303 0.1241551 0.124781 0.1254044 0.1260248
 0.126634 0.1272353 0.127839 0.12845 0.1290919 0.1297569 0.1304441 0.1311346 0.1318001 0.1324327
 0.133011 0.1335452 0.1340348 0.1344928 0.1349256 0.1353398 0.1357382 0.1361266 0.1365052 0.136885
 0.1372671 0.1376653 0.1380811 0.1385199 0.1389815 0.139457 0.1399458 0.1404398 0.1409401 0.1414496
 0.1419649 0.1424798 0.1429832 0.1434471 0.1438695 0.1442285 0.1445479 0.144839 0.145135 0.145466
 0.1458375 0.1462676 0.1467208 0.1471933 0.1476384 0.1480426 0.1483943 0.1486867 0.1489539 0.1491979
 0.1494488 0.1497069 0.1499475 0.150167 0.1503175 0.150405 0.1504289 0.1504064 0.1503906 0.1503915
 0.1504593 0.1505849 0.15078 0.151022 0.1512942 0.1515737 0.1518369 0.1520812 0.1522925 0.1525025
 0.152716 0.1529697 0.1532786 0.153626 0.1540179 0.1543762 0.1546957 0.1549079 0.1550109 0.1550152
 0.154928 0.1548229 0.1547028 0.1546235 0.1545756 0.1545568 0.154564 0.1545827 0.1546296 0.1547256
 0.1548763 0.1551085 0.1553805 0.1556786 0.1559465 0.1561449 0.1562767 0.1563231 0.1563513 0.1563717
 0.1564397 0.1565692 0.1567475 0.1569771 0.1571952 0.1573988 0.1575261 0.1575777 0.1575331 0.1574026
 0.1572233 0.1570133 0.1568488 0.1567394 0.1567499 0.1568627 0.1570893 0.1573833 0.1577052 0.1580103
 0.1582486 0.1584197 0.1585006 0.1585414 0.1585504 0.1585799 0.1586449 0.1587622 0.1589365 0.1591695
 0.159461 0.1598305 0.1602788 0.16082 0.1614487 0.1621198 0.1628169 0.1634312 0.163951 0.1642721
 0.1644163 0.1643648 0.1641811 0.1639454 0.1637218 0.1636181 0.1636319 0.1638144 0.1640784 0.1644037
 0.1646858 0.1648805 0.164948 0.1648627 0.1646658 0.164355 0.1640092 0.1636344 0.1632937 0.16299
 0.1627439 0.1625536 0.1624075 0.162304 0.1622272 0.1621785 0.1621541 0.1621537 0.1621788 0.1622162
 0.1622548 0.1622615 0.1622025 0.1620406 0.1617328 0.1612784 0.1606526 0.1599168 0.1590765 0.1582238
 0.1573793 0.1566071 0.155922 0.1553365 0.1548548 0.1544464 0.1541094 0.1537829 0.1534639 0.1530955
 0.1526844 0.1522323 0.1517551 0.1513113 0.1508985 0.1505504 0.1502312 0.1499022 0.1495315 0.1490588
 0.1485063 0.1478574 0.1471845 0.146515 0.1459174 0.1454264 0.1450555 0.1448242 0.1446709 0.1445965
 0.1444897 0.1443409 0.1440655 0.1436598 0.1431317 0.1424885 0.1418112 0.1411061 0.1404494 0.1398379
 0.1393019 0.1388333 0.1384307 0.1380834 0.1377776 0.1374958 0.1372164 0.1369222 0.136592 0.1362225
 0.1358024 0.1353496 0.1348642 0.134378 0.1338984 0.1334484 0.1330352 0.1326498 0.1322933 0.1319313
 0.1315618 0.1311637 0.1307385 0.1302988 0.1298474 0.1294083 0.1289798 0.1285695 0.1281724 0.1277805
 0.1273902 0.1269925 0.1265856 0.1261641 0.125729 0.125278 0.1248178 0.1243504 0.1238842 0.1234236
 0.1229675 0.1225182 0.1220637 0.1216023 0.1211266 0.1206349 0.1201384 0.1196376 0.1191529 0.1186839
 0.1182346 0.1178017 0.1173666 0.1169278 0.1164678 0.1159918 0.1155024 0.1150068 0.1145192 0.1140398
 0.1135748 0.1131199 0.1126713 0.1122341 0.1118062 0.1114081 0.1110472 0.1107367 0.1104876 0.1102693
 0.1100847 0.1098583 0.1095837 0.1091992 0.1087013 0.1081037 0.1074127 0.1067118 0.1060082 0.1053883
 0.104847 0.1044183 0.104081 0.1038082 0.1035704 0.1033079 0.1030052 0.102613 0.1021562 0.1016282
 0.1010862 0.1005596 0.1000806 0.09967651 0.09931663 0.09900141 0.098685 0.09835521 0.0980242 0.09768889
 0.09741271 0.09719895 0.09707951 0.09704918 0.09705272 0.09707801 0.09702377 0.09689 0.09661572 0.0962247
 0.09573711 0.09518601 0.09463649 0.09410033 0.09362182 0.09318218 0.09278151 0.09240019 0.09202205 0.0916575
 0.09130474 0.09098406 0.09070458 0.09045356 0.09023302 0.0900073 0.08977161 0.08952412 0.08926452 0.08903505
 0.0888367 0.08869593 0.08860572 0.08853798 0.08848533 0.08840329 0.08829775 0.08815862 0.08799881 0.08783786
 0.08767624 0.08752758 0.08737214 0.08720356 0.08699077 0.08671583 0.08635771 0.08589853 0.08535608 0.08472237
 0.08406618 0.08339326 0.08278618 0.08225551 0.08182786 0.08150537 0.08123064 0.08099834 0.08072067 0.08039924
 0.07999491 0.0795224 0.07901238 0.07847999 0.07797918 0.07751022 0.07710079 0.07673679 0.07641465 0.07611594
 0.07582651 0.07552907 0.07521019 0.07486171 0.07447331 0.07406209 0.07362622 0.07320429 0.07280378 0.07244024
 0.07211918 0.07180126 0.0714846 0.0711168 0.07069899 0.07023503 0.06973308 0.06924865 0.068781 0.06836204
 0.06797435 0.06759032 0.06719901 0.06676205 0.06629773 0.06580792 0.06532368 0.0648738 0.06446724 0.06412087
 0.06381905 0.06355933 0.06332955 0.06312424 0.06294754 0.06279963 0.06268328 0.06260023 0.06253261 0.06247967
 0.06240281 0.06229978 0.06212988 0.06189474 0.06157989 0.06119636 0.06077337 0.06032816 0.05991742 0.05955094
 0.05927414 0.05907916 0.05897726 0.05894985 0.05898519 0.05907095 0.05919532 0.05935934 0.05956083 0.05980275
 0.06008722 0.06040663 0.0607603 0.06113935 0.06154115 0.06198135 0.06246045 0.06302345 0.06367224 0.06444544
 0.06533838 0.06634349 0.06744916 0.06860799 0.06981236 0.0710178 0.07222742 0.07342578 0.0746204 0.07581422
 0.07701322 0.07822157 0.0794485 0.08069708 0.08198521 0.0833194 0.0847156 0.08618179 0.08771277 0.08931269
 0.0909471 0.09261512 0.09426303 0.09588781 0.09743266 0.09889446 0.1002197 0.1014049 0.1023987 0.1032014
 0.1037786 0.1041506 0.1043364 0.1043885 0.1043959 0.1044234 0.1045861 0.1049143 0.105481 0.106259
 0.1072588 0.108428 0.1097482 0.1111849 0.1127249 0.1143539 0.1160681 0.1178553 0.1197139 0.1216342
 0.1236154 0.1256521 0.1277432 0.1298724 0.1320357 0.1341997 0.1363615 0.1384912 0.1405919 0.1426583
 0.1446898 0.1466993 0.1486408 0.1505055 0.1521295 0.15343 0.154103 0.1539744 0.152768 0.1502885
 0.146593 0.1415816 0.135766 0.1291739 0.1225201 0.1158802 0.1097787 0.1042556 0.0994553 0.09536984
 0.09186343 0.08891562 0.08632585 0.08408668 0.08206544 0.08026119 0.07860976 0.07710127 0.07569302 0.07436877
 0.07309037 0.0718538 0.0706381 0.06946118 0.0683239 0.06725559 0.06626739 0.06538166 0.06460764 0.06395149
 0.06341732 0.06299463 0.06268335 0.06246671 0.06234356 0.06230816 0.06236057 0.06250526 0.06273865 0.06304283
 0.06340489 0.06376512 0.06411096 0.06437433 0.06456339 0.06465326 0.0646784 0.06466532 0.06465989 0.0647069
 0.06484568 0.06511036 0.06552507 0.06610483 0.06686953 0.06782088 0.06900403 0.07042418 0.07214038 0.07417023
 0.07644338 0.0789636 0.08132606 0.08349314 0.08476174 0.08510781 0.08397499 0.08146352 0.07762618 0.07268523
 0.06723218 0.06145968 0.05600361 0.05089934 0.04646929 0.04260739 0.03934055 0.03652849 0.03409445 0.03194625
 0.03002778 0.02829766 0.02673547 0.02531778 0.02403862 0.02287801 0.02183353 0.02088842 0.02004163 0.01927491
 0.01858689 0.01795336 0.01737226 0.01681701 0.01628685 0.01576292 0.01524888 0.01474326 0.01425338 0.01379308
 0.01336401 0.01297797 0.01262182 0.01229137 0.01196516 0.01162778 0.01127061 0.01088211 0.01047865 0.01005964
 0.009654424 0.009268625 0.008919838 0.008612398 0.008336722 0.008092861 0.007854471 0.007620719 0.007376624 0.007124226
 0.006872677 0.006622525 0.006384167 0.006149487 0.005902871 0.005634805 0.005315633 0.004953726 0.004541076 0.004107465
 0.003674511 0.003270298 0.002921558 0.002630353 0.002408473 0.002232104 0.002099948 0.001977208 0.001858283 0.001712694
 0.001535433 0.001316562 0.001054462 0.0007676029 0.0004575161 0.0001554321 -0.0001380664 -0.000403408 -0.0006430632 -0.0008567709
 -0.001047481 -0.001222933 -0.001384944 -0.001540273 -0.001690058 -0.001838619 -0.001985895 -0.00213416 -0.002280097 -0.002422851
 -0.002557822 -0.002681617 -0.002796597 -0.002900204 -0.003008329 -0.003122502 -0.003262089 -0.003430825 -0.003627763 -0.003853842
 -0.004079812 -0.004304054 -0.004494218 -0.004651919 -0.004773022 -0.004863964 -0.004949611 -0.005035542 -0.005151476 -0.005295381
 -0.00548076 -0.005694229 -0.005926848 -0.006158534 -0.00636669 -0.006542855 -0.006669149 -0.006766086 -0.006833438 -0.006908547
 -0.007002872 -0.007137644 -0.007321822 -0.007544915 -0.007808311 -0.008084523 -0.008371791 -0.008648139 -0.008912952 -0.009158837
 -0.009386848 -0.009601784 -0.009804724 -0.01000343 -0.01019685 -0.01038629 -0.0105695 -0.01074182 -0.01090417 -0.01105436
 -0.01119806 -0.01133928 -0.01148355 -0.01163648 -0.01179741 -0.01196855 -0.01214345 -0.01232102 -0.01249459 -0.01266243
 -0.01282224 -0.01297311 -0.0131185 -0.01325848 -0.01339952 -0.01354179 -0.01368768 -0.01383599 -0.0139784 -0.01411287
 -0.01422445 -0.01431518 -0.0143802 -0.01442938 -0.01447811 -0.01453771 -0.01463204 -0.01476064 -0.01493548 -0.0151402
 -0.01536989 -0.01560436 -0.01583274 -0.01604631 -0.01623862 -0.01641515 -0.0165753 -0.0167289 -0.0168774 -0.01702442
 -0.01717053 -0.01731125 -0.01744637 -0.01757169 -0.01768813 -0.01780109 -0.01791258 -0.01803523 -0.0181688 -0.01832055
 -0.01848596 -0.01866016 -0.01883804 -0.01900979 -0.01917491 -0.01932885 -0.01947447 -0.01961288 -0.0197444 -0.01986984
 -0.01998737 -0.02009565 -0.02019806 -0.02029411 -0.02039295 -0.02049574 -0.02060805 -0.02073063 -0.02086028 -0.02099674
 -0.02113374 -0.02127122 -0.02140589 -0.02153811 -0.02166743 -0.02179477 -0.02192218 -0.02205108 -0.02218576 -0.02232568
 -0.02247313 -0.02262355 -0.02277367 -0.02291914 -0.02305506 -0.02318298 -0.0233016 -0.02341624 -0.0235284 -0.02364113
 -0.02375548 -0.0238718 -0.02399014 -0.02411178 -0.02423683 -0.02436643 -0.02450052 -0.02463594 -0.02477223 -0.02490361
 -0.02503037 -0.02515037 -0.02526514 -0.02537857 -0.02549093 -0.02560543 -0.02571956 -0.02583127 -0.02593801 -0.02603523
 -0.02612593 -0.02620958 -0.02629308 -0.02637988 -0.02647279 -0.02657462 -0.02668006 -0.02678873 -0.02689475 -0.02699699
 -0.02709515 -0.02718907 -0.02728063 -0.02736984 -0.02745545 -0.02753736 -0.02761368 -0.02768509 -0.02775387 -0.02782078
 -0.02788987 -0.02796017 -0.02803184 -0.02810323 -0.02817144 -0.02823725 -0.02829992 -0.02836183 -0.02842484 -0.02848883
 -0.02855472 -0.02861985 -0.02868338 -0.0287443 -0.02880209 -0.02885755 -0.02891085 -0.02896127 -0.02900878 -0.02905277
 -0.02909331 -0.02913347 -0.02917342 -0.02921656 -0.02926199 -0.02930731 -0.0293513 -0.02938823 -0.02941935 -0.02944388
 -0.02946479 -0.02948646 -0.02950945 -0.02953671 -0.02956539 -0.02959451 -0.02962153 -0.02964456 -0.02966408 -0.02967989
 -0.0296926 -0.0297024 -0.02970899 -0.02971211 -0.02971367 -0.0297136 -0.02971763 -0.02972604 -0.02974358 -0.02977011
 -0.02980624 -0.0298516 -0.02990491 -0.02996582 -0.03003347 -0.03010579 -0.03017886 -0.03024913 -0.03030917 -0.03035883
 -0.03039342 -0.03041962 -0.03043977 -0.03046199 -0.03049162 -0.03052966 -0.03057893 -0.03063201 -0.03068815 -0.03073927
 -0.03078373 -0.03082032 -0.03084847 -0.03087505 -0.03090044 -0.03093316 -0.03097297 -0.03102138 -0.03107657 -0.03113033
 -0.03118106 -0.03121848 -0.03124456 -0.03125703 -0.03126204 -0.03126737 -0.03127818 -0.03130411 -0.03134261 -0.03139669
 -0.03145667 -0.03151874 -0.03157582 -0.03162369 -0.03166418 -0.03169636 -0.03172658 -0.03175569 -0.0317871 -0.03182122
 -0.03185908 -0.03190074 -0.03194666 -0.03199661 -0.03204881 -0.03210235 -0.03215164 -0.0321961 -0.03223049 -0.03225585
 -0.03227123 -0.03227935 -0.03228348 -0.03228655 -0.03229276 -0.03230379 -0.0323226 -0.03234793 -0.03238049 -0.03241649
 -0.03245495 -0.03249268 -0.03252829 -0.03256331 -0.03259738 -0.03263565 -0.03267859 -0.03272868 -0.03278594 -0.03284462
 -0.03290405 -0.03295509 -0.03299817 -0.03303017 -0.0330531 -0.03307176 -0.03308759 -0.03310648 -0.03312781 -0.03315339
 -0.03318175 -0.03321205 -0.03324309 -0.03327354 -0.0333035 -0.03333232 -0.0333617 -0.03339205 -0.03342473 -0.03346069
 -0.03349692 -0.03353336 -0.03356503 -0.03359127 -0.03361252 -0.03362888 -0.03364787 -0.03366973 -0.03370047 -0.03373904
 -0.0337833 -0.03383191 -0.03387905 -0.03392513 -0.03396779 -0.03400897 -0.03405079 -0.0340941 -0.0341409 -0.03419061
 -0.03424311 -0.03429887 -0.03435779 -0.03442153 -0.03449154 -0.0345647 -0.03464174 -0.03471294 -0.03477699 -0.03482676
 -0.034861 -0.03488499 -0.03489909 -0.0349168 -0.03493867 -0.03497539 -0.03502674 -0.03509668 -0.03518546 -0.03529542
 -0.03542807 -0.03558747 -0.0357758 -0.035998 -0.03625561 -0.03655216 -0.03688796 -0.03726411 -0.03768113 -0.03813855
 -0.03864062 -0.03918753 -0.03978767 -0.0404429 -0.04115976 -0.0419411 -0.0427774 -0.04366985 -0.04458138 -0.04550967
 -0.04638883 -0.04721342 -0.04790318 -0.04845256 -0.0487887 -0.04891173 -0.04877817 -0.04840333 -0.04778548 -0.04697571
 -0.04603739 -0.04504937 -0.04412035 -0.04329663 -0.0426508 -0.04218318 -0.04191362 -0.04182637 -0.04192442 -0.04217526
 -0.04258287 -0.04306034 -0.04360361 -0.04407882 -0.04447206 -0.04471792 -0.04481318 -0.04480132 -0.04468714 -0.04453892
 -0.04435818 -0.04418959 -0.04402864 -0.04388553 -0.04375147 -0.04360984 -0.04345962 -0.04328966 -0.04310818 -0.04292164
 -0.04273128 -0.04254251 -0.04234652 -0.04213826 -0.0419187 -0.04168374 -0.04145109 -0.04122343 -0.04101798 -0.04083861
 -0.04068797 -0.04056721 -0.04046784 -0.04038945 -0.04032137 -0.04026338 -0.04020992 -0.04016118 -0.04011571 -0.04007301
 -0.04003087 -0.03998815 -0.03994068 -0.03988892 -0.03983071 -0.03976987 -0.03970884 -0.03965354 -0.03960934 -0.03957942
 -0.03956816 -0.03957136 -0.03958964 -0.03961391 -0.03964179 -0.03966914 -0.03969418 -0.03972198 -0.03975281 -0.03979173
 -0.03983899 -0.03989045 -0.03994549 -0.03999457 -0.04003792 -0.0400713 -0.0400967 -0.04011843 -0.04013868 -0.04016515
 -0.04019768 -0.0402406 -0.04028974 -0.04034282 -0.04039428 -0.04043825 -0.04047447 -0.04049982 -0.04052096 -0.04053948
 -0.04056098 -0.04058806 -0.0406182 -0.04065185 -0.04068246 -0.04070929 -0.04073013 -0.04074482 -0.04075822 -0.04077081
 -0.04079018 -0.04081606 -0.04085142 -0.04089421 -0.04093914 -0.04098395 -0.04102002 -0.04104832 -0.04106564 -0.0410762
 -0.04108332 -0.04109091 -0.04110355 -0.04112162 -0.04114714 -0.04117731 -0.04121209 -0.04124693 -0.04128071 -0.04131055
 -0.04133532 -0.04135751 -0.04137696 -0.04140004 -0.04142711 -0.04146105 -0.04150153 -0.04154505 -0.041591 -0.04163386
 -0.04167387 -0.0417089 -0.04173967 -0.04176683 -0.04179095 -0.04181317 -0.04183397 -0.04185436 -0.04187457 -0.04189526
 -0.04191601 -0.04193693 -0.04195694 -0.04197549 -0.04199276 -0.04200839 -0.04202447 -0.04204125 -0.04206056 -0.04208259
 -0.04210865 -0.04213884 -0.04217545 -0.04221853 -0.04226997 -0.04232894 -0.04239165 -0.04245646 -0.04251499 -0.04256708
 -0.04260749 -0.04263865 -0.0426622 -0.04268041 -0.04269691 -0.04271184 -0.04272673 -0.04274022 -0.04275195 -0.04276085
 -0.04276598 -0.04276862 -0.04276821 -0.04276983 -0.042774 -0.04278618 -0.04280719 -0.04283707 -0.04287587 -0.04291919
 -0.04296693 -0.04301713 -0.04306987 -0.04312527 -0.04318206 -0.04323601 -0.04328504 -0.04332089 -0.04334512 -0.04335466
 -0.04335687 -0.04335852 -0.04336699 -0.0433922 -0.04343207 -0.04349067 -0.043555 -0.04362153 -0.04367878 -0.04372153
 -0.0437525 -0.04377018 -0.0437875 -0.04380571 -0.04383271 -0.04386909 -0.04391085 -0.04395748 -0.04400053 -0.04404013
 -0.04407246 -0.04409883 -0.04412187 -0.04414294 -0.04416706 -0.04419389 -0.04422579 -0.04425994 -0.04429412 -0.0443255
 -0.0443503 -0.04436953 -0.04438179 -0.04439211 -0.04440197 -0.0444156 -0.04443498 -0.04445921 -0.04448913 -0.04451811
 -0.04454562 -0.04456596 -0.0445787 -0.0445877 -0.04459371 -0.04460937 -0.04463476 -0.04467779 -0.04473566 -0.04480245
 -0.04487462 -0.04493981 -0.04499787 -0.04504219 -0.04507596 -0.04510009 -0.0451182 -0.04513341 -0.04514842 -0.04516555
 -0.04518628 -0.04521197 -0.04524197 -0.04527655 -0.04531375 -0.04535311 -0.04539448 -0.04543772 -0.0454838 -0.04553282
 -0.04558212 -0.0456313 -0.04567335 -0.04570825 -0.04573162 -0.0457453 -0.04575369 -0.0457592 -0.04577069 -0.04578798
 -0.04581548 -0.04585029 -0.04589066 -0.04593405 -0.04597754 -0.04602052 -0.04606171 -0.04610153 -0.04613955 -0.04617753
 -0.04621535 -0.04625724 -0.04630397 -0.04635826 -0.04642101 -0.04648759 -0.04655787 -0.04662166 -0.04667868 -0.04672284
 -0.04675512 -0.04677896 -0.0467958 -0.04681335 -0.04683158 -0.04685454 -0.04688093 -0.04691013 -0.04694152 -0.04697379
 -0.04700751 -0.04704273 -0.04707983 -0.04711921 -0.04716051 -0.04720379 -0.04724827 -0.04729385 -0.04733933 -0.04738457
 -0.04742798 -0.04746933 -0.04750808 -0.04754416 -0.04757891 -0.04761247 -0.0476469 -0.04768228 -0.04772028 -0.04776079
 -0.04780452 -0.04785078 -0.04789837 -0.04794628 -0.0479918 -0.0480353 -0.04807562 -0.04811485 -0.04815431 -0.04819592
 -0.04824163 -0.04829079 -0.0483442 -0.04839832 -0.04845252 -0.04850323 -0.04854951 -0.0485909 -0.04862698 -0.04866152
 -0.0486947 -0.0487308 -0.04876984 -0.04881219 -0.04885736 -0.04890212 -0.04894591 -0.04898493 -0.04901875 -0.04904411
 -0.04906146 -0.0490693 -0.04907061 -0.04906753 -0.04906528 -0.04906922 -0.04908209 -0.04910849 -0.04914377 -0.04918848
 -0.0492325 -0.04927321 -0.04930349 -0.0493207 -0.04932778 -0.04932414 -0.04932024 -0.0493167 -0.04932121 -0.04933375
 -0.04935391 -0.04938084 -0.04940835 -0.04943575 -0.04945641 -0.0494711 -0.04947743 -0.04947887 -0.0494802 -0.04948496
 -0.04950065 -0.04952581 -0.04956329 -0.04960595 -0.04965091 -0.04969093 -0.04972216 -0.04974135 -0.0497463 -0.04973869
 -0.04971775 -0.04969052 -0.04965739 -0.04962745 -0.0496014 -0.04958201 -0.04956909 -0.04955848 -0.04955012 -0.04954145
 -0.04953316 -0.04952692 -0.04952277 -0.04952142 -0.04952308 -0.04952763 -0.04953741 -0.04955601 -0.04958314 -0.04962226
 -0.0496644 -0.04970654 -0.04973684 -0.04974813 -0.04974004 -0.04970901 -0.04966751 -0.0496169 -0.04956923 -0.04952642
 -0.04949154 -0.04946503 -0.04944339 -0.04942651 -0.04941249 -0.04940183 -0.04939765 -0.04939992 -0.04941094 -0.0494286
 -0.04944858 -0.04946874 -0.04948276 -0.04949072 -0.04949035 -0.04948186 -0.04946487 -0.04943904 -0.04940315 -0.0493604
 -0.04931125 -0.04926064 -0.04921061 -0.04916136 -0.04911337 -0.04906508 -0.04901583 -0.04897039 -0.04892897 -0.04889764
 -0.04887629 -0.04886182 -0.04885314 -0.04883999 -0.04882236 -0.04879399 -0.04875721 -0.04871464 -0.04866976 -0.04863079
 -0.0485986 -0.04857921 -0.0485677 -0.04856304 -0.04855675 -0.04854254 -0.04851778 -0.04847819 -0.04843055 -0.04837549
 -0.0483211 -0.04826936 -0.04822285 -0.04818232 -0.04814632 -0.04811484 -0.04808575 -0.04805904 -0.04803446 -0.04801241
 -0.04799594 -0.04798528 -0.0479839 -0.04799003 -0.04800198 -0.04801467 -0.04801821 -0.04800769 -0.04797082 -0.04791072
 -0.04782344 -0.04772101 -0.04760891 -0.04749894 -0.0473983 -0.04731004 -0.04723771 -0.04717514 -0.04712198 -0.0470713
 -0.04702191 -0.04697266 -0.04692322 -0.04687836 -0.04683843 -0.04681126 -0.04679627 -0.04679406 -0.04680032 -0.04679694
 -0.04677935 -0.04672181 -0.04663117 -0.04650579 -0.0463603 -0.04621505 -0.04607554 -0.04595499 -0.04585117 -0.04576554
 -0.04569833 -0.04565018 -0.04562043 -0.04561122 -0.04561065 -0.04561847 -0.04561431 -0.04559567 -0.04554858 -0.04547154
 -0.04536549 -0.04523092 -0.04508063 -0.04491593 -0.0447531 -0.04459248 -0.04444448 -0.04430813 -0.04418615 -0.04407729
 -0.04398134 -0.0438949 -0.04381454 -0.04373413 -0.04364545 -0.04354888 -0.04343956 -0.04332919 -0.04322203 -0.04312551
 -0.04304538 -0.04297171 -0.04290475 -0.04282734 -0.04273684 -0.04262732 -0.04249781 -0.04235594 -0.04220197 -0.04204107
 -0.04187194 -0.04168576 -0.04148104 -0.04124385 -0.04097898 -0.04069141 -0.04038989 -0.04009609 -0.03980954 -0.03954106
 -0.03928074 -0.0390219 -0.03876044 -0.03848858 -0.03821633 -0.03794579 -0.03768709 -0.03744588 -0.03721735 -0.03700376
 -0.03678523 -0.03656083 -0.03630223 -0.03600685 -0.0356652 -0.03527811 -0.03487929 -0.03447096 -0.03408937 -0.03372945
 -0.03338826 -0.03305725 -0.03270901 -0.03234091 -0.03193295 -0.03149107 -0.03101404 -0.0305111 -0.02999128 -0.02945885
 -0.02892436 -0.02837086 -0.02780133 -0.02716884 -0.02646002 -0.02564056 -0.02469393 -0.02365146 -0.02251406 -0.0213208
 -0.02007653 -0.01875796 -0.01736395 -0.01586563 -0.01426734 -0.01259675 -0.01085801 -0.009085386 -0.007278123 -0.005434029
 -0.003592266 -0.001811046 -0.0001733685 0.001158089 0.002197495 0.002866674 0.0033056 0.003578332 0.003809045 0.004076042
 0.004422508 0.004882742 0.005441271 0.006097544 0.006850398 0.007693061 0.008694395 0.00986004 0.01122933 0.01279928
 0.01442106 0.01608472 0.01762821 0.01907157 0.0204261 0.02171443 0.02301313 0.02432407 0.02568577 0.02709656
 0.02855939 0.03010311 0.03174099 0.03354563 0.03556862 0.03786124 0.0404916 0.04335215 0.04645108 0.04956027
 0.05262844 0.05553705 0.05825516 0.06080677 0.06318853 0.06548508 0.06770287 0.06999485 0.072377 0.07507993
 0.07808112 0.0814347 0.08502537 0.08850326 0.09184624 0.09479905 0.09749768 0.1000347 0.1025097 0.1050719
 0.107719 0.1104975 0.1133728 0.1163365 0.1193745 0.1224936 0.1256225 0.1287528 0.1317944 0.1347236
 0.1375856 0.1403809 0.1431816 0.145987 0.1486796 0.1512466 0.1535034 0.1554718 0.1571529 0.1585947
 0.1599572 0.1612422 0.1625541 0.1638127 0.1649318 0.16589 0.1666112 0.1671691 0.1675985 0.1679348
 0.1682127 0.1684094 0.1685252 0.1685349 0.1684321 0.1682075 0.1678584 0.1673843 0.1667836 0.1660881
 0.1653 0.164481 0.1636304 0.1627664 0.1618803 0.1609379 0.1599339 0.1588303 0.1576353 0.156341
 0.1549735 0.1535669 0.1521422 0.1507387 0.1493476 0.1479736 0.1466096 0.1452422 0.1439137 0.1426287
 0.1414507 0.1403999 0.1394795 0.1386972 0.138005 0.1373995 0.1368462 0.1363436 0.1358887 0.1354816
 0.1351257 0.1348175 0.1345419 0.1342932 0.1340455 0.1337979 0.1335358 0.1332625 0.132978 0.1326819
 0.1323748 0.1320533 0.131714 0.1313584 0.1309851 0.1306017 0.1302091 0.1298193 0.1294343 0.1290671
 0.1287209 0.1283947 0.1280895 0.1277841 0.1274774 0.1271554 0.1268207 0.1264956 0.126184 0.1259227
 0.1257045 0.1255281 0.1253798 0.1252281 0.1250689 0.1248822 0.1246681 0.1244205 0.1241362 0.123814
 0.1234416 0.1230195 0.122512 0.1219113 0.1211713 0.1202675 0.119249 0.1181071 0.1170043 0.1159594
 0.1149777 0.1140586 0.1130768 0.1120298 0.110849 0.1095415 0.1081096 0.1065585 0.1049131 0.1031562
 0.1012712 0.09921946 0.09690842 0.09439111 0.09163144 0.08886267 0.08626734 0.08391599 0.08194127 0.08014766
 0.07849415 0.07684047 0.075133 0.07338357 0.07158202 0.06979655 0.06803402 0.06630986 0.06462459 0.06294449
 0.06126915 0.0595809 0.05788576 0.05620731 0.05455004 0.05294563 0.05138435 0.0498631 0.04836461 0.04686016
 0.04534123 0.04379097 0.04219757 0.04055881 0.03882785 0.03698127 0.03498352 0.03277724 0.03053659 0.02826764
 0.026255 0.02456764 0.02315651 0.0220325 0.02097205 0.01996457 0.01889277 0.01776251 0.01660162 0.01542231
 0.01430993 0.01325798 0.01228845 0.01139104 0.01054386 0.009765275 0.009069006 0.008486507 0.008064309 0.007798182
 0.007706102 0.007755775 0.007933081 0.00822333 0.008612126 0.00912148 0.009742882 0.01055853 0.01156803 0.01293256
 0.01466924 0.01686344 0.01951736 0.02233072 0.02527107 0.02784926 0.03007703 0.03176312 0.03295587 0.03371417
 0.03407881 0.03416077 0.03400234 0.03370904 0.03332755 0.03293952 0.03259524 0.0323623 0.03224931 0.03230202
 0.03241903 0.03257931 0.03268442 0.03269776 0.03262005 0.03244299 0.03220716 0.03191561 0.03159647 0.03125125
 0.03088324 0.03049177 0.03006926 0.02961616 0.02912884 0.02861326 0.02808106 0.02755262 0.02707477 0.02667597
 0.026425 0.02632847 0.02642174 0.0266955 0.02715019 0.02778831 0.02861247 0.02961989 0.030815 0.03217189
 0.0336834 0.03534084 0.03713661 0.03911406 0.04127763 0.04364942 0.04623032 0.04889703 0.05163737 0.05425778
 0.05676393 0.05908707 0.06124841 0.06329085 0.06521606 0.06705588 0.06878642 0.07038696 0.07182771 0.07306928
 0.07408833 0.07485621 0.07535621 0.0755705 0.0754986 0.07513113 0.0744954 0.07358853 0.0724752 0.07115822
 0.06973848 0.06822467 0.06670283 0.065178 0.06367235 0.06218471 0.06070335 0.05923001 0.05776962 0.05632532
 0.05491468 0.05353068 0.05216813 0.05081328 0.04944135 0.04804393 0.04660196 0.04511274 0.04356601 0.0419693
 0.040316 0.03864355 0.03695668 0.03531612 0.03373883 0.03225683 0.0308823 0.02959238 0.02838736 0.02722657
 0.02610777 0.02502346 0.02397624 0.02299977 0.02209604 0.02129671 0.02059521 0.01998644 0.01945977 0.01898777
 0.01856355 0.01816388 0.0177859 0.01741839 0.01705856 0.01670227 0.01634321 0.01597803 0.01559871 0.01520129
 0.01478221 0.01433841 0.01387648 0.01339543 0.01291307 0.01243042 0.01196972 0.01153231 0.01112632 0.0107507
 0.0103922 0.01004959 0.009707298 0.009368605 0.009035984 0.00871572 0.008424609 0.008165301 0.007950826 0.007778088
 0.007648842 0.007558764 0.007504881 0.007484544 0.007496364 0.007535904 0.007602857 0.007687133 0.007787607 0.007889521
 0.007991067 0.00807697 0.008145737 0.008184794 0.008193347 0.00816345 0.008095207 0.007987585 0.007842479 0.007669934
 0.007473634 0.007272336 0.007068387 0.006877757 0.006698468 0.006534628 0.006382877 0.006239886 0.006106256 0.005980623
 0.005866491 0.005766245 0.005679234 0.005607218 0.005542612 0.005484744 0.00542299 0.005355787 0.005274197 0.005177247
 0.005058142 0.004916425 0.004748291 0.004554278 0.004340321 0.004109348 0.003882255 0.003662397 0.003474503 0.003317288
 0.00320139 0.003120653 0.003068802 0.003042727 0.00303475 0.003048465 0.003084358 0.003145533 0.003235267 0.003350004
 0.003489863 0.003648499 0.003824305 0.004013361 0.004215397 0.004423879 0.004638847 0.004846035 0.005044649 0.005218647
 0.005367884 0.005487065 0.005578415 0.005652553 0.005713391 0.005781167 0.005858305 0.005962182 0.00609009 0.006247673
 0.006424808 0.006614193 0.006800305 0.006969412 0.00710712 0.007201529 0.007245638 0.007233445 0.007165395 0.007039378
 0.006862944 0.006635454 0.006374532 0.006081152 0.005778255 0.005467315 0.005161664 0.004861147 0.00456395 0.004269586
 0.003973302 0.003676728 0.003383559 0.003095709 0.002820654 0.002557292 0.002307987 0.002068742 0.001835716 0.001605782
 0.001374099 0.001142335 0.0009088513 0.0006803567 0.0004586959 0.0002503735 5.777148E-05 -0.0001171561 -0.0002736494 -0.0004117748
 -0.00053168 -0.0006310806 -0.0007099308 -0.0007608896 -0.0007831889 -0.0007633132 -0.0007007634 -0.0005837749 -0.0004157712 -0.0002019885
 5.025759E-05 0.0003183045 0.0006009318 0.0008815416 0.001173149 0.001482407 0.0018283 0.002229352 0.002696307 0.003240955
 0.003865429 0.004572429 0.005364906 0.006244365 0.007211707 0.00827013 0.009400062 0.01060278 0.01182647 0.01306842
 0.0142623 0.015406 0.01645885 0.01742541 0.01831456 0.01913589 0.01993085 0.02070705 0.02150477 0.02232668
 0.02319614 0.02411135 0.02508104 0.02609685 0.02715775 0.02824639 0.02935589 0.03046175 0.03155524 0.03261001
 0.03361763 0.03456073 0.0354332 0.0362383 0.03697425 0.03766287 0.03830521 0.0389289 0.03953553 0.04015248
 0.04078173 0.04145053 0.0421596 0.04292759 0.04375156 0.04463402 0.04557031 0.04655327 0.04757962 0.04864278
 0.04974023 0.05086829 0.05202369 0.05320453 0.05440518 0.05562406 0.0568526 0.05808794 0.05932579 0.06056381
 0.06180868 0.06306112 0.06432449 0.06559949 0.06686657 0.06812413 0.06934115 0.07051748 0.07163668 0.07270152
 0.07371352 0.07467695 0.07560176 0.0764955 0.07737573 0.07824904 0.07913346 0.08002362 0.08092339 0.08181888
 0.08270216 0.08356619 0.08440489 0.08522111 0.08601345 0.08679032 0.08755162 0.08831348 0.08907735 0.08985948
 0.09066135 0.09147995 0.09231412 0.09314004 0.09395574 0.09473553 0.09547894 0.09617089 0.0968111 0.09739258
 0.09791214 0.09836292 0.09873663 0.09902043 0.09920761 0.09928519 0.09925912 0.09912752 0.0989031 0.09859246
 0.09819645 0.09771728 0.09714969 0.0964912 0.09575106 0.09492927 0.09404262 0.09309242 0.09208186 0.09101103
 0.08987922 0.08868854 0.08745431 0.08617914 0.08488313 0.08356524 0.08223195 0.08088361 0.07952103 0.07815252
 0.07678704 0.07543714 0.07411731 0.07283438 0.07159946 0.07040454 0.06925327 0.06811938 0.06699914 0.06585839
 0.06469075 0.06347063 0.06219381 0.06085059 0.05943964 0.05796953 0.05644167 0.05488555 0.05330376 0.05173095
 0.0501657 0.048621 0.04709261 0.04557325 0.04406542 0.04256825 0.04109078 0.03964551 0.03823567 0.03687066
 0.0355439 0.03425434 0.03299497 0.03176149 0.03055424 0.0293714 0.02821984 0.02710036 0.02601957 0.02497893
 0.02397585 0.02301038 0.02207476 0.02116916 0.02029821 0.01946411 0.01868665 0.0179668 0.01732038 0.01674425
 0.01623843 0.01579821 0.01541511 0.01508482 0.01479863 0.0145529 0.01434048 0.01416256 0.01401651 0.01390921
 0.0138438 0.01382211 0.01384875 0.01390683 0.0139981 0.01408156 0.01415522 0.01416159 0.01409683 0.01390924
 0.01359727 0.01314053 0.01254226 0.01181746 0.01097189 0.01003743 0.009019401 0.007948391 0.006827992 0.005679046
 0.004503179 0.003309694 0.00210248 0.0008858636 -0.0003300851 -0.00153839 -0.00273055 -0.003899734 -0.005048098 -0.006175056
 -0.007283228 -0.008374947 -0.009439065 -0.01047551 -0.0114652 -0.01240684 -0.01328516 -0.01409939 -0.01483688 -0.01549741
 -0.01607186 -0.01656295 -0.01697631 -0.01731806 -0.01760839 -0.01785167 -0.01806683 -0.01825265 -0.01841592 -0.01855214
 -0.01865893 -0.01873437 -0.01877445 -0.01878585 -0.01876864 -0.018736 -0.01869202 -0.01864448 -0.01859623 -0.0185464
 -0.01849469 -0.01844464 -0.01839607 -0.01836316 -0.01834655 -0.01835825 -0.0183977 -0.01846546 -0.01856031 -0.01867745
 -0.01881562 -0.01896962 -0.01913677 -0.0193096 -0.0194857 -0.0196579 -0.0198275 -0.01999285 -0.02015675 -0.02032194
 -0.02048555 -0.02064933 -0.02080105 -0.02093874 -0.02104667 -0.02112069 -0.02115527 -0.02114802 -0.02110915 -0.02103914
 -0.02094977 -0.02084117 -0.02070943 -0.0205533 -0.02035912 -0.02012812 -0.0198571 -0.01955145 -0.01922487 -0.01888229
 -0.01854137 -0.01820045 -0.017867 -0.01753086 -0.01718617 -0.01682117 -0.0164244 -0.01599619 -0.01553027 -0.01504404
 -0.01453946 -0.01403999 -0.01355067 -0.0130868 -0.01265134 -0.0122492 -0.01188116 -0.01154524 -0.01124123 -0.0109635
 -0.01071182 -0.01048124 -0.01027276 -0.01008752 -0.009928448 -0.009805001 -0.00971882 -0.00968052 -0.009682821 -0.009724034
 -0.009785822 -0.009850358 -0.009903471 -0.009926263 -0.009927147 -0.009901503 -0.00987434 -0.009852413 -0.009853372 -0.009883029
 -0.009944106 -0.0100382 -0.01016084 -0.01031232 -0.01047809 -0.01065701 -0.01082029 -0.01096702 -0.01107454 -0.01114764
 -0.01119546 -0.01122646 -0.01127239 -0.01133437 -0.0114323 -0.01155738 -0.01170478 -0.01186906 -0.01204037 -0.0122249
 -0.01242435 -0.0126427 -0.01288593 -0.01314081 -0.0134065 -0.01366255 -0.01390414 -0.01412121 -0.01431185 -0.0144709
 -0.01459812 -0.01468237 -0.01472324 -0.01471484 -0.01465905 -0.01457029 -0.01445181 -0.01432817 -0.01419853 -0.01407463
 -0.01395063 -0.01381972 -0.0136783 -0.01351525 -0.01333828 -0.01314719 -0.0129612 -0.01279306 -0.01265665 -0.01256572
 -0.01251021 -0.01249465 -0.01248531 -0.01247843 -0.01243361 -0.01234447 -0.01218877 -0.01196287 -0.01168314 -0.01135102
 -0.01101271 -0.01066969 -0.01035556 -0.01006684 -0.009803467 -0.009562971 -0.009337078 -0.009127159 -0.008935264 -0.008754935
 -0.008581293 -0.008398561 -0.008187187 -0.007943125 -0.007652439 -0.007334058 -0.006990789 -0.006648392 -0.006315454 -0.006009488
 -0.00573596 -0.00550257 -0.005311693 -0.005161185 -0.00505146 -0.004972146 -0.004922628 -0.004889966 -0.004872845 -0.004854342
 -0.004832144 -0.004785271 -0.004713271 -0.004602646 -0.004456818 -0.004275443 -0.004064498 -0.003830404 -0.003583645 -0.003335988
 -0.003097973 -0.002884084 -0.002686991 -0.002510379 -0.002331965 -0.002142346 -0.001940213 -0.001719774 -0.001508314 -0.001309857
 -0.001136093 -0.0009899527 -0.0008445328 -0.0006983051 -0.0005142554 -0.0002915227 -7.3227E-06 0.0003366039 0.0007463254 0.001214456
 0.001723132 0.002261516 0.002795008 0.003325034 0.003833818 0.004340709 0.004858627 0.005404199 0.00599935 0.00663124
 0.007309879 0.007979752 0.008632974 0.009189807 0.009629073 0.009912474 0.01002329 0.01002037 0.009904083 0.009784057
 0.009665509 0.009616497 0.009635513 0.009731306 0.009900025 0.0101286 0.01041244 0.01073273 0.01108119 0.01143247
 0.01177748 0.01209288 0.01237088 0.01259491 0.01276147 0.01285909 0.0129013 0.01288674 0.01284698 0.01279168
 0.01274464 0.01271452 0.01270339 0.01271251 0.01274179 0.01279082 0.01286919 0.01297739 0.01312338 0.01330665
 0.01352586 0.01377803 0.01404859 0.0143317 0.01460032 0.01485184 0.01506642 0.0152469 0.01539109 0.01549636
 0.01555889 0.01557763 0.01554131 0.01548257 0.01540449 0.01537261 0.01541856 0.01554326 0.01576694 0.01598884
 0.01619266 0.01634465 0.0164371 0.01651654 0.01658497 0.01667153 0.01677501 0.01689077 0.01701733 0.01714463
 0.017273 0.01739856 0.01752164 0.01764065 0.01775689 0.01787299 0.01798599 0.01809592 0.01819345 0.01826962
 0.01832582 0.01835634 0.01838019 0.01840159 0.01843923 0.01849819 0.01858937 0.01871605 0.01887715 0.01907526
 0.01926883 0.01945532 0.01955225 0.01955698 0.01940927 0.01911722 0.01868973 0.01814371 0.0175364 0.01688656
 0.01626316 0.0156773 0.01518219 0.01476251 0.01442684 0.01414275 0.01388222 0.01364625 0.01341993 0.01324179
 0.0131222 0.01308824 0.01314962 0.0133121 0.01357983 0.01393941 0.01439306 0.01487831 0.01539181 0.01585965
 0.01628477 0.01667726 0.017048 0.01746841 0.01793336 0.01846544 0.01904829 0.01965099 0.02027448 0.0209059
 0.02155211 0.02222268 0.02290112 0.0235812 0.02423947 0.02485649 0.02544092 0.02598547 0.02652922 0.02707994
 0.02766684 0.02829977 0.0289598 0.02964875 0.03030475 0.03092463 0.03147001 0.0319441 0.03237632 0.03277066
 0.03316853 0.03356174 0.03394097 0.03430318 0.03462835 0.03493868 0.0352589 0.0356121 0.03603847 0.03653396
 0.03711131 0.03775181 0.03845101 0.03918713 0.03995425 0.04072566 0.04149261 0.04224652 0.0429825 0.04371877
 0.04445732 0.04520084 0.04594951 0.04668036 0.04739352 0.04808414 0.04875506 0.04942253 0.05008436 0.05074186
 0.05139067 0.05202132 0.05263111 0.05321589 0.05376231 0.05425663 0.05468107 0.05501378 0.05525803 0.05540876
 0.05547612 0.05546824 0.05536641 0.0551702 0.05484891 0.05439489 0.05381032 0.0530923 0.05228179 0.05138092
 0.05043876 0.04945532 0.0484456 0.04740304 0.04629468 0.04511903 0.04384537 0.04249443 0.04109596 0.039677
 0.03829866 0.03696481 0.03570148 0.03451025 0.03339418 0.03237407 0.03146707 0.03066593 0.02998281 0.0293574
 0.02877668 0.02819972 0.02761239 0.02704076 0.02648567 0.02597433 0.02550832</values></Ydata></AB><ScSm><Ydata ylabel="Single channel"><values byteorder="INTEL" format="FLOAT32" numvalues="1814"> 0.07342932 0.07344705 0.07352976 0.0736953 0.07390979 0.07410692 0.07423535 0.07429288 0.07430559 0.07428347
 0.07422912 0.07418767 0.07423864 0.07441526 0.07465358 0.07483523 0.07488035 0.07481943 0.07478125 0.07486948
 0.07502006 0.075013 0.07467636 0.07408369 0.07350968 0.07317626 0.07311019 0.07329865 0.07382675 0.07463001
 0.07521354 0.07500647 0.07408199 0.07318586 0.07291108 0.07313012 0.07334255 0.07324978 0.07285112 0.07233439
 0.07212137 0.07274751 0.07433461 0.07616428 0.07694094 0.07560979 0.07210864 0.06760073 0.06404489 0.06314702
 0.06515847 0.06853397 0.07109217 0.07175547 0.0710629 0.07006477 0.06919426 0.0684066 0.06790748 0.06818812
 0.06934621 0.07063174 0.07083444 0.06931715 0.06677443 0.06474087 0.06419194 0.06493249 0.06641774 0.06834757
 0.06983164 0.06891519 0.06450441 0.0587992 0.05630739 0.0595549 0.06638952 0.07209081 0.07357015 0.07109113
 0.06688946 0.06332453 0.06199973 0.06332701 0.06644221 0.06992373 0.07265994 0.07390332 0.07307601 0.07027267
 0.06675699 0.06434929 0.06430651 0.06682973 0.07102405 0.07498062 0.07664479 0.07533565 0.07219861 0.06899671
 0.06695218 0.06675373 0.06872789 0.07249354 0.07694463 0.08089335 0.08355398 0.08461787 0.08431582 0.08327206
 0.08202983 0.08096506 0.0806189 0.08136079 0.08251242 0.08261135 0.08100604 0.07872728 0.07742533 0.07766302
 0.07846823 0.07851501 0.07746461 0.07574009 0.07321042 0.06917498 0.06396998 0.05938875 0.05688988 0.05648984
 0.05782774 0.06073181 0.06397186 0.06519155 0.06348662 0.06104343 0.06096818 0.06397526 0.06802294 0.07080707
 0.07189097 0.07254191 0.07409368 0.07658088 0.0785694 0.07823966 0.07519715 0.07148664 0.07014602 0.07222396
 0.07577091 0.07823168 0.0791344 0.07980505 0.08104998 0.0819091 0.08066095 0.07687131 0.07249017 0.07064694
 0.07292566 0.0777781 0.08164775 0.08160451 0.07731609 0.07111405 0.06617299 0.06431612 0.06552672 0.06915516
 0.07462904 0.08082899 0.08580169 0.08785615 0.08679953 0.08382645 0.08016115 0.07593836 0.07085183 0.06601267
 0.06416461 0.06708255 0.07329365 0.07930781 0.08273134 0.08345149 0.08227046 0.07942969 0.07483551 0.06946337
 0.06581038 0.06595834 0.06906796 0.0718575 0.07203855 0.07039819 0.06910279 0.0689944 0.06928876 0.06923711
 0.06918459 0.06997088 0.07173049 0.07357751 0.07446665 0.07414742 0.0732021 0.07236207 0.07184834 0.07122248
 0.07000402 0.06861983 0.06836011 0.06996594 0.07261185 0.07475773 0.07569674 0.07581086 0.07554817 0.07464756
 0.07253247 0.0694065 0.06670024 0.0660096 0.06754865 0.0700181 0.07196146 0.07281311 0.072749 0.07215483
 0.07136737 0.07056239 0.06981246 0.06933263 0.06943166 0.07007076 0.07075653 0.07104059 0.0708901 0.07047056
 0.06982815 0.06894341 0.06795218 0.06715986 0.06682326 0.06695196 0.06734218 0.06776314 0.06804152 0.06802653
 0.06764336 0.06700645 0.06634694 0.06580424 0.06538717 0.06511613 0.06505974 0.06520431 0.06539837 0.06547891
 0.06539878 0.06520326 0.06493442 0.06460185 0.06422403 0.06386071 0.0635984 0.06349327 0.06350856 0.06353264
 0.06349726 0.06344405 0.06342359 0.06337837 0.0632056 0.06290466 0.06258667 0.06235353 0.06222064 0.06214063
 0.06204981 0.06188305 0.06158156 0.06114065 0.06067038 0.06035972 0.06032786 0.0605311 0.06083493 0.06112204
 0.06131013 0.06135119 0.06126811 0.06113717 0.06099742 0.06081763 0.06056983 0.06030251 0.06012655 0.06012931
 0.06029142 0.06049592 0.06063246 0.06067265 0.06064463 0.0605902 0.06055946 0.06057977 0.06060607 0.06055825
 0.0604258 0.06029097 0.06023737 0.06026534 0.06030131 0.06027802 0.06020605 0.06016136 0.06019689 0.06028715
 0.0603727 0.06043129 0.06048362 0.06054565 0.06059281 0.06057544 0.06047684 0.06034867 0.06026453 0.06024319
 0.06024924 0.06026224 0.060303 0.06038573 0.06047941 0.06053473 0.0605367 0.06051631 0.0605073 0.06050124
 0.06046033 0.06037236 0.06027209 0.06020354 0.06017792 0.06017378 0.06016385 0.06013449 0.06008549 0.06001984
 0.0599382 0.05984176 0.05973366 0.05961948 0.05951555 0.05945067 0.05944046 0.05945752 0.05944312 0.05935797
 0.05921798 0.05907691 0.05897515 0.05890675 0.05883799 0.05875214 0.05866449 0.05859513 0.0585438 0.058497
 0.05844612 0.0583935 0.05835475 0.05836076 0.05844012 0.0585841 0.05873791 0.05884384 0.05889279 0.05892297
 0.05897244 0.05904757 0.05913525 0.05922917 0.0593391 0.05947879 0.05964313 0.05979957 0.05991609 0.05999965
 0.06009036 0.06021687 0.06037639 0.06055523 0.0607402 0.06090791 0.06103482 0.06113001 0.06123452 0.06137567
 0.06153858 0.06169367 0.0618363 0.06198555 0.06215584 0.0623477 0.06256181 0.06280597 0.0630841 0.06338444
 0.06367864 0.06393395 0.06413919 0.06432571 0.06455211 0.06485567 0.065219 0.06558667 0.06591222 0.06619108
 0.06645258 0.06672329 0.06700489 0.06729287 0.06760201 0.06795301 0.06834003 0.06873323 0.06911187 0.06947853
 0.0698431 0.07020881 0.07057431 0.07094096 0.0713167 0.07171118 0.07211968 0.07251593 0.07287292 0.07319163
 0.07350169 0.07383668 0.07421038 0.07460469 0.07497242 0.07527076 0.07550925 0.07575099 0.07604659 0.07637921
 0.07669649 0.07698577 0.07728744 0.07763366 0.07800426 0.07835416 0.07866628 0.07896248 0.07927038 0.07958846
 0.07988242 0.08011664 0.0802929 0.08045357 0.08064136 0.08086737 0.08112812 0.08143386 0.08179277 0.08217627
 0.08252911 0.08281547 0.08303849 0.08322209 0.08339433 0.08358182 0.08379771 0.08403507 0.08427938 0.08451623
 0.08472528 0.08489397 0.08504868 0.08524449 0.08550829 0.08581668 0.08614247 0.08649154 0.08687332 0.08726594
 0.08764396 0.08802308 0.08843884 0.08888156 0.08928674 0.08960165 0.08983497 0.09002803 0.09020805 0.09039526
 0.09062934 0.09094775 0.09134178 0.09176239 0.09216822 0.09254928 0.09290886 0.09324301 0.09353994 0.09378885
 0.09398732 0.09414529 0.09428436 0.09443462 0.09462693 0.09487319 0.09514579 0.0953866 0.09554438 0.09559645
 0.09553519 0.09535937 0.09509477 0.09480062 0.09452231 0.09423733 0.09386877 0.09335393 0.09268429 0.09188221
 0.09096376 0.08993911 0.08883744 0.0877164 0.08664522 0.08568463 0.08488704 0.0843132 0.08403301 0.08408651
 0.08443144 0.08493468 0.08542034 0.0857256 0.08572597 0.08534883 0.08459748 0.08355825 0.08236031 0.08111636
 0.07989183 0.07870619 0.07754688 0.0764019 0.07531033 0.07438271 0.07376125 0.07357773 0.07397421 0.0751304
 0.07717854 0.08002962 0.08330573 0.0865035 0.08925977 0.09148121 0.09326978 0.09477851 0.09612475 0.0973672
 0.09851272 0.09954858 0.1004791 0.1013258 0.1020961 0.1027684 0.1033112 0.1037069 0.1039628 0.1041081
 0.1041743 0.104174 0.1041103 0.1040056 0.1038975 0.1037946 0.1036459 0.1033622 0.1028623 0.1020976
 0.101057 0.09980091 0.09856261 0.09782664 0.09819989 0.1000469 0.103182 0.1069466 0.1106134 0.1137318
 0.1161787 0.1180247 0.1194128 0.1204955 0.1213965 0.1221931 0.1229247 0.1236079 0.1242468 0.1248456
 0.1254155 0.1259698 0.1265163 0.1270543 0.1275745 0.1280661 0.1285304 0.1289881 0.1294648 0.1299687
 0.1304834 0.1309829 0.1314569 0.1319198 0.1323874 0.1328521 0.1332911 0.1336964 0.1340833 0.1344728
 0.134881 0.1353173 0.1357743 0.1362212 0.1366248 0.1369806 0.1373141 0.1376517 0.1379998 0.1383522
 0.138704 0.139055 0.1394049 0.1397562 0.1401173 0.1404921 0.1408649 0.1412083 0.1415086 0.14178
 0.1420501 0.1423367 0.1426397 0.1429519 0.1432737 0.1436156 0.1439845 0.1443683 0.1447392 0.1450751
 0.1453784 0.1456723 0.1459802 0.1463081 0.1466472 0.1469887 0.147327 0.1476563 0.147973 0.1482853
 0.1486092 0.1489501 0.1492948 0.1496252 0.149936 0.1502364 0.1505399 0.1508531 0.151175 0.1515053
 0.1518481 0.1522043 0.1525609 0.1528969 0.1531999 0.1534746 0.1537361 0.1539999 0.1542777 0.1545743
 0.1548857 0.1552005 0.1555078 0.1558065 0.1561054 0.1564137 0.1567317 0.1570521 0.157368 0.1576783
 0.1579865 0.1582992 0.1586219 0.1589509 0.1592737 0.1595807 0.1598746 0.1601652 0.1604594 0.1607585
 0.1610594 0.1613582 0.1616529 0.1619465 0.1622437 0.1625435 0.1628385 0.1631231 0.1633998 0.1636787
 0.1639681 0.1642684 0.1645747 0.1648817 0.1651848 0.1654799 0.1657653 0.1660428 0.1663152 0.1665853
 0.1668567 0.1671342 0.1674201 0.167711 0.1679972 0.1682705 0.1685324 0.1687909 0.1690503 0.1693087
 0.1695649 0.1698199 0.1700727 0.170323 0.1705726 0.1708219 0.1710695 0.1713178 0.1715719 0.1718304
 0.1720868 0.1723368 0.1725818 0.172824 0.173067 0.1733146 0.1735672 0.1738219 0.1740752 0.1743244
 0.1745684 0.1748101 0.1750538 0.1753013 0.1755531 0.1758068 0.1760543 0.1762866 0.1765051 0.1767207
 0.1769432 0.1771755 0.1774149 0.1776526 0.1778805 0.1781022 0.1783307 0.1785746 0.17883 0.1790845
 0.1793278 0.1795643 0.1798087 0.180066 0.1803227 0.1805661 0.1807992 0.1810312 0.1812685 0.1815176
 0.1817803 0.1820474 0.182307 0.1825559 0.1827966 0.1830328 0.1832691 0.1835095 0.1837549 0.1840079
 0.1842691 0.184533 0.1847945 0.1850562 0.1853167 0.185569 0.1858158 0.1860686 0.1863296 0.1865916
 0.1868523 0.1871112 0.1873641 0.187613 0.1878666 0.1881245 0.1883794 0.1886315 0.1888854 0.1891411
 0.1893996 0.1896646 0.1899345 0.1902073 0.1904859 0.1907667 0.1910408 0.1913112 0.1915815 0.19183
 0.1920019 0.1919788 0.1914745 0.1899159 0.1864237 0.179983 0.1698439 0.1559889 0.1393018 0.1212555
 0.1033708 0.08682309 0.07232156 0.06018839 0.05050157 0.04319219 0.03810875 0.03512241 0.03423653 0.03569661
 0.0401047 0.04805969 0.05882824 0.0691791 0.07464591 0.07304938 0.06657828 0.05979506 0.05584839 0.05495663
 0.05577246 0.05715209 0.05874184 0.06075809 0.06355563 0.06722045 0.07156326 0.07657149 0.0826244 0.09000994
 0.0983485 0.1067545 0.1146033 0.1220183 0.1295677 0.1375695 0.1457534 0.1535264 0.1604429 0.1664218
 0.1716517 0.1763889 0.1808167 0.1850196 0.189031 0.19284 0.1963159 0.199172 0.2010988 0.2019971
 0.2020943 0.2018202 0.2015591 0.2014961 0.2016494 0.2019812 0.2024614 0.2030734 0.2038031 0.2046282
 0.205514 0.2064268 0.2073461 0.2082542 0.2091247 0.2099321 0.2106673 0.2113362 0.2119523 0.212528
 0.2130667 0.2135649 0.2140242 0.2144543 0.2148648 0.2152627 0.2156527 0.2160326 0.2163918 0.2167218
 0.2170241 0.2173059 0.217575 0.2178386 0.2181001 0.2183574 0.2186089 0.2188572 0.2191047 0.2193535
 0.2196093 0.2198762 0.2201479 0.2204135 0.2206679 0.2209132 0.2211527 0.2213893 0.2216243 0.2218562
 0.2220857 0.2223201 0.222563 0.222808 0.2230486 0.2232893 0.2235389 0.2237965 0.2240507 0.2242924
 0.2245294 0.2247839 0.2250666 0.2253587 0.2256336 0.2258894 0.2261438 0.2264076 0.2266798 0.2269579
 0.2272318 0.2274806 0.2276927 0.2278852 0.2280937 0.2283424 0.2286243 0.2289086 0.2291723 0.2294194
 0.2296632 0.2299044 0.2301352 0.230355 0.2305755 0.23082 0.2311095 0.2314341 0.231755 0.2320491
 0.2323319 0.2326243 0.2329275 0.2332366 0.2335436 0.2338206 0.2340361 0.2342041 0.2343986 0.2347008
 0.2351227 0.2355844 0.2359851 0.2362947 0.2365602 0.2368423 0.2371733 0.237531 0.2378136 0.2379085
 0.2378585 0.2378958 0.238228 0.2388301 0.2395009 0.2400743 0.2405201 0.2408895 0.241226 0.2415219
 0.2417276 0.2418059 0.2418087 0.2418981 0.2422369 0.2428219 0.2434715 0.2440085 0.2443984 0.2446923
 0.2449373 0.2451665 0.245347 0.2453174 0.244958 0.244493 0.2444337 0.2450806 0.2461831 0.2472069
 0.2478644 0.2482617 0.2485965 0.2489125 0.2491641 0.2492645 0.2489609 0.2479734 0.2465389 0.2455734
 0.245916 0.2474816 0.249408 0.250921 0.2518218 0.2522976 0.2525909 0.2528414 0.252979 0.2527192
 0.2518806 0.2508211 0.2503528 0.2509904 0.2523726 0.2536506 0.2543553 0.2546477 0.2548714 0.2551664
 0.2553716 0.254981 0.2534351 0.2509452 0.2489046 0.2489084 0.2511935 0.2543521 0.2567261 0.2578345
 0.2582408 0.2583309 0.2577496 0.2560435 0.2533402 0.2502936 0.2478852 0.2472903 0.249097 0.2523312
 0.2550077 0.2560903 0.2563722 0.2571699 0.2587499 0.2603292 0.2610937 0.2608323 0.2597994 0.2582652
 0.2563808 0.254586 0.253865 0.2550564 0.2578351 0.2608176 0.2628404 0.2638452 0.2642818 0.26376
 0.2607763 0.2545244 0.2471609 0.2432109 0.2455721 0.2524799 0.2594011 0.2634945 0.2651658 0.2659307
 0.2663877 0.2660529 0.2636424 0.2577774 0.249153 0.2418936 0.2407634 0.2464594 0.2548244 0.2607259
 0.2615584 0.2575268 0.2507131 0.2444441 0.2419335 0.2443375 0.2502524 0.2570991 0.2626686 0.2657225
 0.2659797 0.2639992 0.2611303 0.2591811 0.2591185 0.259637 0.2581378 0.2540053 0.2496264 0.246878
 0.2442157 0.2395356 0.2348048 0.2347549 0.2407333 0.2484512 0.2527988 0.2530141 0.251772 0.2503255
 0.2463825 0.2374221 0.2254732 0.2172047 0.2180845 0.22671 0.2360647 0.2403797 0.2397107 0.2378889
 0.2373958 0.2368406 0.2329499 0.224836 0.2161253 0.2118952 0.213266 0.2163749 0.2169212 0.2136401
 0.2068536 0.1970053 0.1869662 0.1829351 0.1893007 0.2033137 0.2172027 0.2245497 0.2227264 0.2115774
 0.1941314 0.1782352 0.1727529 0.1797046 0.1918683 0.1994514 0.1978879 0.1886479 0.1750039 0.1597552
 0.1465044 0.140076 0.1436024 0.1553291 0.1687807 0.1760498 0.1721515 0.1588145 0.1446771 0.1390762
 0.1436555 0.1513162 0.1542065 0.1508417 0.1449913 0.1407069 0.1399322 0.1423289 0.1456947 0.147957
 0.1488387 0.1477472 0.141556 0.1284253 0.1131173 0.1039414 0.1041012 0.1099927 0.1178699 0.1272043
 0.1364018 0.1405058 0.1367792 0.1299174 0.1280874 0.1342624 0.1436424 0.1495009 0.1498512 0.1478512
 0.1468999 0.1469652 0.1463059 0.1454913 0.1475412 0.1537498 0.1613822 0.1667024 0.1688565 0.1695386
 0.1701333 0.1706838 0.170855 0.1705363 0.169776 0.1688962 0.1684059 0.1684206 0.1685487 0.1684741
 0.1679347 0.1658382 0.160507 0.1520207 0.1437114 0.1395443 0.1399274 0.1419528 0.1437481 0.1455872
 0.1457973 0.1395977 0.1254104 0.1100672 0.1038648 0.1106398 0.1249099 0.1381274 0.1452117 0.144989
 0.1376643 0.1251125 0.1131221 0.1095956 0.1180656 0.1342815 0.1507821 0.1633479 0.1714389 0.1745924
 0.1717361 0.1639191 0.1554082 0.151271 0.1543095 0.1637997 0.1756642 0.1834318 0.1813862 0.1702988
 0.1601093 0.162595 0.1788933 0.1974738 0.2070776 0.2081831 0.2083935 0.2106192 0.2116322 0.2104773
 0.2118381 0.219584 0.2310189 0.2395006 0.2402501 0.2322189 0.2174268 0.2014033 0.1918264 0.1925272
 0.1993877 0.2050306 0.2060665 0.2026828 0.1942816 0.1814674 0.1708682 0.1711131 0.1828213 0.1973482
 0.2066573 0.2106944 0.2138202 0.2172578 0.2175559 0.2117775 0.2023657 0.1956322 0.195459 0.1998416
 0.2041739 0.2060529 0.2053428 0.2014874 0.1938552 0.1846941 0.1791209 0.1807227 0.1879139 0.1954833
 0.1993006 0.1989251 0.1963397 0.1934604 0.1909147 0.1882156 0.1849339 0.1822167 0.1825865 0.1871811
 0.1937847 0.1990152 0.2021483 0.2053593 0.2103021 0.2158187 0.2193253 0.2196268 0.2180866 0.2174649
 0.2196738 0.2241958 0.2284335 0.2299084 0.2286059 0.2272038 0.2286111 0.2331955 0.2387515 0.2430097
 0.2454961 0.2470379 0.2484086 0.249681 0.2501833 0.2490017 0.2462683 0.2439401 0.2444131 0.2481313
 0.2531505 0.2571402 0.2592614 0.2600477 0.260136 0.2595856 0.2582536 0.2564187 0.2548048 0.2540265
 0.2541637 0.2548904 0.2558441 0.256794 0.2576185 0.2582823 0.2588098 0.2592247 0.2595395 0.2597931
 0.2600189 0.2601727 0.2601866 0.2601229 0.2601816 0.2604933 0.2609693 0.2614077 0.2616727 0.2616891
 0.2613457 0.2605453 0.2593455 0.2579219 0.2563625 0.2546145 0.2527307 0.2511229 0.2504349 0.251071
 0.2528424 0.2550935 0.2571503 0.2586464 0.2595254 0.2598903 0.259904 0.2597493 0.259576 0.2594522
 0.2593745 0.2593239 0.2592948 0.2592765 0.2592438 0.2591894 0.2591493 0.2591687 0.2592429 0.2593052
 0.2592766 0.2591254 0.2588841 0.2586097 0.2583249 0.2579901 0.2575315 0.256895 0.2560802 0.2551288
 0.2540945 0.2530267 0.2519653 0.2509201 0.2498487 0.2486714 0.247306 0.2456876 0.2437915 0.2416773
 0.2394897 0.2373809 0.2354342 0.2336613 0.2320268 0.230453 0.2288389 0.2271112 0.2252491 0.223262
 0.2211713 0.2190164 0.2168536 0.214734 0.2126807 0.210682 0.2086995 0.2066901 0.2046264 0.2024955
 0.2002723 0.1978912 0.1952496 0.1922418 0.1887875 0.1848397 0.1803952 0.1755224 0.170368 0.1651254
 0.1599889 0.1551231 0.1506493 0.1466501 0.1431854 0.1402948 0.13799 0.1362679 0.1351369 0.1346133
 0.1346941 0.1353398 0.1364763 0.138 0.1397875 0.1417093 0.1436369 0.1454569 0.1471091 0.1486199
 0.1500833 0.1515892 0.1531587 0.1547486 0.1563115 0.157835 0.1593197 0.160752 0.1621222 0.1634472
 0.1647502 0.1660402 0.1673238 0.1686134 0.1699041 0.1711606 0.172341 0.1734325 0.1744656 0.1755038
 0.176614 0.1778386 0.1791925 0.1806729 0.1822612 0.1839258 0.1856349 0.1873637 0.1890936 0.1908132
 0.1925203 0.1942207 0.1959343 0.1977009 0.199564 0.2015429 0.20362 0.2057405 0.2078154 0.209742
 0.211435 0.2128395 0.2139292 0.2147079 0.2152032 0.2154404 0.2154317 0.2152003 0.2148089 0.2143636
 0.2139898 0.2137874 0.2137905 0.213968 0.2142581 0.2146032 0.2149735 0.2153758 0.2158291 0.2163234
 0.2168175 0.2172748 0.2176811 0.2180272 0.2182969 0.2184676 0.2185108 0.2184063 0.2181673 0.2178394
 0.2174593 0.2170188 0.2164702 0.2157677 0.2149034 0.2139041 0.2127942 0.21158 0.2102717 0.2089005
 0.2074975 0.2060732 0.2046226 0.2031337 0.2015864 0.199951 0.1981931 0.1962881 0.1942538 0.1921694
 0.1901368 0.1882181 0.1864136 0.184688 0.1830028 0.1813385 0.1797033 0.1781168 0.1765844 0.1750952
 0.1736387 0.1722124 0.1708229 0.1694862 0.1682236 0.1670579 0.1660164 0.1651227 0.1643759 0.1637495
 0.1632202 0.1627891 0.1624756 0.1623007 0.1622645 0.1623293 0.1624268 0.1624927 0.1624967 0.1624518
 0.1624018 0.1623823 0.1623867 0.1623867 0.1623758 0.1623596 0.1623019 0.1621119 0.1616869 0.1609529
 0.1598767 0.1584702 0.1567943 0.1549585 0.1531054 0.151372 0.1498497 0.1485853 0.1475967 0.1468555
 0.1462758 0.1457725 0.1453395 0.145052 0.1449907 0.1451478 0.1453836 0.1455023 0.1454208 0.1452568
 0.1452242 0.145458 0.145946 0.1465739 0.1472039 0.1477343 0.148113 0.148318 0.1483573 0.1482795
 0.1481393 0.1479555 0.1477295 0.1474781 0.1472094 0.1468966 0.146502 0.1460012 0.1453854 0.1446696
 0.1438848 0.1430403 0.1421176 0.1411002 0.1399682 0.1387022 0.1373624 0.1361448 0.1352923 0.1349507
 0.135105 0.1356052 0.1362634 0.1369613 0.1376147 0.1380329 0.1380045 0.1376662 0.1376453 0.1386017
 0.1405949 0.1430008 0.1450511 0.1463569 0.1469226 0.1468617 0.1462625 0.1452116 0.1437496 0.1418394
 0.1394845 0.136798 0.1339049 0.130912 0.1279917 0.1253382 0.1230513 0.1211562 0.1196593 0.1186085
 0.1181374 0.1178939 0.1160633 0.1103027 0.1013243 0.09453723 0.09552108 0.1037563 0.1129536 0.1177049
 0.117816 0.1161384 0.1146638 0.1137062 0.1131645 0.1131594 0.1137966 0.1149365 0.116214 0.1172459
 0.1178697 0.1181176 0.1179532 0.1170637 0.1147986 0.1103676 0.1034672 0.09487537 0.08620977 0.07898339
 0.07391721 0.0709272 0.06942545 0.06867116 0.06815149 0.06781299 0.06794599 0.06884614 0.07057501 0.07299082
 0.07589752 0.07904722 0.08205135 0.08451228 0.08632042 0.08767304 0.08874902 0.08950108 0.08979214 0.08959554
 0.08901744 0.08821278 0.08731472 0.0863917 0.08542256 0.08432285 0.08306411 0.08180131 0.08080237 0.08019183
 0.07984433 0.07957088 0.07929717 0.0790233 0.07873905 0.07843378 0.07811686 0.07782812 0.07766353 0.07771929
 0.07796364 0.07823819 0.078413 0.0784823 0.07851166 0.07852155 0.07840838 0.07803945 0.07750184 0.07711677
 0.07702917 0.07693277 0.07645245 0.07569911 0.07519728 0.07530659 0.07589994 0.07657003 0.07698917 0.07708385
 0.0770285 0.0771409 0.07765932 0.0784788</values></Ydata></ScSm><ScRf><Ydata ylabel="Single channel"><values byteorder="INTEL" format="FLOAT32" numvalues="1820"> 0.06053974 0.06069229 0.06078796 0.06082277 0.06081694 0.06081649 0.06087362 0.0610124 0.06120896 0.06140314
 0.06153982 0.06160737 0.06162765 0.06161305 0.06156527 0.06151956 0.06154599 0.06168062 0.06187511 0.06202873
 0.06206985 0.06202038 0.06198662 0.06205414 0.06216864 0.06214882 0.06185716 0.06135828 0.06087779 0.06059588
 0.06053607 0.06069297 0.0611406 0.06182412 0.06232655 0.06216558 0.06139804 0.06064682 0.06041018 0.06058498
 0.06075843 0.06068714 0.06036965 0.0599519 0.05977459 0.0602842 0.06159271 0.06311134 0.06376101 0.06265385
 0.05972861 0.0559546 0.05297465 0.05222243 0.05391111 0.0567458 0.05889655 0.0594586 0.05888577 0.05806317
 0.05735362 0.05670909 0.05628885 0.05650229 0.05744346 0.05850004 0.05866593 0.05740459 0.05528975 0.05359905
 0.0531455 0.05376647 0.05500948 0.05662661 0.05787426 0.05711517 0.05342842 0.04864904 0.04655235 0.04926502
 0.05499472 0.05978325 0.06102993 0.05895061 0.05542738 0.05244629 0.05134692 0.0524624 0.05506402 0.05796847
 0.06025556 0.06130422 0.06062834 0.05830024 0.05537038 0.05336095 0.05333009 0.055452 0.05897629 0.06230039
 0.06370296 0.06261453 0.05999284 0.0573126 0.05559798 0.05542819 0.05708036 0.0602393 0.06398004 0.06730454
 0.06954822 0.07044606 0.07019134 0.06931772 0.06829316 0.06743133 0.06717037 0.06780856 0.0687799 0.06886474
 0.06751728 0.06559998 0.06449975 0.06469604 0.06537847 0.06543152 0.06456202 0.0631202 0.06100038 0.0576212
 0.05326675 0.0494397 0.04735946 0.04703613 0.04817101 0.0506305 0.05338392 0.05443882 0.05302039 0.05096493
 0.05089564 0.05342596 0.05684192 0.05919831 0.06012078 0.06067876 0.06200353 0.06412613 0.0658311 0.06557691
 0.06302907 0.05991711 0.05881134 0.06059846 0.06362727 0.06573713 0.06653624 0.06715421 0.06827238 0.06906861
 0.06807643 0.06492828 0.06128396 0.05979981 0.06181327 0.06600305 0.06934594 0.06934872 0.0657282 0.06048153
 0.05633181 0.05484011 0.05599038 0.05923533 0.06409924 0.06962454 0.07411873 0.07609954 0.07536973 0.07294626
 0.06989978 0.06636173 0.06206495 0.05798096 0.05653518 0.05931696 0.06504351 0.07062562 0.07392555 0.07482518
 0.07402217 0.0717082 0.06777544 0.06311072 0.0600199 0.0604347 0.06358489 0.0664326 0.06685247 0.06557176
 0.06461055 0.0647645 0.06530566 0.06553471 0.06578709 0.06686447 0.06888457 0.07098387 0.07215045 0.07213936
 0.07151452 0.07099539 0.07080154 0.07049051 0.06958359 0.06852663 0.06862748 0.07061823 0.07364261 0.07613543
 0.07739242 0.07782193 0.07788725 0.07729849 0.07542911 0.07248328 0.06997479 0.06960193 0.07160398 0.07460949
 0.07706208 0.07834132 0.07862388 0.07832223 0.07780301 0.07726692 0.07680835 0.07666804 0.07717361 0.07826647
 0.07939377 0.0800602 0.08023463 0.08010106 0.07970354 0.07902052 0.07822083 0.07766339 0.07763629 0.0781417
 0.07894647 0.0797886 0.08046358 0.08078276 0.08064505 0.08018672 0.07970242 0.07937542 0.07920881 0.07921107
 0.07946493 0.07996145 0.08051135 0.08090276 0.08107467 0.0810938 0.0810286 0.08089779 0.08071166 0.08052802
 0.08045708 0.08058067 0.08085103 0.08112288 0.08132558 0.08153483 0.08181186 0.08205058 0.08208619 0.08191358
 0.08170253 0.08161207 0.08166121 0.08177152 0.08185922 0.08185212 0.08167543 0.08131528 0.0809142 0.08072185
 0.08089578 0.08138856 0.08203632 0.08267621 0.08316972 0.08343183 0.08349556 0.08347526 0.08343117 0.08332568
 0.08312833 0.08291502 0.08284201 0.083025 0.08343359 0.08390768 0.08428644 0.08450674 0.0845943 0.08462828
 0.08471571 0.08490868 0.08512054 0.08520223 0.08512658 0.08503033 0.08505076 0.08517218 0.08526032 0.08522418
 0.08512123 0.08509709 0.08523093 0.08546352 0.08568211 0.08584586 0.08600618 0.0862147 0.08642741 0.08651988
 0.08642037 0.08621052 0.08604723 0.08599569 0.08600387 0.08603615 0.08614233 0.08635697 0.08660104 0.08674832
 0.08676836 0.08675198 0.08679066 0.08686683 0.08688311 0.08677856 0.08659112 0.08641647 0.08633181 0.08635418
 0.08644137 0.08652025 0.086531 0.08646277 0.08635158 0.08624199 0.08615576 0.08610487 0.08612585 0.08626695
 0.08651424 0.08674558 0.08680103 0.08662532 0.0863324 0.08610816 0.08604223 0.08606052 0.08602098 0.08585589
 0.08561121 0.08537196 0.08518325 0.08504086 0.08492466 0.0848272 0.08476794 0.08478902 0.08491257 0.0850813
 0.08516571 0.08506902 0.08482301 0.08455595 0.08437503 0.08430173 0.08429649 0.08430809 0.08431312 0.08433598
 0.08441088 0.08450837 0.08454111 0.08446708 0.08434752 0.08428362 0.084335 0.08450189 0.08472601 0.08489685
 0.08492188 0.08481924 0.08470292 0.08466481 0.08470538 0.08478019 0.08486605 0.08496292 0.08506544 0.08516487
 0.08527377 0.08542724 0.08564922 0.08591901 0.08617508 0.0863588 0.08646401 0.08654985 0.08669983 0.08695644
 0.08728734 0.08761269 0.08786988 0.08805886 0.08822655 0.08840865 0.08859906 0.08878624 0.08899722 0.08927281
 0.08960716 0.08994722 0.09025364 0.09053393 0.09081394 0.09110315 0.09139709 0.09170178 0.09204559 0.09245394
 0.09289894 0.09328941 0.0935431 0.0936719 0.09377877 0.09397353 0.09429608 0.09469153 0.09503813 0.09523679
 0.09531206 0.09540094 0.09560624 0.09588882 0.0961467 0.09637073 0.09665827 0.09707206 0.09754094 0.09792636
 0.09816103 0.09830005 0.09844588 0.09863952 0.09883152 0.09895712 0.09902374 0.09910102 0.09923337 0.09940699
 0.0996155 0.09990315 0.1002988 0.1007429 0.1011309 0.1014132 0.1016134 0.1017695 0.1018956 0.1019867
 0.1020317 0.1020332 0.1020323 0.1020829 0.1021845 0.1022759 0.1023173 0.1023454 0.1024235 0.1025739
 0.1027882 0.1030627 0.1033832 0.1036986 0.1039657 0.104216 0.1045251 0.1048965 0.1052228 0.1054001
 0.1054441 0.1054507 0.1054753 0.1055117 0.1055724 0.1057141 0.1059687 0.1063005 0.1066514 0.1069977
 0.107345 0.1076906 0.108005 0.1082412 0.1083609 0.1083664 0.1083161 0.108305 0.1084148 0.1086659
 0.1090059 0.109349 0.1096336 0.1098355 0.1099391 0.1099353 0.1098674 0.1098431 0.1099472 0.1101433
 0.1102938 0.1102788 0.1100709 0.1096996 0.1091913 0.1085686 0.1078848 0.1072258 0.1066724 0.1062699
 0.1060383 0.1060064 0.1062183 0.1066835 0.1073262 0.1080139 0.10864 0.1091468 0.1094669 0.1094999
 0.10919 0.1085977 0.1078633 0.1071163 0.1064312 0.1058271 0.1052711 0.1047166 0.1041915 0.1038464
 0.1038841 0.1044327 0.1054776 0.1068778 0.1084188 0.1098784 0.111106 0.1120748 0.1128604 0.1135585
 0.1142244 0.1148815 0.1155508 0.1162368 0.1168966 0.1174683 0.1179367 0.1183448 0.1187387 0.1191247
 0.1194787 0.1197737 0.1200036 0.1201965 0.12039 0.1205748 0.120687 0.1206803 0.1205825 0.1204575
 0.1203312 0.1201726 0.1199296 0.1195715 0.1191281 0.1187168 0.1185259 0.1187329 0.1194026 0.1204492
 0.1217027 0.1230156 0.1243004 0.1254777 0.1264454 0.1271332 0.1275682 0.1278525 0.1280883 0.1283357
 0.1286184 0.128934 0.1292609 0.1295747 0.1298678 0.1301553 0.1304636 0.130803 0.1311474 0.1314513
 0.1316981 0.1319242 0.1321895 0.132524 0.1329025 0.1332714 0.1336049 0.1339266 0.1342603 0.1345754
 0.1348137 0.1349691 0.135107 0.1353027 0.1355877 0.1359465 0.1363293 0.1366673 0.1369142 0.1370853
 0.1372408 0.1374288 0.1376559 0.1379052 0.1381626 0.1384213 0.1386789 0.138942 0.1392261 0.139533
 0.1398288 0.1400632 0.1402229 0.1403548 0.1405216 0.1407435 0.1409885 0.1412125 0.1414032 0.1415943
 0.1418357 0.142141 0.1424615 0.1427254 0.1429032 0.1430261 0.143148 0.1433013 0.1434865 0.1436892
 0.1438953 0.1440984 0.1443008 0.1445112 0.1447353 0.1449669 0.1451913 0.1453988 0.1455932 0.1457873
 0.1459904 0.1462016 0.1464179 0.1466499 0.1469191 0.147228 0.1475368 0.147788 0.1479569 0.1480698
 0.1481749 0.1483048 0.148467 0.1486542 0.1488575 0.1490707 0.1492876 0.1494995 0.1496991 0.1498876
 0.1500747 0.1502691 0.1504711 0.1506769 0.150889 0.1511158 0.1513584 0.1516021 0.1518274 0.1520287
 0.152216 0.1524029 0.1525961 0.1527933 0.1529857 0.153168 0.1533468 0.1535348 0.1537364 0.1539435
 0.1541443 0.1543322 0.154508 0.15468 0.1548602 0.1550561 0.155265 0.1554768 0.1556835 0.1558861
 0.1560897 0.156293 0.1564876 0.1566704 0.1568506 0.1570405 0.1572435 0.1574543 0.1576655 0.1578712
 0.1580695 0.1582628 0.1584556 0.1586507 0.1588469 0.1590409 0.1592313 0.1594212 0.1596141 0.1598098
 0.1600078 0.1602108 0.1604197 0.1606295 0.1608376 0.1610478 0.1612607 0.161471 0.1616779 0.1618889
 0.1621091 0.1623361 0.1625661 0.1627965 0.1630236 0.1632428 0.1634517 0.1636511 0.1638432 0.1640285
 0.1642074 0.1643843 0.1645657 0.1647514 0.1649351 0.165115 0.165298 0.1654876 0.1656785 0.1658653
 0.1660492 0.1662369 0.166437 0.1666519 0.1668726 0.1670866 0.1672904 0.1674878 0.1676815 0.1678736
 0.1680662 0.1682596 0.1684544 0.1686547 0.1688619 0.1690703 0.1692773 0.1694872 0.1697025 0.1699191
 0.1701322 0.1703391 0.1705414 0.1707473 0.1709627 0.1711808 0.1713902 0.1715901 0.1717871 0.1719873
 0.1721967 0.1724181 0.1726443 0.1728662 0.1730841 0.1733006 0.1735125 0.173719 0.1739262 0.1741376
 0.1743534 0.1745731 0.1747908 0.1749985 0.1752009 0.1754099 0.175627 0.175846 0.1760659 0.1762832
 0.1764891 0.1766834 0.176874 0.177055 0.1771865 0.1771523 0.176669 0.1751925 0.1719064 0.1658745
 0.1564069 0.1434939 0.1279641 0.1111924 0.09459324 0.07925275 0.06582019 0.05458664 0.04562115 0.03885957
 0.03416158 0.03140565 0.03059044 0.03193778 0.03599949 0.04332604 0.05324162 0.06276897 0.06779174 0.06630138
 0.06031694 0.05404652 0.05039511 0.04956759 0.05032505 0.05160917 0.05308289 0.05493835 0.05750548 0.06086913
 0.06485587 0.0694538 0.07501467 0.08180483 0.08947141 0.09719431 0.1043961 0.1111904 0.1181012 0.1254225
 0.1329095 0.140024 0.1463648 0.1518594 0.1566723 0.1610235 0.1650702 0.1688925 0.1725331 0.1759895
 0.1791363 0.181705 0.1834191 0.1842026 0.1842687 0.1840017 0.1837389 0.1836435 0.1837405 0.1840094
 0.1844273 0.1849687 0.1856107 0.1863351 0.18712 0.1879381 0.1887637 0.1895693 0.1903271 0.1910242
 0.1916666 0.1922638 0.1928181 0.193329 0.1937957 0.194219 0.1946083 0.194978 0.1953335 0.1956713
 0.1959914 0.1962973 0.1965884 0.1968602 0.1971127 0.1973499 0.1975765 0.1977977 0.198017 0.1982345
 0.1984489 0.1986591 0.1988638 0.1990626 0.1992569 0.1994481 0.1996381 0.1998311 0.2000312 0.2002354
 0.2004384 0.2006401 0.2008436 0.2010497 0.2012573 0.2014645 0.2016652 0.2018531 0.2020287 0.2021999
 0.2023754 0.2025634 0.2027679 0.202982 0.2031921 0.2033941 0.2035952 0.2038019 0.2040139 0.2042281
 0.2044401 0.204646 0.204851 0.2050661 0.2052882 0.2054931 0.205661 0.2058046 0.2059627 0.2061668
 0.2064107 0.2066572 0.2068766 0.2070728 0.2072686 0.207474 0.2076751 0.2078505 0.2079992 0.2081549
 0.20836 0.2086173 0.208887 0.2091381 0.2093758 0.2096143 0.2098548 0.2100963 0.2103322 0.2105364
 0.2106852 0.2108032 0.2109633 0.2112291 0.2115943 0.2119799 0.2123009 0.2125386 0.2127389 0.2129566
 0.2132173 0.2134933 0.213688 0.2137082 0.2136095 0.2136105 0.213891 0.2144142 0.2149924 0.2154779
 0.2158464 0.2161434 0.2164067 0.2166303 0.216771 0.216798 0.216761 0.2168062 0.2170772 0.2175671
 0.2181104 0.2185473 0.2188501 0.2190701 0.2192508 0.2194165 0.2195323 0.2194537 0.2190804 0.2186204
 0.218532 0.2190774 0.2200249 0.2208962 0.2214408 0.2217612 0.2220404 0.2223187 0.2225462 0.2226282
 0.2223278 0.2214025 0.2200846 0.2192072 0.2195154 0.220915 0.2226228 0.223948 0.2247251 0.2251334
 0.225392 0.2256122 0.2257145 0.2254427 0.2246516 0.2236793 0.2232595 0.2238493 0.2251137 0.2262793
 0.2269218 0.2271917 0.2273996 0.2276675 0.22785 0.2274938 0.2260915 0.2238298 0.2219726 0.2219706
 0.2240411 0.2269076 0.2290678 0.2300843 0.2304646 0.2305561 0.2300361 0.2284976 0.226065 0.2233361
 0.2211916 0.2206812 0.2223315 0.2252676 0.2277074 0.228723 0.2290239 0.2297777 0.2312123 0.2326344
 0.2333353 0.2331374 0.2322595 0.2309238 0.2292544 0.2276548 0.2270284 0.2281362 0.2306775 0.2333983
 0.2352505 0.236183 0.2366021 0.236158 0.2334986 0.2278965 0.2212914 0.2177593 0.2199214 0.2262023
 0.2325181 0.2362888 0.2378618 0.2386044 0.239067 0.2388181 0.2366955 0.2314469 0.2237002 0.2171969
 0.2162586 0.2215102 0.2291734 0.2345985 0.2354298 0.2318446 0.2257183 0.2200704 0.2178325 0.2200729
 0.2255321 0.2318683 0.2370598 0.2399642 0.2403173 0.2386235 0.2361144 0.2344479 0.2345055 0.2350831
 0.2338077 0.2301364 0.2262626 0.2238995 0.2216354 0.2175513 0.2134463 0.2136452 0.2193748 0.2266991
 0.2309366 0.2314003 0.2305426 0.2294896 0.2261141 0.2181002 0.2073364 0.1999975 0.2011473 0.2094779
 0.2184744 0.2227989 0.2225364 0.2212659 0.2212892 0.2212878 0.2181772 0.2111309 0.2036172 0.2004861
 0.2028067 0.2069083 0.2087196 0.2070142 0.2019784 0.1939041 0.1855337 0.1829051 0.1902606 0.2048536
 0.2190965 0.2268032 0.2254464 0.2148034 0.1978516 0.1826027 0.1782019 0.1867292 0.2006662 0.2098125
 0.2093807 0.2008416 0.1875655 0.1725306 0.1597228 0.1545579 0.1606387 0.17611 0.193671 0.2041695
 0.201649 0.1880184 0.173541 0.1694482 0.1776745 0.1894878 0.1952636 0.1932221 0.1880661 0.1849462
 0.1864923 0.1923228 0.1994455 0.20508 0.2088723 0.2097114 0.2027327 0.1851628 0.164045 0.1515971
 0.1525283 0.1616216 0.173498 0.1874465 0.201078 0.2070118 0.2011965 0.1905948 0.1872632 0.1955555
 0.208397 0.2159442 0.2153316 0.2111976 0.2085222 0.2073239 0.2051422 0.2027773 0.2044917 0.212128
 0.2218917 0.2285884 0.2310237 0.2315331 0.2320178 0.2325035 0.2324804 0.2317697 0.2304386 0.2289251
 0.2279102 0.2275492 0.2273269 0.2268425 0.225771 0.2226478 0.2151952 0.2035182 0.1921286 0.1863683
 0.1867491 0.1893207 0.1915434 0.1937658 0.1937506 0.1851403 0.1658533 0.1449677 0.1361189 0.1443292
 0.1622668 0.1786028 0.1866927 0.1851506 0.1744567 0.1571562 0.1405724 0.1345255 0.1433236 0.1616271
 0.1801553 0.1936875 0.2016687 0.2037808 0.1989477 0.1884824 0.1773583 0.1713683 0.1735924 0.1830394
 0.1949837 0.2021902 0.1984527 0.1847587 0.1720094 0.1729814 0.1889258 0.2074861 0.2165862 0.2166595
 0.2157551 0.2170313 0.2171864 0.2152311 0.2160136 0.2235674 0.2351749 0.2440429 0.2452666 0.2377707
 0.2236864 0.2088373 0.2012158 0.2045416 0.2139701 0.2213073 0.2229065 0.2191796 0.209774 0.1956174
 0.1840415 0.1843652 0.1971041 0.2127605 0.2226177 0.2266753 0.2296869 0.2329755 0.2328311 0.226136
 0.21558 0.2080114 0.207675 0.2125026 0.2176221 0.2204921 0.2209442 0.2182845 0.2117237 0.2036783
 0.1997896 0.2040174 0.2145196 0.2253509 0.2317609 0.2331505 0.2316703 0.2294247 0.2270662 0.2239702
 0.2196352 0.2155026 0.2146777 0.2186164 0.2248059 0.2293511 0.2314417 0.2336119 0.2377603 0.2425303
 0.2449584 0.2437045 0.2403163 0.2378718 0.2385107 0.2417449 0.2448256 0.2450889 0.2424909 0.2398867
 0.2403971 0.2444315 0.2496431 0.2535976 0.255752 0.256943 0.2579589 0.2588543 0.2589105 0.2571766
 0.2538125 0.2508796 0.2508796 0.2542673 0.259012 0.2626978 0.2644849 0.2649683 0.2648339 0.2641448
 0.2627433 0.2609015 0.2593416 0.258664 0.2589161 0.2597312 0.2607114 0.2616032 0.2622816 0.2627357
 0.2630356 0.263243 0.263379 0.2634745 0.2635621 0.2636061 0.263538 0.263404 0.2633812 0.2635803
 0.2638952 0.2641141 0.264116 0.2638749 0.263335 0.2624198 0.2611685 0.2597382 0.2582214 0.2565731
 0.2548389 0.2534183 0.2529511 0.2538329 0.2558464 0.2582965 0.2604905 0.2620817 0.2630603 0.26357
 0.2637818 0.2638452 0.2638517 0.2638151 0.2637028 0.2634916 0.2631924 0.2628338 0.2624407 0.2620351
 0.2616514 0.261327 0.2610664 0.2608193 0.2605087 0.2600894 0.2595799 0.2590382 0.258503 0.257952
 0.2573177 0.2565474 0.2556458 0.2546709 0.2537037 0.2528137 0.2520225 0.2512863 0.2505323 0.2497145
 0.2488176 0.2478201 0.2467086 0.2455475 0.2444807 0.2436201 0.2429464 0.242342 0.2416952 0.240951
 0.2400969 0.2391472 0.2381321 0.237075 0.2359771 0.2348306 0.2336306 0.2323684 0.2310297 0.2296066
 0.2281003 0.2265186 0.2248859 0.2232394 0.2215829 0.2198426 0.2178815 0.2155573 0.2127587 0.2094116
 0.2054881 0.2010376 0.1962111 0.1912349 0.1863356 0.1816775 0.1773646 0.173483 0.170121 0.1673577
 0.1652499 0.1638321 0.1631215 0.163123 0.1638251 0.1651885 0.167141 0.169584 0.1723933 0.1754087
 0.1784386 0.181302 0.1838944 0.1862294 0.1884023 0.1904905 0.1924896 0.1943441 0.1960138 0.1974854
 0.1987501 0.1998029 0.2006571 0.2013403 0.2018831 0.2023234 0.2027032 0.2030507 0.2033674 0.2036397
 0.2038605 0.2040431 0.2042158 0.2044054 0.2046245 0.2048715 0.205142 0.2054447 0.2058062 0.2062469
 0.206751 0.2072803 0.2078184 0.2083836 0.2089932 0.2096457 0.2103475 0.2111394 0.2120787 0.2131972
 0.2144725 0.2158356 0.2172039 0.2185083 0.2196914 0.2206972 0.221481 0.2220259 0.2223437 0.222459
 0.2223988 0.2221925 0.2218731 0.2214722 0.2210114 0.2204992 0.2199351 0.2193173 0.2186466 0.2179281
 0.2171776 0.2164267 0.2157136 0.2150564 0.2144375 0.2138213 0.2131903 0.2125552 0.2119341 0.2113334
 0.2107487 0.210174 0.2096075 0.2090517 0.2085039 0.2079438 0.207333 0.2066334 0.2058256 0.2049089
 0.2038896 0.2027721 0.2015594 0.2002588 0.1988817 0.197438 0.1959329 0.1943668 0.1927365 0.1910279
 0.1892101 0.1872545 0.1851826 0.1830901 0.1810999 0.1792799 0.1776155 0.1760561 0.1745696 0.1731545
 0.1718191 0.1705573 0.169346 0.1681677 0.167031 0.1659601 0.1649665 0.164041 0.1631689 0.1623489
 0.1616 0.1609487 0.1604023 0.1599418 0.1595418 0.1591897 0.1588928 0.1586845 0.1586071 0.1586604
 0.1587738 0.1588489 0.1588277 0.1587157 0.1585615 0.1584198 0.1583215 0.1582653 0.1582288 0.1581728
 0.1580361 0.1577413 0.1572039 0.1563466 0.1551311 0.1535873 0.1518039 0.1499023 0.1480282 0.1463252
 0.1448853 0.1437338 0.1428584 0.1422193 0.1417443 0.1413638 0.1410623 0.1408806 0.140871 0.1410334
 0.1412732 0.1414508 0.1415133 0.1415571 0.1417383 0.1421512 0.1427842 0.1435355 0.1442708 0.1449052
 0.1454228 0.1458194 0.1460801 0.1462144 0.1462484 0.146188 0.146036 0.1458215 0.1455692 0.1452751
 0.1449277 0.1445188 0.1440369 0.1434814 0.1428575 0.1421497 0.1413442 0.1404525 0.13946 0.138318
 0.1370732 0.1359499 0.1352317 0.1350907 0.1355176 0.1363388 0.1373241 0.1383389 0.1393267 0.1401292
 0.1405206 0.1405654 0.1407984 0.1418419 0.1438172 0.1462084 0.1483141 0.1497526 0.1505115 0.1506758
 0.1502927 0.1494086 0.1480336 0.1461152 0.143675 0.1408753 0.13788 0.1348052 0.1318284 0.1291577
 0.1269023 0.1250841 0.1236917 0.122745 0.1223624 0.1221769 0.120302 0.1143079 0.1049747 0.09797206
 0.09908706 0.1077224 0.1173219 0.1222967 0.1224675 0.1207902 0.1193242 0.1183927 0.1178901 0.1179447
 0.1186638 0.1198886 0.1212365 0.1223275 0.1230145 0.1233447 0.1232779 0.1224426 0.1200763 0.1153041
 0.107848 0.09861403 0.08936869 0.08171292 0.07636647 0.07319601 0.07157964 0.07077199 0.07026201 0.06999926
 0.07027581 0.07136573 0.07329765 0.07593468 0.07911877 0.08260992 0.08598422 0.088815 0.09098744 0.09268913
 0.09407955 0.09510705 0.09565388 0.09571373 0.09538329 0.09477936 0.094016 0.09318904 0.09230506 0.09126535
 0.09002914 0.08879367 0.08788867 0.0874588 0.08735545 0.08735341 0.08734868 0.08733256 0.08730452 0.08725437
 0.0871778 0.08711638 0.08718857 0.08750384 0.08801994 0.08855125 0.08893082 0.08912636 0.08920789 0.08920539
 0.08898832 0.08838445 0.087496 0.08671696 0.08624294 0.08573799 0.08476404 0.08343548 0.08236457 0.08198997
 0.08218654 0.08251692 0.08264858 0.08250466 0.0822324 0.08213937 0.0824901 0.08318812 0.08375044 0.08375722
</values></Ydata></ScRf><Data_Parameters_AB><parameter name="DPF">1</parameter><parameter name="NPT">3497</parameter><parameter name="FXV">3996</parameter><parameter name="LXV">500</parameter><parameter name="CSF">1</parameter><parameter name="MXY">0.16853491961956</parameter><parameter name="MNY">-0.0826011151075363</parameter><parameter name="DAT">02/06/2022</parameter><parameter name="TIM">11:31:57.319 (GMT+2)</parameter><parameter name="DXU">WN</parameter></Data_Parameters_AB><AB__Qtest><MainReport name="Quality Test Report"><Header><Line><Legend>Test result ok/not ok [1/0]: </Legend><Value>0</Value></Line><Line><Legend>Method file: </Legend><Value>C:\Users\Public\Documents\Bruker\OPUS_8.2.28\QT\IRBT_v3_default.QT</Value></Line></Header><Matrix><Line><Legend></Legend><Legend>min</Legend><Legend>max</Legend><Legend>measured</Legend></Line><Line><Value>Absorption (X-Range 1):</Value><Value>0.400000</Value><Value>2.000000</Value><Value>0.218283</Value></Line><Line><Value>Noise (X-Range 4):</Value><Value></Value><Value>0.000300</Value><Value>0.000056</Value></Line><Line><Value>Signal/Noise (X-Range 2):</Value><Value>200.000000</Value><Value></Value><Value>83.239076</Value></Line><Line><Value>Signal/Noise (X-Range 3):</Value><Value>40.000000</Value><Value></Value><Value>50.564438</Value></Line><Line><Value>Water vapour (X-Range 5):</Value><Value></Value><Value>0.000300</Value><Value>0.000094</Value></Line><Line><Value>Signal/Water (X-Range 2):</Value><Value>100.000000</Value><Value></Value><Value>48.989072</Value></Line><Line><Value>Signal/Water (X-Range 3):</Value><Value>20.000000</Value><Value></Value><Value>29.758918</Value></Line><Line><Value>Fringes (X-Range 6):</Value><Value></Value><Value>0.000100</Value><Value>0.000086</Value></Line></Matrix></MainReport></AB__Qtest><Data_Parameters_ScSm><parameter name="DPF">1</parameter><parameter name="NPT">1814</parameter><parameter name="FXV">3996.33169228125</parameter><parameter name="LXV">499.541461535156</parameter><parameter name="CSF">1</parameter><parameter name="MXY">0.266387671232224</parameter><parameter name="MNY">0.0342365317046642</parameter><parameter name="DAT">02/06/2022</parameter><parameter name="TIM">11:31:57.319 (GMT+2)</parameter><parameter name="DXU">WN</parameter></Data_Parameters_ScSm><Data_Parameters_ScRf><parameter name="DPF">1</parameter><parameter name="NPT">1820</parameter><parameter name="FXV">4004.04661832813</parameter><parameter name="LXV">495.683998511719</parameter><parameter name="CSF">1</parameter><parameter name="MXY">0.26496833562851</parameter><parameter name="MNY">0.0305904448032379</parameter><parameter name="DAT">02/06/2022</parameter><parameter name="TIM">11:31:31.818 (GMT+2)</parameter><parameter name="DXU">WN</parameter></Data_Parameters_ScRf><Optic_Parameters_Rf><parameter name="APR">0</parameter><parameter name="APT">Open</parameter><parameter name="BMS">KBr</parameter><parameter name="DTC">RT-DLaTGS_IR-Biotyper [Microplate reader]</parameter><parameter name="HPF">0</parameter><parameter name="LPF">10.0</parameter><parameter name="LPV">4000</parameter><parameter name="PGR">0</parameter><parameter name="RCH">Module port</parameter><parameter name="RDX">0</parameter><parameter name="SRC">MIR</parameter><parameter name="VEL">10.0</parameter><parameter name="SON">Off</parameter></Optic_Parameters_Rf><Acquisition_Parameters_Rf><parameter name="ADT">1</parameter><parameter name="AQM">DD</parameter><parameter name="CFE">0</parameter><parameter name="COR">0</parameter><parameter name="DEL">0</parameter><parameter name="DLY">0</parameter><parameter name="HFW">8000</parameter><parameter name="LFW">0</parameter><parameter name="NSR">32</parameter><parameter name="PLF">AB</parameter><parameter name="RES">6</parameter><parameter name="RGN">-1</parameter><parameter name="STR">0</parameter><parameter name="TCL">MakeCompatibleScalar (0, {WSV=1.000000, ARV=0});</parameter><parameter name="TDL">37</parameter><parameter name="RPO">0</parameter></Acquisition_Parameters_Rf><FT_-_Parameters_Rf><parameter name="APF">B3</parameter><parameter name="HFQ">500</parameter><parameter name="LFQ">4000</parameter><parameter name="NLI">0</parameter><parameter name="PHR">24</parameter><parameter name="PHZ">ML</parameter><parameter name="SPZ">NO</parameter><parameter name="ZFF">1</parameter></FT_-_Parameters_Rf><Optic_Parameters_><parameter name="APR">0</parameter><parameter name="APT">Open</parameter><parameter name="BMS">KBr</parameter><parameter name="CHN">Module port</parameter><parameter name="DTC">RT-DLaTGS_IR-Biotyper [Microplate reader]</parameter><parameter name="HPF">0</parameter><parameter name="LPF">10.0</parameter><parameter name="LPV">4000</parameter><parameter name="PGN">0</parameter><parameter name="RDX">0</parameter><parameter name="SRC">MIR</parameter><parameter name="VEL">10.0</parameter><parameter name="SON">Off</parameter></Optic_Parameters_><FT_-_Parameters_><parameter name="APF">B3</parameter><parameter name="HFQ">500</parameter><parameter name="LFQ">4000</parameter><parameter name="NLI">0</parameter><parameter name="PHR">24</parameter><parameter name="PHZ">ML</parameter><parameter name="SPZ">NO</parameter><parameter name="ZFF">1</parameter></FT_-_Parameters_><Acquisition_Parameters_><parameter name="ADT">1</parameter><parameter name="AQM">DD</parameter><parameter name="CFE">0</parameter><parameter name="COR">0</parameter><parameter name="DEL">0</parameter><parameter name="DLY">0</parameter><parameter name="HFW">8000</parameter><parameter name="LFW">0</parameter><parameter name="NSS">32</parameter><parameter name="PLF">AB</parameter><parameter name="RES">6</parameter><parameter name="SOT">0</parameter><parameter name="TCL">MakeCompatibleScalar (0, {WSV=1.000000, ARV=0});</parameter><parameter name="TDL">37</parameter><parameter name="SPO">0</parameter><parameter name="SGN">-1</parameter></Acquisition_Parameters_><Instrument_Parameters_Rf><parameter name="HFL">15800.168544</parameter><parameter name="LFL">0</parameter><parameter name="LWN">15800.168544</parameter><parameter name="ABP">32197</parameter><parameter name="SSP">1</parameter><parameter name="ARG">2</parameter><parameter name="ASG">2</parameter><parameter name="ASS">32</parameter><parameter name="GFW">16</parameter><parameter name="GBW">16</parameter><parameter name="BFW">0</parameter><parameter name="BBW">0</parameter><parameter name="PKA">7270</parameter><parameter name="PKL">4996</parameter><parameter name="PRA">7448</parameter><parameter name="PRL">5001</parameter><parameter name="P2A">1</parameter><parameter name="P2L">1</parameter><parameter name="P2R">1</parameter><parameter name="P2K">1</parameter><parameter name="DAQ">0</parameter><parameter name="AG2">1</parameter><parameter name="SSM">1</parameter><parameter name="RSN">26059</parameter><parameter name="CRR">0</parameter><parameter name="SRT">1654169491.818</parameter><parameter name="DUR">19.6379852294922</parameter><parameter name="TSC">28.2</parameter><parameter name="MVD">1.21801805496216</parameter><parameter name="AN1">0.225811610709013</parameter><parameter name="AN2">0</parameter><parameter name="VSN">2.485 Apr  4 2017</parameter><parameter name="SRN">0085</parameter><parameter name="CAM">0</parameter><parameter name="INS">IR-Biotyper</parameter><parameter name="FOC">69</parameter><parameter name="RDY">1</parameter><parameter name="ARS">32</parameter></Instrument_Parameters_Rf><Sample_Parameters_><parameter name="BLD"></parameter><parameter name="CNM">Admin</parameter><parameter name="CPY"></parameter><parameter name="DPM"></parameter><parameter name="EXP">IRBT_v3_32Scans.XPM</parameter><parameter name="LCT"></parameter><parameter name="SFM">Microplate, HTS-XT</parameter><parameter name="SNM">220602-1054_GFG29M (D_2)_G3_39d82eb3-f92f-4143-9dfa-701efc486498.0</parameter><parameter name="XPP">C:\Users\Public\Documents\Bruker\OPUS_8.2.28\XPM</parameter><parameter name="IST">OK</parameter><parameter name="CPG">1252</parameter><parameter name="UID">b9bf9344-a995-4241-a702-01f144cd5048</parameter></Sample_Parameters_><Instrument_Parameters_><parameter name="HFL">15800.168544</parameter><parameter name="LFL">0</parameter><parameter name="LWN">15800.168544</parameter><parameter name="ABP">32197</parameter><parameter name="SSP">1</parameter><parameter name="ASG">2</parameter><parameter name="ARG">2</parameter><parameter name="ASS">32</parameter><parameter name="GFW">16</parameter><parameter name="GBW">16</parameter><parameter name="BFW">0</parameter><parameter name="BBW">0</parameter><parameter name="PKA">7184</parameter><parameter name="PKL">4988</parameter><parameter name="PRA">7475</parameter><parameter name="PRL">4993</parameter><parameter name="P2A">1</parameter><parameter name="P2L">1</parameter><parameter name="P2R">1</parameter><parameter name="P2K">1</parameter><parameter name="DAQ">0</parameter><parameter name="AG2">1</parameter><parameter name="SSM">1</parameter><parameter name="RSN">13655</parameter><parameter name="CRR">0</parameter><parameter name="SRT">1654169517.319</parameter><parameter name="DUR">19.6379852294922</parameter><parameter name="TSC">28.2</parameter><parameter name="MVD">0.285056054592133</parameter><parameter name="AN1">0.225809111258567</parameter><parameter name="AN2">0</parameter><parameter name="VSN">2.485 Apr  4 2017</parameter><parameter name="SRN">0085</parameter><parameter name="CAM">0</parameter><parameter name="INS">IR-Biotyper</parameter><parameter name="FOC">69</parameter><parameter name="RDY">1</parameter></Instrument_Parameters_><History/></OPUSDataFile>
