<?xml version="1.0" encoding="UTF-8" ?>
<OPUSDataFile><AB><Ydata ylabel="Absorbance Units"><values byteorder="INTEL" format="FLOAT32" numvalues="3497"> -0.08348636 -0.08352901 -0.08357186 -0.08361606 -0.08364429 -0.08365569 -0.08364001 -0.08359797 -0.08353455 -0.08345294
 -0.08337386 -0.08329999 -0.08325283 -0.08323008 -0.08323856 -0.08327106 -0.08331997 -0.08337708 -0.08343041 -0.08347489
 -0.08350205 -0.08351263 -0.08350313 -0.0834818 -0.08344921 -0.08341893 -0.08339377 -0.08338612 -0.08339885 -0.08343542
 -0.08349721 -0.08357427 -0.08366608 -0.08375456 -0.08383922 -0.08390842 -0.08396375 -0.0840086 -0.08404472 -0.08408099
 -0.08411586 -0.08415035 -0.08418167 -0.08420467 -0.08422043 -0.08422713 -0.08422966 -0.08423126 -0.08423539 -0.08424547
 -0.0842604 -0.08428179 -0.0843024 -0.08432172 -0.08432877 -0.0843212 -0.08429566 -0.08425058 -0.08419976 -0.0841439
 -0.08410472 -0.08408255 -0.08408767 -0.08411759 -0.08416288 -0.08422069 -0.08427512 -0.08432675 -0.08436854 -0.08440352
 -0.08443394 -0.08446114 -0.08448854 -0.08451354 -0.08453557 -0.08455111 -0.08455726 -0.08455519 -0.08454392 -0.08452858
 -0.0845103 -0.0844923 -0.08447486 -0.08446245 -0.08445476 -0.08446562 -0.08449578 -0.08456275 -0.08466651 -0.08481268
 -0.0849971 -0.08520036 -0.08541295 -0.08558966 -0.08572491 -0.08577711 -0.08575988 -0.0856724 -0.0855417 -0.0853981
 -0.08526203 -0.08516297 -0.08509915 -0.08508234 -0.0850877 -0.08510868 -0.08512596 -0.08512937 -0.08513167 -0.08513191
 -0.08515497 -0.08520481 -0.08527676 -0.08537093 -0.08544973 -0.08551224 -0.08553582 -0.08552568 -0.08550295 -0.08547332
 -0.08547218 -0.08549403 -0.08554669 -0.0856143 -0.08567155 -0.08571316 -0.08571731 -0.0857015 -0.08567274 -0.08564541
 -0.08563314 -0.08562919 -0.08563349 -0.08564109 -0.08564691 -0.08566941 -0.08570939 -0.08579398 -0.08592812 -0.08610573
 -0.08632746 -0.0864989 -0.08661481 -0.08656864 -0.08637711 -0.08609468 -0.08574207 -0.08542992 -0.0851557 -0.08496832
 -0.08485726 -0.0848301 -0.0848674 -0.08495509 -0.08506048 -0.08515298 -0.0852099 -0.08520201 -0.08515123 -0.08505441
 -0.08495474 -0.08486629 -0.08479822 -0.08475669 -0.08472308 -0.08469548 -0.08466759 -0.08463876 -0.0846222 -0.08461845
 -0.08463906 -0.0846824 -0.08474487 -0.08482185 -0.08489528 -0.08495891 -0.08498688 -0.084979 -0.08491894 -0.08482098
 -0.08469277 -0.08455528 -0.08442852 -0.08432491 -0.08425801 -0.08422866 -0.0842419 -0.08428846 -0.08436907 -0.08446429
 -0.0845722 -0.08467026 -0.08475637 -0.08481038 -0.08483101 -0.08479939 -0.08471549 -0.08457581 -0.08438446 -0.08416597
 -0.08392582 -0.08369861 -0.08348565 -0.08330824 -0.08316358 -0.0830575 -0.08298383 -0.08293992 -0.08291327 -0.08289424
 -0.08286905 -0.08282474 -0.08276312 -0.08267859 -0.0825901 -0.08250141 -0.08242733 -0.08237206 -0.08233575 -0.08231916
 -0.08231746 -0.08233047 -0.08235178 -0.08238078 -0.08240665 -0.08242901 -0.08243949 -0.08243931 -0.08242881 -0.08240926
 -0.08238384 -0.08235377 -0.0823226 -0.08229107 -0.08226254 -0.08223377 -0.08220202 -0.08216855 -0.08212893 -0.0821012
 -0.08209124 -0.08211366 -0.08217982 -0.08226337 -0.08236558 -0.08243332 -0.0824598 -0.08242466 -0.08232607 -0.08216126
 -0.08193012 -0.08162485 -0.08125234 -0.08085322 -0.08044077 -0.0800919 -0.07980844 -0.07963901 -0.07956671 -0.07959235
 -0.0796765 -0.07977226 -0.07984728 -0.07984782 -0.07979272 -0.07967284 -0.07952922 -0.0793801 -0.07923713 -0.07911327
 -0.07897693 -0.07882534 -0.07862543 -0.07836975 -0.07808013 -0.07775681 -0.07745511 -0.07717679 -0.07695459 -0.07678527
 -0.07666546 -0.07658542 -0.07650773 -0.0764182 -0.07625417 -0.07602379 -0.0757046 -0.07533124 -0.07494369 -0.07455094
 -0.0741821 -0.07381174 -0.07343275 -0.07302441 -0.07257133 -0.07208497 -0.07156242 -0.07103184 -0.07049832 -0.06997859
 -0.06947705 -0.06898117 -0.06849126 -0.06795482 -0.06736951 -0.06668559 -0.06591207 -0.06508935 -0.06423136 -0.06342349
 -0.0626568 -0.06195255 -0.06129274 -0.060656 -0.06002495 -0.05937619 -0.05867768 -0.05789553 -0.0570033 -0.05596331
 -0.05480987 -0.05354394 -0.0522152 -0.05084555 -0.04942289 -0.04794615 -0.04641606 -0.04482846 -0.04323621 -0.04164297
 -0.04007 -0.03851642 -0.03695767 -0.03539338 -0.03381002 -0.03220963 -0.03059508 -0.02896483 -0.02731505 -0.02564611
 -0.02396103 -0.02224914 -0.02051437 -0.01869844 -0.01675158 -0.01463143 -0.01225727 -0.009762701 -0.007169989 -0.004647363
 -0.002273951 -6.319127E-06 0.00214226 0.004288616 0.006448184 0.008662727 0.01093721 0.0132498 0.01559859 0.01794262
 0.02028309 0.02259978 0.02491366 0.02729594 0.02977875 0.03251602 0.0354525 0.03858791 0.04178133 0.04481574
 0.04769781 0.05032287 0.05284282 0.0553241 0.05787199 0.06056654 0.06337679 0.06632174 0.06929661 0.07228044
 0.07522789 0.07812521 0.081017 0.08390447 0.08686173 0.08988962 0.09299554 0.09616803 0.09931695 0.1024405
 0.1054746 0.108444 0.1113859 0.1143178 0.1172957 0.1203105 0.1233749 0.1264729 0.1295988 0.132726
 0.1358396 0.1389095 0.1419047 0.1448703 0.1477971 0.1508087 0.1539354 0.1572089 0.1606504 0.1641109
 0.1675815 0.1709428 0.1741949 0.1773858 0.1805239 0.1836985 0.1869051 0.1901751 0.1934906 0.1968218
 0.2001463 0.2033993 0.2065924 0.2096941 0.2127829 0.2159164 0.2191643 0.2226201 0.2261992 0.2299103
 0.2335802 0.2371418 0.2405733 0.2438458 0.2470616 0.2502306 0.2534181 0.2566301 0.2598801 0.2631682
 0.2664908 0.2698444 0.2732032 0.2765633 0.2798918 0.2831934 0.2864611 0.2897079 0.2929521 0.2962127
 0.2995236 0.3028938 0.3063552 0.3098717 0.3134373 0.3169951 0.3205097 0.3239852 0.3274081 0.3308309
 0.3342679 0.3377142 0.3411756 0.344592 0.3479584 0.3512577 0.3544903 0.3576835 0.3608391 0.3639787
 0.3671088 0.3702702 0.3734678 0.376749 0.3800858 0.3834509 0.3868065 0.3900767 0.3932788 0.3963916
 0.3994721 0.402556 0.4056649 0.408827 0.4120076 0.4152099 0.4183652 0.421462 0.4244406 0.4272857
 0.430027 0.4326626 0.4353101 0.4379737 0.4407146 0.4435254 0.4463625 0.4492261 0.4520927 0.4549714
 0.4578876 0.4608209 0.4637448 0.4666343 0.4694291 0.4721583 0.4748256 0.4774675 0.4801228 0.4827635
 0.4853875 0.4879651 0.4904753 0.4929584 0.4954163 0.4979013 0.5004233 0.5029845 0.5055873 0.5081859
 0.5107764 0.5132692 0.515663 0.5178951 0.519991 0.5220302 0.5240498 0.5262139 0.5285076 0.5309944
 0.5336071 0.5362774 0.5389566 0.5415665 0.5441058 0.5465468 0.5489141 0.5512086 0.5534669 0.5557034
 0.5579284 0.5601531 0.5623329 0.5644618 0.5665193 0.5685002 0.5704726 0.5724398 0.5744616 0.5765307
 0.5786062 0.5806771 0.5826665 0.5845773 0.5863752 0.5880751 0.5896809 0.5912308 0.5927716 0.5943545
 0.5960563 0.5978707 0.599835 0.6018658 0.6039363 0.6059764 0.607952 0.609858 0.6116861 0.6134514
 0.6151535 0.6168159 0.6184396 0.6200636 0.6216889 0.6233116 0.624926 0.6264745 0.6279593 0.6293575
 0.6306843 0.6319762 0.6332393 0.6345034 0.6357679 0.6370411 0.6383292 0.6396448 0.6409799 0.6423377
 0.6436926 0.6450304 0.6463476 0.647638 0.6489156 0.6501861 0.6514356 0.6526649 0.6538429 0.6549672
 0.6560212 0.6570041 0.6579067 0.6587313 0.6594918 0.6601987 0.6609125 0.6616362 0.6624178 0.6632385
 0.6640784 0.6649317 0.6657715 0.6666263 0.6675188 0.6684592 0.6694722 0.6705218 0.6715952 0.6726728
 0.6737385 0.6748177 0.6759145 0.6770409 0.6782039 0.6793642 0.680521 0.6816109 0.6826313 0.6835343
 0.6843232 0.6850059 0.6855958 0.6861627 0.6867161 0.6873251 0.6879856 0.6887209 0.6895276 0.6904139
 0.6913669 0.692391 0.6934294 0.6944488 0.6953918 0.6962047 0.6969292 0.6975508 0.6981945 0.6988872
 0.6997028 0.7006645 0.7017247 0.7028851 0.70403 0.7051538 0.7061555 0.7070377 0.7077788 0.7083985
 0.7089782 0.7095436 0.710219 0.7110113 0.7120012 0.7131671 0.7145205 0.7160128 0.7176078 0.7192415
 0.7208565 0.7224212 0.723895 0.7253134 0.7266767 0.7280329 0.7293971 0.7307706 0.7321544 0.7335557
 0.7349721 0.7364786 0.7380787 0.7398373 0.7417451 0.743737 0.7457847 0.747708 0.7494898 0.7509685
 0.7521755 0.753082 0.7537702 0.754345 0.75488 0.7555084 0.7562084 0.7570317 0.7578505 0.7586253
 0.7592238 0.7595842 0.7596747 0.7594634 0.7590328 0.7583836 0.7576427 0.7568219 0.7559916 0.7551545
 0.754281 0.7533658 0.752341 0.7512097 0.7499517 0.7485801 0.747128 0.7456025 0.7440402 0.742428
 0.7407736 0.7390305 0.7371646 0.7351059 0.7327896 0.7301891 0.7272533 0.7240642 0.7206201 0.7170728
 0.7134513 0.7098849 0.7063971 0.7030559 0.6998713 0.6968418 0.6939664 0.6911502 0.6883847 0.6855368
 0.6826178 0.679606 0.6765443 0.6735668 0.6706945 0.6680592 0.6656075 0.6633269 0.6611331 0.6589218
 0.6566721 0.6543171 0.6519247 0.6495034 0.6471408 0.6448742 0.6427322 0.6407376 0.6388412 0.6370445
 0.6352574 0.6334724 0.6316161 0.6296848 0.6276591 0.6255429 0.6233708 0.6211525 0.6189539 0.6167844
 0.6147115 0.6127337 0.6108867 0.6091491 0.6075094 0.6059323 0.6043777 0.6028158 0.6012098 0.5995542
 0.5978304 0.5960666 0.5942633 0.5924686 0.5906951 0.5889668 0.5872945 0.5856436 0.5840139 0.5823441
 0.5806313 0.5788545 0.5770171 0.5751509 0.5732588 0.5713747 0.5694936 0.5676162 0.5657371 0.5638423
 0.5619354 0.5600159 0.5580868 0.5561551 0.5542092 0.5522447 0.5502449 0.5481955 0.5461034 0.5439624
 0.5418048 0.5396373 0.5374826 0.535347 0.5332271 0.5311233 0.5290298 0.5269463 0.5248771 0.5228214
 0.5207731 0.5187292 0.516668 0.5145903 0.512486 0.5103612 0.5082255 0.5060836 0.5039473 0.5018185
 0.4997022 0.4976045 0.4955287 0.4934878 0.4914865 0.4895448 0.4876713 0.485878 0.4841771 0.4825285
 0.4809368 0.4792955 0.477596 0.4757469 0.4737434 0.4716124 0.4693643 0.4671345 0.4649326 0.4628876
 0.460987 0.4592646 0.4576842 0.4561853 0.4547254 0.4532069 0.4516169 0.449889 0.4480722 0.4461701
 0.4442682 0.4424165 0.4406525 0.4390128 0.4374529 0.4359698 0.4345159 0.4330759 0.4316812 0.4303304
 0.4290998 0.4279932 0.4270259 0.4261902 0.4253981 0.4246348 0.4237686 0.4227975 0.4216364 0.4203118
 0.4188336 0.4172516 0.41565 0.4140649 0.412578 0.4111767 0.4098823 0.4086588 0.4074843 0.4063646
 0.4052905 0.4043024 0.4034157 0.4026172 0.4019153 0.4012233 0.400533 0.3997897 0.39899 0.3981834
 0.3973749 0.3966443 0.395986 0.3954089 0.3948961 0.3943914 0.3938857 0.3933274 0.3927223 0.392057
 0.3913392 0.3905771 0.3897626 0.3888984 0.3879568 0.3869236 0.3857805 0.3845074 0.3831421 0.3816787
 0.3802134 0.3787583 0.3774018 0.3761575 0.3750281 0.3740148 0.3730224 0.372044 0.3709583 0.369768
 0.3684203 0.3669369 0.3653657 0.3637306 0.3621174 0.3605265 0.3590019 0.357521 0.3560754 0.3546431
 0.3532023 0.3517453 0.3502596 0.3487545 0.3472257 0.3457053 0.3441984 0.3427415 0.3413464 0.339997
 0.3386974 0.3373629 0.3359886 0.3345086 0.3329273 0.3312909 0.3296131 0.3280095 0.3264728 0.325049
 0.3237011 0.3223601 0.3210041 0.3195511 0.3180358 0.3164579 0.3148763 0.3133446 0.3118792 0.3105119
 0.3092121 0.3079733 0.3067794 0.3056189 0.3045202 0.3034855 0.3025467 0.3017104 0.3009576 0.300288
 0.2996258 0.2989667 0.2982269 0.2974102 0.2964896 0.2954853 0.294452 0.2934184 0.2924813 0.2916584
 0.2910258 0.2905807 0.2903523 0.2903221 0.2904871 0.2908246 0.2913221 0.2919619 0.2927346 0.2936312
 0.2946472 0.2957816 0.2970316 0.298411 0.2999182 0.3016002 0.3034594 0.3055712 0.3079379 0.3106089
 0.3135746 0.3168044 0.320277 0.3238977 0.3276512 0.3314489 0.3352933 0.3391469 0.343023 0.3469227
 0.3508572 0.3548355 0.3588671 0.3629581 0.3671202 0.3713621 0.3756779 0.3800781 0.3844988 0.3889433
 0.3932737 0.3974827 0.4013941 0.4049975 0.4081261 0.4107718 0.4127918 0.4141819 0.4148319 0.4147612
 0.4139541 0.4124967 0.4105543 0.4082968 0.406063 0.4040395 0.4025879 0.4017906 0.4018631 0.4027227
 0.4044037 0.4067313 0.4096498 0.4130183 0.416787 0.4208921 0.4253147 0.4300312 0.4350375 0.4403195
 0.4458762 0.4516974 0.4577835 0.4641362 0.4707645 0.4777192 0.4850256 0.4928097 0.5010879 0.509997
 0.5194622 0.5295053 0.5398084 0.550175 0.5598148 0.5682397 0.5741269 0.5766646 0.5747386 0.5674918
 0.5553796 0.5380334 0.5177593 0.4947554 0.471754 0.4490744 0.4284195 0.4099243 0.3939364 0.3804267
 0.3688963 0.3592781 0.3508926 0.343705 0.3372283 0.3314491 0.3260967 0.3211547 0.3164737 0.3120461
 0.3077987 0.3037511 0.2998923 0.2962544 0.2928542 0.2897086 0.286829 0.2842183 0.2818772 0.2798162
 0.2780351 0.2765585 0.2753888 0.2745469 0.274035 0.2738338 0.2739367 0.2742364 0.2747091 0.2751455
 0.2755165 0.2755877 0.2753649 0.274722 0.273733 0.2724479 0.2709973 0.2695457 0.2682328 0.2672222
 0.2666264 0.2665469 0.2670691 0.2682353 0.2701475 0.2728166 0.2764335 0.2810178 0.2868276 0.2939166
 0.3022362 0.311809 0.3215346 0.3312783 0.3385516 0.3431871 0.3426152 0.3371439 0.326414 0.31131
 0.2939097 0.2749887 0.2569624 0.2400007 0.2253549 0.2127003 0.2022146 0.1934197 0.1860901 0.1798543
 0.1745126 0.1698517 0.1657814 0.1621725 0.1589929 0.1561442 0.1536139 0.1513212 0.1492604 0.1473599
 0.145616 0.1439663 0.1424088 0.1408987 0.1394377 0.1380062 0.1366109 0.1352573 0.1339544 0.132723
 0.1315615 0.1304831 0.1294628 0.1284892 0.1275239 0.1265393 0.1255162 0.1244325 0.1233151 0.1221602
 0.1210291 0.1199322 0.1189153 0.1179884 0.1171361 0.1163591 0.1155934 0.1148364 0.1140424 0.1132161
 0.1123712 0.1115134 0.1106791 0.1098603 0.1090572 0.1082537 0.1074161 0.1065457 0.1056228 0.1046764
 0.1037215 0.102794 0.1019214 0.1011209 0.1004106 0.09977687 0.09922568 0.09871125 0.09823005 0.09772089
 0.09717549 0.09656121 0.09587409 0.09514096 0.09436462 0.0936045 0.09286145 0.09217096 0.09152731 0.09092528
 0.09035932 0.08981115 0.08928005 0.08875654 0.08824094 0.08772987 0.08722408 0.08672147 0.08622833 0.08574663
 0.08528578 0.08485229 0.08444309 0.08406286 0.0836854 0.08330846 0.082899 0.08245154 0.08195876 0.08141885
 0.08086185 0.08028971 0.07974215 0.07921836 0.07873211 0.07827719 0.07783508 0.07739954 0.07694239 0.07646494
 0.07595313 0.07541964 0.0748732 0.07433067 0.07381288 0.07332199 0.07287161 0.07243674 0.07201342 0.07156756
 0.07108653 0.07055902 0.06997754 0.06936093 0.06870934 0.06805107 0.06738812 0.06673969 0.06610641 0.06549698
 0.06491105 0.06435057 0.06381394 0.06329606 0.06279417 0.06229773 0.06180568 0.06130984 0.06081387 0.06031862
 0.05982956 0.05935309 0.05888932 0.05844153 0.05800372 0.05757389 0.05714833 0.05672476 0.0563054 0.05589033
 0.05548159 0.05507971 0.05468273 0.0542905 0.0539023 0.05351834 0.05314382 0.05277945 0.05243346 0.05210601
 0.05180324 0.05152241 0.05126097 0.05101144 0.0507595 0.05049632 0.05020327 0.04987815 0.04951006 0.04910729
 0.04866934 0.04821286 0.047743 0.04727916 0.04682795 0.04640215 0.04600723 0.04563713 0.04529344 0.04495239
 0.04461247 0.04425221 0.04387124 0.04346973 0.04304995 0.04263077 0.04221391 0.041818 0.04144087 0.04108718
 0.04075095 0.04042299 0.04009803 0.039764 0.03942133 0.03906483 0.03870063 0.03833027 0.03796187 0.0375991
 0.03724835 0.03691281 0.03659341 0.03629231 0.03599948 0.03571483 0.03542137 0.03511772 0.03479497 0.03445316
 0.03409984 0.03373614 0.0333757 0.03301791 0.03266782 0.03232278 0.03197733 0.03163032 0.03127582 0.0309167
 0.03055357 0.03019168 0.02983662 0.02949056 0.02915797 0.02883441 0.02851995 0.02820674 0.02789209 0.02757245
 0.02724604 0.02691537 0.0265804 0.02624469 0.02590858 0.02557221 0.02523558 0.02489771 0.02455893 0.02422165
 0.02388654 0.02355848 0.02323685 0.02292305 0.02261473 0.02230778 0.02200065 0.02168882 0.02137371 0.02105462
 0.02073457 0.02041532 0.02009914 0.0197875 0.01948137 0.01918152 0.01888737 0.01859926 0.0183144 0.01803253
 0.01775085 0.01746905 0.01718731 0.01690567 0.01662543 0.01634641 0.01606732 0.01578808 0.01550705 0.01522536
 0.01494555 0.01466868 0.014399 0.0141347 0.01387534 0.01361807 0.01335879 0.01309947 0.01283885 0.01258382
 0.01233781 0.01210327 0.01188353 0.01167009 0.0114627 0.01124846 0.01102536 0.01078763 0.01053438 0.01026888
 0.009991385 0.009708354 0.009420079 0.009131715 0.008843332 0.008557997 0.008275656 0.007997755 0.007724172 0.007455167
 0.007191096 0.006932594 0.006679852 0.006433899 0.006192797 0.005956429 0.005720132 0.005481497 0.005238301 0.004988125
 0.004736131 0.004482314 0.00423533 0.003996678 0.003768976 0.003552871 0.003342228 0.003136726 0.002929592 0.002720848
 0.002508339 0.002291976 0.002070316 0.00184282 0.001606365 0.00136219 0.001110582 0.00085484 0.0006005204 0.0003478643
 0.0001008435 -0.0001466403 -0.0003973149 -0.0006567706 -0.0009302747 -0.00121294 -0.001506143 -0.001796221 -0.002080356 -0.002349826
 -0.002602003 -0.002842099 -0.003069835 -0.003300356 -0.003534384 -0.003784007 -0.004048653 -0.004328193 -0.004620301 -0.004913675
 -0.005206203 -0.005484811 -0.005750321 -0.00599716 -0.006229579 -0.006451118 -0.006665974 -0.006879964 -0.007094601 -0.007312536
 -0.007534528 -0.007760989 -0.007994512 -0.008236201 -0.008486968 -0.008748277 -0.009013672 -0.009283119 -0.009545449 -0.009799656
 -0.01003956 -0.01026502 -0.01048006 -0.0106855 -0.01089098 -0.01109685 -0.01131024 -0.01153007 -0.01175717 -0.01198936
 -0.0122226 -0.01245475 -0.012681 -0.0129002 -0.01310886 -0.01330854 -0.01349804 -0.01368319 -0.01386576 -0.01405281
 -0.01424787 -0.01445108 -0.01466419 -0.01487914 -0.01509513 -0.01530543 -0.01550918 -0.01570731 -0.01589985 -0.01608859
 -0.01627319 -0.01645035 -0.01662009 -0.0167801 -0.01693219 -0.01708087 -0.01722794 -0.01738001 -0.01753634 -0.01769909
 -0.01786592 -0.01803495 -0.01820513 -0.01837503 -0.01854464 -0.01871421 -0.01888165 -0.01904705 -0.01920528 -0.01935495
 -0.01949408 -0.01962128 -0.01974388 -0.01986207 -0.01998793 -0.020122 -0.02026856 -0.02042693 -0.02059134 -0.02076107
 -0.02092924 -0.02109598 -0.02125837 -0.02141632 -0.02156791 -0.02171392 -0.02185369 -0.02199088 -0.02212889 -0.02227083
 -0.02242154 -0.02257722 -0.02273877 -0.02289658 -0.02304759 -0.02318533 -0.02330688 -0.02341448 -0.02350748 -0.02359354
 -0.02367322 -0.0237528 -0.0238326 -0.02391582 -0.02400273 -0.02409711 -0.02419992 -0.02431821 -0.02445299 -0.02461153
 -0.02479375 -0.02500284 -0.02523861 -0.02550123 -0.02579315 -0.02611554 -0.02647488 -0.02687483 -0.02732452 -0.0278287
 -0.02839577 -0.02902989 -0.0297341 -0.03051061 -0.03135579 -0.03227063 -0.03324246 -0.03427172 -0.03532705 -0.03640633
 -0.03743936 -0.03841887 -0.03924176 -0.03990144 -0.0403067 -0.04046003 -0.04031796 -0.03989433 -0.03918291 -0.03823595
 -0.03711028 -0.03590475 -0.03474471 -0.03369874 -0.03286283 -0.03224355 -0.03187138 -0.03172498 -0.03180999 -0.0320775
 -0.03253111 -0.03305443 -0.03363819 -0.03413445 -0.03452513 -0.03478092 -0.0349004 -0.03496518 -0.03497697 -0.03498119
 -0.03497119 -0.03493209 -0.03486034 -0.03473388 -0.03455896 -0.03433667 -0.03407905 -0.03380663 -0.03352379 -0.03324607
 -0.03296447 -0.03267674 -0.0323763 -0.03205464 -0.03172603 -0.03139102 -0.03107312 -0.0307788 -0.03051807 -0.03029443
 -0.03010295 -0.02994376 -0.02980839 -0.0296964 -0.02960029 -0.02951971 -0.02944834 -0.02938596 -0.02932814 -0.02927482
 -0.02922374 -0.0291744 -0.02912453 -0.02907372 -0.02901961 -0.02896398 -0.02890681 -0.028853 -0.02880593 -0.02877006
 -0.02874978 -0.02874281 -0.02875094 -0.028764 -0.02878026 -0.02879021 -0.02879132 -0.02878471 -0.02876969 -0.02875686
 -0.02874678 -0.02875013 -0.02876695 -0.02880086 -0.02885059 -0.0289114 -0.02898112 -0.02904991 -0.02911627 -0.02917131
 -0.02921623 -0.02924806 -0.02927107 -0.02928822 -0.02930479 -0.02932559 -0.02935428 -0.02939469 -0.02944589 -0.02950955
 -0.02957884 -0.0296531 -0.02972338 -0.02978807 -0.02984244 -0.0298856 -0.0299194 -0.02994392 -0.02996342 -0.02997795
 -0.02998897 -0.02999614 -0.02999806 -0.02999501 -0.02998694 -0.02997494 -0.02996175 -0.02994756 -0.02993423 -0.02992051
 -0.02990539 -0.02988885 -0.02986986 -0.02985104 -0.02983355 -0.02981909 -0.02980884 -0.02980212 -0.02979885 -0.02979911
 -0.02980284 -0.02981097 -0.02982386 -0.02983814 -0.02985363 -0.02986236 -0.02986415 -0.02985403 -0.02983286 -0.02980278
 -0.0297654 -0.02972735 -0.02969012 -0.02966071 -0.02963918 -0.0296295 -0.02962892 -0.02963619 -0.02964799 -0.02966064
 -0.0296744 -0.02968812 -0.02970382 -0.02972296 -0.02974262 -0.02976318 -0.02977738 -0.02978378 -0.02978 -0.02976518
 -0.02974557 -0.02972148 -0.02970123 -0.02968488 -0.02967502 -0.02967101 -0.02967032 -0.02967274 -0.02967614 -0.02968088
 -0.02968695 -0.02969428 -0.02970263 -0.02971217 -0.02972223 -0.02973532 -0.02975307 -0.0297777 -0.02981229 -0.0298523
 -0.02989792 -0.0299399 -0.02997542 -0.03000136 -0.03001591 -0.03002498 -0.03002887 -0.03003386 -0.03004031 -0.0300496
 -0.03006165 -0.03007587 -0.03009221 -0.03011023 -0.03012977 -0.03014995 -0.03017088 -0.03019225 -0.03021462 -0.03023913
 -0.0302652 -0.03029299 -0.03032069 -0.03034674 -0.03037054 -0.03039085 -0.03040945 -0.03042657 -0.0304444 -0.03046369
 -0.03048505 -0.03050892 -0.03053342 -0.03055841 -0.03058179 -0.03060343 -0.03062545 -0.03064824 -0.03067823 -0.03071534
 -0.0307628 -0.03081916 -0.03088061 -0.03094604 -0.03101044 -0.03107458 -0.03113767 -0.03120025 -0.03126314 -0.03132519
 -0.03138562 -0.03144393 -0.031499 -0.03155319 -0.03160708 -0.03166275 -0.03172132 -0.03178129 -0.03184272 -0.03190285
 -0.03196118 -0.03201875 -0.03207558 -0.0321358 -0.03219942 -0.03226757 -0.03233954 -0.0324109 -0.03248157 -0.03254823
 -0.03261273 -0.03267815 -0.03274568 -0.03281986 -0.03289793 -0.0329789 -0.03305884 -0.03313312 -0.03320283 -0.03326627
 -0.03332902 -0.03339301 -0.03346142 -0.03353602 -0.03361495 -0.03369818 -0.03378382 -0.03387148 -0.03396317 -0.03405902
 -0.03416027 -0.03426661 -0.0343731 -0.03447908 -0.03457686 -0.03466758 -0.03475082 -0.03482965 -0.03491199 -0.03499882
 -0.03509665 -0.03520174 -0.03531277 -0.03542466 -0.03553213 -0.03563401 -0.03572716 -0.0358156 -0.03589979 -0.03598474
 -0.03607213 -0.0361636 -0.03626013 -0.03635889 -0.03645971 -0.03655971 -0.03665867 -0.03675706 -0.03685496 -0.03695445
 -0.03705531 -0.03715726 -0.03725987 -0.03736108 -0.03746115 -0.03755952 -0.03765712 -0.03775534 -0.03785479 -0.03795708
 -0.0380616 -0.03816893 -0.03827665 -0.03838366 -0.03848765 -0.03858681 -0.03868271 -0.03877456 -0.03886859 -0.03896574
 -0.03907067 -0.03918446 -0.03930369 -0.03942832 -0.03954904 -0.03966556 -0.03977177 -0.03986851 -0.03995842 -0.04004279
 -0.04012853 -0.04021528 -0.04030612 -0.04039905 -0.04049157 -0.0405832 -0.04067143 -0.04075922 -0.04084796 -0.04094079
 -0.04104058 -0.04114661 -0.04125996 -0.04137646 -0.04149557 -0.04161216 -0.0417254 -0.04183094 -0.04192806 -0.04201578
 -0.0420939 -0.04216653 -0.04223403 -0.04230301 -0.04237353 -0.04244934 -0.04253009 -0.04261625 -0.04270758 -0.04280413
 -0.04290474 -0.04300846 -0.04311151 -0.04320933 -0.0432977 -0.04337037 -0.04342869 -0.04347002 -0.04350262 -0.04352873
 -0.0435563 -0.0435885 -0.04362676 -0.04367227 -0.04372191 -0.04377552 -0.04383 -0.04388512 -0.04393982 -0.04399413
 -0.04404895 -0.04410437 -0.04416174 -0.04422035 -0.0442783 -0.04433428 -0.04438335 -0.04442614 -0.04446071 -0.04449025
 -0.04451806 -0.04454641 -0.04457892 -0.04461484 -0.04465495 -0.0446973 -0.04474162 -0.04478506 -0.04482719 -0.04486421
 -0.04489532 -0.04491847 -0.04493306 -0.04494122 -0.04494301 -0.0449423 -0.04493929 -0.04493742 -0.04493662 -0.04493822
 -0.04494153 -0.04494412 -0.04494611 -0.04494526 -0.04494527 -0.04495135 -0.04496792 -0.04500478 -0.04505819 -0.04513144
 -0.04520997 -0.04528694 -0.04534856 -0.04538545 -0.04539901 -0.04538541 -0.04536068 -0.04532657 -0.04529944 -0.04528189
 -0.04527824 -0.0452892 -0.04530684 -0.04533078 -0.04535325 -0.04537483 -0.04539647 -0.04541876 -0.04544507 -0.04547456
 -0.04550642 -0.04554006 -0.04557438 -0.04560805 -0.04564033 -0.04566601 -0.04568018 -0.04567953 -0.0456582 -0.04562408
 -0.04557798 -0.0455312 -0.04548835 -0.04545009 -0.04541828 -0.04538464 -0.04534834 -0.04530381 -0.04525042 -0.04519098
 -0.04512587 -0.04506334 -0.0450037 -0.04495363 -0.04491212 -0.04487849 -0.04485153 -0.04482692 -0.04480572 -0.0447882
 -0.04477463 -0.04476704 -0.0447606 -0.0447521 -0.04473656 -0.04470873 -0.04467051 -0.04462112 -0.04456446 -0.0445019
 -0.04443402 -0.04436091 -0.04428417 -0.04420375 -0.04412375 -0.04404441 -0.04396881 -0.04389725 -0.04383606 -0.04378595
 -0.0437565 -0.04374619 -0.04375548 -0.04377852 -0.04379995 -0.04381389 -0.0438006 -0.04376117 -0.04368649 -0.04358658
 -0.04346585 -0.04333723 -0.04321047 -0.04309191 -0.04298876 -0.04289396 -0.04280801 -0.04271844 -0.04262184 -0.04251741
 -0.04240376 -0.04229163 -0.04218164 -0.04208316 -0.04199648 -0.04192592 -0.04187043 -0.0418257 -0.04178698 -0.04173125
 -0.04165445 -0.04152899 -0.04136406 -0.041162 -0.04093823 -0.04071625 -0.04050028 -0.04030276 -0.04012254 -0.03996186
 -0.03982056 -0.03970137 -0.03959428 -0.0394994 -0.03939614 -0.03928006 -0.03914046 -0.03897445 -0.03878799 -0.03858126
 -0.03836133 -0.03812858 -0.03788902 -0.0376433 -0.03740008 -0.03715904 -0.03692338 -0.03669235 -0.03646464 -0.03624171
 -0.0360273 -0.03581875 -0.03561672 -0.03541059 -0.03518931 -0.03494995 -0.03468363 -0.03440426 -0.03411624 -0.03382853
 -0.03354705 -0.03326403 -0.03297898 -0.03268435 -0.03237857 -0.0320633 -0.03173853 -0.03140704 -0.03106884 -0.03072361
 -0.03037027 -0.03000059 -0.02961184 -0.02918487 -0.02872281 -0.02822144 -0.02769265 -0.02715996 -0.02662594 -0.02610752
 -0.02559263 -0.02507458 -0.02454733 -0.02400112 -0.02344727 -0.02288817 -0.02233423 -0.02179128 -0.02125467 -0.02072721
 -0.02018652 -0.01963289 -0.01902067 -0.0183462 -0.01758215 -0.01672951 -0.01583883 -0.01491401 -0.01401582 -0.01313381
 -0.01225405 -0.01135981 -0.01039299 -0.009349387 -0.008190276 -0.00692585 -0.005552296 -0.00408521 -0.002538887 -0.0009218002
 0.0007454893 0.002498555 0.004333502 0.006341174 0.008555696 0.01100409 0.0137196 0.01655998 0.01951322 0.022448
 0.02534915 0.02825084 0.03115458 0.03410653 0.03709715 0.04005487 0.04297614 0.0457916 0.04853734 0.05128305
 0.05406414 0.05700773 0.06006867 0.06324956 0.06646823 0.06962775 0.07273287 0.07574417 0.07872968 0.08171075
 0.08473803 0.08782952 0.09102017 0.09430298 0.09780394 0.1015208 0.1057301 0.1104586 0.1157903 0.1217141
 0.12772 0.1337851 0.139454 0.1448061 0.1499814 0.1550618 0.1603747 0.1659264 0.17188 0.1782257
 0.1849729 0.1922392 0.2000717 0.2087868 0.218606 0.2297562 0.2425391 0.2564732 0.2715976 0.2868766
 0.3020825 0.3166463 0.3304263 0.3434903 0.35582 0.3677725 0.3793752 0.3912854 0.4035658 0.417157
 0.4319498 0.4480855 0.4650711 0.4813537 0.4968698 0.5105491 0.5230398 0.534833 0.5464256 0.5585629
 0.5712706 0.58482 0.5990123 0.6138071 0.6290941 0.6448744 0.6608651 0.6770425 0.6929698 0.7085516
 0.7238419 0.7388329 0.7537484 0.7685815 0.7827742 0.7962608 0.8081411 0.8184742 0.8270819 0.8340641
 0.8396846 0.8438807 0.8465961 0.847887 0.8477069 0.8464177 0.8443878 0.8417997 0.8388805 0.8357323
 0.8324179 0.8291418 0.8260202 0.8229954 0.8201441 0.8169569 0.8134082 0.8087904 0.8030272 0.7959652
 0.7876149 0.7788555 0.7697183 0.7608901 0.7522597 0.7436194 0.7348722 0.7255706 0.7157794 0.7053494
 0.6945565 0.6837163 0.6731047 0.6631674 0.6538915 0.6454284 0.6376164 0.6303743 0.6237411 0.6176757
 0.6124101 0.6080049 0.6045164 0.6019789 0.6002305 0.5992606 0.598948 0.5992879 0.600282 0.6019322
 0.6042633 0.6072658 0.6109059 0.615167 0.6199759 0.6253295 0.6311777 0.6375457 0.6444415 0.6519107
 0.6599981 0.6687489 0.6782039 0.688402 0.6993639 0.7111417 0.7237463 0.7372615 0.7517126 0.7671294
 0.7835459 0.8007362 0.8186996 0.836969 0.8555204 0.8739644 0.8922727 0.9100971 0.927293 0.9429427
 0.9568926 0.9680133 0.9766098 0.9826976 0.9868389 0.9899254 0.9922019 0.9942948 0.9961274 0.997813
 0.9993039 1.000588 1.00169 1.002657 1.003321 1.003689 1.003413 1.002423 1.000706 0.9982443
 0.9952674 0.9917839 0.9878243 0.9833956 0.9785715 0.9733833 0.9680507 0.9625686 0.9571211 0.9514915
 0.9455139 0.938445 0.9291707 0.9169377 0.899985 0.8797142 0.8563419 0.8319387 0.8079315 0.784197
 0.7609799 0.7379593 0.7149451 0.692678 0.6712232 0.6513068 0.6330361 0.616168 0.6006874 0.5858592
 0.5716682 0.5576904 0.5439773 0.5305866 0.5175619 0.5050985 0.493153 0.4817353 0.4707679 0.4601273
 0.4497875 0.4396998 0.4297806 0.4200476 0.4101192 0.3998558 0.3887994 0.3765439 0.3638643 0.3506866
 0.3387881 0.3285517 0.3200047 0.3132433 0.3070593 0.3013957 0.2954792 0.2893384 0.2830398 0.2766598
 0.270677 0.2650571 0.2599434 0.2552497 0.2508087 0.2466767 0.2428299 0.2394412 0.2367099 0.2346859
 0.2335017 0.2330462 0.2332957 0.2341622 0.2355945 0.2376138 0.2401935 0.2434912 0.2475098 0.2525276
 0.2585851 0.2656614 0.2737496 0.2819166 0.2900935 0.2971446 0.3031271 0.3077734 0.3111915 0.3136045
 0.3150695 0.3157903 0.315863 0.315483 0.314831 0.3141437 0.3136336 0.3135564 0.3139454 0.3149592
 0.3162745 0.3178118 0.3193274 0.3207124 0.3220567 0.3233502 0.3247639 0.3263158 0.3280726 0.330038
 0.3321464 0.3343938 0.3366997 0.3390801 0.3415727 0.3442166 0.3471724 0.3504495 0.3541742 0.3582708
 0.3626658 0.3673213 0.372115 0.3771995 0.3826272 0.3886015 0.3952684 0.4026443 0.4107962 0.419563
 0.4289058 0.438773 0.4491259 0.460171 0.4719296 0.4845033 0.4978959 0.5115114 0.5252859 0.5382299
 0.5503545 0.5612169 0.5708863 0.5794163 0.5867481 0.59281 0.5974334 0.6002996 0.6013464 0.6003371
 0.5974122 0.592576 0.5860489 0.5779379 0.5684215 0.5575722 0.5455465 0.5323425 0.5183415 0.5035421
 0.4887058 0.4738987 0.4597437 0.4462769 0.4334688 0.4212941 0.4093972 0.3977953 0.3863948 0.3752744
 0.3646825 0.3546303 0.3452998 0.3365856 0.328407 0.3206495 0.3131472 0.3058498 0.2986565 0.2915847
 0.2846041 0.2777939 0.2711697 0.2648216 0.2587838 0.2530597 0.2476655 0.2425022 0.2375622 0.2327592
 0.2280879 0.2236039 0.2193201 0.2154253 0.211927 0.2089752 0.2065445 0.2046286 0.2031899 0.2021356
 0.2014437 0.2010376 0.2009099 0.2010275 0.2013775 0.2019525 0.2027004 0.2036108 0.2045741 0.2055629
 0.2064394 0.2071717 0.2076352 0.2078072 0.2075995 0.2069985 0.2059879 0.2045659 0.2028169 0.2007504
 0.1985088 0.1961054 0.1936854 0.1912668 0.1889884 0.1868677 0.1850194 0.1834416 0.1821877 0.1812325
 0.180572 0.1801706 0.1800055 0.1800307 0.180224 0.1805249 0.1809115 0.1813246 0.1817466 0.182136
 0.182484 0.1827626 0.1829679 0.1830836 0.1831083 0.1830467 0.1829003 0.1826916 0.182422 0.1821135
 0.1817641 0.1813809 0.1809566 0.1804788 0.1799377 0.1793097 0.1785931 0.1777727 0.176862 0.1758639
 0.1747988 0.1736774 0.1725171 0.1713247 0.1701192 0.1689036 0.1677046 0.1665249 0.1653959 0.1643204
 0.1633306 0.1624287 0.161641 0.1609677 0.1604176 0.1599895 0.1596776 0.1594841 0.159411 0.1594678
 0.1596769 0.1600498 0.1606174 0.1613818 0.1623621 0.1635437 0.1649256 0.1664798 0.1681927 0.1700387
 0.172006 0.1740769 0.1762486 0.1784911 0.1808039 0.1831305 0.1854668 0.1877525 0.1899837 0.1921256
 0.1941773 0.1961226 0.1979595 0.1996675 0.2012423 0.2026567 0.203907 0.2049708 0.2058459 0.2065194
 0.2069889 0.2072475 0.2072909 0.2071145 0.2067129 0.2060816 0.2052187 0.2041202 0.2027953 0.2012418
 0.1994886 0.1975362 0.1954348 0.1931881 0.190852 0.1884301 0.1859588 0.1834382 0.1808759 0.1782703
 0.1756139 0.1729055 0.170136 0.1673052 0.1644058 0.1614436 0.1584207 0.1553541 0.1522617 0.1491647
 0.1460862 0.1430388 0.1400364 0.1370833 0.1341839 0.1313398 0.128553 0.1258194 0.123139 0.1205048
 0.1179153 0.1153775 0.1128915 0.1104879 0.1081689 0.1059765 0.1039125 0.1020115 0.1002726 0.09871235
 0.09732538 0.09610767 0.095052 0.09414314 0.09337907 0.09274876 0.09226026 0.09191397 0.09172566 0.09170277
 0.0918623 0.09221236 0.09276415 0.09352346 0.09448919 0.09566457 0.09702939 0.09858468 0.1002818 0.1021187
 0.1040156 0.1059677 0.1078867 0.1097718 0.11157 0.1132911 0.1149417 0.1165391 0.11813 0.1197268
 0.1213756 0.1230738 0.124841 0.126656 0.128512 0.1303758 0.1322292 0.1340401 0.1357936 0.1374634
 0.1390415 0.1405037 0.1418446 0.1430479 0.1441093 0.1450431 0.145849 0.1465891 0.1472688 0.1479863
 0.1487488 0.1496542 0.1507057 0.151968 0.1534388 0.1551454 0.1570825 0.1592553 0.1616524 0.1642675
 0.1670745 0.1700559 0.1731721 0.1763997 0.1796983 0.1830493 0.1864173 0.1897925 0.1931375 0.1964463
 0.199679 0.2028305 0.2058751 0.2088103 0.2116426 0.2143733 0.217031 0.2196148 0.222135 0.2245834
 0.2269309 0.2291733 0.2312777 0.233262 0.2351365 0.2369356 0.2387044 0.2404733 0.2422823 0.244152
 0.246105 0.248152 0.250306 0.2525558 0.2549044 0.2573217 0.2598022 0.2623266 0.2648908 0.2675005
 0.2701559 0.2728677 0.2756353 0.2784496 0.2813037 0.2841491 0.2869683 0.289668 0.2922245 0.2945286
 0.2965634 0.2982485 0.2995775 0.3005106 0.3010492 0.3011762 0.3009137 0.3002585 0.2992721 0.2979657
 0.2964384 0.2947089 0.2928981 0.2910244 0.2892105 0.2874711 0.2858997 0.284504 0.2833187 0.2823431
 0.281555 0.2809478 0.2804651 0.2800968 0.2797735 0.2794865 0.2791757 0.2788402 0.2784496 0.2780103
 0.277519 0.2769808 0.2764014 0.2757761 0.2751088 0.2743762 0.2735758 0.2726661 0.2716366 0.2704509
 0.2690981 0.2675748 0.2658767 0.2640358 0.2620532 0.2599834 0.2578303 0.2556636 0.2534878 0.25137
 0.2493081 0.2473328 0.2454315 0.2435884 0.2417867 0.2399892 0.2381813 0.2363316 0.2344254 0.2324441
 0.2303626 0.2281687 0.2258165 0.2232908 0.2205324 0.2175214 0.2142206 0.2106149 0.2067171 0.2025229
 0.1980889 0.1934173 0.1885913 0.1836166 0.1785984 0.1735457 0.168574 0.1636925 0.1590012 0.1545039
 0.150264 0.1462741 0.1425544 0.1390835 0.1358443 0.132811 0.1299534 0.1272581 0.1247076 0.1222985
 0.1200287 0.1178833 0.1158615 0.1139325 0.1120911 0.110311 0.1085875 0.106914 0.1052893 0.1037277
 0.1022306 0.100828 0.09952183 0.09834373 0.09729328 0.09638765 0.09562108 0.09498978 0.09448027 0.09407011
 0.09373612 0.09344209 0.09316166 0.09285901 0.09251642 0.09211282 0.09163996 0.09109101 0.09045669 0.089734
 0.08891243 0.08798873 0.08696137 0.08582824 0.08460446 0.08329001 0.0819224 0.08050448 0.07909431 0.07769553
 0.07636414 0.07510035 0.07393464 0.07286557 0.07190336 0.07104987 0.07031287 0.06969574 0.06920671 0.06884626
 0.06861818 0.06852029 0.06855407 0.06871111 0.06899206 0.06937432 0.06985459 0.07040068 0.07100634 0.07164665
 0.07231723 0.0730093 0.07372188 0.07445328 0.07520281 0.0759554 0.07670598 0.07740834 0.07805301 0.07857217
 0.07896167 0.07917053 0.07920959 0.07907259 0.0787802 0.07835668 0.07782068 0.07719599 0.07650047 0.07574745
 0.07496418 0.07416078 0.07337474 0.07261693 0.07192229 0.07129888 0.07077093 0.07034186 0.0700312 0.06984041
 0.06978916 0.06987807 0.07011474 0.07049651 0.07100539 0.0716362 0.07235574 0.07316107 0.07402641 0.0749517
 0.07592551 0.07694671 0.07800975 0.07911193 0.08024977 0.0814184 0.08261655 0.08383077 0.08505873 0.08627512
 0.0874744 0.08862691 0.08972673 0.09074933 0.09169073 0.09253687 0.0932859 0.09394013 0.09450042 0.0949926
 0.09542087 0.09583168 0.09623053 0.09666818 0.09714608 0.09769648 0.09831411 0.09900483 0.09976021 0.1005719
 0.1014309 0.102328 0.1032486 0.1041834 0.1051119 0.1060231 0.1069034 0.1077449 0.1085481 0.1093112
 0.1100404 0.110736 0.1114062 0.1120513 0.1126858 0.1133104 0.1139414 0.1145793 0.1152328 0.1159018
 0.1165896 0.1172966 0.1180256 0.1187776 0.1195555 0.120361 0.1211977 0.122068 0.1229763 0.123922
 0.1249072 0.1259259 0.1269769 0.1280505 0.1291449 0.1302473 0.1313554 0.1324579 0.1335521 0.1346415
 0.1357257 0.1368198 0.1379244 0.1390438 0.1401764 0.1413094 0.1424414 0.14356 0.1446636 0.1457436
 0.1467941 0.1477995 0.1487546 0.1496431 0.1504705 0.1512332 0.1519471 0.1526181 0.1532709 0.1539136
 0.1545811 0.1552847 0.1560544 0.1569014 0.1578244 0.1588279 0.1598747 0.1609629 0.1620465 0.1631235
 0.1641748 0.165204 0.1662376 0.1672823 0.1683871 0.1695504 0.1707961 0.1721101 0.1734773 0.1748792
 0.1762874 0.1776772 0.1790202 0.1802813 0.1814261 0.1824406 0.1832965 0.1840438 0.1846811 0.1853061
 0.185938 0.1866501 0.1874594 0.1883646 0.1893696 0.1904091 0.1914797 0.192508 0.1934948 0.1944167
 0.1952815 0.1961162 0.1969239 0.1977289 0.1985261 0.1993127 0.2000919 0.2008626 0.2016408 0.2024418
 0.2032768 0.2041591 0.2050908 0.2060764 0.2071152 0.2082112 0.2093472 0.2105244 0.211702 0.2128751
 0.2140086 0.2150983 0.2161389 0.2171306 0.2180867 0.2190096 0.2199225 0.220832 0.2217795 0.2227771
 0.2238835 0.2251092 0.2265099 0.2280741 0.2298209 0.2317015 0.2336806 0.2356976 0.2376984 0.2396503
 0.2415316 0.2432992 0.2449534 0.246376 0.2475449 0.2483526 0.2487643 0.2488635 0.2486447 0.248368
 0.2480469 0.2479146 0.2479714 0.248307 0.2489064 0.2497458 0.2508019 0.2519953 0.2532973 0.2546125
 0.2559133 0.2571198 0.2582129 0.2591423 0.2599052 0.2604794 0.2608854 0.261122 0.2612286 0.2612121
 0.2611273 0.2609808 0.2608483 0.2607391 0.2607251 0.260815 0.2610191 0.2613377 0.2617253 0.262181
 0.2626793 0.2632237 0.2638231 0.2644755 0.2651788 0.2659297 0.2667203 0.2675486 0.2684156 0.2692996
 0.2701762 0.2710366 0.2718393 0.2726795 0.2735671 0.274684 0.2761258 0.2778591 0.2799393 0.2820228
 0.2840548 0.2859052 0.2875486 0.2890957 0.2905508 0.2919682 0.2933421 0.294629 0.2958187 0.2968421
 0.2976846 0.2982671 0.2985709 0.2985096 0.2980911 0.2972759 0.2961178 0.2946446 0.2929448 0.2910785
 0.2891485 0.2872186 0.2853593 0.2836124 0.2819907 0.2805026 0.2791544 0.2779439 0.2769104 0.2760577
 0.275407 0.2749591 0.2746752 0.2745505 0.2745217 0.2745816 0.2746643 0.2747552 0.2747699 0.2747028
 0.2744885 0.2741584 0.2737332 0.2732388 0.2727338 0.272159 0.2715006 0.2706691 0.2695982 0.2682996
 0.2667394 0.2650518 0.2632476 0.2615106 0.2598691 0.2584499 0.2572722 0.2563224 0.2555998 0.2550243
 0.2545972 0.2543136 0.254177 0.2542177 0.2544104 0.2546912 0.2550227 0.25528 0.2554667 0.2555204
 0.2554949 0.2554165 0.2553569 0.2553792 0.2555248 0.2558449 0.2563017 0.2569047 0.2575625 0.2582523
 0.2589284 0.2595746 0.2602209 0.2608688 0.2615407 0.2622378 0.2629301 0.2636156 0.264261 0.2648666
 0.2654186 0.2659153 0.2663407 0.266698 0.2669842 0.2672092 0.2673925 0.2675267 0.2676151 0.2676385
 0.2675752 0.2674412 0.267231 0.266992 0.2667432 0.266501 0.2662803 0.2660434 0.2657899 0.2654628
 0.2650557 0.2645455 0.2639306 0.2632549 0.2625224 0.2617977 0.2610744 0.2603489 0.2596109 0.2588109
 0.2579704 0.2571076 0.2562612 0.2555151 0.2548522 0.2543057 0.2537905 0.2532569 0.252627 0.2518373
 0.2508822 0.2497346 0.2484562 0.2470522 0.245599 0.2441114 0.2426186 0.2411267 0.2396148 0.2380819
 0.2365259 0.2349488 0.2333829 0.2318244 0.230269 0.2287076 0.2270962 0.225449 0.223769 0.2220912
 0.2204792 0.2189409 0.2175181 0.2161808 0.214921 0.2137071 0.2125193 0.211343 0.2101644 0.2089981
 0.2078388 0.2067371 0.2057009 0.2047606 0.203924 0.2031439 0.2024179</values></Ydata></AB><ScSm><Ydata ylabel="Single channel"><values byteorder="INTEL" format="FLOAT32" numvalues="1814"> 0.07386483 0.07387462 0.07395449 0.07412456 0.07435024 0.07456252 0.07470689 0.07477795 0.07479855 0.07477549
 0.07471095 0.07465677 0.07470447 0.07489361 0.07515328 0.07535113 0.07540061 0.07533717 0.07529721 0.07538538
 0.07553411 0.07552323 0.07518491 0.07459518 0.07402682 0.07369889 0.07363755 0.07383193 0.07436992 0.07518728
 0.07578375 0.0755813 0.07465333 0.07375358 0.07348028 0.07370359 0.07392146 0.0738396 0.07345877 0.07295851
 0.07275227 0.07337968 0.07497488 0.07682362 0.07761952 0.07629213 0.07277349 0.06823778 0.06466543 0.06377913
 0.06582757 0.06924435 0.07182595 0.07248905 0.07178326 0.07077128 0.06989026 0.06909518 0.0685959 0.06888996
 0.07007244 0.07137822 0.07158057 0.07003959 0.06746457 0.06541108 0.06486521 0.0656275 0.0671453 0.06911432
 0.07063218 0.06971704 0.06525838 0.05948259 0.05695467 0.06023371 0.06714293 0.07290484 0.0743926 0.07187445
 0.06761636 0.06400506 0.0626574 0.0639891 0.06713236 0.07065286 0.07342291 0.07468478 0.07385798 0.07103974
 0.06750175 0.06507552 0.06502663 0.06756085 0.07178327 0.07577452 0.07746062 0.07614917 0.07299186 0.06976557
 0.0677029 0.0675002 0.0694882 0.07328047 0.07775946 0.08172919 0.08440027 0.08546142 0.0851438 0.08407599
 0.08280575 0.08171442 0.08135226 0.08209464 0.08325642 0.08335891 0.08174016 0.07943623 0.07811223 0.07833944
 0.07913925 0.07917438 0.07810313 0.07635218 0.07379211 0.06972331 0.06448714 0.05988173 0.05736381 0.05694444
 0.05825997 0.06113891 0.06435034 0.06553547 0.06379317 0.06132353 0.06124561 0.06426785 0.0683281 0.07110941
 0.07217595 0.0727976 0.07431051 0.07675751 0.07871298 0.07835782 0.07529192 0.07155112 0.0701613 0.07216644
 0.07562818 0.07800497 0.07882433 0.07940178 0.08053976 0.0812895 0.07995011 0.07609273 0.07163459 0.06965332
 0.07171333 0.07630187 0.07992846 0.07972082 0.07535794 0.06911677 0.06408685 0.06203869 0.06294327 0.06614155
 0.07106058 0.07663414 0.08101365 0.08260304 0.08123633 0.07806251 0.07425489 0.06996635 0.06491891 0.06009657
 0.05795991 0.06011085 0.06522513 0.07015178 0.07273313 0.07288297 0.07135309 0.06840635 0.06399603 0.05895154
 0.05535907 0.05495837 0.05706099 0.05893454 0.05865355 0.05684351 0.05528915 0.05470167 0.05446136 0.05395707
 0.05343463 0.05353789 0.05438277 0.05530144 0.05549325 0.05476354 0.05355573 0.05242562 0.05155399 0.05064199
 0.04933989 0.04791991 0.04726765 0.04789701 0.0492289 0.05019335 0.05031353 0.04986809 0.049183 0.04811575
 0.04630563 0.04386781 0.04169326 0.04079423 0.04131243 0.04242115 0.04319519 0.04328493 0.04281212 0.04202423
 0.04113562 0.04026297 0.03945362 0.0388179 0.03849833 0.0384441 0.03838859 0.03811908 0.03763177 0.03700327
 0.03625847 0.0354103 0.03454537 0.03381541 0.03333262 0.03307636 0.03292873 0.03278884 0.03259749 0.03228358
 0.03179291 0.03117377 0.03055124 0.03001321 0.02957372 0.02922608 0.02897046 0.0287867 0.02861593 0.0283907
 0.02808738 0.02773736 0.02737776 0.02701162 0.02663323 0.02626708 0.02595527 0.02571469 0.0255171 0.02531424
 0.02509266 0.02489202 0.02473914 0.02458213 0.02434047 0.02400933 0.02366456 0.02337414 0.02314536 0.02294699
 0.02274542 0.02251886 0.02225669 0.0219608 0.0216598 0.02141122 0.02126262 0.02121131 0.02121624 0.02122983
 0.02120421 0.02110353 0.02093584 0.02074493 0.0205578 0.02036653 0.02016293 0.01996337 0.01979989 0.01970059
 0.01966683 0.0196635 0.01964485 0.01958856 0.01949778 0.0193895 0.01929055 0.01921834 0.01915536 0.01906734
 0.01895081 0.01883981 0.01876519 0.01872297 0.01868108 0.01861185 0.01852258 0.01844816 0.0184071 0.01838002
 0.01834003 0.01828567 0.01823279 0.01818842 0.01814054 0.01806876 0.01796804 0.01786176 0.01777945 0.01772339
 0.01767325 0.01761867 0.01756852 0.01753177 0.0175047 0.01747532 0.01743283 0.01737506 0.01730739 0.01723314
 0.01715056 0.01706184 0.01697558 0.01689702 0.01682281 0.01674554 0.01665801 0.01655624 0.01644287 0.01632455
 0.01620538 0.01608727 0.01597259 0.01586138 0.01575099 0.0156434 0.01554611 0.01546175 0.01538306 0.01530102
 0.01521498 0.01513394 0.01506927 0.01502573 0.0149997 0.01498605 0.01498334 0.01499217 0.01501401 0.01505231
 0.01510953 0.01518362 0.01527258 0.01538144 0.01551859 0.01568545 0.01587326 0.01607066 0.01627287 0.01648261
 0.01670174 0.01692444 0.01714291 0.0173594 0.01758621 0.01782942 0.01807528 0.01829853 0.01848661 0.01865272
 0.01882204 0.01900845 0.0192095 0.01941776 0.01962549 0.01982082 0.0199947 0.02015579 0.02032639 0.02051748
 0.02071651 0.02090475 0.02107876 0.02124922 0.02142623 0.02161339 0.02181162 0.02202187 0.02224435 0.02247771
 0.02271651 0.02295014 0.02317155 0.02338979 0.02362711 0.023898 0.02419384 0.02449227 0.0247799 0.02506243
 0.0253528 0.02565384 0.02595711 0.02625797 0.02656497 0.02689042 0.02723542 0.02758968 0.02794397 0.02829816
 0.02865629 0.0290185 0.02938057 0.02974025 0.03009999 0.03046253 0.03082654 0.03118899 0.03154903 0.0319067
 0.03226056 0.03261071 0.03296202 0.03331769 0.03366958 0.03400293 0.0343152 0.03462361 0.03494568 0.03527621
 0.03559358 0.03588846 0.03617509 0.03647127 0.03677712 0.03708179 0.03738402 0.03769441 0.03801642 0.03833432
 0.03862401 0.03887159 0.0390799 0.03926366 0.03944267 0.03963613 0.03985741 0.04010966 0.04038238 0.040654
 0.04090517 0.0411315 0.0413406 0.04154234 0.0417501 0.04198248 0.04224847 0.04253425 0.04281581 0.04307913
 0.04332265 0.04355481 0.0437992 0.04408618 0.04442537 0.04479919 0.04519132 0.04560521 0.0460443 0.0464921
 0.0469289 0.0473581 0.04779854 0.04825369 0.04870254 0.04912113 0.04950061 0.0498442 0.05016397 0.05048831
 0.05085492 0.05128091 0.05174711 0.0522205 0.05268224 0.05312546 0.05353887 0.05390695 0.05422386 0.0544995
 0.05475151 0.05499258 0.0552234 0.05543674 0.05562544 0.05578084 0.05588509 0.05591452 0.05585317 0.05569538
 0.05543403 0.0550583 0.05456978 0.05399091 0.05334596 0.05263676 0.05184682 0.05096714 0.05000797 0.04898479
 0.04790427 0.04677052 0.04560205 0.04444118 0.04334943 0.04239388 0.04163624 0.04113432 0.04094552 0.0411069
 0.04158909 0.0422624 0.04291739 0.04333862 0.04338492 0.04302706 0.04232801 0.04139069 0.0403106 0.03915419
 0.03795898 0.0367391 0.03548678 0.03417854 0.03279936 0.03137666 0.03000209 0.02884807 0.02819989 0.02845673
 0.02999521 0.03290297 0.03680176 0.04098327 0.04478729 0.04790034 0.0503602 0.05236261 0.05409036 0.05565466
 0.05710175 0.05843631 0.05965016 0.06074055 0.06170528 0.06253053 0.06319073 0.06365967 0.06392754 0.06402211
 0.06401849 0.06401984 0.064117 0.06435011 0.06468552 0.06501634 0.06519309 0.06507047 0.06453974 0.06352571
 0.06196215 0.05982158 0.05729641 0.05505418 0.05421542 0.05579492 0.05994473 0.0657375 0.07176075 0.07695317
 0.08096236 0.08393542 0.08616404 0.08789624 0.0893033 0.09049511 0.09154184 0.09249128 0.09337486 0.09420998
 0.09500539 0.09576612 0.0964965 0.09720246 0.09789043 0.09856509 0.09923135 0.09989534 0.1005589 0.1012168
 0.1018626 0.1024963 0.1031238 0.103752 0.1043821 0.1050059 0.1056119 0.1061961 0.1067638 0.1073216
 0.1078747 0.1084281 0.1089829 0.1095309 0.110059 0.1105609 0.1110415 0.1115103 0.1119748 0.1124379
 0.1129002 0.1133619 0.1138208 0.1142752 0.1147278 0.1151829 0.115637 0.1160771 0.1164938 0.1168922
 0.1172881 0.1176945 0.118115 0.1185479 0.1189938 0.1194567 0.1199374 0.1204296 0.1209235 0.1214105
 0.1218864 0.122352 0.1228144 0.1232824 0.1237594 0.1242399 0.1247145 0.1251762 0.1256247 0.1260654
 0.126506 0.1269501 0.1273938 0.1278275 0.1282445 0.1286489 0.1290508 0.1294551 0.129859 0.1302612
 0.1306662 0.1310765 0.1314852 0.1318829 0.1322686 0.1326495 0.13303 0.1334072 0.1337791 0.1341539
 0.1345456 0.1349603 0.13539 0.1358185 0.1362327 0.1366299 0.137017 0.1374047 0.1378005 0.1382049
 0.1386146 0.1390268 0.1394404 0.1398531 0.140261 0.1406608 0.1410525 0.1414405 0.1418318 0.1422314
 0.1426361 0.1430363 0.1434253 0.1438063 0.1441898 0.1445836 0.1449868 0.1453912 0.1457892 0.1461811
 0.1465716 0.1469637 0.1473588 0.1477582 0.1481607 0.1485597 0.1489498 0.1493347 0.1497225 0.1501148
 0.150505 0.150887 0.1512633 0.1516423 0.1520289 0.15242 0.1528086 0.1531899 0.1535624 0.1539287
 0.1542927 0.1546547 0.1550101 0.1553579 0.1557056 0.1560638 0.156437 0.1568234 0.157216 0.1576079
 0.1579998 0.1583985 0.1588051 0.1592093 0.1596009 0.1599791 0.1603514 0.1607254 0.1611036 0.1614828
 0.1618609 0.1622418 0.1626276 0.1630124 0.1633892 0.1637586 0.1641244 0.164488 0.1648512 0.1652159
 0.1655825 0.1659506 0.1663199 0.1666888 0.1670581 0.1674338 0.1678208 0.1682166 0.1686157 0.1690132
 0.1694025 0.1697796 0.1701507 0.1705263 0.1709101 0.1713012 0.1716986 0.1720983 0.1724939 0.1728846
 0.1732745 0.1736658 0.1740602 0.1744576 0.1748517 0.1752348 0.1756061 0.1759705 0.176335 0.176708
 0.1770909 0.1774707 0.1778359 0.1781899 0.178539 0.1788821 0.1792237 0.1795758 0.1799398 0.1803048
 0.180663 0.1810129 0.1813547 0.1816925 0.1820311 0.1823698 0.1827103 0.1830606 0.1834186 0.1837707
 0.1841136 0.1844563 0.1847986 0.1851348 0.1854713 0.1858152 0.1861596 0.1864937 0.1868103 0.1870941
 0.1873058 0.1873342 0.1868901 0.1853991 0.1819912 0.1756706 0.1657082 0.1520984 0.1357216 0.1180345
 0.1005356 0.08437292 0.07022671 0.05839638 0.04895096 0.04182425 0.03687017 0.03396129 0.03309666 0.03451122
 0.03878919 0.04651518 0.05697891 0.06703777 0.07234561 0.07078283 0.06448072 0.05787854 0.05403971 0.05317986
 0.0539915 0.05535626 0.05691515 0.05886803 0.06156529 0.06510603 0.06931825 0.07419412 0.08010265 0.08731988
 0.09546639 0.1036695 0.1113181 0.1185394 0.1258985 0.1337155 0.1417307 0.1493608 0.1561589 0.1620368
 0.16718 0.1718472 0.1762201 0.1803736 0.1843285 0.1880699 0.1914741 0.1942669 0.1961477 0.1970199
 0.1971099 0.1968447 0.1965989 0.1965435 0.1966906 0.197011 0.1974873 0.1981028 0.1988343 0.199653
 0.2005229 0.2014073 0.2022833 0.2031389 0.203961 0.2047354 0.2054507 0.206097 0.2066719 0.2071887
 0.2076672 0.2081193 0.2085504 0.208965 0.209363 0.2097386 0.2100894 0.2104182 0.2107253 0.2110071
 0.2112644 0.2115028 0.2117302 0.2119555 0.2121868 0.2124247 0.2126628 0.2128937 0.2131138 0.2133253
 0.2135355 0.2137493 0.2139647 0.2141775 0.2143875 0.2145973 0.2148113 0.2150379 0.2152809 0.2155302
 0.2157715 0.2160031 0.2162319 0.2164585 0.2166781 0.2168911 0.2171036 0.2173232 0.2175532 0.2177886
 0.2180212 0.2182526 0.2184933 0.2187452 0.2190018 0.2192622 0.2195301 0.2198013 0.2200705 0.2203404
 0.2206098 0.2208625 0.221086 0.2212956 0.2215267 0.2218022 0.2221115 0.2224202 0.2227041 0.2229666
 0.2232248 0.2234886 0.2237561 0.2240191 0.2242736 0.2245387 0.2248481 0.2252071 0.2255775 0.225925
 0.226253 0.2265809 0.2269175 0.2272658 0.2276161 0.2279333 0.228186 0.2283974 0.2286466 0.2290071
 0.2294784 0.2299788 0.2304186 0.2307805 0.2311136 0.231471 0.2318751 0.2322965 0.2326291 0.2327619
 0.2327476 0.2328308 0.233225 0.233902 0.2346538 0.2353046 0.2358136 0.2362275 0.2365969 0.2369298
 0.2371892 0.237342 0.2374344 0.2376133 0.2380238 0.2386556 0.2393353 0.2399026 0.2403366 0.2406909
 0.241005 0.2413021 0.2415446 0.2415713 0.2412644 0.2408489 0.2408358 0.2415251 0.2426669 0.2437293
 0.2444254 0.2448606 0.245239 0.2456146 0.2459385 0.2461031 0.2458393 0.2448753 0.243467 0.2425402
 0.2429302 0.2445428 0.2465086 0.2480528 0.2489839 0.2494931 0.2498178 0.250091 0.2502429 0.249994
 0.2491699 0.2481346 0.2476996 0.2483692 0.2497712 0.2510565 0.251765 0.2520676 0.2523101 0.2526271
 0.2528533 0.2524891 0.2509854 0.2485511 0.2465599 0.2465864 0.2488659 0.2520126 0.2543953 0.2555372
 0.255982 0.2560993 0.2555361 0.2538497 0.2511759 0.2481729 0.2458145 0.245254 0.2470653 0.2502875
 0.2529601 0.2540517 0.254338 0.2551168 0.2566548 0.2581893 0.2589263 0.2586554 0.2576202 0.2560892
 0.2542206 0.2524512 0.2517499 0.2529379 0.2556802 0.2585992 0.2605524 0.2615017 0.2619053 0.26138
 0.2584296 0.2522376 0.2449271 0.2409864 0.2432974 0.2501126 0.2569412 0.2609708 0.262593 0.2632931
 0.2636695 0.2632675 0.2608319 0.2549954 0.2464326 0.2392035 0.238007 0.2435391 0.2517055 0.2574419
 0.2581789 0.2541175 0.2472957 0.2409827 0.2383634 0.240602 0.2463181 0.2529593 0.2583402 0.2612278
 0.2613392 0.2592406 0.2562746 0.2542062 0.253965 0.2542727 0.2525973 0.2483497 0.2438763 0.2410111
 0.2382312 0.2334746 0.2286556 0.2283664 0.2339016 0.2411032 0.2450298 0.2449463 0.2434428 0.2417363
 0.2376165 0.2286599 0.2168299 0.2085184 0.2089284 0.2166959 0.2251183 0.2286749 0.2273824 0.2248621
 0.223467 0.2219044 0.217143 0.2083797 0.1989572 0.1935536 0.1932694 0.1946644 0.1938658 0.189773
 0.1827787 0.1733294 0.1638121 0.159332 0.1633794 0.1734516 0.1830262 0.1869366 0.1832544 0.1720479
 0.155843 0.1408501 0.1339566 0.1366711 0.1433786 0.1465479 0.1427414 0.1332177 0.1205979 0.1069458
 0.0945567 0.08630589 0.0838792 0.08602217 0.08901723 0.0888222 0.08327254 0.07350349 0.06359452 0.05765717
 0.05637114 0.05675214 0.05552368 0.05199983 0.04760517 0.04381043 0.04118215 0.03954227 0.03827396 0.03681979
 0.0351228 0.03321777 0.03064011 0.02708522 0.02350963 0.02154898 0.02175363 0.02328164 0.02532459 0.02776225
 0.03019477 0.03149964 0.03113383 0.03027422 0.03085127 0.0335344 0.03713622 0.03999982 0.04162761 0.04280307
 0.04431676 0.04598068 0.04718113 0.04811957 0.04980625 0.05264538 0.05566977 0.05758964 0.05811714 0.05783498
 0.05721935 0.05630657 0.05502434 0.05337367 0.05138881 0.04917254 0.04687351 0.0445216 0.04201357 0.03928594
 0.0363393 0.03309736 0.02947374 0.02570884 0.02248843 0.02047418 0.01967916 0.01952146 0.01952042 0.01957499
 0.01943444 0.01847047 0.0164818 0.01439193 0.01357873 0.01455661 0.01662 0.01865194 0.01994424 0.02026346
 0.0195727 0.01816081 0.01704901 0.0177187 0.02098393 0.02631333 0.03250393 0.03866757 0.04423158 0.04846298
 0.05071284 0.05119662 0.05120777 0.05243626 0.05604046 0.06207824 0.0692747 0.07510076 0.07700032 0.07512668
 0.07388379 0.07864649 0.0897886 0.1016588 0.1088811 0.1119268 0.1146527 0.1182982 0.1209496 0.1221359
 0.1245394 0.1302577 0.1375507 0.1424444 0.1421559 0.1361637 0.1257682 0.1142981 0.1063275 0.1042954
 0.1061743 0.1080147 0.10794 0.1059777 0.1016684 0.09506742 0.08940381 0.08912619 0.09464638 0.1015395
 0.1056148 0.1067827 0.1072626 0.1077332 0.1065525 0.1023125 0.09618904 0.09120987 0.08924203 0.08931628
 0.08917005 0.0875892 0.08457114 0.08011335 0.07417575 0.06770992 0.06261239 0.06018168 0.05994745 0.06026575
 0.05990799 0.058904 0.05804477 0.05797432 0.05880565 0.06026079 0.06209726 0.06464274 0.06874451 0.07472524
 0.08158844 0.08791036 0.09343164 0.09909908 0.10552 0.1119807 0.1171519 0.1204398 0.1225832 0.1251119
 0.1291431 0.1344211 0.1394395 0.1427069 0.1441603 0.1453433 0.1479484 0.1521263 0.1564573 0.1595197
 0.1610578 0.1616475 0.1618285 0.1617335 0.161094 0.1595373 0.157352 0.1559394 0.1568914 0.1604367
 0.1651647 0.1693382 0.1721608 0.1737854 0.1745478 0.1745062 0.1736425 0.1722544 0.1709467 0.1702144
 0.1701423 0.170522 0.17112 0.1717791 0.1724031 0.1729618 0.1734851 0.1740204 0.1746155 0.1753244
 0.1761679 0.1770851 0.177981 0.1788418 0.1797501 0.1807446 0.181706 0.1824391 0.1828312 0.1828557
 0.1824593 0.1815559 0.1801387 0.1783037 0.1761346 0.1736531 0.170953 0.168353 0.1663229 0.1651807
 0.1648449 0.1649082 0.1649529 0.1647897 0.1644524 0.1640723 0.1637905 0.1637236 0.1639397 0.1644497
 0.1652309 0.1662598 0.1675147 0.1689557 0.1705256 0.1721893 0.173958 0.1758619 0.1779052 0.1800571
 0.182266 0.1844745 0.1866381 0.1887406 0.1907784 0.1927323 0.1945651 0.1962391 0.1977246 0.1990023
 0.200072 0.2009456 0.2016169 0.2020489 0.2021998 0.2020486 0.2015752 0.2007284 0.1994593 0.1978005
 0.1958798 0.1938321 0.1917291 0.1896073 0.1875144 0.1854807 0.1834749 0.1814283 0.179298 0.1770908
 0.1748456 0.1726109 0.1704326 0.1683504 0.1663993 0.1645994 0.1629268 0.1612959 0.1595858 0.1576877
 0.1555231 0.1530227 0.1501129 0.1467395 0.1428974 0.1386299 0.1340148 0.1291679 0.1242497 0.1194385
 0.1148769 0.1106408 0.1067622 0.10328 0.1002593 0.09775312 0.09575641 0.09421071 0.09304765 0.09222019
 0.09170651 0.09149806 0.09157403 0.09187518 0.09230454 0.09275621 0.0931471 0.09344424 0.09368686 0.09398159
 0.09445665 0.0952021 0.09623601 0.09751195 0.09895027 0.1004577 0.1019244 0.103232 0.1042947 0.1050956
 0.1056778 0.1061111 0.1064696 0.106816 0.1071847 0.1075795 0.1079935 0.1084338 0.1089361 0.1095565
 0.1103419 0.1113038 0.112421 0.1136543 0.1149531 0.1162643 0.1175538 0.1188244 0.1201105 0.12146
 0.1229207 0.1245479 0.1264251 0.128662 0.1313525 0.13453 0.1381563 0.1421281 0.1462819 0.1504125
 0.1543155 0.1578355 0.1609015 0.1635282 0.1657749 0.1676946 0.1693225 0.170697 0.1718687 0.1728835
 0.1737641 0.1745 0.1750547 0.1753928 0.1755041 0.1754084 0.1751547 0.1748224 0.1745021 0.1742612
 0.1741375 0.1741597 0.1743551 0.1747334 0.1752681 0.1758903 0.176503 0.1770204 0.1773974 0.177617
 0.1776588 0.1774898 0.1770747 0.1763887 0.1754366 0.1742612 0.172923 0.1714666 0.1699122 0.1682754
 0.1665926 0.1649334 0.163383 0.1619966 0.1607713 0.1596627 0.1586122 0.1575566 0.156439 0.1552366
 0.1539701 0.1526711 0.1513396 0.1499377 0.1484303 0.1468269 0.1451744 0.143509 0.1418366 0.1401607
 0.1385047 0.1368953 0.1353462 0.1338724 0.1325085 0.1313 0.1302806 0.129451 0.128769 0.1281631
 0.1275675 0.1269513 0.1263237 0.1257184 0.1251705 0.1246905 0.1242558 0.1238253 0.1233674 0.1228803
 0.1223926 0.1219383 0.1215272 0.1211397 0.1207439 0.1203055 0.1197769 0.1190907 0.1181768 0.1169905
 0.1155314 0.1138423 0.1119958 0.1100834 0.1082058 0.1064538 0.1048873 0.1035352 0.102404 0.1014747
 0.100701 0.1000359 0.09946591 0.09901368 0.09870075 0.09849636 0.09829841 0.09799292 0.09756073 0.09710951
 0.09677698 0.09661409 0.09656768 0.09654285 0.09646421 0.09630632 0.09609433 0.09587414 0.09567293 0.09547619
 0.09522932 0.09487192 0.09439097 0.09383309 0.09325389 0.09267405 0.09208989 0.09149377 0.09087007 0.09019516
 0.08944959 0.0886218 0.08770993 0.08672363 0.08567012 0.08455321 0.08341871 0.08238739 0.08160856 0.0811726
 0.08105241 0.0811038 0.08115272 0.08112038 0.0810187 0.08080468 0.08037289 0.07980614 0.07951915 0.07995994
 0.08114916 0.08261491 0.08378939 0.08439095 0.08443773 0.0840487 0.08333847 0.08241346 0.08133224 0.08008215
 0.07865842 0.07711634 0.07550812 0.07385447 0.07221004 0.07066997 0.06930254 0.06813236 0.06716262 0.06641628
 0.06596044 0.06559475 0.06432611 0.06087992 0.05564731 0.0515799 0.05172108 0.05578708 0.06036172 0.06253497
 0.06224146 0.0610511 0.06005917 0.05947287 0.05928125 0.05955849 0.06032584 0.06144921 0.06267209 0.06374238
 0.0645439 0.06506912 0.06526822 0.06494528 0.06373535 0.06122141 0.05728921 0.05243991 0.04760956 0.04362603
 0.04086906 0.0393064 0.03864549 0.03848078 0.03848886 0.03858729 0.03891079 0.03962886 0.04078406 0.04229185
 0.04404186 0.04591778 0.04773446 0.04928454 0.05048983 0.05141705 0.0521247 0.05258103 0.05273763 0.05260214
 0.05223355 0.05171931 0.05115215 0.05058825 0.05001519 0.04937539 0.04865342 0.0479565 0.04746302 0.04725545
 0.04724886 0.04730759 0.04736789 0.04742922 0.04750276 0.04759466 0.04770067 0.04782616 0.04802389 0.04835455
 0.04878993 0.04921618 0.04954688 0.04979113 0.05001645 0.05025762 0.05044264 0.05045364 0.05031805 0.05023822
 0.05031369 0.05035015 0.05011275 0.04968716 0.04942035 0.04954281 0.04997368 0.05046451 0.05082387 0.05100958
 0.05111215 0.05130387 0.05172713 0.05232887</values></Ydata></ScSm><ScRf><Ydata ylabel="Single channel"><values byteorder="INTEL" format="FLOAT32" numvalues="1820"> 0.06064291 0.06081038 0.06091785 0.06095639 0.06094887 0.06094544 0.06100021 0.06113779 0.0613346 0.06153073
 0.06167005 0.06173684 0.06174735 0.06171359 0.06164685 0.06159661 0.06163965 0.06180433 0.06202431 0.0621831
 0.06220696 0.06213013 0.06207416 0.06213094 0.06224287 0.06222413 0.06193646 0.06144548 0.06097609 0.06070527
 0.06065158 0.06080605 0.06124476 0.0619207 0.062424 0.06227171 0.06151321 0.06076497 0.06052525 0.06069513
 0.06086443 0.06078933 0.06046876 0.06005181 0.05988117 0.06040087 0.06171884 0.06324524 0.06390175 0.06279977
 0.05987639 0.05610046 0.05311452 0.05235263 0.05403226 0.05686525 0.05902217 0.05958934 0.05901154 0.05817461
 0.05744942 0.05679445 0.05637137 0.05659084 0.05754664 0.0586199 0.05879287 0.0575232 0.05539306 0.05369543
 0.05324879 0.05388135 0.05512977 0.05674512 0.0579886 0.0572249 0.05353291 0.04875023 0.04665623 0.04937883
 0.05512382 0.05992949 0.06118993 0.05911601 0.05558969 0.05260257 0.05150026 0.05261734 0.05522243 0.05812914
 0.06041579 0.06146143 0.06078187 0.05845226 0.05552325 0.05351202 0.05347074 0.05557487 0.05908322 0.06240074
 0.06380436 0.06271783 0.06009538 0.05741258 0.05569515 0.05552414 0.05717994 0.0603492 0.06410418 0.06744144
 0.06969383 0.07059743 0.07034593 0.06947032 0.0684361 0.06755969 0.06728552 0.06791529 0.06888131 0.06896245
 0.06761515 0.06570293 0.06460726 0.06480005 0.0654699 0.0655081 0.06462995 0.06319016 0.06108094 0.05771306
 0.05336266 0.04953142 0.04744482 0.0471189 0.04825616 0.0507216 0.05348179 0.05453922 0.0531142 0.05104429
 0.05095989 0.05348024 0.05689142 0.05924588 0.06016877 0.0607306 0.06206321 0.0641965 0.06591244 0.06566651
 0.06312267 0.06001012 0.05889887 0.06067676 0.06369779 0.06580748 0.06661394 0.06723998 0.0683622 0.06916115
 0.06817368 0.06502838 0.06137873 0.05988238 0.06188529 0.06607246 0.0694207 0.06943531 0.06583191 0.06060277
 0.05646315 0.05497115 0.05611604 0.05935747 0.06422161 0.0697494 0.07424726 0.07623193 0.07550426 0.07308026
 0.07003079 0.06648649 0.0621784 0.0580791 0.05661908 0.05939366 0.06512315 0.07071647 0.07402864 0.07493354
 0.07412746 0.0718084 0.06787448 0.06321158 0.06012083 0.06053234 0.06367882 0.06652633 0.06695019 0.06567535
 0.06472094 0.06488457 0.06543739 0.06567176 0.06591552 0.06697494 0.06898227 0.0710845 0.07226728 0.07227351
 0.07165368 0.07112254 0.07090873 0.0705847 0.06967768 0.06862666 0.06873064 0.0707212 0.07374872 0.07625405
 0.07753173 0.07798064 0.0780537 0.0774588 0.07557583 0.07261649 0.07009875 0.06972186 0.07172282 0.07472519
 0.07717049 0.07844314 0.07872677 0.07843523 0.07793006 0.0774058 0.07695389 0.07681598 0.07732263 0.07841875
 0.07955433 0.0802342 0.08042253 0.08029608 0.07989489 0.07919963 0.07838458 0.07781364 0.07777814 0.07828142
 0.07908896 0.07993687 0.08062007 0.08094946 0.08082183 0.08037038 0.07988819 0.07955928 0.07938866 0.07938526
 0.07963021 0.08011498 0.08065657 0.08105043 0.08123372 0.0812625 0.08119799 0.0810622 0.08087269 0.0806904
 0.08062465 0.08075719 0.0810408 0.08132859 0.08154494 0.08175923 0.08202825 0.08224657 0.08225714 0.08206712
 0.08185598 0.0817823 0.08185407 0.08197974 0.08206981 0.08205509 0.0818668 0.08149554 0.08108679 0.08089282
 0.08107173 0.08157179 0.08222055 0.08284942 0.08332538 0.08357815 0.08365025 0.08364898 0.08361819 0.08351171
 0.0833037 0.08307806 0.08299437 0.08317044 0.08358073 0.08406761 0.08446407 0.08469632 0.08478477 0.08481141
 0.08488858 0.08507225 0.08527967 0.08536623 0.08530554 0.08522833 0.08526251 0.08538665 0.08546884 0.08542625
 0.08532223 0.08530006 0.08543112 0.0856526 0.08585717 0.08601223 0.08617198 0.08638434 0.08660123 0.08669821
 0.08660452 0.08639929 0.08623509 0.08617744 0.08618023 0.08621188 0.08631952 0.0865347 0.08678161 0.08693847
 0.08697118 0.086961 0.08699555 0.08706315 0.08707373 0.08696693 0.08677639 0.08659592 0.08650634 0.08653018
 0.0866264 0.0867169 0.08673545 0.08666991 0.08655977 0.08645201 0.08636634 0.08631177 0.08632475 0.08645587
 0.08669344 0.08691761 0.08697221 0.08680511 0.08652835 0.08632085 0.08626635 0.08629024 0.08625104 0.08607803
 0.0858157 0.08555751 0.08536281 0.08523203 0.08513324 0.08504188 0.08497147 0.08497379 0.08508587 0.08525681
 0.08535103 0.08526161 0.08501627 0.08474609 0.08456257 0.08448954 0.0844875 0.08450262 0.08450784 0.08452649
 0.08459514 0.08468679 0.08471385 0.08463328 0.08450718 0.08443926 0.08449063 0.08465931 0.08488178 0.08504429
 0.08505693 0.08494487 0.08482917 0.08480461 0.08486798 0.08496541 0.08506449 0.08516143 0.08525296 0.08533683
 0.08543421 0.08558498 0.08580963 0.08608058 0.08633481 0.08651727 0.08662373 0.08671199 0.08686393 0.08712067
 0.08744837 0.08776826 0.08802199 0.08821335 0.08838966 0.08858401 0.08878593 0.08897974 0.08919108 0.08946246
 0.08979047 0.09012423 0.0904268 0.09070697 0.09098925 0.091281 0.09157772 0.09188703 0.09223701 0.09264845
 0.0930879 0.09346555 0.09370963 0.09384159 0.09396221 0.09417108 0.09450139 0.09489751 0.09523855 0.09542748
 0.09549344 0.0955756 0.0957735 0.09604608 0.0962963 0.09652063 0.09681488 0.09723648 0.09771281 0.09810615
 0.09834673 0.09848578 0.09862669 0.09881522 0.09900454 0.09912931 0.09919728 0.09927949 0.0994187 0.09959595
 0.09980041 0.1000764 0.1004583 0.1008961 0.101291 0.1015857 0.1017874 0.1019269 0.1020295 0.1021102
 0.1021669 0.1021945 0.1022185 0.1022839 0.1023929 0.1024878 0.1025242 0.1025331 0.1025842 0.1027156
 0.102927 0.1032083 0.1035343 0.1038506 0.1041187 0.104376 0.104698 0.1050806 0.105408 0.1055762
 0.1056098 0.1056141 0.1056461 0.105693 0.1057588 0.1058984 0.1061498 0.1064836 0.1068417 0.1071938
 0.1075404 0.1078798 0.1081857 0.1084125 0.1085235 0.1085267 0.1084849 0.1084875 0.1086031 0.1088441
 0.1091636 0.1094873 0.1097603 0.1099576 0.1100609 0.1100585 0.1099927 0.1099701 0.1100752 0.1102715
 0.1104222 0.1104094 0.1102078 0.1098472 0.10935 0.1087319 0.1080415 0.1073687 0.1068041 0.1063986
 0.1061681 0.1061335 0.1063367 0.1067941 0.1074404 0.1081457 0.1087942 0.1093141 0.1096322 0.1096561
 0.109343 0.1087596 0.108042 0.107311 0.1066346 0.1060276 0.1054583 0.1048904 0.1043656 0.1040349
 0.1040868 0.1046372 0.1056751 0.1070681 0.1086015 0.1100503 0.1112674 0.1122338 0.1130254 0.1137321
 0.1144061 0.1150727 0.1157513 0.116438 0.1170844 0.117635 0.1180888 0.1184945 0.1188891 0.1192667
 0.1196023 0.1198811 0.1201117 0.1203258 0.1205475 0.1207469 0.1208509 0.120823 0.1207086 0.1205817
 0.1204645 0.1203145 0.1200738 0.1197176 0.1192848 0.1188921 0.1187172 0.11893 0.1195974 0.1206397
 0.1218899 0.123201 0.1244834 0.1256543 0.1266097 0.1272839 0.1277114 0.1279995 0.1282487 0.1285134
 0.1288098 0.1291313 0.1294566 0.1297632 0.1300448 0.13032 0.1306215 0.1309663 0.1313267 0.1316465
 0.1318946 0.1321032 0.1323444 0.1326658 0.1330467 0.1334211 0.1337493 0.1340552 0.1343773 0.1346988
 0.1349615 0.1351454 0.1352997 0.1354969 0.13578 0.1361464 0.1365448 0.1368932 0.137136 0.1372936
 0.1374372 0.1376179 0.137838 0.1380782 0.1383269 0.1385794 0.1388327 0.1390939 0.1393807 0.139697
 0.1400081 0.1402588 0.1404279 0.1405545 0.1407019 0.1408999 0.1411282 0.1413495 0.1415509 0.1417581
 0.1420091 0.1423107 0.1426209 0.1428823 0.1430696 0.143203 0.1433238 0.1434664 0.1436455 0.1438569
 0.144082 0.1442986 0.1444969 0.1446873 0.1448897 0.145112 0.1453423 0.1455637 0.1457704 0.1459695
 0.1461707 0.1463793 0.1465984 0.1468367 0.1471058 0.1474015 0.1476915 0.1479345 0.1481143 0.1482475
 0.1483645 0.1484918 0.1486473 0.1488348 0.1490416 0.1492489 0.149448 0.1496443 0.1498465 0.1500552
 0.1502625 0.1504613 0.1506536 0.150848 0.1510542 0.1512805 0.1515281 0.1517827 0.1520189 0.1522223
 0.1524016 0.1525781 0.152765 0.1529597 0.1531517 0.1533342 0.1535117 0.1536948 0.1538897 0.1540936
 0.1542991 0.1544996 0.1546916 0.1548757 0.1550561 0.1552397 0.1554338 0.1556406 0.1558519 0.156054
 0.156242 0.1564246 0.1566151 0.1568175 0.1570243 0.1572257 0.1574207 0.1576179 0.157824 0.1580337
 0.1582388 0.1584381 0.1586356 0.1588318 0.1590242 0.1592144 0.1594087 0.1596113 0.1598197 0.160027
 0.1602294 0.1604283 0.1606251 0.1608196 0.1610169 0.1612263 0.1614493 0.1616768 0.1618991 0.1621125
 0.1623165 0.1625144 0.1627147 0.1629259 0.1631503 0.1633842 0.1636209 0.1638508 0.1640647 0.1642592
 0.1644404 0.1646193 0.1648018 0.1649801 0.1651434 0.1652962 0.1654575 0.1656395 0.165837 0.166036
 0.1662255 0.1664038 0.1665823 0.1667754 0.166983 0.1671929 0.167399 0.167605 0.1678116 0.1680135
 0.1682078 0.1683992 0.168597 0.1688091 0.1690339 0.1692604 0.1694804 0.1696935 0.1699013 0.1701054
 0.1703112 0.1705224 0.1707358 0.1709473 0.1711558 0.1713594 0.1715569 0.1717512 0.1719467 0.1721464
 0.1723571 0.1725824 0.1728135 0.1730372 0.1732503 0.173455 0.1736524 0.1738497 0.1740595 0.1742847
 0.1745169 0.174747 0.1749671 0.175172 0.1753689 0.1755711 0.1757812 0.1759929 0.1762034 0.1764104
 0.1766117 0.1768131 0.1770197 0.1772154 0.1773525 0.177316 0.1768272 0.175337 0.1720136 0.1659105
 0.1563448 0.1433265 0.1277012 0.1108522 0.09419794 0.07882524 0.0653795 0.05414398 0.04518013 0.03841992
 0.03372334 0.03096944 0.03015301 0.03148902 0.03552762 0.04282639 0.05271898 0.06223195 0.06724752 0.06575647
 0.05978009 0.05352651 0.04989238 0.04906949 0.04981351 0.05107459 0.05252817 0.05436923 0.05692212 0.06027029
 0.06424935 0.06885818 0.07444876 0.08127539 0.08897123 0.09671059 0.1039191 0.1107163 0.117633 0.1249724
 0.1324956 0.1396595 0.1460488 0.1515831 0.1564332 0.1608307 0.1649349 0.1688155 0.1725061 0.1760073
 0.1792039 0.1818245 0.1835716 0.1843496 0.1843788 0.1840761 0.1838066 0.183733 0.1838568 0.1841367
 0.1845457 0.1850675 0.1856907 0.1864034 0.18718 0.1879844 0.1887894 0.1895814 0.1903503 0.1910822
 0.1917615 0.1923763 0.1929265 0.1934251 0.193886 0.1943161 0.1947208 0.1951041 0.1954649 0.1958032
 0.1961292 0.196453 0.1967706 0.1970664 0.197328 0.1975546 0.1977585 0.1979575 0.1981607 0.1983661
 0.1985719 0.1987832 0.1990014 0.199219 0.1994297 0.199634 0.1998337 0.2000285 0.2002186 0.2004064
 0.200596 0.2007892 0.2009836 0.2011768 0.2013723 0.2015756 0.2017849 0.2019903 0.2021846 0.2023689
 0.20255 0.2027362 0.202931 0.2031276 0.2033194 0.2035126 0.2037192 0.2039383 0.2041596 0.2043808
 0.2046081 0.2048409 0.2050702 0.2052886 0.2054901 0.2056669 0.2058163 0.205954 0.2061118 0.2063136
 0.2065511 0.2067882 0.206998 0.2071858 0.207372 0.2075641 0.207754 0.2079325 0.2081035 0.2082891
 0.2085142 0.2087762 0.2090449 0.2092996 0.2095447 0.2097874 0.2100286 0.2102731 0.2105148 0.2107183
 0.2108532 0.2109498 0.2110936 0.211351 0.2117057 0.2120712 0.2123714 0.2126057 0.2128261 0.2130753
 0.2133634 0.2136595 0.21387 0.213898 0.2137916 0.2137725 0.2140372 0.2145628 0.2151588 0.2156608
 0.2160281 0.2163039 0.2165403 0.2167504 0.2168983 0.216943 0.2169178 0.2169625 0.2172255 0.217707
 0.2182437 0.2186769 0.2189828 0.2192161 0.2194165 0.2195987 0.2197197 0.2196327 0.2192385 0.2187525
 0.2186471 0.2191963 0.2201653 0.2210597 0.2216125 0.2219185 0.2221635 0.2224016 0.2226028 0.2226862
 0.2224098 0.2215113 0.2202044 0.2193215 0.2196221 0.2210261 0.222749 0.2240892 0.2248722 0.2252757
 0.2255239 0.2257389 0.2258478 0.2255891 0.2248046 0.2238269 0.2233941 0.2239685 0.2252185 0.226375
 0.2270163 0.22729 0.2275057 0.2277894 0.2279936 0.227653 0.2262515 0.2239816 0.222117 0.2221114
 0.2241798 0.2270462 0.2292089 0.2302275 0.2306052 0.2306886 0.2301584 0.2286105 0.2261693 0.2234316
 0.2212798 0.2207678 0.222424 0.2253709 0.2278197 0.2288361 0.2291323 0.2298881 0.2313394 0.2327839
 0.2334931 0.2332788 0.2323681 0.2310028 0.2293243 0.2277399 0.2271392 0.2282633 0.2308034 0.2335146
 0.2353619 0.2363019 0.2367411 0.2363192 0.2336662 0.2280486 0.2214234 0.2178887 0.2200643 0.2263539
 0.2326615 0.2364162 0.2379781 0.2387165 0.2391769 0.2389271 0.2368078 0.2315685 0.2238337 0.2173375
 0.2163963 0.2216378 0.2292928 0.2347161 0.2355484 0.2319621 0.2258333 0.2201866 0.2179553 0.2202036
 0.2256667 0.2320024 0.2371913 0.2400901 0.2404321 0.2387248 0.2362073 0.2345397 0.2345997 0.2351843
 0.2339277 0.2302876 0.2264477 0.2241101 0.221858 0.2177698 0.2136415 0.2138011 0.2194891 0.2267836
 0.2310061 0.2314634 0.2306044 0.2295554 0.2261867 0.2181756 0.2074077 0.2000614 0.2012059 0.2095358
 0.218538 0.222873 0.222619 0.2213504 0.2213724 0.2213717 0.2182643 0.2112229 0.2037178 0.2005994
 0.2029345 0.2070528 0.2088846 0.2071981 0.2021693 0.1940874 0.1857024 0.1830586 0.1903981 0.2049699
 0.2191863 0.226869 0.2255027 0.2148706 0.1979442 0.1827213 0.1783373 0.1868727 0.2008169 0.2099764
 0.209561 0.2010325 0.1877539 0.1727028 0.1598719 0.1546919 0.16078 0.176278 0.1938627 0.2043637
 0.2018306 0.1881917 0.1737169 0.1696274 0.1778471 0.1896457 0.1954101 0.1933677 0.1882182 0.1851065
 0.1866644 0.192516 0.199665 0.2053181 0.2091156 0.2099549 0.2029804 0.1854161 0.164295 0.1518302
 0.1527357 0.1618036 0.1736639 0.1876115 0.2012582 0.2072183 0.201433 0.19086 0.1875522 0.1958572
 0.2086958 0.2162278 0.2155952 0.2114375 0.2087327 0.207505 0.2053072 0.2029457 0.2046728 0.2123144
 0.2220704 0.2287537 0.2311787 0.2316844 0.232175 0.2326777 0.2326732 0.2319618 0.2306002 0.2290429
 0.2280004 0.227639 0.2274269 0.2269421 0.2258615 0.222742 0.2153194 0.2036859 0.1923292 0.1865808
 0.1869594 0.1895249 0.1917432 0.1939654 0.1939518 0.185335 0.1660268 0.145117 0.1362617 0.1444887
 0.1624515 0.1788056 0.186904 0.1853625 0.1746594 0.1573401 0.1407408 0.1346949 0.1435085 0.1618253
 0.1803532 0.1938766 0.201852 0.2039638 0.19913 0.1886575 0.1775166 0.171501 0.1736979 0.183127
 0.1950688 0.2022839 0.1985579 0.1848728 0.1721253 0.1730872 0.1890118 0.2075536 0.2166501 0.21674
 0.2158651 0.2171673 0.2173293 0.2153591 0.2161176 0.2236522 0.2352498 0.2441165 0.2453508 0.2378802
 0.2238276 0.2090025 0.2013921 0.2047221 0.214152 0.2214827 0.2230636 0.2193148 0.2098961 0.195739
 0.184171 0.1845091 0.1972662 0.2129353 0.222789 0.2268321 0.2298368 0.2331394 0.233027 0.2263717
 0.215855 0.2083127 0.2079712 0.2127544 0.2178062 0.2206137 0.2210256 0.2183464 0.2117784 0.2037312
 0.1998433 0.2040794 0.2146065 0.2254771 0.2319182 0.2333074 0.2317976 0.2295196 0.2271457 0.2240469
 0.2197061 0.2155605 0.2147266 0.2186742 0.2248922 0.2294719 0.2315816 0.2337417 0.2378586 0.2425981
 0.2450092 0.2437432 0.2403361 0.2378702 0.2385014 0.2417506 0.2448638 0.2451619 0.2425834 0.2399738
 0.2404612 0.2444727 0.249674 0.253631 0.2557945 0.256997 0.2580271 0.25894 0.2590082 0.2572657
 0.2538658 0.2508833 0.2508436 0.2542175 0.2589756 0.2626941 0.2645211 0.2650388 0.2649234 0.2642367
 0.2628314 0.2609975 0.259467 0.2588286 0.2591042 0.2599096 0.2608507 0.2616957 0.2623448 0.2627977
 0.2631099 0.2633146 0.2634202 0.2634746 0.2635375 0.2635775 0.2635085 0.2633639 0.2633308 0.2635384
 0.2638865 0.2641522 0.2641964 0.2639756 0.2634275 0.26249 0.261229 0.259813 0.2583176 0.2566772
 0.2549363 0.2535065 0.2530312 0.2539009 0.2559006 0.258346 0.2605476 0.2621471 0.2631203 0.2636122
 0.2638103 0.2638786 0.263906 0.2638877 0.2637746 0.2635435 0.2632207 0.26285 0.2624612 0.262077
 0.2617292 0.261442 0.2611952 0.2609251 0.2605743 0.260131 0.2596236 0.2590914 0.2585568 0.2580051
 0.2573839 0.256636 0.2557461 0.254762 0.2537789 0.25289 0.2521227 0.2514178 0.2506855 0.2498777
 0.2489852 0.2479877 0.2468686 0.2456926 0.2446091 0.2437348 0.2430511 0.2424372 0.2417757 0.2410056
 0.2401142 0.2391241 0.2380835 0.2370316 0.2359675 0.2348604 0.2336826 0.2324225 0.2310777 0.2296497
 0.228141 0.2265579 0.2249211 0.223262 0.2215856 0.2198293 0.2178672 0.2155539 0.2127647 0.2094148
 0.2054819 0.2010328 0.1962271 0.1912769 0.186385 0.1817099 0.1773717 0.1734721 0.1701045 0.167351
 0.1652702 0.163884 0.1631855 0.1631685 0.16384 0.1651919 0.1671643 0.1696381 0.1724544 0.1754376
 0.1784156 0.181238 0.1838106 0.1861371 0.1883081 0.1904099 0.1924377 0.1943159 0.1959859 0.1974396
 0.1986813 0.199706 0.2005237 0.2011773 0.2017212 0.2021923 0.2026057 0.2029691 0.2032906 0.2035726
 0.2038122 0.2040151 0.2042014 0.2043926 0.2045991 0.2048239 0.2050728 0.2053629 0.2057202 0.2061624
 0.2066779 0.2072334 0.2078054 0.2083943 0.2090115 0.2096689 0.2103865 0.2111986 0.2121454 0.2132531
 0.2145146 0.2158819 0.2172778 0.2186133 0.2198043 0.2207884 0.2215356 0.2220435 0.2223285 0.2224233
 0.2223675 0.2221889 0.2218999 0.221512 0.2210435 0.2205101 0.2199239 0.219301 0.218659 0.2180064
 0.217339 0.2166515 0.2159471 0.2152375 0.2145353 0.2138519 0.2131986 0.2125821 0.211996 0.2114234
 0.2108509 0.2102762 0.2097035 0.2091357 0.2085679 0.2079801 0.2073384 0.2066098 0.2057796 0.2048503
 0.2038281 0.2027149 0.2015138 0.200235 0.1988897 0.1974779 0.1959868 0.1944051 0.1927371 0.1909972
 0.1891871 0.1872908 0.1853054 0.1832777 0.1812951 0.1794352 0.1777255 0.1761452 0.174656 0.1732349
 0.1718812 0.1705941 0.1693583 0.1681648 0.1670304 0.165975 0.1649909 0.1640562 0.1631683 0.1623491
 0.1616234 0.1609998 0.1604654 0.1599981 0.159587 0.1592373 0.1589646 0.1587923 0.1587393 0.1587867
 0.1588675 0.1589031 0.158849 0.1587102 0.1585351 0.1583873 0.1583015 0.1582646 0.1582403 0.1581881
 0.1580499 0.157742 0.1571763 0.15629 0.1550678 0.153546 0.1517994 0.1499341 0.1480897 0.1464085
 0.1449798 0.1438315 0.142961 0.1423317 0.1418592 0.1414586 0.1411154 0.1408885 0.1408502 0.1410098
 0.1412655 0.1414559 0.14151 0.1415292 0.141694 0.1421146 0.1427739 0.1435587 0.144329 0.1449908
 0.1455128 0.1458859 0.1461118 0.1462256 0.1462709 0.1462538 0.1461582 0.145979 0.1457159 0.1453745
 0.1449823 0.1445563 0.1440704 0.143493 0.142824 0.1420703 0.1412362 0.1403352 0.1393552 0.1382516
 0.1370563 0.1359613 0.135233 0.1350578 0.1354514 0.1362555 0.1372502 0.1383095 0.1393678 0.1402281
 0.1406245 0.1406212 0.1407974 0.1418197 0.143811 0.1462246 0.148337 0.1497699 0.1505199 0.1506709
 0.1502667 0.1493565 0.1479547 0.1460083 0.143536 0.1407023 0.1376839 0.1346148 0.1316744 0.1290435
 0.1267976 0.1249543 0.1235263 0.1225536 0.1221533 0.12195 0.1200541 0.1140357 0.1046829 0.09768711
 0.09885396 0.1075741 0.1172518 0.1222662 0.1224366 0.1207361 0.1192393 0.1182778 0.1177478 0.1177711
 0.118452 0.1196474 0.1210005 0.1221347 0.1228715 0.1232215 0.1231388 0.1222808 0.1199244 0.115214
 0.1078541 0.09870523 0.08949909 0.08184169 0.07648677 0.07332452 0.071725 0.07091719 0.07037443 0.07005501
 0.0702776 0.07134052 0.07327642 0.07593198 0.07912812 0.08261314 0.08596263 0.08875747 0.09089935 0.09259856
 0.09402585 0.0951082 0.09568157 0.09571096 0.09531584 0.09466808 0.0939139 0.09313057 0.09228367 0.09125602
 0.09002061 0.0887926 0.0879012 0.08748072 0.08738326 0.08739614 0.08741951 0.08742823 0.08740208 0.0873354
 0.08725036 0.08719929 0.08727354 0.08755188 0.08800651 0.08850011 0.08888561 0.0890968 0.0891639 0.08912496
 0.08889508 0.08833003 0.08750965 0.08677806 0.08630382 0.08577005 0.08477543 0.08344676 0.0823823 0.08201233
 0.08222008 0.08257163 0.08272356 0.08259388 0.08234055 0.0822757 0.08264635 0.08333851 0.08388034 0.08388162
</values></Ydata></ScRf><Data_Parameters_AB><parameter name="DPF">1</parameter><parameter name="NPT">3497</parameter><parameter name="FXV">3996</parameter><parameter name="LXV">500</parameter><parameter name="CSF">1</parameter><parameter name="MXY">1.00368869304657</parameter><parameter name="MNY">-0.0866148099303246</parameter><parameter name="DAT">31/05/2022</parameter><parameter name="TIM">11:22:51.825 (GMT+2)</parameter><parameter name="DXU">WN</parameter></Data_Parameters_AB><AB__Qtest><MainReport name="Quality Test Report"><Header><Line><Legend>Test result ok/not ok [1/0]: </Legend><Value>1</Value></Line><Line><Legend>Method file: </Legend><Value>C:\Users\Public\Documents\Bruker\OPUS_8.2.28\QT\IRBT_v3_default.QT</Value></Line></Header><Matrix><Line><Legend></Legend><Legend>min</Legend><Legend>max</Legend><Legend>measured</Legend></Line><Line><Value>Absorption (X-Range 1):</Value><Value>0.400000</Value><Value>2.000000</Value><Value>0.893567</Value></Line><Line><Value>Noise (X-Range 4):</Value><Value></Value><Value>0.000300</Value><Value>0.000061</Value></Line><Line><Value>Signal/Noise (X-Range 2):</Value><Value>200.000000</Value><Value></Value><Value>425.002181</Value></Line><Line><Value>Signal/Noise (X-Range 3):</Value><Value>40.000000</Value><Value></Value><Value>134.804835</Value></Line><Line><Value>Water vapour (X-Range 5):</Value><Value></Value><Value>0.000300</Value><Value>0.000114</Value></Line><Line><Value>Signal/Water (X-Range 2):</Value><Value>100.000000</Value><Value></Value><Value>228.056779</Value></Line><Line><Value>Signal/Water (X-Range 3):</Value><Value>20.000000</Value><Value></Value><Value>72.336468</Value></Line><Line><Value>Fringes (X-Range 6):</Value><Value></Value><Value>0.000100</Value><Value>0.000094</Value></Line></Matrix></MainReport></AB__Qtest><Data_Parameters_ScSm><parameter name="DPF">1</parameter><parameter name="NPT">1814</parameter><parameter name="FXV">3996.33169228125</parameter><parameter name="LXV">499.541461535156</parameter><parameter name="CSF">1</parameter><parameter name="MXY">0.263669490814209</parameter><parameter name="MNY">0.0135787334293127</parameter><parameter name="DAT">31/05/2022</parameter><parameter name="TIM">11:22:51.825 (GMT+2)</parameter><parameter name="DXU">WN</parameter></Data_Parameters_ScSm><Data_Parameters_ScRf><parameter name="DPF">1</parameter><parameter name="NPT">1820</parameter><parameter name="FXV">4004.04661832813</parameter><parameter name="LXV">495.683998511719</parameter><parameter name="CSF">1</parameter><parameter name="MXY">0.265038788318634</parameter><parameter name="MNY">0.0301530063152313</parameter><parameter name="DAT">31/05/2022</parameter><parameter name="TIM">11:22:25.973 (GMT+2)</parameter><parameter name="DXU">WN</parameter></Data_Parameters_ScRf><Optic_Parameters_Rf><parameter name="APR">0</parameter><parameter name="APT">Open</parameter><parameter name="BMS">KBr</parameter><parameter name="DTC">RT-DLaTGS_IR-Biotyper [Microplate reader]</parameter><parameter name="HPF">0</parameter><parameter name="LPF">10.0</parameter><parameter name="LPV">4000</parameter><parameter name="PGR">0</parameter><parameter name="RCH">Module port</parameter><parameter name="RDX">0</parameter><parameter name="SRC">MIR</parameter><parameter name="VEL">10.0</parameter><parameter name="SON">Off</parameter></Optic_Parameters_Rf><Acquisition_Parameters_Rf><parameter name="ADT">1</parameter><parameter name="AQM">DD</parameter><parameter name="CFE">0</parameter><parameter name="COR">0</parameter><parameter name="DEL">0</parameter><parameter name="DLY">0</parameter><parameter name="HFW">8000</parameter><parameter name="LFW">0</parameter><parameter name="NSR">32</parameter><parameter name="PLF">AB</parameter><parameter name="RES">6</parameter><parameter name="RGN">-1</parameter><parameter name="STR">0</parameter><parameter name="TCL">MakeCompatibleScalar (0, {WSV=1.000000, ARV=0});</parameter><parameter name="TDL">37</parameter><parameter name="RPO">0</parameter></Acquisition_Parameters_Rf><FT_-_Parameters_Rf><parameter name="APF">B3</parameter><parameter name="HFQ">500</parameter><parameter name="LFQ">4000</parameter><parameter name="NLI">0</parameter><parameter name="PHR">24</parameter><parameter name="PHZ">ML</parameter><parameter name="SPZ">NO</parameter><parameter name="ZFF">1</parameter></FT_-_Parameters_Rf><Optic_Parameters_><parameter name="APR">0</parameter><parameter name="APT">Open</parameter><parameter name="BMS">KBr</parameter><parameter name="CHN">Module port</parameter><parameter name="DTC">RT-DLaTGS_IR-Biotyper [Microplate reader]</parameter><parameter name="HPF">0</parameter><parameter name="LPF">10.0</parameter><parameter name="LPV">4000</parameter><parameter name="PGN">0</parameter><parameter name="RDX">0</parameter><parameter name="SRC">MIR</parameter><parameter name="VEL">10.0</parameter><parameter name="SON">Off</parameter></Optic_Parameters_><FT_-_Parameters_><parameter name="APF">B3</parameter><parameter name="HFQ">500</parameter><parameter name="LFQ">4000</parameter><parameter name="NLI">0</parameter><parameter name="PHR">24</parameter><parameter name="PHZ">ML</parameter><parameter name="SPZ">NO</parameter><parameter name="ZFF">1</parameter></FT_-_Parameters_><Acquisition_Parameters_><parameter name="ADT">1</parameter><parameter name="AQM">DD</parameter><parameter name="CFE">0</parameter><parameter name="COR">0</parameter><parameter name="DEL">0</parameter><parameter name="DLY">0</parameter><parameter name="HFW">8000</parameter><parameter name="LFW">0</parameter><parameter name="NSS">32</parameter><parameter name="PLF">AB</parameter><parameter name="RES">6</parameter><parameter name="SOT">0</parameter><parameter name="TCL">MakeCompatibleScalar (0, {WSV=1.000000, ARV=0});</parameter><parameter name="TDL">37</parameter><parameter name="SPO">0</parameter><parameter name="SGN">-1</parameter></Acquisition_Parameters_><Instrument_Parameters_Rf><parameter name="HFL">15800.168544</parameter><parameter name="LFL">0</parameter><parameter name="LWN">15800.168544</parameter><parameter name="ABP">32197</parameter><parameter name="SSP">1</parameter><parameter name="ARG">2</parameter><parameter name="ASG">2</parameter><parameter name="ASS">32</parameter><parameter name="GFW">16</parameter><parameter name="GBW">16</parameter><parameter name="BFW">0</parameter><parameter name="BBW">0</parameter><parameter name="PKA">7265</parameter><parameter name="PKL">4996</parameter><parameter name="PRA">7447</parameter><parameter name="PRL">5001</parameter><parameter name="P2A">1</parameter><parameter name="P2L">1</parameter><parameter name="P2R">1</parameter><parameter name="P2K">1</parameter><parameter name="DAQ">0</parameter><parameter name="AG2">1</parameter><parameter name="SSM">1</parameter><parameter name="RSN">25445</parameter><parameter name="CRR">0</parameter><parameter name="SRT">1653996145.974</parameter><parameter name="DUR">19.6379852294922</parameter><parameter name="TSC">28.9</parameter><parameter name="MVD">0.328728586435318</parameter><parameter name="AN1">0.225805563827605</parameter><parameter name="AN2">0</parameter><parameter name="VSN">2.485 Apr  4 2017</parameter><parameter name="SRN">0085</parameter><parameter name="CAM">0</parameter><parameter name="INS">IR-Biotyper</parameter><parameter name="FOC">69</parameter><parameter name="RDY">1</parameter><parameter name="ARS">32</parameter></Instrument_Parameters_Rf><Sample_Parameters_><parameter name="BLD"></parameter><parameter name="CNM">Admin</parameter><parameter name="CPY"></parameter><parameter name="DPM"></parameter><parameter name="EXP">IRBT_v3_32Scans.XPM</parameter><parameter name="LCT"></parameter><parameter name="SFM">Microplate, HTS-XT</parameter><parameter name="SNM">220531-1021(v.3)_GFG29M (D_14_2)_H6_2e49d3c7-824a-422d-ae4e-cbbde42201c1.0</parameter><parameter name="XPP">C:\Users\Public\Documents\Bruker\OPUS_8.2.28\XPM</parameter><parameter name="IST">OK</parameter><parameter name="CPG">1252</parameter><parameter name="UID">c0dc7513-e7b8-4b99-a2d5-3e6f76de0dfd</parameter></Sample_Parameters_><Instrument_Parameters_><parameter name="HFL">15800.168544</parameter><parameter name="LFL">0</parameter><parameter name="LWN">15800.168544</parameter><parameter name="ABP">32197</parameter><parameter name="SSP">1</parameter><parameter name="ASG">4</parameter><parameter name="ARG">2</parameter><parameter name="ASS">32</parameter><parameter name="GFW">16</parameter><parameter name="GBW">16</parameter><parameter name="BFW">0</parameter><parameter name="BBW">0</parameter><parameter name="PKA">5781</parameter><parameter name="PKL">4988</parameter><parameter name="PRA">5963</parameter><parameter name="PRL">4993</parameter><parameter name="P2A">1</parameter><parameter name="P2L">1</parameter><parameter name="P2R">1</parameter><parameter name="P2K">1</parameter><parameter name="DAQ">0</parameter><parameter name="AG2">1</parameter><parameter name="SSM">1</parameter><parameter name="RSN">13348</parameter><parameter name="CRR">0</parameter><parameter name="SRT">1653996171.826</parameter><parameter name="DUR">19.6379852294922</parameter><parameter name="TSC">28.9</parameter><parameter name="MVD">0.2254958152771</parameter><parameter name="AN1">0.225776131467333</parameter><parameter name="AN2">0</parameter><parameter name="VSN">2.485 Apr  4 2017</parameter><parameter name="SRN">0085</parameter><parameter name="CAM">0</parameter><parameter name="INS">IR-Biotyper</parameter><parameter name="FOC">69</parameter><parameter name="RDY">1</parameter></Instrument_Parameters_><History/></OPUSDataFile>
