<?xml version="1.0" encoding="UTF-8" ?>
<OPUSDataFile><AB><Ydata ylabel="Absorbance Units"><values byteorder="INTEL" format="FLOAT32" numvalues="3497"> -0.09770269 -0.09776279 -0.09781341 -0.09785464 -0.09788563 -0.09790633 -0.097913 -0.09790595 -0.09788677 -0.09785748
 -0.09783091 -0.09780805 -0.09780113 -0.0978052 -0.09781571 -0.09782573 -0.09781905 -0.09780013 -0.09776311 -0.09772786
 -0.09770755 -0.09771705 -0.09777319 -0.09786177 -0.09798621 -0.09811088 -0.0982273 -0.09831365 -0.09836257 -0.09838498
 -0.09838019 -0.09837428 -0.09836867 -0.09837645 -0.09839688 -0.0984233 -0.09845474 -0.09848125 -0.09850481 -0.09852702
 -0.09855049 -0.09858343 -0.09862392 -0.09867383 -0.09872701 -0.0987765 -0.09882015 -0.09885225 -0.09887866 -0.09890131
 -0.09892394 -0.09895027 -0.09897311 -0.09899158 -0.09899837 -0.0989905 -0.09897712 -0.09895807 -0.09895246 -0.09896139
 -0.09899171 -0.09904242 -0.09910125 -0.09916706 -0.0992258 -0.09927972 -0.09932972 -0.099378 -0.09943189 -0.09948836
 -0.09954616 -0.09960081 -0.09964526 -0.09968116 -0.09970668 -0.09972693 -0.09974582 -0.09976068 -0.09977289 -0.09977257
 -0.09975582 -0.09972499 -0.09967723 -0.0996367 -0.09960463 -0.0996113 -0.09965856 -0.09975922 -0.09991152 -0.1000956
 -0.1003049 -0.10049 -0.100647 -0.1007297 -0.100751 -0.1007146 -0.1006431 -0.1005788 -0.1005284 -0.1005204
 -0.1005397 -0.1005867 -0.1006367 -0.1006755 -0.1006909 -0.1006708 -0.1006302 -0.1005681 -0.1005122 -0.1004676
 -0.1004479 -0.100456 -0.1004838 -0.100531 -0.1005813 -0.1006343 -0.1006839 -0.1007316 -0.1007838 -0.1008415
 -0.100912 -0.1009925 -0.1010801 -0.1011691 -0.101247 -0.1013128 -0.1013587 -0.1013907 -0.1014121 -0.1014245
 -0.1014307 -0.1014275 -0.1014115 -0.1013926 -0.1013694 -0.1013689 -0.1013953 -0.1014687 -0.1015943 -0.1017513
 -0.1019395 -0.1020677 -0.1021329 -0.1020634 -0.1018757 -0.101641 -0.1013742 -0.1011726 -0.1010312 -0.1009875
 -0.1010292 -0.1011576 -0.1013484 -0.1015808 -0.1018161 -0.1020165 -0.102157 -0.1022039 -0.1021829 -0.1020894
 -0.1019788 -0.1018668 -0.1017785 -0.1017231 -0.1016887 -0.1016748 -0.1016703 -0.1016742 -0.1016938 -0.1017294
 -0.1017914 -0.1018782 -0.1019856 -0.1021095 -0.1022331 -0.1023523 -0.1024488 -0.1025193 -0.1025482 -0.1025386
 -0.1024833 -0.1024 -0.1022975 -0.1022001 -0.1021245 -0.102083 -0.1020875 -0.1021289 -0.1022102 -0.1023055
 -0.1024121 -0.1025034 -0.1025762 -0.1026149 -0.1026181 -0.1025854 -0.1025179 -0.1024329 -0.1023325 -0.1022385
 -0.1021505 -0.102078 -0.1020189 -0.1019716 -0.1019365 -0.1019133 -0.1019035 -0.1019098 -0.101929 -0.1019607
 -0.1019967 -0.1020322 -0.1020615 -0.1020807 -0.10209 -0.1020884 -0.102079 -0.1020614 -0.1020424 -0.1020222
 -0.1020104 -0.1020079 -0.102021 -0.1020497 -0.1020917 -0.1021461 -0.1022047 -0.102267 -0.1023274 -0.1023866
 -0.1024443 -0.102501 -0.1025577 -0.102614 -0.102669 -0.1027248 -0.1027805 -0.1028444 -0.1029195 -0.1030164
 -0.1031417 -0.1032932 -0.1034759 -0.1036639 -0.1038556 -0.1040151 -0.1041379 -0.1042047 -0.1042137 -0.1041524
 -0.1040209 -0.1038216 -0.1035619 -0.1032937 -0.1030261 -0.1028253 -0.1026888 -0.1026468 -0.1026826 -0.1027858
 -0.1029286 -0.1030718 -0.1032 -0.1032811 -0.1033297 -0.1033443 -0.1033435 -0.1033362 -0.1033266 -0.103319
 -0.1033054 -0.1032853 -0.1032484 -0.1031925 -0.1031221 -0.1030369 -0.1029594 -0.102891 -0.1028561 -0.1028539
 -0.1028933 -0.1029675 -0.1030569 -0.1031494 -0.1031998 -0.1032096 -0.1031536 -0.1030572 -0.1029426 -0.1028278
 -0.1027411 -0.1026751 -0.1026362 -0.1026033 -0.1025685 -0.1025209 -0.102453 -0.1023761 -0.1022904 -0.1022105
 -0.102139 -0.1020742 -0.1020162 -0.1019514 -0.1018796 -0.1017998 -0.1017149 -0.1016467 -0.1015947 -0.1015694
 -0.1015645 -0.1015664 -0.1015742 -0.1015781 -0.1015834 -0.1015944 -0.1016107 -0.1016377 -0.1016603 -0.1016725
 -0.1016567 -0.1016026 -0.1015088 -0.1013725 -0.1011979 -0.100985 -0.100737 -0.100453 -0.1001465 -0.09981795
 -0.09948807 -0.09915815 -0.09885082 -0.09856804 -0.09833586 -0.09815378 -0.09803757 -0.0979773 -0.09795646 -0.09796143
 -0.09795675 -0.09794208 -0.09790202 -0.0978421 -0.09776863 -0.09766467 -0.09752458 -0.09732501 -0.09704552 -0.09671306
 -0.09632535 -0.09593672 -0.09555775 -0.09521888 -0.09492633 -0.09468027 -0.09448152 -0.09431135 -0.09416887 -0.09403776
 -0.09391839 -0.09380841 -0.0937051 -0.09359974 -0.09348068 -0.09330912 -0.09308274 -0.09276821 -0.09239793 -0.09199902
 -0.09160184 -0.09125023 -0.09093687 -0.09067404 -0.09043407 -0.09020834 -0.08997571 -0.08972506 -0.08946241 -0.08918528
 -0.0889147 -0.08865422 -0.08840408 -0.08816535 -0.08790663 -0.08762647 -0.08729561 -0.08691751 -0.08650434 -0.08606341
 -0.08563396 -0.08521692 -0.08483622 -0.08448602 -0.08416744 -0.08387209 -0.0835906 -0.08331393 -0.08303017 -0.08273581
 -0.08242355 -0.0820993 -0.08176496 -0.0814211 -0.08107131 -0.08069882 -0.08030012 -0.07986781 -0.07939716 -0.07892255
 -0.07844556 -0.07801032 -0.07761756 -0.07727161 -0.07696866 -0.07668073 -0.07640473 -0.07611168 -0.07580333 -0.0754675
 -0.07511238 -0.07474628 -0.07437976 -0.07403195 -0.07370404 -0.07340945 -0.07312794 -0.07285529 -0.07255879 -0.07221995
 -0.07183239 -0.07138447 -0.07090854 -0.0704075 -0.06991618 -0.0694401 -0.06899112 -0.06857087 -0.06817252 -0.06779554
 -0.06742792 -0.06706886 -0.06670751 -0.06634231 -0.06596053 -0.06556121 -0.06513283 -0.0646806 -0.0642062 -0.06372222
 -0.06324591 -0.06278693 -0.06236267 -0.06196962 -0.06161228 -0.06127939 -0.06096711 -0.06066731 -0.0603767 -0.0600916
 -0.05981169 -0.05952949 -0.05924513 -0.05894179 -0.0586184 -0.05825745 -0.05785877 -0.05742463 -0.05695846 -0.05648924
 -0.05602032 -0.05558448 -0.05517739 -0.05480618 -0.05445903 -0.05411594 -0.05376917 -0.0533959 -0.05300502 -0.05259277
 -0.05218137 -0.051785 -0.05141544 -0.05108684 -0.05078096 -0.05049881 -0.05020614 -0.04989535 -0.0495498 -0.04916446
 -0.04875188 -0.04831208 -0.04787068 -0.04742886 -0.04700672 -0.04660394 -0.04622737 -0.04587498 -0.04554166 -0.045225
 -0.04491546 -0.04461163 -0.04430615 -0.04399903 -0.04368669 -0.04337141 -0.04305391 -0.04273678 -0.04242374 -0.04210976
 -0.04179499 -0.0414688 -0.04112538 -0.04077072 -0.04040173 -0.04004729 -0.03971146 -0.03940823 -0.03914044 -0.03887635
 -0.038614 -0.03830795 -0.03796046 -0.03756931 -0.03714438 -0.03673077 -0.0363343 -0.03599914 -0.03571675 -0.03549423
 -0.03531343 -0.0351523 -0.03499736 -0.03482536 -0.03463773 -0.03442653 -0.03420349 -0.03397222 -0.03374072 -0.0335132
 -0.03328883 -0.03306866 -0.0328477 -0.03262556 -0.03239732 -0.03216252 -0.03191959 -0.03166856 -0.0314125 -0.0311514
 -0.03088697 -0.03061806 -0.03033928 -0.03005097 -0.0297494 -0.02944008 -0.02913151 -0.02883029 -0.02855055 -0.02829213
 -0.02806164 -0.02785178 -0.02766025 -0.02747922 -0.02730455 -0.02713155 -0.02695769 -0.02678183 -0.02660281 -0.02642378
 -0.02624457 -0.02607228 -0.02590752 -0.02575419 -0.02561216 -0.02547321 -0.02533557 -0.02517908 -0.02500363 -0.02479561
 -0.02456151 -0.02431208 -0.02405713 -0.02382384 -0.0236125 -0.02343948 -0.02328891 -0.02315305 -0.02301271 -0.02284934
 -0.02266299 -0.02244354 -0.02221752 -0.02198915 -0.02178876 -0.02162614 -0.02150298 -0.0214237 -0.02135718 -0.0213014
 -0.0212299 -0.02114217 -0.02104998 -0.02095607 -0.02089289 -0.0208583 -0.02086153 -0.02089268 -0.02092673 -0.02095525
 -0.02094666 -0.02090335 -0.02081231 -0.02068721 -0.02053551 -0.02037266 -0.02021348 -0.0200601 -0.01992089 -0.01977922
 -0.01963169 -0.01946413 -0.01926887 -0.01906339 -0.01884607 -0.01866036 -0.01850973 -0.01842328 -0.01840174 -0.0184323
 -0.01851162 -0.01860202 -0.01870236 -0.01878651 -0.01885744 -0.01891215 -0.01895061 -0.01897306 -0.01897409 -0.01894362
 -0.01888443 -0.01878999 -0.01868195 -0.01857152 -0.01848064 -0.01842753 -0.01840396 -0.01841613 -0.01842928 -0.01843646
 -0.0184159 -0.01836086 -0.01828583 -0.01819048 -0.01810733 -0.0180379 -0.01800425 -0.01800583 -0.0180464 -0.01812285
 -0.01822384 -0.01834263 -0.0184536 -0.01854916 -0.01859869 -0.01860463 -0.01855203 -0.01846162 -0.01834514 -0.01823117
 -0.0181451 -0.01809805 -0.01810751 -0.01815285 -0.01823519 -0.01831657 -0.01838926 -0.01842567 -0.01841974 -0.01836682
 -0.01826561 -0.01812286 -0.01793896 -0.01772203 -0.01747399 -0.01721432 -0.01694951 -0.01672277 -0.01653969 -0.01644599
 -0.01643094 -0.01650111 -0.0166257 -0.01676305 -0.0168873 -0.01694901 -0.01695907 -0.01690122 -0.01682101 -0.01673441
 -0.01668254 -0.01668601 -0.0167507 -0.01688523 -0.01706453 -0.01728755 -0.01752262 -0.01776691 -0.01800065 -0.01822285
 -0.01842743 -0.0186143 -0.01878078 -0.01892593 -0.01904335 -0.01913235 -0.01918624 -0.01920761 -0.01919605 -0.01916136
 -0.01911379 -0.01907301 -0.01906065 -0.01909803 -0.0192099 -0.01939773 -0.01967571 -0.02001158 -0.02040269 -0.02079998
 -0.02119236 -0.02154594 -0.0218529 -0.02210709 -0.02230621 -0.02246804 -0.0225937 -0.02271935 -0.02284689 -0.02301181
 -0.02321032 -0.02344395 -0.0237018 -0.02394738 -0.02417721 -0.02436005 -0.02451246 -0.0246434 -0.02477548 -0.02493999
 -0.0251383 -0.02538799 -0.0256614 -0.02595307 -0.02622644 -0.02646678 -0.02665647 -0.0267843 -0.0268701 -0.02691149
 -0.02695858 -0.02701517 -0.02712464 -0.02728903 -0.0275103 -0.02778533 -0.02808015 -0.02839164 -0.02868495 -0.02896126
 -0.02920567 -0.02942174 -0.02960935 -0.02977328 -0.02991932 -0.03005511 -0.03019007 -0.03033174 -0.03048967 -0.03066384
 -0.03085881 -0.03106443 -0.03127931 -0.03149034 -0.03169362 -0.03188466 -0.03206115 -0.032231 -0.03239436 -0.03256354
 -0.03273915 -0.03292622 -0.03312432 -0.03332978 -0.03354182 -0.03375434 -0.0339672 -0.03417682 -0.03438345 -0.03458587
 -0.03478448 -0.0349791 -0.0351707 -0.03535992 -0.03554862 -0.03573791 -0.03593053 -0.03612832 -0.03633223 -0.03654373
 -0.03675961 -0.03698006 -0.03719852 -0.0374141 -0.03762163 -0.03782026 -0.03801116 -0.03819441 -0.03837967 -0.03856778
 -0.03877223 -0.03899248 -0.03923389 -0.0394928 -0.03976014 -0.04003207 -0.04029439 -0.04054799 -0.04078745 -0.04101655
 -0.04123829 -0.04145284 -0.04166304 -0.04186244 -0.04204961 -0.04221508 -0.04235424 -0.04246531 -0.04254341 -0.04260974
 -0.0426637 -0.04274811 -0.04286688 -0.04305039 -0.04330023 -0.04360026 -0.04394653 -0.04428634 -0.04461675 -0.04489196
 -0.04511705 -0.04528206 -0.04540041 -0.04549532 -0.04558321 -0.04570169 -0.04585641 -0.04607441 -0.04633495 -0.04663641
 -0.04694196 -0.04722945 -0.04748484 -0.0476923 -0.04787577 -0.04803794 -0.04820065 -0.04837159 -0.04853121 -0.04867983
 -0.04877707 -0.04882082 -0.0488042 -0.04873105 -0.04864688 -0.04855848 -0.04853018 -0.04856134 -0.04868822 -0.04889627
 -0.04917337 -0.04949746 -0.04982657 -0.05015003 -0.05043544 -0.05069407 -0.05092314 -0.05113832 -0.0513514 -0.05155635
 -0.05175603 -0.05193214 -0.0520775 -0.05219815 -0.05229084 -0.0523889 -0.0524956 -0.05262978 -0.05279265 -0.0529623
 -0.05313667 -0.05328155 -0.05339852 -0.05347862 -0.05352721 -0.05355913 -0.05357683 -0.05359405 -0.0536091 -0.05362422
 -0.0536403 -0.05365615 -0.05368215 -0.05372247 -0.05379662 -0.05391541 -0.05409395 -0.05434466 -0.05465464 -0.05502952
 -0.05541986 -0.05582127 -0.05617651 -0.05647818 -0.05670895 -0.05686741 -0.05699167 -0.05708527 -0.05720615 -0.05735364
 -0.05755587 -0.05780362 -0.0580802 -0.05837461 -0.05865115 -0.05890737 -0.05912079 -0.05930034 -0.05944561 -0.05957121
 -0.05968782 -0.05980766 -0.05994145 -0.06009051 -0.06026041 -0.06043747 -0.06062095 -0.06079054 -0.06094146 -0.06107067
 -0.06117557 -0.06128262 -0.06139319 -0.06153782 -0.06171589 -0.06192534 -0.0621616 -0.06239368 -0.06262181 -0.06282742
 -0.06302014 -0.06321449 -0.06341711 -0.06364977 -0.06390311 -0.06417762 -0.06445528 -0.06472135 -0.06496546 -0.06517691
 -0.06535543 -0.0654988 -0.06560753 -0.06568116 -0.06572098 -0.06572572 -0.06570704 -0.06566475 -0.06562393 -0.06558593
 -0.06558 -0.06560702 -0.06568608 -0.06581508 -0.06599257 -0.06621279 -0.06645546 -0.06671294 -0.06695733 -0.06718242
 -0.06736492 -0.06750339 -0.06758557 -0.0676175 -0.06759821 -0.0675397 -0.06744751 -0.06733283 -0.06720068 -0.06705933
 -0.06691065 -0.06676568 -0.06662617 -0.0665025 -0.06639712 -0.06630082 -0.06621344 -0.06609926 -0.06595644 -0.0657493
 -0.06548093 -0.06515094 -0.0647685 -0.06436755 -0.06395465 -0.0635647 -0.06319518 -0.06285842 -0.06254737 -0.0622579
 -0.06198624 -0.06172792 -0.06148123 -0.06124549 -0.06101455 -0.06078669 -0.06055421 -0.06031315 -0.06006756 -0.05981494
 -0.05957906 -0.05936115 -0.05919136 -0.05907167 -0.05901286 -0.05901361 -0.05905489 -0.05913347 -0.05921836 -0.05930958
 -0.05939064 -0.05946368 -0.05952772 -0.0595798 -0.05961575 -0.05962905 -0.0596077 -0.05955543 -0.05946723 -0.05936127
 -0.05924609 -0.05913606 -0.05904166 -0.05895728 -0.0588853 -0.05880874 -0.05872463 -0.05862414 -0.05850524 -0.05837276
 -0.05822667 -0.05808481 -0.05794906 -0.0578514 -0.05779464 -0.05781507 -0.05791079 -0.05809752 -0.05836361 -0.05869061
 -0.05906145 -0.0594377 -0.05980985 -0.06014703 -0.06045927 -0.06073881 -0.06101602 -0.06130295 -0.06163317 -0.06202495
 -0.0624879 -0.06303355 -0.06363358 -0.0642885 -0.06494845 -0.06560843 -0.06623053 -0.06681181 -0.06734636 -0.06783497
 -0.06829222 -0.06871822 -0.06912133 -0.06949914 -0.06984534 -0.07016072 -0.07044157 -0.0706958 -0.0709354 -0.07116718
 -0.07140712 -0.0716497 -0.07189781 -0.07213812 -0.07236306 -0.07256591 -0.07274115 -0.07289102 -0.07301525 -0.07311565
 -0.07319268 -0.07324594 -0.07327529 -0.07328222 -0.07326678 -0.07323104 -0.07317543 -0.07310604 -0.07302605 -0.0729588
 -0.07291035 -0.07291867 -0.07298425 -0.07313161 -0.07334857 -0.07362738 -0.07394996 -0.07429082 -0.0746383 -0.07497333
 -0.07529292 -0.07559022 -0.07586545 -0.07611667 -0.07634716 -0.07655635 -0.07675277 -0.07693727 -0.07712022 -0.07730293
 -0.07749102 -0.07768492 -0.07788932 -0.0781051 -0.0783483 -0.07862116 -0.07894938 -0.0793308 -0.07977495 -0.0802686
 -0.08078443 -0.08130575 -0.08178688 -0.08222725 -0.0826022 -0.08293337 -0.08322908 -0.08351388 -0.0838071 -0.0841144
 -0.08444553 -0.08478746 -0.08513975 -0.08548473 -0.08581929 -0.08613078 -0.08641709 -0.08667468 -0.08690296 -0.08711002
 -0.08729663 -0.08747775 -0.08765395 -0.08783691 -0.08802547 -0.08822197 -0.08842303 -0.08862194 -0.08881387 -0.08898668
 -0.0891382 -0.08925831 -0.08935434 -0.08942602 -0.0894906 -0.08955766 -0.0896415 -0.08975314 -0.08988772 -0.09004916
 -0.09021471 -0.09038114 -0.09052955 -0.09065612 -0.09076431 -0.0908538 -0.09094194 -0.09102904 -0.09112056 -0.09121474
 -0.09130001 -0.09137678 -0.09143856 -0.0914916 -0.09154955 -0.09161738 -0.09171338 -0.09183177 -0.09197477 -0.09212945
 -0.09228488 -0.09243304 -0.09256525 -0.09268066 -0.09277687 -0.09285497 -0.09291352 -0.09296014 -0.09299417 -0.09303462
 -0.09308352 -0.09315585 -0.09325327 -0.09336625 -0.09349365 -0.09361024 -0.09371613 -0.09379936 -0.09386342 -0.0939172
 -0.09396265 -0.09401067 -0.09405881 -0.09410729 -0.09415427 -0.09419633 -0.09423579 -0.09427357 -0.09431146 -0.09435191
 -0.09439185 -0.09443076 -0.09446514 -0.09449271 -0.09451749 -0.09453886 -0.09456749 -0.09460461 -0.09465741 -0.09472676
 -0.09480749 -0.09489899 -0.09498816 -0.09507469 -0.09514977 -0.09521504 -0.0952727 -0.09532486 -0.09537906 -0.09543489
 -0.0954962 -0.09555887 -0.09561943 -0.09567347 -0.09571457 -0.09574424 -0.09575963 -0.09577009 -0.09577784 -0.09579437
 -0.09582393 -0.0958711 -0.09593847 -0.09602086 -0.09611861 -0.09622049 -0.09632586 -0.09642389 -0.09651424 -0.09659246
 -0.09665924 -0.09671771 -0.09676918 -0.09682104 -0.09687397 -0.09693416 -0.09700033 -0.09707378 -0.09715087 -0.09722778
 -0.09730043 -0.09736279 -0.09741553 -0.09745583 -0.09749055 -0.09752167 -0.09755556 -0.09759548 -0.09763993 -0.09768965
 -0.09773909 -0.09778739 -0.09783354 -0.09787723 -0.09792401 -0.09797405 -0.0980308 -0.09809332 -0.09815589 -0.09821693
 -0.09826557 -0.09830266 -0.09832367 -0.09833337 -0.0983384 -0.09834367 -0.09835935 -0.09838568 -0.09842721 -0.0984803
 -0.09854403 -0.09861498 -0.09869153 -0.09877117 -0.09885303 -0.0989347 -0.09901557 -0.09909438 -0.09917096 -0.09924402
 -0.09931358 -0.09937488 -0.09942766 -0.09946724 -0.09949432 -0.09951247 -0.09952349 -0.09953807 -0.09955639 -0.09958542
 -0.09962235 -0.09966514 -0.09971081 -0.0997538 -0.09979424 -0.09982961 -0.09986282 -0.09989494 -0.09992863 -0.09996576
 -0.100006 -0.1000501 -0.1000952 -0.100141 -0.1001842 -0.1002245 -0.1002597 -0.1002897 -0.1003154 -0.1003368
 -0.100359 -0.1003822 -0.1004126 -0.1004496 -0.1004942 -0.1005443 -0.1005949 -0.1006448 -0.1006888 -0.1007289
 -0.1007652 -0.1008008 -0.1008392 -0.1008803 -0.100926 -0.1009725 -0.101019 -0.1010622 -0.1011005 -0.1011352
 -0.1011659 -0.1011973 -0.10123 -0.1012665 -0.1013071 -0.1013477 -0.101388 -0.101419 -0.1014408 -0.1014479
 -0.1014422 -0.1014289 -0.1014114 -0.1014028 -0.1014042 -0.1014255 -0.1014617 -0.1015113 -0.1015662 -0.1016169
 -0.1016608 -0.1016912 -0.1017147 -0.1017319 -0.1017514 -0.1017768 -0.1018092 -0.1018506 -0.1018931 -0.1019364
 -0.1019712 -0.1019965 -0.1020103 -0.1020126 -0.1020113 -0.1020076 -0.1020137 -0.1020293 -0.1020603 -0.1021038
 -0.1021539 -0.102207 -0.1022523 -0.1022896 -0.1023127 -0.1023262 -0.1023321 -0.1023357 -0.1023419 -0.1023517
 -0.1023676 -0.1023862 -0.1024069 -0.1024276 -0.1024473 -0.102467 -0.1024868 -0.1025068 -0.1025269 -0.1025438
 -0.1025572 -0.1025643 -0.1025652 -0.1025616 -0.102554 -0.1025469 -0.1025403 -0.1025371 -0.1025371 -0.1025408
 -0.102548 -0.1025587 -0.1025719 -0.1025871 -0.1026023 -0.1026163 -0.1026265 -0.1026314 -0.102631 -0.1026243
 -0.1026148 -0.1026026 -0.1025923 -0.1025847 -0.1025822 -0.1025851 -0.1025924 -0.1026042 -0.102618 -0.1026339
 -0.1026502 -0.1026669 -0.1026837 -0.102701 -0.1027192 -0.1027389 -0.1027611 -0.1027866 -0.1028168 -0.1028515
 -0.102892 -0.1029355 -0.1029811 -0.103024 -0.1030613 -0.1030905 -0.103109 -0.1031206 -0.1031252 -0.1031306
 -0.1031381 -0.1031519 -0.1031729 -0.1031971 -0.1032244 -0.1032464 -0.1032632 -0.1032705 -0.1032699 -0.1032659
 -0.1032604 -0.103262 -0.10327 -0.1032876 -0.1033109 -0.1033355 -0.1033582 -0.1033732 -0.103383 -0.1033861
 -0.1033889 -0.1033942 -0.1034056 -0.1034259 -0.1034512 -0.1034821 -0.1035098 -0.1035333 -0.1035467 -0.103549
 -0.1035413 -0.1035238 -0.1035013 -0.1034743 -0.1034468 -0.1034192 -0.1033946 -0.1033733 -0.1033579 -0.1033478
 -0.1033436 -0.1033439 -0.1033462 -0.10335 -0.1033531 -0.1033569 -0.1033618 -0.1033694 -0.1033811 -0.1033961
 -0.1034149 -0.1034331 -0.1034499 -0.1034611 -0.1034655 -0.1034643 -0.1034573 -0.1034518 -0.1034482 -0.103452
 -0.1034628 -0.1034776 -0.1034953 -0.1035087 -0.1035183 -0.1035214 -0.10352 -0.1035171 -0.1035135 -0.1035122
 -0.1035123 -0.1035137 -0.1035152 -0.1035159 -0.1035155 -0.1035134 -0.1035099 -0.1035047 -0.1034978 -0.1034892
 -0.1034788 -0.1034663 -0.1034528 -0.1034384 -0.1034254 -0.1034142 -0.1034062 -0.1034012 -0.103397 -0.1033929
 -0.1033843 -0.1033714 -0.1033515 -0.1033269 -0.1033005 -0.1032752 -0.1032572 -0.1032467 -0.103248 -0.1032554
 -0.1032676 -0.1032757 -0.1032744 -0.1032605 -0.1032301 -0.1031895 -0.1031388 -0.1030884 -0.1030398 -0.1029998
 -0.1029691 -0.1029481 -0.1029368 -0.1029322 -0.1029339 -0.1029384 -0.1029458 -0.1029541 -0.1029644 -0.1029778
 -0.1029969 -0.1030268 -0.1030718 -0.10314 -0.1032353 -0.1033658 -0.1035312 -0.1037356 -0.1039714 -0.1042371
 -0.1045224 -0.1048231 -0.1051344 -0.1054531 -0.1057852 -0.1061302 -0.1064992 -0.1068932 -0.107319 -0.1077766
 -0.1082529 -0.1087443 -0.1092084 -0.1096366 -0.1099619 -0.1101756 -0.1102097 -0.1100681 -0.1097128 -0.1091853
 -0.1085198 -0.1077865 -0.1070749 -0.106425 -0.1058982 -0.105494 -0.1052283 -0.1050892 -0.1050787 -0.1051738
 -0.1053779 -0.1056258 -0.1059139 -0.1061461 -0.1063113 -0.1063811 -0.1063541 -0.1062835 -0.1061717 -0.1060623
 -0.1059531 -0.1058539 -0.1057621 -0.1056753 -0.1055894 -0.1054952 -0.1053871 -0.1052509 -0.1050881 -0.1048916
 -0.1046749 -0.104444 -0.1042148 -0.1039989 -0.1037991 -0.1036212 -0.1034536 -0.1032944 -0.1031355 -0.102974
 -0.1028174 -0.1026657 -0.102531 -0.1024138 -0.1023118 -0.1022236 -0.1021318 -0.1020358 -0.1019213 -0.1017918
 -0.1016501 -0.101502 -0.1013624 -0.1012336 -0.1011276 -0.1010397 -0.1009702 -0.1009104 -0.100853 -0.1007941
 -0.1007285 -0.1006607 -0.1005907 -0.100524 -0.1004624 -0.1004055 -0.1003537 -0.1003042 -0.1002567 -0.100211
 -0.1001672 -0.1001258 -0.1000865 -0.1000472 -0.1000075 -0.09996478 -0.09991981 -0.0998737 -0.09982777 -0.09978607
 -0.09974824 -0.09971628 -0.09968702 -0.0996579 -0.09962586 -0.0995867 -0.09954236 -0.09949173 -0.09944098 -0.09939233
 -0.09934901 -0.0993133 -0.09928007 -0.09924949 -0.09921221 -0.09916728 -0.09910971 -0.0990392 -0.09896133 -0.09887708
 -0.09880017 -0.09873128 -0.09868244 -0.09865129 -0.09863706 -0.09863459 -0.09863129 -0.09862413 -0.09860121 -0.09856571
 -0.09851572 -0.09845757 -0.09839598 -0.09833399 -0.0982751 -0.09821799 -0.09816261 -0.09810892 -0.09805625 -0.09800848
 -0.09796626 -0.0979313 -0.09790421 -0.09787983 -0.09785792 -0.09783147 -0.0978005 -0.09776353 -0.09772118 -0.09767648
 -0.09762959 -0.09758267 -0.09753554 -0.09748864 -0.09744222 -0.09739693 -0.09735277 -0.09731017 -0.09726861 -0.09722768
 -0.09718744 -0.09714778 -0.09710898 -0.09707156 -0.09703374 -0.09699532 -0.09695409 -0.09690943 -0.09686172 -0.09681085
 -0.09675889 -0.09670594 -0.09665285 -0.09659972 -0.09654806 -0.09649844 -0.09645506 -0.0964183 -0.09639228 -0.09637556
 -0.09636743 -0.09636477 -0.09636246 -0.09635741 -0.09634392 -0.09632096 -0.09628524 -0.09623891 -0.09618139 -0.09611799
 -0.09605002 -0.09598365 -0.09592083 -0.09586434 -0.09581544 -0.09577136 -0.09573218 -0.09569258 -0.09565226 -0.09560947
 -0.09556442 -0.09551989 -0.09547602 -0.09543515 -0.09539679 -0.09536026 -0.09532537 -0.09529124 -0.09525837 -0.09522747
 -0.0951982 -0.09517065 -0.09514378 -0.0951167 -0.09508899 -0.09506034 -0.09502996 -0.09499799 -0.09496155 -0.09491988
 -0.09487116 -0.09481426 -0.09475368 -0.09468941 -0.09463006 -0.09457614 -0.09453182 -0.09449665 -0.09446506 -0.09443604
 -0.09439968 -0.09435677 -0.09430407 -0.09424517 -0.09418707 -0.09413285 -0.09409206 -0.09406289 -0.09404847 -0.09404167
 -0.09403843 -0.09403118 -0.09401416 -0.09398479 -0.09393966 -0.0938833 -0.09381538 -0.09374455 -0.0936722 -0.09360409
 -0.09354118 -0.0934836 -0.09343144 -0.0933835 -0.09333988 -0.09330239 -0.09327082 -0.09324526 -0.09322407 -0.09320113
 -0.09317492 -0.09313761 -0.09309112 -0.09303425 -0.09297163 -0.09290856 -0.09284751 -0.0927933 -0.09274337 -0.09269792
 -0.09265329 -0.09260734 -0.09256123 -0.09251433 -0.09247112 -0.09243268 -0.09239928 -0.09237149 -0.09234315 -0.09231394
 -0.09227894 -0.09223832 -0.092194 -0.09214651 -0.09210053 -0.09205595 -0.09201485 -0.09197669 -0.09194129 -0.09190804
 -0.09187607 -0.09184419 -0.09181079 -0.09177469 -0.09173413 -0.09168938 -0.09163969 -0.09158725 -0.09153239 -0.09147814
 -0.09142518 -0.09137648 -0.09133293 -0.09129409 -0.09126043 -0.09122577 -0.09118978 -0.09114557 -0.09109327 -0.09103451
 -0.09097066 -0.09091204 -0.09085911 -0.09082017 -0.09079251 -0.09077404 -0.09076066 -0.09074386 -0.09072191 -0.09068866
 -0.09064573 -0.09059191 -0.09053075 -0.0904634 -0.09039451 -0.09032559 -0.09026208 -0.09020583 -0.09015942 -0.09012426
 -0.0900968 -0.09007721 -0.09005789 -0.09003837 -0.090013 -0.08998176 -0.08994403 -0.0899002 -0.08985233 -0.08980069
 -0.08974742 -0.08969278 -0.0896384 -0.08958479 -0.08953355 -0.08948495 -0.08944029 -0.08939856 -0.08935963 -0.08932161
 -0.08928331 -0.08924375 -0.08920211 -0.08915873 -0.08911382 -0.08906634 -0.08901633 -0.08896157 -0.08890162 -0.08883771
 -0.0887698 -0.08870446 -0.08864198 -0.0885883 -0.08854284 -0.088505 -0.08847318 -0.0884408 -0.08840661 -0.08836345
 -0.08831237 -0.08825123 -0.08818346 -0.08811233 -0.08804069 -0.08797246 -0.0879078 -0.08784775 -0.08779235 -0.08774155
 -0.08769661 -0.08765848 -0.08762484 -0.08759624 -0.08756464 -0.08752912 -0.08748496 -0.08743162 -0.08737411 -0.08731283
 -0.08725549 -0.08720174 -0.0871529 -0.08710763 -0.08706152 -0.08701314 -0.08695643 -0.086891 -0.08681233 -0.08672335
 -0.08662425 -0.08652258 -0.08642447 -0.08633674 -0.08626683 -0.08621197 -0.08617481 -0.0861431 -0.08611426 -0.08607799
 -0.08603099 -0.08597471 -0.08590844 -0.08584049 -0.0857714 -0.08570472 -0.08564026 -0.08557399 -0.08550566 -0.08543105
 -0.08535122 -0.08526789 -0.08518282 -0.08510158 -0.085025 -0.08495766 -0.0848982 -0.08484754 -0.0848017 -0.08475814
 -0.08471196 -0.08465892 -0.08459828 -0.08452766 -0.08445209 -0.08437231 -0.08429329 -0.08421637 -0.08414219 -0.08407109
 -0.08400144 -0.08393314 -0.08386592 -0.08379984 -0.08373637 -0.08367561 -0.08361921 -0.08356677 -0.08351776 -0.0834709
 -0.08342237 -0.08337154 -0.0833151 -0.08325388 -0.08318778 -0.08311719 -0.08304277 -0.08296365 -0.08287878 -0.08279017
 -0.08269745 -0.08260634 -0.08251855 -0.08243698 -0.08236316 -0.08229329 -0.08222741 -0.08215901 -0.08208763 -0.08200915
 -0.08192354 -0.08183058 -0.08173078 -0.08162775 -0.08152233 -0.08142003 -0.08132116 -0.08122972 -0.08114485 -0.08106715
 -0.08099478 -0.08092604 -0.08085822 -0.08078844 -0.08071458 -0.08063382 -0.08054762 -0.0804553 -0.08036121 -0.08026657
 -0.0801738 -0.08008388 -0.07999577 -0.07990957 -0.07982314 -0.07973636 -0.07964732 -0.07955602 -0.07946233 -0.07936697
 -0.07927492 -0.07918753 -0.07911403 -0.07905343 -0.07900976 -0.07897656 -0.07894452 -0.07890578 -0.07884396 -0.07876134
 -0.07865152 -0.0785274 -0.07839484 -0.07826473 -0.07814461 -0.07803411 -0.07793588 -0.07784125 -0.07774901 -0.07765245
 -0.07755017 -0.07744276 -0.07733002 -0.07721703 -0.07710406 -0.07699668 -0.07689487 -0.0768014 -0.07671514 -0.07663279
 -0.07655274 -0.07646811 -0.0763796 -0.07628492 -0.07618626 -0.07608636 -0.07598455 -0.07588132 -0.07577545 -0.0756654
 -0.07555359 -0.07544048 -0.07532908 -0.07522137 -0.07511398 -0.07500727 -0.07489336 -0.07477104 -0.07463758 -0.07449243
 -0.07434189 -0.07418636 -0.07403495 -0.07388759 -0.07374816 -0.07361533 -0.07348493 -0.07335639 -0.0732247 -0.07309278
 -0.07296371 -0.07284056 -0.07273108 -0.07263014 -0.07253776 -0.07244266 -0.07233647 -0.07221586 -0.07207479 -0.07192345
 -0.07176299 -0.07160518 -0.07145326 -0.07130966 -0.07117569 -0.07104539 -0.07091847 -0.07078966 -0.07065882 -0.07052574
 -0.07039028 -0.07025161 -0.07010863 -0.06995535 -0.06979202 -0.0696152 -0.06942831 -0.06923652 -0.06904235 -0.0688522
 -0.06866486 -0.06848162 -0.06830045 -0.06812003 -0.06794036 -0.06776074 -0.06758293 -0.06740699 -0.06723589 -0.06707042
 -0.06691161 -0.06676066 -0.06660827 -0.06645416 -0.06628092 -0.0660881 -0.06587335 -0.06563836 -0.06539751 -0.06515107
 -0.06490823 -0.06466717 -0.06442676 -0.06418671 -0.06394553 -0.06370428 -0.06346411 -0.06322496 -0.06298753 -0.06275062
 -0.06251431 -0.06227537 -0.0620336 -0.06178161 -0.06151692 -0.06123536 -0.06093419 -0.06062133 -0.06029729 -0.05997003
 -0.05964048 -0.05930578 -0.05896583 -0.05861849 -0.05826458 -0.05791121 -0.05755804 -0.05720903 -0.05685962 -0.0564989
 -0.056122 -0.05571141 -0.0552717 -0.0547993 -0.05430705 -0.05380703 -0.05330532 -0.05281079 -0.05232108 -0.05183696
 -0.05135671 -0.05087955 -0.05040665 -0.04993965 -0.04947018 -0.04899982 -0.0484971 -0.04795982 -0.04736007 -0.04669797
 -0.04600518 -0.04528536 -0.04458816 -0.04390823 -0.04324637 -0.04259457 -0.04192843 -0.04124609 -0.04053276 -0.03978807
 -0.03900889 -0.03818515 -0.03731015 -0.0363632 -0.03532598 -0.03419406 -0.03294892 -0.0316408 -0.03027446 -0.02892379
 -0.02760793 -0.02635462 -0.02517255 -0.0240484 -0.02298256 -0.02194768 -0.02094159 -0.01991272 -0.01885557 -0.01769014
 -0.01642558 -0.015049 -0.01360295 -0.01221998 -0.01090833 -0.009763454 -0.008736595 -0.007796999 -0.006906447 -0.006010942
 -0.0051053 -0.004168514 -0.00320951 -0.002227494 -0.001230503 -0.0002167786 0.000787592 0.001779116 0.002727839 0.003626379
 0.004485009 0.005303461 0.006105221 0.00689051 0.007639149 0.008348483 0.008981544 0.00954345 0.01003849 0.0104767
 0.01089494 0.01129037 0.01167962 0.01204384 0.01235719 0.01262191 0.01282547 0.01299037 0.01313148 0.01325415
 0.01336879 0.01345891 0.01352268 0.01354071 0.01350885 0.01341303 0.0132507 0.01301348 0.01269929 0.0123275
 0.01189975 0.0114683 0.01103389 0.01062516 0.01023723 0.009859306 0.009489929 0.009116444 0.008746007 0.008386154
 0.008047063 0.007749539 0.00749173 0.007281743 0.007108086 0.006962256 0.006846124 0.006755123 0.006705973 0.006705341
 0.006754595 0.006858194 0.006995445 0.007163615 0.007351671 0.007557851 0.007789188 0.008045966 0.008334357 0.0086534
 0.008995943 0.009360082 0.009732149 0.01011189 0.01049068 0.01087088 0.01125342 0.0116404 0.01203644 0.01243942
 0.01284914 0.01326272 0.01367653 0.01409416 0.01451554 0.01494729 0.01539235 0.01585126 0.01632575 0.01680871
 0.01730031 0.01778664 0.01826675 0.01872587 0.01916344 0.01958124 0.0199812 0.02038614 0.02079496 0.0212172
 0.02164302 0.02204446 0.02241678 0.02273419 0.02300177 0.02321829 0.02338295 0.02349525 0.02355185 0.02354947
 0.02348879 0.02337494 0.02318653 0.02292685 0.02253391 0.02198971 0.0212779 0.02037872 0.01942928 0.01844045
 0.01749956 0.01660957 0.01570682 0.01478796 0.01379441 0.01273196 0.01160169 0.01040932 0.009179812 0.007901056
 0.006565563 0.00514373 0.003571146 0.001876043 2.634098E-05 -0.001828508 -0.003577437 -0.005162912 -0.006495768 -0.007690582
 -0.008768889 -0.009815802 -0.01086366 -0.01190335 -0.01294017 -0.01393644 -0.01488783 -0.01579555 -0.01665986 -0.0175121
 -0.01835308 -0.01920331 -0.0200596 -0.02091666 -0.0217694 -0.022598 -0.02340084 -0.02416288 -0.02488955 -0.02558116
 -0.02624716 -0.02689605 -0.02753957 -0.02818488 -0.02885294 -0.02955635 -0.03030758 -0.03112891 -0.03195245 -0.0327754
 -0.0334894 -0.0340681 -0.0345303 -0.0348718 -0.03517885 -0.03545554 -0.0357454 -0.0360464 -0.03634895 -0.03665001
 -0.03692678 -0.03718233 -0.03741694 -0.03763041 -0.03782709 -0.03799373 -0.03811221 -0.03817126 -0.03814679 -0.0380498
 -0.03787843 -0.03765187 -0.03738052 -0.03707251 -0.0367337 -0.03636346 -0.03596437 -0.03552515 -0.03504712 -0.03449828
 -0.0338756 -0.03315692 -0.03234161 -0.03148968 -0.0306078 -0.02979711 -0.0290535 -0.02840733 -0.02784652 -0.02734465
 -0.02689784 -0.02648418 -0.02610539 -0.02575837 -0.02543509 -0.02513036 -0.02482346 -0.02449462 -0.0241398 -0.02374335
 -0.0233401 -0.02293977 -0.02256439 -0.02222545 -0.02190699 -0.02160904 -0.02131006 -0.02100749 -0.02069632 -0.02037628
 -0.02005749 -0.01974021 -0.01943162 -0.01912917 -0.0188239 -0.01850972 -0.01816155 -0.01777458 -0.0173223 -0.0168114
 -0.01623875 -0.0156174 -0.01496355 -0.01427661 -0.01356267 -0.01281413 -0.01202486 -0.01120389 -0.01034961 -0.009485791
 -0.008618633 -0.007759365 -0.006912446 -0.006066578 -0.005220659 -0.004370776 -0.003516824 -0.002697958 -0.00191788 -0.00123481
 -0.000648348 -0.0001855059 0.0001564446 0.0003748073 0.0004666246 0.0004243539 0.0002431379 -9.081348E-05 -0.0005725464 -0.001206073
 -0.001972815 -0.002862404 -0.003852959 -0.004930182 -0.006082082 -0.007302144 -0.008582043 -0.009923914 -0.01129353 -0.01269072
 -0.0140508 -0.01536733 -0.01660009 -0.01774663 -0.01882242 -0.01982934 -0.02079766 -0.021725 -0.0226133 -0.02345705
 -0.02423552 -0.02495079 -0.02559435 -0.026178 -0.02671628 -0.02722045 -0.02770987 -0.02818726 -0.02866259 -0.02912957
 -0.02958848 -0.03002961 -0.03044954 -0.03084152 -0.03120249 -0.0315334 -0.03183324 -0.03210974 -0.03236362 -0.03260031
 -0.03282015 -0.03301658 -0.0331889 -0.03332514 -0.03342603 -0.03348959 -0.03351777 -0.03351704 -0.03348745 -0.03343168
 -0.03335071 -0.03324521 -0.0331219 -0.03298723 -0.03285057 -0.03272127 -0.032605 -0.03250746 -0.03243003 -0.0323745
 -0.03234045 -0.03232796 -0.03233711 -0.03236766 -0.03242204 -0.03250061 -0.03260373 -0.03273148 -0.03287479 -0.03303275
 -0.0331906 -0.03334806 -0.03349597 -0.03363477 -0.03376176 -0.03387625 -0.03397549 -0.03405828 -0.03412105 -0.0341641
 -0.03418607 -0.03418867 -0.03417269 -0.03413974 -0.03409053 -0.03402734 -0.03395042 -0.03386448 -0.03376998 -0.03367434
 -0.03357833 -0.03349073 -0.0334124 -0.03335046 -0.03330537 -0.03327989 -0.03327392 -0.03328654 -0.0333172 -0.03336243
 -0.03342128 -0.03348842 -0.03356341 -0.03364232 -0.03372584 -0.03381392 -0.0339058 -0.03400186 -0.03409754 -0.03418962
 -0.03427379 -0.03434601 -0.03440709 -0.0344562 -0.03449585 -0.034527 -0.03454872 -0.03456111 -0.03456241 -0.03455232
 -0.0345318 -0.03450088 -0.0344606 -0.03441099 -0.03435249 -0.0342859 -0.03421627 -0.0341451 -0.03408143 -0.03402412
 -0.03397642 -0.03393278 -0.0338857 -0.03382978 -0.03375441 -0.03366076 -0.03354476 -0.03341378 -0.03327064 -0.03312155
 -0.03297033 -0.03281665 -0.03266131 -0.03250195 -0.03233772 -0.0321712 -0.03200212 -0.03183859 -0.03168105 -0.03153656
 -0.03140515 -0.03128815 -0.03118502 -0.0310929 -0.03101134 -0.03093749 -0.03087045 -0.03080705 -0.03074533 -0.03068009
 -0.03061119 -0.03053488 -0.0304565 -0.03037849 -0.03030739 -0.0302489 -0.03020176 -0.03016801 -0.03013992 -0.03011532
 -0.03009148 -0.03006686 -0.03004629 -0.03003019 -0.03002143 -0.03002025 -0.03002336 -0.03003057 -0.0300378 -0.03004551
 -0.03005456 -0.03006583 -0.03008349 -0.03010746 -0.03014043 -0.03018011 -0.03022459 -0.03026964 -0.0303094 -0.03034111
 -0.03035975 -0.0303668 -0.03036101 -0.03034682 -0.03032545 -0.03030117 -0.03027555 -0.0302499 -0.03022501 -0.0301987
 -0.03017089 -0.03013888 -0.0301025 -0.03006149 -0.03001577 -0.02996427 -0.02990641 -0.0298373 -0.02975727 -0.029664
 -0.02956031 -0.02945197 -0.02934157 -0.02923717 -0.02913735 -0.02904423 -0.02895385 -0.02886399 -0.02877028 -0.0286706
 -0.0285585 -0.02843179 -0.02828289 -0.02810908 -0.02790738 -0.02767622 -0.02741912 -0.02713598 -0.02683343 -0.02651187
 -0.02617607 -0.02582606 -0.02546254 -0.02508535 -0.02469325 -0.024287 -0.02386859 -0.02343976 -0.02300597 -0.02256829
 -0.02213093 -0.02169461 -0.02126137 -0.02083295 -0.02041181 -0.01999803 -0.01959322 -0.01919359 -0.01879759 -0.01840414
 -0.01801162 -0.01762549 -0.0172463 -0.0168794 -0.01652565 -0.01618606 -0.01586078 -0.01554867 -0.01524927 -0.01495526
 -0.01466459 -0.01435938 -0.01403823 -0.01368456 -0.01330161 -0.01288842 -0.01245081 -0.01199883 -0.01153621 -0.01107161
 -0.01060665 -0.01014548 -0.009688903 -0.009238472 -0.00879438 -0.00835658 -0.007927022 -0.007505921 -0.00709638 -0.006699435
 -0.006313851 -0.005939926 -0.005572482 -0.005211202 -0.004852612 -0.004496531 -0.004139799 -0.003782289 -0.00342049 -0.00305617
 -0.002694011 -0.002337084 -0.001997248 -0.001672943 -0.001367672 -0.001076751 -0.0007941046 -0.0005210761 -0.0002561042 -3.187031E-06
 0.0002332748 0.0004596083 0.0006750087 0.0008948704 0.00112272 0.00137193 0.001645677 0.001950531 0.00228817 0.00265535
 0.003052138 0.003467398 0.003900847 0.004347524 0.004808335 0.0052891 0.005788166 0.006304289 0.006829892 0.007345409
 0.007841893 0.008294189 0.008696883 0.009032761 0.009300829 0.009492728 0.009615093 0.009667235 0.009663555 0.009608974
 0.009516806 0.00939156 0.009241519 0.009068185 0.008880853 0.00868033 0.008477282 0.008272415 0.008074915 0.007885396
 0.007715037 0.007564397 0.007444292 0.007352471 0.007286249 0.007241119 0.007202458 0.00716999 0.007135492 0.007102803
 0.007074878 0.007050999 0.007033664 0.007014844 0.006991486 0.006953634 0.006896647 0.006813486 0.006700643 0.006557743
 0.006383553 0.006183303 0.005957606 0.005708674 0.005436752 0.005140379 0.004819837 0.004481325 0.004125959 0.003766234
 0.003401014 0.003032633 0.002658098 0.002269161 0.001866778 0.001448117 0.001017018 0.0005780928 0.0001319474 -0.0003185671
 -0.0007760044 -0.001240721 -0.001716306 -0.002203422 -0.002708469 -0.003233564 -0.003782164 -0.004356338 -0.004950081 -0.005563091
 -0.006188628 -0.006826085 -0.007475843 -0.008137707 -0.008808224 -0.009485779 -0.01015581 -0.01081733 -0.01145764 -0.01207846
 -0.01267837 -0.01325859 -0.01382146 -0.01436562 -0.01489077 -0.01539401 -0.01587312 -0.01632431 -0.01674394 -0.01713214
 -0.01748551 -0.01781577 -0.01812367 -0.01842817 -0.01873331 -0.01904971 -0.01938009 -0.01971992 -0.02006937 -0.0204143
 -0.0207539 -0.02107275 -0.02137072 -0.02163916 -0.02187932 -0.02209227 -0.02227861 -0.02244111 -0.0225785 -0.02268906
 -0.02277325 -0.02282964 -0.02286276 -0.02287558 -0.02287382 -0.02286147 -0.02284356 -0.02282343 -0.02280282 -0.02278445
 -0.02276072 -0.02273131 -0.02268503 -0.02261933 -0.0225391 -0.022444 -0.02235551 -0.02227443 -0.02221376 -0.02217182
 -0.02214058 -0.0221176 -0.02208776 -0.02205034 -0.02199506 -0.02192367 -0.02183297 -0.02172955 -0.02161974 -0.02151225
 -0.02141931 -0.02134004 -0.02128015 -0.02122725 -0.02117742 -0.02112092 -0.02105297 -0.0209738 -0.02088234 -0.02078226
 -0.02067374 -0.02056065 -0.02044316 -0.02032773 -0.02021459 -0.02010729 -0.02000538 -0.01990623 -0.01981002 -0.01971552
 -0.01962467 -0.01954303 -0.01947089 -0.01941294 -0.01936474 -0.01932289 -0.01928158 -0.01923323 -0.01917712 -0.01910959
 -0.01903489 -0.01895517 -0.01886921 -0.01877921 -0.01867286 -0.018548 -0.01839558 -0.01821237 -0.01801134 -0.01779255
 -0.0175842 -0.01738741 -0.01721959 -0.01707905 -0.01695938 -0.01685703 -0.01675213 -0.0166432 -0.01651384 -0.01636875
 -0.01620724 -0.0160398 -0.01588068 -0.01573685 -0.01562328 -0.0155324 -0.01546683 -0.01540778 -0.01534743 -0.01527306
 -0.01517716 -0.0150635 -0.01492991 -0.01479203 -0.01465125 -0.01452219 -0.01440626 -0.01430805 -0.01422748 -0.01415812
 -0.01409858 -0.01403443 -0.01396402 -0.013871 -0.01375701 -0.01361601 -0.01345605 -0.0132898 -0.01312512 -0.01298138
 -0.01285334 -0.01274579 -0.01264316 -0.01253483 -0.01241591 -0.01227793 -0.01213512 -0.01198994 -0.01185504 -0.01173591
 -0.01162406 -0.01152041 -0.01140363 -0.01127194 -0.01111475 -0.01093202 -0.0107333 -0.0105199 -0.01030811 -0.01009736
 -0.009893594 -0.009695139 -0.009498706 -0.00930639 -0.009119361 -0.008943863 -0.008789662 -0.008659747 -0.008563418 -0.008492236
 -0.008446786 -0.008407529 -0.008366925 -0.008306488 -0.008217292 -0.008096733 -0.007940962 -0.007762485 -0.007561928 -0.007353688
 -0.007138724 -0.006931078 -0.00673163 -0.00655909 -0.006413294 -0.006302746 -0.006222381 -0.006152444 -0.006087876 -0.005999906
 -0.005894082 -0.005766353 -0.005627742 -0.005494879 -0.005367822 -0.005255592 -0.005146523 -0.005035427 -0.004913141 -0.00477276
 -0.004614772 -0.004436483 -0.004246705 -0.004045784 -0.003847013 -0.00365191 -0.003472149 -0.003308805 -0.003168926 -0.003052808
 -0.002963422 -0.002899744 -0.00285473 -0.002824779 -0.002788379 -0.002743094 -0.002667966 -0.002567958 -0.002441718 -0.002298694
 -0.002152713 -0.002008071 -0.001876222 -0.00175158 -0.001635244 -0.001516515 -0.00138972 -0.00125124 -0.001096376 -0.0009357648
 -0.0007702979 -0.0006123764 -0.0004648799 -0.0003253661 -0.0001941268 -6.236866E-05 7.013491E-05 0.0002010973 0.0003296977 0.000446952
 0.0005524324 0.0006398309 0.0007084272 0.0007510948 0.0007710564 0.0007673571 0.0007543578 0.0007516242 0.0007725757 0.000843162
 0.0009535763 0.001109363 0.001284224 0.001466461 0.001640134 0.001796305 0.00193368 0.002050381 0.002148159 0.002226682
 0.002290698 0.002340491 0.002381267 0.002413239 0.002436358 0.00245148 0.002465815 0.002482767 0.002524329 0.002591467
 0.002700639 0.002846465 0.003026515 0.003232964 0.003455429 0.00368231 0.003899761 0.004094756 0.00425039 0.004372207
 0.004453428 0.004522059 0.004586406 0.004663994 0.004762691 0.004874995 0.005000643 0.005134309 0.00527502 0.005430166
 0.005599979 0.005784426 0.005982589 0.006184701 0.006390111 0.00659104 0.006786456 0.006968589 0.00713772 0.007288343
 0.007427343 0.007562592 0.007699672 0.007851385 0.008007403 0.008167267 0.008311698 0.008430212 0.008514029 0.008555569
 0.008562884 0.008533668 0.008492238 0.008440335 0.008408496 0.008400178 0.008423166 0.008477618 0.008541763 0.008615573
 0.008689884 0.00876886 0.008872394 0.008999111 0.009158069 0.009338547 0.00952097 0.009698456 0.009850598 0.00997925
 0.01007685 0.01015309 0.01020711 0.01026587 0.01033983 0.01045835 0.01064469 0.01086216 0.01111304 0.01132413
 0.01147809 0.01158984 0.01165726 0.01173287 0.01181898 0.01193099 0.01206727 0.01221524 0.01237245 0.01252155
 0.01265801 0.01275773 0.01281813 0.01281684 0.01276635 0.01267275 0.01255668 0.01244472 0.01234282 0.01226621
 0.01220617 0.01216271 0.0121256 0.01209099 0.01205367 0.01200993 0.01196858 0.01192935 0.01190987 0.01191278
 0.01193133 0.01196501 0.01198107 0.01197911 0.01194349 0.01187728 0.01179082 0.0116838 0.01155928 0.01141828
 0.01125835 0.01109652 0.0109586 0.0108559 0.01082151 0.01082411 0.01085505 0.01087396 0.01085153 0.01078953
 0.01067829 0.01054395 0.01038905 0.0102432 0.01010894 0.01002451 0.00999355 0.01004282 0.01017369 0.01038179
 0.01066479 0.01099706 0.0113722 0.0117427 0.01210189 0.01239688 0.01263738 0.01281621 0.0129527 0.01308032
 0.01319428 0.01330561 0.01339535 0.01344472 0.01346796 0.01346174 0.01346186 0.01348477 0.01353247 0.01361161
 0.01369926 0.01379205 0.01388073 0.01396445 0.01403283 0.01408524 0.01410335 0.01408936 0.01406224 0.01402933
 0.01404574 0.01410912 0.01424523 0.01443692 0.01465939 0.01489444 0.01510283 0.01527315 0.01537467 0.01541385
 0.01537848 0.01530265 0.01519892 0.01509961 0.01502279 0.01496833 0.01494004 0.01492949 0.01493507 0.01495908
 0.01500299 0.01504729 0.01509091 0.01508956 0.01504263 0.01492829 0.01475201 0.01453185 0.0142771 0.01402702
 0.01379229 0.01362055 0.01350776 0.01347848 0.01349688 0.01353411 0.01355735 0.01352049 0.0134463 0.01332797
 0.01321487 0.01313017 0.01307532 0.01306126 0.0130448 0.01302102 0.01295591 0.01284501 0.01267851 0.01245571
 0.01218843 0.01187911 0.0115622 0.01123979 0.01094282 0.01066891 0.01042499 0.01021008 0.01002477 0.009870265
 0.009751082 0.009661602 0.009597535 0.009553387 0.009523333 0.009505068 0.009501792 0.009489571 0.009464352 0.009390403
 0.00925169 0.00906321 0.0088185 0.008587623 0.008377188 0.008229453 0.008147115</values></Ydata></AB><ScSm><Ydata ylabel="Single channel"><values byteorder="INTEL" format="FLOAT32" numvalues="1814"> 0.07619791 0.07623735 0.07634729 0.07654177 0.07678291 0.07700405 0.07715607 0.07723616 0.07726446 0.07724511
 0.07718369 0.07713909 0.07720515 0.07741591 0.07769416 0.07790773 0.07797356 0.07792619 0.07789576 0.07798246
 0.07812288 0.07811018 0.07779054 0.07724096 0.07671832 0.07642336 0.07637693 0.07657098 0.07709407 0.07788828
 0.07847596 0.07830105 0.07742936 0.07658254 0.0763396 0.07658166 0.07682315 0.07676589 0.07639618 0.07589112
 0.07567091 0.07627293 0.07782394 0.07962085 0.08039118 0.07909222 0.07565005 0.07120151 0.06768437 0.06680159
 0.06881794 0.07220469 0.07478382 0.07546476 0.07477231 0.07375978 0.07288048 0.072108 0.07164648 0.07196759
 0.07315269 0.07445422 0.07467206 0.07316694 0.07062315 0.06857965 0.06803295 0.06880109 0.07033179 0.07230716
 0.07381126 0.07285231 0.06831988 0.06246827 0.05991214 0.06323725 0.0702427 0.07610787 0.07768613 0.07524134
 0.07102598 0.06741695 0.0660482 0.06736468 0.07051145 0.07405184 0.07685409 0.07815258 0.07735218 0.07454044
 0.07099227 0.06854923 0.06848717 0.07102036 0.07525653 0.07927091 0.08098237 0.07969542 0.07656117 0.07335559
 0.07131344 0.07113938 0.07316992 0.07700977 0.08152319 0.08550891 0.08819352 0.08928436 0.08901543 0.08800558
 0.08679017 0.08573952 0.08539974 0.08615316 0.0873248 0.08744047 0.08584017 0.08356278 0.08227398 0.08254372
 0.08339363 0.08348586 0.08247328 0.08076764 0.07821095 0.07408069 0.06873775 0.06403651 0.06146889 0.06104017
 0.0623873 0.0653587 0.06870522 0.06999466 0.06827069 0.0657529 0.06562181 0.06863129 0.07273018 0.0755899
 0.07676003 0.0775075 0.07917061 0.0817804 0.08387935 0.08360882 0.08055102 0.07677785 0.0753914 0.07748005
 0.08107634 0.08358802 0.08453638 0.08526722 0.08659783 0.08754941 0.08635909 0.08256605 0.07815409 0.07633963
 0.07876973 0.08386655 0.08796585 0.08803075 0.08369979 0.07737361 0.07233983 0.07049789 0.07184608 0.07572266
 0.08153322 0.08810641 0.09340856 0.0956838 0.09473151 0.09179211 0.08813459 0.08388472 0.07871144 0.07379226
 0.07203507 0.07531595 0.0820692 0.08859964 0.09238148 0.09330533 0.09221856 0.0893507 0.08456892 0.07891803
 0.07512341 0.07547372 0.07907434 0.08235962 0.08283454 0.08134691 0.08024393 0.08042333 0.08100323 0.08115302
 0.08126965 0.08231105 0.08444914 0.08670995 0.08793083 0.0878231 0.08702071 0.08632867 0.08598729 0.08550215
 0.08434495 0.08302321 0.08301073 0.08513636 0.08844186 0.09116436 0.09249859 0.09288421 0.09283264 0.09203531
 0.08982366 0.08644376 0.08356652 0.08304238 0.08510736 0.08824268 0.09075435 0.09198637 0.09214301 0.09166949
 0.09095667 0.0902186 0.08955705 0.08923439 0.0896083 0.09062063 0.09168149 0.09226047 0.09231978 0.09205057
 0.09149687 0.09063095 0.0896253 0.08886255 0.08866163 0.08903575 0.08973483 0.09047182 0.09102762 0.09121189
 0.09093076 0.09032865 0.08969913 0.08921789 0.08888771 0.08872539 0.08881938 0.08916206 0.08956936 0.08983682
 0.08990218 0.08981875 0.08963977 0.08938031 0.08906006 0.08874552 0.08854543 0.08854088 0.08869309 0.08886065
 0.08895674 0.08903694 0.08916457 0.08925676 0.08916932 0.08889908 0.08860372 0.08843116 0.08840015 0.08843704
 0.08845539 0.08837276 0.08810819 0.08765149 0.08715357 0.08687029 0.08695857 0.08736195 0.08790617 0.08842868
 0.08880416 0.0889627 0.08894297 0.0888546 0.08875025 0.08858883 0.08833914 0.08807401 0.08794459 0.08806403
 0.08840275 0.08880319 0.08910976 0.08926646 0.0892999 0.08927882 0.08929728 0.08940721 0.08954026 0.08957016
 0.08947434 0.08937 0.08937329 0.08947029 0.08954564 0.08951682 0.08942562 0.08939251 0.08948405 0.08965053
 0.08980077 0.0899068 0.09001341 0.09015931 0.09030433 0.09034719 0.0902345 0.09004033 0.08989707 0.08985609
 0.08987037 0.08990688 0.09000105 0.09017678 0.09037209 0.09049039 0.09050739 0.09049171 0.09051542 0.09056634
 0.09056747 0.09047282 0.09032084 0.09019411 0.09014681 0.0901738 0.09022862 0.09025983 0.09024028 0.09017525
 0.0900874 0.08999258 0.08989225 0.08979604 0.08974749 0.08980197 0.08995707 0.09011628 0.09015074 0.09001167
 0.08977766 0.08958485 0.08950618 0.08949673 0.08945437 0.08932538 0.08914362 0.08897884 0.08886978 0.08880793
 0.08876327 0.08871548 0.08867658 0.08869227 0.08880138 0.08897547 0.08911426 0.08912926 0.08902891 0.08890274
 0.08883142 0.08883321 0.08888184 0.08894601 0.08901797 0.08912025 0.08926953 0.08942719 0.0895211 0.08953222
 0.08952425 0.08957542 0.08971621 0.08993369 0.09018417 0.09039259 0.09049582 0.09051128 0.0905267 0.09060679
 0.09073985 0.09088397 0.0910288 0.09119064 0.09137414 0.09156922 0.09177908 0.09202819 0.09233525 0.09268391
 0.0930222 0.09329504 0.09349081 0.09366369 0.09389955 0.09424655 0.09467566 0.09510756 0.09547751 0.09578039
 0.09605838 0.09634774 0.09664722 0.09694798 0.09727437 0.09766355 0.09811091 0.09856809 0.09899789 0.09940575
 0.09981455 0.1002311 0.1006475 0.1010652 0.1015068 0.1019947 0.1025107 0.1029915 0.1033803 0.103682
 0.1039622 0.1042976 0.1047259 0.1052148 0.1056693 0.106002 0.1062258 0.1064517 0.1067686 0.107149
 0.107508 0.1078294 0.1081857 0.1086309 0.1091231 0.1095701 0.1099288 0.1102367 0.1105552 0.1108974
 0.1112161 0.1114601 0.1116361 0.1118029 0.112008 0.1122579 0.1125572 0.112935 0.1133999 0.1138934
 0.1143277 0.1146614 0.1149128 0.1151191 0.115311 0.1155094 0.115717 0.1159215 0.1161212 0.1163262
 0.1165253 0.116687 0.1168144 0.1169633 0.117184 0.1174748 0.117814 0.1181992 0.1186242 0.1190481
 0.1194358 0.1198179 0.1202574 0.1207477 0.1211886 0.1214925 0.121677 0.1218201 0.121965 0.1221201
 0.1223221 0.1226297 0.1230507 0.1235238 0.1239825 0.1244059 0.1248051 0.1251874 0.12554 0.125834
 0.1260445 0.1261757 0.1262706 0.1263927 0.1265952 0.1268912 0.1272405 0.1275721 0.1278295 0.1279888
 0.1280376 0.1279706 0.1278263 0.1276961 0.1276497 0.1276538 0.1275918 0.1273644 0.1269493 0.1263709
 0.1256511 0.1248099 0.1238965 0.1230002 0.1222239 0.1216492 0.1213257 0.1212865 0.1215558 0.1221188
 0.1228866 0.123715 0.1244676 0.125045 0.1253594 0.1253272 0.1249218 0.1242159 0.1233478 0.1224483
 0.1216032 0.1208479 0.1201732 0.1195655 0.1190797 0.1188656 0.1191004 0.1198907 0.1212288 0.1230001
 0.1250041 0.1269994 0.1287907 0.1303053 0.1315882 0.1327224 0.1337618 0.1347354 0.1356765 0.1366085
 0.1375099 0.1383301 0.1390464 0.1396817 0.140264 0.1407912 0.1412409 0.1415959 0.1418617 0.1420707
 0.1422601 0.1424356 0.1425726 0.1426618 0.1427334 0.1428152 0.1428847 0.1428764 0.1427295 0.1424298
 0.1420369 0.1416969 0.1416228 0.142023 0.1430022 0.1444996 0.1463189 0.1482326 0.1500644 0.151694
 0.1530372 0.1540666 0.1548373 0.1554554 0.1560111 0.156548 0.157078 0.1575998 0.1581059 0.1585892
 0.159052 0.1595087 0.1599783 0.1604667 0.1609543 0.1614091 0.1618217 0.1622223 0.162658 0.1631516
 0.1636784 0.1641857 0.1646445 0.1650778 0.1655224 0.1659695 0.1663732 0.1667163 0.1670377 0.1673927
 0.1678085 0.1682757 0.168756 0.1691971 0.1695635 0.1698631 0.1701379 0.1704288 0.1707537 0.1711088
 0.171478 0.1718433 0.1721955 0.172542 0.1729028 0.1732859 0.1736647 0.1739936 0.1742563 0.1744888
 0.1747464 0.1750514 0.1753807 0.1756989 0.1759973 0.1763037 0.1766526 0.1770458 0.1774428 0.1777944
 0.1780813 0.1783231 0.1785565 0.1788095 0.179091 0.179395 0.1797092 0.1800224 0.1803287 0.1806287
 0.1809269 0.1812276 0.1815339 0.1818456 0.182157 0.1824602 0.182753 0.1830449 0.1833516 0.1836867
 0.1840526 0.184432 0.1847897 0.1850955 0.1853485 0.1855758 0.1858061 0.1860514 0.1863124 0.1865888
 0.1868783 0.1871711 0.1874557 0.1877326 0.1880147 0.188312 0.1886193 0.188923 0.1892155 0.1895023
 0.1897961 0.190107 0.1904324 0.1907543 0.1910523 0.1913218 0.1915783 0.1918423 0.1921226 0.1924126
 0.1926976 0.1929685 0.193229 0.1934908 0.1937605 0.1940349 0.1943088 0.1945815 0.1948562 0.1951335
 0.1954093 0.1956781 0.1959409 0.1962059 0.1964805 0.1967635 0.1970479 0.1973279 0.1976031 0.1978773
 0.1981519 0.1984221 0.1986837 0.1989411 0.1992043 0.1994765 0.1997523 0.2000248 0.2002904 0.2005499
 0.2008085 0.201072 0.20134 0.2016067 0.2018675 0.2021237 0.2023825 0.2026513 0.202928 0.2032013
 0.203466 0.2037309 0.2040059 0.2042886 0.2045674 0.2048343 0.2050917 0.2053517 0.2056256 0.205913
 0.206204 0.206493 0.2067815 0.2070691 0.2073495 0.2076153 0.207864 0.2081011 0.2083375 0.2085788
 0.2088223 0.2090647 0.2093067 0.209549 0.209793 0.2100437 0.2103026 0.2105647 0.210828 0.211097
 0.2113719 0.2116469 0.2119188 0.2121869 0.2124492 0.212709 0.2129742 0.2132453 0.2135148 0.2137801
 0.2140425 0.2143022 0.2145615 0.2148255 0.2150925 0.2153562 0.2156177 0.2158826 0.2161528 0.2164291
 0.2167097 0.2169853 0.2172496 0.2175109 0.217778 0.2180462 0.218308 0.2185649 0.2188202 0.2190767
 0.2193391 0.2196073 0.2198747 0.2201413 0.2204115 0.2206798 0.2209403 0.2211984 0.2214572 0.2217097
 0.2219566 0.2222083 0.2224675 0.2227308 0.2229991 0.2232665 0.2235195 0.223759 0.2239946 0.2242115
 0.2243512 0.2242706 0.2236231 0.221719 0.2174964 0.2097261 0.1975058 0.1808358 0.1608165 0.139248
 0.1179595 0.09833732 0.08120073 0.06691279 0.05555078 0.04701635 0.04111066 0.03765923 0.03663912 0.03831155
 0.04336875 0.05252302 0.06494888 0.07690658 0.08320281 0.08129452 0.07371826 0.0657759 0.0611337 0.06005802
 0.06099345 0.06260844 0.06447627 0.06683131 0.07008267 0.07434508 0.07941984 0.08530168 0.09242046 0.1010891
 0.1108503 0.1206732 0.1298408 0.1385069 0.1473366 0.156696 0.1662597 0.175327 0.1833789 0.1903317
 0.1964138 0.2019181 0.2070457 0.2118967 0.2165273 0.2209393 0.2249751 0.2282786 0.230465 0.2314088
 0.2313879 0.2309311 0.2305039 0.2303202 0.2303939 0.2306831 0.2311588 0.2318011 0.2325895 0.2334939
 0.2344674 0.2354619 0.2364505 0.2374204 0.2383556 0.2392359 0.2400453 0.2407747 0.2414261 0.2420126
 0.2425453 0.2430282 0.2434727 0.2438972 0.2443096 0.2447043 0.2450785 0.2454339 0.2457653 0.246063
 0.2463258 0.2465626 0.2467844 0.2470002 0.2472152 0.2474301 0.2476436 0.2478564 0.2480705 0.2482879
 0.2485072 0.2487222 0.2489286 0.2491332 0.2493467 0.2495659 0.2497755 0.2499685 0.2501531 0.25034
 0.2505336 0.2507329 0.2509335 0.2511279 0.2513133 0.2514955 0.2516835 0.2518825 0.2520906 0.2522995
 0.2525033 0.2527096 0.2529301 0.2531626 0.2533924 0.253611 0.2538215 0.2540312 0.2542476 0.254471
 0.2546844 0.2548636 0.2550046 0.2551351 0.255294 0.2555023 0.2557478 0.2559937 0.2562118 0.2564051
 0.2565919 0.2567793 0.2569623 0.2571369 0.2573084 0.2574958 0.2577196 0.2579761 0.2582371 0.2584865
 0.2587305 0.2589725 0.2592098 0.2594516 0.2597003 0.2599213 0.2600751 0.2601831 0.2603309 0.2605951
 0.2609706 0.2613685 0.2616963 0.2619385 0.2621483 0.2623814 0.2626609 0.2629599 0.2631786 0.2632093
 0.2630986 0.2630805 0.2633619 0.2639161 0.2645386 0.2650577 0.2654379 0.2657295 0.2659824 0.2661994
 0.2663386 0.2663641 0.2663224 0.266367 0.2666537 0.2671756 0.2677507 0.2682083 0.2685253 0.2687591
 0.2689474 0.2691048 0.26919 0.2690518 0.2685904 0.2680387 0.2679007 0.2684677 0.2694907 0.2704417
 0.2710303 0.2713539 0.2716084 0.2718466 0.2720296 0.2720641 0.2716835 0.2706073 0.269093 0.2680785
 0.2683987 0.2699421 0.2718263 0.2732792 0.2741174 0.2745372 0.2747761 0.274956 0.274995 0.2746191
 0.2736742 0.2725379 0.272021 0.2726224 0.273965 0.2751939 0.2758439 0.2760793 0.276239 0.2764618
 0.2765966 0.2761447 0.2745377 0.2719749 0.269856 0.2697982 0.2720518 0.2751979 0.2775564 0.2786338
 0.2789956 0.2790319 0.2783886 0.2766131 0.2738264 0.2706673 0.2681223 0.2674127 0.2691768 0.2724385
 0.2751656 0.2762807 0.2765628 0.2773251 0.2788366 0.2803325 0.2810244 0.2807151 0.2796507 0.2780776
 0.2761293 0.2742543 0.2734663 0.2746208 0.2773787 0.2803298 0.2823015 0.2832511 0.2836449 0.2830784
 0.2800088 0.2736181 0.2661154 0.2620998 0.2644863 0.2714569 0.2784182 0.2825131 0.284157 0.2848681
 0.2852502 0.2848399 0.2823488 0.2763421 0.267486 0.2599985 0.2588007 0.2646368 0.2732289 0.2792815
 0.2801126 0.275947 0.268936 0.262491 0.2598894 0.2622973 0.2682777 0.2752101 0.2808529 0.2839444
 0.2842008 0.2822016 0.2793206 0.2773699 0.2772938 0.2777547 0.2761479 0.2719024 0.2674639 0.2647069
 0.262011 0.257225 0.2523887 0.2523611 0.2585147 0.266453 0.2709661 0.2713044 0.2701936 0.2688485
 0.2648597 0.2556528 0.243384 0.2349719 0.2360412 0.2450931 0.2548608 0.2594258 0.2589041 0.2572685
 0.257048 0.2567697 0.2530561 0.2450564 0.236619 0.2330307 0.2353672 0.239519 0.2410159 0.238571
 0.232454 0.2230421 0.2133968 0.2101379 0.2178085 0.2332623 0.2481741 0.2559054 0.25385 0.2418431
 0.2231078 0.2062438 0.2010158 0.2095716 0.2238228 0.2329115 0.2317972 0.2220468 0.2071894 0.1903801
 0.1758992 0.1694682 0.1747654 0.1897378 0.2068011 0.2166043 0.2131329 0.1983766 0.1827451 0.1775528
 0.1847121 0.1954618 0.2002299 0.1973278 0.1914679 0.1876619 0.1883452 0.1930918 0.1990724 0.2036671
 0.2065417 0.2066686 0.1994792 0.1823646 0.1620085 0.1500178 0.1508565 0.1594836 0.1706503 0.1836391
 0.1963328 0.2019425 0.1966797 0.1869987 0.1841605 0.1922693 0.2047166 0.2122456 0.212106 0.2085906
 0.2063328 0.2053257 0.2032648 0.2009576 0.2024911 0.2096362 0.218784 0.2249714 0.2270334 0.2271791
 0.2272334 0.2272553 0.2267901 0.2256799 0.2239898 0.2221313 0.2207329 0.2199175 0.2191925 0.2181992
 0.2166693 0.2132898 0.2059948 0.1948868 0.1840948 0.178524 0.1786684 0.1809125 0.1829073 0.1849484
 0.1849554 0.1770716 0.1594276 0.1404823 0.13287 0.1412045 0.1586498 0.1746747 0.1830771 0.1824898
 0.1732433 0.1576624 0.1427598 0.1380804 0.1479005 0.1670878 0.1865765 0.2011886 0.210283 0.2134486
 0.2095427 0.1998334 0.1893298 0.1839721 0.1869879 0.197398 0.2103498 0.2184121 0.2151789 0.2016017
 0.1889001 0.1903521 0.2073468 0.2270789 0.2369453 0.2373593 0.2367332 0.2384158 0.2389653 0.2372537
 0.2382019 0.2459479 0.257708 0.2665132 0.2673317 0.2590557 0.2438644 0.2277475 0.2189593 0.2214024
 0.2301923 0.2369754 0.2380275 0.2337747 0.2238448 0.2091274 0.1970224 0.1969895 0.2095691 0.2251223
 0.2347799 0.2385063 0.2411048 0.2439524 0.2433738 0.2362679 0.2253158 0.217328 0.2164925 0.2206864
 0.2250198 0.2269942 0.226537 0.223063 0.2158428 0.2072356 0.2027162 0.2061128 0.2156508 0.2256417
 0.2315951 0.2330234 0.2320379 0.2306369 0.2293801 0.2275968 0.2247429 0.2221485 0.2227613 0.2279571
 0.2352717 0.2408892 0.2440033 0.2471002 0.2520614 0.2575615 0.2606724 0.2600621 0.2572705 0.2553709
 0.2565054 0.2601853 0.2636571 0.2642528 0.2619238 0.259518 0.2601614 0.2642818 0.269541 0.2734932
 0.2755926 0.2767016 0.2776408 0.2784807 0.2785121 0.2768048 0.2735391 0.2707709 0.2709691 0.2745553
 0.2794892 0.2833593 0.2853136 0.2859168 0.2858365 0.2851477 0.2837164 0.2818286 0.2802076 0.2794517
 0.2796093 0.2803227 0.2812108 0.2820385 0.2826957 0.2831734 0.2835279 0.2838049 0.2840239 0.2842202
 0.2844196 0.2845683 0.2845851 0.284512 0.2845245 0.2847359 0.2850499 0.2852615 0.2852411 0.2849425
 0.2842965 0.2832283 0.2817824 0.280109 0.2782921 0.2763006 0.2742227 0.2725073 0.2718278 0.2725911
 0.2745687 0.2770316 0.2792431 0.2808276 0.2817729 0.2822309 0.282371 0.2823396 0.2822432 0.2821208
 0.2819502 0.2817011 0.2813785 0.2810097 0.2806117 0.2801969 0.2798001 0.2794644 0.279195 0.2789398
 0.278625 0.2782036 0.2776828 0.2771094 0.2765246 0.2759198 0.2752349 0.2744058 0.2734207 0.2723361
 0.2712454 0.2702242 0.2692892 0.2683977 0.2674871 0.2665139 0.2654434 0.2642222 0.2628185 0.2613064
 0.2598543 0.2585883 0.2574909 0.2564459 0.2553405 0.2541093 0.252733 0.2512365 0.2496721 0.2480823
 0.2464801 0.2448583 0.243201 0.2414883 0.2397053 0.2378519 0.2359405 0.2339865 0.2319999 0.2299781
 0.2278913 0.2256672 0.2231944 0.2203509 0.2170338 0.2131734 0.208752 0.203837 0.1985881 0.1932162
 0.1879271 0.1828898 0.1782303 0.1740445 0.170417 0.1674243 0.1651227 0.163542 0.1626906 0.1625587
 0.1631189 0.164324 0.1660919 0.1682976 0.1707904 0.1734118 0.1759931 0.1783739 0.180474 0.1823488
 0.1841387 0.1859467 0.1877641 0.1895103 0.1911248 0.192601 0.1939411 0.1951201 0.1961147 0.1969386
 0.1976237 0.1981916 0.1986591 0.1990504 0.1993859 0.1996732 0.1999196 0.2001428 0.2003725 0.200644
 0.2009839 0.2014008 0.2018961 0.2024803 0.2031682 0.2039607 0.2048377 0.2057686 0.2067332 0.2077334
 0.20878 0.2098806 0.2110566 0.2123597 0.2138457 0.2155357 0.217414 0.219439 0.2215333 0.2235816
 0.2254644 0.2270931 0.2284214 0.2294436 0.2301877 0.2306992 0.2310241 0.2311992 0.2312484 0.231188
 0.2310354 0.2308036 0.2304906 0.2300895 0.229604 0.2290404 0.2284004 0.2276996 0.2269781 0.2262726
 0.225589 0.2249091 0.2242125 0.2234926 0.2227646 0.222055 0.2213776 0.2207223 0.2200685 0.2194006
 0.2187162 0.2180175 0.2172855 0.216471 0.2155322 0.2144716 0.2133164 0.2120747 0.2107371 0.2093061
 0.2077976 0.2062241 0.2045887 0.2028912 0.2011276 0.1992853 0.1973425 0.1952788 0.1931041 0.1908776
 0.1886896 0.1866206 0.18471 0.1829485 0.1812968 0.1797242 0.1782246 0.1767939 0.175417 0.174092
 0.1728417 0.1716809 0.1705915 0.169546 0.1685396 0.1675956 0.1667486 0.1660195 0.1653984 0.1648535
 0.164359 0.163912 0.1635351 0.1632676 0.1631295 0.1630825 0.1630459 0.1629587 0.162806 0.1625974
 0.1623524 0.1621035 0.1618851 0.1617103 0.1615621 0.1613948 0.1611368 0.1607049 0.1600236 0.1590384
 0.1577298 0.1561241 0.1542891 0.1523264 0.1503712 0.1485673 0.1470163 0.1457541 0.1447711 0.1440251
 0.1434432 0.142955 0.1425449 0.1422614 0.1421661 0.1422536 0.1424118 0.1424909 0.1424473 0.1423989
 0.1425166 0.1428824 0.1434539 0.1441193 0.1447696 0.1453427 0.1458082 0.1461257 0.1462628 0.1462517
 0.1461681 0.1460491 0.1458779 0.1456365 0.1453312 0.1449785 0.1445931 0.1441708 0.1436775 0.1430755
 0.1423524 0.14152 0.1406074 0.1396423 0.1385979 0.1374102 0.1361193 0.1349534 0.1342037 0.1340349
 0.1344164 0.1351688 0.136081 0.1370357 0.1379756 0.138726 0.1390343 0.1389494 0.1390336 0.1399563
 0.1418437 0.1441398 0.1461138 0.1473928 0.1479884 0.1480025 0.1474818 0.1464611 0.1449551 0.1429392
 0.1404479 0.1376212 0.1345975 0.1314868 0.1284642 0.1257343 0.1234118 0.1215248 0.1200635 0.1190537
 0.1186167 0.1183855 0.1165069 0.1106079 0.1014516 0.09457663 0.09564399 0.1040644 0.1133996 0.1181699
 0.1182279 0.116501 0.1150127 0.114077 0.1135948 0.1136952 0.1144837 0.1158019 0.1172547 0.1184418
 0.1192063 0.1195925 0.1195584 0.1187553 0.1164752 0.1118906 0.1047348 0.09588593 0.08704001 0.0797057
 0.07455818 0.0714972 0.06995128 0.0691855 0.06867439 0.0683639 0.06856222 0.06956838 0.0714186 0.07395118
 0.07698487 0.08029714 0.08350287 0.08619821 0.08827552 0.08991794 0.09125948 0.09222251 0.0926933 0.09268641
 0.09231344 0.0917065 0.0909837 0.0902054 0.08933264 0.08826996 0.08701685 0.08578922 0.08490376 0.08448899
 0.08439149 0.08439524 0.08441019 0.08442101 0.08440553 0.08436254 0.08432823 0.08435461 0.08451567 0.08487025
 0.08536422 0.08583721 0.08616105 0.08632773 0.08640528 0.08642271 0.08627707 0.0858241 0.08514315 0.0845587
 0.08421282 0.08378094 0.08287801 0.08164131 0.08064887 0.08030365 0.0804936 0.08081824 0.08096893 0.08088481
 0.080713 0.08071378 0.08108531 0.08172253</values></Ydata></ScSm><ScRf><Ydata ylabel="Single channel"><values byteorder="INTEL" format="FLOAT32" numvalues="1820"> 0.06062298 0.06075959 0.0608347 0.0608549 0.06085026 0.06086585 0.06094267 0.0610924 0.06128641 0.06147017
 0.06159782 0.06166156 0.06168137 0.06166966 0.06163064 0.06159724 0.06163159 0.06176604 0.06195811 0.06211565
 0.06216855 0.06213173 0.0621023 0.06216317 0.0622684 0.06225183 0.06198668 0.06153458 0.06110553 0.06086259
 0.06081949 0.06096722 0.06137944 0.06201388 0.06248615 0.06234413 0.06163702 0.06094572 0.06073757 0.0609169
 0.06109392 0.06103318 0.06072839 0.06032069 0.060141 0.06061722 0.0618552 0.06329586 0.06391546 0.062869
 0.06009399 0.05650977 0.05368015 0.05297085 0.05458395 0.05728461 0.05932927 0.05985657 0.05929932 0.05850291
 0.05782064 0.05721787 0.0568495 0.05709299 0.05801975 0.05903932 0.05919709 0.05798393 0.05594604 0.05431009
 0.05386785 0.05447181 0.05568301 0.05725111 0.05844633 0.05767807 0.05405978 0.04939149 0.0473576 0.05002252
 0.05562665 0.06031335 0.06156091 0.05958 0.0561834 0.05328708 0.05219992 0.05326324 0.05577732 0.05859171
 0.06081282 0.0618389 0.06119587 0.05894969 0.05611393 0.05415411 0.05408599 0.05608485 0.05944858 0.06264774
 0.06401827 0.06299675 0.06049699 0.05793784 0.05630789 0.05616972 0.05778912 0.06084779 0.0644393 0.06760862
 0.06974345 0.07061094 0.07039422 0.0695852 0.06861407 0.06777855 0.06751089 0.06811165 0.06904355 0.06913542
 0.06786188 0.06604622 0.06500994 0.06520584 0.06586054 0.06591685 0.06510135 0.06373823 0.06169782 0.05840514
 0.05414892 0.0504044 0.04835857 0.04801995 0.04910727 0.05150247 0.05420282 0.05525756 0.05389443 0.05187762
 0.05174289 0.05409982 0.05732856 0.05958477 0.06050966 0.06110527 0.06243207 0.06451344 0.06618851 0.06597668
 0.06354521 0.06054444 0.05944497 0.06111355 0.06398293 0.06598783 0.06674738 0.06733607 0.06840795 0.06918532
 0.06826623 0.06528525 0.0618163 0.0604032 0.06234108 0.06637809 0.06962083 0.06967075 0.06623904 0.06122571
 0.05724204 0.05580094 0.05690468 0.06003318 0.06472144 0.07004032 0.07436301 0.07627015 0.07557513 0.07325483
 0.07033728 0.06694873 0.06283398 0.05892982 0.05756802 0.06026883 0.06578523 0.07113657 0.07426798 0.07507767
 0.07425141 0.07198111 0.06816086 0.06363942 0.06063553 0.0610125 0.06403658 0.06679627 0.06725736 0.0661165
 0.06529341 0.0655192 0.06606778 0.06626168 0.06644034 0.06740272 0.06928659 0.07127403 0.07239331 0.07240251
 0.07182986 0.07134995 0.07116787 0.07087244 0.07002386 0.0690505 0.06918345 0.0711031 0.0739931 0.07637623
 0.07759063 0.0780197 0.0780972 0.07755255 0.07580246 0.07304365 0.07070082 0.07036795 0.07226297 0.07509048
 0.07738979 0.07858703 0.07885372 0.07857451 0.07809018 0.0775926 0.07717578 0.07706192 0.07754567 0.07856468
 0.07960732 0.08021992 0.08037479 0.08024053 0.07986005 0.07921921 0.07847829 0.07796928 0.07795433 0.07842736
 0.07916798 0.07994066 0.08056857 0.08087962 0.08076873 0.08034869 0.07989029 0.07957405 0.07941586 0.07942446
 0.07966368 0.08011468 0.08060841 0.0809646 0.08113363 0.08116874 0.08112001 0.08099931 0.08082151 0.08065009
 0.0805919 0.08071823 0.08097599 0.08122712 0.08141206 0.08160973 0.08187761 0.0821075 0.08213612 0.0819589
 0.0817437 0.08164942 0.08169906 0.08181711 0.08191654 0.08192027 0.08175607 0.08141734 0.08104489 0.08087495
 0.08105373 0.08153321 0.08215293 0.08275294 0.08320343 0.08343375 0.08348469 0.08346631 0.08343289 0.08334729
 0.08317797 0.08298871 0.08291967 0.08308394 0.08346765 0.08393034 0.08431463 0.0845454 0.08463743 0.08466913
 0.08475147 0.08493914 0.08514865 0.08523586 0.08517537 0.08509873 0.08513422 0.08526079 0.08534734 0.08531112
 0.08521304 0.08519281 0.08532162 0.0855401 0.0857432 0.08589795 0.08605832 0.08627275 0.08649176 0.08658809
 0.08648981 0.08627683 0.08610272 0.08603529 0.08603234 0.08606373 0.0861715 0.0863786 0.08660522 0.08673539
 0.08674748 0.0867323 0.08677655 0.08686015 0.08688682 0.08679655 0.0866241 0.08645916 0.0863756 0.08639282
 0.08647361 0.0865481 0.08655649 0.08648609 0.086371 0.08625574 0.08616424 0.08611111 0.08613388 0.08627896
 0.08652787 0.0867546 0.08680289 0.08662899 0.08635351 0.0861538 0.0861038 0.08612314 0.08607478 0.08589676
 0.08563788 0.08538824 0.08519982 0.08506945 0.08497076 0.08488904 0.08483998 0.08486477 0.08498591 0.08514845
 0.08522728 0.08512935 0.08488616 0.08462211 0.08444177 0.08436856 0.08436521 0.08437682 0.08437268 0.08437578
 0.0844294 0.08451703 0.08455658 0.08449933 0.0843945 0.08433595 0.08438373 0.08454278 0.0847604 0.0849316
 0.08496676 0.08488087 0.08478019 0.08475003 0.08478987 0.0848594 0.08494174 0.08504064 0.08514953 0.08525614
 0.08537063 0.08552614 0.0857443 0.08600488 0.08625123 0.08642866 0.08652911 0.08660734 0.08674546 0.08698872
 0.08730994 0.08763468 0.08790112 0.08810171 0.08827406 0.08845368 0.08864432 0.08884187 0.08906779 0.0893489
 0.08967122 0.08998735 0.09027137 0.09053998 0.09081804 0.09110874 0.09140369 0.09170979 0.09205679 0.09246741
 0.09290949 0.09329285 0.09354255 0.09367572 0.09379235 0.0939965 0.09432676 0.09472903 0.0950797 0.09527783
 0.09535034 0.09543593 0.09563431 0.09590544 0.09615515 0.09638259 0.09668235 0.09710737 0.09758274 0.09797367
 0.09821421 0.09835523 0.09849651 0.09868207 0.09886768 0.09899211 0.09906365 0.09914964 0.09928897 0.0994616
 0.09965624 0.09991534 0.1002731 0.1006843 0.1010582 0.101346 0.1015612 0.1017342 0.1018791 0.101991
 0.1020534 0.1020638 0.102063 0.1021095 0.1022093 0.1023042 0.1023494 0.1023722 0.1024342 0.1025684
 0.1027759 0.1030501 0.1033665 0.1036718 0.1039303 0.1041798 0.1044934 0.1048689 0.1051979 0.1053796
 0.105432 0.1054493 0.1054825 0.1055229 0.1055828 0.1057184 0.1059603 0.1062734 0.1066049 0.1069372
 0.1072791 0.1076262 0.1079452 0.1081849 0.1083073 0.1083192 0.1082793 0.1082725 0.1083702 0.1085961
 0.1089126 0.109245 0.1095308 0.109739 0.1098473 0.1098415 0.1097632 0.1097222 0.109809 0.1099927
 0.1101387 0.1101264 0.1099245 0.10956 0.1090586 0.1084411 0.1077573 0.1070926 0.1065339 0.1061321
 0.1059052 0.1058737 0.1060756 0.106525 0.107159 0.1078544 0.1084994 0.1090206 0.1093414 0.1093684
 0.1090589 0.1084784 0.107762 0.1070328 0.1063616 0.1057628 0.1051997 0.1046301 0.1040924 0.1037416
 0.1037739 0.1043121 0.1053461 0.1067417 0.108282 0.1097391 0.1109657 0.1119461 0.1127576 0.1134806
 0.1141506 0.1147863 0.1154219 0.1160788 0.1167229 0.1172934 0.1177725 0.1181968 0.1186011 0.118984
 0.1193252 0.1196103 0.119843 0.1200479 0.1202485 0.1204234 0.120512 0.1204841 0.1203816 0.1202664
 0.1201496 0.1199884 0.1197345 0.1193734 0.1189462 0.1185646 0.1184 0.1186199 0.1192938 0.1203444
 0.1216006 0.1229075 0.1241739 0.1253262 0.126273 0.126954 0.1273999 0.1277101 0.1279791 0.128258
 0.1285613 0.1288797 0.1291913 0.1294783 0.1297411 0.1300015 0.1302914 0.1306268 0.130984 0.1313114
 0.1315778 0.1318092 0.1320682 0.1323954 0.1327686 0.1331281 0.1334451 0.1337499 0.1340768 0.1344003
 0.1346619 0.1348501 0.1350186 0.13523 0.1355113 0.1358545 0.1362201 0.1365442 0.1367813 0.1369481
 0.137105 0.1372978 0.1375302 0.1377867 0.1380548 0.138324 0.1385842 0.1388382 0.1391054 0.1393968
 0.1396869 0.139927 0.1400954 0.1402269 0.1403803 0.1405833 0.1408141 0.1410349 0.1412354 0.1414453
 0.1417026 0.1420094 0.1423211 0.1425815 0.1427676 0.1429001 0.1430213 0.1431667 0.1433485 0.1435578
 0.1437754 0.1439849 0.1441815 0.1443734 0.1445744 0.1447902 0.1450142 0.1452367 0.1454536 0.1456647
 0.1458696 0.14607 0.146275 0.1465029 0.1467687 0.1470624 0.1473443 0.1475742 0.1477452 0.1478827
 0.1480153 0.148157 0.1483118 0.1484817 0.1486668 0.148865 0.1490722 0.1492837 0.1494963 0.1497098
 0.1499245 0.1501381 0.1503476 0.1505536 0.1507615 0.1509789 0.151207 0.151436 0.1516524 0.1518512
 0.1520388 0.152224 0.1524136 0.1526097 0.1528076 0.152998 0.1531776 0.1533538 0.1535366 0.1537285
 0.1539241 0.1541174 0.1543075 0.1545003 0.1547034 0.1549183 0.1551372 0.1553482 0.1555445 0.1557322
 0.1559243 0.1561266 0.1563318 0.1565299 0.1567186 0.1569034 0.157093 0.1572939 0.1575035 0.1577086
 0.1578985 0.1580774 0.158259 0.1584514 0.1586525 0.1588553 0.1590552 0.1592513 0.1594434 0.1596317
 0.1598222 0.1600252 0.1602424 0.1604628 0.1606766 0.1608864 0.1610995 0.1613141 0.1615233 0.161725
 0.1619259 0.1621364 0.162361 0.1625928 0.1628205 0.1630405 0.163257 0.1634721 0.1636809 0.1638767
 0.1640554 0.1642187 0.1643746 0.1645325 0.1646992 0.164878 0.1650649 0.1652497 0.165427 0.1656056
 0.1657973 0.1660031 0.1662142 0.1664218 0.1666228 0.1668221 0.1670271 0.1672362 0.1674375 0.1676263
 0.1678132 0.1680106 0.1682215 0.1684429 0.1686692 0.1688943 0.1691151 0.169332 0.1695435 0.1697491
 0.1699526 0.1701569 0.1703602 0.170564 0.1707734 0.1709876 0.1712004 0.1714085 0.1716115 0.1718101
 0.1720085 0.1722109 0.1724146 0.1726171 0.1728228 0.1730339 0.1732465 0.1734609 0.1736807 0.1739018
 0.1741179 0.1743299 0.1745382 0.1747406 0.1749445 0.1751609 0.1753853 0.1756037 0.1758118 0.1760144
 0.1762182 0.1764327 0.1766576 0.1768654 0.1769993 0.1769451 0.1764337 0.1749261 0.1715871 0.1654441
 0.1557768 0.1425763 0.1267096 0.1096096 0.09274013 0.07720903 0.06366329 0.05237993 0.04340915 0.03666597
 0.03199149 0.02925006 0.028428 0.02973743 0.03373215 0.04098041 0.05082957 0.06031527 0.06531779 0.06381501
 0.05781444 0.05152346 0.04785401 0.04701572 0.0477698 0.04905817 0.05054276 0.05240899 0.05498384 0.05836707
 0.06240842 0.06709899 0.07276665 0.07965386 0.08740723 0.09522049 0.1025223 0.1094223 0.1164452 0.1238954
 0.1315307 0.1387939 0.1452536 0.150825 0.1556893 0.1600935 0.1642074 0.168106 0.1718259 0.1753674
 0.1786084 0.1812663 0.1830347 0.1838168 0.1838365 0.1835109 0.1832034 0.183082 0.1831654 0.183429
 0.1838485 0.1843979 0.1850543 0.1858006 0.1866137 0.187463 0.1883187 0.1891492 0.1899238 0.1906306
 0.1912805 0.1918873 0.1924527 0.1929733 0.193448 0.1938805 0.1942794 0.1946537 0.1950067 0.1953417
 0.1956672 0.1959869 0.1962919 0.1965707 0.1968214 0.1970497 0.1972638 0.1974719 0.1976784 0.1978832
 0.1980885 0.1982983 0.1985143 0.1987348 0.1989571 0.199173 0.1993719 0.199553 0.1997281 0.199907
 0.2000911 0.2002815 0.2004824 0.2006922 0.200902 0.2011051 0.2013016 0.2014939 0.2016826 0.2018681
 0.2020539 0.2022454 0.2024425 0.2026372 0.2028254 0.2030158 0.2032193 0.2034362 0.20366 0.2038873
 0.2041135 0.2043304 0.2045377 0.2047449 0.2049546 0.2051506 0.2053148 0.205451 0.2055884 0.2057606
 0.2059779 0.2062201 0.2064582 0.2066792 0.2068871 0.2070863 0.2072742 0.2074449 0.207604 0.2077788
 0.2079994 0.2082621 0.2085304 0.2087803 0.2090193 0.2092575 0.2094919 0.2097224 0.2099501 0.2101568
 0.2103185 0.2104494 0.2106107 0.210861 0.2111968 0.2115487 0.2118467 0.2120827 0.2123003 0.2125406
 0.212816 0.2130989 0.2133088 0.2133688 0.2133279 0.2133721 0.2136512 0.2141301 0.2146497 0.2150898
 0.2154348 0.2157261 0.2159966 0.2162372 0.2164021 0.2164558 0.2164417 0.2164977 0.2167605 0.217226
 0.2177427 0.2181673 0.2184774 0.2187159 0.2189111 0.2190767 0.2191838 0.2191123 0.2187807 0.2183807
 0.2183266 0.2188536 0.2197479 0.220569 0.2210819 0.2213793 0.2216345 0.221893 0.222113 0.222207
 0.2219535 0.2211225 0.2199215 0.2191213 0.2194189 0.2207323 0.2223323 0.2235744 0.2243061 0.2246976
 0.2249556 0.2251877 0.2253202 0.2251058 0.2243955 0.2234994 0.2231063 0.2236476 0.2248144 0.2258916
 0.2264906 0.2267528 0.2269632 0.2272314 0.2274211 0.2271127 0.2258393 0.2237754 0.2220871 0.2221106
 0.2240447 0.2267125 0.2287277 0.2296852 0.2300509 0.2301431 0.2296669 0.2282503 0.2260011 0.2234526
 0.2214188 0.2209079 0.2224504 0.225238 0.2275797 0.2285765 0.2288779 0.2295823 0.2309211 0.2322616
 0.2329429 0.2327895 0.2319966 0.2307678 0.2292204 0.2277363 0.2271655 0.2282185 0.2306067 0.233153
 0.2348831 0.2357644 0.2361877 0.2358151 0.2333488 0.2280877 0.2218698 0.2185567 0.2206179 0.2265495
 0.2324951 0.2360373 0.2375139 0.2382072 0.2386356 0.2384108 0.2364435 0.2315185 0.2241863 0.2179892
 0.2170691 0.2220598 0.2293724 0.2345622 0.2353759 0.2319915 0.2262056 0.2208911 0.218822 0.220991
 0.2261842 0.2321809 0.2370828 0.2398301 0.2401872 0.2386307 0.2363046 0.2347516 0.2348037 0.2353444
 0.2341485 0.2307025 0.227072 0.2248588 0.2226982 0.2187618 0.2147846 0.2149146 0.2203346 0.2272955
 0.2313391 0.2318155 0.2310511 0.2300838 0.2268459 0.2191203 0.2087457 0.2016716 0.2027626 0.2107546
 0.2193921 0.2235613 0.2233499 0.2221768 0.2222227 0.2222161 0.2192332 0.212534 0.2054617 0.2026181
 0.2049439 0.2088649 0.2104878 0.208679 0.2036474 0.1957057 0.1875521 0.1850396 0.1922062 0.206302
 0.219971 0.2273107 0.2259623 0.2157227 0.1994333 0.184804 0.1806445 0.1889294 0.2023896 0.2112219
 0.2108449 0.2026339 0.1897508 0.1750608 0.1625186 0.1574585 0.1633632 0.1783872 0.1954487 0.2056881
 0.2033063 0.1901256 0.1761173 0.172198 0.1802042 0.1916018 0.1970724 0.1949936 0.1899993 0.1870402
 0.1885651 0.1941618 0.2009727 0.206362 0.2100035 0.2107958 0.2039826 0.1868578 0.1662976 0.1542454
 0.1553057 0.1643221 0.175932 0.1894122 0.2025508 0.2082967 0.2027138 0.1924676 0.1891944 0.1971475
 0.2095455 0.2168934 0.2163936 0.2124794 0.2099221 0.2087189 0.2065011 0.2040874 0.2056559 0.2130154
 0.2224777 0.2289812 0.2313437 0.2318165 0.2322422 0.2326542 0.2325699 0.2318277 0.2305005 0.2290063
 0.2279847 0.2275715 0.2272737 0.2267221 0.2256223 0.2225742 0.2153807 0.2041325 0.1931789 0.1876861
 0.1881556 0.1907613 0.1930259 0.1952544 0.1952391 0.1868013 0.167966 0.1476276 0.1390761 0.1471616
 0.1646838 0.1805755 0.18838 0.1867969 0.1763396 0.1594932 0.1433693 0.1375319 0.1462157 0.1642424
 0.1825269 0.1959094 0.2038321 0.2060302 0.2014802 0.1914252 0.1806763 0.1748999 0.1771284 0.1863762
 0.1980084 0.2050087 0.2013878 0.1880789 0.1755897 0.176316 0.1915758 0.2094803 0.2183062 0.2183971
 0.2175316 0.2188247 0.2191149 0.2173737 0.2181593 0.2253132 0.2362905 0.2446719 0.2458023 0.2386248
 0.2251212 0.2108324 0.2034222 0.2064856 0.2154005 0.2223212 0.2237689 0.2201536 0.2111148 0.197502
 0.1863506 0.1866494 0.1989153 0.2139967 0.2234748 0.2273283 0.2301302 0.2331759 0.2329375 0.2264516
 0.2163156 0.2091009 0.2088529 0.2135334 0.2184316 0.2211325 0.2215276 0.2189698 0.2126812 0.2049689
 0.201255 0.2053335 0.2154071 0.225756 0.2318451 0.2331401 0.2317244 0.2296112 0.2274166 0.2245459
 0.2205165 0.216673 0.2159378 0.2196967 0.2255918 0.2299384 0.231947 0.2340032 0.2379251 0.2424638
 0.2448276 0.2437308 0.2406098 0.2383536 0.238975 0.2420218 0.2449275 0.2452048 0.2428075 0.2403928
 0.2408754 0.244651 0.2495428 0.2532825 0.255358 0.2565404 0.2575529 0.2584358 0.2585217 0.256946
 0.2538762 0.2512175 0.2512606 0.2544109 0.2588028 0.2622228 0.263893 0.2643467 0.264212 0.2635609
 0.262265 0.2605825 0.259175 0.258584 0.2588377 0.259586 0.26046 0.2612353 0.2618119 0.2621896
 0.2624331 0.2625941 0.2626914 0.2627609 0.2628416 0.2628994 0.2628606 0.2627591 0.2627583 0.262966
 0.2632919 0.2635445 0.2636017 0.2634079 0.2628796 0.2619444 0.2606673 0.2592166 0.2576753 0.2559965
 0.2542427 0.2528278 0.2523813 0.2532786 0.2552932 0.2577343 0.2599134 0.2614858 0.2624465 0.2629459
 0.263155 0.2632164 0.2632143 0.2631637 0.2630424 0.2628387 0.2625653 0.2622389 0.2618693 0.2614748
 0.2610955 0.2607695 0.2604922 0.2602111 0.2598655 0.2594313 0.25893 0.2584054 0.2578854 0.2573505
 0.2567405 0.2559996 0.2551218 0.2541614 0.253208 0.252342 0.2515812 0.2508704 0.2501323 0.2493237
 0.2484232 0.2473948 0.2462264 0.2450058 0.2438985 0.2430164 0.2423302 0.2417211 0.2410807 0.2403482
 0.2394989 0.2385425 0.2375174 0.236457 0.2353663 0.2342364 0.2330598 0.2318204 0.2304942 0.2290703
 0.2275581 0.2259756 0.2243488 0.222709 0.221056 0.2193162 0.2173549 0.2150292 0.2122246 0.208865
 0.2049287 0.2004758 0.1956566 0.1906804 0.1857591 0.1810665 0.1767339 0.1728621 0.1695285 0.1667953
 0.1647193 0.1633438 0.162681 0.1627172 0.1634355 0.1648138 0.1667938 0.1692641 0.1720731 0.1750495
 0.1780181 0.1808234 0.1833772 0.1856961 0.1878716 0.18997 0.1919639 0.193776 0.19537 0.196765
 0.1979805 0.1990077 0.1998418 0.2005136 0.2010754 0.2015659 0.2019953 0.2023619 0.2026728 0.2029416
 0.2031759 0.2033767 0.2035512 0.2037184 0.2039022 0.2041188 0.2043733 0.2046751 0.2050496 0.205517
 0.2060588 0.2066298 0.207206 0.2077995 0.2084261 0.2090891 0.209801 0.2105993 0.2115303 0.2126219
 0.2138683 0.2152279 0.2166315 0.2179925 0.2192182 0.2202271 0.2209731 0.2214561 0.2217144 0.2218051
 0.2217759 0.2216405 0.2213847 0.2210019 0.2205158 0.2199646 0.2193744 0.218754 0.218105 0.217429
 0.2167301 0.2160228 0.2153326 0.2146771 0.2140478 0.2134217 0.2127919 0.2121713 0.2115664 0.2109671
 0.2103654 0.2097667 0.2091787 0.2086052 0.2080454 0.207481 0.2068641 0.206141 0.2052945 0.2043485
 0.2033315 0.2022453 0.2010737 0.1998083 0.1984588 0.1970407 0.1955576 0.1939998 0.1923579 0.190631
 0.188816 0.1868998 0.1848856 0.1828307 0.1808396 0.1790024 0.1773385 0.1757992 0.1743236 0.1728937
 0.1715339 0.1702628 0.1690608 0.1678965 0.166767 0.1656933 0.1646896 0.163753 0.1628772 0.1620641
 0.1613272 0.1606804 0.1601236 0.1596461 0.1592443 0.1589196 0.1586707 0.1585063 0.1584461 0.1584795
 0.158542 0.1585572 0.158492 0.1583645 0.1582201 0.1581042 0.1580385 0.1580154 0.1580108 0.1579829
 0.1578565 0.1575323 0.1569233 0.155987 0.1547361 0.153227 0.1515329 0.149738 0.1479555 0.1463085
 0.1448761 0.143688 0.1427615 0.1420892 0.1415997 0.1411992 0.1408632 0.1406552 0.1406521 0.1408518
 0.1411334 0.1413322 0.1413901 0.1414152 0.1415744 0.1419595 0.1425552 0.1432752 0.144009 0.1446725
 0.1452187 0.1456106 0.1458319 0.1459218 0.1459441 0.1459204 0.145835 0.1456791 0.1454563 0.1451722
 0.1448331 0.1444274 0.1439273 0.1433304 0.1426627 0.1419315 0.1411285 0.1402539 0.139275 0.1381289
 0.1368617 0.135709 0.1349652 0.1348065 0.1352273 0.1360655 0.1371033 0.1382033 0.1392793 0.1401252
 0.1404849 0.1404419 0.14059 0.1416024 0.1436026 0.146037 0.1481658 0.1495983 0.1503338 0.1504636
 0.1500298 0.1490815 0.1476495 0.1456956 0.1432241 0.140362 0.13726 0.1340603 0.1309752 0.1282209
 0.1258927 0.1240117 0.1225866 0.1216493 0.1212993 0.1211377 0.1192616 0.1132513 0.1039173 0.09695824
 0.09815639 0.1068691 0.1164945 0.1214428 0.121574 0.1198802 0.1184213 0.1174952 0.1169819 0.1170299
 0.1177854 0.1191046 0.1205767 0.1217782 0.122541 0.1229188 0.1228852 0.1220753 0.1197302 0.1149865
 0.1075839 0.09843493 0.08928993 0.08172293 0.07643972 0.07331009 0.07171354 0.07089181 0.07032102 0.06996463
 0.07016052 0.07123095 0.07321411 0.07593296 0.07917399 0.08267455 0.08603332 0.08885768 0.09104 0.09274972
 0.09413198 0.0951379 0.09565733 0.09568889 0.09533822 0.09473249 0.09398219 0.09316696 0.09228779 0.09126066
 0.09005712 0.08886056 0.08797119 0.08752102 0.08738048 0.08735701 0.08736275 0.087377 0.08737688 0.08734661
 0.0872933 0.08725658 0.08732834 0.08760218 0.08805958 0.0885468 0.08889326 0.08904447 0.08907852 0.08906625
 0.08890933 0.08842962 0.08768286 0.08699581 0.086524 0.08595856 0.08492711 0.0835769 0.0825002 0.08210973
 0.08228419 0.08260685 0.08275838 0.08265775 0.08242804 0.08234242 0.08264783 0.08326674 0.08375891 0.08373927
</values></Ydata></ScRf><Data_Parameters_AB><parameter name="DPF">1</parameter><parameter name="NPT">3497</parameter><parameter name="FXV">3996</parameter><parameter name="LXV">500</parameter><parameter name="CSF">1</parameter><parameter name="MXY">0.0235518477857113</parameter><parameter name="MNY">-0.110209681093693</parameter><parameter name="DAT">27/05/2022</parameter><parameter name="TIM">12:03:29.520 (GMT+2)</parameter><parameter name="DXU">WN</parameter></Data_Parameters_AB><AB__Qtest><MainReport name="Quality Test Report"><Header><Line><Legend>Test result ok/not ok [1/0]: </Legend><Value>0</Value></Line><Line><Legend>Method file: </Legend><Value>C:\Users\Public\Documents\Bruker\OPUS_8.2.28\QT\IRBT_v3_default.QT</Value></Line></Header><Matrix><Line><Legend></Legend><Legend>min</Legend><Legend>max</Legend><Legend>measured</Legend></Line><Line><Value>Absorption (X-Range 1):</Value><Value>0.400000</Value><Value>2.000000</Value><Value>0.105940</Value></Line><Line><Value>Noise (X-Range 4):</Value><Value></Value><Value>0.000300</Value><Value>0.000043</Value></Line><Line><Value>Signal/Noise (X-Range 2):</Value><Value>200.000000</Value><Value></Value><Value>40.047406</Value></Line><Line><Value>Signal/Noise (X-Range 3):</Value><Value>40.000000</Value><Value></Value><Value>27.241347</Value></Line><Line><Value>Water vapour (X-Range 5):</Value><Value></Value><Value>0.000300</Value><Value>0.000022</Value></Line><Line><Value>Signal/Water (X-Range 2):</Value><Value>100.000000</Value><Value></Value><Value>78.316469</Value></Line><Line><Value>Signal/Water (X-Range 3):</Value><Value>20.000000</Value><Value></Value><Value>53.273016</Value></Line><Line><Value>Fringes (X-Range 6):</Value><Value></Value><Value>0.000100</Value><Value>0.000051</Value></Line></Matrix></MainReport></AB__Qtest><Data_Parameters_ScSm><parameter name="DPF">1</parameter><parameter name="NPT">1814</parameter><parameter name="FXV">3996.33169228125</parameter><parameter name="LXV">499.541461535156</parameter><parameter name="CSF">1</parameter><parameter name="MXY">0.285916805267334</parameter><parameter name="MNY">0.0366391241550446</parameter><parameter name="DAT">27/05/2022</parameter><parameter name="TIM">12:03:29.520 (GMT+2)</parameter><parameter name="DXU">WN</parameter></Data_Parameters_ScSm><Data_Parameters_ScRf><parameter name="DPF">1</parameter><parameter name="NPT">1820</parameter><parameter name="FXV">4004.04661832813</parameter><parameter name="LXV">495.683998511719</parameter><parameter name="CSF">1</parameter><parameter name="MXY">0.264346748590469</parameter><parameter name="MNY">0.0284280013293028</parameter><parameter name="DAT">27/05/2022</parameter><parameter name="TIM">12:03:03.423 (GMT+2)</parameter><parameter name="DXU">WN</parameter></Data_Parameters_ScRf><Optic_Parameters_Rf><parameter name="APR">0</parameter><parameter name="APT">Open</parameter><parameter name="BMS">KBr</parameter><parameter name="DTC">RT-DLaTGS_IR-Biotyper [Microplate reader]</parameter><parameter name="HPF">0</parameter><parameter name="LPF">10.0</parameter><parameter name="LPV">4000</parameter><parameter name="PGR">0</parameter><parameter name="RCH">Module port</parameter><parameter name="RDX">0</parameter><parameter name="SRC">MIR</parameter><parameter name="VEL">10.0</parameter><parameter name="SON">Off</parameter></Optic_Parameters_Rf><Acquisition_Parameters_Rf><parameter name="ADT">1</parameter><parameter name="AQM">DD</parameter><parameter name="CFE">0</parameter><parameter name="COR">0</parameter><parameter name="DEL">0</parameter><parameter name="DLY">0</parameter><parameter name="HFW">8000</parameter><parameter name="LFW">0</parameter><parameter name="NSR">32</parameter><parameter name="PLF">AB</parameter><parameter name="RES">6</parameter><parameter name="RGN">-1</parameter><parameter name="STR">0</parameter><parameter name="TCL">MakeCompatibleScalar (0, {WSV=1.000000, ARV=0});</parameter><parameter name="TDL">37</parameter><parameter name="RPO">0</parameter></Acquisition_Parameters_Rf><FT_-_Parameters_Rf><parameter name="APF">B3</parameter><parameter name="HFQ">500</parameter><parameter name="LFQ">4000</parameter><parameter name="NLI">0</parameter><parameter name="PHR">24</parameter><parameter name="PHZ">ML</parameter><parameter name="SPZ">NO</parameter><parameter name="ZFF">1</parameter></FT_-_Parameters_Rf><Optic_Parameters_><parameter name="APR">0</parameter><parameter name="APT">Open</parameter><parameter name="BMS">KBr</parameter><parameter name="CHN">Module port</parameter><parameter name="DTC">RT-DLaTGS_IR-Biotyper [Microplate reader]</parameter><parameter name="HPF">0</parameter><parameter name="LPF">10.0</parameter><parameter name="LPV">4000</parameter><parameter name="PGN">0</parameter><parameter name="RDX">0</parameter><parameter name="SRC">MIR</parameter><parameter name="VEL">10.0</parameter><parameter name="SON">Off</parameter></Optic_Parameters_><FT_-_Parameters_><parameter name="APF">B3</parameter><parameter name="HFQ">500</parameter><parameter name="LFQ">4000</parameter><parameter name="NLI">0</parameter><parameter name="PHR">24</parameter><parameter name="PHZ">ML</parameter><parameter name="SPZ">NO</parameter><parameter name="ZFF">1</parameter></FT_-_Parameters_><Acquisition_Parameters_><parameter name="ADT">1</parameter><parameter name="AQM">DD</parameter><parameter name="CFE">0</parameter><parameter name="COR">0</parameter><parameter name="DEL">0</parameter><parameter name="DLY">0</parameter><parameter name="HFW">8000</parameter><parameter name="LFW">0</parameter><parameter name="NSS">32</parameter><parameter name="PLF">AB</parameter><parameter name="RES">6</parameter><parameter name="SOT">0</parameter><parameter name="TCL">MakeCompatibleScalar (0, {WSV=1.000000, ARV=0});</parameter><parameter name="TDL">37</parameter><parameter name="SPO">0</parameter><parameter name="SGN">-1</parameter></Acquisition_Parameters_><Instrument_Parameters_Rf><parameter name="HFL">15800.168544</parameter><parameter name="LFL">0</parameter><parameter name="LWN">15800.168544</parameter><parameter name="ABP">32197</parameter><parameter name="SSP">1</parameter><parameter name="ARG">2</parameter><parameter name="ASG">2</parameter><parameter name="ASS">32</parameter><parameter name="GFW">16</parameter><parameter name="GBW">16</parameter><parameter name="BFW">0</parameter><parameter name="BBW">0</parameter><parameter name="PKA">7266</parameter><parameter name="PKL">4996</parameter><parameter name="PRA">7450</parameter><parameter name="PRL">5001</parameter><parameter name="P2A">1</parameter><parameter name="P2L">1</parameter><parameter name="P2R">1</parameter><parameter name="P2K">1</parameter><parameter name="DAQ">0</parameter><parameter name="AG2">1</parameter><parameter name="SSM">1</parameter><parameter name="RSN">24926</parameter><parameter name="CRR">0</parameter><parameter name="SRT">1653652983.423</parameter><parameter name="DUR">19.635986328125</parameter><parameter name="TSC">27.9</parameter><parameter name="MVD">0.249102383852005</parameter><parameter name="AN1">0.22580351030046</parameter><parameter name="AN2">0</parameter><parameter name="VSN">2.485 Apr  4 2017</parameter><parameter name="SRN">0085</parameter><parameter name="CAM">0</parameter><parameter name="INS">IR-Biotyper</parameter><parameter name="FOC">69</parameter><parameter name="RDY">1</parameter><parameter name="ARS">32</parameter></Instrument_Parameters_Rf><Sample_Parameters_><parameter name="BLD"></parameter><parameter name="CNM">Admin</parameter><parameter name="CPY"></parameter><parameter name="DPM"></parameter><parameter name="EXP">IRBT_v3_32Scans.XPM</parameter><parameter name="LCT"></parameter><parameter name="SFM">Microplate, HTS-XT</parameter><parameter name="SNM">220527-1039(v.2)_GFG29M (D_7)_G8_816c9163-4d3f-4278-a3e5-c8ee2cf1970c.0</parameter><parameter name="XPP">C:\Users\Public\Documents\Bruker\OPUS_8.2.28\XPM</parameter><parameter name="IST">OK</parameter><parameter name="CPG">1252</parameter><parameter name="UID">25292394-1996-405f-978d-06452ea8e4ff</parameter></Sample_Parameters_><Instrument_Parameters_><parameter name="HFL">15800.168544</parameter><parameter name="LFL">0</parameter><parameter name="LWN">15800.168544</parameter><parameter name="ABP">32197</parameter><parameter name="SSP">1</parameter><parameter name="ASG">2</parameter><parameter name="ARG">2</parameter><parameter name="ASS">32</parameter><parameter name="GFW">16</parameter><parameter name="GBW">16</parameter><parameter name="BFW">0</parameter><parameter name="BBW">0</parameter><parameter name="PKA">8310</parameter><parameter name="PKL">4988</parameter><parameter name="PRA">8588</parameter><parameter name="PRL">4993</parameter><parameter name="P2A">1</parameter><parameter name="P2L">1</parameter><parameter name="P2R">1</parameter><parameter name="P2K">1</parameter><parameter name="DAQ">0</parameter><parameter name="AG2">1</parameter><parameter name="SSM">1</parameter><parameter name="RSN">13089</parameter><parameter name="CRR">0</parameter><parameter name="SRT">1653653009.521</parameter><parameter name="DUR">19.635986328125</parameter><parameter name="TSC">27.9</parameter><parameter name="MVD">0.204826205968857</parameter><parameter name="AN1">0.225834091412909</parameter><parameter name="AN2">0</parameter><parameter name="VSN">2.485 Apr  4 2017</parameter><parameter name="SRN">0085</parameter><parameter name="CAM">0</parameter><parameter name="INS">IR-Biotyper</parameter><parameter name="FOC">69</parameter><parameter name="RDY">1</parameter></Instrument_Parameters_><History/></OPUSDataFile>
