<?xml version="1.0" encoding="UTF-8" ?>
<OPUSDataFile><AB><Ydata ylabel="Absorbance Units"><values byteorder="INTEL" format="FLOAT32" numvalues="3497"> -0.1078937 -0.1078936 -0.1078937 -0.1078944 -0.1078929 -0.107889 -0.1078704 -0.1078373 -0.1077869 -0.1077227
 -0.1076634 -0.107613 -0.1075973 -0.1076131 -0.1076687 -0.1077525 -0.1078507 -0.1079519 -0.1080362 -0.1081033
 -0.1081437 -0.1081693 -0.1081832 -0.108199 -0.1082242 -0.1082598 -0.1083092 -0.1083604 -0.1084121 -0.1084531
 -0.1084819 -0.1084968 -0.1084977 -0.1084878 -0.1084672 -0.1084391 -0.1084037 -0.1083649 -0.1083238 -0.1082861
 -0.108253 -0.1082299 -0.1082174 -0.1082192 -0.108234 -0.108263 -0.1083008 -0.1083442 -0.1083873 -0.1084257
 -0.108458 -0.1084833 -0.1085005 -0.1085103 -0.108506 -0.1084859 -0.1084496 -0.1083956 -0.1083445 -0.1082975
 -0.1082811 -0.1082948 -0.1083387 -0.1084076 -0.1084695 -0.1085225 -0.1085394 -0.1085288 -0.108496 -0.1084528
 -0.1084219 -0.1084071 -0.1084238 -0.1084648 -0.1085315 -0.108609 -0.108691 -0.1087615 -0.108813 -0.1088381
 -0.1088317 -0.108803 -0.1087512 -0.1086977 -0.1086437 -0.108613 -0.1086067 -0.1086406 -0.1087139 -0.1088222
 -0.1089602 -0.1090935 -0.1092159 -0.1092819 -0.1092997 -0.109261 -0.109188 -0.1091153 -0.1090532 -0.1090318
 -0.1090389 -0.1090786 -0.1091254 -0.1091667 -0.1091845 -0.109165 -0.1091185 -0.1090412 -0.1089637 -0.1088905
 -0.1088426 -0.1088239 -0.1088271 -0.108852 -0.1088769 -0.1089017 -0.1089192 -0.1089321 -0.1089544 -0.1089876
 -0.1090469 -0.1091272 -0.1092263 -0.1093329 -0.1094271 -0.1095017 -0.1095377 -0.1095425 -0.1095141 -0.1094665
 -0.1094068 -0.1093439 -0.1092818 -0.109229 -0.1091866 -0.1091705 -0.1091823 -0.1092426 -0.1093549 -0.1095186
 -0.1097344 -0.1099251 -0.1100848 -0.1101023 -0.1099904 -0.109774 -0.1094762 -0.1092007 -0.1089507 -0.108788
 -0.1087017 -0.1087058 -0.1087759 -0.1088922 -0.1090247 -0.1091398 -0.109228 -0.1092699 -0.1092841 -0.109273
 -0.1092541 -0.1092343 -0.1092132 -0.1091919 -0.109167 -0.1091378 -0.1091097 -0.109083 -0.1090672 -0.1090628
 -0.1090762 -0.1091069 -0.109156 -0.1092212 -0.1092952 -0.1093732 -0.1094399 -0.1094911 -0.1095113 -0.1095038
 -0.1094638 -0.109404 -0.1093314 -0.1092608 -0.1092028 -0.1091651 -0.1091548 -0.1091686 -0.1092083 -0.1092627
 -0.1093306 -0.1094003 -0.1094709 -0.1095289 -0.1095736 -0.1095863 -0.1095668 -0.1095077 -0.1094119 -0.1092944
 -0.1091591 -0.1090295 -0.1089077 -0.1088107 -0.1087384 -0.1086999 -0.1086897 -0.1087081 -0.1087412 -0.1087791
 -0.1088073 -0.1088126 -0.1087951 -0.1087489 -0.1086895 -0.108619 -0.1085534 -0.1084962 -0.1084556 -0.108433
 -0.108431 -0.1084499 -0.1084858 -0.108538 -0.108592 -0.1086464 -0.1086822 -0.1087006 -0.108695 -0.1086713
 -0.108641 -0.1086102 -0.1085957 -0.1085982 -0.108627 -0.1086752 -0.1087404 -0.1088153 -0.1088927 -0.1089768
 -0.109067 -0.1091718 -0.1092962 -0.1094313 -0.1095789 -0.1097132 -0.1098318 -0.1099179 -0.1099704 -0.1099726
 -0.1099234 -0.1097995 -0.1096055 -0.1093593 -0.1090742 -0.1088133 -0.1085852 -0.1084479 -0.1083938 -0.1084457
 -0.1085659 -0.1087213 -0.1088701 -0.1089555 -0.1089874 -0.1089491 -0.1088802 -0.1087945 -0.1087123 -0.108645
 -0.108584 -0.1085306 -0.1084667 -0.1083892 -0.1082986 -0.1081942 -0.1080977 -0.1080101 -0.1079536 -0.1079273
 -0.1079391 -0.1079831 -0.1080429 -0.1081079 -0.1081381 -0.108135 -0.1080764 -0.1079852 -0.1078824 -0.1077822
 -0.1077095 -0.1076524 -0.1076134 -0.1075708 -0.1075137 -0.1074386 -0.1073393 -0.1072342 -0.1071259 -0.1070279
 -0.1069432 -0.1068644 -0.1067913 -0.1067061 -0.1066087 -0.1064958 -0.1063702 -0.1062526 -0.1061437 -0.1060587
 -0.1059934 -0.1059437 -0.1059088 -0.1058847 -0.1058744 -0.1058827 -0.1059047 -0.105943 -0.1059766 -0.105996
 -0.1059789 -0.1059117 -0.1057923 -0.1056161 -0.1053919 -0.1051196 -0.1048117 -0.1044684 -0.1041118 -0.1037433
 -0.1033832 -0.1030324 -0.1027052 -0.1024028 -0.1021416 -0.101922 -0.1017567 -0.1016391 -0.1015597 -0.1015078
 -0.1014576 -0.1014079 -0.1013467 -0.1012762 -0.1012005 -0.101102 -0.1009738 -0.1007937 -0.1005433 -0.1002438
 -0.09989353 -0.09953294 -0.09917098 -0.09882178 -0.09848914 -0.09816574 -0.09785134 -0.09753928 -0.09723002 -0.09693506
 -0.09665631 -0.0964163 -0.09621146 -0.09604435 -0.09589826 -0.09572935 -0.09552401 -0.09522495 -0.09485851 -0.09442968
 -0.09398079 -0.0935566 -0.09316799 -0.09284008 -0.09255207 -0.09230521 -0.09206326 -0.09181511 -0.09154151 -0.09123339
 -0.09090794 -0.09056556 -0.09022808 -0.08989761 -0.0895673 -0.08923615 -0.08887959 -0.08849844 -0.08808623 -0.08764803
 -0.08720168 -0.08675171 -0.08631951 -0.08590717 -0.08552995 -0.08518383 -0.08487394 -0.08458317 -0.0843 -0.0840048
 -0.08367858 -0.08332315 -0.08293176 -0.08252231 -0.08209983 -0.08167119 -0.08123934 -0.08080081 -0.08035431 -0.07991012
 -0.07946851 -0.07905021 -0.07865568 -0.07829007 -0.07795141 -0.07762676 -0.07731377 -0.07699504 -0.07667039 -0.07632916
 -0.07597536 -0.07561032 -0.07524112 -0.07487855 -0.07452478 -0.07418934 -0.07385981 -0.07353476 -0.07319099 -0.0728156
 -0.07240433 -0.07194772 -0.07147568 -0.07099104 -0.07052665 -0.07008842 -0.06968065 -0.06930484 -0.06893679 -0.06857516
 -0.06819324 -0.06779142 -0.06736074 -0.06690318 -0.06642201 -0.06591979 -0.06540276 -0.06487857 -0.0643627 -0.06386636
 -0.06341344 -0.06300284 -0.06264696 -0.06232551 -0.06203083 -0.06174156 -0.06144426 -0.06113623 -0.0608119 -0.06048355
 -0.06015297 -0.05982798 -0.05951091 -0.05919407 -0.05887735 -0.05854605 -0.05819977 -0.05783327 -0.05744789 -0.05705234
 -0.05664808 -0.05624707 -0.05584791 -0.05545345 -0.05506013 -0.05466171 -0.05425762 -0.05384233 -0.05342288 -0.05300205
 -0.0525915 -0.05220072 -0.05183277 -0.0514947 -0.05117225 -0.05086448 -0.05055034 -0.05022471 -0.04987906 -0.04951038
 -0.049128 -0.04873198 -0.04834059 -0.04795469 -0.04758907 -0.04724319 -0.04691937 -0.04661537 -0.04632246 -0.04603874
 -0.04575418 -0.04546816 -0.0451749 -0.04487409 -0.04456223 -0.04424157 -0.04391205 -0.04357873 -0.04324553 -0.04291344
 -0.04258461 -0.04225558 -0.04192387 -0.04159613 -0.04127169 -0.04096714 -0.0406859 -0.04042601 -0.0401887 -0.03994134
 -0.03968235 -0.03938048 -0.03903807 -0.03866023 -0.03825424 -0.03785649 -0.03747159 -0.03713422 -0.03683938 -0.03659648
 -0.03639153 -0.03620962 -0.03603858 -0.03585945 -0.03567206 -0.03546995 -0.03525838 -0.03503969 -0.03481187 -0.03457493
 -0.03432609 -0.03406326 -0.0337949 -0.03352126 -0.03325471 -0.03299637 -0.03275101 -0.03251867 -0.0322971 -0.03208525
 -0.03187387 -0.03166048 -0.03142737 -0.03117515 -0.03089319 -0.03059086 -0.03028092 -0.02997387 -0.02969242 -0.02943471
 -0.02920934 -0.02900498 -0.02881589 -0.02863606 -0.02846006 -0.02829045 -0.02812737 -0.02797163 -0.02782437 -0.02767993
 -0.02753784 -0.02739269 -0.02724389 -0.02709118 -0.0269345 -0.02677367 -0.02660792 -0.02642989 -0.02623888 -0.0260258
 -0.02579451 -0.02554987 -0.02530047 -0.02506703 -0.02485297 -0.02467562 -0.02452416 -0.02439705 -0.02427563 -0.02414533
 -0.02399923 -0.02382627 -0.02364225 -0.02344771 -0.02326669 -0.02310634 -0.0229697 -0.02286051 -0.02275399 -0.02264845
 -0.02252426 -0.02238123 -0.02223643 -0.02209274 -0.02198615 -0.02191473 -0.0218906 -0.02190435 -0.02193409 -0.02197124
 -0.02198625 -0.02197901 -0.02193455 -0.02186249 -0.02176525 -0.02165666 -0.02154788 -0.02144436 -0.02135493 -0.02126661
 -0.02117857 -0.02107249 -0.02094177 -0.02079042 -0.02061517 -0.02044916 -0.02029427 -0.0201868 -0.02012812 -0.02012789
 -0.02018323 -0.0202712 -0.02038704 -0.02049544 -0.0205943 -0.02065813 -0.02068873 -0.02067662 -0.02062684 -0.02053997
 -0.02042804 -0.02030001 -0.02017491 -0.0200684 -0.01999263 -0.01996139 -0.01996309 -0.02000068 -0.02004471 -0.02008964
 -0.02011309 -0.02010961 -0.0200814 -0.02002722 -0.01997043 -0.01991231 -0.01988036 -0.01987474 -0.01990893 -0.0199791
 -0.020075 -0.02018942 -0.0202951 -0.02038597 -0.02043457 -0.02044266 -0.02039713 -0.02031334 -0.02019778 -0.02007653
 -0.01996956 -0.01989443 -0.01986982 -0.01988248 -0.01993704 -0.01999596 -0.02005235 -0.02007692 -0.02006312 -0.02000819
 -0.01991095 -0.0197799 -0.01961545 -0.01942219 -0.01920157 -0.01896683 -0.01872402 -0.01851047 -0.01833233 -0.01823304
 -0.01820479 -0.0182589 -0.01836778 -0.01849845 -0.01862146 -0.01868932 -0.0187016 -0.01863385 -0.01852633 -0.01838658
 -0.01826902 -0.01819471 -0.01819098 -0.01827269 -0.01842046 -0.01863687 -0.01887367 -0.01912728 -0.01935778 -0.0195634
 -0.0197374 -0.01988144 -0.0200113 -0.02012683 -0.02023706 -0.02033664 -0.02041314 -0.02046185 -0.02046231 -0.02042382
 -0.02034421 -0.02025374 -0.02017902 -0.02015481 -0.02021847 -0.02037475 -0.02064502 -0.0209875 -0.02139897 -0.02181711
 -0.02222754 -0.02258898 -0.02289142 -0.02313083 -0.02330467 -0.02343716 -0.02352971 -0.02362114 -0.02371305 -0.02383834
 -0.02399317 -0.02417676 -0.02437976 -0.02456922 -0.02474391 -0.02487981 -0.02499338 -0.02509753 -0.02521114 -0.02536369
 -0.02555141 -0.0257869 -0.02604169 -0.02630752 -0.02655275 -0.02676339 -0.02692728 -0.02703537 -0.02710618 -0.02713779
 -0.02717521 -0.02722165 -0.02731976 -0.02747151 -0.02768109 -0.0279452 -0.02822833 -0.02852713 -0.02880368 -0.02906084
 -0.02928754 -0.02948932 -0.02967381 -0.0298428 -0.03000208 -0.03015256 -0.03029546 -0.03043707 -0.03058125 -0.03073619
 -0.03090866 -0.03109688 -0.03130424 -0.03151595 -0.03172967 -0.03193164 -0.03211828 -0.03229155 -0.03245063 -0.03261014
 -0.03277078 -0.03294349 -0.03312789 -0.03332297 -0.03352754 -0.03373462 -0.03394342 -0.0341478 -0.03434729 -0.03453771
 -0.03471937 -0.03488943 -0.03505284 -0.03521205 -0.03537656 -0.03555441 -0.03575077 -0.03597335 -0.03621217 -0.03646786
 -0.03672058 -0.03696525 -0.03719185 -0.03739658 -0.03758807 -0.03776632 -0.03794613 -0.03812827 -0.03831856 -0.03851654
 -0.03871854 -0.03892379 -0.03912607 -0.0393253 -0.03951724 -0.03970357 -0.03988515 -0.04006559 -0.04025092 -0.04044362
 -0.04065008 -0.04086689 -0.04109591 -0.04132557 -0.04155308 -0.04175976 -0.04193863 -0.04207658 -0.04216498 -0.0422216
 -0.04224326 -0.04228431 -0.04234877 -0.04248765 -0.04270367 -0.04299472 -0.0433562 -0.04373177 -0.04411548 -0.04444269
 -0.04471599 -0.04490576 -0.04502726 -0.04509669 -0.04513698 -0.04519216 -0.04527519 -0.04542378 -0.04562098 -0.04587208
 -0.04613918 -0.04640207 -0.04664209 -0.04684239 -0.04702247 -0.04718325 -0.04734677 -0.04752008 -0.04768816 -0.04785184
 -0.04797192 -0.04804634 -0.04806056 -0.04801787 -0.04795452 -0.04787791 -0.04785106 -0.04787463 -0.04798927 -0.04818008
 -0.04843618 -0.04873516 -0.04903386 -0.04932469 -0.04957776 -0.04980813 -0.05001802 -0.05022087 -0.05042932 -0.050632
 -0.05082874 -0.05100348 -0.05114818 -0.05127651 -0.05138741 -0.05151097 -0.05165141 -0.05180827 -0.05198172 -0.05213545
 -0.05226849 -0.05235697 -0.05240567 -0.05243073 -0.05243737 -0.05245452 -0.0524796 -0.05252156 -0.05257443 -0.05263063
 -0.05269087 -0.05275042 -0.05281926 -0.05290158 -0.05301199 -0.05315942 -0.05335287 -0.05360151 -0.05389189 -0.05422788
 -0.05456654 -0.05490365 -0.05519153 -0.05542358 -0.05559087 -0.0556925 -0.05577158 -0.0558314 -0.05592813 -0.05605981
 -0.05624566 -0.05647603 -0.05672661 -0.05698982 -0.05723343 -0.0574602 -0.05765948 -0.05783849 -0.0580024 -0.05815385
 -0.05829639 -0.05843168 -0.05855978 -0.05868822 -0.05881993 -0.05895954 -0.05911068 -0.05926429 -0.05941973 -0.0595669
 -0.05970361 -0.05984001 -0.05997652 -0.06013393 -0.06031194 -0.06051147 -0.06072896 -0.06094183 -0.06114985 -0.06133782
 -0.06151308 -0.06168612 -0.06186228 -0.06205874 -0.0622676 -0.06248901 -0.06270724 -0.06290864 -0.06308664 -0.06323171
 -0.06335074 -0.06344426 -0.0635186 -0.06357669 -0.06361514 -0.06363351 -0.06363042 -0.06360438 -0.06357286 -0.06353667
 -0.06353033 -0.06355522 -0.06363904 -0.06377893 -0.06397293 -0.06421313 -0.06447008 -0.06473682 -0.06498068 -0.06520148
 -0.06538384 -0.06553143 -0.06564401 -0.06572097 -0.06576291 -0.06576525 -0.06572396 -0.06564217 -0.06551626 -0.06536683
 -0.06519577 -0.06503294 -0.06488422 -0.06476474 -0.06467866 -0.06460752 -0.06455069 -0.0644643 -0.06434668 -0.0641638
 -0.06391938 -0.06361822 -0.06326868 -0.06290508 -0.0625316 -0.06217767 -0.06183851 -0.06151992 -0.06121439 -0.06091435
 -0.06061736 -0.06031877 -0.06001859 -0.05971714 -0.05940916 -0.05909354 -0.05876276 -0.05841278 -0.05804899 -0.05766886
 -0.05729894 -0.05694082 -0.05662602 -0.05635665 -0.0561414 -0.05597905 -0.05585061 -0.055755 -0.05567415 -0.05561234
 -0.055577 -0.05557137 -0.05561232 -0.05568834 -0.05579221 -0.05589977 -0.05597873 -0.05601437 -0.05597953 -0.05588306
 -0.05572041 -0.05551009 -0.05525974 -0.05497565 -0.0546624 -0.05431382 -0.05392945 -0.05350437 -0.05303752 -0.05253151
 -0.0519863 -0.05141284 -0.05081222 -0.05020357 -0.04958784 -0.04898259 -0.04838457 -0.04779211 -0.0471983 -0.04658204
 -0.04594588 -0.04527504 -0.0446008 -0.0439406 -0.04336367 -0.04291992 -0.04270088 -0.04277016 -0.0431904 -0.04401451
 -0.04521101 -0.04680302 -0.04864037 -0.05071488 -0.05281279 -0.05491272 -0.05684192 -0.0585876 -0.06009113 -0.06135502
 -0.06242162 -0.06329833 -0.06405526 -0.06469442 -0.06525949 -0.0657509 -0.06618854 -0.06657978 -0.06694522 -0.06729393
 -0.06764766 -0.06800346 -0.06836915 -0.06872986 -0.06907917 -0.06940592 -0.06970289 -0.06997002 -0.07020564 -0.07041302
 -0.0705927 -0.07074581 -0.07087268 -0.07097229 -0.0710447 -0.07108279 -0.07108628 -0.07104784 -0.07097067 -0.07087064
 -0.07075682 -0.07067437 -0.07062829 -0.07065944 -0.07075574 -0.07091936 -0.07112444 -0.07134145 -0.07154688 -0.07171067
 -0.07182055 -0.0718608 -0.07182874 -0.07171944 -0.07153523 -0.07127639 -0.07094239 -0.0705337 -0.07004444 -0.06947151
 -0.0688358 -0.0681366 -0.06748012 -0.06687684 -0.06652134 -0.06642231 -0.06674845 -0.06747359 -0.06860052 -0.07006085
 -0.07168461 -0.07340462 -0.07501514 -0.07650237 -0.0777555 -0.07881848 -0.07968722 -0.0804197 -0.08105116 -0.08161273
 -0.08212761 -0.08259871 -0.08303124 -0.08342189 -0.08376968 -0.08407946 -0.08435076 -0.0845977 -0.08482105 -0.08503728
 -0.08524685 -0.0854575 -0.08566803 -0.08587351 -0.08607215 -0.0862538 -0.08641843 -0.08656032 -0.08668171 -0.08678315
 -0.08686899 -0.08694366 -0.08701418 -0.08708698 -0.08717059 -0.08727255 -0.08739535 -0.08754471 -0.08770799 -0.08788554
 -0.08805255 -0.08820428 -0.08832512 -0.08841092 -0.08847392 -0.08851422 -0.08856137 -0.08861618 -0.08869302 -0.08878931
 -0.08889214 -0.0889996 -0.08909486 -0.08918248 -0.08926548 -0.08935019 -0.0894519 -0.08956838 -0.08970557 -0.08985208
 -0.09000035 -0.09014025 -0.09026256 -0.09036527 -0.09044452 -0.09050437 -0.0905443 -0.09057245 -0.09058914 -0.09060775
 -0.09062951 -0.09066791 -0.09072416 -0.09080026 -0.09089571 -0.09099893 -0.09110869 -0.09121013 -0.09130358 -0.09138172
 -0.09144731 -0.09150346 -0.09155389 -0.09160738 -0.09166506 -0.09173378 -0.09180792 -0.09188639 -0.09195923 -0.09201944
 -0.09206272 -0.09208284 -0.0920902 -0.09208448 -0.09208509 -0.09209575 -0.092129 -0.09218787 -0.09226732 -0.09236754
 -0.0924714 -0.09257814 -0.09267374 -0.09275874 -0.09283064 -0.09289075 -0.09294333 -0.09298873 -0.09303015 -0.09306712
 -0.09310023 -0.09312879 -0.09315213 -0.09316978 -0.09318041 -0.09318596 -0.09318572 -0.09318677 -0.09319077 -0.0932076
 -0.09324069 -0.09329512 -0.09337346 -0.09347089 -0.09358782 -0.09371253 -0.0938443 -0.09397188 -0.09409489 -0.09420799
 -0.09431141 -0.09440461 -0.09448777 -0.09456126 -0.09462527 -0.09468005 -0.09472706 -0.09476896 -0.09480759 -0.09484684
 -0.09488658 -0.09492822 -0.09497052 -0.0950128 -0.09505519 -0.09509767 -0.09514013 -0.09518298 -0.09522384 -0.09526215
 -0.09529725 -0.09532847 -0.09536156 -0.09539682 -0.09544127 -0.09549499 -0.09555709 -0.09562641 -0.09569336 -0.09575693
 -0.09580676 -0.09584425 -0.09586687 -0.09587918 -0.0958881 -0.09589861 -0.09592102 -0.09595576 -0.0960083 -0.09607296
 -0.09614855 -0.09622738 -0.09630567 -0.09637922 -0.09644571 -0.09650489 -0.09655602 -0.09660166 -0.09664187 -0.09668037
 -0.09671745 -0.09675569 -0.09679516 -0.09683594 -0.09687782 -0.09691896 -0.09695914 -0.09699631 -0.09703057 -0.09706089
 -0.09708811 -0.09711308 -0.09713713 -0.09716253 -0.09718978 -0.09722055 -0.09725364 -0.09728874 -0.09732477 -0.09736075
 -0.0973979 -0.09743633 -0.09747732 -0.09752148 -0.09756739 -0.09761509 -0.09766166 -0.09770679 -0.09775063 -0.09779325
 -0.09783796 -0.09788463 -0.09793394 -0.09798492 -0.09803313 -0.09807849 -0.09811766 -0.09815308 -0.09818798 -0.09822436
 -0.09826769 -0.09831478 -0.09836572 -0.0984138 -0.09845395 -0.09848441 -0.09850125 -0.09851224 -0.09851796 -0.09852947
 -0.09854955 -0.09858231 -0.09862936 -0.09868503 -0.09874926 -0.09881178 -0.09887213 -0.09892306 -0.09896492 -0.09899743
 -0.09902194 -0.09904451 -0.09906632 -0.0990946 -0.09912832 -0.09916976 -0.09921517 -0.09926037 -0.09930228 -0.09933545
 -0.09936144 -0.09937876 -0.09939255 -0.09940473 -0.0994191 -0.0994377 -0.09946025 -0.0994874 -0.0995161 -0.09954622
 -0.0995736 -0.09959793 -0.09961648 -0.09962922 -0.09963813 -0.09964373 -0.0996517 -0.09966201 -0.09967817 -0.09969842
 -0.09971977 -0.09973979 -0.09975166 -0.09975518 -0.09974583 -0.09972832 -0.0997043 -0.09968185 -0.09966718 -0.09966443
 -0.09967883 -0.09970468 -0.09974264 -0.09978089 -0.099817 -0.09984334 -0.09985802 -0.09986243 -0.0998563 -0.09984642
 -0.09983312 -0.09982381 -0.09981868 -0.09982295 -0.0998361 -0.09985894 -0.0998897 -0.09992369 -0.09995909 -0.09998949
 -0.1000152 -0.1000334 -0.1000466 -0.1000564 -0.1000639 -0.1000709 -0.1000765 -0.1000803 -0.1000821 -0.1000809
 -0.1000801 -0.10008 -0.1000839 -0.1000927 -0.1001048 -0.1001201 -0.1001332 -0.1001439 -0.1001492 -0.1001494
 -0.1001472 -0.1001432 -0.1001429 -0.1001463 -0.1001571 -0.1001739 -0.1001961 -0.1002208 -0.1002434 -0.1002621
 -0.1002723 -0.1002764 -0.1002736 -0.1002701 -0.1002685 -0.1002734 -0.1002875 -0.1003091 -0.1003385 -0.1003704
 -0.1004042 -0.1004355 -0.1004637 -0.1004854 -0.1005004 -0.1005053 -0.1005005 -0.1004878 -0.100469 -0.1004543
 -0.1004448 -0.1004506 -0.1004683 -0.1004969 -0.1005305 -0.1005593 -0.1005821 -0.1005924 -0.1005954 -0.1005926
 -0.1005891 -0.1005886 -0.1005911 -0.1005976 -0.1006059 -0.1006153 -0.100626 -0.1006379 -0.1006522 -0.1006692
 -0.1006866 -0.100704 -0.1007152 -0.1007203 -0.1007167 -0.1007058 -0.1006935 -0.1006811 -0.1006764 -0.1006778
 -0.1006861 -0.1006976 -0.1007068 -0.1007123 -0.1007098 -0.1007015 -0.1006869 -0.1006704 -0.1006535 -0.1006411
 -0.1006353 -0.100639 -0.100654 -0.100675 -0.1007025 -0.1007246 -0.1007401 -0.1007428 -0.1007324 -0.1007157
 -0.1006938 -0.1006799 -0.1006739 -0.1006823 -0.1007024 -0.1007296 -0.1007607 -0.1007862 -0.1008061 -0.1008156
 -0.1008175 -0.1008133 -0.100805 -0.1007949 -0.1007825 -0.1007679 -0.100752 -0.1007345 -0.100719 -0.1007064
 -0.1006986 -0.1006963 -0.1006972 -0.100701 -0.1007056 -0.1007109 -0.1007161 -0.1007211 -0.1007245 -0.1007261
 -0.1007234 -0.100717 -0.1007065 -0.1006929 -0.1006779 -0.1006622 -0.1006474 -0.1006336 -0.1006218 -0.1006112
 -0.1006021 -0.1005923 -0.1005811 -0.1005657 -0.1005448 -0.1005188 -0.1004868 -0.100453 -0.1004175 -0.1003855
 -0.1003574 -0.1003357 -0.1003205 -0.1003104 -0.100305 -0.1003017 -0.1003009 -0.1003028 -0.100309 -0.1003241
 -0.1003499 -0.100392 -0.1004517 -0.1005332 -0.1006374 -0.1007661 -0.1009205 -0.1011012 -0.1013107 -0.1015493
 -0.1018224 -0.1021308 -0.1024831 -0.102881 -0.1033317 -0.1038381 -0.1043918 -0.1049946 -0.1056046 -0.1062193
 -0.1067631 -0.1072325 -0.1075588 -0.1077456 -0.1077736 -0.1076526 -0.1074036 -0.1070364 -0.1065773 -0.1060462
 -0.105479 -0.104907 -0.1043776 -0.103908 -0.1035263 -0.1032351 -0.1030419 -0.1029478 -0.1029574 -0.1030591
 -0.1032598 -0.1034994 -0.1037756 -0.103992 -0.1041373 -0.1041864 -0.104138 -0.1040525 -0.103932 -0.103819
 -0.1037093 -0.1036009 -0.1034906 -0.1033651 -0.1032273 -0.103076 -0.1029177 -0.1027631 -0.1026126 -0.1024738
 -0.1023366 -0.102196 -0.1020431 -0.1018687 -0.101681 -0.1014788 -0.101279 -0.1010863 -0.1009066 -0.1007426
 -0.1005879 -0.100442 -0.1002986 -0.1001572 -0.1000179 -0.09988128 -0.09975316 -0.09963405 -0.09953034 -0.0994411
 -0.0993674 -0.0993064 -0.09925251 -0.09920295 -0.09915049 -0.09909498 -0.0990328 -0.09896687 -0.09889769 -0.09882978
 -0.09876548 -0.09870827 -0.09866041 -0.09862137 -0.09859199 -0.09856801 -0.09854907 -0.09853075 -0.09851258 -0.09849192
 -0.09846859 -0.09844091 -0.09840894 -0.09837256 -0.0983324 -0.09829188 -0.09825183 -0.09821729 -0.09818777 -0.09816523
 -0.09814752 -0.0981323 -0.09811731 -0.09809882 -0.09807651 -0.09804825 -0.09801668 -0.09798252 -0.09794829 -0.09791562
 -0.09788331 -0.0978516 -0.09781785 -0.09778126 -0.09774355 -0.0977047 -0.09766828 -0.09763447 -0.09760014 -0.09756477
 -0.09752049 -0.09746794 -0.09740621 -0.09733769 -0.0972707 -0.09720612 -0.09715094 -0.09710285 -0.0970611 -0.09702384
 -0.09698786 -0.09695475 -0.09692445 -0.09689933 -0.09688145 -0.09686919 -0.09686324 -0.0968582 -0.09685307 -0.0968428
 -0.09682603 -0.09680283 -0.09677278 -0.09674115 -0.09670825 -0.09667957 -0.09665499 -0.09663438 -0.09661672 -0.09659567
 -0.09657079 -0.09653649 -0.09649438 -0.09644493 -0.0963911 -0.09633787 -0.09628739 -0.09624424 -0.09620877 -0.09618315
 -0.09616572 -0.09615693 -0.09615233 -0.09615098 -0.09614704 -0.09613878 -0.09612326 -0.09609935 -0.09606928 -0.096033
 -0.09599452 -0.09595407 -0.09591296 -0.09587118 -0.09582835 -0.09578468 -0.09574088 -0.0956978 -0.09565874 -0.0956246
 -0.09559964 -0.09558283 -0.09557555 -0.09557343 -0.09557255 -0.09556801 -0.09555385 -0.09553009 -0.09549369 -0.09545133
 -0.09540427 -0.09535994 -0.09532101 -0.09528841 -0.09526339 -0.09523961 -0.09521657 -0.09518916 -0.09515703 -0.09512293
 -0.09508729 -0.09505711 -0.09503195 -0.09501279 -0.09499807 -0.09498201 -0.09496468 -0.09494273 -0.09491831 -0.09489408
 -0.09487033 -0.09484927 -0.09482815 -0.09480543 -0.0947793 -0.09474777 -0.09471213 -0.09467221 -0.09463014 -0.09458632
 -0.09454278 -0.09449977 -0.09445982 -0.09442327 -0.09439099 -0.09436306 -0.09433673 -0.09431173 -0.0942838 -0.09425303
 -0.09421767 -0.09417827 -0.09413581 -0.09409104 -0.09404629 -0.09400196 -0.09395979 -0.0939196 -0.09388177 -0.09384619
 -0.09381253 -0.09378194 -0.09375505 -0.09373248 -0.09371525 -0.09370076 -0.09368899 -0.09367533 -0.09365884 -0.09363764
 -0.09361115 -0.09358191 -0.09355002 -0.09351963 -0.09349079 -0.09346511 -0.09344204 -0.09341885 -0.09339487 -0.09336571
 -0.09333175 -0.09329114 -0.09324587 -0.0931982 -0.09315054 -0.09310674 -0.093068 -0.09303704 -0.09301261 -0.09299553
 -0.09298152 -0.09296946 -0.09295473 -0.09293541 -0.09291138 -0.09288177 -0.09285135 -0.09282058 -0.09279209 -0.09276611
 -0.09273913 -0.09271098 -0.0926779 -0.09264056 -0.09260158 -0.09256171 -0.09252602 -0.09249318 -0.09246275 -0.09243243
 -0.09239718 -0.09235794 -0.09231277 -0.09226628 -0.0922216 -0.09218226 -0.09215201 -0.09212927 -0.09211508 -0.092104
 -0.092095 -0.09208289 -0.09206631 -0.09204412 -0.09201574 -0.09198485 -0.09195164 -0.09192116 -0.09189343 -0.09186912
 -0.09184771 -0.09182581 -0.09180325 -0.09177731 -0.09174855 -0.09171715 -0.09168317 -0.09164686 -0.09160797 -0.09156607
 -0.09152173 -0.09147501 -0.09142732 -0.09137916 -0.09133268 -0.09128845 -0.09124955 -0.09121716 -0.09119177 -0.09117433
 -0.09115962 -0.09114745 -0.09113041 -0.09110801 -0.0910784 -0.09104181 -0.09100229 -0.09096012 -0.09091911 -0.09087897
 -0.09084064 -0.09080359 -0.09076678 -0.09073015 -0.09069289 -0.09065566 -0.09061851 -0.09058344 -0.0905524 -0.09052607
 -0.09050632 -0.09048953 -0.09047548 -0.09045775 -0.09043462 -0.09040147 -0.09035659 -0.09030198 -0.0902371 -0.09017087
 -0.09010376 -0.09004539 -0.08999577 -0.08995575 -0.08992408 -0.08989221 -0.08985964 -0.08981916 -0.08977292 -0.0897226
 -0.08967071 -0.08962328 -0.0895795 -0.08954135 -0.08950578 -0.08947051 -0.08943445 -0.08939575 -0.08935628 -0.08931644
 -0.08927756 -0.08924053 -0.08920367 -0.08916707 -0.0891276 -0.08908494 -0.08903661 -0.08898243 -0.08892138 -0.08885367
 -0.08878219 -0.08870791 -0.08863913 -0.08857635 -0.08852722 -0.08848917 -0.08846003 -0.08843546 -0.08840572 -0.08837049
 -0.08832399 -0.08827156 -0.08821585 -0.08816134 -0.08811273 -0.08806776 -0.08802737 -0.08798564 -0.08794072 -0.08789067
 -0.08783406 -0.0877758 -0.08771597 -0.08766237 -0.08761559 -0.08757822 -0.0875499 -0.08752327 -0.08749717 -0.08745927
 -0.08740978 -0.08734193 -0.08725915 -0.08716612 -0.08706795 -0.08697627 -0.08689359 -0.08682899 -0.08677915 -0.08674563
 -0.08672047 -0.08669968 -0.08667643 -0.08664648 -0.08660831 -0.08656015 -0.08650464 -0.08644168 -0.08637562 -0.08630694
 -0.08623897 -0.08617205 -0.08610431 -0.08603558 -0.08596157 -0.08588298 -0.08580247 -0.08572204 -0.08565225 -0.08559263
 -0.08554893 -0.08551601 -0.08548744 -0.08545794 -0.08541705 -0.08536492 -0.08529677 -0.08521832 -0.08513091 -0.08504203
 -0.08495518 -0.08487485 -0.08480363 -0.08474024 -0.08468536 -0.0846338 -0.0845852 -0.08453442 -0.0844811 -0.08442166
 -0.08435599 -0.08428181 -0.08419969 -0.08411216 -0.08402091 -0.08393462 -0.08385411 -0.08378718 -0.08373112 -0.08368538
 -0.08364506 -0.08360355 -0.08355749 -0.08350128 -0.08343448 -0.08335467 -0.08326436 -0.0831632 -0.08305693 -0.08294649
 -0.08283903 -0.08273613 -0.08264173 -0.08255698 -0.08247873 -0.08240698 -0.08233382 -0.08225902 -0.08217897 -0.08209472
 -0.08201277 -0.08193445 -0.08187008 -0.08181792 -0.08178007 -0.08175059 -0.08171947 -0.08168171 -0.08162472 -0.08155177
 -0.08145997 -0.08135787 -0.08125044 -0.08114213 -0.081037 -0.08093279 -0.08082974 -0.08072463 -0.08061609 -0.08050734
 -0.08039811 -0.08029664 -0.08020353 -0.08012389 -0.0800577 -0.08000275 -0.0799582 -0.07991663 -0.07987654 -0.07982752
 -0.0797687 -0.07969137 -0.07959794 -0.07948839 -0.07936671 -0.07923853 -0.07910566 -0.0789713 -0.07883748 -0.07870521
 -0.07857971 -0.07846344 -0.07835983 -0.07827166 -0.07819419 -0.0781279 -0.07806221 -0.07799594 -0.07792098 -0.07783655
 -0.07774092 -0.07763413 -0.07751868 -0.07739495 -0.07726708 -0.07713536 -0.0770032 -0.07687084 -0.07674059 -0.07661276
 -0.07648943 -0.0763697 -0.07625394 -0.07613902 -0.07602214 -0.07590113 -0.07577267 -0.07563992 -0.07550275 -0.075367
 -0.07523463 -0.07510823 -0.07498908 -0.07487532 -0.07476706 -0.07466064 -0.07455581 -0.07445009 -0.07434332 -0.07423358
 -0.07412017 -0.07399659 -0.0738617 -0.0737055 -0.07353027 -0.07333598 -0.07312857 -0.07292037 -0.07271389 -0.07251862
 -0.07233216 -0.07215529 -0.07198634 -0.07182395 -0.0716688 -0.07152151 -0.07138008 -0.07124493 -0.07111 -0.07097475
 -0.07083119 -0.07067873 -0.07050676 -0.0703143 -0.07009678 -0.06985455 -0.06960221 -0.06934123 -0.06909163 -0.06885201
 -0.06862719 -0.06841381 -0.06820446 -0.06799712 -0.06778396 -0.0675652 -0.06733729 -0.06710287 -0.0668625 -0.06662069
 -0.06638174 -0.06614427 -0.06591198 -0.0656694 -0.06541327 -0.06512829 -0.06480762 -0.06446324 -0.06409433 -0.0637272
 -0.06336419 -0.06301186 -0.0626701 -0.06232824 -0.06198549 -0.06163142 -0.06126507 -0.06087724 -0.06046596 -0.06001873
 -0.05953879 -0.05902249 -0.05848457 -0.0579442 -0.0574115 -0.05690719 -0.05642232 -0.05595839 -0.05550171 -0.05504521
 -0.05458484 -0.05411711 -0.05364546 -0.05317184 -0.05268851 -0.05219773 -0.05166241 -0.0510799 -0.05041846 -0.04967843
 -0.04890284 -0.04809666 -0.04732681 -0.04658739 -0.04588548 -0.04521177 -0.0445408 -0.0438705 -0.04318496 -0.04248462
 -0.0417675 -0.04102297 -0.04024623 -0.03940931 -0.038493 -0.03747558 -0.03633094 -0.03509546 -0.03376423 -0.03242253
 -0.03108801 -0.0298132 -0.02861 -0.02748077 -0.02642757 -0.02542841 -0.02448145 -0.02353952 -0.02259704 -0.02157777
 -0.02048657 -0.01929381 -0.01803384 -0.01680208 -0.01561037 -0.01454117 -0.01355895 -0.01264672 -0.01177517 -0.01090497
 -0.01003247 -0.009143366 -0.008241078 -0.007324375 -0.00639456 -0.005447465 -0.004505862 -0.003572124 -0.00267477 -0.001820785
 -0.0009997208 -0.0002116456 0.0005636264 0.001326065 0.002049033 0.002729423 0.003323442 0.003836073 0.004266729 0.004626818
 0.004952458 0.005247676 0.005542541 0.005824598 0.006087599 0.006323149 0.006516829 0.006676123 0.006802359 0.006900666
 0.006975455 0.007022951 0.007043791 0.007029959 0.006980272 0.006886414 0.006746582 0.006559451 0.00632373 0.006061058
 0.005772771 0.005492725 0.00521999 0.004959123 0.004705811 0.004439999 0.004160944 0.00385344 0.003524827 0.003179975
 0.002833908 0.002511155 0.002220162 0.001981537 0.001788196 0.001641389 0.001533796 0.001460121 0.001424199 0.001426114
 0.001470024 0.001558283 0.001684413 0.001848382 0.002039915 0.002258155 0.002496149 0.002753626 0.003030075 0.003326197
 0.003649243 0.003999299 0.004381762 0.004793736 0.005229073 0.005684794 0.006150662 0.006627722 0.007112718 0.007608607
 0.008117421 0.008640842 0.009179987 0.009738101 0.01031548 0.01092029 0.01155359 0.01222906 0.01294966 0.01372635
 0.01456319 0.0154477 0.01638074 0.0173217 0.01826836 0.01917649 0.02004348 0.02082915 0.02152821 0.02209009
 0.02251478 0.022769 0.02287092 0.02284071 0.02270104 0.02249342 0.02223436 0.0219548 0.02166652 0.02139039
 0.02111965 0.02086516 0.02058318 0.0202699 0.01985176 0.01930487 0.01862087 0.01778078 0.01692578 0.01606806
 0.01527918 0.01456143 0.01384339 0.01312235 0.01234405 0.01151483 0.0106404 0.009726862 0.008802819 0.00785644
 0.006887884 0.005853732 0.004687219 0.003361134 0.001787395 6.709401E-05 -0.0017627 -0.003591441 -0.005329866 -0.007015858
 -0.008643996 -0.01025571 -0.01187159 -0.01344348 -0.01496943 -0.01638829 -0.01769165 -0.01889296 -0.01999318 -0.02105145
 -0.02206874 -0.02307679 -0.0240701 -0.02503527 -0.02596827 -0.02684646 -0.02767488 -0.02845216 -0.02918784 -0.02989513
 -0.03058276 -0.03126232 -0.03194663 -0.03264383 -0.03337818 -0.03416621 -0.03501444 -0.03594841 -0.03687369 -0.03778117
 -0.03854846 -0.03914287 -0.03960709 -0.0399383 -0.04024406 -0.04052944 -0.0408389 -0.04116927 -0.04149842 -0.04182236
 -0.04210626 -0.0423543 -0.04256409 -0.04273714 -0.04287973 -0.04298115 -0.04302713 -0.04301034 -0.04291273 -0.04274634
 -0.04251273 -0.04222833 -0.04190316 -0.04154245 -0.04115152 -0.04072545 -0.04026661 -0.03975558 -0.03919241 -0.03853897
 -0.03779061 -0.03693682 -0.03597764 -0.03500391 -0.03402332 -0.03315853 -0.03240452 -0.03179729 -0.0313245 -0.0309642
 -0.03070761 -0.03052771 -0.03041246 -0.0303356 -0.03027814 -0.03021253 -0.03011853 -0.02996787 -0.0297662 -0.02949983
 -0.0292145 -0.02892468 -0.02865641 -0.02842315 -0.02820917 -0.02801486 -0.02781824 -0.02761703 -0.02740145 -0.02717092
 -0.02692566 -0.02666565 -0.02639106 -0.02610093 -0.02579029 -0.02545737 -0.02509328 -0.02469745 -0.02426374 -0.02379389
 -0.02328948 -0.02274783 -0.02216922 -0.02154293 -0.02085977 -0.02011652 -0.0193039 -0.01844205 -0.01753354 -0.0166059
 -0.01566883 -0.01472389 -0.01377514 -0.01279849 -0.011791 -0.01074925 -0.009673131 -0.008621986 -0.007600634 -0.006687623
 -0.005881048 -0.005209756 -0.004668551 -0.00425193 -0.003963058 -0.003804953 -0.003786055 -0.003923318 -0.004216327 -0.004675658
 -0.005284511 -0.006036471 -0.006908226 -0.007885708 -0.008955535 -0.01011016 -0.01134306 -0.01265638 -0.01401893 -0.01543159
 -0.01682692 -0.01819871 -0.01949823 -0.02072258 -0.02188295 -0.02298145 -0.02405096 -0.02508875 -0.02609705 -0.02706793
 -0.02797235 -0.02881017 -0.0295627 -0.03024324 -0.03086363 -0.03143884 -0.03199156 -0.03252656 -0.03305679 -0.03357564
 -0.03408389 -0.03457169 -0.03503514 -0.03547001 -0.03587363 -0.03624951 -0.03659747 -0.03692391 -0.03722984 -0.03751403
 -0.03777649 -0.03800206 -0.03819001 -0.03832527 -0.03841035 -0.03845176 -0.03845413 -0.03843819 -0.03840461 -0.03836567
 -0.03831913 -0.03826587 -0.03820606 -0.0381396 -0.03806885 -0.03799532 -0.03792167 -0.03784899 -0.03778175 -0.03772126
 -0.03767298 -0.03763869 -0.03762048 -0.03761908 -0.03763419 -0.03766576 -0.03771502 -0.03778202 -0.03786911 -0.03797605
 -0.03810095 -0.03824224 -0.03839039 -0.03854229 -0.03868202 -0.03880659 -0.03889999 -0.03896333 -0.03898978 -0.03898573
 -0.03895493 -0.0389055 -0.03884489 -0.03877879 -0.03871267 -0.03864745 -0.03858539 -0.03852269 -0.03845883 -0.03839047
 -0.03831619 -0.03824026 -0.03816251 -0.038093 -0.0380323 -0.03798639 -0.03795509 -0.03793697 -0.03793163 -0.03793576
 -0.03794954 -0.03797226 -0.03800348 -0.03804243 -0.03808706 -0.03813379 -0.03818048 -0.03822288 -0.03826094 -0.03829299
 -0.03832042 -0.03834411 -0.03836304 -0.03837754 -0.03838434 -0.03838221 -0.03837144 -0.03835123 -0.03832775 -0.03830161
 -0.03827684 -0.03825375 -0.0382298 -0.03820473 -0.03817421 -0.0381383 -0.0380954 -0.0380454 -0.03798711 -0.03792002
 -0.03784198 -0.03775322 -0.03765286 -0.03754203 -0.03742162 -0.03729286 -0.03715669 -0.03701492 -0.03686856 -0.03671967
 -0.03656916 -0.03641865 -0.03626852 -0.03612082 -0.0359757 -0.0358363 -0.035703 -0.03557739 -0.03545963 -0.03534834
 -0.0352434 -0.03514236 -0.03504524 -0.03495089 -0.0348595 -0.034771 -0.03468589 -0.03460514 -0.03452968 -0.03446131
 -0.0344012 -0.03435111 -0.03431268 -0.03428781 -0.03427738 -0.03428333 -0.0343024 -0.03433491 -0.03437315 -0.03441533
 -0.03445544 -0.03449177 -0.0345242 -0.03455233 -0.03457945 -0.03460572 -0.03463452 -0.03466604 -0.03470363 -0.03474722
 -0.03479869 -0.03485679 -0.03491853 -0.03498138 -0.03503769 -0.03508548 -0.03511708 -0.03513393 -0.03513347 -0.03512136
 -0.03510093 -0.03507808 -0.03505778 -0.03504061 -0.03502847 -0.03501824 -0.03500925 -0.03500039 -0.03499126 -0.03498248
 -0.03497438 -0.0349634 -0.0349494 -0.03492522 -0.03489069 -0.03484244 -0.03478125 -0.03471089 -0.0346322 -0.03455145
 -0.03446673 -0.03437734 -0.03427882 -0.03416269 -0.03402709 -0.03386465 -0.0336804 -0.03347554 -0.0332563 -0.03302805
 -0.03278912 -0.03254114 -0.03227712 -0.03199527 -0.03169192 -0.03136591 -0.03101726 -0.03064585 -0.0302516 -0.02983445
 -0.02939681 -0.0289391 -0.02846839 -0.02798536 -0.0274982 -0.0270072 -0.02651813 -0.0260302 -0.02554514 -0.02505987
 -0.02457002 -0.02407254 -0.02356053 -0.02303668 -0.02249915 -0.02195665 -0.02141314 -0.02087694 -0.02035225 -0.01984377
 -0.01935347 -0.01888412 -0.01843675 -0.01801118 -0.017608 -0.01722117 -0.01685049 -0.01648368 -0.01611983 -0.01574234
 -0.01535076 -0.01493278 -0.01449102 -0.01402869 -0.01354996 -0.01306861 -0.01258393 -0.0121021 -0.01161812 -0.01112697
 -0.01062866 -0.01011983 -0.009606808 -0.009092802 -0.008580885 -0.008073995 -0.007569238 -0.007066381 -0.006562827 -0.006057723
 -0.005551865 -0.005044858 -0.004542117 -0.004043888 -0.003558549 -0.003086135 -0.002627437 -0.002181093 -0.001736626 -0.001294719
 -0.0008509671 -0.0004104709 1.483367E-05 0.0004226206 0.0008007535 0.00115567 0.001489155 0.00181146 0.002131144 0.002458156
 0.002800319 0.003164877 0.003558383 0.003976449 0.00442145 0.00487625 0.005338042 0.005794913 0.006244144 0.006691321
 0.007136482 0.007592127 0.008058475 0.008539658 0.009033838 0.009530603 0.01002636 0.0105006 0.01095173 0.01136407
 0.01174035 0.01207945 0.01238138 0.01264843 0.01287212 0.01304597 0.01316321 0.01321528 0.01320859 0.01314163
 0.01302969 0.01287566 0.01269571 0.01249253 0.01228153 0.01206502 0.01185015 0.01163775 0.0114228 0.01120523
 0.01098307 0.01075804 0.01054255 0.01033778 0.01015674 0.009996182 0.009854908 0.009727428 0.009603373 0.009478207
 0.009341474 0.009192263 0.009024074 0.008844507 0.008654646 0.008466968 0.008288207 0.008120985 0.007969582 0.007822438
 0.007679264 0.007523105 0.00735265 0.007148761 0.006910085 0.006620766 0.006281059 0.005898803 0.005477978 0.005053364
 0.004626791 0.004227106 0.003847707 0.003486418 0.003133873 0.002770517 0.002393274 0.001988642 0.00156118 0.001109329
 0.000641077 0.0001612132 -0.0003258363 -0.0008156977 -0.001312317 -0.00181558 -0.002331232 -0.002860841 -0.003404355 -0.003961585
 -0.00453556 -0.005126177 -0.005746568 -0.006397203 -0.00708719 -0.007814488 -0.008568569 -0.009344763 -0.01011797 -0.01088409
 -0.01161847 -0.01232076 -0.01297698 -0.01359343 -0.01417121 -0.01472041 -0.01525077 -0.01576842 -0.01628044 -0.01678774
 -0.01729212 -0.01779423 -0.01829537 -0.01879177 -0.01928403 -0.01976116 -0.02022135 -0.0206624 -0.0210835 -0.02150178
 -0.021918 -0.02234719 -0.02278704 -0.0232266 -0.02366103 -0.02406233 -0.02442989 -0.02474559 -0.02501607 -0.02524438
 -0.02543983 -0.0256168 -0.02577916 -0.02593694 -0.02608627 -0.02622755 -0.0263569 -0.026472 -0.02657339 -0.02666114
 -0.02673401 -0.0267918 -0.02683287 -0.02685596 -0.02687111 -0.02687871 -0.02689474 -0.02691942 -0.02695226 -0.02699155
 -0.02702199 -0.02704375 -0.02704931 -0.02704068 -0.02702077 -0.02698872 -0.02694395 -0.02688586 -0.02681147 -0.02672643
 -0.0266347 -0.02654136 -0.0264529 -0.02636435 -0.02627607 -0.02617925 -0.02607016 -0.02594891 -0.02581371 -0.02567403
 -0.0255308 -0.02539157 -0.02525726 -0.02512433 -0.02499245 -0.0248518 -0.02470307 -0.02454668 -0.024386 -0.02423694
 -0.02410125 -0.02399398 -0.02391072 -0.02385102 -0.02380751 -0.02376982 -0.02373322 -0.02368942 -0.02363699 -0.02357235
 -0.02349659 -0.02340956 -0.0233118 -0.02320465 -0.02308231 -0.02294439 -0.02278265 -0.02259516 -0.02238472 -0.02215093
 -0.02190903 -0.02165979 -0.02141698 -0.02118069 -0.02095722 -0.02074654 -0.02055263 -0.02037423 -0.02021117 -0.02005886
 -0.01990847 -0.0197558 -0.01958954 -0.01941314 -0.01922327 -0.01903214 -0.01884569 -0.0186765 -0.0185337 -0.01841608
 -0.01832875 -0.0182505 -0.01817929 -0.01808965 -0.01797683 -0.01783651 -0.01766723 -0.01748795 -0.0172996 -0.01712049
 -0.01695002 -0.01679037 -0.01664029 -0.01649447 -0.01635368 -0.0162174 -0.01608719 -0.01596672 -0.01585497 -0.01575299
 -0.01565676 -0.01556306 -0.0154679 -0.01536664 -0.01526082 -0.01514833 -0.01503804 -0.0149319 -0.01483818 -0.01476032
 -0.0146942 -0.01464103 -0.01458362 -0.01452073 -0.01443964 -0.01434017 -0.0142283 -0.01410546 -0.01398775 -0.01387485
 -0.01377434 -0.01368363 -0.01359888 -0.01351803 -0.01343491 -0.01334923 -0.01325777 -0.01316157 -0.01306032 -0.01295576
 -0.01285008 -0.01274039 -0.01262759 -0.01250219 -0.01236045 -0.01220037 -0.01201807 -0.01183169 -0.01164221 -0.01147287
 -0.01132625 -0.01120218 -0.01110012 -0.01099523 -0.0108863 -0.01075019 -0.01059039 -0.0104096 -0.01021602 -0.01003682
 -0.009875335 -0.009756028 -0.009666421 -0.009602524 -0.009542767 -0.009462172 -0.0093535 -0.009199539 -0.009016349 -0.00880553
 -0.008587457 -0.008370267 -0.008160229 -0.007961203 -0.007767421 -0.007578591 -0.007389328 -0.00719874 -0.007012797 -0.006831981
 -0.006671453 -0.006530939 -0.006415441 -0.006320943 -0.006230636 -0.00614044 -0.006027597 -0.005894038 -0.005730839 -0.005546599
 -0.005347423 -0.005147543 -0.004962959 -0.004804411 -0.004689225 -0.004604075 -0.004552825 -0.004499362 -0.00443164 -0.004330778
 -0.004185902 -0.004018737 -0.003829572 -0.003648927 -0.003479934 -0.003329369 -0.00319744 -0.003077906 -0.002970889 -0.002875671
 -0.002792669 -0.002724155 -0.002669236 -0.002627216 -0.002594987 -0.00256661 -0.002537378 -0.002496982 -0.002445277 -0.002376754
 -0.002297662 -0.002212278 -0.002119818 -0.002022962 -0.001911972 -0.001781366 -0.001638029 -0.001479185 -0.001332585 -0.001202322
 -0.001102608 -0.001036043 -0.0009884137 -0.0009589277 -0.000927516 -0.0008931354 -0.000839003 -0.0007633112 -0.000646791 -0.0004905132
 -0.0002852965 -3.874465E-05 0.0002383983 0.0005374388 0.0008420276 0.001143958 0.001430718 0.001692149 0.001916877 0.00210113
 0.002237908 0.00233614 0.002396023 0.002430794 0.002441574 0.002447804 0.002450424 0.002480506 0.002540997 0.002649329
 0.002805942 0.002991653 0.003204123 0.003411411 0.003613999 0.003797706 0.00396499 0.004115815 0.004253036 0.004381286
 0.004506107 0.004638773 0.004779912 0.004938007 0.00510036 0.005261969 0.005408007 0.005528739 0.005620325 0.005678623
 0.005706848 0.005703296 0.005681158 0.005640101 0.0056081 0.005587784 0.005594573 0.005628923 0.005671876 0.005722406
 0.005760949 0.005791364 0.005824177 0.005863346 0.005927823 0.006017502 0.006141255 0.006297691 0.006491737 0.006712512
 0.006954003 0.007196484 0.007422039 0.00762469 0.007793651 0.007941465 0.008070901 0.008188197 0.008295001 0.008395163
 0.008486832 0.00859658 0.008726806 0.00889363 0.009097498 0.009312144 0.009534111 0.009714342 0.009854275 0.009933299
 0.009961422 0.009960012 0.009938622 0.009930701 0.009935429 0.0099708 0.01001926 0.01007057 0.01010521 0.01010019
 0.0100635 0.009988053 0.009904098 0.009820727 0.009757752 0.00972208 0.009719645 0.009752897 0.009819435 0.009920733
 0.01002915 0.01014311 0.0102192 0.01025712 0.01023974 0.01016951 0.0100524 0.009887125 0.009667749 0.009402443
 0.009095105 0.008782615 0.008524491 0.008344972 0.008309762 0.008373514 0.008529578 0.008716433 0.008892952 0.009053526
 0.009186408 0.00930164 0.009402882 0.009477907 0.009524152 0.009542343 0.00953088 0.009515792 0.009498447 0.009506533
 0.009541297 0.009626838 0.009761706 0.009953457 0.01019412 0.01046014 0.01074663 0.01102918 0.01131152 0.01159123
 0.0118661 0.01213371 0.01238963 0.01262493 0.01285408 0.01308214 0.01332059 0.01358156 0.01383801 0.01408768
 0.01429723 0.01445841 0.01457551 0.01464779 0.0146882 0.01469729 0.01466449 0.01459041 0.01447606 0.01432837
 0.01418682 0.01405845 0.01398973 0.01397964 0.01405156 0.01419413 0.01440419 0.01465877 0.01493279 0.01520615
 0.01545331 0.01567243 0.01585695 0.01600578 0.01611837 0.01618869 0.01621114 0.01620635 0.01617542 0.01614715
 0.01612732 0.01608681 0.0160242 0.01587929 0.0156545 0.01535976 0.01500863 0.01468629 0.01439885 0.01421699
 0.01412814 0.01414306 0.0142354 0.01437311 0.01452227 0.01463298 0.01468487 0.01464041 0.01451323 0.01429714
 0.0140209 0.01369202 0.01333669 0.01295809 0.01259806 0.01226222 0.01199114 0.01179212 0.01164629 0.0115529
 0.0114494 0.0113351 0.01118527 0.01100418 0.01080776 0.01059299 0.01035653 0.01009522 0.009791874 0.009465734
 0.009135662 0.008831059 0.008598788 0.008436627 0.008369472 0.008349491 0.008362427 0.008354246 0.008293174 0.008187838
 0.008023041 0.007881039 0.007772885 0.007758806 0.007850973 0.007999333 0.008201599</values></Ydata></AB><ScSm><Ydata ylabel="Single channel"><values byteorder="INTEL" format="FLOAT32" numvalues="1814"> 0.07799335 0.0780229 0.07811583 0.0782964 0.07853284 0.07875548 0.07890888 0.07898986 0.07902535 0.07902316
 0.07897991 0.07893913 0.07899049 0.07918156 0.07945056 0.07966496 0.07972951 0.07967325 0.07963376 0.07971968
 0.07986476 0.07984976 0.0795117 0.0789313 0.07837863 0.07806379 0.07800816 0.07820423 0.07874459 0.07956562
 0.08016805 0.07997906 0.07907451 0.07820071 0.07794492 0.07817519 0.07839598 0.0783165 0.07793491 0.07743055
 0.07722064 0.07784408 0.07942825 0.08125754 0.08203368 0.08069222 0.07716119 0.07260863 0.06901817 0.06812464
 0.07018647 0.07363382 0.07624729 0.07692748 0.076219 0.07519194 0.0742975 0.07350396 0.07302409 0.07334431
 0.07454658 0.07586304 0.07606842 0.07451758 0.071918 0.06984194 0.06929846 0.07009192 0.07165395 0.07365973
 0.07517655 0.07417969 0.06955028 0.06359614 0.06101234 0.06440979 0.07152858 0.07746394 0.07903183 0.07651678
 0.07221599 0.06854746 0.06717008 0.068527 0.07173595 0.07532921 0.07815882 0.07945338 0.07861563 0.0757426
 0.07213488 0.06966003 0.06960455 0.07217877 0.07647514 0.080541 0.08226624 0.08094914 0.07776193 0.07450823
 0.07243989 0.0722691 0.07433262 0.07822514 0.08279448 0.08682714 0.08954376 0.09064779 0.0903716 0.08933698
 0.08808653 0.08700249 0.08664519 0.08740081 0.08857825 0.08868116 0.08704674 0.08473419 0.08342937 0.08370037
 0.08454863 0.08462135 0.08357649 0.08183767 0.0792435 0.07505737 0.06964205 0.06487456 0.06226648 0.06182843
 0.06319895 0.06622154 0.06961858 0.07091989 0.06916475 0.06661275 0.06648444 0.06953179 0.0736687 0.07653821
 0.07769156 0.0784197 0.08008334 0.08271399 0.0848306 0.08454764 0.08144559 0.07762697 0.07622895 0.07834402
 0.08197676 0.08450788 0.08545826 0.08619014 0.08752783 0.08847895 0.08726232 0.08341831 0.0789573 0.07712476
 0.07957237 0.08470175 0.08882183 0.08887751 0.08450481 0.07812199 0.07304531 0.07119116 0.07255273 0.0764553
 0.08229726 0.08890171 0.09422393 0.09649771 0.09552279 0.09254959 0.08885467 0.08456084 0.07933265 0.07435933
 0.07257476 0.0758695 0.08266239 0.08922683 0.09301616 0.09391991 0.09279408 0.08987632 0.08504233 0.07935132
 0.07554434 0.07590983 0.07953002 0.08281343 0.08326298 0.0817453 0.08062093 0.080783 0.08134158 0.08147074
 0.08158012 0.08263026 0.08477814 0.08703141 0.08822445 0.08808188 0.08725163 0.08654173 0.08618698 0.08568805
 0.08451772 0.08318923 0.08317942 0.08531172 0.08861934 0.09133706 0.09266391 0.09304295 0.09298427 0.09217531
 0.08994476 0.08654047 0.08364016 0.08310097 0.08516021 0.08829691 0.09081484 0.09205535 0.09221885 0.09174779
 0.09103204 0.09028503 0.08961047 0.08927754 0.08964978 0.0906663 0.09172903 0.09230378 0.09235651 0.09208374
 0.09153189 0.09067379 0.08968192 0.0889363 0.08874917 0.08912709 0.08981945 0.09054523 0.09109125 0.09126705
 0.09097511 0.09036025 0.08972289 0.08924529 0.08892938 0.08878554 0.08889799 0.08925927 0.08968513 0.08996758
 0.09004032 0.08995547 0.08976828 0.08949822 0.08917074 0.08885747 0.0886687 0.08868098 0.08884605 0.08901624
 0.08911055 0.08919772 0.08934523 0.08945917 0.08938245 0.08911173 0.08881343 0.08864072 0.08860926 0.08863927
 0.08864201 0.08853975 0.08826056 0.08780055 0.08731033 0.08704081 0.08714268 0.08755428 0.08810016 0.08862165
 0.08899868 0.08916309 0.0891523 0.08907382 0.08897735 0.08881791 0.08856224 0.08828472 0.08813971 0.08824413
 0.08857307 0.08897252 0.08928609 0.08945336 0.08949846 0.08949201 0.08952927 0.08965729 0.08979863 0.08982328
 0.08971559 0.08960339 0.08960496 0.0896985 0.08976257 0.08971927 0.08962028 0.08958979 0.08969092 0.08987071
 0.09003815 0.09016453 0.09029078 0.09045131 0.09060328 0.09064492 0.09052584 0.09032595 0.09018058 0.09013771
 0.09014601 0.090175 0.09026824 0.09045407 0.09066552 0.09079666 0.09081891 0.09080479 0.09083198 0.09088857
 0.0908937 0.09079926 0.0906454 0.09051771 0.09047309 0.09050736 0.09057088 0.09060565 0.09058025 0.09050207
 0.09039971 0.09029494 0.09019358 0.09010696 0.09007585 0.09014948 0.09031914 0.09048349 0.09051212 0.09036063
 0.09011548 0.08991529 0.08982623 0.08979694 0.08973041 0.08958593 0.08940317 0.08924342 0.08913181 0.08905567
 0.08899289 0.08893221 0.08888526 0.08889079 0.08898494 0.08914415 0.0892737 0.08928605 0.08918788 0.0890659
 0.08899527 0.08898786 0.08901688 0.08905815 0.08911124 0.08919942 0.08933535 0.08947836 0.08955829 0.08955801
 0.08953996 0.08958109 0.08971451 0.08993109 0.090185 0.09039342 0.09048899 0.09049292 0.09049928 0.0905751
 0.09070826 0.0908562 0.09100528 0.09116542 0.09133833 0.0915195 0.0917218 0.09197307 0.09228531 0.09263252
 0.09296118 0.09322476 0.09342125 0.09360468 0.09385084 0.09419742 0.09461295 0.09502555 0.09538254 0.09568629
 0.09597562 0.09627546 0.09657693 0.09687353 0.09719637 0.09758475 0.09803019 0.0984797 0.09889458 0.09928201
 0.09966949 0.100071 0.1004844 0.1009105 0.1013634 0.1018556 0.1023659 0.1028355 0.103214 0.1035105
 0.1037909 0.1041277 0.1045513 0.105024 0.1054528 0.1057597 0.1059679 0.1061921 0.1065171 0.1069073
 0.1072712 0.1075919 0.1079452 0.1083896 0.1088833 0.1093295 0.1096798 0.1099714 0.1102723 0.1106039
 0.1109208 0.1111656 0.1113389 0.1115025 0.1117117 0.111972 0.1122745 0.112639 0.1130832 0.113567
 0.1140102 0.1143624 0.1146299 0.1148448 0.1150371 0.1152276 0.115419 0.1156009 0.1157739 0.1159511
 0.1161261 0.1162729 0.116395 0.1165422 0.1167569 0.1170354 0.1173617 0.1177404 0.118166 0.1185913
 0.1189765 0.1193555 0.1197982 0.1202978 0.1207448 0.1210433 0.1212128 0.121341 0.1214752 0.1216192
 0.1218042 0.1220891 0.122485 0.1229336 0.1233722 0.1237862 0.1241897 0.1245857 0.1249506 0.1252456
 0.1254427 0.1255508 0.1256227 0.1257306 0.125931 0.126234 0.1265933 0.1269335 0.1271992 0.1273707
 0.1274378 0.1273915 0.1272651 0.1271481 0.127115 0.1271372 0.1270975 0.1268899 0.1264853 0.1259046
 0.1251692 0.1242989 0.1233444 0.1223976 0.1215633 0.1209202 0.1205124 0.1203723 0.1205375 0.1210183
 0.1217473 0.1225835 0.1233718 0.1239832 0.1243028 0.1242317 0.1237416 0.1229129 0.1218909 0.1208096
 0.119754 0.1187556 0.117796 0.1168463 0.1159473 0.1152509 0.1149651 0.1152612 0.1162275 0.1178612
 0.1200478 0.1225452 0.1250422 0.1272846 0.1291677 0.1307212 0.1320299 0.1331811 0.1342498 0.1352767
 0.136248 0.1371242 0.137897 0.1385979 0.1392536 0.1398544 0.140368 0.1407688 0.1410607 0.1412802
 0.1414675 0.1416261 0.1417297 0.1417708 0.1417778 0.1417685 0.141708 0.1415218 0.1411418 0.1405438
 0.1397702 0.1389522 0.1383279 0.1382202 0.1389258 0.1405412 0.1428639 0.145487 0.1480083 0.1501692
 0.1518639 0.1531019 0.1539797 0.1546374 0.1551976 0.1557317 0.1562653 0.1567959 0.1573085 0.1577925
 0.1582503 0.158696 0.1591496 0.1596237 0.1601036 0.1605525 0.1609503 0.1613252 0.1617326 0.1622036
 0.1627151 0.1632138 0.1636714 0.1641114 0.1645664 0.165022 0.1654294 0.1657709 0.1660842 0.1664226
 0.1668162 0.1672639 0.1677321 0.1681631 0.1685161 0.168806 0.1690855 0.1693921 0.1697253 0.1700704
 0.1704224 0.1707824 0.1711451 0.171505 0.17187 0.1722511 0.1726335 0.1729751 0.1732497 0.1734825
 0.173728 0.1740164 0.1743309 0.1746351 0.1749176 0.1752085 0.1755477 0.1759366 0.1763267 0.1766626
 0.1769314 0.1771672 0.1774141 0.1776942 0.178005 0.1783319 0.1786577 0.178967 0.1792562 0.1795378
 0.1798297 0.1801387 0.1804564 0.1807687 0.1810652 0.1813446 0.1816173 0.1819004 0.1822078 0.1825465
 0.1829164 0.183302 0.1836696 0.1839884 0.184256 0.1844964 0.1847321 0.1849694 0.1852081 0.1854539
 0.1857156 0.1859953 0.1862855 0.1865768 0.1868663 0.1871568 0.1874502 0.1877435 0.1880326 0.1883187
 0.1886102 0.1889172 0.1892395 0.1895601 0.189858 0.1901282 0.1903875 0.1906567 0.1909429 0.1912379
 0.1915281 0.1918053 0.1920727 0.1923398 0.1926117 0.1928865 0.1931606 0.1934337 0.1937086 0.1939873
 0.1942679 0.1945452 0.1948155 0.1950811 0.1953463 0.1956123 0.1958778 0.1961395 0.196395 0.1966488
 0.1969105 0.197184 0.1974613 0.1977337 0.1980015 0.1982692 0.1985364 0.1987967 0.1990444 0.1992826
 0.1995247 0.1997824 0.2000549 0.2003318 0.2006041 0.200868 0.2011245 0.2013786 0.2016376 0.2019043
 0.2021767 0.2024513 0.2027232 0.2029883 0.2032477 0.2035074 0.2037728 0.2040476 0.2043336 0.204627
 0.2049205 0.2052096 0.2054928 0.2057661 0.2060267 0.2062766 0.2065177 0.2067488 0.20697 0.2071864
 0.2074052 0.207634 0.2078759 0.2081277 0.2083847 0.208645 0.2089041 0.209156 0.2094062 0.2096681
 0.2099431 0.2102186 0.2104886 0.2107577 0.2110274 0.2112939 0.2115577 0.2118219 0.212088 0.2123547
 0.2126177 0.2128751 0.2131353 0.2134076 0.2136856 0.2139543 0.2142118 0.2144668 0.2147248 0.2149881
 0.2152591 0.2155339 0.2158037 0.2160653 0.216321 0.2165758 0.216839 0.2171144 0.2173889 0.21765
 0.2179037 0.2181595 0.2184156 0.2186712 0.2189316 0.2191957 0.2194591 0.2197255 0.2199958 0.2202615
 0.2205212 0.2207828 0.2210451 0.2213027 0.2215592 0.2218162 0.2220648 0.2223041 0.2225409 0.2227611
 0.2229069 0.2228323 0.2221887 0.2202928 0.2160979 0.2083893 0.1962678 0.1797212 0.1598312 0.1383874
 0.1172206 0.09772104 0.08070403 0.06652138 0.05524008 0.04675882 0.04088408 0.03744876 0.03643218 0.03809183
 0.04311682 0.05222255 0.06459361 0.07650553 0.08278198 0.08088957 0.07335696 0.06546177 0.06084641 0.05977205
 0.06069721 0.06230539 0.06416979 0.06651278 0.06973684 0.07396421 0.07900842 0.08486777 0.09196581 0.1006081
 0.1103345 0.1201128 0.1292236 0.137821 0.1465785 0.1558761 0.1653999 0.1744507 0.1824986 0.189443
 0.1955023 0.2009759 0.206083 0.2109346 0.2155802 0.2200032 0.2240323 0.2273115 0.2294692 0.2303972
 0.230384 0.2299536 0.2295572 0.229398 0.2294905 0.2297971 0.2302879 0.2309385 0.2317277 0.2326342
 0.2336217 0.2346421 0.2356541 0.2366272 0.2375409 0.2383911 0.2391846 0.2399222 0.2405975 0.2412104
 0.2417679 0.2422779 0.2427484 0.2431864 0.2435941 0.2439759 0.2443444 0.2447075 0.2450564 0.2453766
 0.2456623 0.245916 0.2461458 0.2463655 0.2465892 0.2468205 0.2470561 0.2472918 0.2475234 0.2477473
 0.2479642 0.2481775 0.2483894 0.2486039 0.248827 0.2490563 0.2492781 0.2494834 0.2496786 0.2498773
 0.2500882 0.2503098 0.2505317 0.2507421 0.2509399 0.2511362 0.2513405 0.2515525 0.251767 0.2519804
 0.2521942 0.2524167 0.2526554 0.2529045 0.2531491 0.2533814 0.2536042 0.2538235 0.2540456 0.2542748
 0.2545017 0.2547039 0.2548688 0.2550139 0.2551776 0.2553887 0.2556413 0.2558995 0.2561324 0.2563387
 0.2565354 0.2567332 0.2569306 0.2571204 0.2573014 0.2574941 0.2577293 0.2580088 0.2582978 0.2585701
 0.2588324 0.2590923 0.2593423 0.2595826 0.2598207 0.2600394 0.2602084 0.2603422 0.2605176 0.2608107
 0.2612148 0.2616343 0.2619756 0.2622313 0.26246 0.2627133 0.2630077 0.2633157 0.2635409 0.2635792
 0.2634798 0.2634759 0.2637705 0.2643321 0.2649559 0.2654752 0.2658637 0.2661793 0.266468 0.2667168
 0.2668705 0.2668921 0.2668368 0.2668673 0.2671463 0.2676715 0.2682631 0.2687474 0.2690934 0.2693506
 0.269555 0.2697276 0.2698316 0.2697121 0.2692631 0.2687213 0.2686006 0.2691948 0.2702449 0.2712125
 0.2718076 0.2721372 0.2724068 0.2726698 0.2728795 0.2729355 0.2725703 0.2715042 0.2699924 0.2689741
 0.2692934 0.2708446 0.2727375 0.2741873 0.2750108 0.2754193 0.2756643 0.2758727 0.2759573 0.2756307
 0.2747217 0.2735992 0.2730801 0.2736755 0.2750163 0.2762538 0.2769289 0.2772049 0.2774076 0.2776589
 0.277801 0.2773412 0.2757235 0.2731588 0.2710553 0.2710299 0.2733213 0.276496 0.2788682 0.2799508
 0.280317 0.2803574 0.2797157 0.2779422 0.2751626 0.2720128 0.2694736 0.2687698 0.270551 0.2738457
 0.27661 0.2777496 0.2780409 0.2788109 0.2803414 0.2818637 0.2825762 0.2822762 0.281216 0.2796472
 0.2777017 0.2758278 0.2750469 0.276221 0.2790076 0.281986 0.2839769 0.284938 0.2853398 0.2847794
 0.2817109 0.2753096 0.2677849 0.2637531 0.2661547 0.2731785 0.2802064 0.2843476 0.2860082 0.2867249
 0.2871224 0.2867386 0.2842675 0.278255 0.2693674 0.2618462 0.2606401 0.266498 0.2751211 0.281191
 0.2820218 0.2778484 0.2708332 0.2643967 0.2618244 0.264284 0.270328 0.2773195 0.2830067 0.2861256
 0.2863882 0.284367 0.2814418 0.279456 0.2793868 0.2798969 0.2783468 0.2741315 0.269692 0.2669132
 0.2641763 0.2593301 0.2544373 0.2543951 0.2605895 0.2685959 0.2731652 0.2735374 0.272454 0.271136
 0.2671479 0.2578819 0.2455014 0.2369854 0.238022 0.2471219 0.2569744 0.2616127 0.2611347 0.2595174
 0.2592977 0.2590041 0.2552537 0.247193 0.2386864 0.2350505 0.2373743 0.2415295 0.2430162 0.2405311
 0.2343353 0.2248031 0.2150235 0.2116812 0.2193708 0.2349288 0.2499559 0.2577444 0.2556614 0.2435507
 0.2246685 0.207667 0.2023599 0.2109044 0.2251763 0.2342743 0.2331419 0.2233559 0.2084573 0.1916079
 0.1771028 0.1706901 0.1760661 0.191167 0.2083701 0.2182764 0.2148388 0.2000621 0.1844285 0.1793258
 0.1866584 0.1975742 0.2024217 0.1995171 0.1936335 0.1898359 0.1905828 0.1954401 0.2015423 0.2062353
 0.2091779 0.2093275 0.2020661 0.184769 0.1642143 0.1521425 0.1530505 0.1618244 0.1731616 0.1863461
 0.1992245 0.2049023 0.1995353 0.189669 0.1867186 0.1948433 0.2073526 0.2148851 0.2146776 0.2110903
 0.2088062 0.2077972 0.2057177 0.2033906 0.2049599 0.2122091 0.2214675 0.2277107 0.2297804 0.2299288
 0.2299898 0.2299954 0.2294732 0.2282709 0.2264614 0.2244566 0.222889 0.2218874 0.2209479 0.2196798
 0.2177866 0.2139662 0.206217 0.1947351 0.1837322 0.178151 0.1784705 0.1810167 0.1833595 0.1857106
 0.1859176 0.1780856 0.1603689 0.1413095 0.1336231 0.1419364 0.1593591 0.1753001 0.1835381 0.1827243
 0.1732236 0.1573997 0.1423068 0.1375345 0.1474043 0.1668186 0.1867059 0.2018183 0.2113974 0.2149266
 0.2112237 0.201589 0.1910993 0.1857582 0.1888325 0.1993508 0.2124365 0.220604 0.2173888 0.20374
 0.1909718 0.192486 0.2096917 0.2296646 0.2396729 0.2401175 0.2394807 0.2411487 0.2416634 0.2398983
 0.2408188 0.2485918 0.2604023 0.2692203 0.2699758 0.2615505 0.2461302 0.229746 0.2207363 0.2230778
 0.2318971 0.2388107 0.2400668 0.2360424 0.2262735 0.2116003 0.1995092 0.1996064 0.2124656 0.2283348
 0.2382309 0.242115 0.2448441 0.247795 0.247227 0.2400041 0.2288788 0.220793 0.2200001 0.2243207
 0.2287619 0.2307727 0.2302758 0.2266739 0.2192226 0.2103192 0.2055297 0.2087495 0.2181871 0.2280812
 0.2338888 0.2351251 0.2339359 0.2323532 0.2309549 0.2290718 0.2261516 0.2235248 0.2241537 0.229417
 0.236825 0.2425371 0.2457568 0.2489969 0.2541365 0.2598114 0.2630559 0.2625312 0.2597971 0.2579545
 0.2591631 0.2629299 0.266477 0.2671145 0.2647973 0.262402 0.2630794 0.267257 0.2725809 0.2765961
 0.2787548 0.279914 0.2808864 0.2817422 0.2817758 0.2800558 0.2767596 0.2739506 0.2741139 0.2776847
 0.282625 0.2865139 0.2884833 0.2890823 0.2889723 0.2882344 0.2867493 0.284819 0.283175 0.282409
 0.2825576 0.2832606 0.2841458 0.2849825 0.2856476 0.2861158 0.2864421 0.2866821 0.2868588 0.2870041
 0.2871443 0.28723 0.2871813 0.2870445 0.2870075 0.287194 0.2875009 0.2877077 0.2876765 0.2873613
 0.2866933 0.2855973 0.2841215 0.2824202 0.2805742 0.2785469 0.2764289 0.2746841 0.2740036 0.2747983
 0.2768243 0.2793337 0.2815798 0.2831849 0.2841372 0.2845978 0.2847562 0.2847729 0.2847468 0.2846991
 0.2845993 0.2844164 0.2841504 0.2838203 0.2834476 0.2830629 0.2827144 0.282439 0.2822205 0.2819895
 0.2816694 0.2812279 0.2806905 0.2801116 0.2795238 0.2789089 0.278212 0.2773824 0.2764106 0.2753406
 0.2742516 0.2732145 0.2722455 0.271296 0.2702979 0.269213 0.2680227 0.2666875 0.2651791 0.2635704
 0.2620277 0.260668 0.2594568 0.2582715 0.2570156 0.2556491 0.2541636 0.2525776 0.2509309 0.2492525
 0.247544 0.2457969 0.2440099 0.2421819 0.2403046 0.2383686 0.2363718 0.2343191 0.2322201 0.230086
 0.2279108 0.2256362 0.2231385 0.2202658 0.2168938 0.2129547 0.2084461 0.2034469 0.1981191 0.1926731
 0.1873188 0.1822276 0.1775198 0.173281 0.1695936 0.1665422 0.1641881 0.1625528 0.1616295 0.1613988
 0.1618363 0.1629135 0.1645775 0.1667174 0.1691649 0.1717345 0.1742612 0.1766215 0.1787586 0.180701
 0.1825343 0.1843332 0.1861124 0.1878369 0.1894697 0.1909894 0.1923678 0.1935626 0.1945567 0.1953847
 0.1961012 0.1967372 0.1972993 0.1977917 0.198226 0.1986186 0.198983 0.1993247 0.1996508 0.199984
 0.2003549 0.200783 0.2012792 0.2018605 0.2025419 0.2033175 0.2041612 0.2050466 0.2059644 0.2069247
 0.2079426 0.20903 0.2102087 0.2115215 0.2130096 0.2146862 0.216541 0.218547 0.2206455 0.2227353
 0.2246949 0.2264181 0.2278423 0.2289607 0.2298079 0.2304324 0.2308823 0.2312015 0.2314137 0.2315169
 0.2315082 0.2314049 0.2312281 0.2309796 0.2306457 0.2302177 0.2297084 0.2291536 0.2285897 0.2280276
 0.2274546 0.2268587 0.2262417 0.2256194 0.2250141 0.224436 0.2238689 0.2232857 0.2226741 0.2220326
 0.2213564 0.2206376 0.2198639 0.2190096 0.218046 0.2169649 0.2157775 0.2144963 0.2131282 0.2116741
 0.2101266 0.2084836 0.2067656 0.2050018 0.2032006 0.2013445 0.1994017 0.1973421 0.1951625 0.1929097
 0.1906669 0.188516 0.1865103 0.1846619 0.1829424 0.1813112 0.1797486 0.1782532 0.1768215 0.1754507
 0.1741523 0.1729376 0.1718014 0.1707307 0.1697216 0.1687819 0.167925 0.1671608 0.1664876 0.1658959
 0.1653801 0.1649403 0.1645832 0.1643297 0.164202 0.1641821 0.164198 0.1641671 0.164048 0.1638523
 0.163626 0.1634184 0.1632537 0.1631227 0.1629972 0.1628388 0.1625928 0.1621877 0.1615424 0.1605812
 0.1592648 0.1576186 0.1557319 0.1537347 0.1517725 0.1499721 0.1484076 0.1471082 0.1460866 0.1453271
 0.1447593 0.1442911 0.1438852 0.1435867 0.143472 0.1435529 0.1437166 0.1437918 0.1437135 0.143604
 0.1436605 0.1439897 0.1445564 0.145237 0.1458951 0.1464456 0.1468693 0.1471715 0.147351 0.147416
 0.1473874 0.1472737 0.1470748 0.1468026 0.1464741 0.1461017 0.1456968 0.1452548 0.14474 0.1441209
 0.1434029 0.1426047 0.1417296 0.1407676 0.1396896 0.1384678 0.1371698 0.1360089 0.1352429 0.1350241
 0.1353372 0.1360245 0.1368849 0.1377982 0.1387004 0.1394145 0.1396951 0.1396057 0.139721 0.1407094
 0.1426799 0.1450557 0.1470946 0.1484184 0.1490313 0.149032 0.1484821 0.1474419 0.1459378 0.1439323
 0.141441 0.1386007 0.1355597 0.1324342 0.1293944 0.1266404 0.1242921 0.1223856 0.1209085 0.1198754
 0.1194009 0.1191197 0.117181 0.1112163 0.1020094 0.09513132 0.09625244 0.1047491 0.1141332 0.118909
 0.1189581 0.1172448 0.1157929 0.1148764 0.1143579 0.1143742 0.1150791 0.1163533 0.1178037 0.1190133
 0.1198121 0.120226 0.1201864 0.1193358 0.1169892 0.1123513 0.1051658 0.09630004 0.08743523 0.08007094
 0.07487863 0.07175884 0.07014559 0.06931618 0.06876504 0.06845639 0.06869823 0.06976741 0.07167307 0.07423918
 0.07728288 0.08058533 0.08376831 0.08643465 0.08847376 0.09005767 0.09131998 0.09220404 0.09262191 0.0925955
 0.09222496 0.09162843 0.09091814 0.09015591 0.08930545 0.08826728 0.08702604 0.08577996 0.08484043 0.08434992
 0.08417963 0.08413149 0.08411649 0.08411165 0.0840946 0.08407238 0.08408281 0.08416416 0.08436847 0.08473558
 0.08520447 0.08562715 0.08590345 0.08605266 0.08615921 0.0862571 0.08622772 0.08588167 0.08524832 0.08464359
 0.0842518 0.08379806 0.08291273 0.08171833 0.08077648 0.08048521 0.08073127 0.08110765 0.08129211 0.08120668
 0.08098657 0.08089778 0.08116743 0.08173055</values></Ydata></ScSm><ScRf><Ydata ylabel="Single channel"><values byteorder="INTEL" format="FLOAT32" numvalues="1820"> 0.06056165 0.06069845 0.06078345 0.06082267 0.06083644 0.06085952 0.06093199 0.06107439 0.06126757 0.06145772
 0.06159133 0.06165269 0.06166026 0.06163113 0.0615766 0.06153549 0.06157152 0.06171275 0.06190893 0.06206244
 0.06210512 0.06206089 0.06203544 0.06211171 0.06223586 0.06223364 0.06197465 0.06151976 0.06107993 0.06082285
 0.06076974 0.06091628 0.06133543 0.06198104 0.06246449 0.06232912 0.06162108 0.06092328 0.06070963 0.06088968
 0.06107231 0.06101633 0.06071126 0.06029923 0.06011499 0.06058855 0.06182444 0.0632623 0.06388049 0.06283693
 0.06006867 0.0564919 0.0536693 0.05296712 0.05458488 0.05728296 0.05931796 0.0598357 0.05927598 0.05848417
 0.05780784 0.05720758 0.05683864 0.05708244 0.05801198 0.05903257 0.05918404 0.05795833 0.05591064 0.0542766
 0.05384938 0.05447486 0.05570387 0.05727818 0.05846692 0.05768634 0.0540586 0.04938618 0.04734848 0.0500054
 0.05559979 0.06028152 0.06153253 0.05956315 0.05618398 0.05330527 0.05222674 0.0532848 0.05578494 0.05858495
 0.06079326 0.06180707 0.06115656 0.05891415 0.05609274 0.05414992 0.05409322 0.05609272 0.05944487 0.06262531
 0.06398118 0.06295777 0.06046761 0.05792032 0.05629552 0.05615244 0.05776048 0.06080928 0.06439847 0.06757209
 0.06971128 0.07057768 0.07035446 0.06953852 0.06856609 0.06773719 0.06747949 0.06808425 0.06900777 0.06908233
 0.06779434 0.06597788 0.06495567 0.06517195 0.06584133 0.06589933 0.06507443 0.06370085 0.06165972 0.05837794
 0.05413568 0.05039765 0.04834719 0.04799661 0.04907115 0.05145976 0.05416512 0.05523512 0.05388789 0.05187829
 0.05174311 0.05409987 0.05733121 0.05958658 0.06050228 0.06108464 0.06240227 0.06448099 0.06615603 0.06594398
 0.06351428 0.06051971 0.05942767 0.06109773 0.06395973 0.06595384 0.06670751 0.0672975 0.06837223 0.06914761
 0.06822254 0.06523925 0.06177703 0.06037593 0.06232233 0.06636053 0.06960084 0.06964942 0.06621818 0.06120665
 0.05722775 0.05579569 0.05690999 0.06004489 0.06473106 0.07003924 0.07434738 0.07624426 0.07555009 0.07324107
 0.07033625 0.06695214 0.06283106 0.05891462 0.05753842 0.06022131 0.06571536 0.071047 0.07417367 0.07499926
 0.07420158 0.07195742 0.06815127 0.06363398 0.06063325 0.06101847 0.06405364 0.06681928 0.06727546 0.06612147
 0.06528594 0.06550723 0.06605973 0.06626208 0.06644963 0.06741834 0.06930362 0.07128728 0.07239899 0.07239723
 0.07181028 0.07131721 0.07113132 0.07084422 0.07000817 0.06904039 0.06916879 0.07108006 0.07396552 0.07635014
 0.07756825 0.07799755 0.07806949 0.07751673 0.0757613 0.07300158 0.07065917 0.07032429 0.07221389 0.07503302
 0.07732184 0.07851014 0.07877743 0.07851461 0.07805874 0.07758904 0.0771879 0.07707354 0.07754309 0.0785408
 0.07956471 0.08017024 0.08033182 0.08021169 0.07984364 0.07920735 0.07846151 0.0779414 0.0779163 0.07838704
 0.07913423 0.07991615 0.08054733 0.08085215 0.08073038 0.08030361 0.07984718 0.07953857 0.07938702 0.07939711
 0.07963333 0.08008055 0.08057286 0.08092955 0.08109781 0.08112863 0.0810737 0.08094884 0.08077193 0.08060582
 0.08055267 0.08067831 0.08092886 0.08117123 0.08135217 0.08155385 0.08183324 0.08207832 0.08212031 0.08195154
 0.08174096 0.08164827 0.08169393 0.08180209 0.08189183 0.081893 0.08173326 0.08140016 0.08102955 0.08085625
 0.081028 0.0815004 0.08211625 0.08271547 0.0831666 0.0834 0.08345859 0.08344955 0.08341889 0.08332386
 0.0831368 0.08293116 0.08285259 0.08301194 0.08339147 0.08385184 0.08423989 0.08448081 0.0845847 0.0846252
 0.08471175 0.08489929 0.08510493 0.08518723 0.08512722 0.08506189 0.08511625 0.08525806 0.08534797 0.08530551
 0.08519849 0.08516901 0.0852877 0.08549772 0.08569765 0.08585199 0.08600786 0.08621209 0.08642238 0.08651882
 0.08642766 0.0862188 0.08603875 0.08595979 0.08595216 0.08599329 0.08612074 0.08634678 0.0865849 0.08671811
 0.08672476 0.08669619 0.0867245 0.08679817 0.08682384 0.08673617 0.08656493 0.08640137 0.08632243 0.08634611
 0.08643231 0.08651115 0.08652317 0.08645332 0.08633484 0.08621636 0.08612692 0.08608156 0.08611402 0.08626712
 0.08652093 0.08674933 0.08679603 0.08661686 0.08633302 0.08612525 0.08607203 0.08609419 0.08605126 0.08587725
 0.08562076 0.08537418 0.08518986 0.08506098 0.08495627 0.08486009 0.0847939 0.08480814 0.08493051 0.08510195
 0.08518739 0.08508812 0.08483978 0.08457425 0.08439688 0.08432421 0.08431444 0.08431764 0.08431174 0.08432146
 0.08438301 0.08447236 0.08450695 0.08444316 0.08433489 0.08427686 0.08432832 0.08449352 0.08471809 0.08489311
 0.08492571 0.08483326 0.08472895 0.08470176 0.08474741 0.08481976 0.08490071 0.08499644 0.08510151 0.08520302
 0.08531255 0.08546634 0.08568601 0.0859469 0.08618967 0.08636372 0.08646797 0.08655775 0.08670801 0.08695678
 0.08727591 0.08759365 0.08785035 0.08804096 0.08820757 0.08838874 0.08858529 0.08878621 0.0890097 0.08928725
 0.08961353 0.08994465 0.09024817 0.09052898 0.09080589 0.09108604 0.09136926 0.09166704 0.09201011 0.09242259
 0.09287336 0.09326807 0.0935221 0.09364571 0.09374252 0.09392835 0.0942509 0.09465556 0.09501228 0.09521586
 0.09529396 0.09538759 0.09559651 0.09587748 0.0961308 0.09635137 0.0966365 0.09704879 0.09752059 0.09791381
 0.09815423 0.0982915 0.09843153 0.09862161 0.09881346 0.09894077 0.09901135 0.09909422 0.09922936 0.09939815
 0.09959245 0.09985733 0.1002262 0.1006495 0.1010319 0.1013219 0.1015325 0.101694 0.1018218 0.1019163
 0.1019679 0.1019775 0.1019825 0.1020358 0.1021404 0.1022385 0.1022875 0.1023171 0.102388 0.1025263
 0.1027265 0.1029858 0.1032941 0.1036068 0.1038815 0.1041425 0.1044576 0.1048289 0.1051532 0.1053305
 0.1053784 0.1053923 0.105425 0.1054679 0.1055328 0.1056762 0.1059287 0.1062526 0.1065899 0.106922
 0.1072633 0.1076167 0.1079465 0.1081887 0.1082956 0.1082791 0.1082148 0.1081978 0.1082921 0.1085069
 0.1088037 0.1091231 0.1094155 0.1096445 0.109772 0.1097748 0.109697 0.1096546 0.1097406 0.1099243
 0.1100704 0.1100588 0.1098595 0.1095001 0.1090053 0.1083935 0.1077142 0.1070549 0.1065028 0.1061047
 0.1058725 0.1058285 0.1060217 0.1064755 0.1071234 0.1078286 0.1084708 0.1089804 0.1092912 0.1093159
 0.1090105 0.108435 0.1077203 0.1069875 0.1063089 0.1057022 0.1051339 0.1045644 0.1040339 0.1036985
 0.1037512 0.1043052 0.1053419 0.106729 0.1082602 0.109712 0.1109294 0.1118887 0.1126735 0.1133802
 0.1140538 0.1147081 0.1153655 0.1160376 0.1166864 0.117252 0.1177225 0.1181418 0.1185489 0.1189391
 0.1192828 0.1195573 0.1197675 0.1199513 0.1201477 0.12034 0.1204571 0.1204525 0.1203578 0.1202367
 0.1201105 0.1199454 0.1196933 0.1193324 0.1188978 0.1185039 0.1183284 0.1185407 0.1192068 0.120248
 0.1214978 0.1228068 0.1240841 0.1252516 0.1262117 0.1268989 0.1273422 0.1276462 0.127914 0.1281998
 0.1285101 0.1288256 0.1291263 0.129409 0.1296871 0.1299782 0.1302963 0.1306425 0.1309903 0.1312935
 0.1315294 0.1317341 0.1319815 0.1323157 0.1327066 0.1330799 0.1333981 0.1336941 0.1340114 0.1343321
 0.1345977 0.1347903 0.1349583 0.1351642 0.1354397 0.1357805 0.1361495 0.1364842 0.1367362 0.1369149
 0.1370762 0.1372672 0.1374951 0.1377425 0.1379933 0.1382408 0.1384876 0.1387456 0.1390307 0.1393409
 0.1396407 0.1398795 0.1400409 0.140164 0.1403087 0.1405026 0.1407268 0.1409483 0.1411573 0.1413792
 0.1416477 0.1419613 0.1422709 0.1425176 0.142683 0.1427994 0.142916 0.1430639 0.1432476 0.1434565
 0.143676 0.1438931 0.1441 0.1443011 0.1445088 0.1447299 0.1449578 0.1451814 0.1453952 0.1455988
 0.1457942 0.1459869 0.1461898 0.1464203 0.1466906 0.1469895 0.1472779 0.1475146 0.147691 0.1478332
 0.1479717 0.1481193 0.1482772 0.1484473 0.148632 0.1488298 0.1490344 0.1492409 0.1494492 0.1496628
 0.1498812 0.1500981 0.150308 0.150513 0.1507216 0.1509408 0.1511685 0.1513928 0.1516003 0.151787
 0.1519627 0.1521435 0.1523408 0.1525513 0.1527585 0.1529488 0.1531282 0.1533163 0.1535227 0.1537364
 0.1539394 0.1541247 0.1543008 0.1544821 0.1546762 0.1548787 0.1550785 0.1552679 0.1554486 0.1556302
 0.1558208 0.1560179 0.1562122 0.1564004 0.1565897 0.1567867 0.1569907 0.157198 0.1574063 0.157612
 0.1578111 0.1580037 0.1581958 0.1583949 0.1586038 0.1588157 0.1590197 0.1592133 0.1594058 0.1596059
 0.1598134 0.1600238 0.1602332 0.1604368 0.1606329 0.1608262 0.1610225 0.161222 0.1614219 0.1616234
 0.1618319 0.1620509 0.1622774 0.1625039 0.1627265 0.1629486 0.1631727 0.1633921 0.1635971 0.1637847
 0.1639588 0.1641273 0.1642975 0.1644716 0.1646449 0.1648148 0.1649852 0.1651609 0.1653447 0.1655404
 0.1657486 0.1659609 0.166167 0.1663645 0.1665593 0.1667589 0.166968 0.1671838 0.1673974 0.1676036
 0.1678056 0.1680061 0.1682047 0.1684039 0.1686084 0.1688194 0.1690347 0.1692511 0.1694638 0.1696714
 0.1698796 0.1700935 0.1703097 0.1705209 0.170724 0.1709225 0.1711257 0.1713401 0.171558 0.1717652
 0.1719609 0.1721566 0.1723575 0.1725604 0.1727663 0.1729776 0.1731922 0.1734079 0.1736232 0.1738343
 0.1740405 0.1742478 0.1744584 0.1746678 0.1748781 0.1750953 0.1753154 0.1755308 0.175743 0.1759541
 0.1761613 0.1763685 0.1765815 0.1767833 0.1769206 0.1768735 0.1763674 0.1748634 0.1715294 0.165394
 0.1557367 0.1425477 0.1266923 0.1096008 0.09273387 0.07719769 0.06363899 0.05233637 0.04334565 0.03659257
 0.03192876 0.02921903 0.02843662 0.02977571 0.03377917 0.04101675 0.05084632 0.06031527 0.06530973 0.06380723
 0.05781306 0.05153152 0.04786932 0.04703207 0.04778383 0.04907383 0.05056711 0.05244467 0.05502484 0.05839989
 0.06242085 0.0670934 0.07276262 0.07967137 0.08744732 0.09526639 0.1025592 0.1094513 0.1164766 0.1239308
 0.1315568 0.1387957 0.1452317 0.1507943 0.1556617 0.1600687 0.1641814 0.1680805 0.171804 0.1753439
 0.17857 0.1812028 0.1829484 0.1837204 0.1837423 0.1834243 0.1831239 0.1830091 0.1830995 0.1833682
 0.1837878 0.1843337 0.1849902 0.185744 0.1865641 0.1874076 0.1882462 0.1890666 0.1898527 0.1905873
 0.1912647 0.1918879 0.1924576 0.192972 0.1934317 0.1938448 0.1942269 0.1945926 0.1949443 0.1952776
 0.1955943 0.1959012 0.1962017 0.1964928 0.1967672 0.1970157 0.1972342 0.1974298 0.1976155 0.1978029
 0.1980005 0.198211 0.1984283 0.1986433 0.198854 0.1990635 0.1992715 0.1994749 0.1996714 0.1998592
 0.2000395 0.2002204 0.2004113 0.2006118 0.2008145 0.2010151 0.2012148 0.2014121 0.2016021 0.2017829
 0.2019614 0.2021471 0.2023406 0.2025336 0.2027245 0.2029251 0.2031467 0.2033835 0.2036197 0.2038448
 0.2040568 0.204259 0.204461 0.2046732 0.2048909 0.2050938 0.2052671 0.2054214 0.2055868 0.2057864
 0.2060131 0.2062364 0.2064355 0.2066177 0.2068004 0.2069886 0.2071742 0.2073491 0.2075172 0.2077028
 0.2079328 0.2082024 0.2084738 0.2087197 0.2089463 0.2091681 0.2093889 0.2096102 0.2098307 0.210032
 0.2101952 0.2103374 0.2105159 0.2107843 0.2111393 0.2115137 0.2118328 0.2120795 0.2122905 0.212508
 0.2127557 0.2130214 0.2132302 0.2132919 0.2132378 0.2132556 0.2135154 0.2139966 0.2145332 0.2149897
 0.2153456 0.2156464 0.2159259 0.2161684 0.2163225 0.2163569 0.216325 0.2163716 0.2166321 0.2170979
 0.2176166 0.2180457 0.2183621 0.218607 0.218808 0.2189762 0.2190789 0.2189968 0.2186571 0.2182619
 0.2182258 0.2187721 0.2196743 0.2204938 0.2210099 0.2213217 0.2215915 0.22185 0.2220569 0.2221375
 0.2218788 0.2210497 0.2198551 0.2190622 0.2193646 0.2206815 0.2222898 0.223544 0.2242786 0.2246528
 0.2248788 0.2250817 0.2252005 0.2249891 0.2242942 0.2234184 0.2230403 0.2235826 0.2247362 0.2257939
 0.2263757 0.2266289 0.2268426 0.2271274 0.2273407 0.2270516 0.2257843 0.2237137 0.2220124 0.2220235
 0.2239501 0.2266148 0.2286283 0.2295844 0.2299553 0.2300678 0.2296225 0.2282296 0.2259839 0.2234258
 0.2213861 0.2208793 0.22243 0.2252234 0.227567 0.2285602 0.2288502 0.229539 0.2308664 0.2322034
 0.2328833 0.2327205 0.2319079 0.2306577 0.2290975 0.2276132 0.2270532 0.2281263 0.2305396 0.2331053
 0.2348392 0.2357104 0.2361215 0.2357447 0.2332857 0.2280408 0.22184 0.2185339 0.2205878 0.2265061
 0.2324446 0.2359898 0.2374773 0.2381869 0.238631 0.2384095 0.2364253 0.2314727 0.2241204 0.2179173
 0.2169985 0.2219907 0.2293068 0.2345056 0.235334 0.231967 0.2261965 0.2208867 0.2188039 0.2209428
 0.2261019 0.2320756 0.2369725 0.2397247 0.2400818 0.2385157 0.236183 0.2346402 0.2347177 0.2352889
 0.2341218 0.2306975 0.2270708 0.2248362 0.2226367 0.2186629 0.2146646 0.2147915 0.2202199 0.2271949
 0.2312556 0.2317489 0.2309946 0.2300258 0.2267788 0.2190466 0.2086748 0.2016097 0.2027067 0.2106976
 0.2193325 0.2235063 0.2233042 0.2221347 0.2221749 0.2221611 0.2191762 0.2124773 0.205406 0.2025682
 0.2049036 0.2088254 0.2104317 0.2085981 0.2035546 0.1956269 0.187507 0.185027 0.192206 0.2062906
 0.2199358 0.2272505 0.2258836 0.2156391 0.1993628 0.1847592 0.1806231 0.1889162 0.2023676 0.2111825
 0.210789 0.2025651 0.1896685 0.1749615 0.1624045 0.1573415 0.1632584 0.1783024 0.1953815 0.2056312
 0.2032541 0.1900752 0.1760647 0.1721381 0.1801363 0.1915326 0.1970085 0.1949341 0.1899386 0.1869765
 0.1885012 0.1941013 0.2009197 0.2063207 0.209971 0.2107568 0.2039221 0.1867804 0.1662273 0.1542041
 0.1552956 0.1643277 0.17593 0.1893806 0.2024792 0.2081956 0.2026117 0.1923935 0.1891632 0.1971553
 0.2095745 0.2169211 0.2164021 0.2124595 0.2098753 0.2086598 0.2064515 0.2040606 0.2056469 0.2130102
 0.2224675 0.2289605 0.2313053 0.2317581 0.2321759 0.2325992 0.2325344 0.2318023 0.2304666 0.2289501
 0.2279039 0.2274717 0.2271582 0.2265898 0.2254776 0.2224366 0.2152767 0.2040733 0.1931498 0.1876619
 0.1881232 0.1907242 0.1929899 0.1952179 0.1951977 0.1867551 0.1679194 0.1475866 0.1390464 0.1471442
 0.1646723 0.1805608 0.1883581 0.1867723 0.1763238 0.1595001 0.1434054 0.137587 0.1462665 0.1642706
 0.1825322 0.1959062 0.203836 0.2060462 0.2014996 0.1914351 0.1806737 0.1748929 0.1771227 0.1863658
 0.197986 0.2049767 0.2013514 0.1880336 0.1755252 0.1762331 0.1914906 0.2094097 0.2182509 0.2183391
 0.217449 0.2187149 0.2190025 0.2172901 0.2181128 0.225284 0.2362542 0.2446206 0.245744 0.2385732
 0.225085 0.2108071 0.2033903 0.2064306 0.2153245 0.2222415 0.2236971 0.2200833 0.2110363 0.1974202
 0.1862813 0.1865976 0.1988684 0.2139407 0.2234081 0.2272559 0.2300528 0.2330933 0.2328569 0.2263837
 0.2162607 0.2090441 0.2087798 0.2134496 0.2183611 0.2210933 0.2215134 0.2189592 0.212661 0.2049408
 0.2012243 0.2052991 0.2153633 0.2257002 0.2317832 0.2330807 0.2316705 0.2295591 0.2273659 0.2245034
 0.2204872 0.2166516 0.2159113 0.2196496 0.2255108 0.2298172 0.2317921 0.2338307 0.2377508 0.2422981
 0.244677 0.2436001 0.2405012 0.2382647 0.2388975 0.2419417 0.2448297 0.245084 0.2426773 0.2402803
 0.2408009 0.2446114 0.2495152 0.2532398 0.2552809 0.2564206 0.2573955 0.2582608 0.2583568 0.2568148
 0.2537912 0.2511785 0.2512532 0.2544074 0.2587751 0.2621611 0.2638127 0.2642735 0.2641624 0.263535
 0.2622506 0.2605613 0.2591291 0.2585028 0.2587239 0.259455 0.2603348 0.261139 0.2617573 0.2621728
 0.2624383 0.2626085 0.2627158 0.2628019 0.2628952 0.2629479 0.2628891 0.2627684 0.2627581 0.2629586
 0.2632671 0.2634864 0.2634991 0.2632672 0.2627307 0.2618251 0.2605952 0.2591782 0.2576426 0.2559484
 0.2541719 0.2527353 0.2522705 0.253151 0.2551511 0.2575849 0.2597689 0.2613565 0.2623356 0.2628511
 0.2630717 0.2631389 0.2631365 0.2630801 0.2629482 0.262731 0.2624436 0.2621056 0.2617302 0.2613381
 0.2609666 0.260647 0.2603734 0.2601017 0.2597798 0.25938 0.2589093 0.2583973 0.2578683 0.2573115
 0.2566789 0.2559235 0.2550441 0.2540955 0.253157 0.2522855 0.2514841 0.2507132 0.2499322 0.249121
 0.2482523 0.2472704 0.2461482 0.2449669 0.2438897 0.2430266 0.2423457 0.241727 0.2410655 0.2403059
 0.239428 0.2384473 0.2374132 0.2363685 0.2353117 0.2342128 0.2330473 0.2318005 0.2304577 0.2290103
 0.2274681 0.2258599 0.2242256 0.2225963 0.2209563 0.2192213 0.2172602 0.2149349 0.2121252 0.2087479
 0.2047883 0.200324 0.195516 0.1905694 0.1856827 0.1810159 0.1766913 0.1728117 0.1694657 0.1667226
 0.1646322 0.1632297 0.1625354 0.1625562 0.1632871 0.1647002 0.1667226 0.169228 0.1720537 0.1750292
 0.1779924 0.1807998 0.183359 0.1856714 0.1878195 0.1898769 0.1918363 0.1936398 0.1952535 0.1966807
 0.1979216 0.1989604 0.1997931 0.2004496 0.2009852 0.2014528 0.2018794 0.2022643 0.2025963 0.2028686
 0.2030843 0.2032624 0.2034366 0.2036394 0.2038841 0.20416 0.2044447 0.2047295 0.2050446 0.2054425
 0.2059428 0.2065094 0.2070918 0.2076728 0.2082691 0.2089099 0.2096294 0.2104646 0.2114451 0.2125807
 0.2138531 0.2152117 0.216583 0.217888 0.2190577 0.2200402 0.2208032 0.2213334 0.2216356 0.2217349
 0.2216714 0.2214857 0.2212082 0.220857 0.2204337 0.2199264 0.2193319 0.218675 0.2179951 0.2173149
 0.2166334 0.2159479 0.2152693 0.2146096 0.213965 0.2133248 0.2126927 0.2120855 0.211507 0.2109409
 0.2103733 0.2098041 0.209234 0.2086572 0.2080705 0.2074686 0.2068262 0.2061035 0.2052798 0.2043636
 0.2033673 0.2022873 0.2011174 0.1998635 0.1985324 0.197119 0.1956149 0.1940246 0.1923625 0.1906366
 0.1888372 0.1869439 0.1849535 0.1829088 0.1808968 0.1790067 0.1772846 0.1757202 0.1742666 0.172876
 0.1715249 0.1702158 0.1689624 0.1677805 0.1666799 0.1656496 0.1646599 0.1636963 0.162784 0.1619663
 0.1612635 0.1606619 0.1601364 0.1596751 0.1592791 0.1589488 0.1586858 0.158511 0.1584541 0.1585074
 0.1586013 0.1586438 0.1585823 0.1584322 0.1582593 0.1581273 0.1580521 0.1580046 0.1579485 0.1578526
 0.1576734 0.1573463 0.1567918 0.1559332 0.1547353 0.1532355 0.1515235 0.1497029 0.1478879 0.1462027
 0.1447489 0.1435806 0.1427033 0.1420665 0.1415749 0.1411553 0.1408165 0.1406278 0.1406484 0.140862
 0.141147 0.1413397 0.1413817 0.1413862 0.1415311 0.1419181 0.1425346 0.1432866 0.1440485 0.1447204
 0.1452506 0.1456162 0.1458278 0.1459421 0.1460094 0.1460166 0.1459276 0.1457437 0.1454876 0.1451725
 0.1448076 0.144391 0.1438978 0.1433119 0.1426446 0.1419062 0.141099 0.1402244 0.1392461 0.138105
 0.1368514 0.1357131 0.1349706 0.1347964 0.1351973 0.1360249 0.1370621 0.1381627 0.1392372 0.1400837
 0.1404431 0.1403868 0.1405101 0.1415099 0.143533 0.146022 0.1482102 0.1496782 0.1504106 0.1505059
 0.1500345 0.1490743 0.1476586 0.14573 0.1432782 0.1404325 0.1373477 0.1341589 0.1310696 0.1282977
 0.1259454 0.1240315 0.1225555 0.1215528 0.1211491 0.1209761 0.1191354 0.11318 0.1038852 0.09693506
 0.09812368 0.1068313 0.1164713 0.1214522 0.1216187 0.1199441 0.1184804 0.1175352 0.1170047 0.1170437
 0.117788 0.1190827 0.1205254 0.1217214 0.1225228 0.1229662 0.1229791 0.1221667 0.1197852 0.115005
 0.1075761 0.09839737 0.08921639 0.081624 0.07633549 0.07321006 0.07161853 0.070812 0.07027873 0.06997663
 0.07022132 0.07131018 0.07326953 0.07593586 0.07912926 0.08261314 0.08598395 0.08883005 0.09103155 0.09275705
 0.09415399 0.09517476 0.0957078 0.09574664 0.09539391 0.09478035 0.09401637 0.0931707 0.09223914 0.09115607
 0.08992076 0.08872598 0.08786118 0.08744463 0.08733483 0.08732402 0.08731556 0.08729959 0.08727223 0.08722159
 0.08714847 0.08710314 0.08720188 0.08753631 0.08804567 0.08853945 0.08885778 0.08898085 0.08899745 0.08896615
 0.08878917 0.08830595 0.08757763 0.08691643 0.08646924 0.08593655 0.08494906 0.08363082 0.08255033 0.08213717
 0.08231586 0.0826824 0.08287233 0.08275845 0.08247741 0.08235414 0.082662 0.08331017 0.08384039 0.08386083
</values></Ydata></ScRf><Data_Parameters_AB><parameter name="DPF">1</parameter><parameter name="NPT">3497</parameter><parameter name="FXV">3996</parameter><parameter name="LXV">500</parameter><parameter name="CSF">1</parameter><parameter name="MXY">0.0228709224611521</parameter><parameter name="MNY">-0.110102258622646</parameter><parameter name="DAT">27/05/2022</parameter><parameter name="TIM">11:59:52.154 (GMT+2)</parameter><parameter name="DXU">WN</parameter></Data_Parameters_AB><AB__Qtest><MainReport name="Quality Test Report"><Header><Line><Legend>Test result ok/not ok [1/0]: </Legend><Value>0</Value></Line><Line><Legend>Method file: </Legend><Value>C:\Users\Public\Documents\Bruker\OPUS_8.2.28\QT\IRBT_v3_default.QT</Value></Line></Header><Matrix><Line><Legend></Legend><Legend>min</Legend><Legend>max</Legend><Legend>measured</Legend></Line><Line><Value>Absorption (X-Range 1):</Value><Value>0.400000</Value><Value>2.000000</Value><Value>0.099895</Value></Line><Line><Value>Noise (X-Range 4):</Value><Value></Value><Value>0.000300</Value><Value>0.000043</Value></Line><Line><Value>Signal/Noise (X-Range 2):</Value><Value>200.000000</Value><Value></Value><Value>36.811190</Value></Line><Line><Value>Signal/Noise (X-Range 3):</Value><Value>40.000000</Value><Value></Value><Value>29.668999</Value></Line><Line><Value>Water vapour (X-Range 5):</Value><Value></Value><Value>0.000300</Value><Value>0.000068</Value></Line><Line><Value>Signal/Water (X-Range 2):</Value><Value>100.000000</Value><Value></Value><Value>23.283447</Value></Line><Line><Value>Signal/Water (X-Range 3):</Value><Value>20.000000</Value><Value></Value><Value>18.765939</Value></Line><Line><Value>Fringes (X-Range 6):</Value><Value></Value><Value>0.000100</Value><Value>0.000047</Value></Line></Matrix></MainReport></AB__Qtest><Data_Parameters_ScSm><parameter name="DPF">1</parameter><parameter name="NPT">1814</parameter><parameter name="FXV">3996.33169228125</parameter><parameter name="LXV">499.541461535156</parameter><parameter name="CSF">1</parameter><parameter name="MXY">0.289082258939743</parameter><parameter name="MNY">0.0364321768283844</parameter><parameter name="DAT">27/05/2022</parameter><parameter name="TIM">11:59:52.154 (GMT+2)</parameter><parameter name="DXU">WN</parameter></Data_Parameters_ScSm><Data_Parameters_ScRf><parameter name="DPF">1</parameter><parameter name="NPT">1820</parameter><parameter name="FXV">4004.04661832813</parameter><parameter name="LXV">495.683998511719</parameter><parameter name="CSF">1</parameter><parameter name="MXY">0.264273464679718</parameter><parameter name="MNY">0.0284366235136986</parameter><parameter name="DAT">27/05/2022</parameter><parameter name="TIM">11:59:26.107 (GMT+2)</parameter><parameter name="DXU">WN</parameter></Data_Parameters_ScRf><Optic_Parameters_Rf><parameter name="APR">0</parameter><parameter name="APT">Open</parameter><parameter name="BMS">KBr</parameter><parameter name="DTC">RT-DLaTGS_IR-Biotyper [Microplate reader]</parameter><parameter name="HPF">0</parameter><parameter name="LPF">10.0</parameter><parameter name="LPV">4000</parameter><parameter name="PGR">0</parameter><parameter name="RCH">Module port</parameter><parameter name="RDX">0</parameter><parameter name="SRC">MIR</parameter><parameter name="VEL">10.0</parameter><parameter name="SON">Off</parameter></Optic_Parameters_Rf><Acquisition_Parameters_Rf><parameter name="ADT">1</parameter><parameter name="AQM">DD</parameter><parameter name="CFE">0</parameter><parameter name="COR">0</parameter><parameter name="DEL">0</parameter><parameter name="DLY">0</parameter><parameter name="HFW">8000</parameter><parameter name="LFW">0</parameter><parameter name="NSR">32</parameter><parameter name="PLF">AB</parameter><parameter name="RES">6</parameter><parameter name="RGN">-1</parameter><parameter name="STR">0</parameter><parameter name="TCL">MakeCompatibleScalar (0, {WSV=1.000000, ARV=0});</parameter><parameter name="TDL">37</parameter><parameter name="RPO">0</parameter></Acquisition_Parameters_Rf><FT_-_Parameters_Rf><parameter name="APF">B3</parameter><parameter name="HFQ">500</parameter><parameter name="LFQ">4000</parameter><parameter name="NLI">0</parameter><parameter name="PHR">24</parameter><parameter name="PHZ">ML</parameter><parameter name="SPZ">NO</parameter><parameter name="ZFF">1</parameter></FT_-_Parameters_Rf><Optic_Parameters_><parameter name="APR">0</parameter><parameter name="APT">Open</parameter><parameter name="BMS">KBr</parameter><parameter name="CHN">Module port</parameter><parameter name="DTC">RT-DLaTGS_IR-Biotyper [Microplate reader]</parameter><parameter name="HPF">0</parameter><parameter name="LPF">10.0</parameter><parameter name="LPV">4000</parameter><parameter name="PGN">0</parameter><parameter name="RDX">0</parameter><parameter name="SRC">MIR</parameter><parameter name="VEL">10.0</parameter><parameter name="SON">Off</parameter></Optic_Parameters_><FT_-_Parameters_><parameter name="APF">B3</parameter><parameter name="HFQ">500</parameter><parameter name="LFQ">4000</parameter><parameter name="NLI">0</parameter><parameter name="PHR">24</parameter><parameter name="PHZ">ML</parameter><parameter name="SPZ">NO</parameter><parameter name="ZFF">1</parameter></FT_-_Parameters_><Acquisition_Parameters_><parameter name="ADT">1</parameter><parameter name="AQM">DD</parameter><parameter name="CFE">0</parameter><parameter name="COR">0</parameter><parameter name="DEL">0</parameter><parameter name="DLY">0</parameter><parameter name="HFW">8000</parameter><parameter name="LFW">0</parameter><parameter name="NSS">32</parameter><parameter name="PLF">AB</parameter><parameter name="RES">6</parameter><parameter name="SOT">0</parameter><parameter name="TCL">MakeCompatibleScalar (0, {WSV=1.000000, ARV=0});</parameter><parameter name="TDL">37</parameter><parameter name="SPO">0</parameter><parameter name="SGN">-1</parameter></Acquisition_Parameters_><Instrument_Parameters_Rf><parameter name="HFL">15800.168544</parameter><parameter name="LFL">0</parameter><parameter name="LWN">15800.168544</parameter><parameter name="ABP">32197</parameter><parameter name="SSP">1</parameter><parameter name="ARG">2</parameter><parameter name="ASG">2</parameter><parameter name="ASS">32</parameter><parameter name="GFW">16</parameter><parameter name="GBW">16</parameter><parameter name="BFW">0</parameter><parameter name="BBW">0</parameter><parameter name="PKA">7264</parameter><parameter name="PKL">4996</parameter><parameter name="PRA">7448</parameter><parameter name="PRL">5001</parameter><parameter name="P2A">1</parameter><parameter name="P2L">1</parameter><parameter name="P2R">1</parameter><parameter name="P2K">1</parameter><parameter name="DAQ">0</parameter><parameter name="AG2">1</parameter><parameter name="SSM">1</parameter><parameter name="RSN">24918</parameter><parameter name="CRR">0</parameter><parameter name="SRT">1653652766.107</parameter><parameter name="DUR">19.635986328125</parameter><parameter name="TSC">27.9</parameter><parameter name="MVD">0.318357050418854</parameter><parameter name="AN1">0.22579636826509</parameter><parameter name="AN2">0</parameter><parameter name="VSN">2.485 Apr  4 2017</parameter><parameter name="SRN">0085</parameter><parameter name="CAM">0</parameter><parameter name="INS">IR-Biotyper</parameter><parameter name="FOC">69</parameter><parameter name="RDY">1</parameter><parameter name="ARS">32</parameter></Instrument_Parameters_Rf><Sample_Parameters_><parameter name="BLD"></parameter><parameter name="CNM">Admin</parameter><parameter name="CPY"></parameter><parameter name="DPM"></parameter><parameter name="EXP">IRBT_v3_32Scans.XPM</parameter><parameter name="LCT"></parameter><parameter name="SFM">Microplate, HTS-XT</parameter><parameter name="SNM">220527-1039(v.2)_GFG29M (D_9)_C8_bc454be6-c03b-44ed-b2d4-99ddc957210d.0</parameter><parameter name="XPP">C:\Users\Public\Documents\Bruker\OPUS_8.2.28\XPM</parameter><parameter name="IST">OK</parameter><parameter name="CPG">1252</parameter><parameter name="UID">cb680036-a277-4377-9737-6e4c9ea3588b</parameter></Sample_Parameters_><Instrument_Parameters_><parameter name="HFL">15800.168544</parameter><parameter name="LFL">0</parameter><parameter name="LWN">15800.168544</parameter><parameter name="ABP">32197</parameter><parameter name="SSP">1</parameter><parameter name="ASG">2</parameter><parameter name="ARG">2</parameter><parameter name="ASS">32</parameter><parameter name="GFW">16</parameter><parameter name="GBW">16</parameter><parameter name="BFW">0</parameter><parameter name="BBW">0</parameter><parameter name="PKA">8321</parameter><parameter name="PKL">4988</parameter><parameter name="PRA">8639</parameter><parameter name="PRL">4993</parameter><parameter name="P2A">1</parameter><parameter name="P2L">1</parameter><parameter name="P2R">1</parameter><parameter name="P2K">1</parameter><parameter name="DAQ">0</parameter><parameter name="AG2">1</parameter><parameter name="SSM">1</parameter><parameter name="RSN">13085</parameter><parameter name="CRR">0</parameter><parameter name="SRT">1653652792.155</parameter><parameter name="DUR">19.6349945068359</parameter><parameter name="TSC">27.9</parameter><parameter name="MVD">0.252166897058487</parameter><parameter name="AN1">0.225801652937333</parameter><parameter name="AN2">0</parameter><parameter name="VSN">2.485 Apr  4 2017</parameter><parameter name="SRN">0085</parameter><parameter name="CAM">0</parameter><parameter name="INS">IR-Biotyper</parameter><parameter name="FOC">69</parameter><parameter name="RDY">1</parameter></Instrument_Parameters_><History/></OPUSDataFile>
