<?xml version="1.0" encoding="UTF-8" ?>
<OPUSDataFile><AB><Ydata ylabel="Absorbance Units"><values byteorder="INTEL" format="FLOAT32" numvalues="3497"> -0.08266316 -0.08269729 -0.08272727 -0.08275457 -0.082756 -0.08273038 -0.08267198 -0.08258259 -0.08248197 -0.08237399
 -0.08229158 -0.08223528 -0.08222693 -0.08225901 -0.08232683 -0.08241868 -0.0825128 -0.08260434 -0.08267739 -0.08273795
 -0.08278522 -0.08282642 -0.08286677 -0.08290467 -0.08294167 -0.08297092 -0.08299021 -0.08299936 -0.08299676 -0.08299352
 -0.08299027 -0.08300048 -0.08302493 -0.08306412 -0.08311681 -0.08316671 -0.08321253 -0.08323725 -0.08324333 -0.08322954
 -0.08320079 -0.08316813 -0.08313441 -0.08310921 -0.08309328 -0.08309119 -0.08310226 -0.08312853 -0.08316503 -0.08321173
 -0.08325692 -0.08329746 -0.08332023 -0.08332028 -0.08329605 -0.08324452 -0.08318276 -0.08311123 -0.08305591 -0.08301827
 -0.08301409 -0.08304259 -0.08309735 -0.0831754 -0.0832555 -0.0833367 -0.08340329 -0.0834584 -0.08350082 -0.08353576
 -0.08357108 -0.08361072 -0.08366464 -0.08372721 -0.08380176 -0.08386749 -0.08391517 -0.08392593 -0.08388551 -0.08380748
 -0.08368761 -0.08356737 -0.08345252 -0.0833744 -0.08333766 -0.08334664 -0.08340189 -0.08349372 -0.08362126 -0.08377177
 -0.08394267 -0.08411385 -0.08427924 -0.08440505 -0.08448951 -0.0845063 -0.08446988 -0.08438929 -0.08428624 -0.08419064
 -0.08411216 -0.08407259 -0.08405954 -0.08407552 -0.08409523 -0.08410788 -0.08410498 -0.08407873 -0.08404789 -0.08401402
 -0.0839955 -0.08399551 -0.08400892 -0.08403569 -0.08405733 -0.08407371 -0.08407854 -0.08407447 -0.08407466 -0.08408215
 -0.08411652 -0.0841758 -0.08426836 -0.08438269 -0.08450493 -0.08462144 -0.08470809 -0.08476553 -0.08478439 -0.08477494
 -0.08474106 -0.08468804 -0.08461694 -0.08453807 -0.0844499 -0.08438346 -0.08434148 -0.08436371 -0.08445645 -0.08462395
 -0.08486766 -0.0850819 -0.08525933 -0.08525714 -0.08509408 -0.08481831 -0.08445784 -0.08414908 -0.08389061 -0.08374871
 -0.0837063 -0.08376916 -0.08390749 -0.08409359 -0.08428996 -0.08445507 -0.08457322 -0.08461677 -0.08461157 -0.08455896
 -0.08449222 -0.08442342 -0.08435529 -0.08429057 -0.08422253 -0.08414938 -0.08408467 -0.08402904 -0.08400472 -0.08401155
 -0.08405114 -0.08411987 -0.08419559 -0.08427472 -0.08433135 -0.08436558 -0.08436415 -0.08433007 -0.0842609 -0.08416435
 -0.08404578 -0.08392005 -0.08379951 -0.08369931 -0.08363226 -0.08360299 -0.08361939 -0.08366787 -0.08374971 -0.08383523
 -0.08392015 -0.08397943 -0.08400911 -0.08400542 -0.08396783 -0.08390216 -0.08380873 -0.08369255 -0.08355508 -0.08340731
 -0.08325252 -0.08310912 -0.08297924 -0.08287868 -0.08280494 -0.0827632 -0.08274391 -0.0827399 -0.08273683 -0.08271912
 -0.08268193 -0.08261343 -0.08253132 -0.08243772 -0.08235626 -0.0822961 -0.08225811 -0.08224557 -0.08224255 -0.08224711
 -0.08225547 -0.08226717 -0.08228903 -0.08232078 -0.08235907 -0.08240189 -0.0824332 -0.08245265 -0.08244912 -0.08242627
 -0.08238716 -0.08233672 -0.08228509 -0.08223486 -0.08219355 -0.08216077 -0.08213707 -0.0821268 -0.08212935 -0.0821601
 -0.08222627 -0.08233313 -0.08249088 -0.08266071 -0.08284167 -0.08297131 -0.08304068 -0.08303474 -0.08295161 -0.08280819
 -0.08260499 -0.08234762 -0.08204051 -0.08171433 -0.08137903 -0.08109254 -0.08085645 -0.08070812 -0.08063451 -0.08063538
 -0.08068269 -0.08074208 -0.08079274 -0.08079983 -0.08077223 -0.0807039 -0.08061208 -0.08050422 -0.08038409 -0.08025546
 -0.08011132 -0.07995022 -0.07977161 -0.07957395 -0.07937349 -0.07917101 -0.07898796 -0.07882531 -0.07870032 -0.07861284
 -0.07857425 -0.07857701 -0.07860351 -0.07863294 -0.0785975 -0.07849372 -0.07827126 -0.07797026 -0.07762139 -0.07725592
 -0.07691925 -0.07660148 -0.07631248 -0.07602703 -0.07573424 -0.07542858 -0.07510267 -0.07477605 -0.07445084 -0.07414484
 -0.07386225 -0.07359188 -0.07333406 -0.07304086 -0.07271035 -0.07230192 -0.0718234 -0.07131209 -0.07077796 -0.07028794
 -0.06983155 -0.06941543 -0.069025 -0.06863511 -0.06824117 -0.06782934 -0.06739297 -0.06692446 -0.06641096 -0.06584162
 -0.06521306 -0.06452222 -0.06376557 -0.06294386 -0.06204152 -0.06105115 -0.05999475 -0.0588702 -0.05774128 -0.05661244
 -0.05551409 -0.05444574 -0.053391 -0.05234887 -0.05130455 -0.05026009 -0.04921703 -0.04817593 -0.04713888 -0.04610591
 -0.04508064 -0.04405563 -0.0430336 -0.04197568 -0.04085365 -0.03962276 -0.0382264 -0.03671978 -0.03509773 -0.03347357
 -0.03189014 -0.0303584 -0.02889334 -0.02744426 -0.02600607 -0.02455102 -0.02307636 -0.0215859 -0.02008055 -0.01858222
 -0.01709062 -0.01562096 -0.01415923 -0.01265982 -0.01109853 -0.009367647 -0.007497925 -0.005474027 -0.003391037 -0.001384676
 0.0005343682 0.002286691 0.003959288 0.005581988 0.007228035 0.008944484 0.01073376 0.01261357 0.01453269 0.01648401
 0.01843011 0.02036254 0.0222952 0.02422771 0.02620467 0.02822668 0.03030117 0.0324203 0.03452366 0.03660906
 0.03862951 0.04060087 0.04254347 0.04447033 0.04641805 0.04838537 0.05038549 0.05241413 0.05447567 0.05655368
 0.05864383 0.06071697 0.06275199 0.0647631 0.06673948 0.06875373 0.0708218 0.07297046 0.0752134 0.07746523
 0.07972123 0.08190374 0.08401254 0.08606939 0.08807986 0.09009847 0.09212452 0.09418581 0.09627354 0.09838037
 0.100492 0.1025734 0.1046272 0.1066305 0.1086247 0.1106369 0.112709 0.1148917 0.1171483 0.1194873
 0.1218201 0.1241148 0.126352 0.1285166 0.130649 0.1327527 0.1348538 0.1369546 0.1390645 0.1411839
 0.1433154 0.1454576 0.1475972 0.1497338 0.1518557 0.1539682 0.156081 0.1581973 0.16033 0.1624747
 0.1646311 0.166795 0.1689629 0.1711296 0.1732907 0.1754425 0.1775786 0.1797139 0.1818507 0.1840064
 0.1861894 0.1883786 0.1905745 0.1927367 0.1948617 0.1969438 0.1989839 0.2010053 0.2030095 0.2050169
 0.2070299 0.2090714 0.2111401 0.2132509 0.2153848 0.2175132 0.2196167 0.2216486 0.2236249 0.2255373
 0.2274259 0.2293154 0.2312279 0.2331841 0.2351727 0.2372007 0.2392261 0.241245 0.2432051 0.2450964
 0.2469149 0.2486574 0.2503866 0.2521051 0.253861 0.2556501 0.2574552 0.2592731 0.2610784 0.2628756
 0.2646685 0.2664551 0.2682341 0.2700004 0.271743 0.2734693 0.2751837 0.2768891 0.2785935 0.2802805
 0.2819428 0.2835769 0.2851761 0.286762 0.2883382 0.2899192 0.2915078 0.2931077 0.2947192 0.2963436
 0.2979799 0.2995989 0.3011974 0.3027298 0.3042041 0.3056303 0.3070261 0.3084541 0.3099124 0.3114325
 0.3129932 0.3145754 0.3161686 0.3177541 0.3193331 0.3209035 0.3224592 0.3239976 0.3255134 0.3270038
 0.3284709 0.3299156 0.3313343 0.3327262 0.3340929 0.3354338 0.3367677 0.3380951 0.3394226 0.3407483
 0.3420556 0.3433458 0.344615 0.3458675 0.3471161 0.3483589 0.3495977 0.3508324 0.3520613 0.3532916
 0.3545336 0.3557798 0.357032 0.3582696 0.3594785 0.3606676 0.3618318 0.3630069 0.3642021 0.365425
 0.3666809 0.3679416 0.3692056 0.3704478 0.3716671 0.372852 0.374003 0.3751182 0.3762012 0.3772693
 0.3783238 0.3793816 0.380433 0.3814651 0.3824711 0.3834295 0.384358 0.3852631 0.3861698 0.3871023
 0.3880572 0.3890453 0.3900338 0.3910159 0.3919612 0.3928585 0.3937141 0.3945242 0.3953315 0.3961397
 0.3969678 0.3978151 0.3986283 0.3994038 0.4000788 0.4006651 0.4011843 0.4016582 0.4021688 0.402718
 0.4033542 0.4040568 0.4048178 0.405616 0.406427 0.407239 0.4080324 0.4088182 0.4095873 0.4103897
 0.411238 0.4121766 0.4132285 0.4143483 0.4155425 0.4166792 0.4177487 0.4186483 0.4193752 0.4199488
 0.4203799 0.4207793 0.4211529 0.4215902 0.4220805 0.4226332 0.4232438 0.4238994 0.4246187 0.4254297
 0.4263283 0.4273425 0.4283949 0.4294488 0.4304187 0.4312353 0.4319306 0.4324795 0.4330227 0.4335863
 0.4342707 0.435103 0.4360487 0.4371115 0.4381729 0.4392272 0.4401745 0.4410174 0.4417386 0.4423544
 0.4429331 0.4434946 0.444139 0.4448696 0.4457487 0.4467519 0.4478782 0.4490812 0.4503173 0.4515402
 0.4527 0.4537877 0.4547762 0.4557099 0.4565918 0.4574864 0.4584073 0.459401 0.4604752 0.4616597
 0.4629578 0.464384 0.4659384 0.4675887 0.4693258 0.4710497 0.4727449 0.4742777 0.4756418 0.4767366
 0.4775897 0.4781944 0.4786227 0.4789709 0.4793146 0.4797816 0.4803668 0.4811333 0.4819612 0.482825
 0.4835668 0.4841251 0.484421 0.4844124 0.4841505 0.483628 0.4829758 0.4822038 0.4814162 0.4806177
 0.479825 0.4790353 0.4782211 0.4773851 0.4765269 0.4756534 0.4747914 0.4739321 0.4730792 0.4721974
 0.4712436 0.4701664 0.4688964 0.4674007 0.4656207 0.4635919 0.4612971 0.4588496 0.456275 0.4536931
 0.4511387 0.4486608 0.4462744 0.4439685 0.441744 0.4395799 0.4374751 0.4354002 0.4333524 0.4312886
 0.4292129 0.4271192 0.425026 0.4229937 0.42103 0.4191941 0.4174531 0.4157907 0.4141549 0.4124779
 0.410749 0.4089226 0.4070602 0.405168 0.403345 0.4016279 0.4000732 0.3987136 0.3974975 0.3964328
 0.3953773 0.3943202 0.39314 0.3918312 0.3903939 0.3888372 0.3872609 0.385673 0.3841698 0.3827457
 0.3814343 0.3802228 0.3791017 0.3780552 0.3770598 0.376092 0.3751207 0.3741225 0.3730669 0.3719549
 0.3707721 0.3695536 0.368305 0.3670681 0.3658563 0.3646779 0.36354 0.3624092 0.3612843 0.3601235
 0.3589249 0.3576777 0.3563844 0.3550689 0.3537345 0.3524124 0.3511024 0.3498202 0.3485616 0.347326
 0.3461069 0.3448951 0.3436822 0.3424562 0.3412089 0.339929 0.3386168 0.3372661 0.3358915 0.3344947
 0.3330941 0.3316951 0.3303036 0.3289223 0.3275445 0.3261699 0.3247939 0.3234164 0.3220356 0.3206509
 0.3192528 0.3178408 0.3164044 0.3149485 0.3134827 0.3120154 0.3105725 0.3091538 0.3077747 0.3064214
 0.3050851 0.3037531 0.3024067 0.3010609 0.2997093 0.2984006 0.2971499 0.2959947 0.2949579 0.2939945
 0.2931118 0.2921807 0.2911907 0.2900356 0.2887095 0.2872339 0.2856194 0.2840001 0.2823875 0.2809205
 0.2795909 0.2784534 0.2774723 0.276601 0.2757903 0.2749378 0.2740231 0.2729688 0.2718215 0.2705799
 0.2693267 0.2681109 0.2669626 0.2659154 0.2649222 0.2639773 0.2630423 0.2621023 0.261202 0.2603417
 0.2596014 0.2589853 0.2585023 0.2581443 0.2578157 0.2575038 0.2570821 0.256555 0.2558625 0.2550355
 0.2541114 0.2531281 0.2521678 0.2512392 0.2503914 0.2495964 0.2488471 0.2481226 0.2474006 0.2467062
 0.2460414 0.2454392 0.2449168 0.244444 0.2440241 0.2435815 0.2431071 0.2425803 0.2419998 0.2414373
 0.2408974 0.2404605 0.2401195 0.2398769 0.2397154 0.2395748 0.2394463 0.239276 0.2390712 0.2388195
 0.2385314 0.2382201 0.2378757 0.2375045 0.237064 0.2365361 0.2358802 0.235066 0.234124 0.2330407
 0.2319344 0.2308179 0.229811 0.2289315 0.2281888 0.2275847 0.2270048 0.2264415 0.2257591 0.224963
 0.2240092 0.2229231 0.22177 0.2205745 0.2194318 0.2183407 0.2173472 0.2164256 0.2155663 0.2147392
 0.2139175 0.2130819 0.2122123 0.211309 0.2103621 0.209401 0.2084277 0.2074846 0.2065826 0.2057228
 0.2049107 0.204082 0.2032335 0.202301 0.2012871 0.2002107 0.1990829 0.1979859 0.1969172 0.1959188
 0.1949657 0.1940171 0.1930582 0.1920354 0.1909736 0.1898755 0.1887807 0.1877268 0.186722 0.1857853
 0.1848974 0.1840513 0.1832486 0.1824833 0.1817896 0.1811732 0.1806536 0.1802372 0.1798852 0.1795963
 0.1792863 0.1789512 0.1785161 0.1779856 0.1773458 0.1766152 0.1758503 0.1750758 0.1743794 0.1737767
 0.1733356 0.1730525 0.1729532 0.1730174 0.1732394 0.1735931 0.1740626 0.1746311 0.1752877 0.1760297
 0.1768542 0.1777638 0.1787576 0.1798439 0.1810214 0.1823255 0.1837578 0.1853837 0.1872054 0.1892708
 0.1915721 0.1940885 0.1968024 0.199638 0.2025837 0.2055705 0.2086032 0.2116573 0.2147444 0.2178707
 0.2210397 0.2242576 0.2275223 0.2308314 0.2341932 0.2376081 0.2410936 0.2446588 0.2482915 0.2520002
 0.2557051 0.2594049 0.2629644 0.2663762 0.2694905 0.2722987 0.274653 0.2765449 0.2778374 0.2785401
 0.2785917 0.2780597 0.277047 0.2756961 0.274273 0.2729429 0.2720086 0.2715587 0.2717876 0.2726472
 0.2741827 0.2762579 0.2788332 0.2817973 0.2851081 0.2887331 0.2926588 0.2968918 0.3014328 0.3062724
 0.3114104 0.3168211 0.3225057 0.3284731 0.3347378 0.341391 0.3484607 0.3561058 0.3643382 0.3732963
 0.3829077 0.3931902 0.4038529 0.4147218 0.4250541 0.4344074 0.4414946 0.4455507 0.4454274 0.4402882
 0.4304537 0.4155376 0.3976723 0.3770235 0.3562097 0.3355308 0.3166705 0.2997609 0.2851993 0.27296
 0.2626103 0.2540843 0.2467431 0.24055 0.2350311 0.2301735 0.2257151 0.221641 0.2178118 0.2142112
 0.2107631 0.207469 0.204301 0.2012817 0.1984145 0.1957263 0.1932278 0.1909379 0.1888627 0.1870181
 0.1854067 0.1840463 0.1829389 0.1820977 0.1815239 0.181209 0.181149 0.1812834 0.1815957 0.1819498
 0.1823205 0.1825309 0.1825772 0.1823415 0.1818763 0.1811993 0.180419 0.1796609 0.1790498 0.1787245
 0.1787887 0.1793334 0.180436 0.182135 0.1845218 0.1876035 0.1915653 0.1964217 0.2024506 0.2097031
 0.2181947 0.2279508 0.2379739 0.2481338 0.2560366 0.2615069 0.261976 0.2577228 0.248272 0.2344856
 0.2183186 0.2005539 0.1835613 0.1675322 0.1537258 0.1418369 0.1320616 0.1239368 0.1172502 0.1116386
 0.1069099 0.1028491 0.09936918 0.09632757 0.09369159 0.09134472 0.08927201 0.08738465 0.08567592 0.08408833
 0.08261978 0.08123638 0.0799375 0.0787023 0.07753024 0.07640699 0.07533407 0.07430725 0.07333068 0.07241202
 0.07154873 0.07074602 0.06998469 0.0692539 0.06852573 0.06777834 0.06700236 0.06618188 0.06534513 0.06449165
 0.06367236 0.06289741 0.06219541 0.06157453 0.06100707 0.06049255 0.05997129 0.05944173 0.05887667 0.05828151
 0.05768499 0.05709031 0.05653124 0.05599557 0.05546971 0.0549367 0.05435341 0.05372497 0.05303296 0.05230876
 0.05157143 0.0508525 0.0501786 0.04955991 0.04900927 0.0485183 0.04809003 0.04770126 0.04735154 0.04700089
 0.04664554 0.04624709 0.04580208 0.04530826 0.04476727 0.0442168 0.04365957 0.0431351 0.04264048 0.04218536
 0.04176349 0.04136217 0.04097885 0.04060216 0.04023385 0.03987157 0.03951746 0.0391727 0.03883876 0.03851688
 0.03820787 0.03791374 0.03762916 0.03735561 0.03707555 0.03678717 0.03646914 0.03611749 0.03573123 0.0353092
 0.03488085 0.03444796 0.034047 0.03367687 0.03334769 0.03305303 0.03277119 0.03249648 0.03220005 0.03188509
 0.03154116 0.03118125 0.03081744 0.03046192 0.03013369 0.02982711 0.02954964 0.0292742 0.02899279 0.02867826
 0.02831809 0.02791211 0.02745501 0.026973 0.02646775 0.02596808 0.02547636 0.02500401 0.02455104 0.02411189
 0.02368587 0.02326469 0.02284925 0.02243907 0.02203576 0.02164421 0.02126394 0.02089672 0.02054059 0.02019284
 0.01985458 0.01952532 0.01920793 0.01890529 0.01861494 0.01833833 0.01806558 0.01779444 0.0175161 0.01722762
 0.01692952 0.01662074 0.01631081 0.01600019 0.01570041 0.01541193 0.0151423 0.01489125 0.0146603 0.01444854
 0.01425342 0.01407288 0.01390089 0.01373329 0.01356 0.0133763 0.01317133 0.01294364 0.01268668 0.01240524
 0.01209891 0.01177751 0.01144415 0.01110984 0.01077837 0.01045679 0.01014763 0.009851062 0.009567811 0.009292907
 0.00902612 0.008761586 0.008498998 0.008232937 0.007963318 0.007686627 0.007403673 0.00711568 0.006824547 0.006536349
 0.006252342 0.005978421 0.005713379 0.005458605 0.005210924 0.004968131 0.004726938 0.004484331 0.004239349 0.003990101
 0.003739684 0.003488637 0.003239596 0.00299387 0.002748312 0.002502944 0.002252195 0.001995456 0.00173415 0.00146858
 0.001207739 0.0009518187 0.0007068751 0.0004715077 0.0002429817 1.897648E-05 -0.0002084929 -0.0004411517 -0.0006864855 -0.0009442419
 -0.001218505 -0.001504476 -0.001800746 -0.002097923 -0.002389602 -0.002669179 -0.002930002 -0.003177885 -0.003411429 -0.00364548
 -0.003883425 -0.004131677 -0.004392956 -0.004655199 -0.004918011 -0.005163217 -0.005390342 -0.005596591 -0.005783907 -0.005968091
 -0.006150942 -0.006350049 -0.006563626 -0.006796542 -0.007043915 -0.007298608 -0.007556223 -0.007807042 -0.008050642 -0.008282258
 -0.008505631 -0.008721593 -0.00893416 -0.009145826 -0.009357054 -0.009568603 -0.009779593 -0.009989634 -0.01020029 -0.01041177
 -0.01062486 -0.01083984 -0.01105185 -0.01126063 -0.01145968 -0.01164941 -0.01183029 -0.01200378 -0.01217741 -0.01235157
 -0.01253198 -0.01271653 -0.01290389 -0.01309131 -0.01327358 -0.0134512 -0.01362189 -0.01378957 -0.01395612 -0.01412471
 -0.01429798 -0.01447465 -0.01465521 -0.01483636 -0.01501729 -0.01519709 -0.01537533 -0.01555398 -0.01573313 -0.01591518
 -0.0161002 -0.01628958 -0.01648301 -0.01667864 -0.01687554 -0.01706802 -0.01725573 -0.01743392 -0.01760446 -0.01776865
 -0.01792896 -0.01809034 -0.01825178 -0.01841473 -0.0185758 -0.01873223 -0.01888483 -0.01903215 -0.01918009 -0.01933034
 -0.01948657 -0.01965062 -0.01981921 -0.01999241 -0.0201649 -0.02033619 -0.02050448 -0.02066975 -0.02083327 -0.02099519
 -0.0211574 -0.02132 -0.0214848 -0.0216515 -0.02181995 -0.02199022 -0.0221617 -0.02233615 -0.02251564 -0.02270203
 -0.02289938 -0.02310394 -0.023316 -0.02352656 -0.02373071 -0.02392554 -0.02410735 -0.02428416 -0.02445686 -0.02463297
 -0.02481432 -0.0249987 -0.02518618 -0.02537217 -0.0255565 -0.02573987 -0.02592225 -0.02610423 -0.02628474 -0.02645847
 -0.02662503 -0.02677965 -0.02692438 -0.02706095 -0.02719182 -0.02732189 -0.02745082 -0.02758027 -0.02770872 -0.02783484
 -0.02796002 -0.02808352 -0.02821097 -0.02834385 -0.02848704 -0.02864257 -0.02880874 -0.02898627 -0.02916689 -0.02935005
 -0.02952859 -0.02970224 -0.02987084 -0.03003472 -0.03019772 -0.03035953 -0.03052093 -0.0306806 -0.03083469 -0.03098242
 -0.03111939 -0.03124764 -0.03136737 -0.03148317 -0.03159976 -0.03172047 -0.03185036 -0.03198641 -0.03212973 -0.03227199
 -0.03241072 -0.03254009 -0.03265764 -0.03276496 -0.03286154 -0.03295309 -0.03304001 -0.03312729 -0.0332152 -0.0333074
 -0.03340397 -0.03350762 -0.03361764 -0.03373242 -0.03385006 -0.03396334 -0.03407158 -0.03416881 -0.03425767 -0.03433927
 -0.03441671 -0.03449447 -0.03457178 -0.03464979 -0.03472624 -0.03479947 -0.03487127 -0.0349413 -0.03501406 -0.03509058
 -0.03517316 -0.03526242 -0.035358 -0.03546003 -0.03556681 -0.0356782 -0.03578817 -0.03589616 -0.03599371 -0.03608144
 -0.03615735 -0.03622399 -0.03628846 -0.03635267 -0.03642497 -0.03650392 -0.03659154 -0.0366843 -0.03677937 -0.03687375
 -0.03696422 -0.03704982 -0.03712894 -0.03720285 -0.03727182 -0.03733611 -0.03739618 -0.03744979 -0.03749643 -0.03753621
 -0.03756865 -0.03760204 -0.03763685 -0.0376846 -0.03774527 -0.03782281 -0.03791605 -0.03802064 -0.03813601 -0.0382572
 -0.03838605 -0.03852312 -0.03867294 -0.03884122 -0.0390351 -0.03926279 -0.0395334 -0.0398556 -0.04023614 -0.0406818
 -0.04119075 -0.04176551 -0.04239519 -0.04307793 -0.0438048 -0.04457357 -0.04538567 -0.0462415 -0.0471379 -0.04807422
 -0.04900532 -0.04992278 -0.05072098 -0.05138733 -0.05179523 -0.05194634 -0.05176982 -0.05129609 -0.05054363 -0.0495757
 -0.04848618 -0.04735117 -0.04628781 -0.04533712 -0.04456815 -0.04398477 -0.04360586 -0.04342613 -0.04345175 -0.0436586
 -0.04405551 -0.04454654 -0.04512888 -0.04564326 -0.04607267 -0.0463501 -0.04647236 -0.04651169 -0.0464725 -0.04642973
 -0.04637879 -0.04633371 -0.04628536 -0.0462094 -0.04610328 -0.04594497 -0.04574712 -0.04551847 -0.04527405 -0.04503826
 -0.04480494 -0.04458008 -0.0443458 -0.04408946 -0.04381852 -0.04352714 -0.04325031 -0.04299564 -0.04278524 -0.0426264
 -0.04250624 -0.0424253 -0.04235421 -0.04229144 -0.04221766 -0.04213339 -0.04203889 -0.04193614 -0.04183629 -0.04174033
 -0.0416579 -0.04158792 -0.04153306 -0.04149095 -0.04145919 -0.04143552 -0.04141625 -0.0414011 -0.04138837 -0.04137951
 -0.04137506 -0.04137547 -0.04138162 -0.0413909 -0.04140292 -0.0414153 -0.04142714 -0.04144099 -0.04145677 -0.04148034
 -0.04151201 -0.04155509 -0.04160937 -0.04167314 -0.0417457 -0.04182242 -0.04190257 -0.04198125 -0.04205805 -0.04212949
 -0.04219573 -0.04225533 -0.04230918 -0.04235743 -0.04240181 -0.04244348 -0.04248429 -0.04252575 -0.04256783 -0.04261125
 -0.04265376 -0.04269477 -0.04273359 -0.04276965 -0.04280586 -0.04284247 -0.04288126 -0.04292231 -0.04296218 -0.04300055
 -0.04303239 -0.04305795 -0.04307628 -0.04308802 -0.04309499 -0.04309739 -0.04309621 -0.04309212 -0.04308596 -0.04308018
 -0.0430776 -0.04308078 -0.04309323 -0.04311414 -0.04314488 -0.04318101 -0.04322154 -0.04326187 -0.04330061 -0.04333567
 -0.0433664 -0.04339281 -0.0434148 -0.04343307 -0.04344765 -0.0434609 -0.04347305 -0.04348771 -0.04350468 -0.04352497
 -0.04354744 -0.04356855 -0.04358757 -0.04360034 -0.04360826 -0.04361114 -0.04361209 -0.04361467 -0.04362067 -0.04363337
 -0.04365094 -0.04367401 -0.04369802 -0.0437214 -0.04374122 -0.04375588 -0.0437672 -0.04377488 -0.04378358 -0.04379372
 -0.04380862 -0.0438285 -0.04385422 -0.04388572 -0.04392238 -0.04396374 -0.04400714 -0.04405129 -0.0440903 -0.04412291
 -0.04414262 -0.04415041 -0.04414367 -0.04412745 -0.04410546 -0.04408475 -0.04407238 -0.04407174 -0.04408786 -0.04411667
 -0.04415838 -0.04420652 -0.04425922 -0.04431397 -0.04437006 -0.04442676 -0.04448425 -0.04453774 -0.04458697 -0.04462563
 -0.04465374 -0.04467022 -0.04467603 -0.04467624 -0.04467203 -0.04467035 -0.04467168 -0.04468103 -0.04469739 -0.04472202
 -0.04475185 -0.04478389 -0.0448157 -0.0448437 -0.04486899 -0.04489049 -0.04491233 -0.04493565 -0.04496408 -0.04499899
 -0.04504111 -0.04509121 -0.04514584 -0.04520498 -0.0452626 -0.04531834 -0.04536888 -0.04541441 -0.04545701 -0.04549694
 -0.04553709 -0.0455769 -0.04561543 -0.04565272 -0.04568776 -0.04572221 -0.04575834 -0.04579763 -0.04584347 -0.0458942
 -0.0459502 -0.04600795 -0.04606537 -0.04612095 -0.04617321 -0.04622348 -0.04627191 -0.04631921 -0.04636577 -0.0464102
 -0.04645231 -0.04649214 -0.04652966 -0.04656966 -0.04661237 -0.04666244 -0.04671917 -0.04678064 -0.04684549 -0.04690707
 -0.04696561 -0.0470178 -0.04706579 -0.04711166 -0.04715745 -0.04720695 -0.04725959 -0.0473168 -0.04737557 -0.04743478
 -0.04749167 -0.04754439 -0.04759387 -0.0476393 -0.04768554 -0.04773306 -0.04778698 -0.04784793 -0.04791821 -0.04799801
 -0.04808541 -0.04818 -0.04827513 -0.04836996 -0.04845523 -0.04853124 -0.04859335 -0.04864413 -0.04868706 -0.04872568
 -0.04876771 -0.04881512 -0.04887366 -0.0489427 -0.04902429 -0.04911492 -0.04921379 -0.04931572 -0.04941865 -0.04951858
 -0.0496139 -0.04970352 -0.04978687 -0.0498648 -0.0499373 -0.05000562 -0.05006983 -0.05013078 -0.05018848 -0.05024273
 -0.05029357 -0.0503407 -0.05038477 -0.05042807 -0.05047143 -0.05051846 -0.05056864 -0.0506228 -0.05067994 -0.05073854
 -0.05079983 -0.05086389 -0.0509333 -0.05101016 -0.05109378 -0.05118493 -0.05128013 -0.05137852 -0.05147818 -0.05157854
 -0.05167958 -0.05178141 -0.05188195 -0.0519811 -0.05207478 -0.0521629 -0.05224362 -0.05231743 -0.05238673 -0.05245216
 -0.05251761 -0.05258324 -0.05265163 -0.0527222 -0.05279551 -0.05287 -0.05294436 -0.05301623 -0.05308289 -0.05314378
 -0.0531965 -0.05324605 -0.0532928 -0.0533453 -0.05340657 -0.05347872 -0.05356394 -0.05365236 -0.05374351 -0.05382507
 -0.05389608 -0.05395568 -0.0540044 -0.05405268 -0.0541009 -0.0541573 -0.05422001 -0.05428608 -0.05435344 -0.05441441
 -0.05446994 -0.05451763 -0.05456053 -0.05460208 -0.05464276 -0.05468472 -0.05472581 -0.05476454 -0.0548022 -0.05483807
 -0.05487739 -0.05492212 -0.05497227 -0.05502934 -0.05508364 -0.05513443 -0.05517225 -0.05519629 -0.05520831 -0.05520882
 -0.05520769 -0.05520546 -0.05521092 -0.0552234 -0.05524523 -0.05527484 -0.0553093 -0.05534736 -0.05538529 -0.05542283
 -0.05545812 -0.05549153 -0.05552284 -0.05555233 -0.05558024 -0.0556064 -0.05563102 -0.05565299 -0.05567231 -0.05568677
 -0.05569577 -0.05569938 -0.05569725 -0.05569301 -0.05568685 -0.055683 -0.05568151 -0.05568281 -0.05568638 -0.05568881
 -0.05568954 -0.05568399 -0.0556729 -0.05565523 -0.05563373 -0.05561267 -0.05559485 -0.05558625 -0.05558639 -0.05559796
 -0.05561647 -0.05564084 -0.05566459 -0.05568497 -0.05569718 -0.05569846 -0.05569093 -0.05567348 -0.05565614 -0.05563993
 -0.0556324 -0.05563436 -0.05564083 -0.0556513 -0.05565458 -0.05565118 -0.05563929 -0.05562106 -0.05560473 -0.05559123
 -0.0555881 -0.05559329 -0.05560758 -0.05562599 -0.05564346 -0.05565334 -0.05564739 -0.05562366 -0.05557647 -0.05551379
 -0.05543652 -0.05535581 -0.05527524 -0.05520047 -0.05513343 -0.05507489 -0.05502542 -0.054982 -0.05494455 -0.05490613
 -0.05486653 -0.05482153 -0.05477195 -0.05472206 -0.05467279 -0.05463087 -0.05459561 -0.05456867 -0.05454861 -0.05453375
 -0.05452222 -0.0545117 -0.05449868 -0.05447934 -0.05445119 -0.0544109 -0.05436004 -0.05429813 -0.05422833 -0.05415113
 -0.05407039 -0.05398627 -0.05390584 -0.05382998 -0.05376308 -0.05370569 -0.05365296 -0.0536047 -0.05355614 -0.05350821
 -0.05346642 -0.05343128 -0.0534096 -0.0533979 -0.0533913 -0.0533837 -0.05336069 -0.05331996 -0.05325029 -0.05315845
 -0.05304484 -0.05292157 -0.05279659 -0.05267676 -0.05256865 -0.05246757 -0.05237427 -0.05227972 -0.05218146 -0.05207933
 -0.05197255 -0.05186731 -0.05176399 -0.05166732 -0.05157752 -0.05149902 -0.05143147 -0.05137602 -0.05132917 -0.05127667
 -0.05121467 -0.05112218 -0.05100468 -0.05086153 -0.05070215 -0.05054062 -0.05037801 -0.05021977 -0.05006634 -0.04991804
 -0.04978023 -0.04965663 -0.04954518 -0.04944823 -0.04935181 -0.04925352 -0.04914391 -0.04902115 -0.04888472 -0.04873455
 -0.0485677 -0.04838419 -0.04818499 -0.04797159 -0.04775689 -0.04754156 -0.04733623 -0.04713881 -0.04694862 -0.04676404
 -0.04658189 -0.04640068 -0.04621778 -0.04603026 -0.04583321 -0.04562904 -0.04541627 -0.04520324 -0.04499432 -0.04479079
 -0.04459514 -0.04440067 -0.0442061 -0.044009 -0.04380892 -0.04360488 -0.04339695 -0.04317885 -0.04295029 -0.0427069
 -0.04244835 -0.04217066 -0.04187224 -0.04154152 -0.0411817 -0.04079312 -0.04038635 -0.03998454 -0.03958888 -0.03921453
 -0.03884786 -0.03848056 -0.03810421 -0.03770695 -0.03729905 -0.03688139 -0.03646636 -0.03605933 -0.03566094 -0.03527384
 -0.03488682 -0.03450102 -0.03408511 -0.03363707 -0.03312631 -0.03255284 -0.0319376 -0.03128372 -0.03063109 -0.02997381
 -0.02930676 -0.02861999 -0.02787957 -0.02708533 -0.02621946 -0.02528894 -0.02429597 -0.02324682 -0.02214828 -0.02100423
 -0.01982619 -0.01859053 -0.01730174 -0.0158897 -0.01433089 -0.01259121 -0.0106434 -0.008583255 -0.006416869 -0.004248749
 -0.002090218 7.151419E-05 0.002236997 0.00443181 0.00664825 0.008824646 0.01095674 0.01298112 0.01492281 0.01681983
 0.01870317 0.02066584 0.02269064 0.0248031 0.02694949 0.0290791 0.03117849 0.03321365 0.03521999 0.03720197
 0.03920247 0.04123336 0.04333119 0.04549529 0.04780947 0.05027299 0.05306562 0.05620437 0.05975461 0.06370948
 0.06774092 0.07183263 0.07567663 0.07932494 0.08286411 0.08634999 0.09000076 0.09382322 0.09792859 0.1023194
 0.1070103 0.1121025 0.1176476 0.1238863 0.130996 0.1391313 0.1485169 0.1587671 0.1699005 0.1811384
 0.1923053 0.2029912 0.2130918 0.2226648 0.2316977 0.2404501 0.2489419 0.2576515 0.2666257 0.2765594
 0.2873738 0.2991813 0.3116214 0.3235636 0.3349599 0.3450293 0.3542371 0.3629318 0.3714663 0.3803726
 0.3896588 0.3995118 0.4097812 0.4204314 0.4313836 0.4426363 0.4539938 0.4654375 0.4766783 0.4876511
 0.4984133 0.5089626 0.5194387 0.5298353 0.5397255 0.5490651 0.5572258 0.5642532 0.5700467 0.5746731
 0.5783206 0.5809393 0.5824757 0.582972 0.5823895 0.5809979 0.5790662 0.576744 0.5742094 0.5715447
 0.5688096 0.5661271 0.5635784 0.5610928 0.558716 0.5560818 0.5531691 0.5494865 0.5449811 0.5395371
 0.5331615 0.5264534 0.5194358 0.5125914 0.5058444 0.4990594 0.4921711 0.4848765 0.4772278 0.4691383
 0.4608075 0.4524768 0.4443316 0.4366897 0.4295135 0.4228926 0.416688 0.4108181 0.4053306 0.4001894
 0.3956183 0.3916752 0.3884191 0.3858837 0.3839141 0.3825001 0.3815229 0.3809781 0.3808751 0.3812166
 0.3820375 0.3833282 0.3850584 0.3872136 0.3897283 0.392603 0.3958018 0.3993445 0.4032399 0.4075199
 0.4122153 0.4173634 0.4229941 0.429148 0.435843 0.4431386 0.4510453 0.4596621 0.4690146 0.4791605
 0.4901337 0.5017657 0.5140593 0.5266144 0.5394085 0.5520204 0.5644112 0.5760803 0.5869193 0.5960795
 0.6035271 0.6085953 0.6115763 0.6127236 0.612434 0.6114084 0.6098912 0.6083986 0.607007 0.6059396
 0.6051412 0.6046439 0.6043635 0.6042737 0.6043371 0.6045414 0.6048721 0.6053401 0.6058097 0.6062751
 0.606541 0.6065989 0.606418 0.6060088 0.6054726 0.6048238 0.6041932 0.603578 0.6030798 0.6025928
 0.6020837 0.6010785 0.5990049 0.5950612 0.5879309 0.5779691 0.5647245 0.5496869 0.5336211 0.5169809
 0.5000789 0.4830413 0.465835 0.4491933 0.4332061 0.4185005 0.4051701 0.3930346 0.3820829 0.3717338
 0.3619753 0.3524782 0.3432798 0.3344182 0.3259119 0.3178637 0.3102167 0.3029018 0.2958488 0.2889088
 0.2820752 0.2752963 0.2685499 0.2618646 0.2550168 0.2479362 0.2403228 0.2319131 0.2232178 0.214181
 0.2060209 0.1989972 0.1931486 0.1885434 0.1843503 0.18053 0.176543 0.1724087 0.1681663 0.1638692
 0.1598466 0.1560793 0.152677 0.1495881 0.1467191 0.1441156 0.141784 0.1398393 0.1384251 0.1375626
 0.1373345 0.1376563 0.138505 0.1398174 0.1415552 0.1437357 0.1463382 0.1494913 0.1532003 0.1576711
 0.1629391 0.1689018 0.1755493 0.1820445 0.1883391 0.1935742 0.1978105 0.2009465 0.2030649 0.2043899
 0.2049564 0.2049233 0.2043635 0.203425 0.2022512 0.2010242 0.1999232 0.1991474 0.1987647 0.198921
 0.1993872 0.2001256 0.2009013 0.2016268 0.2023159 0.2029509 0.2036335 0.204373 0.205214 0.2061586
 0.2071721 0.2082519 0.2093524 0.2104814 0.2116559 0.212895 0.214279 0.2158077 0.217536 0.2194166
 0.2213912 0.2234447 0.2255028 0.2276768 0.2300061 0.2326496 0.2357115 0.2392435 0.243308 0.2478149
 0.2527538 0.258048 0.2636727 0.2696831 0.276085 0.2828985 0.290124 0.2974421 0.3048209 0.3117593
 0.3182639 0.324117 0.3293547 0.3340096 0.3380573 0.3414771 0.3441875 0.3460456 0.3470046 0.3469399
 0.3458917 0.3438372 0.3408668 0.3370159 0.3323708 0.3269634 0.3208706 0.3140909 0.3068118 0.2990298
 0.2911426 0.283183 0.2755025 0.2681216 0.2610531 0.2542843 0.2476385 0.2411245 0.2346946 0.2283906
 0.2223471 0.2165673 0.2111458 0.2060181 0.2011277 0.1964039 0.191741 0.187111 0.182448 0.1777822
 0.1730965 0.1684841 0.1639669 0.1596473 0.1555627 0.1517262 0.1481556 0.14476 0.1415336 0.1383866
 0.1353138 0.1323412 0.1294786 0.1268643 0.1245048 0.1225159 0.1208792 0.119594 0.1186318 0.1179255
 0.1174564 0.1171655 0.1170421 0.1170547 0.1171906 0.1174362 0.1177646 0.1181655 0.1185942 0.1190373
 0.1194432 0.1198008 0.1200579 0.1202079 0.1201928 0.1200066 0.1196056 0.118987 0.1181636 0.1171407
 0.1159898 0.114722 0.1134342 0.1121408 0.1109421 0.1098499 0.1089452 0.108223 0.1077166 0.1074021
 0.1072689 0.107285 0.1074262 0.1076559 0.1079529 0.1082771 0.1086109 0.1089227 0.1092012 0.1094315
 0.1096093 0.1097313 0.1097964 0.1098076 0.109765 0.1096771 0.109544 0.1093706 0.1091558 0.1088953
 0.1085888 0.108232 0.1078267 0.107375 0.106879 0.1063416 0.1057663 0.1051558 0.1045191 0.1038624
 0.1031977 0.102533 0.1018759 0.1012313 0.1006023 0.09998999 0.0993978 0.09882541 0.09828208 0.09776779
 0.0973017 0.09688486 0.09653941 0.09626574 0.09607361 0.0959615 0.09592391 0.09596086 0.09606787 0.09624985
 0.09651505 0.09687155 0.09733611 0.09791524 0.09862435 0.09946234 0.1004362 0.1015336 0.1027514 0.1040727
 0.1054904 0.1069931 0.1085777 0.1102323 0.1119579 0.113724 0.1155301 0.1173247 0.1191048 0.1208172
 0.1224597 0.1239953 0.1254247 0.126733 0.1279222 0.1289922 0.1299426 0.1307745 0.1314825 0.13206
 0.1324979 0.1327837 0.1329092 0.1328628 0.1326428 0.1322431 0.1316713 0.1309276 0.130024 0.1289631
 0.1277554 0.1264017 0.124919 0.1233075 0.1216004 0.1197995 0.117941 0.1160257 0.1140703 0.1120733
 0.1100332 0.1079503 0.1058236 0.1036566 0.1014566 0.09922817 0.09698125 0.09472249 0.09246177 0.09020926
 0.08797541 0.08577032 0.08360315 0.08147676 0.07939604 0.07735348 0.0753488 0.07337134 0.07141805 0.06949025
 0.06758625 0.06572723 0.06391419 0.06217817 0.06052055 0.05896603 0.0575147 0.05617972 0.05496017 0.05386001
 0.05287741 0.05200963 0.05125542 0.0506104 0.05007671 0.04965411 0.04934815 0.04916224 0.0491041 0.04917729
 0.04939324 0.04975604 0.05027805 0.05096456 0.05181653 0.05283828 0.0540048 0.05531671 0.05672131 0.05821584
 0.05973289 0.06126909 0.06276375 0.06421658 0.06559341 0.06690021 0.06813864 0.06932162 0.07048128 0.07163094
 0.07281134 0.0740222 0.07528457 0.07657801 0.07789513 0.07920974 0.08050411 0.08176398 0.08298027 0.08414438
 0.0852543 0.08629513 0.08726364 0.08815165 0.08895586 0.08969602 0.09037257 0.09103122 0.09167527 0.09236258
 0.09309795 0.09394212 0.09489865 0.09601597 0.09729096 0.09874204 0.1003599 0.1021369 0.1040638 0.1061278
 0.1083185 0.1106278 0.1130329 0.1155254 0.1180643 0.1206355 0.1231952 0.1257273 0.1282131 0.1306431
 0.133037 0.1353943 0.1377519 0.1401121 0.1424963 0.1449038 0.1473276 0.1497622 0.1521693 0.1545364
 0.1567935 0.1589306 0.1608769 0.1626498 0.1642351 0.1656866 0.1670591 0.1684137 0.1698238 0.1713197
 0.1729471 0.1746887 0.1765555 0.1784956 0.1804986 0.1825166 0.1845351 0.1865529 0.1885646 0.190616
 0.1927098 0.1948892 0.1971537 0.1994932 0.2018973 0.2042896 0.2066516 0.2088685 0.2109247 0.212719
 0.2142495 0.2154646 0.216375 0.2169709 0.2172732 0.2172886 0.2170604 0.2166061 0.2159929 0.2152473
 0.2144336 0.2135733 0.2127101 0.2118529 0.2110411 0.2102783 0.2096107 0.2090417 0.2085995 0.2082836
 0.2080799 0.2079821 0.2079399 0.2079452 0.207938 0.207914 0.2078297 0.2076878 0.2074721 0.2071903
 0.2068448 0.2064457 0.2060014 0.2055231 0.2050212 0.2044982 0.2039617 0.2033937 0.2027932 0.2021314
 0.2014022 0.2005909 0.1996941 0.1987163 0.1976571 0.1965295 0.1953345 0.1940911 0.192801 0.1914871
 0.1901487 0.1887974 0.1874278 0.1860325 0.1846037 0.1831242 0.1815876 0.1799779 0.1782936 0.1765272
 0.1746812 0.1727577 0.1707485 0.1686566 0.1664514 0.1641267 0.1616512 0.1590145 0.1562201 0.1532635
 0.1501891 0.1469987 0.1437566 0.1404662 0.1371921 0.1339368 0.13075 0.1276323 0.1246117 0.1216901
 0.1188864 0.1162051 0.1136658 0.1112644 0.1090089 0.1068779 0.104857 0.1029218 0.101051 0.09923644
 0.09746861 0.09575067 0.09408334 0.09246217 0.09088802 0.08934657 0.08783616 0.08634699 0.08487782 0.08343576
 0.08202171 0.0806567 0.07934202 0.07809769 0.0769233 0.07582801 0.0748101 0.0738709 0.07300577 0.07220985
 0.07147051 0.07077156 0.0700964 0.06942374 0.06874517 0.06804955 0.06733332 0.0665966 0.06582078 0.06500434
 0.06411415 0.06314292 0.06207241 0.06089684 0.05963426 0.05828453 0.05689308 0.05546255 0.0540428 0.05263584
 0.05127953 0.0499749 0.04874593 0.04759442 0.04653779 0.04557726 0.04472464 0.04397657 0.04333407 0.04279175
 0.04234396 0.04199029 0.04172932 0.04156006 0.04148523 0.04148969 0.04157252 0.0417074 0.04188946 0.04209856
 0.04233137 0.0425791 0.04284092 0.04311048 0.04338724 0.04366035 0.04392844 0.04417571 0.04440033 0.04458503
 0.04472996 0.04482553 0.04487542 0.04488287 0.04484957 0.04478196 0.0446723 0.04451733 0.04430493 0.04402326
 0.04367565 0.04325415 0.04279075 0.04228877 0.04179528 0.04131958 0.04089613 0.04053102 0.04023738 0.04001667
 0.03987418 0.0398102 0.03982952 0.03993171 0.040115 0.04037868 0.04071816 0.04113379 0.04162655 0.04219148
 0.04282379 0.04350695 0.04421741 0.04493995 0.04564743 0.04634592 0.04702852 0.04771389 0.04841214 0.04912263
 0.04985289 0.05057142 0.05127602 0.05192417 0.05251022 0.05300505 0.05340524 0.05371109 0.05392375 0.05408094
 0.05418803 0.05430761 0.05444353 0.05464873 0.05491928 0.05527298 0.05569997 0.05618993 0.05673273 0.05731218
 0.05791566 0.05852839 0.05913283 0.05971328 0.06025887 0.06075739 0.06121889 0.06164204 0.06204627 0.06243669
 0.06281761 0.06319139 0.06354689 0.06388325 0.0641958 0.06448469 0.06476019 0.06502349 0.0652893 0.06555832
 0.06584134 0.06613898 0.06645807 0.06680043 0.06717233 0.0675765 0.06802027 0.06850266 0.06902836 0.06958595
 0.07017162 0.07076821 0.07136619 0.07195792 0.07253698 0.07311089 0.0736792 0.07425474 0.07483919 0.07544103
 0.07606136 0.0766993 0.07735454 0.07801457 0.07867816 0.07932872 0.07996583 0.08057899 0.08116799 0.08172709
 0.0822554 0.08274691 0.08320493 0.08362944 0.08403013 0.0844153 0.08479585 0.08518066 0.08557942 0.08599778
 0.08644486 0.08692545 0.08744097 0.08799434 0.08857358 0.08917866 0.08978961 0.09040519 0.0910036 0.09158397
 0.09213579 0.09266233 0.09318841 0.09372149 0.0943141 0.09496462 0.09570061 0.09650449 0.0973538 0.09823211
 0.09910551 0.09996713 0.1008027 0.1015952 0.102334 0.1029906 0.1035434 0.1039982 0.1043396 0.1046394
 0.1049038 0.1052275 0.1056272 0.1061386 0.1067695 0.1074638 0.1082179 0.1089367 0.1096191 0.1102142
 0.110731 0.111187 0.1115927 0.1119907 0.1123855 0.1128072 0.1132552 0.1137434 0.114263 0.1148121
 0.1153763 0.1159427 0.1165105 0.1170733 0.1176431 0.1182253 0.1188152 0.1194152 0.1200045 0.1205791
 0.1211383 0.1216809 0.1222242 0.1227688 0.1233159 0.1238659 0.1244168 0.1249769 0.1255834 0.1262508
 0.1270472 0.1279767 0.129089 0.1303609 0.13179 0.1333247 0.1349161 0.1365139 0.1380667 0.1395529
 0.1409577 0.1422427 0.1434106 0.1443482 0.1450332 0.1453714 0.1453292 0.1450058 0.1443971 0.1437691
 0.143135 0.1427159 0.1425093 0.1425726 0.1428864 0.1433855 0.1440484 0.1447735 0.1455493 0.1463021
 0.14703 0.1477036 0.1483117 0.1488386 0.1492569 0.1495407 0.1496778 0.1496463 0.149481 0.1491795
 0.1488152 0.148398 0.1480149 0.1476784 0.1474551 0.1473543 0.1473717 0.1475067 0.1476877 0.1479129
 0.148133 0.1483561 0.148601 0.1488733 0.1492042 0.1495856 0.1500178 0.1504839 0.1509624 0.1514304
 0.1518524 0.1522269 0.15252 0.1528118 0.1531113 0.1535674 0.1542571 0.1551597 0.1563231 0.157463
 0.1585346 0.1594228 0.1601042 0.1606927 0.1611932 0.1617046 0.1622236 0.1627514 0.1632742 0.16372
 0.1640768 0.164263 0.1642852 0.1641126 0.1637715 0.1632908 0.1626848 0.1619846 0.1611805 0.1602669
 0.159262 0.1581581 0.1570305 0.1558966 0.1548409 0.1538864 0.1530819 0.15244 0.1519687 0.1516724
 0.1515076 0.1514716 0.1514686 0.1514929 0.1514465 0.1513302 0.1510954 0.1507525 0.1503075 0.1497778
 0.1492061 0.1486021 0.1480078 0.1473998 0.1467709 0.1460924 0.1453274 0.1445055 0.1436276 0.1427391
 0.1418659 0.1409885 0.1401057 0.1392033 0.1382672 0.1373903 0.136577 0.1359456 0.1355019 0.1352538
 0.1351944 0.1352468 0.1354048 0.1355967 0.1358196 0.1360252 0.1362148 0.1363639 0.1364854 0.1365859
 0.1366845 0.1368027 0.136959 0.1371734 0.137458 0.137829 0.1382725 0.1387918 0.1393525 0.1399445
 0.1405592 0.1411908 0.1418651 0.142585 0.1433548 0.1441747 0.1450083 0.1458522 0.1466597 0.1474228
 0.1480756 0.1486055 0.1489255 0.1490488 0.1489476 0.1486766 0.14831 0.1478876 0.1474948 0.1471073
 0.1467369 0.1463448 0.1459048 0.1454255 0.1449001 0.1443594 0.1438119 0.1432644 0.142721 0.142168
 0.1416043 0.1410206 0.1404164 0.1397978 0.1391653 0.1385277 0.1378827 0.1372207 0.1365409 0.1358308
 0.1351009 0.1343695 0.1336442 0.1329519 0.1322767 0.1316124 0.1309406 0.1302409 0.1295168 0.1287666
 0.1279883 0.1271844 0.1263362 0.1254337 0.1244975 0.1235234 0.1225793 0.1216727 0.1208276 0.1200455
 0.1192569 0.1184563 0.1175529 0.1165489 0.1154078 0.1141442 0.1127836 0.1113514 0.1099166 0.1085029
 0.1071827 0.1059568 0.1048562 0.1038665 0.1029876 0.1022034 0.1015122 0.1008773 0.1002909 0.09970104
 0.09908871 0.09844943 0.09777325 0.09711851 0.09649032 0.09592427 0.09542257</values></Ydata></AB><ScSm><Ydata ylabel="Single channel"><values byteorder="INTEL" format="FLOAT32" numvalues="1814"> 0.0736963 0.07370263 0.0737768 0.07393631 0.07414963 0.07435487 0.0745021 0.07458444 0.0746199 0.07461197
 0.07456277 0.07452327 0.0745801 0.07476691 0.07501295 0.07519443 0.07523519 0.07517443 0.07514349 0.07523807
 0.07538415 0.07536124 0.07500742 0.07440658 0.07383512 0.07350928 0.07345113 0.07364868 0.07418951 0.07500805
 0.07560512 0.07540762 0.07449088 0.07360283 0.07333449 0.07355598 0.07377096 0.07368932 0.07331231 0.07281794
 0.07261533 0.07323702 0.07481368 0.07663794 0.07741775 0.07609247 0.07259154 0.06807696 0.06451637 0.06362614
 0.06565796 0.06905584 0.07162727 0.07229255 0.07159589 0.07059245 0.06971623 0.06892295 0.06842263 0.06871148
 0.06988513 0.0711832 0.07138622 0.06985894 0.06730734 0.06527642 0.06474288 0.06550488 0.06701057 0.06895609
 0.07044636 0.06951821 0.06507592 0.059336 0.05683345 0.0601065 0.06698684 0.07272354 0.07420829 0.07170704
 0.06747288 0.06388439 0.06255695 0.06390322 0.06704986 0.07056227 0.07332016 0.07457407 0.07374723 0.0709359
 0.06740802 0.06499063 0.06494679 0.06748089 0.0716963 0.07567462 0.07734878 0.07603387 0.07288239 0.06966631
 0.0676132 0.06741639 0.06940533 0.07319526 0.07767323 0.08164839 0.08433393 0.08541515 0.08511417 0.08405244
 0.08278112 0.08169213 0.0813409 0.08209734 0.08326749 0.0833701 0.08174796 0.07944283 0.07812117 0.0783519
 0.07915422 0.07919113 0.07812402 0.07638389 0.07384261 0.06979582 0.06457753 0.05998205 0.05746786 0.05705217
 0.05837885 0.06127766 0.06450836 0.06570186 0.06395875 0.06149124 0.06142693 0.06447214 0.0685551 0.07134977
 0.07242131 0.07305278 0.07459257 0.07708001 0.07907356 0.07874161 0.07568563 0.07195529 0.07059184 0.07264265
 0.07615863 0.07858697 0.07945551 0.08008903 0.08129533 0.08211622 0.08082971 0.07699852 0.07256664 0.07065756
 0.07285479 0.07761524 0.08139011 0.08126079 0.07690565 0.07065244 0.0656551 0.06371441 0.06479693 0.06823877
 0.07346632 0.07938788 0.08409695 0.08593894 0.08472887 0.08164524 0.07789709 0.07362875 0.06854237 0.06368997
 0.06169033 0.06424199 0.06993718 0.07543618 0.07845113 0.07888297 0.07751504 0.07460129 0.07006681 0.06481481
 0.06115275 0.06100974 0.06362046 0.06595714 0.06589627 0.06414542 0.06268969 0.06230985 0.0623018 0.06198446
 0.06165709 0.06206688 0.0633398 0.0646932 0.06519771 0.06462932 0.06350295 0.06246348 0.06171268 0.06088585
 0.05957498 0.05813433 0.05764801 0.05873226 0.06067525 0.06217196 0.06263711 0.06240651 0.0618711 0.06083582
 0.05883929 0.05603907 0.05358046 0.05274829 0.05371346 0.05542336 0.05670388 0.05710701 0.05678096 0.0560368
 0.0551453 0.05425218 0.05342041 0.05281281 0.05264868 0.05287779 0.05312398 0.0530643 0.05268179 0.05209482
 0.05134105 0.05042329 0.04945417 0.04865528 0.04819994 0.04807475 0.04812104 0.04818518 0.0481639 0.0479499
 0.0474719 0.04680058 0.04610803 0.04551203 0.04503339 0.04468042 0.04447673 0.04439605 0.04433782 0.04419864
 0.04394849 0.04362328 0.04325961 0.04286329 0.04244038 0.04203146 0.04169789 0.04147221 0.04131886 0.0411586
 0.04095718 0.04076619 0.04063179 0.04049516 0.04025221 0.03989267 0.03951215 0.03919843 0.03896061 0.03875856
 0.03854939 0.03829691 0.03797031 0.03756979 0.0371629 0.0368637 0.03674258 0.03676986 0.03686123 0.03694119
 0.03695057 0.03685346 0.03667039 0.03645999 0.03624725 0.03600689 0.03572379 0.03543634 0.03521589 0.03511452
 0.03512043 0.03516042 0.03516022 0.03509648 0.03498643 0.03485914 0.03474859 0.03467387 0.03460889 0.03450527
 0.03435449 0.03420078 0.03409021 0.03402542 0.03396748 0.03387558 0.03375115 0.03363774 0.03356926 0.03353355
 0.03349658 0.03344165 0.03337241 0.03329438 0.03320356 0.03308853 0.03294751 0.03280265 0.03268228 0.03258933
 0.03250465 0.03241806 0.03233746 0.03227089 0.03221419 0.03215407 0.0320776 0.03198232 0.03187528 0.03175831
 0.03162379 0.03147127 0.03131627 0.03117514 0.03104946 0.03092885 0.03080198 0.03066347 0.03051498 0.03036052
 0.03020093 0.03003318 0.02985242 0.02965686 0.02945794 0.02928152 0.02914668 0.02904356 0.02894194 0.02882078
 0.02868332 0.0285477 0.02843032 0.02833707 0.02826685 0.02822054 0.02820207 0.02821184 0.02824577 0.02830046
 0.02837224 0.02845394 0.02854421 0.02866062 0.02883108 0.02906546 0.02934003 0.02961578 0.02987146 0.03011568
 0.03036894 0.03064014 0.03092282 0.03120828 0.03149685 0.03179381 0.03209401 0.03237608 0.03262223 0.03284352
 0.03307255 0.03332854 0.03360114 0.03386953 0.03412151 0.03435145 0.03455776 0.0347506 0.03494931 0.03516251
 0.03537847 0.03558177 0.03577413 0.035972 0.03618791 0.03642172 0.03666949 0.03693347 0.03721955 0.03752604
 0.03783754 0.03813242 0.0384016 0.03866154 0.03894417 0.03926957 0.03962845 0.03999199 0.04033773 0.04066645
 0.04099539 0.04133666 0.04168657 0.04203988 0.04240671 0.04280404 0.04323224 0.0436713 0.0441011 0.04451729
 0.04492713 0.04533889 0.04575702 0.04618133 0.04660784 0.04703193 0.04745154 0.0478664 0.04827601 0.04868007
 0.04908 0.04947913 0.04988103 0.05028309 0.05067028 0.05102365 0.0513449 0.05166537 0.05201541 0.05238639
 0.05274045 0.05305858 0.05336159 0.05367852 0.05401205 0.05434481 0.05466682 0.05498417 0.05530469 0.05562248
 0.05591641 0.05616419 0.05636382 0.05654126 0.05673204 0.05695594 0.05721342 0.05749793 0.05779784 0.05809034
 0.05835033 0.05856904 0.05875529 0.05892425 0.05909716 0.05930324 0.05956175 0.05986092 0.06016527 0.06044097
 0.06067369 0.06087932 0.0611048 0.06139727 0.06175904 0.06214871 0.06253491 0.06292801 0.06334844 0.06378871
 0.06422866 0.06467129 0.06513585 0.06561802 0.06608121 0.06649304 0.06685251 0.06717588 0.06747908 0.06778798
 0.06814298 0.0685693 0.06905085 0.06954815 0.0700324 0.07048909 0.07090356 0.07126183 0.0715635 0.07182303
 0.07205905 0.07228418 0.07250136 0.07270741 0.07289882 0.0730689 0.07319844 0.07325765 0.07322176 0.0730779
 0.07281617 0.07242707 0.07191746 0.07131861 0.07066241 0.06994884 0.06914717 0.06822902 0.06719062 0.06604433
 0.06480452 0.06348988 0.06213194 0.0607757 0.05947553 0.05829274 0.05729525 0.05656169 0.05618013 0.05621605
 0.05665031 0.05733795 0.0580364 0.05849127 0.05852546 0.0580866 0.05723506 0.05608527 0.05474332 0.05328257
 0.05175181 0.05017631 0.0485427 0.04680462 0.0449317 0.04296381 0.04102854 0.03934947 0.03829058 0.03836587
 0.0400602 0.04347991 0.04813389 0.05312486 0.05763305 0.06127612 0.06410131 0.06634881 0.0682482 0.06994372
 0.07149819 0.07292575 0.07422911 0.07541537 0.07648443 0.07741702 0.07817983 0.07874161 0.07909232 0.07925966
 0.07930805 0.07931842 0.07936564 0.07949516 0.07969061 0.07985349 0.07982809 0.07945836 0.07862791 0.07725504
 0.07526132 0.07260162 0.06947491 0.06663616 0.06539134 0.06694739 0.07150726 0.07799743 0.08476394 0.09056178
 0.09497869 0.0981883 0.1005334 0.1023072 0.1037166 0.1048987 0.105939 0.1068847 0.107757 0.1085664
 0.1093257 0.1100484 0.1107428 0.1114149 0.1120695 0.1127089 0.1133352 0.1139542 0.1145717 0.1151874
 0.1157972 0.1163965 0.116984 0.117563 0.1181377 0.1187054 0.1192585 0.1197947 0.1203212 0.1208482
 0.121382 0.1219199 0.122447 0.1229442 0.1234073 0.1238518 0.1242963 0.1247464 0.1251973 0.1256437
 0.1260841 0.1265179 0.1269445 0.127366 0.1277905 0.128226 0.1286662 0.1290911 0.1294853 0.1298537
 0.1302148 0.1305825 0.1309595 0.1313435 0.131736 0.132145 0.1325795 0.1330393 0.1335106 0.1339726
 0.1344118 0.1348306 0.1352421 0.1356593 0.1360879 0.1365256 0.1369633 0.1373889 0.1377963 0.1381903
 0.1385803 0.13897 0.139357 0.1397393 0.1401198 0.1405026 0.1408869 0.1412666 0.1416384 0.1420108
 0.1423989 0.1428039 0.1432065 0.1435847 0.1439341 0.1442673 0.1445978 0.1449327 0.1452761 0.1456311
 0.1459965 0.1463679 0.1467426 0.1471217 0.1475047 0.1478862 0.1482608 0.1486298 0.1489997 0.1493756
 0.149758 0.1501452 0.1505362 0.1509285 0.1513154 0.1516876 0.1520398 0.1523785 0.1527218 0.1530845
 0.1534644 0.1538469 0.1542226 0.1545937 0.1549643 0.1553346 0.1557047 0.1560738 0.1564364 0.1567869
 0.1571288 0.1574747 0.1578353 0.1582102 0.158588 0.1589576 0.1593174 0.1596734 0.1600291 0.1603811
 0.1607261 0.161066 0.1614061 0.1617496 0.1620974 0.1624497 0.162806 0.1631616 0.1635067 0.1638347
 0.1641501 0.1644652 0.1647872 0.1651159 0.1654493 0.1657874 0.1661295 0.166474 0.1668192 0.1671658
 0.1675175 0.1678775 0.1682433 0.1686062 0.168958 0.1692963 0.1696266 0.1699605 0.1703059 0.1706591
 0.1710104 0.1713561 0.1716985 0.1720406 0.1723844 0.1727301 0.1730734 0.1734103 0.1737434 0.1740758
 0.1744035 0.1747235 0.1750416 0.1753658 0.1757005 0.1760473 0.1764031 0.1767573 0.1770998 0.1774288
 0.1777472 0.1780598 0.1783741 0.1786964 0.1790273 0.1793674 0.1797187 0.1800781 0.1804388 0.1807988
 0.1811598 0.18152 0.181876 0.1822245 0.1825605 0.1828842 0.183208 0.1835432 0.1838856 0.1842233
 0.1845494 0.1848606 0.1851581 0.1854517 0.1857511 0.1860575 0.1863669 0.1866746 0.186976 0.1872727
 0.187573 0.1878779 0.1881808 0.1884835 0.1887931 0.1891063 0.1894157 0.1897227 0.190026 0.1903165
 0.1905967 0.1908827 0.1911819 0.1914901 0.1918039 0.1921171 0.1924195 0.1927095 0.1929881 0.1932364
 0.1934073 0.1933887 0.1928927 0.1913311 0.1877976 0.1812523 0.1709413 0.1568715 0.1399663 0.1217315
 0.1037002 0.08703887 0.07244077 0.06021904 0.05045443 0.04308561 0.03796555 0.03496445 0.03407972 0.03554799
 0.03996616 0.04793596 0.05872686 0.0690985 0.07456785 0.0729504 0.066448 0.05964028 0.05568291 0.05479315
 0.05562159 0.05701928 0.05862156 0.06063592 0.06342089 0.06707656 0.07142507 0.07645439 0.08253898 0.08996572
 0.09835641 0.1068193 0.1147146 0.1221571 0.1297267 0.1377642 0.1460104 0.1538635 0.1608622 0.1669158
 0.1722108 0.1770037 0.1814788 0.1857255 0.1897832 0.1936418 0.1971649 0.2000587 0.2020122 0.2029296
 0.2030432 0.2027861 0.2025411 0.2024889 0.2026466 0.2029834 0.2034776 0.204113 0.20487 0.2057218
 0.2066304 0.207556 0.2084729 0.2093671 0.2102242 0.21103 0.2117768 0.212464 0.2130968 0.2136833
 0.2142272 0.2147273 0.2151882 0.2156208 0.2160325 0.216425 0.2168014 0.2171644 0.217508 0.2178223
 0.2181042 0.2183594 0.2186009 0.2188451 0.2191016 0.2193657 0.2196269 0.2198791 0.2201221 0.2203595
 0.2206004 0.2208515 0.2211088 0.2213617 0.2216033 0.2218326 0.2220543 0.2222791 0.2225165 0.2227634
 0.2230107 0.2232569 0.2235039 0.2237471 0.2239804 0.2242082 0.2244427 0.224692 0.2249521 0.2252089
 0.2254525 0.2256921 0.2259453 0.2262144 0.2264886 0.2267655 0.2270509 0.2273418 0.2276292 0.2279104
 0.2281813 0.2284271 0.2286389 0.2288363 0.2290599 0.2293364 0.2296534 0.2299717 0.2302623 0.2305271
 0.230782 0.2310369 0.231295 0.2315545 0.2318124 0.2320808 0.2323852 0.2327287 0.2330792 0.233409
 0.2337218 0.2340305 0.2343399 0.2346587 0.2349897 0.2353054 0.2355695 0.2357918 0.2360398 0.2363842
 0.2368301 0.2373052 0.2377278 0.2380827 0.238413 0.238761 0.2391433 0.2395367 0.2398479 0.2399706
 0.2399488 0.2400146 0.2403779 0.2410169 0.2417307 0.2423486 0.2428354 0.2432427 0.2436179 0.2439542
 0.2441993 0.2443159 0.2443615 0.2445041 0.2449044 0.2455479 0.2462412 0.2468082 0.2472292 0.2475675
 0.2478637 0.2481326 0.2483324 0.2483107 0.247964 0.2475234 0.2474942 0.2481668 0.2492887 0.2503352
 0.251029 0.2514744 0.2518589 0.2522207 0.2525132 0.252642 0.2523419 0.2513378 0.2498935 0.2489494
 0.2493407 0.250957 0.2529166 0.2544448 0.2553555 0.2558492 0.2561731 0.256458 0.2566173 0.2563577
 0.2555055 0.2544342 0.2539669 0.2546176 0.2560165 0.2573081 0.2580241 0.2583306 0.2585683 0.2588679
 0.2590641 0.2586559 0.2570872 0.2545721 0.2525169 0.2525355 0.2548665 0.2580832 0.2605104 0.2616642
 0.2621075 0.2622157 0.2616209 0.2598722 0.2571158 0.2540241 0.2515854 0.2509778 0.2527936 0.256052
 0.2587478 0.2598333 0.2601108 0.2609062 0.2624799 0.2640421 0.2647842 0.2645023 0.2634514 0.2618986
 0.2599929 0.2581773 0.2574495 0.2586546 0.2614476 0.2644172 0.2664008 0.2673661 0.2677793 0.2672392
 0.2642154 0.257884 0.2504219 0.246407 0.2487697 0.2557195 0.2626735 0.2667672 0.2684104 0.2691281
 0.2695293 0.2691369 0.2666565 0.2606911 0.2519431 0.2445773 0.2433994 0.2491083 0.2575013 0.2633914
 0.2641526 0.2599995 0.2530307 0.2465996 0.2439633 0.2463039 0.2521986 0.2590312 0.2645718 0.2675734
 0.26775 0.2656656 0.2626804 0.2606086 0.2604189 0.2608052 0.2591663 0.2548974 0.2504097 0.2475847
 0.2448509 0.2400822 0.235245 0.2350688 0.2408949 0.2484494 0.2526473 0.2527315 0.2513623 0.2497805
 0.2456969 0.2366117 0.2245641 0.2161764 0.2168372 0.2251252 0.2340887 0.2380187 0.2369616 0.2346952
 0.233661 0.2324896 0.2279916 0.2193236 0.2100168 0.2050032 0.2054155 0.2075849 0.2074066 0.2037127
 0.1968922 0.1874009 0.1778384 0.1737738 0.1790241 0.190889 0.202278 0.2075291 0.204434 0.1929341
 0.1757851 0.1600149 0.1534852 0.1579343 0.166938 0.1718472 0.1686703 0.1587764 0.1451084 0.1300587
 0.1164601 0.1079621 0.1067869 0.1114438 0.1171853 0.118652 0.1128169 0.10109 0.08902481 0.08234233
 0.08200799 0.08380965 0.08311582 0.07899782 0.07355262 0.06896615 0.06614288 0.06483813 0.06404354 0.06284026
 0.06113701 0.05889641 0.05514794 0.04929311 0.04312127 0.03970255 0.0401275 0.04290905 0.04657625 0.05091269
 0.05522102 0.05747297 0.05663349 0.05476482 0.05533665 0.05959037 0.06543018 0.06989327 0.07206485 0.07331391
 0.07507763 0.07714163 0.0785414 0.07963033 0.0820846 0.08658499 0.09156348 0.09491609 0.09616548 0.09625271
 0.09594552 0.09528561 0.09412387 0.09242903 0.09023537 0.0877023 0.08506934 0.08236633 0.07937431 0.07592397
 0.0719432 0.06718577 0.06137469 0.054962 0.04944915 0.04633799 0.04569143 0.04626786 0.04708496 0.04794107
 0.04814377 0.04609627 0.04131358 0.03608749 0.03382543 0.03579672 0.04022802 0.04434528 0.04647946 0.04622339
 0.04365309 0.03947198 0.03579839 0.03557514 0.04032324 0.04886257 0.05870353 0.06806883 0.07601169 0.08147888
 0.08355808 0.08271468 0.08110715 0.08141886 0.0853669 0.09290474 0.1020239 0.1090125 0.1102584 0.1060304
 0.1025055 0.1071723 0.1206368 0.1352437 0.1436443 0.146361 0.1485474 0.1519791 0.1542453 0.1547002
 0.1567329 0.1630364 0.1714811 0.1771315 0.1765464 0.169102 0.1564268 0.1426772 0.1335667 0.1320757
 0.1354866 0.1386562 0.1391549 0.137046 0.1317966 0.1235603 0.1165877 0.1166667 0.1243086 0.1337417
 0.1395279 0.1415946 0.1428691 0.1442095 0.1433865 0.1385124 0.1312131 0.1256341 0.1243416 0.1260321
 0.1276204 0.1274103 0.1252826 0.1210374 0.1144777 0.1070376 0.1017094 0.100545 0.1026919 0.105333
 0.1063118 0.105541 0.1042362 0.1034744 0.103525 0.1040024 0.1045593 0.1057784 0.1090744 0.1150418
 0.1222373 0.1285329 0.1335116 0.138579 0.1447304 0.1510945 0.1558967 0.1583472 0.1594307 0.1611184
 0.1647797 0.170018 0.1749102 0.1776273 0.1781651 0.1785062 0.1807839 0.1852048 0.1900329 0.1935201
 0.195343 0.1962027 0.1967498 0.1970879 0.196759 0.1951453 0.1924726 0.1904019 0.1908998 0.1943151
 0.1990199 0.2030057 0.2054161 0.2065296 0.2068096 0.2063494 0.2051203 0.2034378 0.2019597 0.2012155
 0.2012628 0.2018186 0.2025774 0.203348 0.204042 0.2046605 0.2052565 0.2058644 0.2064878 0.2071368
 0.20781 0.2084464 0.208972 0.2094192 0.2099273 0.2105721 0.2112379 0.2117158 0.2118822 0.2117051
 0.2111268 0.2100643 0.2085277 0.2066306 0.2044531 0.2019937 0.1993378 0.196833 0.1949917 0.1941418
 0.1941668 0.1946062 0.1949968 0.1951145 0.1949689 0.194685 0.194418 0.1943048 0.194427 0.1947992
 0.1953962 0.1961925 0.1971778 0.1983348 0.1996216 0.2009997 0.2024736 0.2040762 0.2058131 0.2076369
 0.209474 0.2112611 0.2129629 0.2145746 0.2161089 0.2175688 0.2189288 0.2201401 0.221157 0.2219637
 0.2225801 0.2230368 0.2233379 0.2234481 0.2233213 0.222933 0.2222669 0.2212765 0.2199042 0.2181676
 0.2161973 0.2141543 0.2121304 0.2101488 0.2082214 0.2063585 0.2045361 0.202694 0.2007761 0.1987691
 0.196705 0.1946349 0.1925992 0.1906226 0.1887221 0.1868976 0.1851126 0.1832983 0.1813806 0.1792965
 0.1769862 0.1743799 0.1713994 0.1679764 0.1640743 0.1597056 0.1549408 0.1499042 0.1447494 0.139621
 0.1346333 0.1298746 0.1254279 0.1213962 0.117904 0.1150509 0.1128472 0.1112079 0.1100179 0.109205
 0.108758 0.108694 0.1090045 0.1096153 0.1103909 0.111182 0.1118839 0.1124734 0.1130148 0.1136264
 0.1144221 0.1154568 0.1167049 0.1180795 0.1194795 0.1208254 0.1220559 0.1231114 0.1239451 0.1245522
 0.1249775 0.1252968 0.1255876 0.1259018 0.1262528 0.126628 0.1270107 0.1273941 0.1277909 0.1282371
 0.128775 0.1294279 0.1301983 0.1310831 0.1320775 0.1331653 0.1343207 0.1355272 0.1367972 0.1381674
 0.1396707 0.141324 0.1431544 0.145227 0.1476192 0.1503635 0.1534185 0.1566793 0.1600058 0.1632558
 0.1663089 0.1690729 0.171491 0.1735597 0.1753263 0.1768525 0.1781798 0.1793311 0.1803308 0.1812138
 0.182013 0.1827335 0.1833463 0.1838157 0.1841262 0.1842818 0.1843043 0.1842473 0.1841856 0.184174
 0.1842321 0.1843778 0.1846496 0.1850802 0.1856584 0.1863206 0.1869776 0.1875503 0.1879913 0.188282
 0.188417 0.1883854 0.1881559 0.1876869 0.1869669 0.1860381 0.1849661 0.1837935 0.1825339 0.1811927
 0.1797799 0.1783128 0.1768167 0.175315 0.1738196 0.1723345 0.1708605 0.1693915 0.1679162 0.1664314
 0.1649503 0.1634929 0.1620663 0.160653 0.1592225 0.157757 0.1562568 0.1547248 0.1531697 0.1516269
 0.1501453 0.1487428 0.1473992 0.1461034 0.144885 0.1437979 0.1428838 0.1421486 0.1415541 0.1410311
 0.1405169 0.1399857 0.1394541 0.138965 0.1385605 0.1382522 0.1380091 0.1377752 0.1375042 0.1371896
 0.1368648 0.1365691 0.1363135 0.136082 0.1358498 0.1355795 0.1352072 0.1346545 0.1338567 0.13278
 0.1314239 0.1298194 0.1280262 0.1261318 0.1242493 0.122492 0.1209402 0.1196329 0.1185772 0.1177409
 0.1170559 0.1164631 0.1159597 0.1155877 0.1153813 0.1153141 0.1152802 0.11515 0.1148874 0.1146015
 0.1144503 0.1144989 0.1146883 0.1149086 0.1150763 0.1151579 0.1151554 0.1150882 0.1149897 0.1148865
 0.1147539 0.1145175 0.1141354 0.1136528 0.1131484 0.1126582 0.1121688 0.1116426 0.1110392 0.1103437
 0.1095761 0.1087555 0.1078752 0.1069183 0.1058674 0.1047134 0.1035101 0.1024152 0.1016252 0.1012541
 0.1012606 0.1014638 0.1016601 0.101766 0.1017985 0.1016982 0.101336 0.1008275 0.1006971 0.1014945
 0.1032221 0.105266 0.1069078 0.107816 0.1080532 0.1077889 0.107141 0.1061937 0.1049956 0.103547
 0.1018664 0.1000185 0.09804381 0.09596269 0.09387194 0.09192927 0.0902423 0.08884038 0.08771092 0.08687338
 0.0864277 0.08612992 0.08467032 0.08034436 0.07364751 0.06848146 0.06890178 0.07457835 0.08099997 0.08425805
 0.08419006 0.08284976 0.0817059 0.0810279 0.08075626 0.0809619 0.08171124 0.08290702 0.08426677 0.08545806
 0.08630398 0.086794 0.0868852 0.08633713 0.08467717 0.08135974 0.07621399 0.06985074 0.06347409 0.05820131
 0.0545662 0.05249854 0.05154623 0.05115804 0.05097262 0.05095825 0.05130059 0.05217437 0.05361198 0.05553874
 0.05784912 0.0603703 0.0627984 0.0648244 0.0663584 0.06752144 0.06841126 0.06898981 0.06919187 0.06902622
 0.06856176 0.06789458 0.0671322 0.06635787 0.06558895 0.06478508 0.06393418 0.06314829 0.06261925 0.06243454
 0.06249277 0.06263605 0.06278849 0.06293687 0.06306885 0.06317562 0.06327134 0.06340828 0.06368196 0.06416029
 0.06478288 0.06538902 0.06585474 0.06616756 0.06639373 0.06658614 0.06668249 0.06654617 0.06619792 0.06589055
 0.0657844 0.06567387 0.06526452 0.06463793 0.06421216 0.06427202 0.06471166 0.06521578 0.06554405 0.06564245
 0.06562933 0.06574056 0.06617254 0.06685224</values></Ydata></ScSm><ScRf><Ydata ylabel="Single channel"><values byteorder="INTEL" format="FLOAT32" numvalues="1820"> 0.06065932 0.06081659 0.06090818 0.06093599 0.06092493 0.06092113 0.06097623 0.06111518 0.06131446 0.06151252
 0.06165095 0.06171359 0.06172019 0.06168819 0.06162921 0.06158435 0.06162051 0.06176536 0.06196386 0.06211421
 0.06214806 0.06209115 0.06205192 0.06211764 0.06223546 0.06222319 0.0619402 0.06144949 0.06097636 0.06069901
 0.06063861 0.06079222 0.06124001 0.06192975 0.0624413 0.0622879 0.06152377 0.06077071 0.06052766 0.06069474
 0.06086195 0.06078443 0.0604578 0.06003117 0.05985495 0.06038091 0.06171292 0.06324765 0.06390052 0.06279169
 0.05987001 0.0561053 0.05313203 0.05237668 0.05405343 0.05687445 0.05901523 0.05957084 0.05899229 0.05816343
 0.05744815 0.05680205 0.05638961 0.05662166 0.05758472 0.05865472 0.05882014 0.0575483 0.05542013 0.05371943
 0.05326327 0.05388857 0.0551372 0.05675634 0.05800389 0.05724707 0.05356567 0.04879196 0.04670031 0.04941972
 0.0551585 0.05995402 0.0611991 0.05910832 0.05557057 0.05258115 0.05148258 0.05260352 0.05521049 0.05811959
 0.06041014 0.06145748 0.06077475 0.05844171 0.05551632 0.0535159 0.05348517 0.05559307 0.05909804 0.06240834
 0.06380413 0.06271246 0.06009158 0.05741985 0.05572112 0.05556803 0.05723048 0.06039134 0.06412926 0.06745111
 0.06969537 0.07059789 0.07035008 0.06948055 0.06845191 0.06757823 0.06730416 0.0679338 0.06890074 0.06898178
 0.06763041 0.0657115 0.06461222 0.06480806 0.06548519 0.06553053 0.06465812 0.06322294 0.06111601 0.05774664
 0.05339175 0.04955538 0.04746538 0.04713909 0.04827773 0.05074185 0.05349529 0.05454515 0.05312146 0.05106561
 0.05099959 0.05352979 0.05693924 0.05928971 0.06021553 0.06078475 0.06211996 0.06424814 0.06595707 0.06570686
 0.06315878 0.06003892 0.05892246 0.06070674 0.0637464 0.06587498 0.06668819 0.06730857 0.06842107 0.06921048
 0.06821189 0.0650555 0.0614019 0.05991038 0.06191765 0.06609978 0.06943765 0.06944817 0.06585008 0.06062711
 0.05648707 0.05499072 0.05613426 0.05937872 0.06424557 0.06977114 0.07426239 0.07624204 0.07551801 0.07310697
 0.07007194 0.06653456 0.06222489 0.05812084 0.05665655 0.059426 0.06514701 0.07072844 0.07402818 0.07492472
 0.07411811 0.0718061 0.06788233 0.06322749 0.06014014 0.06055098 0.06369469 0.06653909 0.06696109 0.06568727
 0.06473666 0.06490329 0.06545468 0.06568471 0.0659267 0.066989 0.06899898 0.07109727 0.07226938 0.07226545
 0.07164428 0.07112212 0.07092054 0.07060346 0.06969629 0.06864302 0.06874759 0.07074172 0.0737716 0.07627308
 0.07753856 0.07797022 0.07802887 0.07743005 0.07555626 0.07261482 0.07011396 0.06974456 0.07174341 0.07474148
 0.07718714 0.07846521 0.07875498 0.07846487 0.07795267 0.07741399 0.0769466 0.07679783 0.07729724 0.07838453
 0.07950769 0.08017539 0.08035827 0.08023681 0.07984804 0.07916348 0.07835035 0.07777541 0.0777397 0.07825117
 0.0790695 0.0799216 0.08059987 0.08092196 0.08079353 0.0803495 0.07987563 0.07954816 0.07937276 0.07936545
 0.07961145 0.08009917 0.08064106 0.0810328 0.08121675 0.08125248 0.08119793 0.08106741 0.08087502 0.08068606
 0.08061542 0.08074308 0.08101469 0.08128019 0.08147056 0.08166753 0.08193713 0.0821732 0.08220762 0.08203424
 0.08182697 0.08174982 0.08182041 0.08195142 0.08204834 0.08203386 0.08183775 0.081459 0.08105358 0.08087529
 0.08107376 0.08158821 0.08224435 0.08287655 0.08335148 0.083593 0.08363949 0.08360501 0.08354963 0.08343935
 0.08324543 0.08303875 0.08296983 0.08315621 0.08357382 0.08406326 0.08445693 0.08468515 0.08477348 0.08480533
 0.08489048 0.08508027 0.08528797 0.08536946 0.0853043 0.08522914 0.08527074 0.0854013 0.08548468 0.08543877
 0.08532865 0.08529804 0.08542043 0.08563779 0.08584422 0.0860012 0.08615653 0.08636085 0.08657518 0.08667764
 0.08659031 0.08638513 0.08621571 0.08615343 0.08615592 0.08619185 0.08630599 0.08652462 0.08676517 0.08690287
 0.08690964 0.08688025 0.08691385 0.08699806 0.08703028 0.08693852 0.08675638 0.08658476 0.0865063 0.08653686
 0.08663055 0.08671385 0.08672852 0.08666252 0.08654772 0.08642654 0.08632353 0.0862568 0.08626831 0.08640766
 0.08665699 0.08688848 0.08694199 0.08676867 0.08648664 0.08627764 0.08622552 0.08625638 0.0862285 0.08606683
 0.08581056 0.08555195 0.08535304 0.08521785 0.08511874 0.08503511 0.08497965 0.08499686 0.08511588 0.08528482
 0.08537429 0.08528426 0.08504392 0.08477926 0.08459446 0.08451085 0.08449465 0.0844999 0.08449933 0.0845079
 0.08455782 0.08463065 0.08465284 0.08458561 0.08448182 0.08443265 0.08449364 0.08466485 0.08488717 0.08505012
 0.08506582 0.08495966 0.08484903 0.08482243 0.08487397 0.08495533 0.08504388 0.08514158 0.08524328 0.08534016
 0.08544744 0.08560339 0.08583067 0.08610329 0.08635665 0.08653388 0.08663206 0.08671182 0.08685616 0.08710661
 0.08743071 0.08774976 0.08800153 0.08818498 0.08834843 0.08853289 0.08873627 0.08894341 0.08917211 0.08945549
 0.08978613 0.09011547 0.09041177 0.09068823 0.09097022 0.09126177 0.09155443 0.09185674 0.09220275 0.09261891
 0.09307155 0.09346345 0.09371201 0.09383304 0.09393379 0.09412868 0.09446068 0.09487025 0.09522511 0.09542176
 0.09549209 0.0955807 0.09578747 0.09606664 0.09631716 0.09653613 0.09682207 0.0972328 0.09769534 0.09807596
 0.09831311 0.09846263 0.09862272 0.09882823 0.09902515 0.09914991 0.09921705 0.09930231 0.09944728 0.09962706
 0.09982489 0.1000846 0.1004482 0.1008746 0.1012658 0.1015585 0.1017582 0.1019025 0.1020201 0.1021157
 0.1021751 0.1021969 0.1022206 0.1022934 0.1024034 0.1024854 0.1025075 0.1025175 0.1025825 0.1027226
 0.1029247 0.1031849 0.1034934 0.1038055 0.1040815 0.1043509 0.104683 0.1050739 0.1054129 0.1055973
 0.1056447 0.1056514 0.1056734 0.1057075 0.105769 0.1059132 0.1061687 0.1064976 0.1068429 0.107183
 0.1075258 0.107869 0.10818 0.108407 0.1085132 0.1085108 0.1084661 0.1084679 0.1085841 0.1088292
 0.1091572 0.1094907 0.1097685 0.1099638 0.1100617 0.1100545 0.109983 0.1099494 0.1100396 0.1102263
 0.1103812 0.1103841 0.1101978 0.1098426 0.1093417 0.1087187 0.1080292 0.107364 0.1068077 0.1064042
 0.1061672 0.1061229 0.1063199 0.1067775 0.1074289 0.1081411 0.1087929 0.1093081 0.1096161 0.1096333
 0.1093219 0.1087445 0.1080311 0.1073009 0.1066227 0.1060124 0.1054402 0.1048724 0.1043511 0.1040265
 0.1040864 0.1046464 0.1056941 0.1070978 0.108645 0.1101067 0.1113245 0.1122732 0.113038 0.1137245
 0.1143893 0.1150485 0.1157156 0.1163934 0.1170432 0.1176072 0.1180708 0.1184746 0.1188611 0.1192348
 0.1195724 0.1198532 0.120081 0.1202897 0.1205096 0.1207153 0.1208335 0.1208234 0.1207236 0.1206018
 0.1204799 0.1203227 0.1200785 0.1197206 0.1192826 0.1188835 0.118709 0.1189308 0.1196081 0.1206524
 0.1218946 0.1231908 0.1244547 0.1256078 0.126551 0.1272244 0.1276648 0.1279758 0.1282479 0.1285233
 0.1288119 0.1291101 0.1294074 0.1296947 0.129973 0.1302561 0.1305633 0.1309009 0.1312443 0.1315495
 0.1317971 0.1320219 0.1322895 0.1326351 0.1330275 0.1333999 0.1337231 0.1340315 0.1343626 0.1346903
 0.1349518 0.1351321 0.1352869 0.1354858 0.1357627 0.1361099 0.1364839 0.1368168 0.1370602 0.1372284
 0.1373836 0.1375756 0.1378087 0.138061 0.1383163 0.1385717 0.1388292 0.1390942 0.1393773 0.1396809
 0.1399769 0.140218 0.1403855 0.1405179 0.1406755 0.1408831 0.1411157 0.1413354 0.1415353 0.141748
 0.1420131 0.1423306 0.1426494 0.1429073 0.1430838 0.1432105 0.1433357 0.143488 0.1436677 0.1438634
 0.1440653 0.1442668 0.144463 0.1446557 0.1448554 0.1450707 0.1452966 0.1455185 0.1457269 0.1459254
 0.1461242 0.1463309 0.1465512 0.146796 0.1470764 0.1473839 0.1476817 0.1479291 0.1481126 0.1482498
 0.1483697 0.1484964 0.1486455 0.1488215 0.1490177 0.149222 0.1494251 0.1496238 0.1498202 0.1500175
 0.1502182 0.1504244 0.1506368 0.1508536 0.1510722 0.1512944 0.1515229 0.1517515 0.1519672 0.1521624
 0.1523425 0.1525211 0.1527116 0.1529173 0.1531247 0.1533152 0.1534872 0.1536605 0.1538532 0.1540605
 0.1542629 0.15445 0.1546305 0.1548205 0.1550265 0.1552405 0.1554508 0.1556522 0.1558463 0.1560382
 0.1562333 0.1564333 0.1566345 0.1568317 0.1570224 0.1572066 0.1573888 0.1575782 0.1577832 0.158003
 0.1582271 0.1584436 0.1586467 0.158838 0.1590243 0.1592111 0.1593994 0.1595893 0.1597834 0.159983
 0.1601853 0.1603855 0.1605806 0.1607741 0.1609775 0.1611995 0.1614346 0.161667 0.1618877 0.1621002
 0.16231 0.1625198 0.1627311 0.1629437 0.1631553 0.1633649 0.1635734 0.1637809 0.1639871 0.1641922
 0.164392 0.164578 0.1647472 0.1649074 0.1650704 0.1652404 0.1654135 0.1655864 0.1657648 0.165956
 0.1661567 0.1663571 0.166555 0.1667548 0.1669554 0.1671529 0.1673521 0.1675609 0.1677781 0.1679955
 0.1682069 0.1684109 0.1686119 0.168818 0.1690314 0.1692456 0.1694571 0.1696692 0.1698827 0.1700951
 0.1703067 0.170518 0.1707278 0.170938 0.1711527 0.1713677 0.1715767 0.1717812 0.1719848 0.1721853
 0.1723824 0.1725829 0.172791 0.1730043 0.173222 0.1734439 0.1736675 0.1738921 0.1741174 0.1743366
 0.1745428 0.17474 0.1749361 0.1751341 0.1753381 0.1755508 0.1757663 0.1759789 0.1761931 0.1764114
 0.1766284 0.1768415 0.1770509 0.1772426 0.1773728 0.1773269 0.176825 0.1753232 0.1719993 0.1659113
 0.1563723 0.1433855 0.1277928 0.1109733 0.09433966 0.07897544 0.06552841 0.05428594 0.04531064 0.038534
 0.03381862 0.03105197 0.03023852 0.03159501 0.03566211 0.04298633 0.05289994 0.0624343 0.06746934 0.06598453
 0.05999429 0.05371464 0.05005888 0.04922949 0.04997899 0.05124579 0.05269725 0.05453167 0.05708271 0.06043684
 0.06442199 0.06902823 0.07460827 0.0814248 0.08911556 0.09684999 0.1040474 0.1108303 0.1177417 0.1250924
 0.1326368 0.1398164 0.1462065 0.1517269 0.156552 0.160917 0.1649875 0.1688431 0.1725228 0.1760208
 0.1792097 0.1818141 0.1835461 0.1843217 0.1843601 0.1840635 0.1837855 0.1836922 0.1837975 0.1840692
 0.1844832 0.1850239 0.1856767 0.1864185 0.1872112 0.188016 0.1888148 0.1896024 0.1903674 0.1910938
 0.1917726 0.1924001 0.192973 0.1934904 0.1939548 0.1943728 0.1947573 0.1951227 0.1954763 0.1958184
 0.1961479 0.1964618 0.1967536 0.1970208 0.1972674 0.1974966 0.1977113 0.1979193 0.1981307 0.1983499
 0.1985736 0.1987944 0.1990044 0.1992013 0.1993917 0.1995829 0.1997767 0.1999748 0.2001823 0.2004004
 0.2006198 0.2008296 0.2010258 0.2012101 0.2013862 0.2015583 0.2017306 0.2019069 0.2020916 0.2022901
 0.2025042 0.2027285 0.2029507 0.2031574 0.2033482 0.2035401 0.2037488 0.2039689 0.2041831 0.204387
 0.2045912 0.2048032 0.2050201 0.2052363 0.205444 0.2056309 0.2057899 0.2059329 0.2060899 0.2062866
 0.2065198 0.2067584 0.2069754 0.2071709 0.2073613 0.2075551 0.2077472 0.2079289 0.2081016 0.2082877
 0.2085151 0.2087808 0.2090478 0.2092898 0.209516 0.2097444 0.2099788 0.2102188 0.2104574 0.2106658
 0.210815 0.2109259 0.2110749 0.2113322 0.211693 0.2120752 0.2123927 0.212629 0.2128295 0.2130437
 0.2132957 0.2135683 0.213777 0.2138253 0.2137509 0.2137608 0.2140417 0.2145693 0.2151579 0.2156542
 0.2160299 0.2163286 0.2165859 0.2167961 0.2169189 0.2169258 0.2168685 0.2169002 0.2171702 0.2176683
 0.2182185 0.2186572 0.2189622 0.2191897 0.2193807 0.2195562 0.2196826 0.2196159 0.2192471 0.2187751
 0.218663 0.2191884 0.2201297 0.2210056 0.2215578 0.2218852 0.2221678 0.2224427 0.2226601 0.2227325
 0.22243 0.2215085 0.2201907 0.2193045 0.2196018 0.2210016 0.2227249 0.2240718 0.2248625 0.2252699
 0.2255182 0.2257312 0.225837 0.225578 0.2248009 0.2238347 0.2234057 0.2239699 0.2252023 0.2263439
 0.2269753 0.227242 0.2274504 0.2277236 0.2279167 0.2275769 0.2262008 0.2239732 0.2221413 0.2221401
 0.2241911 0.2270374 0.2291874 0.2302012 0.2305822 0.2306802 0.2301738 0.2286494 0.2262218 0.2234848
 0.2213258 0.2208048 0.2224547 0.2254001 0.227853 0.2288755 0.2291701 0.2299102 0.2313381 0.2327653
 0.2334701 0.2332598 0.2323562 0.2309998 0.2293309 0.2277529 0.2271556 0.2282839 0.2308287 0.2335365
 0.2353663 0.2362799 0.2366967 0.2362691 0.233633 0.2280492 0.2214578 0.2179397 0.220109 0.2263769
 0.2326601 0.2363974 0.2379529 0.238694 0.2391623 0.2389227 0.2368148 0.2315879 0.2238658 0.2173792
 0.2164373 0.2216643 0.2292978 0.2347054 0.2355346 0.2319549 0.2258356 0.2201945 0.2179608 0.2201995
 0.2256524 0.2319824 0.2371701 0.2400734 0.2404309 0.2387516 0.2362631 0.2346083 0.2346593 0.2352237
 0.2339488 0.2302949 0.2264421 0.2240955 0.2218465 0.2177745 0.2136669 0.2138412 0.2195312 0.2268164
 0.2310281 0.2314864 0.230643 0.229616 0.2262686 0.2182778 0.2075252 0.2001773 0.2012965 0.2095906
 0.2185721 0.222917 0.2226943 0.2214526 0.2214807 0.221469 0.2183454 0.211288 0.2037691 0.2006439
 0.2029809 0.207101 0.2089249 0.2072257 0.2021962 0.1941353 0.1857816 0.1831556 0.1904843 0.2050266
 0.2192206 0.226907 0.2255676 0.2149681 0.1980633 0.1828424 0.1784408 0.1869475 0.2008683 0.2100234
 0.209622 0.2011119 0.1878461 0.1728052 0.1599861 0.1548097 0.160878 0.1763342 0.1938784 0.2043678
 0.2018618 0.1882732 0.1738428 0.1697706 0.1779815 0.1897622 0.1955157 0.1934756 0.1883355 0.1852233
 0.1867568 0.1925679 0.1996883 0.2053428 0.2091602 0.2100153 0.2030488 0.1855 0.1644099 0.1519806
 0.1529082 0.161975 0.1738096 0.187714 0.2013171 0.2072555 0.2014779 0.190925 0.1876261 0.1959234
 0.2087514 0.2162827 0.2156589 0.2115141 0.2088233 0.2076058 0.2054014 0.2030057 0.2046809 0.2122803
 0.2220224 0.2287138 0.2311526 0.2316718 0.2321755 0.2326871 0.2326864 0.2319841 0.2306445 0.229111
 0.2280735 0.2276942 0.2274564 0.2269504 0.2258486 0.2227027 0.2152605 0.2036303 0.1922946 0.1865645
 0.1869515 0.1895262 0.1917591 0.1939926 0.1939851 0.1853841 0.1661116 0.1452443 0.136414 0.1446392
 0.1625853 0.1789265 0.187023 0.1854855 0.1747871 0.1574735 0.1408769 0.134821 0.1436116 0.1619086
 0.1804349 0.1939704 0.2019576 0.2040761 0.1992505 0.1887937 0.1776759 0.1716865 0.1739053 0.1833443
 0.1952815 0.2024847 0.19875 0.1850631 0.1723132 0.1732641 0.1891725 0.2077059 0.2168071 0.2169017
 0.216014 0.2172881 0.2174309 0.2154699 0.2162559 0.2238083 0.2353998 0.2442453 0.2454562 0.237965
 0.2238984 0.2090684 0.2014553 0.2047741 0.214187 0.2215099 0.2230984 0.2193632 0.2099575 0.1958153
 0.1842613 0.1845989 0.1973378 0.2129902 0.2228478 0.2269049 0.2299034 0.233165 0.2329968 0.2263083
 0.2158028 0.2083084 0.2080225 0.2128382 0.2178864 0.2206653 0.2210487 0.2183601 0.2118011 0.2037678
 0.1998876 0.2041209 0.214631 0.2254692 0.2318756 0.2332512 0.2317576 0.2295055 0.227144 0.2240483
 0.2197229 0.2156087 0.2148006 0.2187468 0.2249357 0.2294721 0.2315391 0.2336702 0.2377796 0.2425309
 0.244967 0.2437372 0.2403741 0.2379442 0.2385804 0.2417959 0.2448567 0.2451162 0.2425303 0.2399343
 0.240434 0.2444461 0.2496422 0.2535967 0.2557633 0.2569734 0.2580117 0.2589262 0.2589886 0.2572441
 0.2538571 0.2508959 0.2508656 0.2542242 0.2589489 0.2626317 0.2644316 0.2649368 0.2648288 0.2641713
 0.2628071 0.2610061 0.2594854 0.2588361 0.2590918 0.2598785 0.260808 0.2616499 0.2622991 0.2627476
 0.2630552 0.2632723 0.2634147 0.2635115 0.2635939 0.263625 0.2635397 0.2633919 0.2633667 0.2635801
 0.2639289 0.2642003 0.2642625 0.2640662 0.2635332 0.2625846 0.2612782 0.2597923 0.2582298 0.2565492
 0.2548022 0.2533931 0.2529566 0.2538733 0.2559108 0.258367 0.2605494 0.2621163 0.2630679 0.2635634
 0.263784 0.2638709 0.2638946 0.2638581 0.2637401 0.2635337 0.2632497 0.2629027 0.2625073 0.2620881
 0.2616856 0.2613387 0.2610521 0.2607836 0.2604706 0.2600729 0.259594 0.2590704 0.2585354 0.2579811
 0.2573563 0.2566084 0.2557329 0.2547815 0.2538335 0.2529541 0.2521559 0.2513924 0.2506028 0.2497636
 0.2488734 0.2479027 0.2468142 0.2456531 0.2445627 0.2436676 0.2429601 0.2423276 0.2416612 0.2409085
 0.2400565 0.2391164 0.2381176 0.2370796 0.2359934 0.2348427 0.2336286 0.2323565 0.2310182 0.2296007
 0.2280998 0.2265205 0.2248843 0.2232278 0.2215611 0.2198164 0.2178561 0.2155338 0.2127375 0.2093938
 0.205475 0.2010335 0.1962232 0.1912668 0.1863807 0.1817235 0.1774049 0.1735191 0.170157 0.1673957
 0.1652913 0.1638778 0.1631697 0.1631695 0.1638693 0.1652368 0.1672008 0.1696533 0.1724557 0.1754422
 0.1784315 0.1812609 0.1838355 0.1861642 0.1883321 0.1904099 0.192388 0.1942105 0.1958474 0.1973006
 0.1985627 0.1996153 0.2004658 0.2011574 0.20174 0.2022476 0.2026975 0.2030938 0.2034297 0.2036958
 0.2038947 0.2040475 0.2041868 0.2043395 0.2045198 0.2047333 0.204986 0.2052924 0.2056756 0.2061458
 0.2066776 0.2072251 0.207766 0.2083162 0.2089041 0.2095485 0.2102663 0.2110847 0.2120396 0.2131589
 0.2144388 0.2158312 0.2172535 0.218608 0.2198011 0.2207693 0.2214966 0.221999 0.2222939 0.2223948
 0.2223269 0.2221233 0.2218096 0.2214065 0.2209386 0.2204263 0.2198744 0.2192785 0.2186387 0.2179604
 0.2172507 0.216523 0.2158025 0.2151156 0.2144684 0.2138427 0.2132187 0.2125972 0.2119924 0.2114099
 0.2108368 0.2102538 0.2096556 0.2090569 0.2084742 0.2078943 0.2072682 0.2065445 0.2057061 0.2047698
 0.203757 0.2026749 0.2015192 0.2002828 0.1989566 0.1975324 0.1960096 0.1944008 0.192728 0.1910052
 0.1892193 0.1873368 0.1853477 0.1833034 0.1812986 0.179413 0.1776761 0.1760747 0.1745788 0.1731631
 0.1718186 0.1705435 0.1693273 0.1681567 0.1670346 0.1659774 0.1649918 0.1640692 0.1632011 0.1623893
 0.1616418 0.1609688 0.1603808 0.1598859 0.1594836 0.1591655 0.1589291 0.1587892 0.158756 0.158802
 0.158866 0.1588922 0.1588539 0.1587517 0.1586117 0.1584737 0.1583643 0.1582848 0.1582214 0.1581417
 0.157982 0.1576611 0.1571038 0.1562491 0.155063 0.1535636 0.1518267 0.1499709 0.1481404 0.1464692
 0.1450389 0.1438786 0.1429859 0.1423172 0.1417854 0.1413254 0.1409538 0.1407455 0.1407614 0.1409855
 0.1412932 0.1415124 0.1415737 0.1415854 0.1417331 0.1421314 0.1427703 0.1435422 0.1443063 0.144966
 0.145489 0.1458609 0.1460736 0.1461594 0.1461741 0.1461429 0.1460606 0.1459206 0.1457122 0.1454238
 0.1450624 0.1446365 0.1441349 0.1435539 0.1429081 0.1421956 0.141399 0.1405086 0.1394968 0.1383275
 0.1370692 0.135948 0.1352293 0.1350722 0.1354753 0.1362845 0.1372845 0.1383388 0.1393673 0.1401768
 0.140526 0.1405071 0.1407081 0.1417818 0.1438295 0.1462878 0.1484251 0.1498636 0.1506062 0.1507442
 0.1503294 0.1494231 0.1480497 0.1461529 0.1437326 0.1409282 0.1378984 0.1347823 0.1317899 0.1291324
 0.126884 0.125037 0.123594 0.122613 0.1222298 0.122065 0.1202095 0.114216 0.1048606 0.09782794
 0.09892802 0.1075724 0.1171936 0.1221879 0.1223709 0.1206997 0.1192306 0.1182785 0.1177366 0.1177482
 0.1184427 0.1196695 0.1210337 0.1221417 0.1228472 0.1232052 0.1231728 0.1223667 0.120019 0.1152608
 0.1078186 0.09859616 0.08936019 0.08171847 0.07639296 0.07324129 0.07163186 0.07081675 0.07028279 0.06997684
 0.07020104 0.07125586 0.07319167 0.07586737 0.07909805 0.08261628 0.08598936 0.08880258 0.09095897 0.09265323
 0.09403932 0.09505783 0.09558891 0.09563117 0.09529325 0.09470742 0.09399249 0.0932238 0.09237001 0.09131128
 0.09002864 0.08876456 0.08786851 0.08746196 0.08736743 0.08736242 0.08736258 0.087357 0.08732039 0.08723423
 0.08712212 0.08706109 0.08717461 0.08754763 0.08811206 0.08866733 0.08903456 0.08917588 0.08917915 0.08911383
 0.08888375 0.08832322 0.08751056 0.08679777 0.08634637 0.08582218 0.08482085 0.08348252 0.08241098 0.08202486
 0.08220327 0.08253559 0.08270384 0.08261155 0.08236861 0.08226383 0.08257698 0.08323938 0.08377884 0.08376928
</values></Ydata></ScRf><Data_Parameters_AB><parameter name="DPF">1</parameter><parameter name="NPT">3497</parameter><parameter name="FXV">3996</parameter><parameter name="LXV">500</parameter><parameter name="CSF">1</parameter><parameter name="MXY">0.612723588943481</parameter><parameter name="MNY">-0.0852593332529068</parameter><parameter name="DAT">31/05/2022</parameter><parameter name="TIM">11:08:28.901 (GMT+2)</parameter><parameter name="DXU">WN</parameter></Data_Parameters_AB><AB__Qtest><MainReport name="Quality Test Report"><Header><Line><Legend>Test result ok/not ok [1/0]: </Legend><Value>1</Value></Line><Line><Legend>Method file: </Legend><Value>C:\Users\Public\Documents\Bruker\OPUS_8.2.28\QT\IRBT_v3_default.QT</Value></Line></Header><Matrix><Line><Legend></Legend><Legend>min</Legend><Legend>max</Legend><Legend>measured</Legend></Line><Line><Value>Absorption (X-Range 1):</Value><Value>0.400000</Value><Value>2.000000</Value><Value>0.638671</Value></Line><Line><Value>Noise (X-Range 4):</Value><Value></Value><Value>0.000300</Value><Value>0.000060</Value></Line><Line><Value>Signal/Noise (X-Range 2):</Value><Value>200.000000</Value><Value></Value><Value>318.238137</Value></Line><Line><Value>Signal/Noise (X-Range 3):</Value><Value>40.000000</Value><Value></Value><Value>95.126618</Value></Line><Line><Value>Water vapour (X-Range 5):</Value><Value></Value><Value>0.000300</Value><Value>0.000081</Value></Line><Line><Value>Signal/Water (X-Range 2):</Value><Value>100.000000</Value><Value></Value><Value>236.853667</Value></Line><Line><Value>Signal/Water (X-Range 3):</Value><Value>20.000000</Value><Value></Value><Value>70.799460</Value></Line><Line><Value>Fringes (X-Range 6):</Value><Value></Value><Value>0.000100</Value><Value>0.000087</Value></Line></Matrix></MainReport></AB__Qtest><Data_Parameters_ScSm><parameter name="DPF">1</parameter><parameter name="NPT">1814</parameter><parameter name="FXV">3996.33169228125</parameter><parameter name="LXV">499.541461535156</parameter><parameter name="CSF">1</parameter><parameter name="MXY">0.269529342651367</parameter><parameter name="MNY">0.0282020680606365</parameter><parameter name="DAT">31/05/2022</parameter><parameter name="TIM">11:08:28.901 (GMT+2)</parameter><parameter name="DXU">WN</parameter></Data_Parameters_ScSm><Data_Parameters_ScRf><parameter name="DPF">1</parameter><parameter name="NPT">1820</parameter><parameter name="FXV">4004.04661832813</parameter><parameter name="LXV">495.683998511719</parameter><parameter name="CSF">1</parameter><parameter name="MXY">0.264936834573746</parameter><parameter name="MNY">0.0302385166287422</parameter><parameter name="DAT">31/05/2022</parameter><parameter name="TIM">11:08:03.289 (GMT+2)</parameter><parameter name="DXU">WN</parameter></Data_Parameters_ScRf><Optic_Parameters_Rf><parameter name="APR">0</parameter><parameter name="APT">Open</parameter><parameter name="BMS">KBr</parameter><parameter name="DTC">RT-DLaTGS_IR-Biotyper [Microplate reader]</parameter><parameter name="HPF">0</parameter><parameter name="LPF">10.0</parameter><parameter name="LPV">4000</parameter><parameter name="PGR">0</parameter><parameter name="RCH">Module port</parameter><parameter name="RDX">0</parameter><parameter name="SRC">MIR</parameter><parameter name="VEL">10.0</parameter><parameter name="SON">Off</parameter></Optic_Parameters_Rf><Acquisition_Parameters_Rf><parameter name="ADT">1</parameter><parameter name="AQM">DD</parameter><parameter name="CFE">0</parameter><parameter name="COR">0</parameter><parameter name="DEL">0</parameter><parameter name="DLY">0</parameter><parameter name="HFW">8000</parameter><parameter name="LFW">0</parameter><parameter name="NSR">32</parameter><parameter name="PLF">AB</parameter><parameter name="RES">6</parameter><parameter name="RGN">-1</parameter><parameter name="STR">0</parameter><parameter name="TCL">MakeCompatibleScalar (0, {WSV=1.000000, ARV=0});</parameter><parameter name="TDL">37</parameter><parameter name="RPO">0</parameter></Acquisition_Parameters_Rf><FT_-_Parameters_Rf><parameter name="APF">B3</parameter><parameter name="HFQ">500</parameter><parameter name="LFQ">4000</parameter><parameter name="NLI">0</parameter><parameter name="PHR">24</parameter><parameter name="PHZ">ML</parameter><parameter name="SPZ">NO</parameter><parameter name="ZFF">1</parameter></FT_-_Parameters_Rf><Optic_Parameters_><parameter name="APR">0</parameter><parameter name="APT">Open</parameter><parameter name="BMS">KBr</parameter><parameter name="CHN">Module port</parameter><parameter name="DTC">RT-DLaTGS_IR-Biotyper [Microplate reader]</parameter><parameter name="HPF">0</parameter><parameter name="LPF">10.0</parameter><parameter name="LPV">4000</parameter><parameter name="PGN">0</parameter><parameter name="RDX">0</parameter><parameter name="SRC">MIR</parameter><parameter name="VEL">10.0</parameter><parameter name="SON">Off</parameter></Optic_Parameters_><FT_-_Parameters_><parameter name="APF">B3</parameter><parameter name="HFQ">500</parameter><parameter name="LFQ">4000</parameter><parameter name="NLI">0</parameter><parameter name="PHR">24</parameter><parameter name="PHZ">ML</parameter><parameter name="SPZ">NO</parameter><parameter name="ZFF">1</parameter></FT_-_Parameters_><Acquisition_Parameters_><parameter name="ADT">1</parameter><parameter name="AQM">DD</parameter><parameter name="CFE">0</parameter><parameter name="COR">0</parameter><parameter name="DEL">0</parameter><parameter name="DLY">0</parameter><parameter name="HFW">8000</parameter><parameter name="LFW">0</parameter><parameter name="NSS">32</parameter><parameter name="PLF">AB</parameter><parameter name="RES">6</parameter><parameter name="SOT">0</parameter><parameter name="TCL">MakeCompatibleScalar (0, {WSV=1.000000, ARV=0});</parameter><parameter name="TDL">37</parameter><parameter name="SPO">0</parameter><parameter name="SGN">-1</parameter></Acquisition_Parameters_><Instrument_Parameters_Rf><parameter name="HFL">15800.168544</parameter><parameter name="LFL">0</parameter><parameter name="LWN">15800.168544</parameter><parameter name="ABP">32197</parameter><parameter name="SSP">1</parameter><parameter name="ARG">2</parameter><parameter name="ASG">2</parameter><parameter name="ASS">32</parameter><parameter name="GFW">16</parameter><parameter name="GBW">16</parameter><parameter name="BFW">0</parameter><parameter name="BBW">0</parameter><parameter name="PKA">7268</parameter><parameter name="PKL">4996</parameter><parameter name="PRA">7449</parameter><parameter name="PRL">5001</parameter><parameter name="P2A">1</parameter><parameter name="P2L">1</parameter><parameter name="P2R">1</parameter><parameter name="P2K">1</parameter><parameter name="DAQ">0</parameter><parameter name="AG2">1</parameter><parameter name="SSM">1</parameter><parameter name="RSN">25413</parameter><parameter name="CRR">0</parameter><parameter name="SRT">1653995283.29</parameter><parameter name="DUR">19.6379852294922</parameter><parameter name="TSC">28.8</parameter><parameter name="MVD">0.261095345020294</parameter><parameter name="AN1">0.225798782722079</parameter><parameter name="AN2">0</parameter><parameter name="VSN">2.485 Apr  4 2017</parameter><parameter name="SRN">0085</parameter><parameter name="CAM">0</parameter><parameter name="INS">IR-Biotyper</parameter><parameter name="FOC">69</parameter><parameter name="RDY">1</parameter><parameter name="ARS">32</parameter></Instrument_Parameters_Rf><Sample_Parameters_><parameter name="BLD"></parameter><parameter name="CNM">Admin</parameter><parameter name="CPY"></parameter><parameter name="DPM"></parameter><parameter name="EXP">IRBT_v3_32Scans.XPM</parameter><parameter name="LCT"></parameter><parameter name="SFM">Microplate, HTS-XT</parameter><parameter name="SNM">220531-1021(v.3)_GFG29M (D_14_2)_H4_3e77cd38-57d9-4e3a-9650-392f28dc0466.0</parameter><parameter name="XPP">C:\Users\Public\Documents\Bruker\OPUS_8.2.28\XPM</parameter><parameter name="IST">OK</parameter><parameter name="CPG">1252</parameter><parameter name="UID">6e6517a4-b86b-49b1-bc0a-50802d596051</parameter></Sample_Parameters_><Instrument_Parameters_><parameter name="HFL">15800.168544</parameter><parameter name="LFL">0</parameter><parameter name="LWN">15800.168544</parameter><parameter name="ABP">32197</parameter><parameter name="SSP">1</parameter><parameter name="ASG">2</parameter><parameter name="ARG">2</parameter><parameter name="ASS">32</parameter><parameter name="GFW">16</parameter><parameter name="GBW">16</parameter><parameter name="BFW">0</parameter><parameter name="BBW">0</parameter><parameter name="PKA">6352</parameter><parameter name="PKL">4988</parameter><parameter name="PRA">6579</parameter><parameter name="PRL">4993</parameter><parameter name="P2A">1</parameter><parameter name="P2L">1</parameter><parameter name="P2R">1</parameter><parameter name="P2K">1</parameter><parameter name="DAQ">0</parameter><parameter name="AG2">1</parameter><parameter name="SSM">1</parameter><parameter name="RSN">13332</parameter><parameter name="CRR">0</parameter><parameter name="SRT">1653995308.902</parameter><parameter name="DUR">19.6379852294922</parameter><parameter name="TSC">28.8</parameter><parameter name="MVD">0.310616225004196</parameter><parameter name="AN1">0.225818152142652</parameter><parameter name="AN2">0</parameter><parameter name="VSN">2.485 Apr  4 2017</parameter><parameter name="SRN">0085</parameter><parameter name="CAM">0</parameter><parameter name="INS">IR-Biotyper</parameter><parameter name="FOC">69</parameter><parameter name="RDY">1</parameter></Instrument_Parameters_><History/></OPUSDataFile>
