<?xml version="1.0" encoding="UTF-8" ?>
<OPUSDataFile><AB><Ydata ylabel="Absorbance Units"><values byteorder="INTEL" format="FLOAT32" numvalues="3497"> -0.05887593 -0.05885385 -0.05882547 -0.05879042 -0.05875437 -0.05871758 -0.05867859 -0.05863686 -0.05858447 -0.058522
 -0.05844756 -0.05836452 -0.05828292 -0.05820705 -0.05815185 -0.05811957 -0.05812143 -0.05815472 -0.05822348 -0.05831599
 -0.05842849 -0.05853888 -0.05863569 -0.05870027 -0.05871995 -0.0587008 -0.05863802 -0.05856233 -0.05847735 -0.05840955
 -0.05836299 -0.05833572 -0.0583278 -0.05831985 -0.05831172 -0.05829591 -0.05827525 -0.05826304 -0.05826112 -0.05828452
 -0.0583299 -0.05839817 -0.05848238 -0.05857255 -0.0586612 -0.05873701 -0.05879279 -0.05881912 -0.05881323 -0.05876882
 -0.05869465 -0.05858971 -0.05847387 -0.05835067 -0.05824003 -0.05814591 -0.05807798 -0.05803787 -0.0580263 -0.0580434
 -0.0580827 -0.05814287 -0.05820517 -0.05826735 -0.05830485 -0.05831955 -0.05830276 -0.05826265 -0.05821364 -0.05816342
 -0.05813223 -0.05812057 -0.05813873 -0.05817879 -0.05824018 -0.05830825 -0.05837645 -0.0584294 -0.05845839 -0.05846176
 -0.05843414 -0.05839588 -0.0583482 -0.05831693 -0.05830533 -0.05832199 -0.05836762 -0.0584329 -0.0585169 -0.05860529
 -0.05869685 -0.05877832 -0.0588469 -0.05888463 -0.05889133 -0.05885366 -0.05878271 -0.0586889 -0.05858713 -0.058501
 -0.0584322 -0.05839434 -0.05836972 -0.05835449 -0.05832622 -0.05827191 -0.05819478 -0.05808831 -0.05798621 -0.05789217
 -0.05783813 -0.05782918 -0.05786473 -0.05794518 -0.05804024 -0.05814835 -0.05824073 -0.0583184 -0.05837314 -0.05840712
 -0.05842419 -0.05842487 -0.05841184 -0.05838611 -0.05834866 -0.05830554 -0.05826345 -0.05822894 -0.05821212 -0.05820743
 -0.05821685 -0.05822584 -0.05822698 -0.05822076 -0.05820154 -0.05819656 -0.05820833 -0.05826733 -0.05837913 -0.05853666
 -0.05874044 -0.05890328 -0.05902065 -0.059 -0.05885587 -0.05863605 -0.05835776 -0.05811405 -0.05790316 -0.0577671
 -0.05769752 -0.05770262 -0.05776475 -0.05787146 -0.0579938 -0.05810404 -0.05818438 -0.05821188 -0.05820045 -0.05814791
 -0.05807861 -0.05799938 -0.05792061 -0.05784455 -0.05777941 -0.05772553 -0.05769831 -0.05769872 -0.05773449 -0.05780471
 -0.05789678 -0.05800753 -0.05811061 -0.05820354 -0.05826185 -0.05828747 -0.0582712 -0.05822013 -0.05814059 -0.05804271
 -0.0579397 -0.05784215 -0.0577629 -0.0577084 -0.05768707 -0.0576962 -0.05773903 -0.05780168 -0.0578832 -0.05796215
 -0.05803508 -0.05808547 -0.05811109 -0.05810365 -0.0580625 -0.05798499 -0.05787165 -0.05773025 -0.05756333 -0.05739101
 -0.05721639 -0.0570622 -0.0569297 -0.05683481 -0.05677403 -0.05675094 -0.056755 -0.05677662 -0.05680263 -0.05681697
 -0.05681818 -0.05679703 -0.0567705 -0.05674229 -0.05672942 -0.05674005 -0.05676813 -0.05681571 -0.056862 -0.05690448
 -0.0569352 -0.05695333 -0.05696842 -0.05698097 -0.05700131 -0.05702827 -0.05705949 -0.05709245 -0.05711536 -0.05712823
 -0.05712421 -0.05710662 -0.05707771 -0.05704156 -0.05700308 -0.0569677 -0.05693986 -0.05692871 -0.05694049 -0.05698173
 -0.05705974 -0.05716329 -0.05729577 -0.05742051 -0.0575327 -0.05759779 -0.05760935 -0.0575736 -0.05749026 -0.05738286
 -0.05725206 -0.05710816 -0.05695267 -0.05680002 -0.05665422 -0.05653971 -0.05645784 -0.05642703 -0.0564402 -0.05649819
 -0.05658052 -0.05666249 -0.05672865 -0.05675106 -0.05674407 -0.05670559 -0.05665991 -0.05661824 -0.05658842 -0.05657775
 -0.05657216 -0.05657163 -0.05655404 -0.05651585 -0.05645486 -0.05637019 -0.05628779 -0.05620926 -0.0561655 -0.05615564
 -0.0561915 -0.05626547 -0.05635634 -0.05645116 -0.05650105 -0.05650868 -0.05644893 -0.05634922 -0.05623504 -0.05612432
 -0.05604671 -0.05599248 -0.05596807 -0.05594763 -0.05592107 -0.05587475 -0.05579882 -0.05570942 -0.05560667 -0.05551414
 -0.05543591 -0.05537121 -0.05532071 -0.05525825 -0.05518311 -0.05507993 -0.05495349 -0.05483203 -0.05471927 -0.05464846
 -0.05461286 -0.05461111 -0.05463666 -0.05467633 -0.05472825 -0.05478712 -0.05484579 -0.05489967 -0.05493272 -0.05493283
 -0.05489456 -0.05480855 -0.05469252 -0.05454917 -0.05439471 -0.05423362 -0.05406771 -0.0538978 -0.0537224 -0.05354139
 -0.05335632 -0.05316758 -0.05298226 -0.05280207 -0.05264293 -0.05250636 -0.0524087 -0.05234694 -0.05232286 -0.0523294
 -0.0523544 -0.052393 -0.05243609 -0.05247527 -0.05250519 -0.05250362 -0.05245458 -0.05234754 -0.05216589 -0.05194303
 -0.05168246 -0.05142435 -0.05117775 -0.0509606 -0.05077678 -0.05062725 -0.05051265 -0.0504195 -0.05034687 -0.05027648
 -0.05020843 -0.05013579 -0.05005845 -0.04997503 -0.04987957 -0.04975471 -0.04959638 -0.04938243 -0.04912961 -0.04884806
 -0.04855995 -0.0482905 -0.04804717 -0.04784208 -0.0476751 -0.04755072 -0.04745958 -0.04740355 -0.04735611 -0.04731388
 -0.04724917 -0.0471576 -0.04702976 -0.04686437 -0.0466686 -0.04644318 -0.04620351 -0.04595057 -0.04569925 -0.04544933
 -0.04520747 -0.04497365 -0.04475011 -0.04453956 -0.04434827 -0.04417789 -0.04403603 -0.0439144 -0.04381058 -0.04370985
 -0.04360169 -0.04347939 -0.04333719 -0.04317465 -0.04299204 -0.04278194 -0.04254234 -0.04227147 -0.04196636 -0.04165459
 -0.04133748 -0.04104969 -0.04079182 -0.04056798 -0.04037583 -0.04019851 -0.04003546 -0.03987506 -0.0397194 -0.03956865
 -0.0394241 -0.03928934 -0.03916204 -0.03904225 -0.03892288 -0.03879959 -0.03866039 -0.03849649 -0.03830055 -0.03806394
 -0.03779785 -0.03750099 -0.0371977 -0.03689196 -0.03660369 -0.03633619 -0.03609735 -0.0358883 -0.03570328 -0.03554162
 -0.03538819 -0.03524185 -0.0350872 -0.03492352 -0.03473903 -0.03453469 -0.03430485 -0.03405611 -0.03379658 -0.03353673
 -0.03329631 -0.0330746 -0.03288271 -0.03270177 -0.03252326 -0.03233191 -0.03211422 -0.03188223 -0.03163328 -0.03139708
 -0.03118012 -0.0309958 -0.03084885 -0.03072172 -0.03061398 -0.03049636 -0.03036787 -0.03021429 -0.03003757 -0.02984724
 -0.02964615 -0.02945325 -0.02926726 -0.02909613 -0.02893295 -0.02876854 -0.02859599 -0.02840024 -0.02818308 -0.02793774
 -0.02767754 -0.02740739 -0.02714339 -0.02689494 -0.02666706 -0.02646525 -0.02627985 -0.02611083 -0.02594355 -0.025776
 -0.02560007 -0.02541482 -0.0252205 -0.02501734 -0.02481152 -0.02460373 -0.02440261 -0.02420805 -0.02402475 -0.02385085
 -0.02368377 -0.02352084 -0.02335502 -0.02318624 -0.02301043 -0.02283125 -0.02265048 -0.02247191 -0.02229927 -0.0221321
 -0.02197165 -0.02181464 -0.02165965 -0.02150778 -0.02135835 -0.0212173 -0.02108563 -0.0209645 -0.02085451 -0.02074406
 -0.02063233 -0.02050072 -0.02034919 -0.02016792 -0.01996055 -0.01973721 -0.01950419 -0.01928581 -0.01908429 -0.01891841
 -0.01878013 -0.0186682 -0.01856904 -0.01846804 -0.01835984 -0.0182339 -0.01809858 -0.01795421 -0.01781178 -0.0176756
 -0.0175484 -0.01743235 -0.01732228 -0.01721834 -0.01711079 -0.01699895 -0.01687394 -0.01673558 -0.01658474 -0.01642254
 -0.01625998 -0.01609691 -0.01593966 -0.0157846 -0.01562371 -0.01545493 -0.01526772 -0.01506866 -0.01486028 -0.01465536
 -0.01446741 -0.01430442 -0.01417843 -0.01408306 -0.01402115 -0.01397461 -0.01393926 -0.01389816 -0.01384645 -0.01377849
 -0.01369222 -0.01359244 -0.01347916 -0.01336065 -0.01323724 -0.0131138 -0.0129899 -0.01286371 -0.01273437 -0.01259616
 -0.01245011 -0.01229498 -0.01213533 -0.01197935 -0.01183185 -0.01170445 -0.01159569 -0.01151054 -0.01143944 -0.01137791
 -0.01131714 -0.01125024 -0.01117937 -0.01110256 -0.01102929 -0.01096211 -0.01090217 -0.0108511 -0.01079726 -0.01073978
 -0.01067135 -0.01059196 -0.01051161 -0.0104312 -0.01036427 -0.01030879 -0.01026232 -0.01022136 -0.01017237 -0.01011713
 -0.01005114 -0.009981594 -0.009917702 -0.009862501 -0.009825418 -0.009797422 -0.009777925 -0.009749655 -0.009704188 -0.009630906
 -0.009521598 -0.009386188 -0.009222262 -0.009058719 -0.00889846 -0.0087686 -0.008672139 -0.008614338 -0.008595105 -0.008598546
 -0.008623326 -0.008650111 -0.008679386 -0.008703356 -0.00872354 -0.008741605 -0.008756176 -0.008766239 -0.008767421 -0.008751767
 -0.008719726 -0.008665765 -0.008601185 -0.008531004 -0.008467648 -0.00842094 -0.008387188 -0.008370228 -0.008350577 -0.008324616
 -0.008278547 -0.008208261 -0.008121895 -0.008018974 -0.007923305 -0.007836086 -0.007778701 -0.007750722 -0.007757553 -0.007795312
 -0.007848809 -0.007912118 -0.007957997 -0.007985009 -0.007973826 -0.007933956 -0.007868593 -0.007793554 -0.007727172 -0.007676536
 -0.007655593 -0.00765434 -0.007673122 -0.007696155 -0.00771725 -0.007731468 -0.007735815 -0.007734557 -0.00772878 -0.007714492
 -0.00769218 -0.007643614 -0.007567912 -0.007449435 -0.007290047 -0.007100809 -0.006888183 -0.006690813 -0.006513497 -0.006394963
 -0.006328458 -0.006322311 -0.006358162 -0.006412959 -0.00647147 -0.006506002 -0.006520049 -0.006503974 -0.006476843 -0.006444696
 -0.006424874 -0.006425326 -0.006451571 -0.006507361 -0.006587258 -0.006692083 -0.006807395 -0.006932469 -0.007048834 -0.007155572
 -0.007240314 -0.007303386 -0.007343657 -0.007362209 -0.007363855 -0.007349425 -0.00732336 -0.00728752 -0.007246364 -0.007205582
 -0.007173611 -0.007160202 -0.007178068 -0.007235013 -0.007342774 -0.007497045 -0.00770256 -0.007938895 -0.008202966 -0.008467115
 -0.008725377 -0.00895568 -0.009153749 -0.009309136 -0.009419929 -0.009491359 -0.009523892 -0.009541411 -0.009545811 -0.009567135
 -0.009603931 -0.009665948 -0.009746837 -0.009829894 -0.009912896 -0.009979355 -0.01003884 -0.01009786 -0.01016746 -0.01026578
 -0.01038666 -0.01053661 -0.01069013 -0.01083728 -0.01095579 -0.01103213 -0.01107196 -0.0110697 -0.01106003 -0.0110458
 -0.0110654 -0.01112331 -0.01123047 -0.01138726 -0.01156918 -0.01177368 -0.01196339 -0.01213828 -0.01227757 -0.01238549
 -0.01246466 -0.01251977 -0.01256235 -0.0125953 -0.01262762 -0.01266159 -0.01270311 -0.01275271 -0.01281378 -0.01288183
 -0.01295651 -0.01303002 -0.0130992 -0.01316085 -0.01321252 -0.01325995 -0.01330303 -0.01335218 -0.01340836 -0.01347876
 -0.01356375 -0.01366214 -0.01377321 -0.01388819 -0.01400615 -0.01411687 -0.01422095 -0.0143143 -0.0143997 -0.0144813
 -0.01456153 -0.01464683 -0.01473606 -0.014831 -0.01492827 -0.01502537 -0.01512178 -0.01521518 -0.01531126 -0.01541124
 -0.0155208 -0.01564295 -0.0157726 -0.01591073 -0.01604139 -0.0161632 -0.01626483 -0.01634572 -0.01641244 -0.01646612
 -0.01652287 -0.0165821 -0.01664928 -0.01672189 -0.01679299 -0.01686345 -0.01693028 -0.01699908 -0.0170783 -0.01716949
 -0.01728065 -0.0174019 -0.01753062 -0.0176511 -0.01775421 -0.01783152 -0.01787619 -0.01789331 -0.01788063 -0.01785626
 -0.01782119 -0.01780036 -0.01779609 -0.01782681 -0.01789354 -0.01799494 -0.01812944 -0.01827755 -0.01843714 -0.0185858
 -0.01872391 -0.01883972 -0.01893738 -0.01901937 -0.01909238 -0.01916824 -0.01925119 -0.0193527 -0.01946705 -0.01959623
 -0.01972541 -0.01984734 -0.019952 -0.02003185 -0.02009307 -0.02013463 -0.02016963 -0.02020082 -0.02023015 -0.02025877
 -0.02027571 -0.02028043 -0.02026692 -0.02023645 -0.02020296 -0.02016953 -0.02016217 -0.02018074 -0.02024087 -0.02033545
 -0.02045738 -0.02059639 -0.02073186 -0.02086017 -0.02096707 -0.02105962 -0.02113803 -0.02121113 -0.02128524 -0.02135973
 -0.02143656 -0.02151013 -0.02157837 -0.0216436 -0.02170541 -0.02177066 -0.02184073 -0.02190871 -0.02197426 -0.02201655
 -0.02203538 -0.02202143 -0.02197858 -0.02192467 -0.02186413 -0.02182362 -0.02180141 -0.02180817 -0.02183648 -0.02187903
 -0.02192994 -0.02197811 -0.02202544 -0.02206773 -0.02211508 -0.02217082 -0.02224607 -0.02234773 -0.02247294 -0.02262577
 -0.02278229 -0.02294064 -0.02307198 -0.02317231 -0.02323699 -0.02326552 -0.02328658 -0.0233023 -0.02334952 -0.02342657
 -0.0235444 -0.02369502 -0.02385622 -0.02402033 -0.02415624 -0.0242654 -0.02433404 -0.02437246 -0.0243862 -0.02438651
 -0.02438386 -0.02438568 -0.02439881 -0.0244262 -0.02447134 -0.02453074 -0.02460535 -0.02468521 -0.02476873 -0.02484968
 -0.02492655 -0.02500651 -0.02508991 -0.02518695 -0.02529701 -0.02541405 -0.02553548 -0.02564117 -0.02573175 -0.0257968
 -0.025843 -0.0258812 -0.02591701 -0.02596662 -0.02602689 -0.02610182 -0.02618332 -0.02626548 -0.02634494 -0.02641761
 -0.02648492 -0.0265474 -0.02660285 -0.0266519 -0.02668658 -0.02670545 -0.02670428 -0.02668165 -0.02664664 -0.0265996
 -0.02656258 -0.02653674 -0.0265439 -0.02658271 -0.02665741 -0.02676247 -0.02688045 -0.02700573 -0.02711491 -0.02720792
 -0.02727331 -0.02731525 -0.02733446 -0.027334 -0.0273165 -0.02728424 -0.02723801 -0.02718354 -0.02712231 -0.02706208
 -0.02700537 -0.02695551 -0.0269141 -0.02687744 -0.02684594 -0.02680843 -0.02676436 -0.02669755 -0.0266075 -0.02648313
 -0.02632649 -0.02614394 -0.02593996 -0.02573499 -0.02553089 -0.02534379 -0.02517009 -0.02501142 -0.02486253 -0.0247173
 -0.02457382 -0.02442825 -0.02428107 -0.02413189 -0.02398009 -0.02382565 -0.02366676 -0.02350268 -0.02333364 -0.023159
 -0.02298351 -0.02280722 -0.0226385 -0.02247785 -0.02233265 -0.02220299 -0.02209102 -0.02199625 -0.02191678 -0.02185185
 -0.02179853 -0.02175431 -0.02171294 -0.02166894 -0.02160995 -0.02153267 -0.02142536 -0.02129608 -0.02114441 -0.02098816
 -0.02083763 -0.02070353 -0.02059595 -0.0205038 -0.02042896 -0.02034568 -0.02025017 -0.02012198 -0.01995756 -0.01975678
 -0.01951916 -0.01926688 -0.01900195 -0.01875935 -0.01854051 -0.01837356 -0.01825536 -0.01818992 -0.01817097 -0.01818339
 -0.01822627 -0.0182885 -0.01837866 -0.01850197 -0.01866798 -0.01888804 -0.01916238 -0.01949579 -0.01988078 -0.02031678
 -0.02079256 -0.02130756 -0.02184116 -0.02239242 -0.02292748 -0.02344326 -0.02390836 -0.02432043 -0.02467189 -0.02496379
 -0.02521422 -0.02542554 -0.02562263 -0.02580593 -0.02599047 -0.02617508 -0.0263642 -0.02655677 -0.02675322 -0.02695188
 -0.02715206 -0.02734893 -0.02753951 -0.02771608 -0.02787363 -0.02800632 -0.02810966 -0.0281853 -0.02823162 -0.02825731
 -0.02826339 -0.0282584 -0.02824375 -0.0282202 -0.02818796 -0.0281413 -0.02808026 -0.0280046 -0.02791642 -0.02782938
 -0.02774673 -0.02768925 -0.02765698 -0.0276621 -0.02769928 -0.02776624 -0.02785377 -0.02795088 -0.02804724 -0.02813062
 -0.02819422 -0.02822903 -0.02823854 -0.02821996 -0.02818656 -0.0281409 -0.02809509 -0.02805196 -0.02801634 -0.02798855
 -0.02797635 -0.02797994 -0.02802035 -0.02809891 -0.02824103 -0.02844612 -0.02872443 -0.02907031 -0.02946902 -0.02991039
 -0.0303616 -0.03081302 -0.03123097 -0.03161469 -0.03194701 -0.03223897 -0.03249314 -0.03272306 -0.03293864 -0.03314411
 -0.0333447 -0.03353593 -0.0337174 -0.03388589 -0.03404031 -0.03418198 -0.03431096 -0.03442837 -0.03453434 -0.03462809
 -0.03470974 -0.03478128 -0.03484356 -0.03490386 -0.03496281 -0.03502769 -0.03509658 -0.03516892 -0.03524093 -0.03530483
 -0.0353599 -0.03540032 -0.03543187 -0.03545646 -0.03548262 -0.03551679 -0.03556141 -0.03562072 -0.03568769 -0.03576251
 -0.03583236 -0.0358949 -0.03594128 -0.03596938 -0.03598359 -0.0359838 -0.03598466 -0.03598675 -0.03600077 -0.03602576
 -0.03605982 -0.03610153 -0.03614348 -0.0361862 -0.03622737 -0.03626812 -0.03631002 -0.0363524 -0.03639526 -0.03643718
 -0.03647672 -0.03651351 -0.0365468 -0.036577 -0.03660401 -0.03662864 -0.03665068 -0.03667291 -0.03669555 -0.0367224
 -0.03675406 -0.03679153 -0.03683503 -0.03688072 -0.03692827 -0.03697124 -0.03700935 -0.037037 -0.03705488 -0.0370624
 -0.03706157 -0.03705733 -0.03705185 -0.03705186 -0.03705739 -0.03707172 -0.03709253 -0.0371194 -0.03714869 -0.03717877
 -0.03720468 -0.03722436 -0.03723293 -0.03722762 -0.03721054 -0.03718007 -0.03714956 -0.03711991 -0.03710628 -0.03711005
 -0.03713216 -0.03717203 -0.03721498 -0.03726028 -0.03729484 -0.03732069 -0.03733934 -0.03735367 -0.03737338 -0.03739747
 -0.03742987 -0.03746523 -0.03749807 -0.03752444 -0.03753742 -0.03753964 -0.03752916 -0.03751466 -0.03749887 -0.03749003
 -0.03749158 -0.03750569 -0.03753393 -0.03757258 -0.03762171 -0.03767503 -0.03773217 -0.03778641 -0.03783739 -0.03787842
 -0.03790949 -0.03792687 -0.03793208 -0.03792908 -0.03792082 -0.03791793 -0.03792127 -0.0379389 -0.0379665 -0.03800226
 -0.03804043 -0.03807371 -0.03810298 -0.03812531 -0.03814745 -0.03817246 -0.03820189 -0.03823843 -0.03827381 -0.03830686
 -0.03833096 -0.03834431 -0.03835228 -0.03835501 -0.0383613 -0.03837128 -0.03838504 -0.03840176 -0.03841419 -0.03842248
 -0.03842303 -0.0384175 -0.03840863 -0.03839808 -0.03839044 -0.03838634 -0.03838873 -0.03839698 -0.03841207 -0.03843153
 -0.03845428 -0.03847776 -0.03850013 -0.03852186 -0.03854223 -0.03856459 -0.03858975 -0.0386184 -0.03865132 -0.03868208
 -0.0387104 -0.03872729 -0.03873258 -0.03872526 -0.03870673 -0.03868815 -0.03867107 -0.03866943 -0.03868147 -0.03871053
 -0.03875155 -0.03879636 -0.03884098 -0.03887565 -0.03890133 -0.03891468 -0.03892009 -0.03891918 -0.03891608 -0.03891328
 -0.03891207 -0.03891347 -0.03891713 -0.03892295 -0.03893179 -0.03894363 -0.03896072 -0.03898336 -0.03901029 -0.03904125
 -0.03906895 -0.03909292 -0.03910534 -0.03910733 -0.03909925 -0.03908366 -0.03906844 -0.03905473 -0.03904925 -0.03905008
 -0.03905761 -0.03906912 -0.03908164 -0.03909506 -0.03910796 -0.03912239 -0.03913944 -0.03915861 -0.03918085 -0.03920109
 -0.03921871 -0.03922823 -0.0392285 -0.03921998 -0.0392024 -0.03918231 -0.0391601 -0.03914374 -0.03913332 -0.03913318
 -0.03914237 -0.0391595 -0.03918239 -0.03920402 -0.03922281 -0.03923142 -0.03923161 -0.03922157 -0.03920688 -0.0391919
 -0.03918188 -0.03918231 -0.03919342 -0.03921777 -0.03924992 -0.03928963 -0.03932826 -0.03936417 -0.03939053 -0.03940592
 -0.03940965 -0.03940135 -0.03938631 -0.03936483 -0.03934325 -0.03932161 -0.03930277 -0.0392866 -0.03927391 -0.03926467
 -0.0392595 -0.03925775 -0.03925886 -0.03926098 -0.03926127 -0.03925846 -0.03925001 -0.03923624 -0.0392162 -0.03919205
 -0.03916397 -0.03913593 -0.03910861 -0.03908771 -0.03907456 -0.0390727 -0.03908326 -0.03910353 -0.03913361 -0.03916653
 -0.03920196 -0.03923462 -0.03926446 -0.03928897 -0.03930811 -0.03932015 -0.0393255 -0.03932388 -0.03931709 -0.03930864
 -0.03929981 -0.03929482 -0.03929153 -0.03929022 -0.03928608 -0.03927561 -0.03925683 -0.03922666 -0.03918982 -0.03914635
 -0.03910422 -0.03906531 -0.03903392 -0.03901137 -0.03899516 -0.03898532 -0.03897716 -0.03897055 -0.03896552 -0.03896253
 -0.03896647 -0.03897732 -0.03899855 -0.03902803 -0.03906172 -0.03909628 -0.03912254 -0.03913931 -0.03913983 -0.03912775
 -0.03910311 -0.03907303 -0.03904206 -0.03901602 -0.03899927 -0.03899286 -0.03899873 -0.03901328 -0.03903644 -0.03906322
 -0.03909314 -0.03912099 -0.0391464 -0.03916432 -0.0391745 -0.03917247 -0.03915851 -0.0391328 -0.03909674 -0.03905687
 -0.03901514 -0.03898129 -0.03895559 -0.03894399 -0.03894411 -0.03895553 -0.03897448 -0.03899708 -0.03902047 -0.03904149
 -0.03905875 -0.03907064 -0.0390774 -0.03907865 -0.03907548 -0.03906811 -0.03905693 -0.03904209 -0.03902308 -0.03899972
 -0.03897422 -0.03894679 -0.03892494 -0.03890903 -0.03890629 -0.03891563 -0.03893595 -0.03896456 -0.03899243 -0.03901786
 -0.03903235 -0.03903684 -0.03902858 -0.03901042 -0.03898367 -0.03895249 -0.03891938 -0.03889003 -0.03886758 -0.03885626
 -0.0388592 -0.03887328 -0.03889963 -0.0389273 -0.03895512 -0.03897328 -0.03898054 -0.03897668 -0.03896173 -0.03894284
 -0.03892034 -0.03890068 -0.03888347 -0.03887023 -0.03886022 -0.03885195 -0.0388448 -0.03883667 -0.03882729 -0.03881522
 -0.03880076 -0.03878337 -0.0387644 -0.03874427 -0.03872532 -0.03870852 -0.03869639 -0.03869017 -0.03869033 -0.03869784
 -0.03870882 -0.0387233 -0.0387341 -0.03874066 -0.03873752 -0.03872445 -0.03870157 -0.03866944 -0.03863418 -0.03859656
 -0.03856423 -0.03853674 -0.0385174 -0.03850385 -0.03849252 -0.03848176 -0.0384666 -0.03844908 -0.038429 -0.03841015
 -0.03839604 -0.03838629 -0.03838272 -0.03837993 -0.0383765 -0.03836835 -0.03835361 -0.03833423 -0.03830985 -0.0382858
 -0.03826251 -0.03824346 -0.03822883 -0.03821909 -0.03821408 -0.03821192 -0.03821255 -0.0382144 -0.03821795 -0.03822367
 -0.03823289 -0.03824867 -0.03827224 -0.03830736 -0.03835282 -0.03840949 -0.03847374 -0.03854264 -0.03861567 -0.03868915
 -0.03877395 -0.03887107 -0.03899799 -0.03915998 -0.03936205 -0.0396083 -0.03987773 -0.0401701 -0.04044818 -0.04070991
 -0.04091569 -0.04106417 -0.04112526 -0.04110239 -0.04099542 -0.04081405 -0.04059073 -0.04033141 -0.04006398 -0.03979278
 -0.03953272 -0.03929599 -0.03910197 -0.03895533 -0.03886935 -0.03883123 -0.03884051 -0.0388763 -0.03893328 -0.03898844
 -0.03903578 -0.03905939 -0.03905403 -0.03902871 -0.03898288 -0.03894062 -0.03890304 -0.03887257 -0.03884796 -0.03881415
 -0.03877212 -0.03871894 -0.03865854 -0.03860363 -0.03855482 -0.03852158 -0.03849815 -0.03848049 -0.03846135 -0.03843058
 -0.03838599 -0.0383208 -0.03824179 -0.03814881 -0.03805484 -0.03796491 -0.03788516 -0.03781961 -0.03776066 -0.03770816
 -0.03765153 -0.03758933 -0.03752183 -0.03744902 -0.03737967 -0.03731393 -0.03725682 -0.03720721 -0.03716145 -0.03711835
 -0.03707152 -0.03702171 -0.0369667 -0.0369096 -0.03685405 -0.03680318 -0.03676279 -0.03673146 -0.03671144 -0.03669582
 -0.03668159 -0.03666382 -0.03663887 -0.03661007 -0.03657692 -0.03654648 -0.03652016 -0.03649937 -0.03648465 -0.0364715
 -0.03645972 -0.036446 -0.03643052 -0.03641454 -0.03639838 -0.0363849 -0.03637364 -0.03636481 -0.03635714 -0.0363478
 -0.03633596 -0.03631848 -0.03629681 -0.03627051 -0.03624372 -0.03621924 -0.03620082 -0.036192 -0.03619143 -0.03620072
 -0.03621195 -0.03622404 -0.03622796 -0.0362217 -0.03620316 -0.03617151 -0.03613313 -0.03608833 -0.03604512 -0.0360036
 -0.03596723 -0.03593549 -0.03590722 -0.03588182 -0.03585685 -0.03583168 -0.03580382 -0.03577249 -0.03573524 -0.03569199
 -0.03564107 -0.03558467 -0.03552253 -0.03546112 -0.03540271 -0.03535594 -0.03532508 -0.03531263 -0.03532191 -0.03534222
 -0.0353734 -0.03539832 -0.035415 -0.03541649 -0.03540229 -0.03538127 -0.03535421 -0.03533376 -0.03531928 -0.03531363
 -0.03531463 -0.03531607 -0.03531644 -0.03530892 -0.03529369 -0.03526761 -0.03523265 -0.03518912 -0.03514097 -0.03509075
 -0.03504328 -0.03500212 -0.03496893 -0.034946 -0.03492954 -0.03491936 -0.03491028 -0.03490115 -0.03489086 -0.03487898
 -0.03486868 -0.03486012 -0.03485421 -0.03485057 -0.03484394 -0.03483374 -0.03481298 -0.03478301 -0.03474424 -0.03470009
 -0.03465938 -0.0346232 -0.03459891 -0.03458173 -0.03456956 -0.03455665 -0.03453621 -0.03451009 -0.03447594 -0.03444225
 -0.03441203 -0.03438953 -0.03437739 -0.03437153 -0.03437187 -0.03437306 -0.03437443 -0.03437427 -0.03437243 -0.03436881
 -0.03436341 -0.03435604 -0.03434685 -0.03433676 -0.03432564 -0.03431373 -0.03430045 -0.03428422 -0.03426543 -0.03424356
 -0.03422033 -0.03419793 -0.03417641 -0.03415728 -0.03413786 -0.03411679 -0.03409311 -0.03406532 -0.03403693 -0.03400843
 -0.03398337 -0.03396272 -0.03394608 -0.03393355 -0.03392362 -0.03391619 -0.03391172 -0.03391011 -0.03391063 -0.03391258
 -0.03391121 -0.03390575 -0.03389035 -0.03386559 -0.03382922 -0.03378394 -0.03373251 -0.03367941 -0.03363089 -0.03359023
 -0.03356341 -0.0335475 -0.03354408 -0.03354409 -0.0335443 -0.03353899 -0.03352463 -0.03350672 -0.03348514 -0.033469
 -0.03345969 -0.03345679 -0.03346042 -0.03346054 -0.03345693 -0.03344369 -0.03342204 -0.0333968 -0.03336905 -0.03334616
 -0.0333267 -0.03331106 -0.03329697 -0.03328005 -0.03326081 -0.03323749 -0.0332129 -0.03318906 -0.033167 -0.0331484
 -0.03313141 -0.03311576 -0.03309964 -0.0330823 -0.03306396 -0.03304453 -0.0330243 -0.03300333 -0.03298135 -0.03295834
 -0.03293455 -0.03291005 -0.03288587 -0.03286207 -0.03283976 -0.03281883 -0.0327997 -0.0327817 -0.03276353 -0.0327442
 -0.03272094 -0.0326946 -0.03266416 -0.0326336 -0.03260572 -0.03258396 -0.03257216 -0.03256794 -0.03257237 -0.03257804
 -0.03258327 -0.0325825 -0.03257398 -0.03255865 -0.03253605 -0.03251202 -0.03248687 -0.03246569 -0.03244843 -0.03243467
 -0.03242372 -0.03241046 -0.03239494 -0.03237403 -0.03234948 -0.03232418 -0.03229966 -0.03228057 -0.03226581 -0.03225654
 -0.03224942 -0.03224206 -0.03223196 -0.03221641 -0.03219649 -0.03217113 -0.03214555 -0.03212054 -0.03210206 -0.03209176
 -0.03208965 -0.03209646 -0.03210472 -0.03211404 -0.03211544 -0.03210872 -0.03209031 -0.03206082 -0.03202245 -0.03197619
 -0.03192689 -0.03187568 -0.0318278 -0.03178393 -0.03174795 -0.03171917 -0.03169859 -0.03168438 -0.03167531 -0.03167001
 -0.03166728 -0.03166657 -0.03166783 -0.03166905 -0.03167051 -0.03166635 -0.03165579 -0.0316329 -0.03159641 -0.03154877
 -0.03148985 -0.03143286 -0.03137849 -0.03134011 -0.03131693 -0.03131042 -0.03131806 -0.03133044 -0.03134602 -0.03135534
 -0.03135964 -0.03135657 -0.03134843 -0.03133751 -0.03132437 -0.03131082 -0.03129505 -0.03127655 -0.03125362 -0.03122476
 -0.03119198 -0.03115489 -0.03111866 -0.03108428 -0.03105458 -0.03103037 -0.03100863 -0.03098924 -0.03096798 -0.03094485
 -0.03092038 -0.03089491 -0.03087169 -0.03085024 -0.03083054 -0.03081166 -0.03079057 -0.03076796 -0.0307433 -0.0307184
 -0.03069594 -0.03067517 -0.03065716 -0.0306383 -0.03061636 -0.03059027 -0.03055803 -0.03052411 -0.03048916 -0.03045783
 -0.03043175 -0.03040896 -0.03038977 -0.03036809 -0.0303435 -0.03031262 -0.03027555 -0.0302349 -0.03019131 -0.03015086
 -0.03011364 -0.03008371 -0.03005987 -0.03004115 -0.03002616 -0.03001159 -0.02999747 -0.02998254 -0.02996702 -0.02995139
 -0.02993342 -0.02991208 -0.0298852 -0.02985062 -0.02981154 -0.02976768 -0.02972591 -0.02968778 -0.0296558 -0.02963088
 -0.02960888 -0.02958963 -0.0295681 -0.0295442 -0.02951701 -0.0294869 -0.02945618 -0.02942517 -0.0293965 -0.02937019
 -0.02934771 -0.02932871 -0.02931363 -0.02930111 -0.02929014 -0.02927801 -0.02926198 -0.02924027 -0.02921022 -0.02917415
 -0.0291318 -0.02908798 -0.0290441 -0.02900275 -0.02896488 -0.02892994 -0.02889804 -0.02886776 -0.02883901 -0.02881061
 -0.0287825 -0.02875376 -0.02872463 -0.02869632 -0.02866942 -0.02864736 -0.02862986 -0.02861855 -0.02861146 -0.02860578
 -0.02859971 -0.02858933 -0.02857497 -0.02855545 -0.02853203 -0.0285055 -0.0284755 -0.02844236 -0.02840444 -0.02836114
 -0.0283123 -0.02825744 -0.02819917 -0.02813752 -0.02807687 -0.0280175 -0.02796346 -0.02791495 -0.0278752 -0.02784434
 -0.02782535 -0.02781771 -0.02782177 -0.02783485 -0.02785064 -0.0278648 -0.02786523 -0.02785181 -0.02781726 -0.02776937
 -0.02771236 -0.02765354 -0.02760014 -0.02755097 -0.02750815 -0.02746556 -0.02742147 -0.0273733 -0.02731942 -0.02726447
 -0.02720843 -0.02715923 -0.02711741 -0.02708871 -0.0270732 -0.02707145 -0.02708243 -0.02709886 -0.02711825 -0.02712579
 -0.02712005 -0.0270875 -0.02703293 -0.02695777 -0.02687045 -0.02678328 -0.02670056 -0.0266314 -0.02657457 -0.02653269
 -0.02650079 -0.02647813 -0.02645765 -0.02643749 -0.02641129 -0.02637718 -0.02633379 -0.02628036 -0.02622058 -0.02615462
 -0.02608724 -0.02601867 -0.02595261 -0.0258891 -0.02583013 -0.02577539 -0.02572455 -0.02567724 -0.02563217 -0.02558943
 -0.02554876 -0.02550998 -0.02547288 -0.02543693 -0.02540113 -0.02536664 -0.02533369 -0.02530416 -0.02527984 -0.025258
 -0.02523903 -0.0252162 -0.02518793 -0.02515178 -0.02510669 -0.02505767 -0.02500501 -0.0249529 -0.02490132 -0.02484802
 -0.02479265 -0.02473125 -0.02466417 -0.02459075 -0.02451204 -0.02443049 -0.02434749 -0.02426687 -0.02418951 -0.02411856
 -0.02405326 -0.02399482 -0.02393979 -0.02388651 -0.02383175 -0.02377304 -0.02371122 -0.02364543 -0.0235799 -0.02351552
 -0.02345414 -0.02339667 -0.02333827 -0.02327875 -0.02321092 -0.02313467 -0.02305148 -0.02296201 -0.02287326 -0.0227845
 -0.02269655 -0.02260714 -0.02250972 -0.02240357 -0.02228274 -0.02215118 -0.02201039 -0.02186816 -0.02173261 -0.02160843
 -0.02150347 -0.02141096 -0.02133291 -0.02125008 -0.0211573 -0.02103945 -0.02088967 -0.02071895 -0.02052635 -0.02033746
 -0.02015442 -0.01998881 -0.01984079 -0.01970516 -0.01958079 -0.01945633 -0.01933068 -0.01919266 -0.01904209 -0.01887144
 -0.01868385 -0.01848022 -0.01826832 -0.01805942 -0.01785858 -0.01767646 -0.01750946 -0.0173597 -0.01721835 -0.01708286
 -0.01694324 -0.016796 -0.01663459 -0.01645702 -0.01626057 -0.01604485 -0.01580627 -0.0155443 -0.0152614 -0.01495813
 -0.01465339 -0.01434757 -0.01405314 -0.01376715 -0.01348164 -0.01319458 -0.0128951 -0.01258459 -0.01226141 -0.0119256
 -0.01157966 -0.01121408 -0.01082393 -0.01039089 -0.009899493 -0.009344137 -0.008709472 -0.008031919 -0.007314495 -0.006611425
 -0.00593722 -0.005308846 -0.004732696 -0.004192689 -0.003688629 -0.003195674 -0.002712219 -0.002204258 -0.001669391 -0.001066225
 -0.00040201 0.0003176275 0.001069081 0.001770327 0.00242218 0.00297873 0.003471373 0.003926754 0.004367056 0.00482696
 0.005307979 0.005823368 0.006362631 0.006925013 0.007498037 0.00807988 0.008651083 0.00920756 0.009734207 0.01022652
 0.01069528 0.01114077 0.0115783 0.01200804 0.0124168 0.01280305 0.01314452 0.0134449 0.01370952 0.01394551
 0.01418024 0.01441154 0.01465287 0.01488698 0.01509165 0.01526259 0.0153828 0.01546725 0.01552141 0.01555649
 0.01557995 0.01559479 0.01560381 0.01560593 0.01560176 0.01558773 0.01556409 0.01552205 0.01546115 0.01536994
 0.01524806 0.01509674 0.01491735 0.01472465 0.01451884 0.01430866 0.01409306 0.0138723 0.01364797 0.01342196
 0.01319993 0.01299096 0.01279878 0.01263193 0.01248727 0.01236583 0.01226204 0.01217329 0.01209655 0.01203007
 0.01197349 0.01192617 0.01188996 0.01186488 0.01185393 0.01185743 0.01187603 0.01190969 0.01195474 0.01201083
 0.01207318 0.01214168 0.01221353 0.01228826 0.01236332 0.01243761 0.01250757 0.01257268 0.01263021 0.01268132
 0.01272533 0.01276609 0.01280549 0.01284826 0.01289769 0.01295436 0.01301994 0.01309038 0.01316534 0.01324032
 0.01331506 0.01338337 0.01344494 0.01349039 0.01351935 0.01352944 0.01352224 0.01351339 0.01350446 0.01351434
 0.01353778 0.01356826 0.0135993 0.01361097 0.01360711 0.01358354 0.01354905 0.01351281 0.01347611 0.01344513
 0.01341078 0.01337247 0.01331407 0.01323231 0.01310558 0.01292617 0.01269393 0.01240266 0.01210361 0.01180109
 0.01152419 0.0112739 0.01102818 0.01078574 0.01052562 0.01024856 0.009948391 0.009625077 0.009276818 0.008899469
 0.008484073 0.008024877 0.00750233 0.006933704 0.006318138 0.005707837 0.005147413 0.004646207 0.004231119 0.003855783
 0.003508566 0.003161663 0.00280282 0.002441679 0.002077 0.001728633 0.001399079 0.001086196 0.0007897161 0.0004870115
 0.0001773562 -0.0001566024 -0.0005112623 -0.0008777393 -0.001249552 -0.001598867 -0.001926332 -0.002216801 -0.002481181 -0.002728847
 -0.002970782 -0.003222454 -0.003489251 -0.003779949 -0.004096014 -0.004443382 -0.004810093 -0.005200719 -0.005570171 -0.005908561
 -0.006185791 -0.006389893 -0.006560026 -0.006697786 -0.006848917 -0.007015565 -0.007205608 -0.007416322 -0.007618857 -0.007811271
 -0.007965329 -0.008087586 -0.008185342 -0.008264713 -0.008346215 -0.008423987 -0.008499863 -0.008561798 -0.008595325 -0.00859918
 -0.008565645 -0.008503844 -0.008416772 -0.008310222 -0.008187603 -0.008048471 -0.007894067 -0.007718933 -0.007523173 -0.007295943
 -0.007036018 -0.006738925 -0.006404595 -0.006056366 -0.005696428 -0.005358531 -0.005041955 -0.004759142 -0.004509315 -0.004295708
 -0.004119868 -0.003989037 -0.003899049 -0.003850424 -0.003828201 -0.003819355 -0.003803672 -0.003759872 -0.003683344 -0.003559261
 -0.003416186 -0.003260643 -0.003115894 -0.002991806 -0.002881965 -0.002787325 -0.002695561 -0.002605163 -0.002515547 -0.002426657
 -0.002345541 -0.002271906 -0.002204688 -0.002142205 -0.002073964 -0.001999584 -0.001911019 -0.001811653 -0.001705149 -0.001594791
 -0.00148994 -0.001384953 -0.001279602 -0.001161116 -0.001019223 -0.0008472932 -0.0006365621 -0.0003949581 -0.0001219083 0.0001684427
 0.0004717053 0.0007851959 0.001106961 0.001445289 0.001801487 0.002171252 0.002554322 0.002921822 0.00327266 0.003583991
 0.003858559 0.004100991 0.004313548 0.00450788 0.004681083 0.004833136 0.004958301 0.005047564 0.005096556 0.005096396
 0.005046934 0.004944438 0.004792709 0.00459239 0.004348018 0.004061075 0.003735422 0.003370375 0.002978621 0.002559714
 0.002141882 0.001727573 0.001339621 0.0009793576 0.0006440805 0.0003326639 2.937682E-05 -0.0002658057 -0.0005613008 -0.0008552349
 -0.001145098 -0.001430117 -0.001706865 -0.001976334 -0.002238601 -0.002494734 -0.002745812 -0.002993013 -0.003237312 -0.003480359
 -0.003723942 -0.003966453 -0.004208983 -0.00444414 -0.004670626 -0.004881372 -0.005074479 -0.005250505 -0.005408961 -0.005556594
 -0.005693759 -0.005824074 -0.005947029 -0.006056824 -0.006152396 -0.006223608 -0.006271659 -0.006294265 -0.006295782 -0.006284864
 -0.00626603 -0.00625139 -0.006240753 -0.006239843 -0.006243197 -0.006248176 -0.006251105 -0.006247791 -0.006242259 -0.006234646
 -0.006230459 -0.006231914 -0.006237796 -0.006248842 -0.006258488 -0.006266124 -0.0062677 -0.006262951 -0.006251794 -0.006234279
 -0.00621104 -0.006182143 -0.006148031 -0.00610921 -0.006067591 -0.00602394 -0.00598134 -0.005939457 -0.005899605 -0.005859875
 -0.005818662 -0.005774248 -0.005723851 -0.005669625 -0.005610716 -0.005553994 -0.005501373 -0.005459609 -0.005431152 -0.005417589
 -0.00541979 -0.00543594 -0.005465929 -0.005508533 -0.005563675 -0.00563084 -0.005709885 -0.005798974 -0.005897531 -0.006001301
 -0.006109426 -0.006216536 -0.006322126 -0.006422146 -0.006516942 -0.00660533 -0.006687687 -0.006764421 -0.006834517 -0.006897359
 -0.00695197 -0.00699706 -0.007034375 -0.007063809 -0.007088993 -0.00711107 -0.00713113 -0.007149952 -0.007164442 -0.007174403
 -0.007176863 -0.007171616 -0.007159283 -0.007140093 -0.007117528 -0.007091893 -0.007067015 -0.007042678 -0.007020461 -0.00699922
 -0.006977211 -0.00695284 -0.006922351 -0.006885571 -0.0068403 -0.006788476 -0.006731013 -0.006669261 -0.006604597 -0.006536225
 -0.006463554 -0.006388417 -0.006310239 -0.006235805 -0.006166304 -0.006105668 -0.006055112 -0.006007379 -0.00596214 -0.005909221
 -0.005848783 -0.005781591 -0.005709212 -0.005642456 -0.005581777 -0.005535299 -0.005500916 -0.00547766 -0.005463051 -0.005452283
 -0.005444235 -0.005435956 -0.005426331 -0.005413836 -0.005396802 -0.005373166 -0.005344727 -0.005309995 -0.005278312 -0.005251199
 -0.005238968 -0.005244694 -0.005266488 -0.005305325 -0.005347233 -0.005391411 -0.005428071 -0.005457523 -0.005484122 -0.005508706
 -0.005539567 -0.005575502 -0.005616543 -0.005660474 -0.005701484 -0.005738829 -0.00576863 -0.005790842 -0.00580387 -0.005808053
 -0.005802548 -0.005789782 -0.005770359 -0.005748134 -0.005725055 -0.005702174 -0.005680719 -0.005657577 -0.00563232 -0.005603033
 -0.005569222 -0.005533068 -0.005494679 -0.005455832 -0.005416291 -0.005372089 -0.00532288 -0.005263572 -0.005195679 -0.005121899
 -0.005044896 -0.004973575 -0.004907628 -0.004851587 -0.004801493 -0.004754431 -0.004706863 -0.004655295 -0.004596229 -0.004528135
 -0.004443727 -0.004340152 -0.004211091 -0.004052792 -0.003870095 -0.003662027 -0.003442382 -0.003212482 -0.002982609 -0.002753538
 -0.002528297 -0.002306856 -0.002089103 -0.001874323 -0.001658355 -0.001439252 -0.001206837 -0.0009603579 -0.00069123 -0.0004034012
 -9.870564E-05 0.0002158781 0.0005305645 0.0008421274 0.001143046 0.001437411 0.001724987 0.002011737 0.002301071 0.002592143
 0.002886411 0.003176732 0.003462014 0.003737468 0.004002186 0.004256611 0.004500677 0.004736927 0.004965577 0.005190291
 0.005411584 0.005634841 0.005860427 0.006092618 0.006331549 0.006579191 0.006836844 0.007107875 0.007392805 0.007695
 0.00801026 0.008337063 0.008668913 0.009001027 0.009331387 0.009657626 0.00998141 0.01030323 0.01062211 0.01093844
 0.01124777 0.01154983 0.01183927 0.01211569 0.01237591 0.01262025 0.01285458 0.01308061 0.01331415 0.01355522
 0.013814 0.01408563 0.01436273 0.01464042 0.01490535 0.01515812 0.01539418 0.01561531 0.01582233 0.01601418
 0.01618987 0.01635059 0.01649481 0.01663128 0.0167612 0.01689558 0.01703684 0.01719024 0.01735717 0.01753432
 0.01772163 0.01791284 0.01810789 0.01830655 0.01850949 0.01872217 0.0189442 0.01917751 0.01941988 0.01966691
 0.01991562 0.02015999 0.02039419 0.02061051 0.02079863 0.02094683 0.02104898 0.02109525 0.02109401 0.02104376
 0.02096342 0.0208571 0.02074227 0.02062271 0.02050945 0.02040433 0.02031194 0.02023283 0.02016474 0.0201074
 0.0200551 0.02000766 0.01996085 0.019915 0.01986908 0.01982369 0.01977991 0.01973823 0.01970078 0.01966595
 0.01963325 0.01959902 0.01955955 0.01951337 0.01945808 0.01939507 0.01932497 0.01924653 0.01916005 0.0190616
 0.0189502 0.01882542 0.01868696 0.01853685 0.01837528 0.01820124 0.01801463 0.01781361 0.01759833 0.01736939
 0.01712682 0.01687079 0.0166015 0.01631879 0.01602461 0.01572248 0.01541402 0.0151037 0.01478952 0.01447121
 0.01414678 0.0138135 0.01347532 0.01313239 0.01279168 0.01245573 0.01212643 0.01180546 0.01148701 0.01117097
 0.01084851 0.01051897 0.01017776 0.009824896 0.009462711 0.00909141 0.008713872 0.008329565 0.007937049 0.007537016
 0.007129577 0.006718145 0.006309246 0.005905379 0.005513451 0.005131688 0.004761292 0.00439885 0.004042428 0.003690147
 0.003340599 0.002993485 0.002647988 0.002306565 0.001969222 0.00164032 0.001320702 0.001009947 0.0007082356 0.0004097353
 0.0001142683 -0.0001809928 -0.0004754737 -0.0007658045 -0.001051394 -0.001328314 -0.001595592 -0.001849198 -0.002086842 -0.002302164
 -0.002493938 -0.00265698 -0.002793867 -0.002904119 -0.002993566 -0.003064668 -0.003125362 -0.00317914 -0.003233118 -0.003290858
 -0.003352271 -0.003418629 -0.003483783 -0.003546906 -0.003605985 -0.003660734 -0.003713099 -0.003762978 -0.003806621 -0.003843958
 -0.003871363 -0.003891383 -0.00391367 -0.003940288 -0.003984482 -0.004041059 -0.004107014 -0.004175074 -0.004231841 -0.004279742
 -0.004314767 -0.004345423 -0.004378186 -0.004411236 -0.004447959 -0.004474637 -0.004487386 -0.004478558 -0.00444376 -0.004394286
 -0.004330039 -0.004270647 -0.004217759 -0.004178908 -0.004153992 -0.004134546 -0.004119973 -0.004101145 -0.004079242 -0.004054985
 -0.004029483 -0.004006643 -0.003986032 -0.003968364 -0.003953666 -0.003942735 -0.003934199 -0.003928802 -0.003919693 -0.003902354
 -0.003873122 -0.003826388 -0.003772881 -0.003714077 -0.003662026 -0.003621927 -0.003584198 -0.003549497 -0.003495901 -0.003421286
 -0.003324236 -0.003205438 -0.003089167 -0.002976631 -0.002889703 -0.002825799 -0.002785216 -0.002763573 -0.002748281 -0.002736715
 -0.002717852 -0.002690659 -0.002648852 -0.002593404 -0.002521465 -0.002439439 -0.002348911 -0.002261043 -0.002181304 -0.002116504
 -0.002071148 -0.002041768 -0.002029045 -0.002025217 -0.002029477 -0.002035878 -0.002044141 -0.002044858 -0.002037387 -0.002007076
 -0.001954413 -0.001875405 -0.001774908 -0.001672778 -0.001574666 -0.001510211 -0.001475687 -0.001481676 -0.001512247 -0.00155065
 -0.001581601 -0.001580942 -0.001551279 -0.001483213 -0.001396421 -0.001296961 -0.00120195 -0.001119507 -0.001051401 -0.001000086
 -0.0009596797 -0.0009299073 -0.0009046902 -0.0008837764 -0.000857333 -0.0008248362 -0.0007758131 -0.0007111051 -0.0006331601 -0.0005448492
 -0.0004618564 -0.0003846008 -0.000323474 -0.0002750273 -0.0002364936 -0.00020665 -0.0001814174 -0.0001640035 -0.0001575009 -0.0001599832
 -0.0001742392 -0.0001870446 -0.00019354 -0.000182108 -0.0001455952 -9.002158E-05 -1.365635E-05 6.565003E-05 0.0001454464 0.0002161562
 0.0002764004 0.0003307433 0.0003794826 0.0004308187 0.0004850942 0.0005487721 0.0006217214 0.0007078461 0.00080467 0.0009077614
 0.001012547 0.001106421 0.001189406 0.001254153 0.00130809 0.001356155 0.001403513 0.001457433 0.001512381 0.001568123
 0.001617305 0.001655304 0.001688367 0.001714925 0.001754278 0.001809068 0.001891097 0.002002481 0.002129169 0.002270201
 0.002398227 0.002513662 0.002608989 0.002687763 0.002765353 0.002840683 0.00292008 0.002996877 0.003057543 0.003104057
 0.003130299 0.003148952 0.003172081 0.003204011 0.003254318 0.003313448 0.003378461 0.003444777 0.003508932 0.003575798
 0.00364708 0.003718978 0.003792071 0.003854186 0.003903929 0.003942158 0.003969151 0.004000097 0.004034922 0.004079731
 0.004131529 0.004178153 0.004217708 0.004236257 0.00423764 0.004222258 0.004196618 0.004170891 0.004147999 0.004134036
 0.004131722 0.004142325 0.00417579 0.004238082 0.004332232 0.004466383 0.004612304 0.004768836 0.004891478 0.004971648
 0.005000082 0.004973136 0.004932157 0.004879338 0.00486318 0.004882838 0.004949535 0.00505681 0.005178314 0.005308346
 0.005413169 0.005495812 0.005543733 0.005568898 0.005583624 0.005597181 0.005625201 0.005667378 0.005727695 0.005805868
 0.005902459 0.006018147 0.006156729 0.006301877 0.006453528 0.00658121 0.006679429 0.006738449 0.006755758 0.006751129
 0.006725566 0.006700647 0.006676708 0.006664327 0.006663653 0.006681844 0.006717713 0.006772403 0.00684208 0.006918815
 0.007000407 0.007079449 0.007157289 0.00723272 0.007307038 0.007380702 0.00745506 0.007530957 0.007609027 0.007691126
 0.007770386 0.007846479 0.007908618 0.007954556 0.007983194 0.007993858 0.007993887 0.007983652 0.007970097 0.007953778
 0.007943141 0.007938464 0.007947188 0.007966203 0.007989159 0.008013496 0.00802772 0.008038221 0.008048979 0.008067858
 0.008106356 0.008163711 0.008242752 0.008342078 0.008462876 0.00859956 0.008757064 0.008899296 0.009019013 0.009089206
 0.009099397 0.009084869 0.009046923 0.009029481 0.009034567 0.009073257 0.009143674 0.009229263 0.009327441 0.009415546
 0.009493768 0.009549991 0.009587672 0.009607875 0.009615296 0.009617787 0.009617726 0.00961962 0.009627282 0.009642629
 0.009675752 0.009734286 0.009816385 0.009928204 0.01004185 0.01015206 0.01023778 0.01029173 0.0103329 0.01036192
 0.01040323 0.01045782 0.01051168 0.01056311 0.01058566 0.01058308 0.01056125 0.01052771 0.01051247 0.01051596
 0.01055766 0.01062497 0.01071021 0.010793 0.0108459 0.01086408 0.01082564 0.01076526 0.01068987 0.01064639
 0.01065825 0.01072796 0.01086722 0.01102963 0.01121219 0.01136022 0.01146795 0.01150733 0.01147707 0.01140493
 0.01129678 0.01123267 0.01121313 0.01129048 0.01144416 0.0116338 0.01183739 0.01197785 0.01206412 0.01207004
 0.01202807 0.01196317 0.01190189 0.01187383 0.0118869 0.01195688 0.01206808 0.01222387 0.01238497 0.01254496
 0.01266352 0.01273212 0.01273846 0.012679 0.01257402 0.01242459 0.01227446 0.0121266 0.01203169 0.01198776
 0.01201407 0.01209849 0.01220905 0.01233735 0.01244336 0.01253788 0.01261905 0.01270221 0.01280831 0.01293259
 0.01308283 0.01323638 0.0133855 0.01350614 0.01358742 0.01361792 0.01358975 0.01351681 0.01339773 0.01326459
 0.01312024 0.01298699 0.01286614 0.01276359 0.01267892 0.01261018 0.01255453 0.0124951 0.01242868 0.01233159
 0.01221073 0.01206847 0.01191668 0.01177924 0.01165288 0.01154368 0.01144454 0.01134609 0.01126337 0.01120226
 0.01117309 0.01119063 0.01121472 0.0112437 0.01121472 0.01111471 0.01092632 0.01064297 0.01031357 0.009940554
 0.009606305 0.009313439 0.009120316 0.009019318 0.008999027 0.009044357 0.009093335 0.009143502 0.00915387 0.009140136
 0.009113597 0.009076885 0.009045351 0.008993366 0.008905551 0.008763976 0.008546852 0.008276989 0.00794968 0.007622202
 0.007304042 0.007055982 0.006891538 0.006828973 0.006875039 0.006976865 0.007131759</values></Ydata></AB><ScSm><Ydata ylabel="Single channel"><values byteorder="INTEL" format="FLOAT32" numvalues="1814"> 0.06944139 0.06944755 0.0695186 0.06967649 0.06988901 0.07008815 0.07021876 0.0702757 0.07028624 0.07026413
 0.0702121 0.07017053 0.07021554 0.07038219 0.07061064 0.07078567 0.07082949 0.07077071 0.07072894 0.07079831
 0.07092106 0.07090327 0.07059748 0.070072 0.06956679 0.06927056 0.06920283 0.06935976 0.06983408 0.07057744
 0.07113321 0.07096326 0.07012292 0.06929688 0.0690365 0.06923047 0.06942494 0.06935123 0.06900579 0.06854744
 0.06835147 0.06891253 0.07035806 0.07204156 0.07277005 0.07155442 0.06831723 0.06412915 0.06081769 0.05998144
 0.06185885 0.06500828 0.06739327 0.06800574 0.06734625 0.06639762 0.06557229 0.06483401 0.06437177 0.06463698
 0.06571941 0.06692457 0.06712601 0.06572284 0.06335446 0.06145386 0.06094216 0.06164484 0.06304867 0.06486215
 0.06624656 0.06537527 0.06122922 0.05587229 0.05353198 0.05658014 0.06299973 0.06836087 0.06976466 0.06745877
 0.06353822 0.06020925 0.05896943 0.06020471 0.06310963 0.06635803 0.06891517 0.07008773 0.06933766 0.06674728
 0.06348443 0.06123813 0.06118096 0.06351119 0.06740914 0.07110415 0.07267815 0.07148464 0.06857932 0.06560064
 0.06369122 0.06350076 0.06534022 0.0688544 0.07300727 0.07669021 0.07917631 0.08018151 0.07991697 0.07896056
 0.07782109 0.07685036 0.07654648 0.07724652 0.078319 0.07840709 0.07690853 0.07478525 0.07357479 0.07380155
 0.07455908 0.07460935 0.07363485 0.07203095 0.069675 0.065908 0.06104047 0.05675146 0.05440889 0.05403017
 0.05528652 0.05803333 0.06112206 0.06232456 0.06076799 0.05849633 0.05843591 0.06127169 0.06509203 0.06772749
 0.0687581 0.06937073 0.07082488 0.07316352 0.07504646 0.07476431 0.07193939 0.06848453 0.06725255 0.06923321
 0.0725975 0.07494403 0.07582952 0.07650036 0.07771376 0.07856691 0.07743834 0.07391143 0.06981601 0.0681071
 0.0702946 0.07493053 0.07865513 0.07868327 0.07468159 0.06885256 0.06421769 0.06252509 0.0637722 0.06734873
 0.07271151 0.07878907 0.08370884 0.08584268 0.08499125 0.08229163 0.07892124 0.07500778 0.07024562 0.06570965
 0.06408173 0.0671142 0.07338674 0.07949165 0.08307948 0.08403042 0.08311752 0.08054817 0.07619702 0.07103405
 0.06759071 0.06798851 0.07138334 0.07444617 0.07485484 0.0734153 0.07233934 0.07248387 0.07303572 0.07322222
 0.07341348 0.07449745 0.07661657 0.07883524 0.08004837 0.07998659 0.07926127 0.07864785 0.07837971 0.07798082
 0.07693478 0.07571277 0.07571799 0.07775229 0.08091649 0.08353433 0.08483574 0.08524293 0.08525015 0.08455753
 0.08250548 0.07931095 0.07657839 0.07610761 0.07814969 0.0812491 0.08376104 0.08503683 0.08526719 0.08488454
 0.08427012 0.08363077 0.08306341 0.08282505 0.08326933 0.08434032 0.08545409 0.08608475 0.08619926 0.08599526
 0.08552116 0.08474907 0.08384593 0.08318227 0.08306491 0.08350706 0.08427025 0.08507589 0.08570363 0.08595896
 0.08574601 0.08520915 0.08464475 0.08423294 0.08397742 0.08389238 0.08406568 0.08449146 0.08498443 0.08533444
 0.08547416 0.08545676 0.08533935 0.0851393 0.08487418 0.08461028 0.08446319 0.0845207 0.08474183 0.08498099
 0.08515465 0.08532107 0.08553275 0.08569008 0.08564571 0.08541049 0.08515678 0.08503339 0.08504857 0.08512027
 0.08516423 0.08510655 0.0848718 0.08444914 0.08398753 0.08374391 0.08387809 0.08433405 0.08493297 0.08550543
 0.08592397 0.08612287 0.08614526 0.08609965 0.08603419 0.08590452 0.08567798 0.0854264 0.08530292 0.08542949
 0.08578818 0.08622362 0.08656764 0.08674949 0.08679715 0.08679624 0.0868534 0.08701469 0.08719347 0.08724959
 0.08716144 0.08705911 0.08706982 0.08717745 0.08725459 0.08721185 0.08709906 0.08705352 0.08715444 0.08735155
 0.0875409 0.08767947 0.0878064 0.0879663 0.08812603 0.08818206 0.08807251 0.08786854 0.0877096 0.08765583
 0.08766309 0.08769818 0.08779787 0.08798441 0.08818658 0.08829801 0.08829582 0.08826062 0.08827441 0.08832474
 0.08832742 0.08822928 0.08806416 0.08791318 0.08783668 0.08784518 0.0879067 0.08796606 0.08797251 0.08790971
 0.08780263 0.08768962 0.08759158 0.08751932 0.08750561 0.08759666 0.08778519 0.08796628 0.08799924 0.08783342
 0.08756484 0.08735391 0.08728201 0.08728956 0.08725274 0.08710814 0.08689453 0.08668946 0.08653378 0.08641914
 0.08632104 0.0862291 0.08616278 0.08616929 0.08628277 0.08646151 0.08658615 0.08655792 0.08639567 0.08621052
 0.08609463 0.0860606 0.0860707 0.08608732 0.08610351 0.08614933 0.08625278 0.08638006 0.08644892 0.08642259
 0.08635733 0.08634147 0.08642346 0.08660206 0.08683121 0.08702145 0.08709363 0.08705992 0.08701633 0.08703937
 0.08712155 0.08721606 0.08730534 0.08740374 0.08752073 0.08765227 0.08780363 0.08799843 0.08825512 0.08855756
 0.0888523 0.08908184 0.0892328 0.08935772 0.08954096 0.08983082 0.09019925 0.09056725 0.09087113 0.09110948
 0.09132931 0.09156753 0.09181765 0.09206294 0.0923239 0.09264094 0.09301456 0.09339572 0.0937421 0.09405895
 0.09437767 0.09471484 0.09506427 0.09542169 0.0958055 0.09623796 0.09669834 0.09711216 0.09741326 0.09761502
 0.09780464 0.09807198 0.098447 0.09887883 0.09925981 0.09950493 0.09963955 0.09978424 0.1000247 0.1003249
 0.1006012 0.1008525 0.1011639 0.1015864 0.1020593 0.1024678 0.102756 0.1029687 0.1031877 0.1034411
 0.1036813 0.1038519 0.1039625 0.1040777 0.1042401 0.1044405 0.1046725 0.1049718 0.1053642 0.1058026
 0.1061978 0.1064999 0.1067201 0.1068901 0.1070337 0.107163 0.1072762 0.1073685 0.1074563 0.1075675
 0.1076964 0.1078038 0.107878 0.1079623 0.108102 0.1083 0.1085444 0.1088423 0.1091919 0.1095496
 0.1098726 0.1101858 0.1105549 0.1109784 0.1113549 0.1115899 0.1116991 0.111765 0.1118309 0.111895
 0.111986 0.1121714 0.1124791 0.1128613 0.1132516 0.1136254 0.1139924 0.1143541 0.1146829 0.1149356
 0.1150841 0.1151384 0.1151488 0.1151871 0.1153187 0.1155674 0.1158947 0.1162241 0.116495 0.1166834
 0.1167741 0.1167535 0.1166542 0.1165738 0.1165977 0.1167026 0.1167652 0.116669 0.1163793 0.1159191
 0.1153144 0.1145875 0.1137884 0.1130033 0.1123236 0.1118097 0.1114917 0.1114 0.1115748 0.1120236
 0.1126702 0.1133755 0.1140132 0.1145031 0.1147719 0.1147338 0.114349 0.1136784 0.1128511 0.1119879
 0.1111662 0.1104178 0.1097309 0.109083 0.1085166 0.1081789 0.1082627 0.1088987 0.1100894 0.1117082
 0.1135364 0.1153299 0.1169059 0.1182038 0.1192727 0.1201975 0.1210392 0.1218356 0.1226228 0.1234166
 0.1241836 0.1248679 0.1254543 0.1259777 0.1264689 0.12692 0.1273026 0.1275996 0.1278202 0.1280002
 0.1281733 0.1283291 0.1284181 0.1284157 0.1283582 0.1282926 0.1282114 0.1280583 0.1277813 0.127371
 0.1268791 0.1264368 0.126248 0.1265179 0.1273418 0.1286443 0.1302292 0.1318934 0.1334923 0.134919
 0.1360795 0.1369294 0.1375153 0.1379451 0.1383187 0.138692 0.1390823 0.1394812 0.1398688 0.1402329
 0.140579 0.1409235 0.1412856 0.1416743 0.1420721 0.1424394 0.1427529 0.1430387 0.1433548 0.1437363
 0.1441615 0.144576 0.1449523 0.1453141 0.1456885 0.1460523 0.1463533 0.1465821 0.1467912 0.1470442
 0.1473727 0.1477695 0.1481911 0.1485694 0.1488573 0.1490705 0.1492686 0.1494948 0.1497508 0.1500218
 0.1503017 0.1505871 0.1508701 0.1511505 0.1514451 0.1517634 0.1520809 0.1523535 0.1525653 0.1527484
 0.1529495 0.1531858 0.1534388 0.1536817 0.153911 0.1541541 0.1544449 0.1547827 0.1551199 0.1553993
 0.1556038 0.1557664 0.155935 0.1561353 0.1563668 0.1566171 0.1568713 0.1571151 0.1573415 0.157557
 0.1577777 0.1580163 0.1582722 0.1585326 0.1587816 0.159012 0.1592298 0.1594475 0.1596783 0.1599378
 0.1602376 0.160568 0.1608917 0.1611678 0.1613839 0.1615576 0.1617151 0.1618754 0.1620521 0.1622527
 0.1624739 0.1627031 0.1629316 0.1631622 0.1634013 0.1636479 0.1638931 0.1641303 0.1643606 0.1645893
 0.1648225 0.1650655 0.1653214 0.1655859 0.1658476 0.1660938 0.1663183 0.1665251 0.1667285 0.1669407
 0.1671596 0.1673727 0.1675756 0.1677777 0.1679883 0.1682069 0.1684267 0.168643 0.1688549 0.1690643
 0.169275 0.1694916 0.169716 0.1699446 0.1701698 0.1703882 0.1706048 0.1708271 0.1710559 0.1712869
 0.171515 0.1717359 0.1719477 0.1721534 0.172361 0.1725767 0.1728012 0.1730294 0.1732519 0.1734622
 0.173663 0.1738623 0.1740654 0.1742728 0.1744843 0.1746995 0.1749188 0.1751443 0.1753747 0.1756029
 0.1758248 0.1760467 0.1762758 0.1765092 0.1767389 0.1769611 0.177178 0.1773941 0.1776136 0.177839
 0.1780707 0.1783091 0.178553 0.1787971 0.1790356 0.1792617 0.179468 0.179653 0.1798265 0.1800002
 0.1801784 0.1803627 0.1805593 0.1807719 0.1809957 0.1812193 0.1814317 0.1816306 0.1818283 0.1820408
 0.1822702 0.182505 0.1827361 0.1829616 0.1831819 0.1833996 0.1836179 0.1838358 0.1840508 0.184267
 0.1844895 0.1847185 0.1849525 0.1851886 0.185418 0.1856333 0.1858399 0.1860481 0.1862632 0.1864899
 0.1867304 0.1869749 0.1872079 0.187426 0.1876356 0.1878428 0.1880539 0.1882745 0.1885011 0.1887266
 0.1889517 0.1891793 0.1894088 0.1896404 0.1898742 0.1901022 0.1903204 0.1905375 0.1907595 0.1909821
 0.1912048 0.1914328 0.1916609 0.1918815 0.1921008 0.1923262 0.1925538 0.1927786 0.1929949 0.193181
 0.1932921 0.1932207 0.1926889 0.1911319 0.1876812 0.1813289 0.1713163 0.1576003 0.1410345 0.1230707
 0.1052226 0.08866734 0.07411937 0.06190738 0.05212054 0.04470602 0.03952781 0.03646702 0.03553329 0.03697895
 0.04141348 0.04943808 0.0603072 0.07075702 0.07627903 0.07466947 0.06812846 0.06125574 0.05723751 0.05631245
 0.05713228 0.05853428 0.06014037 0.06215511 0.06493991 0.06859167 0.07292105 0.07790637 0.08392109 0.09125479
 0.09953043 0.1078605 0.115615 0.1229123 0.1303162 0.1381446 0.1461361 0.1537139 0.1604472 0.1662607
 0.1713381 0.1759215 0.1801783 0.1841897 0.1880031 0.1916256 0.1949337 0.1976421 0.199448 0.2002637
 0.2003175 0.2000229 0.1997371 0.1996277 0.1997164 0.1999818 0.2004036 0.2009602 0.2016309 0.2023921
 0.2032084 0.2040425 0.2048742 0.2056952 0.2064907 0.2072386 0.20792 0.2085252 0.2090588 0.2095413
 0.2099973 0.2104414 0.2108752 0.211289 0.2116703 0.2120197 0.2123544 0.2126855 0.2130013 0.2132837
 0.21353 0.2137501 0.2139547 0.2141528 0.2143531 0.21456 0.2147708 0.2149817 0.2151919 0.2154057
 0.2156251 0.2158423 0.216045 0.2162335 0.2164214 0.2166136 0.2167974 0.2169657 0.2171326 0.2173179
 0.2175249 0.2177418 0.2179554 0.2181586 0.218352 0.2185414 0.2187327 0.2189273 0.2191218 0.2193131
 0.2195042 0.2197038 0.2199166 0.2201356 0.2203528 0.2205698 0.2207921 0.221018 0.2212419 0.2214593
 0.2216618 0.2218355 0.2219762 0.2221027 0.2222508 0.2224486 0.2226896 0.2229349 0.223152 0.2233446
 0.2235366 0.2237369 0.2239337 0.2241136 0.2242792 0.2244538 0.2246644 0.2249111 0.225168 0.2254181
 0.2256646 0.2259066 0.2261357 0.2263578 0.2265825 0.2267907 0.2269512 0.227076 0.2272349 0.2274976
 0.22786 0.2282361 0.2285398 0.2287659 0.2289738 0.2292144 0.2294987 0.2297907 0.2299946 0.2300177
 0.2299151 0.2299078 0.2301806 0.2307002 0.231281 0.2317755 0.2321582 0.232471 0.2327454 0.2329701
 0.2331029 0.2331195 0.2330744 0.2331146 0.2333838 0.2338759 0.2344234 0.234865 0.2351719 0.2353922
 0.2355661 0.2357223 0.235834 0.235757 0.2353801 0.2349026 0.2347876 0.2353129 0.2362604 0.237153
 0.2377287 0.2380742 0.2383601 0.2386256 0.2388309 0.2388917 0.2385627 0.2375804 0.2361792 0.2352336
 0.2355345 0.2369902 0.2387755 0.2401572 0.2409549 0.2413549 0.2415907 0.2417907 0.2418847 0.2416049
 0.2407834 0.2397569 0.2392882 0.2398601 0.24113 0.2422984 0.2429284 0.2431789 0.243374 0.2436424
 0.2438313 0.2434626 0.2420042 0.2396486 0.2377061 0.2376832 0.2398118 0.2427732 0.2450052 0.2460451
 0.2464138 0.2464748 0.2459025 0.2442819 0.2417381 0.2388789 0.2366148 0.2360458 0.2377304 0.2407618
 0.2432814 0.2443157 0.2445994 0.2453546 0.2468267 0.2482907 0.2490005 0.248772 0.2478408 0.2464391
 0.244691 0.2430131 0.2423433 0.243467 0.2460651 0.248834 0.2506945 0.2516105 0.2520159 0.2515429
 0.2487697 0.2429286 0.2360378 0.2323422 0.2345662 0.241065 0.2475898 0.2514652 0.2530581 0.2537864
 0.2542197 0.25392 0.2516928 0.2462334 0.2381727 0.2313806 0.230351 0.2357516 0.2436692 0.2492686
 0.2500938 0.2463301 0.2399326 0.2340413 0.2316971 0.2339988 0.2396255 0.2461442 0.2514708 0.2544366
 0.2547693 0.2529807 0.2503373 0.2485569 0.2485642 0.2491249 0.2477803 0.2439537 0.2399078 0.237416
 0.2350091 0.2306879 0.2263189 0.2264037 0.2322344 0.2397415 0.2440705 0.244499 0.2435574 0.2424089
 0.2388541 0.2304967 0.2192866 0.2116067 0.2126967 0.2212158 0.2304401 0.2348474 0.2345028 0.2330848
 0.2329761 0.2328438 0.229533 0.2221938 0.2143769 0.2110503 0.2133036 0.2173645 0.2190561 0.2171252
 0.2117639 0.2032754 0.1944939 0.1916341 0.1990335 0.213834 0.2282366 0.2359229 0.2343377 0.2232702
 0.2057654 0.1899979 0.1852841 0.1937268 0.2076588 0.2167053 0.216009 0.2070627 0.1932756 0.1776688
 0.1642966 0.1586318 0.1642669 0.1792886 0.1963641 0.2063735 0.2034234 0.1894401 0.1746048 0.1700231
 0.1776025 0.1887364 0.193956 0.1915264 0.1860694 0.1825948 0.1836183 0.1887707 0.1952004 0.2002335
 0.2035054 0.2039664 0.1970036 0.1799793 0.1596155 0.1475906 0.148411 0.1570635 0.1683536 0.1815797
 0.1945059 0.200153 0.1946715 0.1846675 0.1816073 0.1896483 0.2020651 0.2094704 0.2091067 0.2053685
 0.2029867 0.2019683 0.1999618 0.1977407 0.1993987 0.206715 0.2160597 0.2224491 0.224735 0.2251629
 0.2255628 0.2259618 0.225872 0.2251216 0.2237733 0.2222476 0.2211996 0.220775 0.2204731 0.2199065
 0.2187726 0.2156979 0.2085389 0.1974016 0.1865633 0.1810933 0.1814799 0.183964 0.1861216 0.1882784
 0.1882878 0.1800652 0.1616365 0.1417376 0.1334651 0.1416228 0.1591415 0.1751241 0.1831843 0.1819807
 0.1719459 0.1555036 0.1397377 0.1342045 0.1431315 0.1613466 0.1798128 0.1934317 0.2016376 0.2040742
 0.1996474 0.1896353 0.1789441 0.1733033 0.1757663 0.1853602 0.1974229 0.2048047 0.2013399 0.187968
 0.1755005 0.176675 0.1927823 0.2115248 0.2208422 0.2211363 0.2204178 0.2218352 0.2221027 0.2202414
 0.2210834 0.2286339 0.2401655 0.2489029 0.2499687 0.2423021 0.2280248 0.2129329 0.2049955 0.207942
 0.2169782 0.223977 0.2253416 0.2215055 0.2121035 0.1979985 0.1864146 0.1865995 0.1991053 0.214539
 0.22424 0.228175 0.2310487 0.2341942 0.2339576 0.2272529 0.2167358 0.2091774 0.2087607 0.2134049
 0.2182611 0.2208233 0.2209703 0.2180606 0.2113209 0.2031078 0.1989558 0.2027639 0.2127413 0.2230758
 0.2291342 0.2303585 0.2288787 0.2267633 0.2246419 0.2218848 0.2179798 0.2143116 0.2138925 0.2181306
 0.2245605 0.2293664 0.2317491 0.2341887 0.2385526 0.2435224 0.2461967 0.2452544 0.2422055 0.2400709
 0.2409561 0.2443766 0.2476143 0.2480372 0.2456064 0.2431475 0.2437488 0.247817 0.2530318 0.2569876
 0.259154 0.2603643 0.261395 0.2622952 0.2623591 0.2606559 0.2573434 0.2544471 0.2544295 0.257745
 0.2624056 0.2660385 0.267803 0.2682605 0.2680764 0.267327 0.2658788 0.2640163 0.2624609 0.2618062
 0.2620912 0.2629438 0.2639663 0.26491 0.2656565 0.2661966 0.2665907 0.2668848 0.2670941 0.2672558
 0.2674074 0.2675071 0.2674785 0.267368 0.2673597 0.2675717 0.267902 0.2681379 0.2681509 0.2679043
 0.2673361 0.2663702 0.2650493 0.2635325 0.2619137 0.2601537 0.2583078 0.2567877 0.2562448 0.2570787
 0.2590614 0.2614797 0.2636301 0.2651721 0.2661114 0.2666008 0.2668042 0.2668545 0.2668323 0.2667553
 0.2666059 0.2663781 0.2660891 0.2657555 0.2653847 0.265 0.2646511 0.2643755 0.2641566 0.2639319
 0.2636378 0.2632427 0.2627553 0.2622136 0.2616514 0.26106 0.2603863 0.2595803 0.2586434 0.257632
 0.2566242 0.2556831 0.254827 0.254017 0.2531857 0.2522866 0.251296 0.2501764 0.2488972 0.2475222
 0.2462147 0.2451047 0.2441778 0.243316 0.2424069 0.2413861 0.2402289 0.2389515 0.2376063 0.2362422
 0.2348697 0.233468 0.23201 0.2304763 0.2288598 0.2271673 0.225416 0.2236232 0.2218014 0.2199557
 0.2180686 0.2160748 0.2138596 0.2112944 0.2082739 0.2047259 0.2006259 0.1960326 0.1911015 0.1860434
 0.1810607 0.1763121 0.1719128 0.1679517 0.1645094 0.1616572 0.1594476 0.1579138 0.1570774 0.156943
 0.1574911 0.158678 0.1604346 0.1626558 0.1652007 0.1679052 0.1705981 0.17313 0.1754203 0.1774864
 0.1794119 0.1812707 0.1830741 0.1847851 0.1863703 0.1878173 0.1891046 0.1901914 0.1910637 0.1917652
 0.1923606 0.192884 0.193338 0.1937252 0.194059 0.1943549 0.1946241 0.194875 0.1951211 0.1953827
 0.1956758 0.1960058 0.1963802 0.196821 0.1973531 0.1979853 0.1987028 0.1994746 0.2002745 0.201104
 0.2019846 0.202929 0.2039393 0.2050346 0.2062583 0.2076449 0.2091883 0.2108423 0.2125401 0.2142105
 0.2157793 0.2171689 0.218318 0.2192071 0.2198557 0.2202966 0.2205655 0.2207021 0.2207379 0.2206846
 0.2205448 0.2203244 0.220029 0.2196629 0.2192357 0.2187547 0.2182195 0.2176353 0.2170237 0.2164112
 0.2158139 0.2152346 0.2146648 0.214096 0.2135331 0.2129849 0.2124452 0.2119014 0.2113586 0.2108314
 0.210313 0.2097716 0.2091681 0.2084669 0.2076451 0.2067049 0.2056661 0.2045422 0.2033297 0.202021
 0.2006189 0.1991368 0.1975878 0.195977 0.194305 0.1925697 0.190749 0.1888034 0.1867308 0.1846089
 0.1825514 0.1806271 0.1788427 0.1771839 0.1756391 0.1741955 0.1728357 0.1715402 0.1702894 0.1690721
 0.167891 0.1667557 0.1656739 0.1646541 0.1637093 0.1628563 0.162111 0.1614736 0.1609182 0.1604135
 0.1599539 0.1595605 0.1592575 0.1590628 0.1589828 0.158992 0.1590285 0.1590267 0.1589532 0.158815
 0.1586454 0.1584823 0.1583485 0.1582468 0.1581645 0.1580657 0.1578864 0.1575513 0.1569868 0.1561237
 0.1549183 0.1533892 0.1516181 0.1497215 0.1478339 0.1460915 0.1445951 0.1433856 0.1424544 0.1417568
 0.141219 0.1407724 0.140402 0.1401608 0.1401245 0.1403003 0.1405636 0.1407271 0.1407189 0.1406634
 0.1407598 0.1411146 0.141701 0.1424143 0.1431314 0.1437566 0.1442432 0.1445788 0.1447714 0.1448503
 0.1448459 0.1447668 0.1446148 0.1444018 0.1441331 0.1438066 0.1434335 0.1430227 0.1425551 0.1420076
 0.1413753 0.1406468 0.1398013 0.1388438 0.1377889 0.1366329 0.1354197 0.1343193 0.1335743 0.1333646
 0.1337148 0.1344823 0.1354505 0.1364736 0.1374696 0.1382562 0.1385908 0.1385409 0.1386768 0.1396632
 0.1416245 0.1440167 0.1461165 0.147532 0.1482418 0.1483372 0.147891 0.1469722 0.1456032 0.1437396
 0.1413948 0.138703 0.1358101 0.1328386 0.1299692 0.1273961 0.1252113 0.1234322 0.1220574 0.1211166
 0.1207158 0.1204825 0.1185934 0.1127082 0.1035734 0.0966787 0.09767689 0.1060348 0.1153712 0.1202075
 0.1203583 0.1187173 0.1172841 0.1163475 0.1157917 0.1157543 0.1163667 0.117495 0.1187604 0.1197734
 0.1203859 0.1206436 0.1204932 0.1195724 0.1171763 0.1124867 0.105218 0.09621336 0.08717857 0.07969004
 0.07447375 0.07140398 0.06984933 0.06905483 0.06851953 0.06820989 0.06842892 0.0694651 0.07135312 0.07392819
 0.07699802 0.08033469 0.08355962 0.08627199 0.08835776 0.09000403 0.09136465 0.09236839 0.09288027 0.09289669
 0.09253816 0.09194978 0.09124258 0.09046897 0.08960654 0.08858539 0.08740214 0.08623435 0.08535817 0.08489662
 0.08472764 0.08467291 0.08466254 0.0846857 0.08471252 0.08471499 0.08469287 0.0846854 0.08479346 0.08511619
 0.08561847 0.08613071 0.08650158 0.08670144 0.08678966 0.08680227 0.08664574 0.08617509 0.08546767 0.08485769
 0.08449657 0.08404915 0.08311417 0.08183768 0.08082446 0.08048461 0.08068664 0.08101567 0.08116782 0.08108564
 0.08090632 0.08088133 0.0812136 0.08181018</values></Ydata></ScSm><ScRf><Ydata ylabel="Single channel"><values byteorder="INTEL" format="FLOAT32" numvalues="1820"> 0.06034179 0.06050185 0.06060117 0.06063728 0.06063683 0.06064837 0.06071971 0.06086762 0.06106477 0.06125537
 0.06139146 0.06146227 0.06148257 0.06145789 0.06139038 0.06132356 0.06133962 0.06148269 0.06169963 0.06187456
 0.06192535 0.06187697 0.06184293 0.06190875 0.062017 0.06199071 0.06170187 0.06121826 0.06075903 0.06049686
 0.06045238 0.06061833 0.06106517 0.06173971 0.06223641 0.06208338 0.06133292 0.06059431 0.06036149 0.06053993
 0.06072337 0.06066433 0.06035436 0.05993634 0.05974835 0.06023296 0.06150422 0.06298785 0.06362718 0.06255203
 0.05970073 0.05601858 0.05310936 0.05237556 0.05402905 0.05680474 0.05890909 0.05945292 0.0588816 0.05806783
 0.05737237 0.05674792 0.05634479 0.05655796 0.0574787 0.05851227 0.05867833 0.05745035 0.05538528 0.05373349
 0.05329519 0.05391249 0.05513797 0.05672412 0.05793855 0.05717112 0.05351839 0.04879499 0.04672841 0.0494161
 0.0550864 0.0598321 0.06108596 0.05905692 0.05559617 0.05266043 0.05157293 0.0526665 0.05522689 0.05808849
 0.06034034 0.06136654 0.06069196 0.05839722 0.05551953 0.05354688 0.0535061 0.05556629 0.059003 0.0622562
 0.06363727 0.06257887 0.0600143 0.05739033 0.05571448 0.05555817 0.05719544 0.06031477 0.06400159 0.06727141
 0.06947459 0.07035887 0.07011919 0.06927733 0.06828457 0.06743976 0.06716887 0.06776942 0.06869796 0.06876928
 0.06745072 0.06558102 0.06451042 0.06470482 0.06537272 0.06542644 0.06458251 0.06318159 0.06110896 0.05778326
 0.05348524 0.0497046 0.04765117 0.0473363 0.04846445 0.05090673 0.0536508 0.05472821 0.05336183 0.0513505
 0.05128049 0.05376678 0.0571296 0.05945269 0.06036015 0.06089932 0.06218701 0.06426342 0.06593913 0.06569506
 0.06319466 0.06013522 0.05904774 0.06080931 0.06379628 0.06587802 0.06666321 0.06726275 0.06835336 0.06913421
 0.06816449 0.06507571 0.0614907 0.06001774 0.06197631 0.06607684 0.0693564 0.06936676 0.06582166 0.06067205
 0.05659141 0.05512298 0.05625867 0.05945645 0.06423941 0.06966473 0.07407638 0.07602513 0.07531784 0.07294856
 0.06996208 0.0664831 0.06225074 0.05822681 0.0568021 0.05954117 0.06518048 0.07067801 0.07392728 0.07481208
 0.07402439 0.07175821 0.06790504 0.06333007 0.06029962 0.06071844 0.06383117 0.06664628 0.06706892 0.06581259
 0.06486405 0.06500761 0.06553054 0.06574603 0.0659827 0.06703123 0.06901443 0.07108735 0.07225013 0.07225175
 0.07163828 0.0711161 0.07090938 0.07059509 0.06970675 0.06867413 0.06877118 0.07071652 0.07367893 0.07612938
 0.07737268 0.07779826 0.07785551 0.07726767 0.07543251 0.0725538 0.07010885 0.06975384 0.07171999 0.07466414
 0.07706268 0.07830921 0.07857887 0.07827801 0.07776767 0.07724604 0.07680462 0.07667264 0.07716293 0.07822017
 0.07931768 0.0799818 0.08017518 0.08006017 0.07967077 0.07899091 0.07819431 0.07763504 0.0775936 0.07807158
 0.07884317 0.07965676 0.08031833 0.08064795 0.0805439 0.08012563 0.07966502 0.07933729 0.07915615 0.07914117
 0.0793758 0.07985106 0.08038668 0.08078101 0.08097239 0.08101618 0.08096874 0.08084348 0.0806528 0.08045895
 0.08037409 0.08048152 0.08073889 0.08100696 0.08121374 0.08142681 0.08170202 0.08193573 0.08196846 0.08179749
 0.08159246 0.08151191 0.0815734 0.08169422 0.08178499 0.08177151 0.08158416 0.08121882 0.0808243 0.08064708
 0.08083461 0.08133034 0.08196849 0.08259227 0.08307284 0.08333048 0.08339435 0.08337143 0.08332199 0.08321679
 0.08302951 0.08282699 0.08275227 0.08292073 0.08331668 0.08379319 0.08418657 0.08441995 0.08451037 0.08453893
 0.08461758 0.08480038 0.08500312 0.08508269 0.08501658 0.08493897 0.08497871 0.08511361 0.08521073 0.08518523
 0.08509523 0.08507651 0.08519758 0.08540265 0.0855965 0.08575282 0.085921 0.08613925 0.08635463 0.08644561
 0.08634691 0.08613914 0.08597261 0.08591187 0.08591302 0.08594565 0.08605271 0.0862582 0.08648235 0.08660801
 0.08661298 0.08659026 0.08663119 0.08671877 0.08675383 0.08666909 0.08649491 0.08632381 0.08623629 0.08625573
 0.08634339 0.08642441 0.08643574 0.0863664 0.08625391 0.08614157 0.08604808 0.08598705 0.08600307 0.08615144
 0.08641563 0.08666314 0.08672732 0.08655624 0.0862696 0.08605228 0.08598932 0.08600736 0.08596821 0.08580288
 0.08555278 0.08530466 0.08511178 0.08497454 0.08486958 0.08478307 0.08473015 0.08475195 0.08487188 0.08503399
 0.0851087 0.08499958 0.08474129 0.08446546 0.08428015 0.08420582 0.08420183 0.08421464 0.08421733 0.08423384
 0.08430405 0.0844052 0.08444826 0.08438163 0.08426116 0.08419438 0.08424929 0.08442383 0.08464947 0.08481155
 0.08482457 0.08471724 0.08460893 0.08458804 0.08464432 0.08472237 0.08479661 0.08487509 0.08496456 0.08506422
 0.08518575 0.08535531 0.08558722 0.0858584 0.08611181 0.08629254 0.08639404 0.08647452 0.08661803 0.08686726
 0.08718966 0.08750801 0.08776386 0.08795719 0.08812918 0.08831072 0.08849864 0.08868811 0.08890706 0.08918992
 0.08952601 0.08986451 0.09016952 0.09044693 0.09071883 0.09099594 0.09128077 0.09158567 0.09193879 0.09235942
 0.09281383 0.09321088 0.09347243 0.09361225 0.09372926 0.09392716 0.09424318 0.09462447 0.09495545 0.09514436
 0.09521838 0.0953076 0.09550551 0.0957747 0.09602518 0.09625367 0.09654909 0.0969641 0.09742898 0.09781292
 0.09805135 0.09819639 0.09834774 0.09854564 0.09874111 0.09887096 0.09894295 0.09902281 0.0991497 0.09930989
 0.09950291 0.09977873 0.1001681 0.1006105 0.1009985 0.1012767 0.1014647 0.1016048 0.1017212 0.1018157
 0.1018744 0.1018932 0.1019078 0.1019692 0.1020763 0.1021686 0.1022055 0.1022208 0.1022794 0.1024128
 0.1026205 0.102899 0.1032299 0.1035597 0.1038425 0.1041038 0.1044142 0.1047779 0.1050937 0.1052649
 0.1053123 0.1053308 0.1053686 0.1054117 0.1054714 0.1056092 0.1058608 0.1061871 0.1065258 0.1068558
 0.1071934 0.1075442 0.1078741 0.1081233 0.1082463 0.1082506 0.1082015 0.1081901 0.1082888 0.1085178
 0.1088367 0.1091698 0.1094538 0.1096576 0.1097628 0.1097598 0.1096893 0.1096574 0.1097537 0.1099491
 0.1101077 0.1101042 0.1099054 0.1095409 0.1090403 0.1084252 0.1077436 0.1070787 0.106517 0.106112
 0.1058851 0.1058592 0.1060712 0.1065301 0.1071675 0.107859 0.1084992 0.1090227 0.1093533 0.1093873
 0.1090705 0.1084686 0.1077281 0.1069836 0.106309 0.105715 0.1051596 0.1045982 0.10407 0.1037313
 0.1037757 0.1043182 0.1053448 0.1067268 0.1082582 0.1097158 0.110946 0.1119251 0.1127317 0.1134555
 0.1141389 0.1147944 0.1154412 0.1160898 0.1167087 0.1172483 0.1177025 0.1181156 0.118526 0.1189265
 0.1192823 0.1195687 0.1197931 0.1199937 0.1202014 0.1203914 0.1204956 0.1204794 0.1203832 0.1202698
 0.1201537 0.1199966 0.1197491 0.1193884 0.1189491 0.1185477 0.1183667 0.1185777 0.1192451 0.1202878
 0.1215382 0.1228452 0.1241149 0.125268 0.1262091 0.126878 0.127309 0.1276058 0.1278648 0.1281369
 0.1284373 0.1287583 0.1290793 0.129381 0.1296613 0.1299375 0.1302374 0.1305749 0.130927 0.1312433
 0.1314963 0.1317169 0.1319733 0.1323084 0.1326983 0.1330777 0.1334102 0.1337196 0.1340389 0.1343492
 0.1346008 0.1347859 0.1349552 0.1351685 0.1354547 0.1358059 0.1361791 0.1365072 0.1367456 0.1369132
 0.1370719 0.1372676 0.1375016 0.1377535 0.1380085 0.1382597 0.1385022 0.1387422 0.1390026 0.1392996
 0.1396092 0.1398758 0.1400676 0.1402127 0.1403701 0.1405697 0.140792 0.1410006 0.1411895 0.141394
 0.1416556 0.1419729 0.1422908 0.1425441 0.1427128 0.1428311 0.1429501 0.1431018 0.1432937 0.1435181
 0.1437552 0.1439777 0.14417 0.1443436 0.1445256 0.1447298 0.1449473 0.1451626 0.1453705 0.1455728
 0.1457696 0.1459625 0.1461637 0.1463954 0.1466723 0.1469813 0.1472812 0.1475303 0.1477169 0.1478608
 0.1479903 0.1481232 0.1482679 0.1484305 0.1486152 0.148821 0.1490407 0.1492624 0.1494754 0.1496764
 0.1498709 0.1500678 0.1502719 0.1504823 0.1506969 0.1509178 0.1511475 0.1513808 0.1516049 0.1518099
 0.1519991 0.1521855 0.1523804 0.1525839 0.1527851 0.1529732 0.1531499 0.1533254 0.1535058 0.1536909
 0.153881 0.154079 0.154284 0.1544897 0.1546895 0.1548823 0.1550729 0.1552683 0.1554716 0.1556799
 0.1558867 0.1560866 0.1562772 0.1564611 0.156646 0.1568381 0.1570369 0.1572389 0.1574434 0.157652
 0.1578642 0.1580746 0.1582767 0.1584698 0.1586609 0.1588583 0.1590635 0.159271 0.159472 0.1596607
 0.1598404 0.1600219 0.1602113 0.1604055 0.1606032 0.1608095 0.161025 0.1612412 0.1614528 0.1616656
 0.1618869 0.1621151 0.1623426 0.1625645 0.1627838 0.1630066 0.1632315 0.1634475 0.1636457 0.1638275
 0.1640012 0.1641749 0.1643534 0.1645334 0.164706 0.1648688 0.1650313 0.1652043 0.165391 0.1655881
 0.1657915 0.1659982 0.1662089 0.1664239 0.1666369 0.16684 0.1670341 0.1672257 0.1674195 0.1676184
 0.1678239 0.1680345 0.1682483 0.1684655 0.1686807 0.1688847 0.169079 0.1692753 0.1694787 0.1696859
 0.1698965 0.1701108 0.1703216 0.1705246 0.170725 0.1709291 0.171137 0.1713468 0.1715547 0.1717574
 0.1719587 0.1721662 0.1723802 0.1725968 0.1728165 0.1730398 0.1732614 0.1734768 0.1736846 0.1738829
 0.1740784 0.1742868 0.1745136 0.1747456 0.1749715 0.1751921 0.1754094 0.1756242 0.1758402 0.1760561
 0.1762671 0.1764767 0.1766869 0.176876 0.1769954 0.1769415 0.176459 0.1750331 0.1718706 0.1660474
 0.1568642 0.1442791 0.1290789 0.1126026 0.0962394 0.08105946 0.06770858 0.05649088 0.04749992 0.04069651
 0.03595877 0.03317572 0.03234958 0.03370273 0.03778961 0.04516163 0.0551325 0.06470469 0.06974882 0.06826024
 0.0622692 0.0559893 0.05232643 0.05148923 0.05224504 0.05353685 0.05502002 0.05687594 0.05943135 0.06277845
 0.06675199 0.07133801 0.07687743 0.08362787 0.09123807 0.09889781 0.1060374 0.112766 0.1195935 0.1268065
 0.1341684 0.1411563 0.1473763 0.1527522 0.1574422 0.1616669 0.1655902 0.1692962 0.172826 0.1761759
 0.1792295 0.1817296 0.1834025 0.1841655 0.1842246 0.1839603 0.1837064 0.183622 0.1837252 0.1839874
 0.1843804 0.1848847 0.1854936 0.1862006 0.1869776 0.1877813 0.1885812 0.1893642 0.1901187 0.1908287
 0.1914817 0.1920737 0.1926111 0.1931087 0.1935755 0.1940071 0.1943976 0.1947543 0.195093 0.1954261
 0.1957564 0.1960747 0.1963665 0.1966265 0.1968645 0.1970947 0.1973235 0.1975493 0.1977678 0.1979773
 0.1981809 0.1983838 0.1985879 0.1987927 0.1989991 0.1992087 0.1994204 0.1996319 0.199839 0.2000343
 0.200215 0.2003908 0.2005751 0.2007712 0.2009723 0.2011728 0.2013691 0.2015586 0.2017421 0.2019249
 0.2021115 0.2023029 0.2024987 0.2026959 0.2028923 0.2030942 0.2033107 0.2035384 0.2037641 0.2039829
 0.2041999 0.2044156 0.2046244 0.2048244 0.2050162 0.205197 0.2053655 0.2055304 0.2057084 0.2059117
 0.2061368 0.2063653 0.2065798 0.2067765 0.2069624 0.207146 0.207332 0.2075171 0.207695 0.2078756
 0.2080842 0.2083296 0.2085898 0.2088429 0.209088 0.2093269 0.2095555 0.2097796 0.2100075 0.2102219
 0.2103933 0.2105313 0.2106984 0.2109593 0.211313 0.2116854 0.2119959 0.2122295 0.2124309 0.2126498
 0.2129102 0.2131901 0.2134001 0.2134445 0.2133659 0.2133704 0.213638 0.2141426 0.2147053 0.2151802
 0.2155432 0.2158417 0.216113 0.2163459 0.2164915 0.2165157 0.2164681 0.2164978 0.2167543 0.2172382
 0.2177896 0.2182487 0.2185778 0.2188134 0.218992 0.2191443 0.2192501 0.2191774 0.2188272 0.2183958
 0.2183248 0.2188685 0.2198012 0.2206562 0.2211877 0.2214951 0.2217552 0.2220082 0.2222112 0.2222821
 0.2219957 0.2211111 0.2198427 0.218995 0.2192989 0.2206739 0.222359 0.2236705 0.2244352 0.224827
 0.2250687 0.2252799 0.225389 0.2251467 0.2244045 0.2234802 0.2230768 0.2236356 0.2248397 0.2259544
 0.2265786 0.2268551 0.227075 0.2273512 0.2275439 0.2272143 0.2258684 0.2236864 0.2218963 0.2219104
 0.2239404 0.226743 0.2288532 0.229845 0.2302139 0.2303011 0.2297977 0.2283105 0.2259532 0.2232942
 0.221189 0.2206753 0.2222821 0.2251592 0.2275591 0.2285645 0.2288624 0.2295985 0.231005 0.232405
 0.2330973 0.2329027 0.2320397 0.2307333 0.2291093 0.2275598 0.2269606 0.2280481 0.2305274 0.2331786
 0.2349856 0.2359056 0.2363364 0.2359259 0.2333351 0.2278459 0.2213687 0.2179102 0.2200369 0.2261914
 0.2323671 0.2360491 0.2375921 0.2383327 0.2387973 0.2385588 0.2364832 0.2313448 0.2237539 0.2173758
 0.216454 0.22161 0.2291392 0.2344709 0.2352869 0.2317688 0.2257716 0.220263 0.2181088 0.2203393
 0.2257057 0.2319112 0.2369882 0.2398346 0.2401946 0.2385502 0.2360959 0.2344534 0.2344933 0.2350469
 0.2337993 0.2302191 0.2264461 0.224146 0.2219247 0.2178978 0.2138338 0.2139874 0.2195787 0.2267559
 0.2309201 0.2313839 0.2305478 0.2295215 0.2262216 0.218368 0.2078014 0.2005779 0.2016789 0.2098387
 0.2186748 0.2229455 0.2227206 0.221499 0.2215352 0.2215378 0.2184848 0.2115741 0.2042212 0.2011884
 0.2035076 0.2075484 0.2093024 0.2075744 0.2025626 0.1945707 0.1863159 0.1837465 0.1910149 0.2053789
 0.2193546 0.2268799 0.2255068 0.2150293 0.1983631 0.1833762 0.179065 0.1874775 0.2012173 0.2102512
 0.2098616 0.2014658 0.188349 0.1734554 0.1607687 0.1556725 0.1617126 0.1770221 0.1943765 0.2047457
 0.2022577 0.1888038 0.1745235 0.1705032 0.1786319 0.1902668 0.1959169 0.1938666 0.1887824 0.185723
 0.1872441 0.192969 0.1999771 0.2055409 0.2092972 0.2101315 0.2032359 0.1858746 0.1650142 0.1527433
 0.1537197 0.1627563 0.1744916 0.1882172 0.2016224 0.2074702 0.2017644 0.1913417 0.18807 0.1962446
 0.208905 0.2163551 0.2157656 0.2116981 0.2090571 0.2078639 0.2056943 0.2033329 0.2049796 0.2124581
 0.2220397 0.2286102 0.2309929 0.2314887 0.231969 0.2324556 0.23244 0.2317367 0.230404 0.2288762
 0.2278381 0.2274532 0.2272094 0.2267005 0.225605 0.2224931 0.2151363 0.2036434 0.1924559 0.1868297
 0.1872538 0.1898187 0.1920195 0.1942132 0.1941949 0.185677 0.166604 0.1459708 0.1372761 0.1454745
 0.1632856 0.1794887 0.1875206 0.1860256 0.1754802 0.1583882 0.1419838 0.1359901 0.1446906 0.162813
 0.1811666 0.1945778 0.2025075 0.2046553 0.1999491 0.1896598 0.1786889 0.1727726 0.1749687 0.1842945
 0.1960751 0.2031729 0.1994689 0.1859291 0.1733017 0.1742103 0.1899211 0.2082516 0.217263 0.2173537
 0.2164632 0.2177295 0.2179094 0.2160072 0.2167671 0.224151 0.2355038 0.2441732 0.2453571 0.238
 0.224176 0.2095828 0.2020664 0.2052939 0.2145183 0.2216907 0.2232267 0.219529 0.2102423 0.1962711
 0.1848353 0.1851256 0.1976658 0.2131028 0.2228333 0.2268347 0.2297813 0.2329866 0.2328174 0.2262192
 0.215842 0.2084156 0.2080973 0.212832 0.2178244 0.2205981 0.221017 0.2184024 0.2119574 0.2040421
 0.2002071 0.2043561 0.214679 0.2253275 0.2316316 0.233009 0.2315807 0.2294157 0.2271452 0.2241427
 0.2199074 0.2158522 0.2150327 0.2188948 0.2249864 0.22948 0.231558 0.2336901 0.2377421 0.2424019
 0.2447825 0.2435759 0.2402877 0.237913 0.2385356 0.2416825 0.244677 0.2449224 0.2423738 0.2398165
 0.2403062 0.2442594 0.2493906 0.2533073 0.2554567 0.2566483 0.2576595 0.2585514 0.2586219 0.2569404
 0.2536635 0.2508012 0.2507892 0.2540764 0.2587028 0.2623283 0.2641186 0.2646193 0.2644844 0.2637951
 0.2624267 0.2606556 0.2591767 0.258559 0.2588359 0.2596425 0.2605885 0.2614297 0.2620538 0.262462
 0.262727 0.262904 0.263011 0.2630844 0.2631642 0.2632128 0.2631516 0.2630175 0.2629884 0.2631863
 0.2635172 0.2637707 0.2638125 0.2635985 0.2630646 0.2621415 0.2608811 0.2594441 0.2579184 0.2562604
 0.2545248 0.2531135 0.2526546 0.2535345 0.255543 0.257997 0.2602004 0.2617937 0.2627652 0.2632691
 0.2634807 0.2635408 0.2635357 0.2634893 0.2633809 0.2631831 0.2628883 0.2625152 0.2620994 0.2616841
 0.2613098 0.2609972 0.2607314 0.260465 0.2601454 0.2597457 0.2592747 0.2587637 0.2582352 0.2576767
 0.2570415 0.2562842 0.2554025 0.254449 0.2535088 0.252653 0.2518918 0.2511668 0.2504033 0.2495663
 0.2486469 0.2476205 0.2464762 0.2452925 0.2442228 0.2433688 0.2426945 0.2420762 0.2414028 0.2406204
 0.2397253 0.2387487 0.2377324 0.2366965 0.235633 0.2345259 0.2333614 0.2321206 0.2307827 0.2293446
 0.2278237 0.2262424 0.2246209 0.2229749 0.2212949 0.2195193 0.2175383 0.2152242 0.2124578 0.2091462
 0.2052542 0.200841 0.196063 0.1911283 0.1862373 0.1815513 0.1772011 0.173303 0.1699531 0.1672124
 0.1651157 0.1636934 0.1629712 0.1629549 0.1636272 0.1649568 0.1668894 0.1693258 0.1721175 0.1750866
 0.1780551 0.1808746 0.1834626 0.185828 0.188043 0.1901618 0.1921627 0.1939832 0.1955962 0.1970211
 0.198268 0.199316 0.2001597 0.2008422 0.2014225 0.2019291 0.2023635 0.2027307 0.2030475 0.203327
 0.2035703 0.2037801 0.2039715 0.2041638 0.204367 0.204585 0.2048284 0.2051184 0.2054781 0.2059168
 0.2064193 0.206954 0.2075019 0.2080725 0.2086858 0.2093498 0.2100727 0.2108876 0.211844 0.2129674
 0.2142357 0.2155922 0.2169716 0.2183051 0.2195155 0.2205273 0.2212948 0.2218149 0.2221092 0.2222042
 0.222131 0.2219289 0.2216344 0.2212673 0.2208303 0.2203198 0.219737 0.2190929 0.2184052 0.2176911
 0.2169645 0.2162404 0.2155363 0.2148638 0.2142195 0.2135888 0.2129612 0.2123381 0.2117281 0.2111382
 0.2105678 0.2100081 0.209446 0.2088749 0.208299 0.2077147 0.2070869 0.2063626 0.2055188 0.2045816
 0.2035864 0.2025292 0.2013745 0.2001021 0.1987275 0.197278 0.1957653 0.1941876 0.1925445 0.1908331
 0.1890347 0.1871248 0.1851105 0.1830531 0.1810455 0.179168 0.1774575 0.175901 0.174453 0.1730714
 0.171741 0.1704636 0.1692386 0.1680654 0.1669483 0.1658853 0.1648639 0.1638792 0.1629474 0.1620958
 0.1613493 0.1607215 0.1602047 0.1597695 0.159381 0.15902 0.1587032 0.1584846 0.1584147 0.158477
 0.1585822 0.1586357 0.1585975 0.1584808 0.1583274 0.1581884 0.1580988 0.1580571 0.1580298 0.1579679
 0.1578121 0.1574918 0.1569292 0.1560569 0.1548517 0.1533511 0.1516313 0.1497863 0.1479377 0.1462266
 0.144764 0.1435987 0.1427257 0.1420923 0.1416081 0.1411971 0.1408553 0.1406473 0.1406443 0.1408439
 0.1411273 0.1413285 0.1413894 0.1414194 0.1415891 0.1419981 0.1426364 0.1434037 0.144159 0.1448028
 0.1453104 0.1456833 0.1459198 0.1460414 0.1460831 0.1460491 0.1459278 0.1457318 0.1454834 0.1451859
 0.1448352 0.1444247 0.1439387 0.1433704 0.1427266 0.1420035 0.1411955 0.140313 0.1393379 0.1382139
 0.1369733 0.135833 0.1350902 0.134937 0.1353671 0.136198 0.1371991 0.1382439 0.1392743 0.1401132
 0.1405165 0.1405529 0.1407813 0.1418409 0.1438449 0.1462606 0.1483782 0.1498143 0.1505563 0.1506966
 0.1502965 0.1494148 0.1480722 0.146225 0.1438886 0.1412001 0.1382998 0.1353 0.1323841 0.129758
 0.1275242 0.1257095 0.1243183 0.123373 0.1229712 0.1227417 0.1208427 0.1148904 0.1056378 0.09867223
 0.09973902 0.1082784 0.1177963 0.1227378 0.1229276 0.1213023 0.1198804 0.1189458 0.1183841 0.1183464
 0.1189749 0.1201404 0.1214702 0.1225668 0.1232505 0.1235441 0.123408 0.1224933 0.1200647 0.1152605
 0.1077986 0.09857239 0.08933902 0.08169552 0.07636032 0.07319729 0.07158326 0.07077768 0.0702729 0.07000891
 0.07026495 0.07132114 0.07322855 0.07586385 0.07906114 0.08255951 0.08591419 0.08869455 0.09081309 0.09250049
 0.09393381 0.09503141 0.09562119 0.09566321 0.09526893 0.09460366 0.09381698 0.09300083 0.09214273 0.09114199
 0.08996396 0.08879425 0.08793695 0.08752043 0.08740015 0.08736964 0.08734487 0.0873231 0.08729628 0.08725238
 0.08719609 0.08716546 0.08725105 0.08753887 0.0879975 0.0884724 0.08881228 0.08898111 0.08905184 0.08907177
 0.08891626 0.0883887 0.08755431 0.08679085 0.08631074 0.08580957 0.08486525 0.08357982 0.08254316 0.08218427
 0.08237553 0.082671 0.08273979 0.08253679 0.08224483 0.08216513 0.08251875 0.08318199 0.08369316 0.08367719
</values></Ydata></ScRf><Data_Parameters_AB><parameter name="DPF">1</parameter><parameter name="NPT">3497</parameter><parameter name="FXV">3996</parameter><parameter name="LXV">500</parameter><parameter name="CSF">1</parameter><parameter name="MXY">0.0210952516645193</parameter><parameter name="MNY">-0.0590206459164619</parameter><parameter name="DAT">30/05/2022</parameter><parameter name="TIM">11:13:24.361 (GMT+2)</parameter><parameter name="DXU">WN</parameter></Data_Parameters_AB><AB__Qtest><MainReport name="Quality Test Report"><Header><Line><Legend>Test result ok/not ok [1/0]: </Legend><Value>0</Value></Line><Line><Legend>Method file: </Legend><Value>C:\Users\Public\Documents\Bruker\OPUS_8.2.28\QT\IRBT_v3_default.QT</Value></Line></Header><Matrix><Line><Legend></Legend><Legend>min</Legend><Legend>max</Legend><Legend>measured</Legend></Line><Line><Value>Absorption (X-Range 1):</Value><Value>0.400000</Value><Value>2.000000</Value><Value>0.048630</Value></Line><Line><Value>Noise (X-Range 4):</Value><Value></Value><Value>0.000300</Value><Value>0.000053</Value></Line><Line><Value>Signal/Noise (X-Range 2):</Value><Value>200.000000</Value><Value></Value><Value>16.864841</Value></Line><Line><Value>Signal/Noise (X-Range 3):</Value><Value>40.000000</Value><Value></Value><Value>13.868688</Value></Line><Line><Value>Water vapour (X-Range 5):</Value><Value></Value><Value>0.000300</Value><Value>0.000063</Value></Line><Line><Value>Signal/Water (X-Range 2):</Value><Value>100.000000</Value><Value></Value><Value>14.042746</Value></Line><Line><Value>Signal/Water (X-Range 3):</Value><Value>20.000000</Value><Value></Value><Value>11.547957</Value></Line><Line><Value>Fringes (X-Range 6):</Value><Value></Value><Value>0.000100</Value><Value>0.000066</Value></Line></Matrix></MainReport></AB__Qtest><Data_Parameters_ScSm><parameter name="DPF">1</parameter><parameter name="NPT">1814</parameter><parameter name="FXV">3996.33169228125</parameter><parameter name="LXV">499.541461535156</parameter><parameter name="CSF">1</parameter><parameter name="MXY">0.268260508775711</parameter><parameter name="MNY">0.0355332866311073</parameter><parameter name="DAT">30/05/2022</parameter><parameter name="TIM">11:13:24.361 (GMT+2)</parameter><parameter name="DXU">WN</parameter></Data_Parameters_ScSm><Data_Parameters_ScRf><parameter name="DPF">1</parameter><parameter name="NPT">1820</parameter><parameter name="FXV">4004.04661832813</parameter><parameter name="LXV">495.683998511719</parameter><parameter name="CSF">1</parameter><parameter name="MXY">0.264619320631027</parameter><parameter name="MNY">0.0323495790362358</parameter><parameter name="DAT">30/05/2022</parameter><parameter name="TIM">11:12:58.510 (GMT+2)</parameter><parameter name="DXU">WN</parameter></Data_Parameters_ScRf><Optic_Parameters_Rf><parameter name="APR">0</parameter><parameter name="APT">Open</parameter><parameter name="BMS">KBr</parameter><parameter name="DTC">RT-DLaTGS_IR-Biotyper [Microplate reader]</parameter><parameter name="HPF">0</parameter><parameter name="LPF">10.0</parameter><parameter name="LPV">4000</parameter><parameter name="PGR">0</parameter><parameter name="RCH">Module port</parameter><parameter name="RDX">0</parameter><parameter name="SRC">MIR</parameter><parameter name="VEL">10.0</parameter><parameter name="SON">Off</parameter></Optic_Parameters_Rf><Acquisition_Parameters_Rf><parameter name="ADT">1</parameter><parameter name="AQM">DD</parameter><parameter name="CFE">0</parameter><parameter name="COR">0</parameter><parameter name="DEL">0</parameter><parameter name="DLY">0</parameter><parameter name="HFW">8000</parameter><parameter name="LFW">0</parameter><parameter name="NSR">32</parameter><parameter name="PLF">AB</parameter><parameter name="RES">6</parameter><parameter name="RGN">-1</parameter><parameter name="STR">0</parameter><parameter name="TCL">MakeCompatibleScalar (0, {WSV=1.000000, ARV=0});</parameter><parameter name="TDL">37</parameter><parameter name="RPO">0</parameter></Acquisition_Parameters_Rf><FT_-_Parameters_Rf><parameter name="APF">B3</parameter><parameter name="HFQ">500</parameter><parameter name="LFQ">4000</parameter><parameter name="NLI">0</parameter><parameter name="PHR">24</parameter><parameter name="PHZ">ML</parameter><parameter name="SPZ">NO</parameter><parameter name="ZFF">1</parameter></FT_-_Parameters_Rf><Optic_Parameters_><parameter name="APR">0</parameter><parameter name="APT">Open</parameter><parameter name="BMS">KBr</parameter><parameter name="CHN">Module port</parameter><parameter name="DTC">RT-DLaTGS_IR-Biotyper [Microplate reader]</parameter><parameter name="HPF">0</parameter><parameter name="LPF">10.0</parameter><parameter name="LPV">4000</parameter><parameter name="PGN">0</parameter><parameter name="RDX">0</parameter><parameter name="SRC">MIR</parameter><parameter name="VEL">10.0</parameter><parameter name="SON">Off</parameter></Optic_Parameters_><FT_-_Parameters_><parameter name="APF">B3</parameter><parameter name="HFQ">500</parameter><parameter name="LFQ">4000</parameter><parameter name="NLI">0</parameter><parameter name="PHR">24</parameter><parameter name="PHZ">ML</parameter><parameter name="SPZ">NO</parameter><parameter name="ZFF">1</parameter></FT_-_Parameters_><Acquisition_Parameters_><parameter name="ADT">1</parameter><parameter name="AQM">DD</parameter><parameter name="CFE">0</parameter><parameter name="COR">0</parameter><parameter name="DEL">0</parameter><parameter name="DLY">0</parameter><parameter name="HFW">8000</parameter><parameter name="LFW">0</parameter><parameter name="NSS">32</parameter><parameter name="PLF">AB</parameter><parameter name="RES">6</parameter><parameter name="SOT">0</parameter><parameter name="TCL">MakeCompatibleScalar (0, {WSV=1.000000, ARV=0});</parameter><parameter name="TDL">37</parameter><parameter name="SPO">0</parameter><parameter name="SGN">-1</parameter></Acquisition_Parameters_><Instrument_Parameters_Rf><parameter name="HFL">15800.168544</parameter><parameter name="LFL">0</parameter><parameter name="LWN">15800.168544</parameter><parameter name="ABP">32197</parameter><parameter name="SSP">1</parameter><parameter name="ARG">2</parameter><parameter name="ASG">2</parameter><parameter name="ASS">32</parameter><parameter name="GFW">16</parameter><parameter name="GBW">16</parameter><parameter name="BFW">0</parameter><parameter name="BBW">0</parameter><parameter name="PKA">7325</parameter><parameter name="PKL">4990</parameter><parameter name="PRA">7482</parameter><parameter name="PRL">5001</parameter><parameter name="P2A">1</parameter><parameter name="P2L">1</parameter><parameter name="P2R">1</parameter><parameter name="P2K">1</parameter><parameter name="DAQ">0</parameter><parameter name="AG2">1</parameter><parameter name="SSM">1</parameter><parameter name="RSN">25174</parameter><parameter name="CRR">0</parameter><parameter name="SRT">1653909178.511</parameter><parameter name="DUR">19.6369934082031</parameter><parameter name="TSC">27.9</parameter><parameter name="MVD">0.448005765676498</parameter><parameter name="AN1">0.225782647571712</parameter><parameter name="AN2">0</parameter><parameter name="VSN">2.485 Apr  4 2017</parameter><parameter name="SRN">0085</parameter><parameter name="CAM">0</parameter><parameter name="INS">IR-Biotyper</parameter><parameter name="FOC">69</parameter><parameter name="RDY">1</parameter><parameter name="ARS">32</parameter></Instrument_Parameters_Rf><Sample_Parameters_><parameter name="BLD"></parameter><parameter name="CNM">Admin</parameter><parameter name="CPY"></parameter><parameter name="DPM"></parameter><parameter name="EXP">IRBT_v3_32Scans.XPM</parameter><parameter name="LCT"></parameter><parameter name="SFM">Microplate, HTS-XT</parameter><parameter name="SNM">220530-1021_GFG29M (D_10)_B2_19b08a53-d897-4ccc-8e7e-2c61b7f8e91a.0</parameter><parameter name="XPP">C:\Users\Public\Documents\Bruker\OPUS_8.2.28\XPM</parameter><parameter name="IST">OK</parameter><parameter name="CPG">1252</parameter><parameter name="UID">f4e967e9-1b73-4a0d-8e43-85876e432dd7</parameter></Sample_Parameters_><Instrument_Parameters_><parameter name="HFL">15800.168544</parameter><parameter name="LFL">0</parameter><parameter name="LWN">15800.168544</parameter><parameter name="ABP">32197</parameter><parameter name="SSP">1</parameter><parameter name="ASG">2</parameter><parameter name="ARG">2</parameter><parameter name="ASS">32</parameter><parameter name="GFW">16</parameter><parameter name="GBW">16</parameter><parameter name="BFW">0</parameter><parameter name="BBW">0</parameter><parameter name="PKA">7671</parameter><parameter name="PKL">4990</parameter><parameter name="PRA">7906</parameter><parameter name="PRL">4993</parameter><parameter name="P2A">1</parameter><parameter name="P2L">1</parameter><parameter name="P2R">1</parameter><parameter name="P2K">1</parameter><parameter name="DAQ">0</parameter><parameter name="AG2">1</parameter><parameter name="SSM">1</parameter><parameter name="RSN">13213</parameter><parameter name="CRR">0</parameter><parameter name="SRT">1653909204.362</parameter><parameter name="DUR">19.6369934082031</parameter><parameter name="TSC">27.9</parameter><parameter name="MVD">0.383664190769196</parameter><parameter name="AN1">0.225809459142674</parameter><parameter name="AN2">0</parameter><parameter name="VSN">2.485 Apr  4 2017</parameter><parameter name="SRN">0085</parameter><parameter name="CAM">0</parameter><parameter name="INS">IR-Biotyper</parameter><parameter name="FOC">69</parameter><parameter name="RDY">1</parameter></Instrument_Parameters_><History/></OPUSDataFile>
