<?xml version="1.0" encoding="UTF-8" ?>
<OPUSDataFile><AB><Ydata ylabel="Absorbance Units"><values byteorder="INTEL" format="FLOAT32" numvalues="3497"> -0.07227734 -0.0723414 -0.07239744 -0.07244634 -0.07247451 -0.07248127 -0.07246426 -0.07242449 -0.07237332 -0.07231303
 -0.07226308 -0.0722236 -0.07220636 -0.07220772 -0.0722249 -0.07225493 -0.07229099 -0.07233401 -0.07238361 -0.07243753
 -0.07249686 -0.07254971 -0.07259029 -0.07260968 -0.0726001 -0.07257215 -0.07252476 -0.07248009 -0.07244211 -0.07242049
 -0.07241745 -0.07242413 -0.07244013 -0.07245154 -0.07245812 -0.07245266 -0.07243637 -0.07241167 -0.07238159 -0.07235745
 -0.07234269 -0.0723516 -0.07238423 -0.07244854 -0.07253879 -0.07265344 -0.07278189 -0.07291756 -0.07304615 -0.07315987
 -0.07324424 -0.07329115 -0.07329746 -0.07325763 -0.07319072 -0.07309689 -0.07300755 -0.07292587 -0.07287131 -0.07284512
 -0.07284551 -0.07287169 -0.07291194 -0.07296608 -0.07302741 -0.07309628 -0.07317189 -0.07325125 -0.07332789 -0.07339644
 -0.07344377 -0.07347079 -0.07347045 -0.07345451 -0.07342938 -0.07340603 -0.07339507 -0.0733909 -0.07339616 -0.07339399
 -0.07337929 -0.07334786 -0.07329554 -0.07324293 -0.07319042 -0.07317134 -0.07318759 -0.0732655 -0.07340451 -0.07360547
 -0.07386125 -0.07413234 -0.07440574 -0.07460999 -0.07474494 -0.07476605 -0.07470071 -0.07457125 -0.07440966 -0.07426415
 -0.07414587 -0.07408458 -0.07406373 -0.07408699 -0.07412012 -0.07414969 -0.07415907 -0.07413647 -0.07410388 -0.07406144
 -0.07404234 -0.07405139 -0.07409073 -0.07416091 -0.07423165 -0.07430208 -0.0743525 -0.07438706 -0.07442216 -0.074462
 -0.07453392 -0.07463185 -0.07475843 -0.0748969 -0.0750192 -0.07511659 -0.07516324 -0.07517099 -0.07514086 -0.07508431
 -0.07500982 -0.07491708 -0.07480412 -0.07468556 -0.07455917 -0.07446688 -0.07441385 -0.07444185 -0.07455847 -0.07475737
 -0.07503957 -0.0752783 -0.07546573 -0.07544709 -0.07524413 -0.07491851 -0.07450095 -0.07414512 -0.07385017 -0.07369222
 -0.073654 -0.07374774 -0.07393624 -0.07418985 -0.07445189 -0.074665 -0.07479919 -0.07480713 -0.07473649 -0.0745872
 -0.0744354 -0.07430709 -0.0742159 -0.07417277 -0.07414026 -0.07411486 -0.07407785 -0.07402758 -0.07398601 -0.07395461
 -0.0739611 -0.07400303 -0.07408026 -0.07418503 -0.07428876 -0.07438422 -0.07443739 -0.07444946 -0.07440353 -0.07431328
 -0.07418462 -0.07404064 -0.07390045 -0.07378537 -0.07371351 -0.07369264 -0.07373342 -0.07382175 -0.07396026 -0.0741131
 -0.07427621 -0.0744125 -0.07451749 -0.07456987 -0.07456803 -0.07450502 -0.07438172 -0.07421049 -0.07399544 -0.07376948
 -0.07353608 -0.0733268 -0.07314076 -0.07299196 -0.07287731 -0.07279846 -0.07275074 -0.07273189 -0.07273011 -0.07273703
 -0.07273735 -0.07271762 -0.07267818 -0.07261241 -0.07253987 -0.07246448 -0.07240077 -0.0723533 -0.07231901 -0.07229821
 -0.07228549 -0.07228046 -0.07228329 -0.07229376 -0.07230882 -0.07232728 -0.07233923 -0.07234401 -0.07233288 -0.07230777
 -0.07226779 -0.07221824 -0.07216708 -0.07212061 -0.07209026 -0.07207789 -0.07208876 -0.07212313 -0.07218049 -0.07226828
 -0.07239043 -0.0725479 -0.07274844 -0.07295499 -0.0731662 -0.07332457 -0.07342221 -0.07344108 -0.07337946 -0.07323521
 -0.07300811 -0.07268814 -0.0722836 -0.07184302 -0.0713835 -0.07100163 -0.07070116 -0.07054823 -0.07051975 -0.07061708
 -0.070785 -0.07095522 -0.07109054 -0.07112106 -0.07108132 -0.07096793 -0.07083082 -0.07069474 -0.07056868 -0.07046503
 -0.07035486 -0.07023533 -0.07007979 -0.06988275 -0.06965481 -0.06939587 -0.06913818 -0.06888323 -0.0686575 -0.0684614
 -0.06831282 -0.06820714 -0.06814083 -0.06809779 -0.06803218 -0.06793676 -0.06776784 -0.06755138 -0.06730305 -0.06704356
 -0.06680456 -0.06656937 -0.06634149 -0.06608769 -0.06579192 -0.06544639 -0.06503982 -0.06460386 -0.06414068 -0.06368829
 -0.06325269 -0.06284163 -0.06245672 -0.06206473 -0.06166393 -0.06121861 -0.06073394 -0.06023091 -0.05971619 -0.0592327
 -0.05877313 -0.05833929 -0.05792337 -0.05751186 -0.05710061 -0.0566846 -0.05624487 -0.05576768 -0.05522519 -0.05459015
 -0.05387152 -0.05306272 -0.05219271 -0.05127426 -0.05029453 -0.04925251 -0.04813922 -0.04694983 -0.04572388 -0.04446359
 -0.04320331 -0.04194387 -0.0406945 -0.03945718 -0.03825176 -0.03708009 -0.0359652 -0.03489735 -0.03386437 -0.03285154
 -0.03182675 -0.03077952 -0.02969309 -0.02853373 -0.0272725 -0.02586551 -0.02425373 -0.02250307 -0.0206077 -0.01870854
 -0.01685709 -0.01507734 -0.01339001 -0.01173618 -0.01011088 -0.00847413 -0.006822212 -0.005155581 -0.003475574 -0.001814137
 -0.000171627 0.001424567 0.002993438 0.004590861 0.00625511 0.008140354 0.01021835 0.01254229 0.01498234 0.01737452
 0.01967566 0.02176141 0.02372092 0.02556981 0.02739966 0.02925988 0.03117611 0.03317176 0.03521767 0.03731223
 0.03942758 0.04155775 0.04371306 0.04589318 0.04813461 0.0504375 0.05280099 0.0552169 0.05761836 0.06000309
 0.06232116 0.06458657 0.06681458 0.06901278 0.07120442 0.07338678 0.07556105 0.07773722 0.07992505 0.08213048
 0.08436707 0.08661056 0.08884846 0.09108452 0.09330478 0.09558272 0.09793283 0.1003926 0.1029786 0.1055926
 0.1082299 0.1107778 0.1132351 0.1156063 0.1178997 0.1201829 0.1224597 0.1247857 0.1271522 0.1295705
 0.1320157 0.1344446 0.1368446 0.1391663 0.1414519 0.1437111 0.1460188 0.1484362 0.1509706 0.1536597
 0.1564118 0.1592095 0.1619749 0.1646855 0.1673286 0.1698983 0.1724112 0.1748673 0.177304 0.1797234
 0.1821629 0.1846208 0.1870983 0.1895927 0.1920903 0.1945959 0.1971189 0.1996598 0.2022292 0.2048109
 0.2073879 0.2099448 0.2124578 0.21493 0.2173526 0.2197453 0.2221118 0.2244786 0.2268568 0.2292504
 0.231667 0.23407 0.2364551 0.2388011 0.2411046 0.2434081 0.2457138 0.2480666 0.2504622 0.2528805
 0.2553166 0.2577342 0.2601388 0.2625308 0.2649094 0.2672771 0.2696233 0.2719308 0.2742026 0.2764314
 0.278635 0.2808212 0.2830085 0.2852049 0.2874292 0.2896908 0.2919889 0.294331 0.2966718 0.2990078
 0.3012936 0.3035241 0.3057069 0.3078427 0.3099548 0.3120414 0.3140953 0.3161162 0.3180954 0.3200391
 0.3219604 0.323863 0.3257594 0.3276526 0.3295513 0.3314586 0.333385 0.3353163 0.3372475 0.339163
 0.3410469 0.3429233 0.3447957 0.346689 0.3486176 0.3505385 0.3524495 0.3542992 0.3560809 0.3578338
 0.3595611 0.3613457 0.3631853 0.3650964 0.3670655 0.3690386 0.3710055 0.3729059 0.3747436 0.376492
 0.3781752 0.3798138 0.3814338 0.3830757 0.3847277 0.3863987 0.3880561 0.3896793 0.39128 0.3928527
 0.394436 0.396042 0.3976639 0.3993047 0.4009318 0.4025423 0.4041346 0.4057085 0.4072675 0.4088106
 0.4103256 0.4118196 0.4133174 0.4148314 0.4164189 0.418067 0.4197846 0.4215354 0.4232699 0.4249696
 0.4265943 0.4281521 0.4296362 0.4310594 0.4324257 0.4337454 0.4350223 0.4362634 0.4374703 0.4386482
 0.4397952 0.4409402 0.4420841 0.4432817 0.4445352 0.4458717 0.4472871 0.4487547 0.4502673 0.4517797
 0.4532848 0.4547402 0.4561387 0.4574397 0.4586549 0.4597733 0.4608395 0.4618906 0.4629677 0.4641193
 0.4653323 0.4666234 0.4679295 0.4692353 0.4704884 0.4716675 0.4727907 0.4738529 0.4749239 0.4760109
 0.477125 0.4782643 0.4793246 0.4803012 0.4810972 0.4817336 0.4822559 0.4826981 0.4831926 0.4837445
 0.4844347 0.4852367 0.4861502 0.4871404 0.4881749 0.4892224 0.4902458 0.4912508 0.4922166 0.4932126
 0.4942554 0.4954032 0.4966874 0.4980391 0.4994644 0.5007957 0.5020193 0.5030258 0.5038126 0.5044231
 0.5048704 0.5052952 0.5057041 0.5062084 0.5067968 0.5074904 0.5082814 0.5091578 0.5101312 0.5112218
 0.5124152 0.5137264 0.5150719 0.5164043 0.5176448 0.5187231 0.5196828 0.5205052 0.5213251 0.5221704
 0.5231211 0.5242003 0.525373 0.5266412 0.5279123 0.5291812 0.5303597 0.5314482 0.5324091 0.5332584
 0.5340505 0.5348136 0.5356672 0.5366217 0.5377688 0.5390759 0.5405465 0.5421149 0.5437183 0.5453008
 0.5467947 0.5482043 0.5495019 0.5507545 0.551975 0.5532291 0.5545358 0.5559183 0.5573812 0.5589442
 0.5606079 0.5624155 0.5643684 0.5664709 0.5687118 0.5709864 0.5732694 0.5753762 0.5772923 0.5788611
 0.5801161 0.5810297 0.5816986 0.582242 0.5827662 0.5834419 0.5842739 0.5853539 0.5865361 0.5877941
 0.5889301 0.5898669 0.5905105 0.5908093 0.5908308 0.5905687 0.590169 0.5896444 0.5890836 0.5884901
 0.5878447 0.5871437 0.586337 0.5854318 0.5844375 0.5833689 0.5822833 0.5811775 0.5800825 0.5789636
 0.5777918 0.576512 0.575058 0.57339 0.5714476 0.5692537 0.5667864 0.5641437 0.5613449 0.5585023
 0.5556462 0.552834 0.5500805 0.5473925 0.5447725 0.5422112 0.5397077 0.5372305 0.5347766 0.5322986
 0.5298034 0.5272972 0.5248032 0.522406 0.52011 0.5179825 0.5159757 0.5140517 0.5121523 0.5101868
 0.5081666 0.5060515 0.5039331 0.5018407 0.4998653 0.4980534 0.4964158 0.4949758 0.4936526 0.4924451
 0.4912259 0.4899839 0.488626 0.4871478 0.485558 0.483865 0.4821653 0.4804664 0.4788625 0.4773448
 0.4759369 0.4746186 0.4733568 0.4721359 0.4709159 0.4696935 0.4684483 0.4671873 0.4659084 0.464622
 0.4633324 0.4620475 0.4607707 0.459508 0.458261 0.4570357 0.455834 0.4546526 0.4534923 0.4523327
 0.4511726 0.4499877 0.4487782 0.4475365 0.4462654 0.4449759 0.4436702 0.4423628 0.4410516 0.4397409
 0.4384235 0.4370914 0.4357365 0.4343458 0.4329196 0.4314501 0.4299528 0.4284309 0.4269058 0.4253871
 0.4238816 0.4223954 0.4209121 0.419431 0.4179299 0.416406 0.4148531 0.4132708 0.411671 0.4100547
 0.4084384 0.4068222 0.4052172 0.4036224 0.4020407 0.4004692 0.3989029 0.3973401 0.3957743 0.3942097
 0.3926463 0.3910939 0.3895581 0.3880526 0.3865833 0.3851682 0.3838157 0.382533 0.3813301 0.3801711
 0.379058 0.3779121 0.3767263 0.3754422 0.3740567 0.3725927 0.371057 0.3695393 0.3680462 0.3666645
 0.3653871 0.3642427 0.3632038 0.362228 0.3612789 0.3602757 0.3592089 0.358023 0.3567667 0.3554494
 0.3541471 0.3529081 0.3517552 0.3507185 0.349748 0.3488368 0.3479455 0.3470588 0.3462215 0.3454336
 0.3447806 0.3442673 0.3439127 0.3437089 0.3435643 0.3434637 0.3432699 0.3429837 0.3425254 0.3419256
 0.3412092 0.3404195 0.3396415 0.33889 0.3382235 0.3376135 0.3370559 0.3365256 0.3359969 0.3355
 0.335036 0.3346516 0.3343677 0.3341614 0.3340388 0.3339204 0.3337971 0.3336432 0.3334569 0.3333009
 0.3331776 0.3331416 0.3331837 0.3332776 0.3334111 0.3335243 0.3336196 0.333672 0.3336903 0.3336817
 0.3336423 0.333576 0.3334624 0.333291 0.3330335 0.332671 0.3321908 0.3315745 0.3308622 0.330049
 0.3292327 0.3284261 0.3277147 0.3271126 0.3266074 0.3261993 0.3257795 0.3253419 0.3247757 0.3240867
 0.323249 0.3222838 0.3212518 0.3201731 0.3191289 0.3181182 0.3171816 0.3162943 0.3154467 0.3146075
 0.3137469 0.3128516 0.3119 0.3109127 0.3098859 0.308867 0.3078665 0.3069227 0.3060487 0.305226
 0.3044581 0.3036667 0.3028475 0.3019361 0.3009354 0.2998704 0.2987528 0.2976713 0.2966245 0.2956608
 0.2947555 0.2938723 0.2929934 0.2920629 0.2911005 0.2901003 0.2891032 0.2881416 0.2872388 0.2864188
 0.2856815 0.285031 0.2844689 0.283995 0.2836177 0.2833405 0.2831539 0.2830604 0.2830106 0.283002
 0.282952 0.2828564 0.282639 0.282304 0.2818331 0.2812459 0.2806 0.2799229 0.2793089 0.2787758
 0.2783976 0.2781741 0.2781349 0.278271 0.278583 0.2790664 0.2797166 0.2805395 0.2815357 0.282713
 0.2840741 0.2856196 0.2873487 0.2892683 0.2913763 0.2937164 0.2962906 0.29918 0.3023873 0.3059738
 0.3099306 0.3142379 0.3188742 0.3237495 0.3288497 0.3340896 0.33948 0.3449966 0.3506661 0.3565103
 0.3625501 0.3688074 0.3752995 0.3820333 0.3890501 0.39636 0.4040236 0.4120639 0.4204922 0.4293284
 0.438467 0.4479112 0.4574324 0.4670193 0.4763266 0.4853241 0.4935154 0.500851 0.5067436 0.5111972
 0.5138415 0.514868 0.514473 0.5130617 0.5113584 0.5098073 0.5092247 0.5098535 0.5122059 0.5162073
 0.5220059 0.5292782 0.5379705 0.547673 0.5582889 0.5694479 0.5810723 0.5929403 0.6050063 0.6173193
 0.6298757 0.6430124 0.6567566 0.6715789 0.6875072 0.7049574 0.7239341 0.7446989 0.7671905 0.7914571
 0.817264 0.8444071 0.8721998 0.900175 0.926473 0.9501113 0.9674069 0.976203 0.9733272 0.956113
 0.9270187 0.8852816 0.8382231 0.7868535 0.7373021 0.6904333 0.6487351 0.6124359 0.5813823 0.5555004
 0.5335062 0.5152888 0.4995075 0.4861024 0.4741413 0.4635935 0.4539257 0.4451033 0.4368333 0.4290847
 0.4217042 0.4146897 0.4079826 0.4016179 0.3955945 0.3899644 0.3847464 0.3799814 0.3756832 0.3718768
 0.3685668 0.365779 0.363516 0.3618012 0.3606369 0.3600061 0.3599026 0.3602247 0.3609512 0.3618928
 0.3630221 0.3641252 0.3651999 0.3661123 0.3669232 0.3676503 0.3684274 0.3693993 0.3707452 0.3726408
 0.3752795 0.3787913 0.3833956 0.3891563 0.3964252 0.4052309 0.4162161 0.4294507 0.445751 0.465271
 0.4880289 0.5140955 0.540634 0.5672657 0.5869155 0.5991824 0.5971115 0.5819908 0.554891 0.5181615
 0.4786828 0.4374866 0.3997228 0.3651006 0.3353456 0.3097197 0.2881868 0.270003 0.2547452 0.2418252
 0.2309379 0.2216396 0.2137756 0.2069869 0.2011975 0.1961211 0.1917209 0.1877875 0.1843052 0.1811268
 0.1782463 0.1755633 0.1730759 0.1707222 0.1685023 0.1663819 0.1643625 0.1624303 0.1605897 0.158844
 0.1571932 0.1556448 0.1541804 0.1527927 0.1514475 0.1501217 0.1487954 0.1474475 0.1461028 0.1447576
 0.1434681 0.142245 0.1411198 0.1401019 0.1391575 0.138286 0.1374146 0.1365407 0.1356219 0.1346632
 0.1336832 0.1326872 0.1317121 0.1307498 0.1298001 0.1288477 0.1278604 0.1268397 0.1257673 0.1246701
 0.1235617 0.1224753 0.1214354 0.1204601 0.1195654 0.1187471 0.1180119 0.1173295 0.1166995 0.1160695
 0.1154339 0.1147502 0.1140142 0.1132301 0.1123999 0.1115676 0.1107355 0.1099434 0.1091887 0.1084821
 0.1078189 0.1071924 0.1065989 0.1060297 0.1054802 0.1049408 0.1044092 0.1038773 0.1033519 0.1028329
 0.1023343 0.1018638 0.1014244 0.1010229 0.100637 0.1002664 0.09987465 0.0994568 0.09899405 0.09848396
 0.09794421 0.09737656 0.09681913 0.09627259 0.09576122 0.09528015 0.09482246 0.09438109 0.09393141 0.09347358
 0.09299303 0.09250171 0.09200827 0.09152589 0.09107371 0.09064577 0.09024998 0.08985665 0.08945679 0.08902141
 0.0885376 0.08800262 0.08741102 0.08678438 0.08612364 0.08545579 0.08478273 0.08412497 0.08348323 0.08286755
 0.08227699 0.08170921 0.08116217 0.08062535 0.08009817 0.07957289 0.07905157 0.07853421 0.07802369 0.0775241
 0.07703658 0.0765641 0.07610526 0.07566078 0.07522661 0.07480167 0.07438106 0.07396279 0.07354568 0.0731285
 0.07271572 0.07230762 0.07190899 0.07152032 0.07113994 0.07076774 0.07040033 0.07003891 0.06969084 0.06935863
 0.06905937 0.06879022 0.06855582 0.06834321 0.06813086 0.06790555 0.06763718 0.06732918 0.0669698 0.0665793
 0.06616657 0.06574906 0.06533865 0.06493599 0.06454471 0.06415681 0.06377076 0.063384 0.06299567 0.06260871
 0.06222328 0.06184123 0.06146267 0.06108895 0.06072059 0.06036263 0.06001535 0.05968379 0.05936553 0.05905708
 0.05875408 0.05844563 0.05813077 0.05780189 0.05746464 0.05712086 0.05677783 0.05644169 0.05611382 0.05579764
 0.0554874 0.05518259 0.054876 0.05456602 0.05424866 0.05392315 0.05358809 0.05324329 0.05288832 0.05252326
 0.0521503 0.05177011 0.05138958 0.05100923 0.05063601 0.05026815 0.04990482 0.04954244 0.04917277 0.0487954
 0.04840471 0.04800611 0.04760219 0.04719919 0.0468028 0.04641375 0.04603457 0.04566124 0.04529301 0.04492689
 0.04456195 0.04419795 0.04383483 0.04347188 0.0431091 0.04274431 0.04237751 0.04200967 0.04164151 0.04127998
 0.0409257 0.04058601 0.04025926 0.03994516 0.03964014 0.03933707 0.03903333 0.03872212 0.03840286 0.03807231
 0.03773184 0.03738032 0.037023 0.0366607 0.0363024 0.03595119 0.03561206 0.03528769 0.03497299 0.03466797
 0.03436442 0.03406144 0.03376012 0.03346075 0.03317407 0.03290021 0.03264607 0.03240899 0.03218096 0.03195791
 0.03172262 0.03147521 0.03120545 0.03092099 0.03062684 0.03033351 0.03005377 0.02979172 0.02955616 0.02933983
 0.02914329 0.02895307 0.02876511 0.02857033 0.0283651 0.02815149 0.02792875 0.027705 0.02748094 0.0272591
 0.02703947 0.02681785 0.02659456 0.02637028 0.02614683 0.02593429 0.02573243 0.02554745 0.02537444 0.02520644
 0.02503919 0.02486194 0.02467784 0.02448499 0.02429048 0.02409932 0.02391371 0.02373677 0.02356538 0.02339883
 0.02323619 0.0230769 0.02292225 0.02277265 0.02262598 0.02248227 0.02233614 0.02218738 0.02203416 0.02187671
 0.02171702 0.02155464 0.0213886 0.02121771 0.0210371 0.02084766 0.02064804 0.02044174 0.02023356 0.02002496
 0.01982032 0.01961625 0.01941189 0.01920386 0.01898924 0.01877064 0.0185474 0.01832636 0.01810886 0.0178995
 0.01769947 0.0175077 0.01732442 0.01714415 0.0169666 0.01678503 0.01659949 0.01640715 0.01620936 0.01601078
 0.01581347 0.01562668 0.01545028 0.01528988 0.0151408 0.01499938 0.01485955 0.01471305 0.01455874 0.01439215
 0.01421796 0.01403768 0.0138536 0.013668 0.01347606 0.01327708 0.01306732 0.01284526 0.01261746 0.01238407
 0.01215616 0.01193416 0.01172093 0.01151585 0.0113132 0.01111303 0.01091206 0.0107119 0.01051629 0.01032574
 0.010144 0.009968707 0.009798114 0.009629742 0.009459754 0.00928883 0.00911589 0.008943315 0.008772537 0.008603033
 0.008435555 0.008266347 0.008094679 0.007918007 0.007735479 0.007549299 0.007359423 0.00717089 0.006983927 0.006801408
 0.006623129 0.006447986 0.00627575 0.006104452 0.005934567 0.005766606 0.005601084 0.005439829 0.005281871 0.005126925
 0.004972992 0.004817761 0.004660323 0.004498874 0.00433471 0.004167696 0.004000249 0.003833148 0.003667995 0.003505515
 0.003345109 0.00318693 0.003028943 0.002870895 0.002713094 0.002555596 0.002401981 0.002252361 0.002109597 0.001972916
 0.001840186 0.001709786 0.001575492 0.001436002 0.001284891 0.001123239 0.0009484313 0.0007661104 0.0005797984 0.0003982434
 0.0002294926 7.656488E-05 -5.464375E-05 -0.0001731005 -0.0002791632 -0.0003868832 -0.0005000922 -0.0006242586 -0.0007616215 -0.0009061222
 -0.001057616 -0.001207588 -0.001355664 -0.001499993 -0.001641285 -0.001786131 -0.001936054 -0.002102264 -0.002286116 -0.002497837
 -0.002738042 -0.003012763 -0.003322665 -0.003670319 -0.004058919 -0.004490572 -0.00497447 -0.005515366 -0.006128285 -0.006821223
 -0.007606183 -0.008491095 -0.009472076 -0.01055242 -0.01171093 -0.012947 -0.01422896 -0.01555562 -0.01687869 -0.0181952
 -0.01942841 -0.0205726 -0.02154029 -0.022326 -0.02285744 -0.02312735 -0.02307156 -0.02269073 -0.02193096 -0.02085885
 -0.01952463 -0.01806559 -0.01664763 -0.0153606 -0.01433195 -0.01356588 -0.01309939 -0.01290589 -0.01298987 -0.01330165
 -0.0138463 -0.01449691 -0.01524687 -0.01590562 -0.01645248 -0.01680897 -0.01697132 -0.01702018 -0.01696116 -0.01688394
 -0.01678615 -0.01670047 -0.01662106 -0.01654625 -0.01647099 -0.01638344 -0.01628046 -0.01615253 -0.01599707 -0.01580776
 -0.01558357 -0.01531903 -0.01502383 -0.01469708 -0.01436382 -0.01403086 -0.01372299 -0.0134482 -0.01321517 -0.01302754
 -0.01287819 -0.0127674 -0.01267939 -0.01261331 -0.01255208 -0.01249537 -0.01243352 -0.01236766 -0.01229854 -0.01222812
 -0.012163 -0.0121051 -0.01206212 -0.0120347 -0.01202823 -0.0120397 -0.01206918 -0.01210987 -0.01215726 -0.01220472
 -0.0122471 -0.01228298 -0.01230973 -0.01233222 -0.01235046 -0.0123725 -0.01239968 -0.01243638 -0.01248345 -0.01253759
 -0.01259866 -0.01266145 -0.01272628 -0.01279536 -0.01286948 -0.01295522 -0.01305109 -0.01315637 -0.01326723 -0.01337387
 -0.01347516 -0.01356355 -0.01364342 -0.01371629 -0.01378745 -0.01386246 -0.01394097 -0.01402568 -0.01410965 -0.01419138
 -0.01426388 -0.01432438 -0.01437338 -0.01440981 -0.01444126 -0.01446833 -0.01449676 -0.01452687 -0.01455682 -0.01458631
 -0.01461069 -0.01463037 -0.01464503 -0.01465604 -0.01466787 -0.01468177 -0.01470306 -0.01473164 -0.01477037 -0.01481676
 -0.0148698 -0.01492532 -0.01497963 -0.0150306 -0.01507528 -0.01511621 -0.01515339 -0.01519035 -0.01522854 -0.01526674
 -0.01530549 -0.01533924 -0.01536744 -0.0153872 -0.01539832 -0.01540381 -0.01540394 -0.01540298 -0.01540067 -0.0153973
 -0.01539256 -0.01538517 -0.01537585 -0.01536571 -0.01535536 -0.01534672 -0.01533881 -0.01533115 -0.01532317 -0.01531336
 -0.01530449 -0.01529706 -0.01529541 -0.01530185 -0.01531636 -0.01534036 -0.01536744 -0.01539728 -0.01542097 -0.01543746
 -0.01544274 -0.01543653 -0.01542289 -0.01540233 -0.01538245 -0.0153634 -0.01534982 -0.01534142 -0.01533972 -0.01534424
 -0.01535538 -0.01537097 -0.01538838 -0.01540386 -0.01541146 -0.01541062 -0.01539739 -0.01537761 -0.01535278 -0.01532979
 -0.01531218 -0.01530122 -0.01529855 -0.01530025 -0.01530621 -0.01531093 -0.01531386 -0.01531099 -0.01530204 -0.0152874
 -0.01526741 -0.01524723 -0.01522719 -0.0152123 -0.01520172 -0.01519522 -0.01519148 -0.01518703 -0.01518144 -0.01517196
 -0.0151601 -0.01514591 -0.01513274 -0.0151232 -0.01511986 -0.01512586 -0.01513856 -0.01515858 -0.01517927 -0.01519888
 -0.01521381 -0.01522271 -0.01522786 -0.01522933 -0.01522957 -0.01522875 -0.01522494 -0.01521808 -0.01520655 -0.01519108
 -0.01517536 -0.01516049 -0.01515309 -0.0151525 -0.01516115 -0.01517612 -0.01519346 -0.01521121 -0.01522456 -0.01523567
 -0.01524433 -0.01525407 -0.01526751 -0.01528429 -0.01530567 -0.01532713 -0.01534789 -0.01536386 -0.01537409 -0.01537729
 -0.01537309 -0.01536299 -0.01534705 -0.01532923 -0.01530977 -0.01529254 -0.01527737 -0.01526484 -0.01525472 -0.01524619
 -0.01523992 -0.0152372 -0.01523855 -0.01524592 -0.01525811 -0.01527453 -0.01529377 -0.01531408 -0.01533595 -0.01535894
 -0.01538454 -0.01541338 -0.01544584 -0.01548237 -0.01552181 -0.0155641 -0.01560782 -0.01565276 -0.01569853 -0.01574508
 -0.01579336 -0.01584329 -0.01589438 -0.01594589 -0.01599252 -0.01603363 -0.0160631 -0.01608262 -0.01609227 -0.01609655
 -0.01610315 -0.01611558 -0.01614229 -0.0161812 -0.01623496 -0.0162957 -0.01636028 -0.01642083 -0.01647284 -0.0165152
 -0.01654578 -0.01657049 -0.0165897 -0.01661025 -0.01663291 -0.01666194 -0.01669765 -0.01674287 -0.01679762 -0.01686307
 -0.01693834 -0.01701865 -0.01710203 -0.01717791 -0.01724574 -0.01729752 -0.01733681 -0.01736535 -0.01738865 -0.01741483
 -0.01744525 -0.0174852 -0.01752963 -0.01757723 -0.01762324 -0.01766427 -0.01770284 -0.01773833 -0.01777697 -0.01782036
 -0.01786818 -0.01792115 -0.01797091 -0.01801701 -0.01805234 -0.01807703 -0.01809271 -0.01810029 -0.01810679 -0.01811246
 -0.01812217 -0.01813525 -0.0181523 -0.01817289 -0.01819664 -0.018223 -0.0182516 -0.01828064 -0.01830835 -0.0183339
 -0.01835522 -0.01837633 -0.01839764 -0.01842539 -0.01846209 -0.01850766 -0.01856346 -0.01862123 -0.01868033 -0.01873318
 -0.01877917 -0.01881845 -0.01885125 -0.01888224 -0.0189114 -0.01894091 -0.01897024 -0.0189982 -0.01902477 -0.01904915
 -0.01907207 -0.01909469 -0.01911716 -0.0191404 -0.01916362 -0.01918619 -0.01920836 -0.01922979 -0.01925197 -0.01927627
 -0.01930009 -0.01932418 -0.01933996 -0.01934611 -0.01933559 -0.01930681 -0.01926328 -0.01920496 -0.01914396 -0.01908097
 -0.01902836 -0.01898603 -0.01895987 -0.01894806 -0.01894694 -0.01895389 -0.01895971 -0.0189641 -0.0189616 -0.01895469
 -0.0189445 -0.01893269 -0.01892154 -0.01891052 -0.01890021 -0.01888905 -0.01887687 -0.0188611 -0.01884105 -0.01881469
 -0.01878098 -0.01874283 -0.01870028 -0.01865787 -0.01861602 -0.01857325 -0.01852939 -0.01848023 -0.01842634 -0.01836996
 -0.01831201 -0.01825789 -0.01820716 -0.01816075 -0.01811929 -0.01808356 -0.01805634 -0.01804281 -0.01804082 -0.01805336
 -0.01806792 -0.01807912 -0.01807326 -0.01804152 -0.01798419 -0.0178971 -0.01779622 -0.01768295 -0.01757555 -0.01747676
 -0.0173927 -0.01732423 -0.01726281 -0.01720798 -0.01715041 -0.01709102 -0.01703228 -0.01697563 -0.01692932 -0.0168921
 -0.01686541 -0.01684602 -0.01682907 -0.01681099 -0.01678605 -0.01674986 -0.01669617 -0.01662396 -0.0165289 -0.01641848
 -0.01629384 -0.01616484 -0.01603484 -0.01590813 -0.01578609 -0.01567028 -0.01556106 -0.01545881 -0.01536372 -0.01527094
 -0.01518017 -0.01508494 -0.01498554 -0.01488138 -0.01477308 -0.01466301 -0.01455138 -0.01443927 -0.01432831 -0.0142219
 -0.01412172 -0.01403272 -0.01395146 -0.01387756 -0.01380482 -0.01372855 -0.01364748 -0.0135593 -0.01346695 -0.01337074
 -0.01327348 -0.01317547 -0.01308051 -0.01298915 -0.01290315 -0.01282282 -0.01274349 -0.01266499 -0.01258396 -0.0125013
 -0.01242324 -0.01234986 -0.01228641 -0.01222885 -0.01216965 -0.01210322 -0.01201451 -0.01190307 -0.01175982 -0.01159307
 -0.01140545 -0.01120964 -0.01101455 -0.01082741 -0.01065557 -0.01049288 -0.01034007 -0.0101855 -0.0100257 -0.009862165
 -0.009693757 -0.00953318 -0.009381359 -0.009244096 -0.009121284 -0.009008452 -0.008904244 -0.008797526 -0.008684704 -0.008543439
 -0.008372632 -0.008153069 -0.007896716 -0.007616147 -0.007325234 -0.007051258 -0.006791379 -0.006553736 -0.006329018 -0.006112146
 -0.005901595 -0.005695984 -0.005493352 -0.005295068 -0.005088502 -0.004871992 -0.004632643 -0.004368105 -0.004076436 -0.003757084
 -0.00341651 -0.003055404 -0.002689236 -0.002319246 -0.001963648 -0.001620835 -0.001293987 -0.0009794272 -0.000667425 -0.000357807
 -4.64375E-05 0.0002677584 0.0005852052 0.0009147035 0.001265747 0.001640649 0.002047941 0.002471831 0.00290715 0.00334305
 0.003771944 0.004205334 0.004643667 0.005100948 0.005579916 0.006079284 0.006599259 0.00713441 0.00768482 0.008254862
 0.008845946 0.009471932 0.01013356 0.01084403 0.01159781 0.01238728 0.01320381 0.01402351 0.01485048 0.01567742
 0.01651878 0.01738896 0.01828765 0.01922468 0.02017621 0.02113345 0.02208113 0.02300784 0.02393097 0.02484751
 0.0258023 0.02679777 0.02789619 0.02910312 0.03044371 0.03191654 0.03345714 0.03506168 0.0366634 0.03827487
 0.03991675 0.0416071 0.0434128 0.04533469 0.04741076 0.0496227 0.05196228 0.0544099 0.05693984 0.05955327
 0.062226 0.06502553 0.06795195 0.07115746 0.07469188 0.07864171 0.08305877 0.08780734 0.09287727 0.09814442
 0.1035911 0.1093412 0.1154007 0.1219056 0.128838 0.1360957 0.1436549 0.151357 0.1591851 0.1670895
 0.1748744 0.1821997 0.1887096 0.1936454 0.1971469 0.1989252 0.1996683 0.1997319 0.1996662 0.1998368
 0.2004181 0.2015609 0.2031831 0.2052917 0.2077956 0.2106729 0.2139843 0.2177379 0.2218824 0.2264039
 0.2308318 0.2351498 0.2389937 0.2424231 0.2455344 0.2483822 0.2511798 0.2539419 0.2567841 0.2597403
 0.2628709 0.2663014 0.2701295 0.274589 0.2798582 0.2861095 0.2935563 0.3019073 0.3112076 0.3207488
 0.3303852 0.3396755 0.3485169 0.3569184 0.3648632 0.3725936 0.3801289 0.3879463 0.3960954 0.4052924
 0.4154676 0.4267938 0.4389097 0.4507205 0.4621581 0.4724136 0.4819476 0.4910875 0.500195 0.5098037
 0.5199286 0.5307562 0.5421613 0.5541161 0.5665768 0.5795666 0.5928524 0.60642 0.6198927 0.6331879
 0.6463664 0.6594239 0.6725423 0.6857137 0.6983962 0.7105303 0.7212878 0.7307255 0.7386951 0.7452796
 0.750717 0.754906 0.7577037 0.759124 0.7589987 0.7577378 0.7556993 0.7531596 0.7504252 0.7475964
 0.7447776 0.7420639 0.7395392 0.7370929 0.7347662 0.7321439 0.7292007 0.7253847 0.7206368 0.7148156
 0.7079276 0.700626 0.6929346 0.685376 0.6778598 0.6702048 0.6623197 0.6537988 0.644673 0.6347477
 0.624253 0.6134149 0.6024924 0.5918885 0.5815639 0.5716512 0.5619292 0.5522614 0.5427412 0.5332954
 0.5243933 0.5161465 0.5087453 0.5022686 0.4964399 0.4912446 0.4864302 0.4819874 0.4779288 0.4742608
 0.4710614 0.4683127 0.4659632 0.46399 0.4622922 0.4608669 0.4596651 0.458678 0.4578761 0.4572433
 0.456745 0.4563958 0.4561875 0.456163 0.456338 0.4567523 0.4574173 0.4583792 0.4596487 0.4612652
 0.4632438 0.4655344 0.4681392 0.4709201 0.4738703 0.4768858 0.4799654 0.483069 0.4861808 0.4891995
 0.4921035 0.4947446 0.4971711 0.499397 0.5015167 0.5036939 0.5059431 0.5083674 0.5108671 0.5133941
 0.5158967 0.5182914 0.5207379 0.5232236 0.5261114 0.5295003 0.5335316 0.5383245 0.5431415 0.5479369
 0.5520151 0.555348 0.5580176 0.5600363 0.5615689 0.5625978 0.5631091 0.5630848 0.5624819 0.561244
 0.5592977 0.5564209 0.552233 0.546619 0.5390702 0.5303483 0.5207933 0.51117 0.5021193 0.4933567
 0.4849253 0.4764828 0.4678938 0.4593378 0.4508079 0.4426091 0.4347792 0.4273013 0.4201737 0.4131865
 0.4063389 0.3995496 0.3928403 0.3862972 0.3799143 0.373736 0.367701 0.3616926 0.3556699 0.349501
 0.3432259 0.3368486 0.330377 0.3238806 0.3171435 0.3101041 0.3024829 0.2940151 0.2852738 0.2762202
 0.268097 0.2611766 0.2554455 0.2509683 0.2468821 0.2431462 0.2392256 0.2351403 0.230942 0.2266843
 0.2227042 0.2189812 0.2156255 0.2125852 0.2097647 0.2072147 0.2049474 0.2030852 0.2017813 0.2010627
 0.2010107 0.2015752 0.2027292 0.204515 0.2068988 0.2101084 0.2141242 0.2194903 0.226223 0.235259
 0.2467059 0.2609625 0.2780346 0.29587 0.3142376 0.3296917 0.3422834 0.35045 0.3545772 0.355055
 0.3523751 0.3477516 0.3416775 0.3354698 0.3293209 0.3239624 0.3193088 0.315529 0.3124654 0.3101109
 0.3082164 0.3067158 0.3053395 0.3040082 0.30259 0.3010487 0.2993681 0.2975406 0.2956133 0.2935887
 0.2915399 0.2894692 0.2874245 0.2854004 0.2833907 0.281391 0.2793705 0.2773571 0.2753794 0.2735131
 0.2718849 0.2705625 0.2696654 0.2692354 0.2693272 0.2700053 0.2713175 0.2732975 0.2759859 0.2793089
 0.2832592 0.2877573 0.2927798 0.2983716 0.3045384 0.3112836 0.3186064 0.3261316 0.3338237 0.3411146
 0.3480183 0.3543161 0.3600696 0.3653918 0.3702943 0.3748803 0.3790848 0.3828639 0.3861208 0.3887377
 0.3906316 0.391701 0.3919061 0.391186 0.3895825 0.3870735 0.3838057 0.3797782 0.375277 0.3703203
 0.3653153 0.3603008 0.355579 0.3511679 0.3470852 0.3433192 0.3397199 0.3362799 0.3328784 0.3295255
 0.3261977 0.3228979 0.3196326 0.3163731 0.3130889 0.3097211 0.3062017 0.302461 0.2984125 0.2940541
 0.2893203 0.2843852 0.2792639 0.2742403 0.2693933 0.2648676 0.2607181 0.2568455 0.2532519 0.2497482
 0.246324 0.2429146 0.2395307 0.2362986 0.2332342 0.2305052 0.2280962 0.2260461 0.2243195 0.2228494
 0.2216177 0.220562 0.219685 0.2189709 0.2184112 0.218008 0.2177103 0.2175029 0.2173072 0.2170916
 0.2168052 0.2164229 0.2159595 0.2154073 0.2148367 0.214252 0.2137345 0.2132892 0.2129475 0.2127055
 0.2125164 0.2123701 0.2121803 0.2119441 0.2115987 0.211162 0.2106348 0.210062 0.2095077 0.2090323
 0.2087263 0.2086359 0.2088339 0.209317 0.2101197 0.2111634 0.2124462 0.2138209 0.2152623 0.2166054
 0.2178206 0.218797 0.2195162 0.219971 0.2201596 0.220168 0.2200037 0.2197875 0.2195254 0.2193149
 0.2191561 0.219103 0.2191471 0.2193008 0.219542 0.2198464 0.2201777 0.2204876 0.2207411 0.2208911
 0.220931 0.2208363 0.2206415 0.2203473 0.2200126 0.2196494 0.2193131 0.2190136 0.2187913 0.2186514
 0.2186189 0.2186957 0.2188842 0.2191823 0.2195609 0.2200139 0.2204896 0.2209823 0.2214424 0.2218715
 0.2222439 0.2225759 0.2228761 0.2231805 0.2235276 0.2239645 0.2245395 0.2252875 0.2262452 0.2274108
 0.2288014 0.230367 0.2321084 0.2339308 0.235825 0.2376784 0.2394794 0.2411428 0.2426627 0.2440115
 0.2451914 0.2462319 0.2471421 0.2479909 0.2487898 0.24962 0.2504849 0.2514408 0.2524673 0.2535672
 0.2546872 0.2557764 0.2567613 0.2575679 0.2581423 0.2584266 0.2584261 0.2581199 0.2575662 0.25677
 0.2558079 0.2546892 0.2534947 0.2522312 0.2509851 0.2497619 0.2486188 0.2475532 0.2465374 0.2455564
 0.244499 0.2433534 0.2420077 0.2404751 0.2387245 0.2367929 0.2347286 0.2325631 0.2303565 0.228116
 0.2258643 0.2236102 0.2213532 0.2191403 0.2169827 0.2149429 0.2130463 0.2112939 0.2096998 0.2081785
 0.2067243 0.2052471 0.2037399 0.2022071 0.2006545 0.1991819 0.1977964 0.1965993 0.1955813 0.1947645
 0.1941282 0.1936276 0.1932565 0.1929766 0.1928073 0.1927558 0.1928434 0.1930943 0.1935078 0.194088
 0.1948385 0.1957503 0.1968772 0.1982256 0.1998697 0.2018336 0.2040928 0.2066618 0.2093397 0.2121172
 0.2146994 0.217076 0.2190479 0.2206332 0.2218457 0.2227297 0.2234588 0.2240766 0.2247806 0.2255954
 0.2266557 0.2279611 0.2295722 0.2314538 0.2336114 0.2359634 0.2384812 0.2410446 0.2436107 0.2460539
 0.2483342 0.2503667 0.2521242 0.2536038 0.2547951 0.2557853 0.2565778 0.2573144 0.2580032 0.2587862
 0.2596685 0.2607549 0.2620446 0.2635932 0.2653935 0.2674578 0.2697739 0.2723278 0.2751034 0.2780792
 0.2812317 0.2845399 0.2879687 0.2914965 0.295084 0.2987115 0.3023526 0.3059952 0.3096322 0.313261
 0.3168771 0.3204814 0.3240524 0.3275894 0.3310558 0.3344496 0.3377355 0.3409115 0.3439473 0.3468418
 0.3495695 0.3521397 0.3545551 0.3568477 0.3590711 0.3612653 0.3635077 0.3658042 0.368198 0.3706438
 0.3731325 0.3756049 0.378032 0.3803881 0.3826563 0.3848501 0.3869665 0.3890399 0.3910718 0.3931099
 0.395157 0.3972612 0.3994231 0.401653 0.4039418 0.4062323 0.4085058 0.4106576 0.4126702 0.4144441
 0.4159721 0.4171947 0.4181142 0.4187099 0.4189883 0.4189489 0.4185964 0.4179337 0.4169624 0.4156802
 0.4141021 0.4122229 0.4100998 0.4077338 0.4052267 0.4025875 0.3999194 0.3972305 0.3945702 0.3919381
 0.3893139 0.3866916 0.3840159 0.3812844 0.3784554 0.3755358 0.3725198 0.3694223 0.3662642 0.363067
 0.359862 0.3566782 0.3535489 0.3505013 0.3475638 0.3447407 0.3420462 0.3394527 0.3369596 0.3345205
 0.3321292 0.329736 0.3273357 0.3248845 0.3223789 0.3197963 0.317137 0.3144113 0.3116221 0.3087967
 0.3059363 0.3030593 0.3001675 0.2972715 0.2943812 0.2915179 0.2886946 0.2859401 0.283251 0.2806423
 0.2780814 0.2755608 0.2730266 0.2704581 0.2678048 0.2650462 0.2621647 0.2591484 0.2560281 0.2528026
 0.2495348 0.2462283 0.242943 0.2396813 0.2364788 0.2333357 0.2302706 0.2272844 0.2243918 0.2215923
 0.2188943 0.216292 0.2137799 0.2113484 0.2089822 0.2066775 0.2044227 0.202226 0.2000864 0.1980208
 0.1960356 0.1941453 0.192359 0.1906661 0.1890734 0.1875212 0.1860081 0.1844356 0.1827966 0.1810153
 0.1790911 0.1770321 0.1748489 0.1726263 0.1703762 0.1681961 0.1660866 0.1641033 0.1622318 0.1604743
 0.1588059 0.1571953 0.1556213 0.1540512 0.1524813 0.1508989 0.1493106 0.1477203 0.1461168 0.1445029
 0.1428422 0.1411285 0.1393335 0.1374496 0.135494 0.1334657 0.1314267 0.1293808 0.1274013 0.1254903
 0.123699 0.1220235 0.1204763 0.1190469 0.1177132 0.1164646 0.1152671 0.1141217 0.1130105 0.1119526
 0.1109563 0.1100478 0.1092471 0.1085659 0.1080176 0.1075912 0.1072885 0.1070865 0.1069825 0.1069526
 0.1069946 0.107084 0.1072194 0.1073721 0.1075405 0.1076913 0.1078227 0.107904 0.1079378 0.1079153
 0.1078494 0.1077694 0.1076939 0.1076756 0.107719 0.1078601 0.1080735 0.1083551 0.1086596 0.1089579
 0.1092149 0.1094051 0.1095244 0.1095624 0.1095413 0.1094606 0.1093572 0.1092336 0.1091359 0.1090672
 0.1090704 0.1091471 0.1093175 0.1095799 0.1099289 0.1103629 0.1108711 0.1114531 0.1121046 0.1128202
 0.1135907 0.1144028 0.1152355 0.1160763 0.1169045 0.1177173 0.1185064 0.1192743 0.1200212 0.120746
 0.1214493 0.1221265 0.1227775 0.1233947 0.1239787 0.1245104 0.1249892 0.1253814 0.1256852 0.1258741
 0.1259505 0.1259243 0.1258037 0.1256318 0.1254152 0.1251961 0.124975 0.1247722 0.1245881 0.1244313
 0.1243027 0.124209 0.124141 0.1240973 0.124061 0.1240217 0.1239775 0.1239218 0.1238752 0.123841
 0.1238363 0.123866 0.1239171 0.1239898 0.1240491 0.1240935 0.1240995 0.1240697 0.1240146 0.1239391
 0.1238734 0.1238168 0.1237842 0.1237674 0.1237558 0.123745 0.1237215 0.1236913 0.1236548 0.1236184
 0.1235874 0.1235629 0.1235463 0.12354 0.1235453 0.1235619 0.1235915 0.1236239 0.1236572 0.1236886
 0.1237166 0.1237672 0.1238419 0.1239756 0.124168 0.1244306 0.1247618 0.1251582 0.1256221 0.1261612
 0.1267727 0.1274637 0.128207 0.1289768 0.1297227 0.1303865 0.1309323 0.1313065 0.1315349 0.1316014
 0.1315935 0.13153 0.1315005 0.1315295 0.1316543 0.1318862 0.132213 0.1326356 0.1331239 0.1336764
 0.1342627 0.134882 0.1355127 0.1361572 0.1368148 0.1374911 0.1382029 0.1389541 0.1397638 0.1406261
 0.1415481 0.1425024 0.1434739 0.1444114 0.1452769 0.146032 0.1466377 0.1471221 0.1474734 0.1477816
 0.1480618 0.1483923 0.1487899 0.1492614 0.1498111 0.1503894 0.1509942 0.151581 0.152152 0.152708
 0.1532552 0.1538263 0.1544209 0.1550591 0.1557285 0.1564137 0.1571005 0.1577581 0.1583875 0.1589727
 0.1595374 0.160088 0.160662 0.1612779 0.1619634 0.1627355 0.163588 0.1645269 0.1655159 0.1665513
 0.1676014 0.1686623 0.1697324 0.1708118 0.1719219 0.1730648 0.174267 0.1755342 0.1769018 0.1783864
 0.1800513 0.181927 0.184106 0.1866146 0.1895403 0.1928681 0.1966388 0.2007535 0.2052019 0.2097459
 0.2143377 0.2185406 0.2222538 0.2249372 0.2264361 0.2265214 0.2250773 0.2225671 0.2189918 0.2152585
 0.2114127 0.2081714 0.2055294 0.2037057 0.2026466 0.2022045 0.2023223 0.2027477 0.2034449 0.2042197
 0.2050522 0.2058337 0.2065499 0.2071471 0.2076217 0.207952 0.2081528 0.2082218 0.2081893 0.20806
 0.2078773 0.2076467 0.2074254 0.2072198 0.2070876 0.2070342 0.2070961 0.2072753 0.2075876 0.2080327
 0.2086173 0.2093352 0.2101646 0.2110863 0.2120306 0.2129727 0.2138247 0.2145749 0.2151639 0.2156024
 0.2158741 0.2160094 0.216016 0.2159479 0.2158203 0.2157231 0.2156903 0.2157779 0.2160244 0.2163349
 0.2167044 0.2170247 0.2172818 0.2174855 0.2176367 0.2178069 0.2179975 0.2182547 0.2185656 0.2188866
 0.2191986 0.2194082 0.2195224 0.219502 0.2193853 0.2192122 0.2190156 0.2188492 0.2187179 0.218643
 0.2186168 0.2186418 0.2187062 0.2188096 0.2189299 0.2190619 0.2191913 0.2193129 0.2194403 0.2195745
 0.2197269 0.2198979 0.2200555 0.2201958 0.2202615 0.2202542 0.2201479 0.2199578 0.2197167 0.2194456
 0.2192119 0.2190158 0.2188971 0.2188193 0.218758 0.2186834 0.2185536 0.218396 0.2182075 0.2180388
 0.2179086 0.2178421 0.2178482 0.2179413 0.2181258 0.2184035 0.2187781 0.2191961 0.2196548 0.2200823
 0.2204819 0.2208639 0.2212411 0.2216961 0.222225 0.222867 0.2235913 0.2243488 0.2251113 0.2258056
 0.226439 0.2269806 0.2274798 0.2279578 0.2284728 0.2290668 0.2297489 0.230543 0.2313911 0.2322894
 0.2331604 0.2339907 0.2347407 0.2354032 0.2359963 0.2365209 0.237041 0.2375599 0.2381399 0.2387748
 0.2394644 0.2401929 0.2409006 0.2415908 0.2422302 0.2428578 0.2435188 0.2442494 0.2451203 0.2461088
 0.247237 0.2484221 0.249633 0.2507877 0.2518439 0.2527839 0.253586 0.2543082 0.2549525 0.2555961
 0.2562474 0.2569396 0.2576749 0.2584423 0.2592399 0.2600427 0.2608453 0.2616069 0.2623188 0.2629266
 0.2634323 0.2638078 0.2640722 0.2642423 0.2643362 0.2643846 0.2643843 0.2643503 0.2642485 0.2640752
 0.2637658 0.2633021 0.2626145 0.2616825 0.2604667 0.2589548 0.2571532 0.2550578 0.2527324 0.2501804
 0.2475239 0.2447693 0.242032 0.2393075 0.2366299 0.2339882 0.231357 0.2287392 0.2261242 0.2235319
 0.2209878 0.218514 0.216145 0.2138941 0.2117876 0.2098125 0.20798 0.2062323 0.2045565 0.2028857
 0.2011943 0.1994804 0.1977325 0.1960199 0.1943478 0.1927743 0.1913029</values></Ydata></AB><ScSm><Ydata ylabel="Single channel"><values byteorder="INTEL" format="FLOAT32" numvalues="1814"> 0.07192694 0.07193606 0.0720166 0.0721864 0.07240967 0.07261908 0.07276204 0.0728315 0.07284767 0.07281996
 0.07275733 0.0727124 0.07276726 0.07295257 0.07319988 0.07338613 0.07342854 0.07335916 0.07331131 0.07339004
 0.07352933 0.07351235 0.07317784 0.07260603 0.07206482 0.07176232 0.07171662 0.07191344 0.07243991 0.07323731
 0.07381994 0.07362273 0.07271539 0.07183502 0.07157009 0.07179579 0.07201647 0.07193592 0.07155318 0.07105321
 0.07084975 0.07146689 0.07302274 0.07481368 0.07557319 0.07427067 0.07084551 0.0664364 0.06296271 0.06209624
 0.06408049 0.06739585 0.06990206 0.07054719 0.06986599 0.06888883 0.06803493 0.06725667 0.06676026 0.06703623
 0.06818448 0.06946421 0.06967826 0.06819564 0.06570093 0.06370822 0.06317879 0.06391688 0.065382 0.06727949
 0.06873801 0.06783698 0.06349908 0.0578879 0.05543984 0.05864079 0.06537138 0.07098421 0.07243912 0.06999733
 0.06586088 0.06234957 0.06103805 0.06233579 0.06540284 0.06884304 0.07155135 0.07278008 0.07196064 0.06919426
 0.06572971 0.06335934 0.06332155 0.06581613 0.06996086 0.07387275 0.07552709 0.07425362 0.07117755 0.06802977
 0.06601331 0.06581245 0.06775361 0.0714601 0.07584074 0.07972755 0.08234805 0.08339624 0.08309684 0.08206252
 0.08082616 0.07976063 0.07940874 0.08014146 0.08128422 0.08138151 0.0797842 0.07751565 0.07621613 0.07644662
 0.07724321 0.07729017 0.07625182 0.07455004 0.07206111 0.06809597 0.06298192 0.0584792 0.05602092 0.0556215
 0.0569192 0.05973753 0.06287186 0.06402608 0.06233308 0.05994894 0.05991537 0.06291319 0.06691787 0.06965898
 0.07071134 0.07132731 0.07282517 0.07524368 0.07717166 0.07681827 0.07380124 0.07013648 0.06880382 0.07082303
 0.0742786 0.07666689 0.07752249 0.07813697 0.07929534 0.0800603 0.0787569 0.07497086 0.07061163 0.06873344
 0.07087848 0.07552999 0.0792146 0.07908309 0.0748253 0.06871111 0.06381361 0.06189305 0.06292577 0.0662662
 0.07134519 0.07708481 0.08162116 0.08335276 0.08212236 0.07909273 0.07543391 0.07126823 0.06629634 0.06154205
 0.05955201 0.06197492 0.06744203 0.07271178 0.07556865 0.07592419 0.07454395 0.07167784 0.06725692 0.06215143
 0.05857394 0.05836862 0.06079941 0.06296906 0.06284903 0.06111821 0.05967299 0.05925573 0.05919231 0.05883311
 0.05846079 0.05878089 0.05991051 0.06111174 0.06151493 0.0609207 0.05982088 0.05881485 0.05807548 0.05724858
 0.05595051 0.05451851 0.05397546 0.05490613 0.0566492 0.05798253 0.05835261 0.05806532 0.05748155 0.05642574
 0.05448361 0.0518121 0.04946764 0.04862244 0.04942214 0.05089857 0.05198299 0.05227137 0.05189755 0.05114236
 0.05025401 0.04936511 0.0485275 0.04788761 0.04765338 0.04778872 0.04795128 0.04784086 0.04744036 0.04686297
 0.04614599 0.04528306 0.04436066 0.04357354 0.04308899 0.04290962 0.04289579 0.04290123 0.04282594 0.0425759
 0.04209571 0.0414528 0.04079388 0.0402107 0.03971593 0.03932592 0.03907774 0.03895723 0.03887306 0.03872694
 0.03848683 0.03817891 0.03783039 0.03744701 0.03703878 0.03663941 0.03629448 0.03603525 0.03585133 0.0356894
 0.03550488 0.0353073 0.03511974 0.0349145 0.03464206 0.03430883 0.03397617 0.03369379 0.03346777 0.03327525
 0.03308001 0.03284203 0.03253288 0.03215795 0.03177745 0.03148815 0.03134885 0.03132863 0.0313483 0.03134774
 0.03129429 0.03117097 0.03099192 0.0307966 0.03060472 0.03040113 0.03017256 0.0299376 0.02973918 0.02961495
 0.02956378 0.02954046 0.02949588 0.02941374 0.02930179 0.02917395 0.0290522 0.02895358 0.02886255 0.02874319
 0.02858557 0.02842076 0.02828969 0.02820646 0.02814656 0.0280709 0.02796963 0.02787186 0.02780323 0.02775404
 0.02769967 0.02762947 0.02754519 0.0274496 0.02734376 0.02722618 0.02709908 0.02697734 0.02687665 0.02679115
 0.02670023 0.02659687 0.02649373 0.02640387 0.02632669 0.02624987 0.02616035 0.02605644 0.02594529 0.02582608
 0.02568796 0.02553108 0.02537449 0.02523483 0.02510822 0.02497865 0.02483606 0.02468244 0.02452488 0.02436585
 0.02420155 0.02402876 0.02384761 0.0236579 0.02346214 0.02327269 0.0231054 0.02296374 0.02283666 0.02271173
 0.02258413 0.02245562 0.02233144 0.02221854 0.02212432 0.02205528 0.0220143 0.02199945 0.02200862 0.02204348
 0.02210403 0.02218293 0.02227411 0.02238605 0.02253729 0.02273538 0.02296447 0.02319811 0.02342326 0.02364836
 0.02388818 0.02414577 0.0244124 0.02468143 0.02495613 0.02524076 0.02552599 0.02578989 0.02601942 0.02622688
 0.02643677 0.02665959 0.02688799 0.0271139 0.02733484 0.02754515 0.02773693 0.02791276 0.02808616 0.02826561
 0.02844733 0.02862686 0.02880925 0.02900196 0.02920337 0.02940635 0.02961108 0.02982707 0.03006154 0.03030988
 0.03055742 0.03078921 0.03100216 0.03121248 0.03144724 0.03172287 0.03203133 0.03234839 0.03265414 0.03294586
 0.03323384 0.03352709 0.03382606 0.03413185 0.0344562 0.03481123 0.03519018 0.03557029 0.0359373 0.03629768
 0.03666415 0.03703816 0.03741134 0.03777915 0.03814778 0.03852651 0.03891366 0.03929237 0.03964438 0.03996737
 0.0402764 0.04059112 0.04092402 0.04127315 0.04161827 0.04193243 0.04220927 0.04247404 0.0427549 0.04304767
 0.0433232 0.04356672 0.04379388 0.04402593 0.04426452 0.04449796 0.04472154 0.04494154 0.04516312 0.04538078
 0.04557966 0.04574365 0.04586674 0.04596153 0.04605301 0.04616072 0.04629071 0.04644341 0.04661651 0.04679576
 0.04695604 0.04708111 0.0471769 0.04726364 0.04736328 0.04749203 0.04765214 0.04782876 0.04800178 0.04815958
 0.04830064 0.04843491 0.04858933 0.04879536 0.04905917 0.0493566 0.04966628 0.04999278 0.0503456 0.05071143
 0.05106702 0.05141221 0.05176853 0.05214264 0.05250947 0.0528385 0.05312221 0.05337073 0.05359688 0.05382161
 0.05407871 0.05439173 0.05474818 0.05510926 0.05544172 0.05573286 0.05598196 0.05619106 0.05636553 0.056517
 0.05666012 0.05680403 0.05694732 0.05708352 0.05720903 0.05731784 0.05738824 0.05738362 0.05726973 0.05702591
 0.05663973 0.05610321 0.05542285 0.05462415 0.05373286 0.0527519 0.0516638 0.0504539 0.04912325 0.04768186
 0.04613997 0.04450747 0.04279616 0.04102559 0.03923369 0.03748157 0.03584956 0.03444119 0.03339163 0.03283541
 0.03281249 0.03317872 0.03361955 0.03378099 0.03342585 0.03250964 0.03115068 0.02954205 0.02786329 0.02622112
 0.02462962 0.02303227 0.02135291 0.01954822 0.0176401 0.01571795 0.0139154 0.01239831 0.01141021 0.01133116
 0.01259723 0.01541856 0.01951154 0.0241548 0.02857618 0.03232771 0.03535702 0.03783114 0.03994673 0.04184398
 0.04359608 0.04522914 0.04674902 0.04815212 0.0494187 0.05051213 0.05139038 0.05201785 0.0523793 0.05249759
 0.05243503 0.05226951 0.05206774 0.05186663 0.0516506 0.05133392 0.05077717 0.04983246 0.04837135 0.04626445
 0.04335767 0.03958143 0.03528097 0.03154132 0.03000182 0.03198334 0.03755644 0.0454434 0.05385566 0.06145201
 0.06767642 0.07252544 0.07622184 0.0790413 0.08124062 0.08302045 0.08452075 0.08583505 0.0870202 0.08810531
 0.08910666 0.09003891 0.09091669 0.09175203 0.09255205 0.09331931 0.09405608 0.09476753 0.09546024 0.0961396
 0.09680907 0.097471 0.09812909 0.09878861 0.09945015 0.1001053 0.1007456 0.1013731 0.1019955 0.1026142
 0.1032243 0.1038224 0.1044052 0.1049659 0.1055005 0.1060163 0.1065256 0.1070327 0.1075313 0.1080149
 0.1084859 0.1089511 0.1094119 0.1098643 0.1103073 0.1107439 0.1111724 0.1115847 0.1119776 0.1123615
 0.1127505 0.1131489 0.1135504 0.1139491 0.1143481 0.1147582 0.1151905 0.1156476 0.1161191 0.1165878
 0.1170429 0.1174882 0.117936 0.1183935 0.1188586 0.119325 0.1197878 0.1202445 0.1206929 0.1211318
 0.1215607 0.1219804 0.1223924 0.1227972 0.1231935 0.1235813 0.123965 0.1243497 0.1247361 0.1251207
 0.1255033 0.1258896 0.1262823 0.1266733 0.1270481 0.1273984 0.1277309 0.1280621 0.1284074 0.1287716
 0.1291513 0.1295396 0.1299283 0.1303075 0.1306723 0.1310306 0.1313967 0.1317763 0.1321613 0.1325406
 0.1329133 0.1332881 0.1336739 0.1340706 0.1344702 0.1348656 0.1352565 0.1356478 0.1360451 0.136452
 0.1368665 0.13728 0.1376855 0.1380852 0.1384858 0.1388881 0.1392866 0.139679 0.1400698 0.140466
 0.1408689 0.1412723 0.1416684 0.1420548 0.1424357 0.1428191 0.1432119 0.1436147 0.1440188 0.1444139
 0.1447995 0.1451844 0.1455735 0.1459592 0.1463287 0.1466777 0.1470148 0.1473534 0.1477005 0.1480539
 0.1484064 0.1487501 0.1490803 0.1494007 0.1497208 0.1500471 0.1503785 0.1507135 0.1510522 0.1513916
 0.1517268 0.1520579 0.1523893 0.1527219 0.1530521 0.1533752 0.1536893 0.1539954 0.1542972 0.1546001
 0.1549097 0.1552277 0.1555486 0.1558644 0.1561757 0.1564887 0.1568024 0.1571101 0.1574135 0.1577236
 0.1580446 0.158369 0.1586878 0.1589999 0.1593124 0.1596346 0.1599696 0.1603098 0.1606435 0.1609624
 0.161266 0.1615644 0.1618721 0.1621939 0.1625242 0.1628616 0.1632126 0.1635758 0.1639381 0.1642891
 0.1646304 0.1649698 0.1653132 0.1656601 0.1660035 0.1663395 0.1666711 0.1670002 0.1673248 0.1676492
 0.1679826 0.1683254 0.1686695 0.1690092 0.1693433 0.1696735 0.1700072 0.1703518 0.170702 0.171046
 0.1713797 0.1717038 0.1720197 0.172335 0.1726601 0.172996 0.1733372 0.1736802 0.1740196 0.1743478
 0.1746677 0.1749907 0.1753206 0.1756557 0.1759936 0.1763252 0.176642 0.176953 0.1772712 0.1775819
 0.1778316 0.1779005 0.177512 0.1761298 0.17294 0.1670057 0.1576344 0.1448106 0.1293551 0.1126371
 0.09607311 0.08075608 0.06733911 0.05611084 0.04713598 0.04035098 0.03562433 0.03284843 0.03203154 0.03339572
 0.03749211 0.04487838 0.05488249 0.06450789 0.06960101 0.06813009 0.06212576 0.05582798 0.05216357 0.05133718
 0.05209985 0.05338971 0.05487592 0.05676016 0.05937891 0.06281685 0.06689423 0.07159366 0.07726917 0.08419338
 0.0920132 0.0998992 0.1072643 0.114222 0.1213067 0.1288243 0.1365272 0.1438563 0.1503877 0.1560454
 0.1610114 0.1655244 0.1697437 0.1737356 0.1775305 0.1811309 0.1844247 0.187142 0.1889855 0.1898621
 0.1899922 0.1897821 0.1895851 0.1895668 0.1897457 0.1900945 0.1905876 0.1912019 0.1919183 0.1927172
 0.1935677 0.1944343 0.1952937 0.1961328 0.1969374 0.1976964 0.1984082 0.1990717 0.1996814 0.200236
 0.2007417 0.2012094 0.2016514 0.2020757 0.2024786 0.2028527 0.2031996 0.2035255 0.2038292 0.2041082
 0.2043684 0.2046171 0.2048539 0.2050771 0.2052921 0.2055074 0.2057282 0.2059529 0.2061743 0.2063854
 0.2065879 0.2067879 0.2069879 0.2071888 0.2073951 0.2076074 0.2078157 0.2080103 0.2081932 0.2083765
 0.2085735 0.2087892 0.209013 0.2092264 0.2094206 0.2096036 0.2097868 0.2099742 0.2101632 0.2103491
 0.2105334 0.2107271 0.2109392 0.2111613 0.2113802 0.2115981 0.2118239 0.212054 0.2122785 0.2124974
 0.2127108 0.2129065 0.2130741 0.2132275 0.213402 0.2136261 0.2138921 0.2141589 0.2143907 0.2145886
 0.2147778 0.214975 0.2151769 0.2153696 0.2155474 0.2157318 0.2159595 0.2162377 0.2165317 0.2168103
 0.217077 0.2173466 0.2176218 0.2179029 0.2181839 0.2184363 0.2186329 0.2187942 0.2189909 0.2192864
 0.2196758 0.220086 0.2204437 0.2207398 0.2210129 0.2212949 0.2215976 0.221905 0.2221418 0.2222195
 0.2221828 0.2222445 0.2225884 0.2231799 0.2238253 0.2243712 0.2247934 0.225141 0.2254532 0.2257248
 0.2259159 0.2259978 0.2260171 0.2261155 0.2264342 0.2269663 0.2275456 0.2280162 0.2283574 0.2286238
 0.2288517 0.2290559 0.2292007 0.2291486 0.2288029 0.2283709 0.2283154 0.2289101 0.2299292 0.230885
 0.2315066 0.2318784 0.2321777 0.2324563 0.2326863 0.232786 0.2325055 0.2315754 0.2302199 0.2292999
 0.229598 0.2310276 0.2327792 0.2341382 0.2349371 0.2353583 0.2356174 0.2358277 0.2359172 0.2356258
 0.2347941 0.2337632 0.2332915 0.233854 0.235109 0.2362635 0.2368799 0.2371105 0.2372773 0.2375099
 0.2376565 0.237249 0.2357707 0.233418 0.2314846 0.2314529 0.2335392 0.2364299 0.2385879 0.2395734
 0.2399072 0.2399379 0.2393327 0.2376791 0.2351076 0.2322312 0.229956 0.2293616 0.2309871 0.2339283
 0.236344 0.2372747 0.2374623 0.2381303 0.2395192 0.2409 0.2415235 0.2411979 0.2401579 0.238658
 0.2368447 0.2351236 0.2344028 0.2354585 0.2379833 0.2406854 0.2424881 0.2433491 0.2436904 0.2431474
 0.2403249 0.2344718 0.2275797 0.2238379 0.2259304 0.2322227 0.2385244 0.2422147 0.2436634 0.2442584
 0.2445552 0.2441249 0.2417943 0.2362915 0.2282502 0.2214544 0.2202765 0.2253627 0.2329009 0.2381701
 0.2387696 0.2348935 0.2284609 0.22252 0.2200088 0.2219787 0.2271402 0.2331461 0.2380004 0.2405743
 0.2405922 0.2385543 0.235691 0.233637 0.2332599 0.2333887 0.2316919 0.2276178 0.2233157 0.2204762
 0.217711 0.2131271 0.2084711 0.2079458 0.2127348 0.2190304 0.2223125 0.2219083 0.220183 0.218261
 0.2141556 0.2056754 0.194583 0.1866274 0.1864709 0.19286 0.1997654 0.2022475 0.200336 0.1972795
 0.1952001 0.1929877 0.1879878 0.1794693 0.1702637 0.1643248 0.1625289 0.1618702 0.1589841 0.1529621
 0.1443563 0.1338603 0.1236997 0.1182984 0.1208083 0.1293528 0.13836 0.1430454 0.1413991 0.1334185
 0.1212773 0.1100516 0.1052889 0.1082548 0.1145573 0.118251 0.1165677 0.1103705 0.1015606 0.09169745
 0.08275461 0.07736085 0.07715642 0.08111675 0.08582445 0.08734261 0.08338825 0.07495647 0.06615876 0.06127119
 0.06103754 0.06232613 0.06168295 0.05842854 0.05414622 0.05046051 0.04801893 0.0466363 0.04559571 0.04424115
 0.0425162 0.04045548 0.03747007 0.03318477 0.02880357 0.02637992 0.02662035 0.02848673 0.03095808 0.03387191
 0.03675608 0.03825699 0.03769775 0.03647977 0.03693893 0.03990925 0.04398824 0.04720203 0.04897169 0.05026931
 0.0520889 0.05425462 0.05607936 0.05784877 0.06079224 0.06536694 0.07035975 0.074183 0.07647187 0.07791498
 0.07907647 0.07998706 0.08052901 0.08067109 0.0804615 0.08008195 0.07977054 0.07955042 0.079206 0.07856357
 0.07749295 0.07554176 0.07206301 0.06722032 0.0625805 0.0599178 0.05938136 0.05962482 0.05973103 0.05976489
 0.05909508 0.05585987 0.04944768 0.04253098 0.0390992 0.04061927 0.04500909 0.04908901 0.05105815 0.05060687
 0.0478953 0.04361937 0.03987644 0.03956161 0.04399297 0.05163804 0.05976811 0.06675941 0.07218099 0.0755199
 0.07611322 0.0743337 0.07204624 0.07160725 0.07451452 0.08070801 0.08840771 0.09434191 0.09533854 0.09162474
 0.08855903 0.09261529 0.1042915 0.116939 0.1241901 0.1265074 0.1283674 0.1313079 0.1332305 0.1335739
 0.1352781 0.1406708 0.147881 0.1525573 0.1515644 0.1441348 0.1313605 0.1164365 0.1041481 0.09777712
 0.09660724 0.09770493 0.09914928 0.09990002 0.09825721 0.0936722 0.08948886 0.09053193 0.09745214 0.1058639
 0.1115633 0.1145312 0.1170953 0.1198675 0.120884 0.1184648 0.1139535 0.110885 0.1114126 0.1143189
 0.1168694 0.1175783 0.116322 0.1128696 0.1070262 0.1001634 0.09514096 0.09394567 0.09581349 0.09808392
 0.0986588 0.09735324 0.0952421 0.09336998 0.09211732 0.09127171 0.09057952 0.09049814 0.09214196 0.09593438
 0.1006237 0.1044268 0.1070231 0.10965 0.1132439 0.1171999 0.1201375 0.1214603 0.122007 0.1233603
 0.1265123 0.1309751 0.1350946 0.1374188 0.1380325 0.1385847 0.1407734 0.1447239 0.1490324 0.1523099
 0.154284 0.155468 0.156353 0.1570496 0.157243 0.1564381 0.154724 0.1532822 0.1535604 0.1558119
 0.15885 0.161298 0.1627085 0.1634124 0.1636943 0.1634104 0.1623197 0.1605605 0.1586908 0.1572975
 0.1566444 0.1566621 0.1571217 0.1577585 0.1583393 0.1587274 0.1588921 0.1588628 0.1587125 0.1585664
 0.1585416 0.1586506 0.1588119 0.1589719 0.1591573 0.1593764 0.1595289 0.1594799 0.1591903 0.1587107
 0.1580735 0.1572642 0.1562809 0.1551354 0.1537761 0.1520988 0.150121 0.148141 0.1466485 0.1460026
 0.1461754 0.1468002 0.1474426 0.1478136 0.147802 0.1474259 0.1468095 0.146162 0.1457026 0.1455597
 0.1457322 0.1461408 0.1466967 0.1473146 0.1479025 0.148403 0.1488663 0.1494445 0.1502769 0.1513736
 0.1526203 0.1538909 0.1551359 0.1563508 0.1574862 0.1584435 0.1591767 0.1597548 0.160285 0.1607879
 0.1611807 0.1613768 0.1613671 0.1611913 0.1608568 0.1603142 0.1595052 0.1584026 0.1569946 0.155261
 0.1532085 0.1509483 0.1487233 0.146812 0.1453611 0.1442886 0.1433472 0.1422775 0.1409119 0.1391928
 0.1371637 0.1349592 0.1327659 0.1307549 0.1290211 0.1275572 0.1262647 0.124997 0.1236182 0.1220365
 0.1201977 0.1180646 0.11561 0.1128231 0.1097135 0.1063106 0.1026614 0.09883471 0.09492619 0.0910558
 0.08734496 0.08388834 0.08074699 0.07796535 0.07557867 0.07359211 0.07196418 0.07063419 0.0695741 0.06880517
 0.06836117 0.06824361 0.06841017 0.0687876 0.06928492 0.06980862 0.07028799 0.07069828 0.07106689 0.07146217
 0.0719654 0.07262992 0.07345792 0.07442287 0.07550922 0.07671368 0.07801008 0.07933621 0.08062765 0.08186033
 0.08305927 0.08427253 0.08553797 0.08686605 0.08824047 0.08962347 0.09096397 0.09221981 0.09338483 0.09449254
 0.09559259 0.0967285 0.09793285 0.09922808 0.100625 0.1021218 0.103702 0.105332 0.1069682 0.1085783
 0.1101616 0.1117589 0.113445 0.115303 0.1173862 0.1196904 0.1221609 0.1247223 0.1272992 0.1298124
 0.1321786 0.1343358 0.1362693 0.1380003 0.1395484 0.1409156 0.1420955 0.1430849 0.1439048 0.1446349
 0.1454065 0.1463207 0.1473648 0.1484249 0.149378 0.1501659 0.150807 0.1513684 0.1519205 0.1524977
 0.1531026 0.15375 0.1544874 0.1553546 0.1563279 0.1573204 0.1582323 0.1589997 0.1596093 0.1600887
 0.1604779 0.1607867 0.1609696 0.1609495 0.1606721 0.160136 0.1593781 0.1584486 0.1574006 0.1562872
 0.1551542 0.1540283 0.152902 0.1517268 0.1504344 0.1489843 0.1473938 0.1457248 0.1440515 0.1424396
 0.1409349 0.139547 0.1382442 0.1369712 0.1356803 0.1343494 0.1329792 0.131581 0.1301742 0.1287901
 0.1274664 0.1262272 0.1250708 0.123983 0.1229604 0.1220238 0.1212154 0.120579 0.120129 0.1198356
 0.1196415 0.119495 0.1193748 0.1192935 0.119275 0.1193208 0.1193954 0.1194455 0.119433 0.1193575
 0.1192547 0.1191693 0.119119 0.1190888 0.1190579 0.1190105 0.1189129 0.1187006 0.1183007 0.1176652
 0.1167795 0.1156554 0.1143329 0.1128921 0.1114453 0.1100947 0.1088962 0.1078671 0.1070009 0.1062574
 0.1055747 0.104936 0.1044107 0.1041024 0.1040552 0.1042025 0.1043854 0.1044373 0.1042994 0.1040641
 0.1038915 0.1038848 0.1040344 0.1042431 0.1043941 0.1044231 0.1043464 0.1042274 0.1041231 0.1040446
 0.1039418 0.1037399 0.1034132 0.1030068 0.1025745 0.1021204 0.1016119 0.101019 0.1003449 0.09963064
 0.09891208 0.09816737 0.09733565 0.09637763 0.09528451 0.09406602 0.09278999 0.09160599 0.09067661 0.09008312
 0.08977929 0.08959348 0.08930278 0.08875455 0.08789111 0.08668175 0.08520672 0.08390519 0.08355536 0.08474274
 0.08728074 0.09024945 0.09265852 0.09405256 0.09452735 0.09436098 0.09377156 0.09290244 0.09181898 0.09050643
 0.08896469 0.08726557 0.0854762 0.08362749 0.08178797 0.08006124 0.07850851 0.07714732 0.07599124 0.07510012
 0.07460392 0.07431714 0.07309812 0.06944649 0.06378938 0.05952226 0.06014472 0.06532107 0.07110298 0.07409489
 0.07415578 0.07306162 0.07208602 0.07146727 0.07115596 0.07120771 0.07166028 0.07240836 0.07322039 0.07386501
 0.07425147 0.0744058 0.07430093 0.07372515 0.07225662 0.06940606 0.06500265 0.05954247 0.05403831 0.04944697
 0.04623251 0.04433735 0.04337747 0.04288246 0.0425354 0.04230985 0.04239516 0.04297811 0.04408682 0.04561844
 0.04744224 0.04940235 0.05126717 0.05281213 0.0539798 0.05486641 0.055539 0.05595208 0.05604841 0.05585628
 0.05546544 0.05495943 0.05438858 0.05377305 0.05310007 0.05233308 0.05147281 0.05062141 0.04993108 0.04946467
 0.04915666 0.0489182 0.04871283 0.04852573 0.04833494 0.04812936 0.04791789 0.04773428 0.0476485 0.04772334
 0.04793477 0.0481762 0.04835428 0.04845951 0.0485513 0.04867658 0.04879035 0.0488074 0.04877423 0.04888138
 0.04919457 0.04948517 0.04949325 0.04929648 0.0492569 0.0496203 0.0502887 0.05097603 0.05147602 0.0517685
 0.05198046 0.05231003 0.05289877 0.05366583</values></Ydata></ScSm><ScRf><Ydata ylabel="Single channel"><values byteorder="INTEL" format="FLOAT32" numvalues="1820"> 0.06064378 0.06080555 0.06089915 0.0609224 0.06090282 0.06089353 0.06094926 0.06109117 0.06129003 0.06148288
 0.06161516 0.0616751 0.06168187 0.06164746 0.06158028 0.06152675 0.0615641 0.06172478 0.06194652 0.06211373
 0.06215059 0.06208809 0.06204593 0.06211654 0.06224221 0.06223254 0.06194273 0.06143714 0.06094622 0.0606546
 0.06058818 0.06074487 0.06120157 0.06190002 0.06241386 0.06225443 0.06148097 0.06072276 0.06048081 0.06065053
 0.06081766 0.06073997 0.06041903 0.0600034 0.05983389 0.06035437 0.06167333 0.06320003 0.0638546 0.06274836
 0.05981888 0.05603534 0.05304223 0.05227666 0.05395536 0.0567843 0.0589306 0.0594861 0.05890477 0.0580749
 0.05736101 0.05671395 0.05629248 0.05650875 0.05745931 0.0585278 0.05869761 0.05742553 0.05529188 0.05358909
 0.05313737 0.05376809 0.05502035 0.05664574 0.05790363 0.05715416 0.05347071 0.04868918 0.04659443 0.04932228
 0.05507824 0.05988938 0.06113869 0.05903879 0.05548594 0.05248581 0.05138629 0.05251326 0.05512618 0.0580373
 0.06032816 0.06137694 0.06069361 0.05835079 0.05540528 0.05338436 0.05334628 0.05546554 0.05899435 0.06232892
 0.06373987 0.06265011 0.06001759 0.05732376 0.05560045 0.0554321 0.05709689 0.06027543 0.06403568 0.06737486
 0.06962848 0.0705338 0.07028365 0.06940749 0.06836994 0.06748874 0.06721246 0.06784639 0.06882018 0.0689041
 0.06754884 0.06562323 0.06452146 0.0647227 0.06541052 0.06546441 0.06459105 0.06314358 0.06101689 0.05762558
 0.05325066 0.04940021 0.04730501 0.04698091 0.04812454 0.05059451 0.05335539 0.05441219 0.05299019 0.05093186
 0.05086857 0.05341387 0.05684466 0.05920807 0.06013102 0.06068914 0.06201822 0.06415009 0.06586728 0.06562338
 0.06307819 0.05995952 0.05884264 0.06062256 0.0636524 0.06576828 0.06657245 0.06719282 0.06831367 0.06911318
 0.06811874 0.06495652 0.06128965 0.05978612 0.06179162 0.06598312 0.06933188 0.06934331 0.06573465 0.06049899
 0.05635329 0.0548583 0.05600523 0.05925492 0.06413402 0.06968072 0.07419456 0.07618587 0.07545461 0.07302067
 0.06995897 0.06640097 0.06207753 0.05796594 0.05650743 0.05930296 0.06506182 0.07067287 0.07398365 0.07487918
 0.07406692 0.07174068 0.06778955 0.06310502 0.06000697 0.0604359 0.06361239 0.06647854 0.06689676 0.06559937
 0.0646214 0.0647696 0.06531627 0.06555338 0.06580709 0.06687727 0.06888807 0.07098429 0.07215689 0.07215705
 0.07154208 0.07102814 0.07083619 0.07052504 0.06961428 0.06855051 0.06864904 0.07064956 0.07369363 0.07620579
 0.0774735 0.07790309 0.07795862 0.07735078 0.07545588 0.07248621 0.06996699 0.06960315 0.07162862 0.0746575
 0.07712201 0.07840222 0.07868452 0.07838999 0.07788506 0.0773629 0.07691127 0.07677069 0.07727107 0.07835376
 0.0794667 0.0801216 0.08029582 0.0801726 0.07978456 0.07909973 0.0782881 0.07771917 0.07768889 0.07819714
 0.07900362 0.07984431 0.08051842 0.08084036 0.08070858 0.08025825 0.07978285 0.07946318 0.07930031 0.07930301
 0.07955527 0.08004914 0.08059828 0.08099488 0.08117802 0.08120893 0.08115059 0.08101927 0.08082414 0.0806237
 0.0805337 0.08064464 0.08091274 0.08118884 0.08139554 0.08160506 0.08187922 0.08211435 0.08214842 0.08197795
 0.0817721 0.08168764 0.0817422 0.08185747 0.08194907 0.08194275 0.08176333 0.08140071 0.08100214 0.08081698
 0.0809972 0.08149046 0.08213365 0.08276863 0.08325981 0.08352077 0.08358126 0.0835545 0.08350294 0.08339162
 0.08318858 0.08296482 0.08287575 0.08304583 0.08345671 0.08394992 0.0843519 0.08458471 0.08467136 0.08470051
 0.08478858 0.08498803 0.08520763 0.08529744 0.08523378 0.08515319 0.08518447 0.08530241 0.08537409 0.0853219
 0.0852167 0.08520551 0.08535729 0.0856013 0.08582011 0.08597486 0.08612151 0.08631606 0.08651815 0.08660601
 0.0865083 0.08630346 0.08614239 0.08608595 0.08608399 0.08610791 0.08621188 0.08642813 0.0866731 0.08682039
 0.08684297 0.0868333 0.08688116 0.08696529 0.08698379 0.08687328 0.08667591 0.08649667 0.08641712 0.08644826
 0.08653907 0.08661528 0.08662234 0.08655275 0.08644089 0.08632968 0.08624286 0.08619604 0.08622583 0.08637474
 0.08662093 0.08683975 0.08687907 0.08669662 0.08641257 0.086207 0.08615839 0.08618623 0.08614746 0.08597418
 0.08571418 0.08546125 0.08527137 0.08514099 0.08503877 0.08494598 0.08487993 0.08488715 0.08499521 0.08515222
 0.0852328 0.08514012 0.08490211 0.08464266 0.08446538 0.08438912 0.08437526 0.08437775 0.08437806 0.08440097
 0.08447787 0.08457695 0.08460937 0.08453309 0.08441226 0.08435166 0.08441006 0.08458294 0.08481038 0.08498555
 0.08501859 0.08492453 0.08481291 0.08477454 0.08481099 0.08487888 0.08495769 0.08505145 0.08515586 0.08525874
 0.08536842 0.08551798 0.0857323 0.08599517 0.08625051 0.08643962 0.0865497 0.08663477 0.08678007 0.08703099
 0.08735408 0.08766888 0.08791734 0.08810492 0.08827914 0.08847201 0.08867386 0.08887096 0.08908814 0.08936372
 0.08969088 0.090019 0.09031399 0.09058821 0.09086898 0.09116285 0.09146052 0.09176673 0.09211504 0.09253637
 0.09300026 0.09340648 0.09366722 0.09379569 0.09389801 0.09408733 0.09440866 0.09480928 0.09516223 0.09536201
 0.09543394 0.09551832 0.09571536 0.09598239 0.09622181 0.09643289 0.09671548 0.0971297 0.09760402 0.0980009
 0.09824967 0.09839925 0.09854957 0.09874414 0.09893683 0.09906499 0.09913743 0.09922346 0.09936383 0.09953941
 0.09974144 0.1000174 0.1004028 0.1008431 0.1012332 0.1015167 0.1017115 0.1018582 0.1019789 0.1020729
 0.1021257 0.1021375 0.1021501 0.1022144 0.1023199 0.1023993 0.102419 0.1024277 0.1024967 0.1026511
 0.1028793 0.1031689 0.103494 0.1038008 0.1040549 0.1043004 0.1046188 0.1050107 0.1053607 0.1055553
 0.105604 0.1056039 0.1056175 0.1056463 0.1057045 0.1058454 0.1060967 0.1064221 0.1067673 0.1071123
 0.1074642 0.1078189 0.1081428 0.1083841 0.1085044 0.1085106 0.1084636 0.1084525 0.1085511 0.108781
 0.1091014 0.1094381 0.1097306 0.1099454 0.1100567 0.1100509 0.1099731 0.1099362 0.1100331 0.1102345
 0.1104012 0.1104015 0.1101985 0.1098252 0.1093175 0.1087003 0.1080196 0.1073552 0.1067907 0.106379
 0.106143 0.1061065 0.1063073 0.1067565 0.1073901 0.1080855 0.1087339 0.1092643 0.1095977 0.1096326
 0.1093198 0.1087247 0.107986 0.1072281 0.1065244 0.1058982 0.1053236 0.1047617 0.1042436 0.1039136
 0.1039618 0.1045094 0.1055491 0.1069513 0.1085034 0.1099762 0.1112151 0.1121962 0.1129946 0.1136984
 0.1143572 0.1150002 0.1156595 0.1163426 0.1170008 0.1175673 0.1180304 0.11844 0.1188424 0.1192347
 0.1195816 0.1198566 0.120068 0.1202586 0.1204639 0.1206586 0.120769 0.1207553 0.1206557 0.120534
 0.1204076 0.1202412 0.1199874 0.1196231 0.1191826 0.1187827 0.1186063 0.1188238 0.1194974 0.1205441
 0.1217961 0.1231046 0.124378 0.1255358 0.1264799 0.1271499 0.1275835 0.1278873 0.1281563 0.128436
 0.1287384 0.12906 0.129386 0.1296972 0.129984 0.1302566 0.130543 0.1308651 0.1312065 0.1315175
 0.1317657 0.131981 0.1322363 0.1325781 0.132979 0.1333662 0.1337001 0.1340079 0.134328 0.1346426
 0.1348992 0.1350864 0.1352539 0.1354619 0.1357409 0.1360886 0.1364673 0.1368076 0.1370555 0.1372238
 0.1373771 0.1375654 0.1377925 0.138041 0.1383001 0.1385635 0.138823 0.1390809 0.139356 0.1396597
 0.1399655 0.1402201 0.1403968 0.1405276 0.140673 0.1408648 0.1410846 0.1412939 0.1414823 0.1416822
 0.1419376 0.142251 0.1425702 0.1428306 0.1430093 0.1431345 0.1432535 0.1434005 0.1435848 0.1437953
 0.1440137 0.1442275 0.1444358 0.1446438 0.1448557 0.1450717 0.145288 0.1454981 0.1456982 0.1458932
 0.1460937 0.1463047 0.146524 0.1467579 0.1470259 0.1473342 0.1476495 0.1479167 0.1481082 0.1482433
 0.1483611 0.148488 0.148633 0.1487981 0.1489818 0.1491788 0.1493818 0.1495858 0.1497904 0.1499978
 0.1502084 0.1504194 0.1506288 0.150838 0.151051 0.1512715 0.1514995 0.1517288 0.1519479 0.1521484
 0.1523331 0.1525163 0.1527123 0.1529225 0.1531323 0.1533257 0.1535031 0.1536799 0.1538677 0.1540627
 0.1542547 0.1544398 0.1546224 0.1548076 0.1549985 0.1551975 0.1554047 0.1556155 0.1558227 0.1560234
 0.1562198 0.1564132 0.1566022 0.1567894 0.1569826 0.1571864 0.1573959 0.1576042 0.1578106 0.158018
 0.1582229 0.1584156 0.1585923 0.1587644 0.1589505 0.1591573 0.1593728 0.1595804 0.1597757 0.1599661
 0.1601602 0.1603602 0.1605615 0.1607631 0.160973 0.1611976 0.1614287 0.161651 0.1618612 0.1620669
 0.1622724 0.1624761 0.16268 0.1628912 0.1631126 0.1633394 0.163563 0.1637773 0.1639806 0.1641731
 0.1643534 0.1645235 0.1646917 0.1648654 0.1650427 0.1652182 0.1653923 0.165571 0.165761 0.1659645
 0.1661758 0.166384 0.1665845 0.1667821 0.1669829 0.1671877 0.1673944 0.1676009 0.1678068 0.1680153
 0.168227 0.1684352 0.1686348 0.1688295 0.1690252 0.1692226 0.1694242 0.169635 0.1698525 0.1700683
 0.1702784 0.1704837 0.1706859 0.1708892 0.1710977 0.1713079 0.1715139 0.171717 0.1719199 0.1721229
 0.1723312 0.172553 0.1727855 0.1730151 0.1732324 0.1734348 0.173625 0.1738146 0.1740172 0.1742332
 0.1744543 0.1746777 0.1749028 0.1751253 0.1753445 0.1755609 0.1757688 0.1759648 0.1761591 0.1763637
 0.1765809 0.1768076 0.1770346 0.1772365 0.1773673 0.1773196 0.1768205 0.1753267 0.1720136 0.1659402
 0.1564225 0.1434613 0.1278901 0.1110798 0.09444059 0.07906355 0.06560825 0.05436885 0.04540588 0.0386455
 0.03394622 0.03118902 0.03036934 0.03170262 0.03574266 0.04305243 0.05296801 0.06251282 0.06756054 0.06609091
 0.06011783 0.05385145 0.05019957 0.04936552 0.05010749 0.05136878 0.05281765 0.05464953 0.05719562 0.06054562
 0.06453463 0.06915341 0.07474446 0.08156009 0.08924057 0.09696788 0.1041686 0.1109595 0.1178724 0.1252134
 0.1327415 0.1399045 0.146278 0.1517787 0.1565844 0.1609394 0.1650125 0.1688737 0.1725475 0.1760242
 0.1791877 0.1817792 0.1835169 0.1843077 0.1843574 0.1840644 0.1837892 0.1837033 0.1838179 0.1840934
 0.1845017 0.1850315 0.1856768 0.1864195 0.1872191 0.1880323 0.1888391 0.1896333 0.190401 0.1911234
 0.1917894 0.1923939 0.1929366 0.193427 0.1938781 0.1942977 0.1946915 0.1950687 0.195434 0.1957849
 0.1961188 0.1964351 0.1967322 0.1970091 0.1972693 0.1975165 0.1977519 0.1979757 0.1981879 0.1983882
 0.1985799 0.1987721 0.1989723 0.1991809 0.1993932 0.1996028 0.1998042 0.1999957 0.2001824 0.2003727
 0.2005707 0.2007729 0.2009709 0.2011618 0.2013538 0.2015573 0.2017716 0.2019856 0.2021901 0.2023844
 0.2025716 0.2027568 0.2029439 0.2031333 0.2033236 0.203517 0.2037143 0.2039106 0.2041053 0.204308
 0.2045246 0.2047477 0.2049707 0.2051953 0.2054147 0.2056059 0.2057562 0.2058882 0.2060455 0.2062536
 0.206497 0.2067351 0.2069409 0.2071237 0.2073103 0.2075148 0.207727 0.2079272 0.2081087 0.2082931
 0.208513 0.2087723 0.2090395 0.2092889 0.2095242 0.2097565 0.2099875 0.2102192 0.2104482 0.2106481
 0.2107911 0.2108989 0.2110492 0.211313 0.2116825 0.2120684 0.2123821 0.2126136 0.212817 0.2130421
 0.2133054 0.2135822 0.2137876 0.2138279 0.2137412 0.2137308 0.2139836 0.2144857 0.2150643 0.2155645
 0.2159431 0.2162368 0.2164914 0.2167133 0.2168616 0.2168978 0.2168666 0.2169177 0.2171988 0.2177001
 0.2182498 0.2186893 0.2189978 0.2192286 0.2194189 0.2195886 0.2197067 0.2196339 0.2192649 0.2187971
 0.218688 0.2192129 0.2201558 0.2210419 0.2216081 0.2219375 0.2222008 0.2224452 0.2226424 0.2227156
 0.2224257 0.2215123 0.2201945 0.2193117 0.2196257 0.2210485 0.222785 0.2241285 0.2249081 0.2253069
 0.2255502 0.2257566 0.2258534 0.2255856 0.2247999 0.2238262 0.223396 0.2239686 0.2252126 0.2263607
 0.2269959 0.2272705 0.2274882 0.2277634 0.2279476 0.2275878 0.2261774 0.2239068 0.2220474 0.222056
 0.2241465 0.2270325 0.2292031 0.230221 0.2305995 0.2306894 0.2301653 0.2286153 0.2261638 0.2234143
 0.2212556 0.2207443 0.2224082 0.225366 0.2278237 0.2288436 0.229135 0.2298774 0.2313124 0.2327482
 0.2334618 0.2332622 0.2323712 0.2310253 0.2293566 0.227764 0.2271444 0.228258 0.2308043 0.2335256
 0.2353695 0.2362902 0.2367045 0.236263 0.2335972 0.227968 0.2213303 0.2177901 0.2199781 0.2262971
 0.2326364 0.2364131 0.2379896 0.2387407 0.2392073 0.2389462 0.2367955 0.231516 0.22375 0.2172462
 0.216325 0.2216021 0.2292859 0.2347146 0.2355296 0.231917 0.2257674 0.2201129 0.2178875 0.2201499
 0.2256273 0.2319716 0.2371643 0.2400681 0.2404174 0.2387125 0.2361865 0.2345047 0.2345567 0.2351404
 0.2338776 0.2302172 0.226349 0.2239873 0.2217194 0.2176208 0.2134877 0.213653 0.2193584 0.226678
 0.2309287 0.2314148 0.2305788 0.2295365 0.226148 0.2180891 0.2072577 0.1998589 0.2009892 0.2093493
 0.2184022 0.2227728 0.2225225 0.221238 0.2212494 0.2212514 0.2181409 0.2110667 0.2035044 0.2003404
 0.2026706 0.2068157 0.2086744 0.2069951 0.2019581 0.1938656 0.1854772 0.1828442 0.1902135 0.2048336
 0.2191067 0.2268359 0.2254843 0.2148214 0.1978279 0.182535 0.1781135 0.1866527 0.2006207 0.2097961
 0.2093762 0.200825 0.1875131 0.1724263 0.1595673 0.1543773 0.1604809 0.1760173 0.1936473 0.2041775
 0.2016415 0.1879687 0.1734492 0.1693318 0.1775544 0.1893763 0.1951615 0.1931277 0.1879808 0.1848704
 0.1864243 0.1922635 0.1993974 0.2050412 0.2088394 0.2096859 0.2027151 0.1851433 0.1640037 0.1515124
 0.1523852 0.1614242 0.1732812 0.1872619 0.2009531 0.2069269 0.2011123 0.190501 0.1871898 0.1955352
 0.2084278 0.2159933 0.2153675 0.2112108 0.2085218 0.2073201 0.2051348 0.2027611 0.2044698 0.2121123
 0.2218884 0.2285911 0.2310291 0.2315535 0.2320714 0.2325967 0.2326055 0.2319119 0.2305821 0.229059
 0.2280322 0.227661 0.2274264 0.226926 0.2258401 0.2227041 0.2152301 0.2035191 0.1920988 0.1863293
 0.1867169 0.1892894 0.1915016 0.1937166 0.1936997 0.1850705 0.1657335 0.1447946 0.1359315 0.144172
 0.1621494 0.1785021 0.1865815 0.1850133 0.174288 0.1569583 0.1403585 0.1343153 0.1431313 0.1614533
 0.1799941 0.1935392 0.2015404 0.2036726 0.1988439 0.1883591 0.1771975 0.1711683 0.1733716 0.1828298
 0.1948087 0.2020387 0.1982806 0.18453 0.1717385 0.1727282 0.188745 0.2073841 0.2165312 0.2166219
 0.2157245 0.2169978 0.2171292 0.2151405 0.2159151 0.2235049 0.2351724 0.2440909 0.2453398 0.2378423
 0.2237267 0.2088254 0.2011624 0.2044857 0.2139408 0.2212964 0.2228847 0.2191263 0.2096836 0.1954924
 0.1838956 0.1842297 0.1970143 0.2127313 0.2226341 0.2267097 0.2297238 0.2330179 0.2328876 0.2262059
 0.2156539 0.208077 0.2077167 0.212501 0.2175657 0.2203905 0.2208227 0.2181639 0.2116083 0.2035655
 0.1996892 0.2039567 0.214523 0.2254163 0.231859 0.2332484 0.2317527 0.2294945 0.2271288 0.2240204
 0.2196601 0.2155006 0.2146724 0.2186441 0.2248851 0.2294698 0.2315728 0.2337364 0.2378765 0.2426459
 0.2450765 0.2438167 0.2404115 0.2379496 0.2385823 0.2418208 0.2449038 0.2451532 0.2425202 0.2398727
 0.2403572 0.2443996 0.2496466 0.2536469 0.2558476 0.2570825 0.258135 0.2590501 0.2590958 0.2573138
 0.2538762 0.2508752 0.2508394 0.2542284 0.2590005 0.2627233 0.2645383 0.2650275 0.2648829 0.264188
 0.2627967 0.2609745 0.2594321 0.2587684 0.2590365 0.2598718 0.2608697 0.2617695 0.2624471 0.2628967
 0.2631891 0.2633857 0.2635114 0.2635999 0.2636796 0.2637086 0.2636212 0.2634729 0.2634476 0.2636596
 0.2640023 0.264257 0.2642897 0.2640623 0.2635131 0.2625675 0.2612758 0.259811 0.2582776 0.2566342
 0.2549208 0.2535239 0.2530701 0.2539543 0.2559706 0.2584333 0.2606449 0.2622484 0.2632282 0.263729
 0.263927 0.2639782 0.2639764 0.2639303 0.2638023 0.2635721 0.2632604 0.2629053 0.2625356 0.2621697
 0.2618263 0.2615219 0.2612537 0.2609865 0.2606663 0.2602527 0.2597463 0.2591885 0.2586227 0.2580488
 0.2574176 0.2566748 0.2558093 0.254865 0.2539185 0.2530412 0.2522542 0.2515134 0.2507507 0.2499256
 0.2490201 0.2480056 0.24687 0.2456867 0.2446073 0.2437449 0.2430787 0.2424849 0.2418412 0.241086
 0.240213 0.2392464 0.238219 0.2371484 0.2360321 0.2348664 0.2336554 0.2323951 0.231066 0.2296508
 0.2281484 0.2265734 0.2249527 0.2233137 0.2216477 0.2198802 0.2178903 0.215554 0.2127663 0.2094429
 0.2055413 0.201105 0.1962878 0.1913178 0.1864206 0.1817612 0.1774485 0.1735727 0.1702235 0.1674772
 0.1653845 0.1639724 0.1632548 0.1632403 0.1639284 0.1652912 0.1672567 0.1697091 0.1725037 0.1754826
 0.1784818 0.1813416 0.1839505 0.1863013 0.1884853 0.1905907 0.1926101 0.194467 0.1961078 0.1975338
 0.1987607 0.1997934 0.2006431 0.2013397 0.2019179 0.2024041 0.2028182 0.2031784 0.2034975 0.2037749
 0.2040009 0.2041757 0.204323 0.2044791 0.2046697 0.2048964 0.2051472 0.2054247 0.2057618 0.2061943
 0.2067173 0.2072871 0.2078691 0.2084639 0.209088 0.2097535 0.2104772 0.2112914 0.2122329 0.2133247
 0.2145637 0.2159166 0.2173183 0.2186757 0.219887 0.2208764 0.2216172 0.2221182 0.2223979 0.2224809
 0.2224039 0.2222039 0.2219032 0.221518 0.2210697 0.2205744 0.2200282 0.21942 0.2187548 0.2180528
 0.2173329 0.2166065 0.2158862 0.2151867 0.2145155 0.2138715 0.2132528 0.2126585 0.2120808 0.2115073
 0.2109338 0.2103663 0.2098073 0.2092472 0.2086722 0.2080703 0.2074238 0.2067039 0.2058807 0.2049392
 0.2038846 0.2027347 0.2015111 0.2002302 0.1988936 0.1974871 0.1959966 0.1944246 0.1927847 0.1910789
 0.1892852 0.1873768 0.1853631 0.1833091 0.1813071 0.1794299 0.1777075 0.1761313 0.1746666 0.1732744
 0.1719365 0.1706543 0.1694275 0.1682505 0.1671298 0.1660799 0.1650998 0.164171 0.1632835 0.1624548
 0.1617163 0.1610842 0.160547 0.1600837 0.1596803 0.1593291 0.1590336 0.1588252 0.158743 0.1587753
 0.1588458 0.1588753 0.1588392 0.1587602 0.1586708 0.1585865 0.158502 0.1584129 0.1583309 0.1582524
 0.1581149 0.1578135 0.1572563 0.1563917 0.1552054 0.153717 0.1519791 0.1500859 0.148184 0.1464395
 0.1449663 0.1438 0.1429291 0.1423073 0.1418478 0.1414654 0.1411389 0.1409201 0.1408837 0.1410517
 0.1413306 0.1415527 0.1416302 0.1416536 0.1418044 0.1422002 0.1428309 0.1435881 0.1443348 0.144979
 0.1454893 0.1458548 0.1460761 0.1461893 0.1462368 0.146217 0.146109 0.1459216 0.145679 0.1453896
 0.1450451 0.1446216 0.1440951 0.1434781 0.1428076 0.1420852 0.1412819 0.1403847 0.1393765 0.1382273
 0.1369962 0.1358999 0.1352059 0.1350747 0.1354952 0.1363077 0.1373108 0.1383875 0.1394577 0.1403074
 0.1406744 0.1406451 0.1408164 0.1418572 0.1438826 0.1463332 0.1484695 0.1499041 0.1506409 0.1507817
 0.1503798 0.1494808 0.1480917 0.1461549 0.1436879 0.1408554 0.1378299 0.1347351 0.1317468 0.1290682
 0.1268088 0.1249945 0.1236122 0.1226738 0.1222907 0.1220947 0.1202018 0.1141848 0.1048293 0.09781736
 0.09895123 0.1076359 0.1172961 0.1223201 0.1225261 0.1208783 0.1194281 0.1184776 0.1179192 0.117907
 0.1185774 0.119786 0.1211499 0.1222745 0.1229855 0.1233087 0.1232095 0.1223446 0.1199795 0.1152474
 0.1078547 0.09868088 0.08947532 0.08183846 0.07649557 0.07331388 0.071669 0.070816 0.07025055 0.06993891
 0.07019506 0.0713018 0.07327227 0.07594748 0.07916437 0.08269119 0.08610284 0.08895814 0.09113522 0.09283499
 0.0942339 0.09527539 0.09581623 0.09583428 0.09544341 0.09479795 0.09403291 0.09322774 0.09235443 0.09130159
 0.09005311 0.08883893 0.08798945 0.08761485 0.08753086 0.0875031 0.08744188 0.08735862 0.08727008 0.08718237
 0.08710503 0.08707951 0.0872013 0.08754595 0.08805302 0.08854637 0.08888327 0.0890521 0.08913298 0.08915342
 0.08896844 0.08838898 0.08750874 0.08672112 0.08622427 0.08569125 0.08470228 0.08338884 0.08236513 0.08205483
 0.08231089 0.08267927 0.08282417 0.08267681 0.08239233 0.08227772 0.08259335 0.08324504 0.0837612 0.08373669
</values></Ydata></ScRf><Data_Parameters_AB><parameter name="DPF">1</parameter><parameter name="NPT">3497</parameter><parameter name="FXV">3996</parameter><parameter name="LXV">500</parameter><parameter name="CSF">1</parameter><parameter name="MXY">0.97620302438736</parameter><parameter name="MNY">-0.0754657313227654</parameter><parameter name="DAT">02/06/2022</parameter><parameter name="TIM">11:53:28.096 (GMT+2)</parameter><parameter name="DXU">WN</parameter></Data_Parameters_AB><AB__Qtest><MainReport name="Quality Test Report"><Header><Line><Legend>Test result ok/not ok [1/0]: </Legend><Value>1</Value></Line><Line><Legend>Method file: </Legend><Value>C:\Users\Public\Documents\Bruker\OPUS_8.2.28\QT\IRBT_v3_default.QT</Value></Line></Header><Matrix><Line><Legend></Legend><Legend>min</Legend><Legend>max</Legend><Legend>measured</Legend></Line><Line><Value>Absorption (X-Range 1):</Value><Value>0.400000</Value><Value>2.000000</Value><Value>0.778470</Value></Line><Line><Value>Noise (X-Range 4):</Value><Value></Value><Value>0.000300</Value><Value>0.000062</Value></Line><Line><Value>Signal/Noise (X-Range 2):</Value><Value>200.000000</Value><Value></Value><Value>383.863772</Value></Line><Line><Value>Signal/Noise (X-Range 3):</Value><Value>40.000000</Value><Value></Value><Value>111.146738</Value></Line><Line><Value>Water vapour (X-Range 5):</Value><Value></Value><Value>0.000300</Value><Value>0.000093</Value></Line><Line><Value>Signal/Water (X-Range 2):</Value><Value>100.000000</Value><Value></Value><Value>256.407123</Value></Line><Line><Value>Signal/Water (X-Range 3):</Value><Value>20.000000</Value><Value></Value><Value>74.242003</Value></Line><Line><Value>Fringes (X-Range 6):</Value><Value></Value><Value>0.000100</Value><Value>0.000080</Value></Line></Matrix></MainReport></AB__Qtest><Data_Parameters_ScSm><parameter name="DPF">1</parameter><parameter name="NPT">1814</parameter><parameter name="FXV">3996.33169228125</parameter><parameter name="LXV">499.541461535156</parameter><parameter name="CSF">1</parameter><parameter name="MXY">0.244555190205574</parameter><parameter name="MNY">0.0113311558961868</parameter><parameter name="DAT">02/06/2022</parameter><parameter name="TIM">11:53:28.096 (GMT+2)</parameter><parameter name="DXU">WN</parameter></Data_Parameters_ScSm><Data_Parameters_ScRf><parameter name="DPF">1</parameter><parameter name="NPT">1820</parameter><parameter name="FXV">4004.04661832813</parameter><parameter name="LXV">495.683998511719</parameter><parameter name="CSF">1</parameter><parameter name="MXY">0.265027493238449</parameter><parameter name="MNY">0.0303693413734436</parameter><parameter name="DAT">02/06/2022</parameter><parameter name="TIM">11:53:02.243 (GMT+2)</parameter><parameter name="DXU">WN</parameter></Data_Parameters_ScRf><Optic_Parameters_Rf><parameter name="APR">0</parameter><parameter name="APT">Open</parameter><parameter name="BMS">KBr</parameter><parameter name="DTC">RT-DLaTGS_IR-Biotyper [Microplate reader]</parameter><parameter name="HPF">0</parameter><parameter name="LPF">10.0</parameter><parameter name="LPV">4000</parameter><parameter name="PGR">0</parameter><parameter name="RCH">Module port</parameter><parameter name="RDX">0</parameter><parameter name="SRC">MIR</parameter><parameter name="VEL">10.0</parameter><parameter name="SON">Off</parameter></Optic_Parameters_Rf><Acquisition_Parameters_Rf><parameter name="ADT">1</parameter><parameter name="AQM">DD</parameter><parameter name="CFE">0</parameter><parameter name="COR">0</parameter><parameter name="DEL">0</parameter><parameter name="DLY">0</parameter><parameter name="HFW">8000</parameter><parameter name="LFW">0</parameter><parameter name="NSR">32</parameter><parameter name="PLF">AB</parameter><parameter name="RES">6</parameter><parameter name="RGN">-1</parameter><parameter name="STR">0</parameter><parameter name="TCL">MakeCompatibleScalar (0, {WSV=1.000000, ARV=0});</parameter><parameter name="TDL">37</parameter><parameter name="RPO">0</parameter></Acquisition_Parameters_Rf><FT_-_Parameters_Rf><parameter name="APF">B3</parameter><parameter name="HFQ">500</parameter><parameter name="LFQ">4000</parameter><parameter name="NLI">0</parameter><parameter name="PHR">24</parameter><parameter name="PHZ">ML</parameter><parameter name="SPZ">NO</parameter><parameter name="ZFF">1</parameter></FT_-_Parameters_Rf><Optic_Parameters_><parameter name="APR">0</parameter><parameter name="APT">Open</parameter><parameter name="BMS">KBr</parameter><parameter name="CHN">Module port</parameter><parameter name="DTC">RT-DLaTGS_IR-Biotyper [Microplate reader]</parameter><parameter name="HPF">0</parameter><parameter name="LPF">10.0</parameter><parameter name="LPV">4000</parameter><parameter name="PGN">0</parameter><parameter name="RDX">0</parameter><parameter name="SRC">MIR</parameter><parameter name="VEL">10.0</parameter><parameter name="SON">Off</parameter></Optic_Parameters_><FT_-_Parameters_><parameter name="APF">B3</parameter><parameter name="HFQ">500</parameter><parameter name="LFQ">4000</parameter><parameter name="NLI">0</parameter><parameter name="PHR">24</parameter><parameter name="PHZ">ML</parameter><parameter name="SPZ">NO</parameter><parameter name="ZFF">1</parameter></FT_-_Parameters_><Acquisition_Parameters_><parameter name="ADT">1</parameter><parameter name="AQM">DD</parameter><parameter name="CFE">0</parameter><parameter name="COR">0</parameter><parameter name="DEL">0</parameter><parameter name="DLY">0</parameter><parameter name="HFW">8000</parameter><parameter name="LFW">0</parameter><parameter name="NSS">32</parameter><parameter name="PLF">AB</parameter><parameter name="RES">6</parameter><parameter name="SOT">0</parameter><parameter name="TCL">MakeCompatibleScalar (0, {WSV=1.000000, ARV=0});</parameter><parameter name="TDL">37</parameter><parameter name="SPO">0</parameter><parameter name="SGN">-1</parameter></Acquisition_Parameters_><Instrument_Parameters_Rf><parameter name="HFL">15800.168544</parameter><parameter name="LFL">0</parameter><parameter name="LWN">15800.168544</parameter><parameter name="ABP">32197</parameter><parameter name="SSP">1</parameter><parameter name="ARG">2</parameter><parameter name="ASG">2</parameter><parameter name="ASS">32</parameter><parameter name="GFW">16</parameter><parameter name="GBW">16</parameter><parameter name="BFW">0</parameter><parameter name="BBW">0</parameter><parameter name="PKA">7269</parameter><parameter name="PKL">4996</parameter><parameter name="PRA">7451</parameter><parameter name="PRL">5001</parameter><parameter name="P2A">1</parameter><parameter name="P2L">1</parameter><parameter name="P2R">1</parameter><parameter name="P2K">1</parameter><parameter name="DAQ">0</parameter><parameter name="AG2">1</parameter><parameter name="SSM">1</parameter><parameter name="RSN">26107</parameter><parameter name="CRR">0</parameter><parameter name="SRT">1654170782.244</parameter><parameter name="DUR">19.6379852294922</parameter><parameter name="TSC">28.8</parameter><parameter name="MVD">0.225486248731613</parameter><parameter name="AN1">0.225818779579847</parameter><parameter name="AN2">0</parameter><parameter name="VSN">2.485 Apr  4 2017</parameter><parameter name="SRN">0085</parameter><parameter name="CAM">0</parameter><parameter name="INS">IR-Biotyper</parameter><parameter name="FOC">69</parameter><parameter name="RDY">1</parameter><parameter name="ARS">32</parameter></Instrument_Parameters_Rf><Sample_Parameters_><parameter name="BLD"></parameter><parameter name="CNM">Admin</parameter><parameter name="CPY"></parameter><parameter name="DPM"></parameter><parameter name="EXP">IRBT_v3_32Scans.XPM</parameter><parameter name="LCT"></parameter><parameter name="SFM">Microplate, HTS-XT</parameter><parameter name="SNM">220602-1054_GFG29M (D_2)_G6_cda8fa5f-e5ed-41a4-96e4-8cfca4b409b1.0</parameter><parameter name="XPP">C:\Users\Public\Documents\Bruker\OPUS_8.2.28\XPM</parameter><parameter name="IST">OK</parameter><parameter name="CPG">1252</parameter><parameter name="UID">e76d3109-884b-43a8-8ff0-936ebbd34499</parameter></Sample_Parameters_><Instrument_Parameters_><parameter name="HFL">15800.168544</parameter><parameter name="LFL">0</parameter><parameter name="LWN">15800.168544</parameter><parameter name="ABP">32197</parameter><parameter name="SSP">1</parameter><parameter name="ASG">4</parameter><parameter name="ARG">2</parameter><parameter name="ASS">32</parameter><parameter name="GFW">16</parameter><parameter name="GBW">16</parameter><parameter name="BFW">0</parameter><parameter name="BBW">0</parameter><parameter name="PKA">5605</parameter><parameter name="PKL">4988</parameter><parameter name="PRA">5797</parameter><parameter name="PRL">5002</parameter><parameter name="P2A">1</parameter><parameter name="P2L">1</parameter><parameter name="P2R">1</parameter><parameter name="P2K">1</parameter><parameter name="DAQ">0</parameter><parameter name="AG2">1</parameter><parameter name="SSM">1</parameter><parameter name="RSN">13679</parameter><parameter name="CRR">0</parameter><parameter name="SRT">1654170808.097</parameter><parameter name="DUR">19.6369934082031</parameter><parameter name="TSC">28.8</parameter><parameter name="MVD">0.255448430776596</parameter><parameter name="AN1">0.225814129360781</parameter><parameter name="AN2">0</parameter><parameter name="VSN">2.485 Apr  4 2017</parameter><parameter name="SRN">0085</parameter><parameter name="CAM">0</parameter><parameter name="INS">IR-Biotyper</parameter><parameter name="FOC">69</parameter><parameter name="RDY">1</parameter></Instrument_Parameters_><History/></OPUSDataFile>
