<?xml version="1.0" encoding="UTF-8" ?>
<OPUSDataFile><AB><Ydata ylabel="Absorbance Units"><values byteorder="INTEL" format="FLOAT32" numvalues="3497"> -0.0838825 -0.08390103 -0.08390696 -0.08390023 -0.08388083 -0.08384879 -0.0838134 -0.08377549 -0.08374778 -0.08373094
 -0.08373602 -0.08376194 -0.08381239 -0.08388235 -0.08396326 -0.0840481 -0.08412072 -0.08418012 -0.08421663 -0.08423889
 -0.08424961 -0.08425881 -0.08427398 -0.08429532 -0.08432564 -0.08435839 -0.08439203 -0.08442437 -0.08445441 -0.08448525
 -0.0845172 -0.08455113 -0.08458712 -0.08462073 -0.08465173 -0.08467551 -0.08469274 -0.08470465 -0.08471278 -0.08472326
 -0.08473693 -0.08475943 -0.08478925 -0.08482682 -0.08486947 -0.08491406 -0.08495958 -0.08500398 -0.08504795 -0.08509235
 -0.08513398 -0.08517317 -0.08520152 -0.08521669 -0.08521477 -0.08519328 -0.08516245 -0.08512233 -0.08509126 -0.08507024
 -0.08507174 -0.08509541 -0.08513971 -0.08520271 -0.0852721 -0.08534654 -0.08541415 -0.08547597 -0.0855283 -0.08557343
 -0.0856133 -0.0856502 -0.08568722 -0.08572653 -0.0857716 -0.08582078 -0.08587645 -0.0859279 -0.08597334 -0.08599763
 -0.08599527 -0.08596446 -0.08590173 -0.08582649 -0.08573934 -0.08566859 -0.08561584 -0.08560193 -0.08562666 -0.08569326
 -0.08579819 -0.08592323 -0.08606243 -0.08618298 -0.08628484 -0.086348 -0.08638393 -0.08640216 -0.0864139 -0.08643831
 -0.08647405 -0.08652982 -0.08659008 -0.08665053 -0.08669218 -0.08670427 -0.0866874 -0.08663532 -0.08657647 -0.08651296
 -0.08647918 -0.0864801 -0.0865204 -0.08660081 -0.08668965 -0.08678526 -0.08685596 -0.08690476 -0.08693378 -0.08694893
 -0.08697426 -0.08701036 -0.08707323 -0.08715429 -0.08724772 -0.08734234 -0.08742143 -0.08748236 -0.0875163 -0.08752782
 -0.08751643 -0.08748878 -0.08744501 -0.0873995 -0.08735326 -0.08733096 -0.08733594 -0.08739239 -0.08750474 -0.08766963
 -0.08788771 -0.08807832 -0.08823598 -0.08825458 -0.08814749 -0.08794624 -0.08767223 -0.087426 -0.08720928 -0.08707745
 -0.08702101 -0.08705243 -0.08715139 -0.08730305 -0.08747869 -0.08765004 -0.08779949 -0.08790601 -0.08797631 -0.08800682
 -0.08801246 -0.08799709 -0.0879672 -0.08792394 -0.08787414 -0.08781784 -0.08777021 -0.08773212 -0.08771805 -0.08772794
 -0.08776355 -0.0878229 -0.08789497 -0.08797693 -0.08805238 -0.0881197 -0.08816598 -0.08819258 -0.08819513 -0.08817806
 -0.08814399 -0.08809938 -0.08804941 -0.08800156 -0.08796087 -0.08793369 -0.08792374 -0.08793364 -0.08796591 -0.08801525
 -0.08808205 -0.08815531 -0.08823434 -0.08830623 -0.0883702 -0.08841198 -0.08843109 -0.08841775 -0.08837345 -0.08830184
 -0.08820716 -0.08810633 -0.08800489 -0.08792557 -0.08787081 -0.087858 -0.08787913 -0.08793546 -0.08800692 -0.08807778
 -0.08813239 -0.08815318 -0.08814877 -0.08811472 -0.08807722 -0.08804257 -0.08802795 -0.08803864 -0.08807365 -0.08813395
 -0.08821084 -0.08830395 -0.08840021 -0.08849861 -0.08857996 -0.08864424 -0.08868011 -0.08869183 -0.08868977 -0.08867813
 -0.08867422 -0.08867658 -0.08869055 -0.08871334 -0.08874266 -0.08877934 -0.08882196 -0.08887602 -0.08894394 -0.08903128
 -0.08914313 -0.08927286 -0.08942411 -0.08956674 -0.08969739 -0.08978361 -0.08981963 -0.0898091 -0.08975174 -0.08966503
 -0.08954932 -0.08940788 -0.08924365 -0.08907612 -0.08891288 -0.08879586 -0.08872728 -0.08873916 -0.08881742 -0.0889593
 -0.0891309 -0.08928815 -0.0894108 -0.08945732 -0.08945142 -0.08939277 -0.08931371 -0.08922863 -0.08915194 -0.08909161
 -0.08904646 -0.08901842 -0.08899762 -0.08898332 -0.08896625 -0.08894565 -0.08892159 -0.08889452 -0.08887307 -0.08885776
 -0.08885793 -0.08887086 -0.08889284 -0.08891624 -0.08891715 -0.08889528 -0.08883353 -0.08874966 -0.08865893 -0.0885761
 -0.08852347 -0.08849446 -0.08849575 -0.08850309 -0.08850855 -0.08849336 -0.08844756 -0.08837838 -0.08828371 -0.088185
 -0.08808477 -0.0879944 -0.08791507 -0.0878401 -0.08776887 -0.08768777 -0.08759785 -0.08749963 -0.08739623 -0.08730134
 -0.08721576 -0.08714847 -0.0870987 -0.08706978 -0.08705915 -0.08706776 -0.08708486 -0.08710418 -0.08710869 -0.08708492
 -0.08702833 -0.08693217 -0.08680417 -0.08664732 -0.08645628 -0.08623039 -0.08596525 -0.08565826 -0.08533096 -0.08498432
 -0.08464793 -0.0843228 -0.08402543 -0.08375606 -0.08352487 -0.08333113 -0.08317979 -0.08306503 -0.08297515 -0.08290224
 -0.08282499 -0.08274256 -0.08264656 -0.08253443 -0.08240683 -0.08224329 -0.08203036 -0.0817587 -0.08141168 -0.0810279
 -0.08061319 -0.08020683 -0.07981985 -0.07945604 -0.07911822 -0.0787921 -0.07847681 -0.0781647 -0.07785619 -0.07756216
 -0.07728376 -0.07703788 -0.0768192 -0.07661916 -0.07642186 -0.07617754 -0.0758804 -0.07548515 -0.07502404 -0.07451839
 -0.07400167 -0.07351696 -0.07306479 -0.07266021 -0.07228781 -0.07194559 -0.07161676 -0.07129648 -0.07097235 -0.07064088
 -0.07029822 -0.06994371 -0.06957366 -0.06918804 -0.06877381 -0.06833045 -0.06784772 -0.06732778 -0.06678188 -0.0662142
 -0.06564844 -0.06508718 -0.0645486 -0.06403545 -0.06356165 -0.06312729 -0.0627422 -0.06239298 -0.06207491 -0.0617642
 -0.061445 -0.0611014 -0.06072284 -0.0603022 -0.05983622 -0.05931732 -0.05874072 -0.05812044 -0.05745367 -0.05679518
 -0.0561484 -0.05556153 -0.055035 -0.05456311 -0.05414134 -0.05373164 -0.05333124 -0.0529066 -0.05246128 -0.0519859
 -0.05149003 -0.05098782 -0.05048558 -0.05000118 -0.04952618 -0.04906296 -0.04859069 -0.04809533 -0.04756863 -0.04699727
 -0.04640592 -0.04579663 -0.04520217 -0.04463112 -0.04409172 -0.043588 -0.0431012 -0.0426307 -0.04214795 -0.04165199
 -0.04112802 -0.04057791 -0.04001023 -0.03942656 -0.03883925 -0.03824625 -0.03764673 -0.03704132 -0.03642763 -0.03581527
 -0.03521581 -0.03463749 -0.03409525 -0.03358274 -0.03310294 -0.03263946 -0.03218609 -0.03173065 -0.0312672 -0.0307948
 -0.03031144 -0.02982427 -0.02933417 -0.02884439 -0.02835556 -0.02785917 -0.02735464 -0.02682938 -0.02628401 -0.02571712
 -0.0251317 -0.02454018 -0.02394548 -0.02336279 -0.0227921 -0.02224126 -0.021707 -0.02118823 -0.02068167 -0.02018314
 -0.0196929 -0.01921055 -0.01873446 -0.01826604 -0.0177949 -0.01731919 -0.01682633 -0.01631246 -0.01577687 -0.01521824
 -0.01464545 -0.01405891 -0.01346901 -0.01287643 -0.01229486 -0.01172518 -0.0111818 -0.01066328 -0.01017187 -0.009703428
 -0.009246923 -0.00880003 -0.008352337 -0.007905015 -0.007455562 -0.007005062 -0.006554179 -0.006102159 -0.005649396 -0.00519277
 -0.004731345 -0.004261295 -0.003779434 -0.003292524 -0.002798969 -0.002320846 -0.001861025 -0.00143335 -0.001040121 -0.0006624148
 -0.0002987346 8.857213E-05 0.000499403 0.0009509878 0.001437247 0.001940047 0.002452356 0.002942608 0.003411411 0.003842569
 0.004245812 0.00462753 0.004996892 0.005367411 0.005736534 0.006107708 0.006473034 0.006827857 0.00717448 0.00751129
 0.00784805 0.008187206 0.008530795 0.008879851 0.009229954 0.009580744 0.009931521 0.01028232 0.01063528 0.01099065
 0.01135088 0.0117172 0.01209698 0.0124906 0.01290504 0.01333507 0.01377482 0.01421626 0.0146448 0.01505795
 0.01544712 0.01581543 0.01616261 0.01649128 0.01680249 0.01709826 0.01737896 0.01764799 0.01790624 0.01815501
 0.0183946 0.01862499 0.01884587 0.01906422 0.01928066 0.01951222 0.01975973 0.02003904 0.02034811 0.02068749
 0.02105083 0.02142021 0.02178889 0.02213315 0.02245358 0.02273812 0.02299804 0.02323871 0.02347364 0.02371514
 0.02396564 0.02423226 0.02450204 0.02477329 0.02503113 0.02527046 0.02549287 0.02569658 0.02589806 0.02609879
 0.02630399 0.02651335 0.02670645 0.02688184 0.02701558 0.02711139 0.02717287 0.02720857 0.02724626 0.02729187
 0.02737262 0.02748576 0.02764145 0.02782769 0.0280377 0.02825716 0.02847191 0.02868175 0.02887883 0.02908311
 0.02929927 0.02954307 0.02982344 0.03011924 0.03043223 0.03071138 0.03095271 0.03111932 0.0312102 0.03123526
 0.03119861 0.03114369 0.03107291 0.03102197 0.03098783 0.03097819 0.03099282 0.03103236 0.03110391 0.03122109
 0.03138022 0.0315913 0.03182182 0.03205578 0.03225746 0.03239827 0.03248885 0.03251804 0.03254226 0.03257171
 0.03264789 0.03278245 0.03295636 0.03317095 0.03336808 0.03354497 0.03365662 0.03370461 0.03368521 0.03360592
 0.03349986 0.03337703 0.03328588 0.03323152 0.03325195 0.03333711 0.03349467 0.033696 0.03391833 0.03412946
 0.03429679 0.0344131 0.03445975 0.03446622 0.03443403 0.03440731 0.03439615 0.03442786 0.03450864 0.03464324
 0.03483274 0.03507536 0.03537099 0.03571778 0.03611321 0.03653562 0.03697529 0.03737299 0.0377178 0.03793773
 0.03804299 0.03800895 0.03787925 0.03770287 0.03752816 0.03743183 0.03741322 0.03750985 0.03765909 0.03784659
 0.03799788 0.03808185 0.03806915 0.03794162 0.03772687 0.03742242 0.03708831 0.03672883 0.03639761 0.03609711
 0.03584432 0.03563719 0.03545962 0.03531034 0.03517332 0.03505207 0.03495063 0.03487018 0.03482015 0.03478734
 0.03476213 0.03471581 0.03461685 0.03443993 0.0341512 0.03375904 0.03324888 0.03267268 0.03203935 0.03141246
 0.03080907 0.0302608 0.02977687 0.02935142 0.02898557 0.02865741 0.02836569 0.02808221 0.02780557 0.02750907
 0.02719563 0.02686457 0.02652401 0.02620292 0.0259002 0.02563363 0.02538356 0.02512855 0.02485094 0.0245173
 0.02413993 0.02370957 0.02326667 0.02282597 0.02242787 0.02209172 0.02182955 0.02165381 0.02152966 0.02145876
 0.02136895 0.02125435 0.02105757 0.02077602 0.02041741 0.01998668 0.01954206 0.01908683 0.01867039 0.01828786
 0.01794945 0.01764818 0.01737343 0.01712115 0.01688103 0.01665016 0.01642218 0.01619431 0.01596255 0.01572585
 0.01548296 0.01523256 0.01497423 0.01470574 0.01442601 0.01413641 0.01383627 0.01353302 0.01322713 0.01292672
 0.01263218 0.0123459 0.01206732 0.01179082 0.01151549 0.01123289 0.01094394 0.01064594 0.01034313 0.01004359
 0.009750761 0.00947587 0.009213597 0.008965637 0.008716698 0.008455896 0.00817288 0.007855557 0.007514958 0.007149145
 0.006783209 0.006423679 0.006081634 0.005761614 0.005451533 0.005150917 0.004846174 0.004536643 0.004224021 0.00390855
 0.0035945 0.003280413 0.002959592 0.002631548 0.002289185 0.001937228 0.001582519 0.001230222 0.0008935732 0.0005693004
 0.0002606306 -4.196292E-05 -0.0003467609 -0.0006531521 -0.0009679822 -0.001269456 -0.001552764 -0.001794931 -0.001984433 -0.002137674
 -0.002249929 -0.002383724 -0.00254367 -0.002787714 -0.003118939 -0.003534089 -0.004027974 -0.004537117 -0.005054627 -0.005506689
 -0.005895908 -0.006186937 -0.006397854 -0.00654757 -0.006664002 -0.006800957 -0.006972723 -0.007223563 -0.007532028 -0.007902374
 -0.008291663 -0.00867592 -0.009036897 -0.009357283 -0.009656887 -0.009938179 -0.01021466 -0.01049341 -0.01074343 -0.01096379
 -0.01110814 -0.01117399 -0.01115974 -0.01107049 -0.01096875 -0.01086322 -0.01083867 -0.01089401 -0.01107629 -0.01136605
 -0.01174612 -0.01218774 -0.01263565 -0.01307609 -0.0134672 -0.0138225 -0.0141377 -0.01443206 -0.01471883 -0.01499469
 -0.0152635 -0.01550969 -0.01572695 -0.01592279 -0.01609523 -0.01627116 -0.01645416 -0.01664591 -0.01684669 -0.0170215
 -0.01716935 -0.01726558 -0.01731608 -0.01734254 -0.01735293 -0.01738962 -0.01745002 -0.01755182 -0.01768232 -0.01782803
 -0.01798088 -0.01812216 -0.01826191 -0.01839682 -0.01855384 -0.0187455 -0.01899411 -0.01931637 -0.01969815 -0.02014681
 -0.02060377 -0.02106316 -0.02146296 -0.0217942 -0.02205056 -0.02223113 -0.0223956 -0.02254785 -0.02275702 -0.02301926
 -0.02335001 -0.02373542 -0.02413414 -0.02453606 -0.0248933 -0.02521115 -0.02547465 -0.02569857 -0.02589385 -0.02607259
 -0.02624778 -0.0264264 -0.02661578 -0.02681822 -0.02703822 -0.02726663 -0.02750358 -0.02773212 -0.02794773 -0.02815274
 -0.02834493 -0.02855754 -0.02879237 -0.02907603 -0.02940665 -0.02976357 -0.03014149 -0.03049415 -0.03082543 -0.03112161
 -0.03139682 -0.03168099 -0.03197785 -0.03231353 -0.03266867 -0.03303325 -0.03338376 -0.03369406 -0.03396387 -0.03418161
 -0.03436879 -0.03453146 -0.0346835 -0.03483243 -0.03496901 -0.03509352 -0.03519078 -0.03525777 -0.03530449 -0.03533115
 -0.03537808 -0.0354474 -0.03557969 -0.03577185 -0.03602806 -0.03633755 -0.03666453 -0.03699768 -0.03729041 -0.03754039
 -0.03772064 -0.03783947 -0.03789484 -0.03789888 -0.03786133 -0.03778837 -0.03768707 -0.03755583 -0.03739466 -0.03720527
 -0.03698552 -0.03675137 -0.0365045 -0.0362626 -0.0360293 -0.03579462 -0.03555846 -0.03527589 -0.03494471 -0.03452221
 -0.03401269 -0.03341913 -0.03275333 -0.03206114 -0.03135015 -0.03066482 -0.02999962 -0.0293669 -0.02875452 -0.028152
 -0.02755288 -0.02694743 -0.02633609 -0.0257169 -0.02509009 -0.02445537 -0.02381266 -0.02315988 -0.02250794 -0.02185588
 -0.02123052 -0.02063357 -0.02009679 -0.01962222 -0.01922835 -0.01891494 -0.01868021 -0.01852243 -0.01842983 -0.01840112
 -0.01842749 -0.01850398 -0.01861873 -0.01875561 -0.01888554 -0.01898616 -0.01901719 -0.0189722 -0.01882648 -0.01860128
 -0.01829877 -0.01794905 -0.01756621 -0.01716096 -0.0167411 -0.01629693 -0.01582807 -0.01532453 -0.01478421 -0.01421268
 -0.01360987 -0.01300053 -0.01238683 -0.01180695 -0.01126243 -0.01078473 -0.01036943 -0.01001877 -0.009722648 -0.009455614
 -0.009213333 -0.008969932 -0.008744013 -0.008535669 -0.008398839 -0.008365269 -0.008516965 -0.008905794 -0.009595987 -0.01063726
 -0.01200643 -0.01372736 -0.01566059 -0.01779858 -0.01994412 -0.02207675 -0.02404669 -0.0258426 -0.02742344 -0.02879161
 -0.02998866 -0.03102006 -0.03194177 -0.03275536 -0.03349419 -0.03416152 -0.03477931 -0.03535733 -0.03592287 -0.03648187
 -0.03705682 -0.03763568 -0.03821981 -0.03878477 -0.03931614 -0.03979992 -0.04022463 -0.04059568 -0.0409116 -0.04118283
 -0.04141162 -0.04160055 -0.04175054 -0.04185784 -0.04192228 -0.04193903 -0.04190851 -0.04183546 -0.04172452 -0.04160727
 -0.04149336 -0.04143879 -0.0414477 -0.04156454 -0.04177517 -0.04208031 -0.0424509 -0.04285351 -0.04326078 -0.04363834
 -0.04397065 -0.04423906 -0.0444386 -0.04456322 -0.04461221 -0.0445849 -0.04447847 -0.04429243 -0.04402247 -0.04366544
 -0.04324569 -0.04276282 -0.04232142 -0.04193167 -0.04178162 -0.04188043 -0.04239609 -0.04330474 -0.04461844 -0.04626996
 -0.04809803 -0.05003323 -0.05186997 -0.05359178 -0.05508422 -0.05639062 -0.0575054 -0.05848565 -0.05936593 -0.06017609
 -0.06093793 -0.06165697 -0.0623385 -0.06298348 -0.06359285 -0.06416608 -0.0647034 -0.06520168 -0.06566062 -0.06608269
 -0.06646849 -0.06682938 -0.06716643 -0.06749286 -0.06780894 -0.0681235 -0.06843497 -0.06874485 -0.06904884 -0.06934001
 -0.06961482 -0.06986355 -0.07009193 -0.07029861 -0.07049891 -0.07070178 -0.07091711 -0.07115448 -0.07140391 -0.07166719
 -0.07192063 -0.07215995 -0.07236988 -0.07254675 -0.07269859 -0.07282538 -0.07294889 -0.07306978 -0.07319994 -0.07333761
 -0.07347477 -0.07361069 -0.0737358 -0.07385581 -0.07398026 -0.07411685 -0.07428689 -0.07448728 -0.07472689 -0.07498849
 -0.0752617 -0.07552749 -0.07577082 -0.07598275 -0.07615478 -0.07628909 -0.07638237 -0.07644947 -0.07649001 -0.07653329
 -0.07658188 -0.07666553 -0.07678686 -0.07694957 -0.07715248 -0.07736861 -0.07759566 -0.07780259 -0.07799123 -0.07815203
 -0.07828968 -0.0784125 -0.0785226 -0.07862829 -0.07872855 -0.07882509 -0.0789175 -0.07900603 -0.07909016 -0.07917064
 -0.07924318 -0.07930616 -0.07935638 -0.07939015 -0.07941847 -0.07944071 -0.07948057 -0.07954103 -0.07963585 -0.07976677
 -0.0799211 -0.08009762 -0.08026982 -0.08043724 -0.08058356 -0.08071111 -0.08082066 -0.08091543 -0.08100461 -0.08109014
 -0.08118088 -0.08127486 -0.08137471 -0.08147342 -0.08156564 -0.08164583 -0.08170621 -0.0817543 -0.08178844 -0.08182816
 -0.08187857 -0.08195448 -0.08206139 -0.08219506 -0.08235699 -0.08252759 -0.08270575 -0.08287204 -0.08302595 -0.08316097
 -0.08327847 -0.08338585 -0.08348491 -0.08358765 -0.08369397 -0.08381029 -0.08393421 -0.084065 -0.08419817 -0.084328
 -0.08444981 -0.08455677 -0.08464811 -0.08471935 -0.08477855 -0.08482627 -0.08487644 -0.08493334 -0.08500581 -0.08509763
 -0.08520404 -0.0853258 -0.08544901 -0.08557273 -0.08568668 -0.08579063 -0.08588444 -0.08596847 -0.0860458 -0.08611587
 -0.08617739 -0.08623048 -0.08627343 -0.08630981 -0.08634502 -0.08638373 -0.08643522 -0.08649977 -0.08658194 -0.08667731
 -0.08678465 -0.0868994 -0.08701946 -0.08714141 -0.08726402 -0.08738445 -0.08750197 -0.08761516 -0.08772381 -0.08782715
 -0.08792515 -0.08801553 -0.08809824 -0.08817262 -0.0882393 -0.08830339 -0.08836561 -0.08843245 -0.08850303 -0.0885784
 -0.08865707 -0.08873613 -0.08881578 -0.08889476 -0.08897446 -0.08905578 -0.08913959 -0.08922714 -0.08931724 -0.08941051
 -0.0895023 -0.08959171 -0.08967346 -0.08974553 -0.08981017 -0.08986662 -0.08992571 -0.08998823 -0.0900617 -0.09014614
 -0.09023655 -0.09033213 -0.09042305 -0.09051012 -0.09059138 -0.09066891 -0.09074817 -0.09082965 -0.09091747 -0.09100977
 -0.09110556 -0.09120372 -0.09130219 -0.09140265 -0.09150574 -0.09161236 -0.09172464 -0.09183659 -0.09194785 -0.09204844
 -0.09213547 -0.0922076 -0.0922631 -0.09231464 -0.09236296 -0.09242094 -0.09248883 -0.0925641 -0.09264554 -0.0927207
 -0.09279015 -0.0928492 -0.09290113 -0.0929535 -0.09300806 -0.09307304 -0.09314567 -0.09322599 -0.09330993 -0.09339309
 -0.09347443 -0.09355146 -0.09362599 -0.09369802 -0.0937701 -0.09384298 -0.09391861 -0.09399774 -0.09408014 -0.09416629
 -0.09425163 -0.094336 -0.09441211 -0.09447974 -0.0945361 -0.09458201 -0.09462349 -0.09466188 -0.09470703 -0.09475858
 -0.09482125 -0.09489235 -0.094969 -0.09504808 -0.09512356 -0.09519491 -0.09525886 -0.09531768 -0.0953717 -0.09542364
 -0.09547505 -0.0955268 -0.09557964 -0.09563303 -0.09568693 -0.09574116 -0.0957957 -0.09585049 -0.09590559 -0.09595973
 -0.09601279 -0.09606266 -0.09610929 -0.09615144 -0.09618951 -0.09622466 -0.09625765 -0.09629132 -0.09632649 -0.09636631
 -0.09641098 -0.0964627 -0.09651962 -0.09658159 -0.0966443 -0.09670494 -0.0967601 -0.09680655 -0.09684651 -0.09687907
 -0.09691114 -0.09694422 -0.09698192 -0.09702556 -0.09707069 -0.09711717 -0.09715851 -0.09719449 -0.09722427 -0.09724834
 -0.09727117 -0.09729321 -0.09731916 -0.09734897 -0.09738491 -0.09742682 -0.09747556 -0.0975306 -0.09759185 -0.09765791
 -0.09772748 -0.09779922 -0.09787153 -0.0979448 -0.09801858 -0.09809458 -0.0981737 -0.09825514 -0.09833978 -0.09842113
 -0.09849865 -0.09856507 -0.09861946 -0.09866313 -0.09869632 -0.09873015 -0.09876513 -0.09881102 -0.09886645 -0.09893012
 -0.09899951 -0.09906569 -0.09912803 -0.09918039 -0.09922455 -0.09926029 -0.09928995 -0.09931567 -0.09933931 -0.09936226
 -0.09938739 -0.09941626 -0.09945128 -0.09949435 -0.09954292 -0.09959745 -0.09965131 -0.09970339 -0.0997514 -0.09979475
 -0.09983882 -0.09988385 -0.09993508 -0.09999205 -0.1000523 -0.1001149 -0.1001739 -0.1002298 -0.1002803 -0.1003271
 -0.1003726 -0.1004177 -0.1004653 -0.1005145 -0.1005662 -0.1006179 -0.1006684 -0.1007159 -0.1007591 -0.1007989
 -0.1008351 -0.1008696 -0.100903 -0.1009338 -0.100962 -0.1009849 -0.101002 -0.1010147 -0.1010232 -0.1010325
 -0.1010425 -0.1010555 -0.1010709 -0.1010875 -0.1011049 -0.1011219 -0.1011394 -0.1011583 -0.1011804 -0.1012087
 -0.1012446 -0.1012917 -0.1013473 -0.1014124 -0.101478 -0.1015408 -0.101592 -0.1016267 -0.1016467 -0.1016499
 -0.1016496 -0.101647 -0.1016548 -0.1016747 -0.1017079 -0.1017544 -0.1018049 -0.1018589 -0.1019076 -0.1019516
 -0.1019898 -0.1020227 -0.1020524 -0.1020779 -0.1020977 -0.1021114 -0.1021162 -0.1021156 -0.1021115 -0.1021095
 -0.1021151 -0.1021287 -0.1021534 -0.1021818 -0.1022125 -0.1022368 -0.1022518 -0.1022562 -0.1022486 -0.1022381
 -0.1022251 -0.1022208 -0.1022256 -0.1022424 -0.1022705 -0.1023042 -0.1023436 -0.1023847 -0.1024295 -0.1024819
 -0.1025437 -0.1026209 -0.1027137 -0.1028246 -0.1029553 -0.1031064 -0.1032851 -0.1034951 -0.1037472 -0.1040481
 -0.1044039 -0.1048204 -0.1052888 -0.1058111 -0.1063624 -0.106941 -0.1075157 -0.1080838 -0.1086212 -0.1091266
 -0.1095856 -0.109997 -0.1103441 -0.1106225 -0.1108001 -0.1108709 -0.1107945 -0.1105754 -0.1101929 -0.1096823
 -0.1090793 -0.1084393 -0.107837 -0.1073008 -0.1068778 -0.1065665 -0.1063782 -0.1063049 -0.1063493 -0.106492
 -0.1067376 -0.1070216 -0.1073407 -0.1075974 -0.1077801 -0.1078658 -0.1078535 -0.1078075 -0.1077298 -0.1076652
 -0.107609 -0.1075564 -0.1075034 -0.1074324 -0.1073454 -0.1072373 -0.1071116 -0.106973 -0.1068201 -0.1066542
 -0.1064712 -0.1062664 -0.1060432 -0.1057994 -0.1055484 -0.1052938 -0.1050476 -0.1048135 -0.1045969 -0.1043988
 -0.1042244 -0.1040743 -0.1039522 -0.1038584 -0.1037843 -0.1037285 -0.1036721 -0.1036151 -0.1035461 -0.1034677
 -0.1033833 -0.1032956 -0.1032126 -0.1031341 -0.1030634 -0.1029992 -0.1029413 -0.1028897 -0.1028446 -0.102805
 -0.1027715 -0.1027394 -0.1027075 -0.1026704 -0.1026259 -0.1025744 -0.1025151 -0.1024538 -0.1023907 -0.1023307
 -0.1022739 -0.1022218 -0.1021745 -0.1021346 -0.1021026 -0.1020828 -0.1020744 -0.1020774 -0.1020893 -0.102105
 -0.1021235 -0.1021404 -0.1021569 -0.1021731 -0.1021883 -0.102203 -0.1022138 -0.1022187 -0.1022161 -0.1022043
 -0.1021862 -0.1021621 -0.1021351 -0.1021061 -0.1020742 -0.1020393 -0.1019983 -0.1019509 -0.1018978 -0.1018394
 -0.1017817 -0.1017252 -0.1016762 -0.1016337 -0.1015987 -0.1015699 -0.1015442 -0.1015215 -0.1015001 -0.1014802
 -0.101462 -0.1014446 -0.1014273 -0.1014088 -0.1013881 -0.101365 -0.1013391 -0.1013116 -0.1012829 -0.1012536
 -0.101224 -0.1011946 -0.1011656 -0.1011374 -0.1011101 -0.1010832 -0.101057 -0.1010313 -0.1010066 -0.100985
 -0.1009666 -0.1009538 -0.1009452 -0.1009396 -0.1009353 -0.1009284 -0.1009189 -0.100905 -0.1008889 -0.100872
 -0.100855 -0.1008396 -0.1008232 -0.1008053 -0.1007841 -0.1007583 -0.1007311 -0.1007024 -0.1006767 -0.1006547
 -0.1006354 -0.1006188 -0.1005993 -0.100577 -0.10055 -0.1005194 -0.1004899 -0.1004622 -0.1004417 -0.1004275
 -0.1004201 -0.1004179 -0.1004184 -0.1004205 -0.1004224 -0.1004231 -0.1004215 -0.1004161 -0.1004054 -0.1003897
 -0.1003679 -0.100345 -0.1003219 -0.1003041 -0.1002937 -0.1002869 -0.1002841 -0.1002715 -0.1002482 -0.1002067
 -0.1001478 -0.1000827 -0.1000133 -0.09995911 -0.09991892 -0.09989974 -0.09989645 -0.09990013 -0.0999071 -0.09990629
 -0.09989908 -0.09988217 -0.0998596 -0.09983358 -0.09980692 -0.09978195 -0.09975932 -0.09973979 -0.09972316 -0.09970973
 -0.099698 -0.09968811 -0.09967645 -0.0996628 -0.0996424 -0.09961498 -0.09957889 -0.09953453 -0.09948709 -0.09943757
 -0.09939522 -0.09936004 -0.09933772 -0.09932593 -0.09932228 -0.09932355 -0.09932283 -0.09931912 -0.09930787 -0.09929121
 -0.0992691 -0.09924445 -0.09921901 -0.09919409 -0.09917061 -0.09914899 -0.09912961 -0.09911195 -0.09909627 -0.09908012
 -0.09906346 -0.09904236 -0.09901658 -0.09898528 -0.09894866 -0.0989101 -0.09886993 -0.09883194 -0.09879603 -0.0987637
 -0.09873494 -0.09871032 -0.0986902 -0.09867572 -0.09866612 -0.09866174 -0.09865946 -0.09865733 -0.09865151 -0.09863877
 -0.09861882 -0.09858964 -0.09855697 -0.09852137 -0.09849036 -0.09846574 -0.09844898 -0.09844093 -0.09843531 -0.09843184
 -0.09842346 -0.09841017 -0.09839091 -0.09836647 -0.0983415 -0.09831633 -0.09829497 -0.09827632 -0.09825975 -0.09824394
 -0.09822585 -0.09820602 -0.0981836 -0.09816028 -0.09813758 -0.09811541 -0.09809461 -0.09807296 -0.09804955 -0.09802376
 -0.09799489 -0.09796483 -0.09793369 -0.09790359 -0.0978747 -0.09784927 -0.09782743 -0.09781177 -0.09780222 -0.09779806
 -0.09779849 -0.09779774 -0.09779552 -0.0977871 -0.09777398 -0.0977575 -0.09773925 -0.09772307 -0.09770843 -0.09769667
 -0.09768565 -0.09767399 -0.0976602 -0.09764284 -0.0976218 -0.09759633 -0.0975683 -0.09753776 -0.09750766 -0.09747855
 -0.09745217 -0.09742885 -0.09740853 -0.09739123 -0.09737582 -0.09736221 -0.09734925 -0.09733675 -0.09732305 -0.09730785
 -0.09728917 -0.097267 -0.09723988 -0.09720871 -0.09717381 -0.09713747 -0.09710263 -0.09707087 -0.09704516 -0.09702392
 -0.09700746 -0.09699269 -0.09697784 -0.09696354 -0.09694924 -0.09693793 -0.09693044 -0.09692607 -0.0969251 -0.09692346
 -0.09692085 -0.09691656 -0.09691073 -0.0969064 -0.09690315 -0.09690004 -0.09689526 -0.09688094 -0.09685614 -0.09681284
 -0.09675472 -0.09668311 -0.09660561 -0.09653218 -0.09646793 -0.0964224 -0.0963917 -0.09637791 -0.09637051 -0.09636588
 -0.09635612 -0.09633777 -0.09630989 -0.09627114 -0.09622639 -0.09617573 -0.09612618 -0.0960782 -0.0960362 -0.09600005
 -0.09596775 -0.0959387 -0.09590741 -0.0958742 -0.0958371 -0.09579746 -0.09575806 -0.09571942 -0.09568412 -0.09565127
 -0.09562091 -0.09559177 -0.0955629 -0.09553296 -0.095501 -0.09546576 -0.09542633 -0.09538285 -0.09533481 -0.09528457
 -0.09523229 -0.09518102 -0.09513119 -0.0950842 -0.09504019 -0.09499875 -0.09495983 -0.09492245 -0.09488659 -0.09485164
 -0.09481754 -0.09478393 -0.09475036 -0.09471535 -0.0946788 -0.09463932 -0.09459837 -0.09455689 -0.094517 -0.0944813
 -0.09444959 -0.09442375 -0.09439843 -0.0943729 -0.0943388 -0.09429333 -0.0942328 -0.09415486 -0.09406657 -0.09396765
 -0.09387289 -0.09378325 -0.0937095 -0.09365165 -0.09360874 -0.09357966 -0.09355591 -0.09353682 -0.09351495 -0.09349061
 -0.09346056 -0.09342601 -0.09338747 -0.0933466 -0.09330624 -0.09326589 -0.09322691 -0.09318567 -0.0931401 -0.09308848
 -0.0930284 -0.09296448 -0.09289698 -0.09283271 -0.0927735 -0.09272035 -0.09267426 -0.09262777 -0.09258052 -0.09252317
 -0.09245559 -0.09237669 -0.09228773 -0.09219785 -0.09210811 -0.09202839 -0.09195782 -0.09189934 -0.09185109 -0.09181105
 -0.09177775 -0.09174939 -0.09172241 -0.09169413 -0.09165848 -0.09161064 -0.09154819 -0.09146737 -0.09137449 -0.09126955
 -0.09116319 -0.0910574 -0.09095934 -0.09087043 -0.09079079 -0.09072065 -0.09065527 -0.09059449 -0.09053478 -0.0904766
 -0.09042228 -0.090372 -0.09032881 -0.0902904 -0.0902529 -0.09021204 -0.09015731 -0.09008798 -0.08999705 -0.08989052
 -0.0897706 -0.08964491 -0.08951908 -0.08939677 -0.08928119 -0.08917231 -0.08907077 -0.08897569 -0.08888688 -0.08880463
 -0.08872908 -0.08865918 -0.08859493 -0.08853317 -0.08847381 -0.08841548 -0.08835831 -0.0883035 -0.08825 -0.08819459
 -0.08813483 -0.08806138 -0.08797477 -0.08787026 -0.0877528 -0.08762652 -0.08749676 -0.08736958 -0.08724918 -0.0871401
 -0.08704383 -0.08696381 -0.08689294 -0.0868313 -0.0867655 -0.08669251 -0.08660636 -0.0865052 -0.08639464 -0.08627494
 -0.08615134 -0.08602396 -0.08589312 -0.08575915 -0.08562487 -0.0854909 -0.08536197 -0.08523741 -0.08511811 -0.08500247
 -0.08488786 -0.08477298 -0.0846549 -0.08453328 -0.08440597 -0.08427566 -0.08414274 -0.08401208 -0.08388673 -0.08376636
 -0.08365268 -0.08353867 -0.08342312 -0.08330148 -0.08317226 -0.08304078 -0.0829072 -0.08277954 -0.08265787 -0.08254098
 -0.08242737 -0.08230384 -0.08216914 -0.08200879 -0.0818265 -0.08162429 -0.08140869 -0.081195 -0.08098309 -0.08078051
 -0.08058137 -0.08038177 -0.08018019 -0.07997263 -0.07976578 -0.07956162 -0.07936541 -0.07918026 -0.07900362 -0.07883668
 -0.07866953 -0.07850209 -0.07831651 -0.0781114 -0.0778747 -0.07760668 -0.07732423 -0.0770294 -0.07674872 -0.07647977
 -0.07622654 -0.07598315 -0.07573435 -0.0754768 -0.07519545 -0.07489292 -0.07456474 -0.07421951 -0.07386278 -0.07350443
 -0.07315462 -0.07281169 -0.07248167 -0.07214335 -0.07179223 -0.07140866 -0.07098448 -0.07053129 -0.07004874 -0.06955645
 -0.06905644 -0.06854593 -0.06802495 -0.06749226 -0.0669501 -0.06641951 -0.06590021 -0.06540617 -0.06492655 -0.06443766
 -0.06392761 -0.06335511 -0.06273083 -0.0620467 -0.06133137 -0.06061248 -0.05990107 -0.05921596 -0.05854812 -0.05789815
 -0.05725634 -0.05662008 -0.05598217 -0.05534376 -0.05468175 -0.05399675 -0.05323634 -0.05239584 -0.05145061 -0.05040212
 -0.04933002 -0.04823918 -0.04721234 -0.04623771 -0.04530234 -0.04439308 -0.04346241 -0.04250878 -0.04150807 -0.04045937
 -0.03935841 -0.03818451 -0.036925 -0.0355359 -0.03398281 -0.03224189 -0.03027387 -0.02815157 -0.02587323 -0.0235792
 -0.02130023 -0.01911697 -0.01704838 -0.01509504 -0.01326029 -0.01150057 -0.009812086 -0.008097106 -0.006345225 -0.004406989
 -0.002297299 1.589715E-05 0.002460463 0.004816176 0.007070506 0.009066172 0.01088827 0.01259619 0.0142507 0.0159453
 0.01767423 0.01946366 0.02128896 0.02313995 0.02501835 0.02692755 0.02884659 0.03077619 0.03266988 0.03451769
 0.03632763 0.03809943 0.03985105 0.04158124 0.04321374 0.04474222 0.04606779 0.04720273 0.04815185 0.04893863
 0.04964373 0.05026701 0.0508557 0.05137783 0.05179901 0.05211762 0.05230879 0.05241131 0.05244497 0.05243673
 0.05240878 0.05235646 0.05228772 0.05217116 0.0520053 0.05174309 0.05137946 0.05086635 0.05019728 0.04938335
 0.04842685 0.04743101 0.04639876 0.0454025 0.04443104 0.04346474 0.04249562 0.041484 0.04044003 0.0393592
 0.03827065 0.03721425 0.03621292 0.0353103 0.03449843 0.03378779 0.03315694 0.03259661 0.03209797 0.03165464
 0.03127103 0.03094757 0.03068544 0.0304856 0.03034183 0.0302538 0.030215 0.03022516 0.03028203 0.03038587
 0.03053905 0.03074105 0.03099172 0.03128776 0.0316194 0.03198243 0.03236252 0.03275925 0.03316434 0.03358331
 0.03401728 0.03447561 0.03496474 0.03549253 0.03606496 0.03668371 0.03735003 0.0380664 0.03883285 0.0396561
 0.04053874 0.04147102 0.04245386 0.04344967 0.0444565 0.04543722 0.04639081 0.04729688 0.04815073 0.04891868
 0.04959341 0.05012804 0.05053184 0.05079705 0.0509475 0.05101471 0.05101791 0.05098921 0.05093647 0.05087769
 0.05080483 0.05072472 0.05060408 0.05043961 0.05017601 0.04979474 0.04929278 0.04865608 0.04799542 0.04732105
 0.04667684 0.04606388 0.04541007 0.04471292 0.04392025 0.04303822 0.04207283 0.04102966 0.0399385 0.038781
 0.03754756 0.03617963 0.03457625 0.03272123 0.03050577 0.02810587 0.02561134 0.02316743 0.02091093 0.01874823
 0.01667581 0.01460665 0.01250336 0.01041763 0.008347766 0.006379764 0.004524224 0.002778944 0.001143521 -0.0004428499
 -0.001980826 -0.003499289 -0.004991751 -0.006436585 -0.007831764 -0.009155222 -0.01041829 -0.011634 -0.01281561 -0.01399034
 -0.01516188 -0.01634225 -0.01753746 -0.01874759 -0.0200036 -0.02132105 -0.02272202 -0.02424487 -0.02576892 -0.0272885
 -0.02861428 -0.02969915 -0.03058518 -0.0312656 -0.03190052 -0.03249751 -0.03313594 -0.03381127 -0.03449776 -0.03518761
 -0.03582204 -0.03640654 -0.03693042 -0.03739858 -0.03782362 -0.03819004 -0.03848094 -0.03867881 -0.03875192 -0.03871135
 -0.03855162 -0.03829755 -0.03796232 -0.03755483 -0.03708396 -0.03653895 -0.0359231 -0.03520245 -0.03437617 -0.03338546
 -0.03222285 -0.03087602 -0.02934525 -0.02777683 -0.02618268 -0.02475486 -0.0234846 -0.02242218 -0.0215495 -0.02083051
 -0.02025875 -0.01980612 -0.01946289 -0.01920979 -0.01901784 -0.01885472 -0.01868138 -0.01845322 -0.01816658 -0.01779445
 -0.01739678 -0.01698998 -0.01661322 -0.01628535 -0.01598659 -0.01571784 -0.0154491 -0.01517721 -0.01489 -0.01458677
 -0.01427216 -0.0139465 -0.01361591 -0.0132788 -0.01293044 -0.0125666 -0.01217057 -0.01173914 -0.01125511 -0.01072184
 -0.01013776 -0.009504772 -0.008828409 -0.008097115 -0.007304142 -0.006440025 -0.005492406 -0.004478769 -0.003398137 -0.002285957
 -0.001151589 -1.200013E-05 0.001127035 0.002274319 0.003431032 0.004593374 0.005761008 0.006879245 0.007943466 0.008880111
 0.009689054 0.0103328 0.01081333 0.01111937 0.01124834 0.01118805 0.01093771 0.01048698 0.009846946 0.009022241
 0.008033605 0.00689706 0.005630469 0.00424776 0.00275625 0.001159081 -0.0005311826 -0.002319414 -0.004149498 -0.006020285
 -0.007834157 -0.009581032 -0.01120487 -0.01270225 -0.01410119 -0.01540475 -0.01666226 -0.0178704 -0.01903577 -0.02014967
 -0.02118174 -0.02213359 -0.02298927 -0.02376574 -0.02448123 -0.02515517 -0.02581677 -0.02647627 -0.02715292 -0.02784307
 -0.02855314 -0.02926468 -0.02997494 -0.03065864 -0.03130857 -0.03191175 -0.03246297 -0.03297342 -0.03344297 -0.03389271
 -0.03432383 -0.03473714 -0.03513062 -0.03547647 -0.03577323 -0.03599587 -0.0361497 -0.03623919 -0.03627241 -0.03627063
 -0.03623863 -0.03619352 -0.03613727 -0.03607773 -0.03601766 -0.03596021 -0.03591151 -0.03587466 -0.0358572 -0.03586339
 -0.03589383 -0.03595094 -0.0360253 -0.03611614 -0.03621312 -0.03631459 -0.03642205 -0.03653546 -0.03666771 -0.03681916
 -0.03699877 -0.03720431 -0.03742823 -0.03766527 -0.03789282 -0.03810683 -0.03828499 -0.03842948 -0.03853283 -0.03860139
 -0.03863987 -0.03865219 -0.03864334 -0.03861398 -0.03856504 -0.03849908 -0.03841617 -0.03832277 -0.03821952 -0.03811621
 -0.03801367 -0.03792488 -0.03785106 -0.03780335 -0.0377825 -0.03778917 -0.03782273 -0.0378741 -0.03794258 -0.03801924
 -0.03810467 -0.03819609 -0.03829477 -0.03840269 -0.03851991 -0.03864845 -0.03878508 -0.03892777 -0.03907117 -0.03920987
 -0.03934212 -0.03946448 -0.03958074 -0.03969188 -0.03979983 -0.03990653 -0.04000564 -0.04009692 -0.04017134 -0.04022769
 -0.04026336 -0.0402781 -0.04027721 -0.04026114 -0.04023768 -0.04020663 -0.0401712 -0.04012958 -0.04007702 -0.04001136
 -0.03992428 -0.03981635 -0.03968403 -0.03953077 -0.03935899 -0.03917224 -0.03897436 -0.03876684 -0.03855161 -0.03832886
 -0.03809905 -0.03786206 -0.03761781 -0.03736673 -0.03710846 -0.03684629 -0.03658016 -0.03631723 -0.03605788 -0.03581107
 -0.03557711 -0.03536221 -0.03516576 -0.03498748 -0.0348259 -0.03467531 -0.03453504 -0.03439976 -0.03427145 -0.03415038
 -0.03404045 -0.03394626 -0.03387095 -0.03381901 -0.03379054 -0.03378743 -0.03380663 -0.03384772 -0.03390691 -0.03398319
 -0.03407388 -0.03417838 -0.03429509 -0.03442377 -0.03456377 -0.03471504 -0.03487858 -0.03505436 -0.03524238 -0.03544189
 -0.03564828 -0.03585998 -0.03606854 -0.03627305 -0.03646661 -0.03665016 -0.03682138 -0.03698368 -0.0371391 -0.03729379
 -0.03745316 -0.03762237 -0.0378072 -0.03800501 -0.03821811 -0.03843458 -0.03865233 -0.03885936 -0.03905271 -0.03922937
 -0.03938824 -0.03953438 -0.03966804 -0.03979303 -0.03990909 -0.04001241 -0.04010233 -0.04017218 -0.04022269 -0.04025286
 -0.04026444 -0.04026163 -0.04024495 -0.04021732 -0.04017821 -0.04012815 -0.04006643 -0.03999409 -0.03990565 -0.03980074
 -0.03966613 -0.03949725 -0.03928211 -0.03901551 -0.03869692 -0.03832452 -0.03790657 -0.03744335 -0.0369459 -0.03641481
 -0.03586404 -0.03529438 -0.03472007 -0.03414112 -0.03356474 -0.03298966 -0.0324149 -0.0318391 -0.03125848 -0.0306719
 -0.03007562 -0.02946915 -0.02884995 -0.02821946 -0.02757771 -0.02692717 -0.02626836 -0.02560639 -0.02494104 -0.02428595
 -0.02364309 -0.02303079 -0.02245345 -0.02191651 -0.02142231 -0.02095769 -0.02052212 -0.02009817 -0.01968502 -0.01926937
 -0.01884966 -0.01840936 -0.01794576 -0.01743848 -0.01688723 -0.0162794 -0.01561975 -0.01490911 -0.01415708 -0.01337401
 -0.01257248 -0.01176594 -0.01096467 -0.01017862 -0.009411999 -0.0086689 -0.007949894 -0.00725633 -0.006585693 -0.005938979
 -0.005305312 -0.004684352 -0.004058988 -0.003428055 -0.002781171 -0.002118468 -0.001442483 -0.0007552173 -7.074702E-05 0.0006070678
 0.001254883 0.001870816 0.002435321 0.002955255 0.003432021 0.003877652 0.004308822 0.004730755 0.005154699 0.005578625
 0.006003788 0.006429727 0.006856136 0.007284246 0.007713926 0.00814787 0.008584887 0.009038466 0.009508814 0.01001952
 0.01057208 0.01118582 0.01186111 0.01260391 0.01341219 0.01427653 0.01519101 0.01612926 0.01708072 0.01800699
 0.01889385 0.01970061 0.0204113 0.02098895 0.02142637 0.02169892 0.02182501 0.02180218 0.02167118 0.02144586
 0.02116379 0.0208375 0.02049157 0.02013109 0.01977877 0.01943747 0.01912539 0.01884421 0.0185944 0.01837561
 0.01817891 0.01800414 0.01784684 0.01770614 0.01757667 0.01745617 0.01733457 0.01721318 0.01708868 0.01696594
 0.01685138 0.01674408 0.01664793 0.01655306 0.016456 0.01634428 0.01621233 0.01605061 0.01585497 0.01562222
 0.01535038 0.01504366 0.0147022 0.01433097 0.01393041 0.01350121 0.01304342 0.01255783 0.01204435 0.01150342
 0.01093378 0.01032991 0.009691581 0.009013728 0.008300696 0.007557948 0.006789995 0.006006202 0.005205295 0.004389905
 0.003556229 0.002702875 0.001826209 0.0009250804 -5.84542E-06 -0.0009691703 -0.001964052 -0.002992815 -0.004039601 -0.005103388
 -0.006165725 -0.007224985 -0.008278356 -0.00932612 -0.01037715 -0.0114315 -0.01249431 -0.01356344 -0.01463402 -0.01570075
 -0.01674773 -0.01776829 -0.0187413 -0.01966627 -0.02053124 -0.02134589 -0.02211368 -0.02284668 -0.0235534 -0.02424138
 -0.02491538 -0.02558079 -0.02623998 -0.02689628 -0.0275513 -0.02820255 -0.02885012 -0.02948974 -0.03012115 -0.03074083
 -0.03134834 -0.03193407 -0.03249664 -0.0330201 -0.03350428 -0.03393932 -0.03432743 -0.03466949 -0.0349682 -0.03522868
 -0.03545383 -0.03564949 -0.03581766 -0.03596302 -0.03608368 -0.03617963 -0.03624942 -0.0362906 -0.0363099 -0.03630757
 -0.03629506 -0.03627445 -0.0362543 -0.03623559 -0.03622686 -0.03622874 -0.0362495 -0.03628911 -0.03634376 -0.03641183
 -0.03647776 -0.03654123 -0.03659203 -0.03663227 -0.03666313 -0.03668554 -0.03670213 -0.0367124 -0.03671627 -0.03671473
 -0.03670844 -0.03669876 -0.03668701 -0.03667293 -0.03665683 -0.03663805 -0.03661689 -0.03659096 -0.03656062 -0.03651886
 -0.03646509 -0.03639156 -0.03629754 -0.03618094 -0.03604196 -0.0358869 -0.0357173 -0.03554837 -0.03538191 -0.0352353
 -0.03510685 -0.0350023 -0.03491545 -0.03483693 -0.03476182 -0.03467839 -0.03458776 -0.03448613 -0.03437794 -0.03426445
 -0.03415085 -0.03403947 -0.03393475 -0.03383972 -0.03375076 -0.0336696 -0.03357971 -0.03347981 -0.0333515 -0.03319293
 -0.03300133 -0.03277705 -0.03253444 -0.03227483 -0.03201605 -0.03175786 -0.03150869 -0.0312672 -0.03103317 -0.03080709
 -0.03058943 -0.03038187 -0.03018826 -0.03000578 -0.02983488 -0.0296673 -0.02949772 -0.02932069 -0.02913118 -0.02893188
 -0.02872144 -0.02850834 -0.02829309 -0.02808802 -0.02789448 -0.02772436 -0.02757906 -0.02745664 -0.02735646 -0.02725807
 -0.0271601 -0.02704078 -0.02690187 -0.02673889 -0.02655698 -0.02636842 -0.02617826 -0.02600362 -0.02584391 -0.02570834
 -0.02558629 -0.02547271 -0.02535286 -0.0252134 -0.0250528 -0.0248631 -0.02466254 -0.02445386 -0.02425757 -0.02407995
 -0.02392328 -0.02379029 -0.02366409 -0.02354389 -0.02340912 -0.02325895 -0.02308338 -0.02288336 -0.0226628 -0.02242371
 -0.02217725 -0.02192518 -0.02167836 -0.02143756 -0.02120987 -0.02099405 -0.02079218 -0.0206003 -0.02041607 -0.02023402
 -0.02004975 -0.01985996 -0.01966092 -0.01945596 -0.01924394 -0.01903512 -0.01883144 -0.01864033 -0.01846405 -0.01829674
 -0.01813847 -0.0179758 -0.01780822 -0.01763029 -0.01744242 -0.01724656 -0.01704262 -0.01683028 -0.01661058 -0.01638519
 -0.01615813 -0.01593922 -0.01572917 -0.01553531 -0.01535066 -0.01517156 -0.01499042 -0.0148004 -0.01459902 -0.01438271
 -0.01415389 -0.01391079 -0.01366465 -0.01341603 -0.01318291 -0.01296851 -0.01277809 -0.01261309 -0.01245836 -0.01231313
 -0.01216186 -0.01200474 -0.0118383 -0.01166236 -0.01147415 -0.01127295 -0.01105334 -0.0108188 -0.0105724 -0.01032123
 -0.0100768 -0.009843867 -0.009632265 -0.009440981 -0.009274214 -0.009123047 -0.008986127 -0.008849335 -0.008707167 -0.008553877
 -0.008385474 -0.008211552 -0.008032692 -0.007858861 -0.007691309 -0.007527981 -0.00736875 -0.007208379 -0.007047139 -0.006886066
 -0.006725377 -0.006567379 -0.006410562 -0.006251559 -0.006088596 -0.005914961 -0.005733333 -0.005542164 -0.005351751 -0.005172248
 -0.005010101 -0.004877913 -0.004760552 -0.004656778 -0.004542496 -0.004405722 -0.004249938 -0.004070433 -0.003895187 -0.003728627
 -0.003580251 -0.003452255 -0.00332717 -0.003204262 -0.00307237 -0.002932392 -0.002790232 -0.002646001 -0.002504142 -0.002361979
 -0.002214714 -0.002056839 -0.001875698 -0.00166407 -0.001403421 -0.001096955 -0.0007355741 -0.0003416481 7.465303E-05 0.000487107
 0.0008804246 0.001239601 0.001556927 0.001823384 0.002034072 0.002193907 0.002299432 0.002387348 0.002459424 0.002563003
 0.002700226 0.00289098 0.00313333 0.003415971 0.003734042 0.00405842 0.004383026 0.004671375 0.004924729 0.005123917
 0.005283625 0.005418128 0.005537692 0.005663542 0.005783827 0.005897547 0.005990449 0.006051166 0.006087479 0.00609772
 0.006098594 0.006094055 0.006091906 0.006093561 0.006104727 0.006125727 0.00616512 0.006223437 0.006312345 0.006433195
 0.006606398 0.006830272 0.007111402 0.007437747 0.007773672 0.008109423 0.0084008 0.008658981 0.008880907 0.009081241
 0.009277958 0.009469194 0.009657293 0.009845083 0.0100314 0.01023118 0.01045603 0.01068305 0.01091284 0.01110166
 0.01123735 0.0113446 0.01142315 0.01152033 0.01163819 0.01178279 0.01195162 0.0121183 0.01228139 0.01241902
 0.01253337 0.01261981 0.0126818 0.01272418 0.01275067 0.01277076 0.01278162 0.0127848 0.01277398 0.01274068
 0.01269585 0.01263961 0.01259378 0.01256903 0.01256438 0.01258414 0.01260808 0.01263316 0.01265065 0.01265933
 0.01265781 0.01264588 0.01261324 0.0125596 0.01247832 0.01236997 0.01223597 0.01207358 0.01187304 0.01163443
 0.01134587 0.01102739 0.01069941 0.01039348 0.01015492 0.009991573 0.009931419 0.009945742 0.01003576 0.01014373
 0.01025274 0.01031007 0.01029158 0.01021935 0.0100845 0.009987694 0.00993742 0.01000329 0.01018876 0.01047488
 0.01085801 0.01129265 0.01177398 0.012256 0.01272969 0.01313537 0.0134787 0.01373564 0.01393419 0.01411119
 0.01427782 0.01446739 0.01465986 0.01484794 0.01502359 0.0151761 0.0153207 0.01546462 0.01560023 0.01573103
 0.01582498 0.01587561 0.01587752 0.01582731 0.01576084 0.01568001 0.01563604 0.01563063 0.01570271 0.01584621
 0.01605209 0.01630372 0.016538 0.01674663 0.01687333 0.01693384 0.01692602 0.01687265 0.01679799 0.01671761
 0.01664911 0.01660633 0.01660353 0.01663739 0.01671601 0.01680502 0.01689842 0.01696691 0.01700326 0.01700669
 0.0169766 0.0169117 0.01681191 0.0166754 0.01650452 0.01632903 0.01615097 0.01600139 0.01587205 0.01574896
 0.01562739 0.01548428 0.01533224 0.01518319 0.01504318 0.01493008 0.01482555 0.01472265 0.01460172 0.01444789
 0.01426008 0.01403174 0.01377859 0.01350093 0.01322496 0.01295608 0.01270255 0.01246818 0.01221663 0.01194609
 0.01162007 0.01124109 0.01083292 0.01040107 0.009992419 0.009603721 0.009245722 0.00891781 0.00861891 0.008362186
 0.008171505 0.008048325 0.008011848 0.008033614 0.008102785 0.008180181 0.008243854 0.008263029 0.008219485 0.008106961
 0.007913015 0.007681728 0.007413076 0.007183984 0.007002684 0.006908613 0.00690438</values></Ydata></AB><ScSm><Ydata ylabel="Single channel"><values byteorder="INTEL" format="FLOAT32" numvalues="1814"> 0.07388057 0.07390046 0.0739857 0.07415729 0.07438397 0.07460098 0.07475583 0.07484189 0.07487993 0.07487585
 0.07483035 0.07479064 0.07484344 0.07502862 0.07528144 0.07547766 0.07553653 0.07549334 0.07547531 0.0755738
 0.07571873 0.07570731 0.0753958 0.07486381 0.07435949 0.07407303 0.07402301 0.07420607 0.07471399 0.07548979
 0.07606217 0.07588638 0.07503043 0.07420102 0.07395839 0.07418032 0.074396 0.07432713 0.0739709 0.07349825
 0.07330659 0.073908 0.07542229 0.07716757 0.07790911 0.07663537 0.07327753 0.0689447 0.06552389 0.06467107
 0.06664005 0.06993888 0.07244693 0.07310596 0.07243046 0.07144557 0.07059051 0.06984016 0.06939685 0.06972019
 0.07088269 0.07214782 0.07234648 0.07086546 0.06838118 0.06639445 0.06587113 0.06662877 0.06812571 0.07004982
 0.07151103 0.07057834 0.06617859 0.06050278 0.05802763 0.06125638 0.068047 0.07371997 0.07522674 0.0728334
 0.06873673 0.06524894 0.06395019 0.06525701 0.068325 0.07175601 0.07445869 0.07569911 0.07490574 0.0721675
 0.06872337 0.06635711 0.06630076 0.06876084 0.07287471 0.07677376 0.07843114 0.07716872 0.07411233 0.0709985
 0.06902885 0.06887795 0.07086073 0.07458941 0.07896576 0.08283122 0.08544064 0.08650935 0.08625691 0.0852759
 0.08408639 0.08305629 0.08272238 0.08345515 0.08459608 0.08471306 0.08316475 0.08095881 0.0797131 0.07998037
 0.08080463 0.08088116 0.07987759 0.07820576 0.07571846 0.0717088 0.06651907 0.06194789 0.05944864 0.05903262
 0.06034918 0.06324677 0.0665069 0.06776721 0.06610241 0.06366904 0.06355248 0.06648041 0.07045723 0.07321905
 0.07433029 0.07503103 0.07663465 0.07917793 0.08123797 0.08099332 0.07802585 0.07434788 0.07298191 0.07499459
 0.07847866 0.08091494 0.08183642 0.08254855 0.08384272 0.08476698 0.08361338 0.07993998 0.07566918 0.07390872
 0.07624683 0.0811609 0.08511567 0.0851748 0.08097836 0.07484032 0.06994666 0.06814793 0.06944819 0.07320288
 0.07883108 0.08519685 0.09032962 0.09252547 0.09158749 0.08871902 0.085155 0.08102268 0.07600057 0.07122061
 0.06949054 0.0726295 0.07913239 0.08542696 0.08906125 0.08992092 0.08882846 0.08601786 0.08137043 0.07589522
 0.07221591 0.07253228 0.07597567 0.07910571 0.07951874 0.07803574 0.07692283 0.07704815 0.07756443 0.0776729
 0.07775433 0.07872452 0.08073889 0.08285466 0.08396009 0.08379282 0.08297325 0.08227373 0.08191732 0.08142371
 0.08028281 0.07897705 0.07891479 0.08088982 0.08398968 0.08653342 0.08775221 0.08806245 0.0879517 0.08713299
 0.08497688 0.08171459 0.07892513 0.07836381 0.08026231 0.08318736 0.08553043 0.08665935 0.08675858 0.08624955
 0.08550903 0.08474635 0.08406132 0.08370271 0.08400485 0.08490548 0.08584405 0.08632449 0.0863173 0.08600395
 0.085426 0.08456058 0.083572 0.08281428 0.08257572 0.08286081 0.08343735 0.08404787 0.08449943 0.08461837
 0.08431248 0.08370844 0.08307448 0.08257391 0.08221286 0.08200985 0.08204688 0.08231593 0.08264591 0.08284482
 0.08285028 0.08271003 0.08247828 0.0821761 0.08182591 0.08149004 0.08126653 0.08122399 0.08131985 0.08142392
 0.08146545 0.08150339 0.08159079 0.08163741 0.08150442 0.08119641 0.08086747 0.08065337 0.08056614 0.08053729
 0.08049286 0.08036472 0.0800831 0.07963616 0.07915436 0.0788655 0.07891046 0.07923581 0.07968174 0.08010344
 0.08039222 0.08048707 0.08042385 0.08030377 0.08017567 0.08000059 0.07974784 0.0794808 0.07933165 0.07939822
 0.07965511 0.07996731 0.08020134 0.08030806 0.08030856 0.08026204 0.08025296 0.08032759 0.08041988 0.08040991
 0.08027603 0.08013073 0.08008882 0.08014335 0.08018845 0.08014341 0.08004097 0.07998846 0.08004754 0.08017562
 0.08029087 0.08036428 0.08043039 0.08052175 0.08060701 0.08060467 0.08047593 0.0802903 0.08016057 0.08012205
 0.08012517 0.08013828 0.08019236 0.08031023 0.08044471 0.08051962 0.08051305 0.08047554 0.08046405 0.08047311
 0.08044608 0.0803491 0.08021375 0.08010304 0.08005285 0.08005171 0.08006237 0.08005205 0.08000768 0.07993326
 0.0798398 0.07973583 0.0796237 0.07951014 0.07942551 0.07941429 0.07948359 0.07956745 0.079569 0.07944702
 0.07925321 0.07908158 0.0789848 0.07893758 0.07887679 0.07877018 0.07864054 0.07853025 0.07845975 0.07842157
 0.07839648 0.07837015 0.07835194 0.07838392 0.07850797 0.07870544 0.07888648 0.07896554 0.07894397 0.07890037
 0.07890767 0.07897826 0.07908 0.07918083 0.07927911 0.07940233 0.07956751 0.07974111 0.07986383 0.07992275
 0.07997095 0.080069 0.08023673 0.08046153 0.08071061 0.08092783 0.08106393 0.08113079 0.08119696 0.08131505
 0.08147633 0.08164455 0.08180723 0.08197579 0.08215567 0.08234219 0.08254397 0.08278947 0.08309948 0.08345614
 0.08380424 0.08408892 0.08430257 0.08449902 0.08475397 0.0851022 0.08551188 0.08591779 0.0862767 0.08659326
 0.08689962 0.0872146 0.08753051 0.08784327 0.08817917 0.08857043 0.08901215 0.0894658 0.0899027 0.09032402
 0.09074143 0.09115884 0.09157681 0.09200315 0.09245338 0.09293647 0.09343378 0.09389869 0.09429309 0.09462635
 0.09495035 0.09531882 0.09575181 0.0962192 0.09664886 0.09697776 0.09722101 0.09747081 0.0978004 0.09818532
 0.09855081 0.09888035 0.09923456 0.09966052 0.100123 0.1005446 0.100892 0.1012011 0.1015256 0.1018738
 0.1021998 0.1024552 0.1026468 0.1028326 0.1030616 0.1033369 0.1036476 0.1040074 0.1044285 0.1048765
 0.1052874 0.105623 0.1058874 0.1061031 0.1062981 0.1065024 0.1067283 0.1069625 0.1071897 0.1074069
 0.1076056 0.1077727 0.1079271 0.1081223 0.108391 0.1087155 0.1090695 0.1094554 0.1098748 0.1102939
 0.1106816 0.1110667 0.1115081 0.1120026 0.1124628 0.1128077 0.1130446 0.113236 0.1134214 0.1136153
 0.1138518 0.1141764 0.1145898 0.1150422 0.1154879 0.1159196 0.1163458 0.1167594 0.1171362 0.1174481
 0.1176787 0.1178339 0.1179464 0.1180666 0.1182442 0.1185023 0.1188162 0.1191216 0.1193534 0.1194743
 0.1194699 0.1193426 0.1191327 0.1189189 0.1187591 0.1186234 0.1184113 0.1180371 0.1174812 0.116766
 0.1159119 0.1149372 0.1138878 0.1128517 0.1119357 0.1112234 0.1107591 0.1105713 0.1106947 0.1111397
 0.1118378 0.1126392 0.113377 0.1139171 0.1141553 0.114017 0.1134952 0.1126745 0.1116894 0.1106606
 0.1096689 0.1087551 0.107918 0.1071404 0.1064572 0.1059967 0.1059348 0.1064105 0.1074837 0.1091341
 0.1112508 0.1136205 0.1159734 0.1180894 0.1198813 0.1213831 0.1226783 0.1238463 0.1249481 0.1260132
 0.1270258 0.1279478 0.1287663 0.1295045 0.1301861 0.1308054 0.131335 0.1317494 0.1320461 0.1322528
 0.1324096 0.1325372 0.1326361 0.1327184 0.132814 0.1329314 0.1330235 0.1330045 0.1327958 0.1323669
 0.1317601 0.1311077 0.13064 0.1306581 0.1314366 0.1330701 0.1353828 0.1380023 0.1405438 0.1427475
 0.1445045 0.1458277 0.1468166 0.1476054 0.1483028 0.1489653 0.1496103 0.1502371 0.1508384 0.1514088
 0.1519535 0.1524881 0.1530298 0.1535816 0.154123 0.1546231 0.1550729 0.155504 0.1559677 0.15649
 0.1570464 0.1575837 0.1580744 0.1585415 0.1590177 0.1594933 0.1599289 0.160313 0.1606807 0.1610763
 0.1615198 0.162003 0.1624947 0.162951 0.163346 0.1636942 0.1640334 0.1643878 0.1647581 0.1651366
 0.1655173 0.1658923 0.1662543 0.1666087 0.166976 0.1673674 0.1677608 0.1681148 0.1684142 0.168691
 0.1689927 0.1693344 0.1696886 0.1700207 0.1703288 0.170647 0.171011 0.171419 0.1718292 0.1721954
 0.1725046 0.1727813 0.1730603 0.1733599 0.1736794 0.1740111 0.174349 0.1746876 0.1750233 0.1753592
 0.1757008 0.1760472 0.1763894 0.1767198 0.1770397 0.1773564 0.1776749 0.1779967 0.1783255 0.1786731
 0.17905 0.1794461 0.1798274 0.1801619 0.1804472 0.1807073 0.1809675 0.1812387 0.1815234 0.1818224
 0.1821333 0.1824498 0.1827668 0.1830844 0.1834025 0.1837174 0.1840269 0.1843359 0.1846519 0.184978
 0.1853126 0.1856532 0.1859973 0.1863396 0.186672 0.1869882 0.1872879 0.1875791 0.1878752 0.1881826
 0.1884948 0.1888011 0.1891022 0.1894096 0.1897294 0.1900535 0.1903689 0.1906721 0.1909706 0.1912725
 0.1915776 0.1918806 0.1921802 0.1924812 0.1927884 0.1931032 0.1934227 0.193739 0.1940448 0.194342
 0.1946406 0.194945 0.1952502 0.1955512 0.1958493 0.1961462 0.1964427 0.1967415 0.1970448 0.1973495
 0.1976495 0.1979421 0.1982303 0.1985193 0.1988112 0.1991036 0.1993956 0.199691 0.1999916 0.2002915
 0.2005873 0.2008842 0.2011881 0.2014966 0.2018031 0.2021036 0.2024006 0.2027021 0.2030148 0.2033348
 0.2036512 0.2039596 0.2042636 0.2045648 0.2048612 0.2051511 0.2054336 0.2057101 0.2059855 0.2062635
 0.206544 0.2068291 0.2071232 0.2074225 0.2077156 0.2079972 0.2082718 0.2085475 0.2088331 0.2091327
 0.2094382 0.2097351 0.2100188 0.2102983 0.2105858 0.2108899 0.2112079 0.2115242 0.2118275 0.2121256
 0.2124316 0.2127439 0.2130533 0.2133574 0.2136593 0.2139626 0.2142716 0.2145838 0.2148892 0.2151826
 0.2154683 0.2157491 0.2160271 0.2163099 0.2166029 0.216901 0.2171987 0.2174948 0.2177847 0.2180681
 0.218357 0.2186575 0.2189578 0.2192469 0.21953 0.2198177 0.2201175 0.2204313 0.2207481 0.2210517
 0.221343 0.2216337 0.2219218 0.222199 0.2224718 0.2227504 0.2230335 0.2233165 0.223593 0.2238402
 0.2240076 0.2239609 0.2233484 0.2214671 0.2172526 0.2094896 0.1972896 0.1806502 0.1606573 0.1391048
 0.117832 0.09823933 0.0811446 0.06689243 0.05554525 0.04700853 0.0410981 0.03764685 0.03662841 0.03830006
 0.04335598 0.05251461 0.06495656 0.07694213 0.08326708 0.08137275 0.0737911 0.06583604 0.06119041 0.06012792
 0.06108852 0.06272881 0.06461025 0.06696452 0.07021023 0.07447371 0.07955819 0.0854532 0.0925883 0.1012835
 0.1110862 0.1209598 0.1301759 0.138883 0.1477515 0.1571561 0.1667768 0.1759119 0.1840363 0.1910589
 0.1972063 0.202777 0.2079758 0.212895 0.2175781 0.2220225 0.2260763 0.2293913 0.2315898 0.2325555
 0.2325726 0.2321652 0.2317859 0.2316409 0.2317478 0.2320726 0.2325886 0.2332721 0.2340981 0.2350362
 0.2360424 0.2370695 0.2380873 0.2390783 0.2400245 0.2409117 0.2417343 0.2424888 0.2431734 0.2437943
 0.2443597 0.2448726 0.2453389 0.2457735 0.2461919 0.2465999 0.2469939 0.2473665 0.2477117 0.2480317
 0.2483326 0.2486164 0.2488844 0.249144 0.2494015 0.2496534 0.2498944 0.2501276 0.2503613 0.2505991
 0.2508383 0.2510734 0.2513017 0.2515287 0.2517619 0.2519993 0.2522332 0.2524607 0.2526826 0.2528981
 0.2531106 0.2533321 0.2535654 0.2537946 0.2540055 0.2542071 0.2544203 0.2546535 0.2548961 0.2551307
 0.2553514 0.2555695 0.2558005 0.2560474 0.2563031 0.2565615 0.2568163 0.2570595 0.2572916 0.2575218
 0.2577491 0.2579575 0.258139 0.2583103 0.258501 0.2587297 0.258987 0.2592431 0.2594778 0.2596983
 0.2599207 0.2601452 0.2603596 0.2605536 0.2607308 0.2609184 0.2611552 0.2614509 0.2617721 0.2620816
 0.2623682 0.2626338 0.2628853 0.2631429 0.263416 0.2636704 0.2638593 0.2639953 0.2641639 0.2644511
 0.2648581 0.2652925 0.2656553 0.2659298 0.2661712 0.2664356 0.2667446 0.2670694 0.2673084 0.2673575
 0.2672717 0.2672878 0.2676061 0.268193 0.2688478 0.2694058 0.2698304 0.2701645 0.2704526 0.2706958
 0.2708538 0.2708949 0.2708719 0.2709436 0.271266 0.2718285 0.2724454 0.2729442 0.2733001 0.2735687
 0.2737893 0.2739822 0.2741086 0.2740116 0.2735839 0.2730628 0.2729634 0.2735819 0.274662 0.2756672
 0.2763053 0.2766737 0.2769655 0.277232 0.2774404 0.2775043 0.2771506 0.2760816 0.2745512 0.2735215
 0.2738611 0.2754658 0.2774282 0.2789435 0.2798161 0.2802557 0.2805235 0.2807563 0.2808637 0.2805427
 0.2796127 0.2784548 0.2779144 0.2785241 0.2799073 0.2811843 0.2818738 0.2821477 0.282357 0.2826383
 0.282825 0.2823999 0.280784 0.2781879 0.276051 0.276031 0.2783771 0.2816253 0.2840502 0.2851572
 0.285543 0.2856147 0.2849986 0.283215 0.2803837 0.2771671 0.2745817 0.2738778 0.2757077 0.2790732
 0.2818915 0.2830555 0.2833645 0.2841698 0.2857481 0.2873099 0.2880412 0.2877376 0.2866551 0.2850555
 0.2830854 0.281204 0.280439 0.2816566 0.2845082 0.2875549 0.2895996 0.2905961 0.2910175 0.2904494
 0.2873137 0.2807676 0.2730691 0.2689396 0.2713877 0.2785577 0.2857248 0.2899424 0.2916418 0.2924003
 0.2928443 0.2924812 0.2899665 0.2838214 0.2747392 0.267058 0.26583 0.271817 0.2806291 0.2868383
 0.2877034 0.283457 0.276292 0.269695 0.2670361 0.2695283 0.2756943 0.2828277 0.2886237 0.2918026
 0.2920825 0.2900446 0.2870799 0.2850538 0.2849678 0.2854715 0.283875 0.2795521 0.2749946 0.2721415
 0.2693501 0.2644139 0.2594207 0.2593627 0.2656627 0.2738125 0.2784504 0.2787901 0.2776319 0.2762401
 0.2721443 0.2626828 0.2500492 0.2413476 0.2423709 0.2516015 0.261589 0.2662494 0.2656813 0.2639424
 0.2636234 0.2632274 0.2593098 0.2509982 0.2422161 0.2383696 0.2405746 0.2446387 0.2459842 0.2432984
 0.2368806 0.2271287 0.2171461 0.2136552 0.2212794 0.2368208 0.2518058 0.2594777 0.2571966 0.244815
 0.2256054 0.2082568 0.2026315 0.2109126 0.2249555 0.2338113 0.2323981 0.2223087 0.207107 0.1899406
 0.1750434 0.1680717 0.1726421 0.1866931 0.2027453 0.2116616 0.2076282 0.1926232 0.1767512 0.1709582
 0.177101 0.1867414 0.1906555 0.1872167 0.1809627 0.1766762 0.1766103 0.1803107 0.1851238 0.1886159
 0.1905023 0.1899321 0.182824 0.1668235 0.1480058 0.136936 0.1376725 0.1455964 0.1558896 0.1678695
 0.1795863 0.184843 0.1802062 0.1716201 0.16942 0.1773616 0.1893469 0.1968298 0.1972596 0.1945942
 0.1930954 0.1927009 0.1912311 0.1894735 0.1913202 0.1984552 0.207449 0.2135893 0.215777 0.2161161
 0.2163324 0.2164687 0.2160899 0.2150565 0.2134394 0.2116227 0.2101884 0.2092474 0.2083324 0.2070919
 0.2052531 0.2015854 0.1942006 0.1832801 0.1727798 0.1673486 0.1674488 0.1696389 0.1716356 0.1736424
 0.1736695 0.1662233 0.1495716 0.1316679 0.1243673 0.1319954 0.1481495 0.1629765 0.1706878 0.1700249
 0.1613176 0.1467614 0.1329445 0.1288342 0.1384728 0.1570932 0.1762165 0.1909307 0.2004831 0.2043085
 0.2012302 0.1924626 0.1828369 0.1781002 0.1814242 0.1919422 0.2050083 0.2133853 0.2107518 0.1979729
 0.186044 0.1880344 0.2053161 0.2252545 0.2354126 0.2362131 0.2359748 0.2379836 0.2387995 0.2373126
 0.2384433 0.2463118 0.2581087 0.2668432 0.2674754 0.2588989 0.2432958 0.226652 0.217226 0.2189769
 0.2271505 0.2335274 0.2344301 0.2302486 0.2205531 0.2061433 0.1942674 0.194258 0.206684 0.2220629
 0.2316385 0.2353521 0.2379263 0.2407198 0.2401171 0.2330718 0.2222385 0.2143375 0.2134888 0.2175733
 0.2217404 0.2235143 0.2228315 0.2191379 0.2117416 0.2029868 0.1982676 0.2013468 0.2104907 0.2201432
 0.2259303 0.2273852 0.2265654 0.2254093 0.22445 0.2230196 0.2205767 0.2184245 0.219457 0.2250075
 0.2326142 0.2384956 0.2418689 0.2452126 0.2503903 0.256081 0.2593857 0.259001 0.2564744 0.2548721
 0.2563251 0.260328 0.2641041 0.2649714 0.2628888 0.2607203 0.2615892 0.2659015 0.2713065 0.2753708
 0.2775672 0.2787608 0.2797698 0.2806756 0.2807811 0.2791437 0.2759158 0.273149 0.273347 0.276977
 0.282017 0.2860332 0.2881312 0.2888435 0.2888296 0.28817 0.2867377 0.2848265 0.2831722 0.2823834
 0.2825167 0.2832253 0.284139 0.285022 0.2857507 0.2863058 0.2867427 0.2871068 0.2874105 0.2876835
 0.2879529 0.288167 0.2882428 0.2882222 0.2882876 0.288559 0.2889378 0.2892081 0.2892284 0.2889415
 0.2882668 0.2871252 0.285573 0.2837814 0.2818456 0.2797315 0.2775227 0.2756734 0.2748652 0.2755073
 0.2773667 0.279714 0.281818 0.2833079 0.2841711 0.2845637 0.2846723 0.2846595 0.2846259 0.2845888
 0.2845131 0.284373 0.2841797 0.2839602 0.2837345 0.2835227 0.2833565 0.2832612 0.2832238 0.2831869
 0.2830815 0.2828708 0.2825725 0.2822366 0.2818942 0.2815178 0.2810357 0.280388 0.2795737 0.2786502
 0.277699 0.2767906 0.2759534 0.2751551 0.2743248 0.2734028 0.2723467 0.2710992 0.2696165 0.2679616
 0.266311 0.2648141 0.2634727 0.2621779 0.2608191 0.2593337 0.2577048 0.2559579 0.2541434 0.2522978
 0.2504241 0.2485093 0.2465478 0.2445513 0.2425389 0.2405172 0.2384703 0.2363744 0.2342192 0.2320016
 0.2296945 0.2272207 0.2244654 0.221315 0.217683 0.2135127 0.2087947 0.2036067 0.1981193 0.1925443
 0.1870718 0.1818492 0.1769943 0.1726161 0.1688216 0.1656984 0.1632907 0.1616061 0.1606391 0.1603776
 0.1607953 0.1618477 0.1634608 0.1655094 0.1678198 0.1702022 0.1724837 0.1745347 0.1763074 0.1778649
 0.1793519 0.1809034 0.1825623 0.1842772 0.1859727 0.1875958 0.1890945 0.1903971 0.1914574 0.1922973
 0.1929763 0.1935395 0.1940188 0.1944506 0.1948599 0.1952413 0.195578 0.1958767 0.1961752 0.1965209
 0.1969445 0.1974545 0.1980529 0.1987507 0.1995648 0.2005087 0.2015792 0.2027498 0.2039865 0.205278
 0.2066409 0.2080973 0.2096718 0.2114033 0.2133298 0.2154563 0.2177522 0.2201696 0.2226453 0.2250918
 0.2274032 0.2294756 0.2312345 0.2326552 0.2337596 0.234594 0.2352153 0.2356834 0.2360441 0.2363192
 0.2365153 0.2366246 0.2366203 0.2364742 0.2361845 0.2357702 0.2352513 0.2346548 0.2340203 0.2333758
 0.2327212 0.232046 0.2313538 0.2306659 0.2300116 0.2294093 0.2288495 0.2283012 0.2277378 0.2271498
 0.2265378 0.2258982 0.2252065 0.2244146 0.2234842 0.2224197 0.2212512 0.2199893 0.218617 0.2171192
 0.2155052 0.2138056 0.21205 0.2102454 0.2083788 0.2064347 0.2043968 0.2022436 0.199982 0.1976823
 0.1954472 0.1933409 0.1913652 0.1894945 0.1877096 0.1860035 0.184375 0.1828212 0.1813352 0.1799135
 0.1785587 0.1772712 0.1760473 0.174889 0.1738109 0.1728346 0.1719746 0.1712208 0.1705392 0.1699035
 0.1693193 0.1688109 0.1684008 0.1681108 0.167951 0.167888 0.167846 0.1677553 0.1675861 0.1673446
 0.1670602 0.1667739 0.166516 0.1662923 0.1660885 0.1658691 0.1655711 0.1651104 0.1643994 0.1633645
 0.1619729 0.1602573 0.1583063 0.1562389 0.1541942 0.1523126 0.1506917 0.1493646 0.1483189 0.1475121
 0.1468756 0.1463421 0.1458898 0.1455553 0.1453974 0.1454245 0.1455392 0.1455891 0.1455137 0.1454195
 0.1454816 0.1457954 0.1463288 0.1469677 0.147588 0.1481155 0.1485269 0.1488056 0.1489321 0.1489221
 0.1488209 0.1486555 0.1484288 0.1481467 0.1478165 0.1474366 0.1469994 0.1464854 0.1458683 0.1451562
 0.1443904 0.1435803 0.1426874 0.1416804 0.140547 0.139277 0.1379323 0.1367206 0.1359168 0.135695
 0.136035 0.1367489 0.1376072 0.1384802 0.1393055 0.1399091 0.1400565 0.1398392 0.1398658 0.1408192
 0.1427905 0.1451624 0.1471548 0.1483821 0.1488801 0.148792 0.1481973 0.14714 0.1456271 0.1436189
 0.1411325 0.1382931 0.1352389 0.1320986 0.1290655 0.126336 0.1239884 0.1220204 0.1204312 0.1192897
 0.1187527 0.1184554 0.1165283 0.1105905 0.1014092 0.09452759 0.09560468 0.104044 0.1133989 0.1181846
 0.1182558 0.1165436 0.115068 0.1141313 0.1136249 0.1136851 0.1144388 0.115741 0.117187 0.1183583
 0.1191015 0.1194817 0.1194608 0.1186691 0.1163861 0.111802 0.1046706 0.09586342 0.087056 0.07975073
 0.07462391 0.07156309 0.06998567 0.06917834 0.06865726 0.0683798 0.06861897 0.06963272 0.07144884 0.07392383
 0.07689817 0.08016659 0.08335178 0.0860377 0.08809032 0.08967904 0.09095344 0.09186636 0.09232507 0.09234443
 0.09201689 0.09144284 0.09071191 0.08988173 0.08894619 0.08785699 0.08663352 0.08546539 0.08462499 0.0842203
 0.08410643 0.08407922 0.08405575 0.08403899 0.08403222 0.08403344 0.08404127 0.0840714 0.08420204 0.08452584
 0.08501127 0.08549362 0.08583467 0.08603287 0.0861719 0.08627824 0.08621442 0.08579253 0.08508293 0.08445197
 0.08409989 0.08372688 0.08292568 0.08179058 0.08086742 0.08055189 0.08074684 0.08107384 0.08123609 0.08117086
 0.08101891 0.08103361 0.08140419 0.08202147</values></Ydata></ScSm><ScRf><Ydata ylabel="Single channel"><values byteorder="INTEL" format="FLOAT32" numvalues="1820"> 0.06061806 0.06077173 0.06086831 0.06090498 0.06090552 0.06091736 0.06098961 0.06113932 0.06133601 0.06151972
 0.06164154 0.06169499 0.06170351 0.06168227 0.06163675 0.06160132 0.06164007 0.06178413 0.06198318 0.06213635
 0.06217594 0.06213064 0.06210735 0.06218334 0.0623 0.06228703 0.06202325 0.06157455 0.0611475 0.06089998
 0.06084714 0.0609879 0.06140223 0.06204579 0.06252653 0.06238729 0.06167763 0.06097982 0.06076084 0.06092603
 0.06109022 0.06102334 0.0607206 0.06032008 0.06014835 0.06063132 0.06187589 0.06332529 0.06395715 0.06292529
 0.06016223 0.05658039 0.05374105 0.0530165 0.05461957 0.05731972 0.05936734 0.05989201 0.05932447 0.05851676
 0.0578297 0.05722923 0.0568649 0.05711073 0.05803948 0.05906174 0.05921923 0.05799828 0.05594654 0.05429833
 0.05385356 0.05446709 0.05569503 0.05727915 0.0584842 0.05771767 0.054092 0.04940787 0.04735565 0.05000986
 0.05561601 0.06031225 0.06156763 0.05959019 0.05619732 0.05330735 0.05222459 0.05328618 0.05579582 0.05860895
 0.06083094 0.06185412 0.06120354 0.05895181 0.05611876 0.05416987 0.05411584 0.056126 0.0594944 0.06269124
 0.06405479 0.06302491 0.06051912 0.05795926 0.05633216 0.05619368 0.05780635 0.06085883 0.06445494 0.06764022
 0.06979065 0.07066143 0.07043505 0.06961416 0.06863953 0.06780897 0.06754509 0.06813906 0.06905206 0.06911965
 0.06782752 0.0660092 0.06498851 0.06520882 0.06588077 0.06593756 0.06510984 0.06373364 0.06168607 0.0583892
 0.05412798 0.05038124 0.04834168 0.04801513 0.04911061 0.05150493 0.0541986 0.05524544 0.05387501 0.05185495
 0.05172776 0.05410531 0.05735868 0.05962878 0.06054905 0.06112741 0.06243821 0.06451627 0.06620242 0.06600752
 0.06358628 0.06058301 0.05947371 0.06113421 0.06399913 0.06599829 0.06674887 0.06733008 0.06840109 0.06918384
 0.06827201 0.06529586 0.06182751 0.06041288 0.06235214 0.06639655 0.0696491 0.0697031 0.06626503 0.06123868
 0.05724356 0.05579768 0.05690398 0.06004237 0.06474669 0.07008141 0.07441024 0.07631113 0.07560493 0.07327771
 0.07035868 0.06696825 0.06284638 0.05893122 0.05755969 0.06025521 0.06576999 0.0711224 0.0742596 0.0750818
 0.0742709 0.07201004 0.06818749 0.06365587 0.06064529 0.06102866 0.06407157 0.06685069 0.06731696 0.06616095
 0.06531071 0.06551416 0.06605768 0.06626421 0.06646437 0.06744754 0.06934611 0.07134102 0.07246041 0.07246085
 0.07186885 0.07136248 0.07115707 0.07085149 0.07000744 0.06904712 0.06919506 0.0711281 0.0740279 0.07641631
 0.07763204 0.07805904 0.07813032 0.07757589 0.07581751 0.0730582 0.07072337 0.07040052 0.07229979 0.07512291
 0.07741199 0.07859943 0.0788635 0.07859123 0.07811736 0.07762422 0.07720339 0.07708361 0.07756434 0.0785802
 0.07961611 0.0802234 0.08038279 0.08026315 0.07989737 0.07926036 0.07850994 0.07798602 0.07796229 0.07843779
 0.07918531 0.07995653 0.08056919 0.08086005 0.08073966 0.08032855 0.0798905 0.0795919 0.07944088 0.07945085
 0.07969539 0.08015919 0.08066763 0.08103245 0.0812 0.0812238 0.08115826 0.08102317 0.08084083 0.08067515
 0.0806265 0.08075953 0.08101841 0.08126473 0.08143975 0.08162621 0.08188762 0.08211961 0.08215909 0.08199929
 0.08180316 0.08172069 0.08176617 0.08186486 0.08194233 0.08193555 0.08177499 0.08144535 0.08107893 0.08091068
 0.08108844 0.08156408 0.08217804 0.08277485 0.08322851 0.08346726 0.08352768 0.08351649 0.08348626 0.08339897
 0.08322366 0.08302678 0.08295165 0.0831126 0.08349408 0.08395413 0.08433768 0.08457365 0.08467604 0.08471636
 0.08479898 0.08497868 0.08517735 0.08525623 0.08519185 0.08511378 0.08514724 0.08527131 0.08535825 0.08532676
 0.08523427 0.08521643 0.08534472 0.08556286 0.0857669 0.08592153 0.08607771 0.08628325 0.08649115 0.08657815
 0.08647615 0.08626693 0.08610272 0.08604701 0.08605307 0.08608977 0.08620144 0.08641287 0.0866427 0.0867714
 0.08677603 0.08675148 0.08679193 0.086881 0.08691761 0.08683356 0.08666179 0.08649759 0.08641852 0.0864405
 0.08652195 0.08659457 0.08660311 0.08653559 0.08642338 0.08631055 0.08622284 0.08617324 0.08619384 0.08633015
 0.08657119 0.08679871 0.08685444 0.08668531 0.08640595 0.08619589 0.08613557 0.08615068 0.08610623 0.08593556
 0.08567934 0.08542617 0.0852365 0.08511445 0.08502857 0.08495286 0.08490039 0.08492023 0.085041 0.08520366
 0.08527433 0.0851586 0.08489794 0.08462898 0.08445765 0.0843955 0.08439282 0.08439524 0.08438347 0.08438826
 0.08444826 0.08453627 0.08456606 0.08449525 0.08438276 0.08432664 0.08438479 0.08455795 0.08478923 0.08496953
 0.08500706 0.08491962 0.08481959 0.08479612 0.08484638 0.08492316 0.08500366 0.08509266 0.0851909 0.08529127
 0.08540118 0.08554814 0.08575426 0.08600594 0.08625188 0.08643735 0.08655073 0.08664168 0.08678693 0.08702932
 0.08734433 0.08766231 0.08792309 0.08811837 0.08828696 0.08846729 0.08866171 0.08885901 0.08907633 0.08934655
 0.08966676 0.08999307 0.09029253 0.09057352 0.09085894 0.09115313 0.09144698 0.09174635 0.09208429 0.09249002
 0.0929348 0.09332563 0.09358051 0.09371154 0.09381994 0.09401637 0.09434485 0.09475112 0.09510833 0.09531373
 0.09539222 0.09547773 0.09566659 0.09592336 0.09616428 0.09639598 0.09671266 0.09716022 0.09765313 0.09804675
 0.09827295 0.09839083 0.09851176 0.09868582 0.0988671 0.09898975 0.09905943 0.09914477 0.09928828 0.09947227
 0.09968486 0.0999656 0.1003439 0.100767 0.1011374 0.1014058 0.1015919 0.1017354 0.1018572 0.101957
 0.10202 0.1020413 0.1020561 0.1021152 0.1022176 0.1023027 0.1023329 0.1023492 0.1024217 0.1025771
 0.1028012 0.1030794 0.1033933 0.1036982 0.1039603 0.1042135 0.104528 0.1048994 0.1052187 0.1053894
 0.105437 0.1054585 0.105499 0.105542 0.1055989 0.1057316 0.1059763 0.1062969 0.1066329 0.1069622
 0.1072985 0.107648 0.1079793 0.1082318 0.1083557 0.1083563 0.108301 0.108284 0.108377 0.1085994
 0.1089126 0.1092469 0.1095417 0.1097608 0.109876 0.1098736 0.109799 0.1097643 0.109859 0.1100494
 0.1101967 0.1101768 0.1099607 0.1095831 0.1090757 0.1084576 0.1077718 0.1071009 0.1065365 0.1061354
 0.1059138 0.1058841 0.106082 0.1065288 0.1071685 0.1078748 0.1085267 0.109047 0.1093626 0.1093852
 0.1090728 0.108489 0.1077676 0.1070321 0.1063553 0.1057543 0.1051952 0.104636 0.104113 0.1037783
 0.1038253 0.104372 0.1054031 0.1067847 0.1083079 0.1097542 0.1109772 0.1119533 0.1127539 0.1134656
 0.1141381 0.1147964 0.1154642 0.1161426 0.1167843 0.1173308 0.1177797 0.1181849 0.1185914 0.1189934
 0.1193569 0.1196559 0.1198916 0.1200936 0.1202907 0.1204657 0.1205591 0.1205384 0.1204412 0.1203305
 0.1202226 0.1200757 0.1198331 0.1194702 0.1190277 0.1186269 0.1184476 0.118657 0.1193196 0.1203578
 0.1216079 0.1229219 0.1242054 0.1253731 0.1263234 0.1269973 0.1274337 0.1277358 0.1279958 0.1282633
 0.1285563 0.1288719 0.1291915 0.1294966 0.1297823 0.1300621 0.130361 0.1306928 0.131035 0.131339
 0.1315804 0.1317941 0.1320502 0.1323892 0.1327832 0.1331649 0.1334988 0.1338127 0.134142 0.134464
 0.1347187 0.1348916 0.1350387 0.1352321 0.1355077 0.13586 0.1362458 0.1365948 0.1368513 0.1370231
 0.1371714 0.137351 0.1375724 0.1378183 0.1380732 0.138328 0.1385765 0.1388242 0.1390938 0.1393993
 0.1397101 0.1399643 0.140133 0.1402563 0.1404035 0.1406054 0.1408376 0.1410588 0.1412562 0.1414576
 0.1417046 0.1420076 0.1423244 0.1425914 0.1427771 0.1429043 0.1430239 0.1431739 0.143361 0.1435701
 0.1437814 0.1439829 0.144175 0.144371 0.144588 0.1448302 0.1450802 0.1453125 0.145515 0.1456973
 0.14588 0.1460766 0.1462909 0.1465296 0.1468027 0.1471022 0.1473904 0.1476263 0.1478021 0.1479428
 0.1480765 0.1482182 0.1483741 0.1485472 0.1487369 0.1489404 0.1491541 0.1493714 0.1495847 0.1497899
 0.1499893 0.1501882 0.1503906 0.150597 0.1508073 0.1510259 0.1512582 0.1514975 0.1517247 0.1519255
 0.1521055 0.1522828 0.1524698 0.1526645 0.1528563 0.1530387 0.1532151 0.153393 0.1535756 0.153764
 0.1539615 0.1541681 0.1543748 0.1545727 0.1547646 0.1549612 0.1551659 0.1553716 0.1555714 0.1557685
 0.1559692 0.1561715 0.1563679 0.1565562 0.1567413 0.1569268 0.1571144 0.1573095 0.1575159 0.1577269
 0.1579301 0.1581223 0.1583112 0.1585043 0.1587019 0.1588993 0.1590942 0.1592887 0.1594847 0.1596806
 0.1598758 0.1600751 0.1602827 0.1604954 0.1607084 0.1609214 0.1611342 0.1613422 0.1615428 0.1617413
 0.1619471 0.1621648 0.1623903 0.1626149 0.1628351 0.1630557 0.1632804 0.1635048 0.1637206 0.1639231
 0.1641105 0.1642848 0.1644532 0.1646219 0.1647912 0.1649603 0.1651337 0.1653168 0.1655106 0.1657091
 0.1659014 0.1660814 0.166259 0.1664506 0.1666588 0.166871 0.1670785 0.1672831 0.1674888 0.1676976
 0.1679102 0.1681234 0.1683315 0.1685341 0.1687351 0.1689369 0.1691401 0.1693455 0.169551 0.1697551
 0.1699612 0.1701716 0.1703819 0.1705874 0.170789 0.1709909 0.1711981 0.1714152 0.1716396 0.1718644
 0.1720872 0.1723084 0.1725221 0.1727218 0.1729112 0.173099 0.1732915 0.1734965 0.1737177 0.1739454
 0.1741666 0.1743801 0.17459 0.1747954 0.1749992 0.1752082 0.1754235 0.1756413 0.1758594 0.1760727
 0.1762763 0.1764775 0.1766859 0.1768868 0.1770277 0.1769868 0.176482 0.1749658 0.1716026 0.1654274
 0.1557333 0.1425216 0.1266561 0.1095544 0.092669 0.07711297 0.06354584 0.05225119 0.04327933 0.03654598
 0.03189245 0.02917712 0.02837606 0.02969433 0.03368337 0.04091213 0.0507338 0.06019578 0.06518732 0.06368462
 0.05768742 0.05139959 0.04773574 0.04690718 0.04767125 0.04896379 0.05044443 0.05230168 0.05486571 0.0582353
 0.06225926 0.06693558 0.07260381 0.07951105 0.08729569 0.09513685 0.1024528 0.1093521 0.1163656 0.1238043
 0.1314278 0.1386799 0.1451364 0.1507195 0.1556069 0.1600329 0.1641599 0.1680678 0.1717998 0.1753551
 0.1786061 0.1812705 0.1830463 0.1838364 0.1838589 0.1835293 0.1832153 0.1830872 0.1831589 0.1834049
 0.1838108 0.184362 0.1850349 0.1858008 0.1866257 0.1874771 0.1883298 0.1891608 0.1899464 0.1906745
 0.1913458 0.1919605 0.1925178 0.1930245 0.1934907 0.1939195 0.1943135 0.1946833 0.1950398 0.1953867
 0.1957218 0.1960385 0.1963286 0.1965908 0.1968335 0.1970658 0.1972914 0.197512 0.1977301 0.1979464
 0.1981602 0.1983697 0.1985744 0.1987784 0.1989879 0.1992006 0.1994063 0.1996006 0.1997893 0.1999764
 0.2001609 0.2003442 0.2005314 0.2007219 0.20091 0.201095 0.2012849 0.2014886 0.2017064 0.2019265
 0.2021342 0.2023268 0.2025144 0.2027048 0.202898 0.2030951 0.2033004 0.2035135 0.2037287 0.2039436
 0.2041595 0.204378 0.2046017 0.2048287 0.2050425 0.2052219 0.2053668 0.2055052 0.2056697 0.2058729
 0.2061008 0.2063256 0.2065299 0.20672 0.2069131 0.2071157 0.2073194 0.2075103 0.2076848 0.2078618
 0.2080704 0.2083168 0.2085757 0.2088257 0.2090683 0.2093078 0.20954 0.2097671 0.2099929 0.2102
 0.2103629 0.2104931 0.2106507 0.210898 0.2112377 0.211602 0.211913 0.2121531 0.2123656 0.2125993
 0.2128734 0.2131617 0.2133792 0.2134387 0.2133798 0.2133933 0.2136496 0.2141293 0.2146689 0.215129
 0.215479 0.2157578 0.2160058 0.2162252 0.2163805 0.2164408 0.2164445 0.2165186 0.2167896 0.2172514
 0.2177591 0.2181783 0.2184916 0.2187411 0.2189499 0.2191273 0.2192439 0.2191805 0.2188516 0.2184415
 0.2183635 0.2188609 0.2197302 0.2205379 0.2210532 0.2213698 0.2216555 0.2219429 0.2221777 0.2222674
 0.2219954 0.2211455 0.2199396 0.219153 0.2194735 0.2208058 0.2224151 0.2236597 0.2243922 0.2247835
 0.2250372 0.2252578 0.2253737 0.2251454 0.2244322 0.223543 0.2231572 0.2236983 0.2248585 0.2259285
 0.226522 0.2267785 0.2269813 0.2272414 0.2274279 0.2271268 0.225868 0.2238134 0.2221195 0.2221313
 0.2240682 0.2267622 0.228813 0.2297942 0.2301652 0.2302553 0.2297797 0.2283658 0.226116 0.2235616
 0.221516 0.2209873 0.2225111 0.2252884 0.2276306 0.2286296 0.228927 0.2296273 0.2309717 0.2323236
 0.233007 0.2328367 0.2320141 0.2307563 0.2291895 0.2276981 0.2271324 0.2282041 0.2306217 0.2331988
 0.2349488 0.2358314 0.2362378 0.2358376 0.2333442 0.2280681 0.2218539 0.2185604 0.2206472 0.2266
 0.2325588 0.2361106 0.2376 0.2383108 0.2387523 0.2385248 0.2365367 0.2315828 0.224226 0.2180142
 0.2170911 0.2220911 0.2294218 0.2346274 0.2354439 0.2320486 0.2262467 0.2209189 0.2188396 0.2209987
 0.2261821 0.2321718 0.2370704 0.2398153 0.2401699 0.2386159 0.2363026 0.2347691 0.2348359 0.2353804
 0.2341827 0.2307363 0.2271045 0.2248805 0.2226945 0.2187255 0.2147225 0.214843 0.2202678 0.2272395
 0.2312945 0.2317829 0.2310326 0.2300802 0.2268534 0.2191298 0.2087497 0.2016712 0.2027643 0.2107584
 0.2193881 0.2235413 0.2233172 0.2221456 0.2222099 0.2222289 0.2192593 0.2125456 0.2054372 0.2025598
 0.2048712 0.2087957 0.2104299 0.2086311 0.2035978 0.1956365 0.1874571 0.184939 0.1921361 0.2062854
 0.22 0.2273559 0.2259958 0.2157332 0.1994235 0.1847821 0.180618 0.1889033 0.2023635 0.2111892
 0.2107974 0.2025703 0.1896758 0.1749761 0.1624217 0.1573552 0.1632759 0.1783415 0.1954515 0.2057203
 0.2033352 0.1901243 0.176078 0.1721337 0.1801358 0.1915413 0.1970181 0.1949395 0.1899429 0.1869817
 0.1885046 0.1941021 0.2009219 0.2063295 0.2099906 0.2107879 0.2039546 0.1867923 0.1662015 0.1541456
 0.1552266 0.1642694 0.1758958 0.1893828 0.2025268 0.2082815 0.2027092 0.1924747 0.189218 0.1971921
 0.2096063 0.216953 0.2164307 0.2124792 0.209883 0.2086559 0.2064413 0.2040539 0.2056516 0.2130257
 0.2224881 0.2289852 0.2313394 0.2318053 0.232237 0.2326771 0.2326342 0.2319234 0.2306016 0.2290915
 0.2280493 0.2276218 0.2273114 0.2267396 0.2256135 0.2225465 0.2153486 0.2041009 0.1931435 0.1876501
 0.188133 0.1907579 0.1930302 0.195252 0.1952264 0.1867777 0.1679231 0.1475576 0.1389873 0.1470758
 0.1646189 0.1805327 0.1883478 0.1867653 0.1763076 0.1594634 0.1433381 0.1374904 0.1461607 0.1641838
 0.1824814 0.1958861 0.2038232 0.206013 0.2014308 0.1913363 0.1805639 0.1747915 0.1770431 0.1863162
 0.1979655 0.2049711 0.2013397 0.1880049 0.1754898 0.1762137 0.1915024 0.2094482 0.2183007 0.2183925
 0.21751 0.2187826 0.2190603 0.2173211 0.2181241 0.225304 0.2363034 0.2446907 0.2458062 0.2386012
 0.2250723 0.2107704 0.2033594 0.2064316 0.2153666 0.2223169 0.2237886 0.2201721 0.2111055 0.1974592
 0.186292 0.1865978 0.1988843 0.2139896 0.2234865 0.2273466 0.2301422 0.2331796 0.2329438 0.2264722
 0.2163501 0.2091364 0.2088747 0.2135365 0.2184227 0.2211206 0.2215129 0.2189411 0.2126257 0.2048834
 0.2011524 0.2052397 0.2153475 0.2257395 0.2318599 0.2331659 0.231751 0.2296429 0.227459 0.2245882
 0.2205339 0.2166507 0.2158906 0.2196552 0.2255709 0.2299256 0.2319214 0.233957 0.2378649 0.2424025
 0.2447777 0.2436992 0.2405918 0.2383357 0.2389484 0.2419918 0.2449067 0.2451976 0.242805 0.2403837
 0.2408618 0.2446486 0.2495657 0.2533278 0.2554069 0.2565734 0.2575637 0.258432 0.2585142 0.256938
 0.2538646 0.251205 0.2512583 0.2544243 0.2588227 0.2622375 0.2639064 0.264375 0.2642643 0.2636312
 0.2623413 0.2606563 0.2592409 0.2586365 0.2588727 0.2596033 0.2604648 0.2612389 0.261831 0.2622426
 0.2625301 0.2627305 0.2628528 0.2629353 0.2630226 0.2630777 0.2630181 0.2628771 0.2628339 0.2630177
 0.2633447 0.2636074 0.2636607 0.2634467 0.2629041 0.26198 0.2607308 0.2593016 0.257764 0.2560782
 0.254318 0.2528991 0.2524472 0.2533348 0.2553368 0.2577654 0.2599339 0.2615002 0.2624641 0.2629794
 0.2632139 0.2633011 0.263319 0.2632789 0.2631549 0.2629327 0.2626302 0.2622765 0.2618918 0.2614931
 0.2611108 0.2607797 0.2605075 0.2602574 0.2599687 0.2595966 0.2591346 0.2586089 0.2580501 0.25746
 0.2568017 0.2560297 0.2551341 0.2541602 0.2531901 0.2523009 0.251519 0.2508044 0.2500857 0.2493071
 0.2484316 0.247421 0.2462676 0.2450587 0.243959 0.2430887 0.2424261 0.2418423 0.2412068 0.2404467
 0.2395481 0.2385427 0.237486 0.2364166 0.2353348 0.2342207 0.233056 0.2318214 0.2304972 0.2290772
 0.2275702 0.2259871 0.2243457 0.2226765 0.2209912 0.2192352 0.2172848 0.2149909 0.2122195 0.2088751
 0.2049282 0.2004483 0.1956062 0.190629 0.1857322 0.1810781 0.1767802 0.1729267 0.1695946 0.1668531
 0.1647637 0.1633728 0.1627012 0.1627436 0.1634772 0.1648624 0.1668319 0.1692809 0.1720688 0.1750337
 0.1780103 0.1808504 0.1834564 0.1858179 0.1879969 0.1900494 0.1919687 0.1937176 0.1952905 0.1967073
 0.1979647 0.1990309 0.1998902 0.2005697 0.2011187 0.2015763 0.2019649 0.2023051 0.2026199 0.2029165
 0.2031803 0.2033979 0.2035801 0.2037537 0.2039416 0.2041579 0.2044123 0.2047173 0.2050907 0.2055448
 0.2060654 0.2066177 0.2071796 0.2077586 0.2083744 0.2090411 0.2097728 0.2105954 0.2115443 0.2126482
 0.2139062 0.2152755 0.2166791 0.218024 0.2192215 0.2202107 0.2209699 0.2215012 0.2218109 0.2219121
 0.2218372 0.2216294 0.2213247 0.2209476 0.2205126 0.2200211 0.2194671 0.218854 0.2181977 0.2175122
 0.2168029 0.2160794 0.2153667 0.2146917 0.2140566 0.2134395 0.2128214 0.2122043 0.2115989 0.2110091
 0.2104336 0.2098706 0.2093127 0.2087489 0.2081746 0.207586 0.2069575 0.2062415 0.2054019 0.2044439
 0.2033996 0.2022904 0.2011133 0.199857 0.1985178 0.197097 0.195594 0.1940094 0.1923522 0.1906314
 0.1888373 0.1869422 0.1849414 0.1828908 0.1808905 0.1790245 0.1773211 0.1757601 0.1743023 0.1729157
 0.1715872 0.170314 0.1690884 0.1679026 0.1667635 0.1656879 0.1646848 0.1637543 0.1628985 0.16212
 0.1614171 0.1607839 0.1602153 0.1597143 0.15929 0.1589453 0.1586758 0.1584927 0.1584238 0.1584682
 0.1585643 0.1586227 0.1585849 0.1584507 0.1582685 0.1581033 0.157997 0.1579495 0.1579311 0.1578926
 0.1577632 0.1574615 0.156911 0.1560524 0.1548611 0.1533643 0.1516324 0.1497691 0.1479144 0.1462187
 0.1447827 0.1436367 0.1427691 0.1421353 0.1416562 0.14126 0.140936 0.1407344 0.1407193 0.1408976
 0.1411619 0.1413428 0.1413743 0.1413755 0.1415346 0.1419499 0.1425948 0.1433635 0.1441282 0.1447965
 0.1453291 0.1457056 0.1459183 0.1460027 0.1460128 0.1459654 0.1458513 0.1456776 0.145457 0.1451867
 0.1448573 0.1444545 0.1439601 0.1433789 0.1427312 0.14201 0.1411943 0.140286 0.139273 0.1381148
 0.1368603 0.1357332 0.1350183 0.1348839 0.1353075 0.1361112 0.1370872 0.138132 0.1391882 0.1400492
 0.1404345 0.1404058 0.1405584 0.1415841 0.1436172 0.1460935 0.1482541 0.1496962 0.1504138 0.1505009
 0.1500156 0.1490287 0.1475772 0.1456103 0.1431229 0.1402487 0.1371493 0.1339668 0.1309043 0.12817
 0.1258556 0.1239766 0.1225326 0.1215517 0.12115 0.1209592 0.119094 0.1131198 0.1038165 0.09686805
 0.09806724 0.1067877 0.1164336 0.1214113 0.1215728 0.1198986 0.1184434 0.1175154 0.1170109 0.1170807
 0.1178551 0.1191761 0.1206368 0.1218321 0.1226077 0.1230117 0.1229943 0.122172 0.1197936 0.1150221
 0.1076105 0.09845654 0.08928892 0.08168137 0.07636167 0.07322002 0.07163636 0.07083927 0.07029714 0.06997577
 0.07020986 0.07130454 0.07328425 0.07598098 0.07920398 0.08270297 0.08607305 0.08891409 0.09111267 0.09283135
 0.09421323 0.09521857 0.09574562 0.09578438 0.09542505 0.09479928 0.09403989 0.09323364 0.09236062 0.09131656
 0.09007878 0.08885084 0.08794668 0.08750356 0.08738902 0.08739185 0.08740094 0.08739574 0.08737612 0.08733888
 0.08728325 0.08724669 0.0873301 0.08761822 0.08806318 0.08850616 0.0888164 0.08897793 0.08905618 0.08907326
 0.08889848 0.08835892 0.08753473 0.08677923 0.08627479 0.08573049 0.08476241 0.08347731 0.08243547 0.08205815
 0.08225413 0.08261403 0.08279692 0.08270735 0.08247977 0.08240112 0.08271551 0.08334099 0.08384502 0.08384442
</values></Ydata></ScRf><Data_Parameters_AB><parameter name="DPF">1</parameter><parameter name="NPT">3497</parameter><parameter name="FXV">3996</parameter><parameter name="LXV">500</parameter><parameter name="CSF">1</parameter><parameter name="MXY">0.0524449720978737</parameter><parameter name="MNY">-0.110870905220509</parameter><parameter name="DAT">27/05/2022</parameter><parameter name="TIM">12:10:50.059 (GMT+2)</parameter><parameter name="DXU">WN</parameter></Data_Parameters_AB><AB__Qtest><MainReport name="Quality Test Report"><Header><Line><Legend>Test result ok/not ok [1/0]: </Legend><Value>0</Value></Line><Line><Legend>Method file: </Legend><Value>C:\Users\Public\Documents\Bruker\OPUS_8.2.28\QT\IRBT_v3_default.QT</Value></Line></Header><Matrix><Line><Legend></Legend><Legend>min</Legend><Legend>max</Legend><Legend>measured</Legend></Line><Line><Value>Absorption (X-Range 1):</Value><Value>0.400000</Value><Value>2.000000</Value><Value>0.150894</Value></Line><Line><Value>Noise (X-Range 4):</Value><Value></Value><Value>0.000300</Value><Value>0.000059</Value></Line><Line><Value>Signal/Noise (X-Range 2):</Value><Value>200.000000</Value><Value></Value><Value>54.957029</Value></Line><Line><Value>Signal/Noise (X-Range 3):</Value><Value>40.000000</Value><Value></Value><Value>33.193006</Value></Line><Line><Value>Water vapour (X-Range 5):</Value><Value></Value><Value>0.000300</Value><Value>0.000054</Value></Line><Line><Value>Signal/Water (X-Range 2):</Value><Value>100.000000</Value><Value></Value><Value>60.072908</Value></Line><Line><Value>Signal/Water (X-Range 3):</Value><Value>20.000000</Value><Value></Value><Value>36.282900</Value></Line><Line><Value>Fringes (X-Range 6):</Value><Value></Value><Value>0.000100</Value><Value>0.000073</Value></Line></Matrix></MainReport></AB__Qtest><Data_Parameters_ScSm><parameter name="DPF">1</parameter><parameter name="NPT">1814</parameter><parameter name="FXV">3996.33169228125</parameter><parameter name="LXV">499.541461535156</parameter><parameter name="CSF">1</parameter><parameter name="MXY">0.292844295501709</parameter><parameter name="MNY">0.0366284139454365</parameter><parameter name="DAT">27/05/2022</parameter><parameter name="TIM">12:10:50.059 (GMT+2)</parameter><parameter name="DXU">WN</parameter></Data_Parameters_ScSm><Data_Parameters_ScRf><parameter name="DPF">1</parameter><parameter name="NPT">1820</parameter><parameter name="FXV">4004.04661832813</parameter><parameter name="LXV">495.683998511719</parameter><parameter name="CSF">1</parameter><parameter name="MXY">0.264375030994415</parameter><parameter name="MNY">0.0283760633319616</parameter><parameter name="DAT">27/05/2022</parameter><parameter name="TIM">12:10:23.970 (GMT+2)</parameter><parameter name="DXU">WN</parameter></Data_Parameters_ScRf><Optic_Parameters_Rf><parameter name="APR">0</parameter><parameter name="APT">Open</parameter><parameter name="BMS">KBr</parameter><parameter name="DTC">RT-DLaTGS_IR-Biotyper [Microplate reader]</parameter><parameter name="HPF">0</parameter><parameter name="LPF">10.0</parameter><parameter name="LPV">4000</parameter><parameter name="PGR">0</parameter><parameter name="RCH">Module port</parameter><parameter name="RDX">0</parameter><parameter name="SRC">MIR</parameter><parameter name="VEL">10.0</parameter><parameter name="SON">Off</parameter></Optic_Parameters_Rf><Acquisition_Parameters_Rf><parameter name="ADT">1</parameter><parameter name="AQM">DD</parameter><parameter name="CFE">0</parameter><parameter name="COR">0</parameter><parameter name="DEL">0</parameter><parameter name="DLY">0</parameter><parameter name="HFW">8000</parameter><parameter name="LFW">0</parameter><parameter name="NSR">32</parameter><parameter name="PLF">AB</parameter><parameter name="RES">6</parameter><parameter name="RGN">-1</parameter><parameter name="STR">0</parameter><parameter name="TCL">MakeCompatibleScalar (0, {WSV=1.000000, ARV=0});</parameter><parameter name="TDL">37</parameter><parameter name="RPO">0</parameter></Acquisition_Parameters_Rf><FT_-_Parameters_Rf><parameter name="APF">B3</parameter><parameter name="HFQ">500</parameter><parameter name="LFQ">4000</parameter><parameter name="NLI">0</parameter><parameter name="PHR">24</parameter><parameter name="PHZ">ML</parameter><parameter name="SPZ">NO</parameter><parameter name="ZFF">1</parameter></FT_-_Parameters_Rf><Optic_Parameters_><parameter name="APR">0</parameter><parameter name="APT">Open</parameter><parameter name="BMS">KBr</parameter><parameter name="CHN">Module port</parameter><parameter name="DTC">RT-DLaTGS_IR-Biotyper [Microplate reader]</parameter><parameter name="HPF">0</parameter><parameter name="LPF">10.0</parameter><parameter name="LPV">4000</parameter><parameter name="PGN">0</parameter><parameter name="RDX">0</parameter><parameter name="SRC">MIR</parameter><parameter name="VEL">10.0</parameter><parameter name="SON">Off</parameter></Optic_Parameters_><FT_-_Parameters_><parameter name="APF">B3</parameter><parameter name="HFQ">500</parameter><parameter name="LFQ">4000</parameter><parameter name="NLI">0</parameter><parameter name="PHR">24</parameter><parameter name="PHZ">ML</parameter><parameter name="SPZ">NO</parameter><parameter name="ZFF">1</parameter></FT_-_Parameters_><Acquisition_Parameters_><parameter name="ADT">1</parameter><parameter name="AQM">DD</parameter><parameter name="CFE">0</parameter><parameter name="COR">0</parameter><parameter name="DEL">0</parameter><parameter name="DLY">0</parameter><parameter name="HFW">8000</parameter><parameter name="LFW">0</parameter><parameter name="NSS">32</parameter><parameter name="PLF">AB</parameter><parameter name="RES">6</parameter><parameter name="SOT">0</parameter><parameter name="TCL">MakeCompatibleScalar (0, {WSV=1.000000, ARV=0});</parameter><parameter name="TDL">37</parameter><parameter name="SPO">0</parameter><parameter name="SGN">-1</parameter></Acquisition_Parameters_><Instrument_Parameters_Rf><parameter name="HFL">15800.168544</parameter><parameter name="LFL">0</parameter><parameter name="LWN">15800.168544</parameter><parameter name="ABP">32197</parameter><parameter name="SSP">1</parameter><parameter name="ARG">2</parameter><parameter name="ASG">2</parameter><parameter name="ASS">32</parameter><parameter name="GFW">16</parameter><parameter name="GBW">16</parameter><parameter name="BFW">0</parameter><parameter name="BBW">0</parameter><parameter name="PKA">7266</parameter><parameter name="PKL">4996</parameter><parameter name="PRA">7453</parameter><parameter name="PRL">5001</parameter><parameter name="P2A">1</parameter><parameter name="P2L">1</parameter><parameter name="P2R">1</parameter><parameter name="P2K">1</parameter><parameter name="DAQ">0</parameter><parameter name="AG2">1</parameter><parameter name="SSM">1</parameter><parameter name="RSN">24942</parameter><parameter name="CRR">0</parameter><parameter name="SRT">1653653423.97</parameter><parameter name="DUR">19.635986328125</parameter><parameter name="TSC">27.9</parameter><parameter name="MVD">0.348655521869659</parameter><parameter name="AN1">0.225795922749468</parameter><parameter name="AN2">0</parameter><parameter name="VSN">2.485 Apr  4 2017</parameter><parameter name="SRN">0085</parameter><parameter name="CAM">0</parameter><parameter name="INS">IR-Biotyper</parameter><parameter name="FOC">69</parameter><parameter name="RDY">1</parameter><parameter name="ARS">32</parameter></Instrument_Parameters_Rf><Sample_Parameters_><parameter name="BLD"></parameter><parameter name="CNM">Admin</parameter><parameter name="CPY"></parameter><parameter name="DPM"></parameter><parameter name="EXP">IRBT_v3_32Scans.XPM</parameter><parameter name="LCT"></parameter><parameter name="SFM">Microplate, HTS-XT</parameter><parameter name="SNM">220527-1039(v.2)_GFG29M (D_7)_G9_7015c300-e959-499e-8ab3-0099e205315c.0</parameter><parameter name="XPP">C:\Users\Public\Documents\Bruker\OPUS_8.2.28\XPM</parameter><parameter name="IST">OK</parameter><parameter name="CPG">1252</parameter><parameter name="UID">953828f5-8df3-49a5-bca2-50d8bc9ca991</parameter></Sample_Parameters_><Instrument_Parameters_><parameter name="HFL">15800.168544</parameter><parameter name="LFL">0</parameter><parameter name="LWN">15800.168544</parameter><parameter name="ABP">32197</parameter><parameter name="SSP">1</parameter><parameter name="ASG">2</parameter><parameter name="ARG">2</parameter><parameter name="ASS">32</parameter><parameter name="GFW">16</parameter><parameter name="GBW">16</parameter><parameter name="BFW">0</parameter><parameter name="BBW">0</parameter><parameter name="PKA">8183</parameter><parameter name="PKL">4988</parameter><parameter name="PRA">8444</parameter><parameter name="PRL">4993</parameter><parameter name="P2A">1</parameter><parameter name="P2L">1</parameter><parameter name="P2R">1</parameter><parameter name="P2K">1</parameter><parameter name="DAQ">0</parameter><parameter name="AG2">1</parameter><parameter name="SSM">1</parameter><parameter name="RSN">13097</parameter><parameter name="CRR">0</parameter><parameter name="SRT">1653653450.06</parameter><parameter name="DUR">19.635986328125</parameter><parameter name="TSC">27.9</parameter><parameter name="MVD">0.387481063604355</parameter><parameter name="AN1">0.22580443523995</parameter><parameter name="AN2">0</parameter><parameter name="VSN">2.485 Apr  4 2017</parameter><parameter name="SRN">0085</parameter><parameter name="CAM">0</parameter><parameter name="INS">IR-Biotyper</parameter><parameter name="FOC">69</parameter><parameter name="RDY">1</parameter></Instrument_Parameters_><History/></OPUSDataFile>
