<?xml version="1.0" encoding="UTF-8" ?>
<OPUSDataFile><AB><Ydata ylabel="Absorbance Units"><values byteorder="INTEL" format="FLOAT32" numvalues="3497"> -0.06537146 -0.06538507 -0.06540646 -0.06543707 -0.06545483 -0.06545859 -0.06543711 -0.06539185 -0.06533781 -0.06527812
 -0.06524027 -0.06522248 -0.06523534 -0.06527042 -0.06531285 -0.06535757 -0.06538686 -0.06540745 -0.06541944 -0.06543135
 -0.06545289 -0.06547879 -0.06551109 -0.06553572 -0.06554642 -0.06554109 -0.06551591 -0.06548387 -0.06544608 -0.0654153
 -0.06539305 -0.06538427 -0.06538931 -0.06541015 -0.06544662 -0.06549793 -0.06556267 -0.06563213 -0.06570464 -0.06576887
 -0.06582611 -0.06587328 -0.06591366 -0.06595209 -0.06598862 -0.06602678 -0.06606091 -0.06608844 -0.06610265 -0.06609902
 -0.06607458 -0.06602639 -0.06595735 -0.06586587 -0.06576439 -0.06565276 -0.06555505 -0.06547318 -0.06543031 -0.06542785
 -0.06546742 -0.06554701 -0.06564014 -0.06574417 -0.06582787 -0.06589453 -0.0659384 -0.06596614 -0.06599234 -0.06601736
 -0.06604967 -0.06608371 -0.06611544 -0.06614315 -0.0661628 -0.06617871 -0.06619283 -0.06620587 -0.06622004 -0.06622822
 -0.06622859 -0.06621822 -0.06619468 -0.0661701 -0.06614458 -0.06614008 -0.06615783 -0.06621616 -0.06631469 -0.06645415
 -0.06662963 -0.06681406 -0.06699854 -0.06713428 -0.06722074 -0.06722662 -0.06716967 -0.06706323 -0.06692858 -0.06679702
 -0.06667671 -0.06658711 -0.0665201 -0.06647846 -0.06644582 -0.06641509 -0.06638228 -0.06634251 -0.06631014 -0.06628694
 -0.06628348 -0.06630234 -0.06633059 -0.06636768 -0.0663923 -0.0664048 -0.06640525 -0.06639709 -0.06640247 -0.06642263
 -0.06647646 -0.06655739 -0.06666155 -0.06677605 -0.06687604 -0.06695703 -0.06699945 -0.06701754 -0.06701675 -0.06700782
 -0.06700268 -0.06698956 -0.06696523 -0.06692539 -0.06686159 -0.06681012 -0.06677251 -0.06680253 -0.0669084 -0.06709592
 -0.06736685 -0.06760404 -0.06780009 -0.06780963 -0.06765228 -0.06738149 -0.0670239 -0.06671318 -0.06644709 -0.0662873
 -0.06621995 -0.06625357 -0.06636304 -0.06652926 -0.06671169 -0.06687214 -0.06698174 -0.06700496 -0.06696394 -0.06685212
 -0.06672342 -0.06659214 -0.06648608 -0.06641455 -0.06637168 -0.06635826 -0.06636159 -0.06638093 -0.06640993 -0.06644844
 -0.06649382 -0.06654584 -0.06660234 -0.0666614 -0.06671622 -0.0667614 -0.06677981 -0.06676853 -0.06671038 -0.06661746
 -0.06649347 -0.06636129 -0.06624119 -0.0661475 -0.06609604 -0.06608453 -0.06611756 -0.06618214 -0.06627724 -0.06638493
 -0.06650327 -0.06661139 -0.06670764 -0.06676828 -0.06679177 -0.066763 -0.06668265 -0.0665598 -0.06639737 -0.06621893
 -0.06602645 -0.06583889 -0.0656589 -0.06550155 -0.06537126 -0.0652842 -0.06523821 -0.06524172 -0.06527711 -0.06533545
 -0.06539376 -0.06543396 -0.06545195 -0.06543803 -0.065411 -0.06537329 -0.0653436 -0.06532658 -0.0653257 -0.06534228
 -0.06537136 -0.06541273 -0.0654614 -0.06551688 -0.06557114 -0.0656229 -0.06565929 -0.06567997 -0.0656754 -0.06564914
 -0.06560408 -0.06554698 -0.06549045 -0.0654407 -0.0654107 -0.06540259 -0.06542233 -0.06547046 -0.06554772 -0.06565833
 -0.06580523 -0.06598675 -0.06620823 -0.06643952 -0.06667987 -0.06687916 -0.06703128 -0.06711058 -0.06711487 -0.06704126
 -0.06689029 -0.06666828 -0.06638145 -0.06607383 -0.06575523 -0.06548952 -0.06527812 -0.06516071 -0.06512482 -0.06517344
 -0.06527561 -0.06539582 -0.0655072 -0.06556741 -0.06558779 -0.06555968 -0.06551056 -0.06545094 -0.06539396 -0.0653474
 -0.06530544 -0.06526934 -0.06522453 -0.06516906 -0.06509815 -0.06501102 -0.06492361 -0.06483734 -0.0647789 -0.06474824
 -0.06476144 -0.06481056 -0.0648762 -0.06494263 -0.06495367 -0.06491215 -0.06478823 -0.06461491 -0.06442378 -0.06423398
 -0.06407978 -0.06394643 -0.06383739 -0.06372769 -0.06360467 -0.06346611 -0.0633054 -0.06314402 -0.06298544 -0.06284191
 -0.06271721 -0.06259413 -0.06247213 -0.062319 -0.06213457 -0.06191455 -0.06166522 -0.06143218 -0.06121732 -0.06105579
 -0.06093766 -0.06085266 -0.06079555 -0.06075037 -0.06072023 -0.06070504 -0.06070129 -0.06071079 -0.06071453 -0.06070333
 -0.06065776 -0.06056635 -0.06042426 -0.06022812 -0.05997606 -0.05966605 -0.05930554 -0.05889329 -0.05845729 -0.05799917
 -0.0575456 -0.05709743 -0.05666717 -0.0562554 -0.055873 -0.05552003 -0.05520478 -0.05492244 -0.05466498 -0.05442657
 -0.05419121 -0.05395996 -0.0537297 -0.05349683 -0.05326368 -0.05300599 -0.05270941 -0.05235836 -0.05193428 -0.05146796
 -0.05096255 -0.0504531 -0.04994865 -0.04945638 -0.04897867 -0.04851098 -0.04805296 -0.04760767 -0.04717597 -0.04677629
 -0.0464093 -0.04609325 -0.04581975 -0.04556993 -0.04532127 -0.04499916 -0.04459714 -0.04405238 -0.04341171 -0.04270833
 -0.04198739 -0.04130922 -0.04067172 -0.0400931 -0.03955411 -0.03905077 -0.03856802 -0.03810108 -0.03763959 -0.03718098
 -0.03671931 -0.03625415 -0.03577677 -0.03528685 -0.03476617 -0.03421415 -0.03362024 -0.03298749 -0.03233403 -0.031664
 -0.03100543 -0.03035828 -0.02973639 -0.02913871 -0.02857041 -0.02802833 -0.02751401 -0.02701406 -0.02651776 -0.02601274
 -0.02548504 -0.02494006 -0.02437766 -0.02380062 -0.02321425 -0.02259566 -0.02194027 -0.02123677 -0.02047848 -0.01971291
 -0.01894224 -0.01822788 -0.01757098 -0.0169798 -0.0164498 -0.01594985 -0.01547545 -0.01499091 -0.01449502 -0.01396405
 -0.01340405 -0.01281324 -0.01220349 -0.01159128 -0.01098028 -0.01038398 -0.00978828 -0.009189844 -0.008571115 -0.007919379
 -0.007242343 -0.006535819 -0.005828482 -0.005125069 -0.004446788 -0.00379802 -0.003178255 -0.002588312 -0.002008902 -0.001438994
 -0.0008584005 -0.0002675184 0.0003389738 0.000960453 0.00159656 0.002248317 0.002921003 0.003609633 0.004311812 0.005010327
 0.005681156 0.006312078 0.006877402 0.0073913 0.007850558 0.008286089 0.008711507 0.009143906 0.009594619 0.01005321
 0.01052088 0.01097729 0.01141859 0.01184592 0.01225822 0.01268355 0.01312309 0.01359997 0.01411111 0.01464257
 0.01518784 0.01570817 0.0162043 0.01665471 0.01707202 0.01747009 0.01786092 0.01827087 0.0186935 0.01913716
 0.01957752 0.01999938 0.02039237 0.02073966 0.02107352 0.02139508 0.02175663 0.02217154 0.02265606 0.02321807
 0.02382005 0.02446066 0.02508613 0.02569438 0.02625659 0.02677436 0.02724843 0.02768137 0.02808431 0.02845971
 0.02881836 0.02916606 0.02951845 0.02988165 0.03027379 0.0306882 0.03112848 0.03157638 0.03201765 0.03245204
 0.03287005 0.03329962 0.03374982 0.0342294 0.03474853 0.03526314 0.03576912 0.03622806 0.03663436 0.03702626
 0.03740678 0.03785526 0.0383689 0.03896331 0.03961969 0.04025919 0.04086686 0.04134977 0.04172408 0.04196943
 0.042128 0.04225053 0.04236563 0.04252698 0.04272142 0.04295956 0.04321213 0.04346384 0.04371312 0.04395265
 0.04420415 0.04447201 0.044765 0.04508653 0.04542367 0.04577609 0.04612368 0.04646558 0.04678714 0.04709035
 0.04738357 0.04767449 0.04800454 0.0483778 0.04883497 0.04935911 0.04994195 0.05055033 0.05113367 0.0516713
 0.05212018 0.05248772 0.05276266 0.05296845 0.05311109 0.05321584 0.05328958 0.05335845 0.05342776 0.05352142
 0.05364405 0.05380264 0.0539989 0.05421684 0.05445566 0.05469804 0.05494573 0.05520703 0.05548577 0.05580815
 0.05616908 0.05657219 0.05699877 0.0574128 0.05779951 0.05811549 0.05837596 0.05857186 0.05874612 0.05892593
 0.05913799 0.05941196 0.05971658 0.06005517 0.06036433 0.06062739 0.06082622 0.06095034 0.0610524 0.06113544
 0.06124901 0.06139402 0.06154564 0.06169898 0.06179357 0.06183476 0.06181298 0.06174557 0.0616818 0.06163108
 0.06164084 0.06170087 0.0618201 0.06197672 0.06215288 0.06233088 0.0624893 0.06263299 0.06275228 0.06288158
 0.06302882 0.06322505 0.06348506 0.06378406 0.06412636 0.06443442 0.06470241 0.06487158 0.06494031 0.06492583
 0.06483407 0.0647305 0.06461637 0.06453395 0.06447563 0.06443731 0.06441785 0.06440887 0.06442236 0.06447501
 0.06456812 0.06471796 0.06489427 0.06508445 0.06525352 0.06537534 0.06545545 0.06548342 0.06550256 0.06552045
 0.06556896 0.06565673 0.06577199 0.06591596 0.06604657 0.06616169 0.06622358 0.06623335 0.06618541 0.06608687
 0.06596877 0.06583983 0.06574467 0.06568492 0.06568883 0.06574568 0.06585578 0.06599759 0.06615183 0.06629547
 0.06640464 0.06647335 0.0664877 0.06646848 0.0664167 0.06636302 0.06631436 0.0662898 0.06629243 0.06633639
 0.06642247 0.06657328 0.06678979 0.0670827 0.06744744 0.06784559 0.06826506 0.06862333 0.06891385 0.06906561
 0.06909555 0.06899614 0.06880938 0.0685907 0.06838074 0.06824869 0.068194 0.06824989 0.06836235 0.06852025
 0.06865497 0.06873839 0.06874244 0.06864981 0.06848837 0.06825676 0.06800678 0.06774288 0.06749773 0.0672728
 0.06707012 0.066889 0.06672233 0.06657124 0.06643799 0.06632463 0.06623977 0.06618262 0.06615782 0.06615819
 0.06617999 0.06620286 0.06621034 0.06616865 0.06604899 0.0658291 0.06548209 0.06503294 0.06447417 0.06387686
 0.06325208 0.06267075 0.06214636 0.06170683 0.06135771 0.06107784 0.06086589 0.06067201 0.06049402 0.06028891
 0.06006113 0.05980983 0.05954456 0.05930006 0.05907298 0.05888023 0.05869631 0.05849032 0.05824095 0.05790473
 0.05750098 0.05701905 0.05651724 0.05601831 0.05557653 0.05521958 0.05495756 0.05480499 0.05471691 0.05469375
 0.05465674 0.05459953 0.05445752 0.05422761 0.05390274 0.05348736 0.05302783 0.05253004 0.05204989 0.05158789
 0.05117554 0.05080906 0.05049647 0.05023124 0.05000949 0.0498186 0.04964639 0.04947574 0.04929011 0.04908025
 0.04883384 0.04856119 0.04825978 0.04795535 0.04765312 0.04737273 0.04711964 0.04688954 0.04668367 0.04647756
 0.04626996 0.04603878 0.04578451 0.04550461 0.04520242 0.04489405 0.04458313 0.04429073 0.04401698 0.04377418
 0.04355644 0.04336168 0.04317972 0.04299924 0.0428119 0.04260699 0.04238387 0.04213805 0.04187657 0.04160051
 0.04131728 0.04102937 0.04073796 0.04044379 0.04014481 0.03984065 0.03953402 0.03922509 0.03892081 0.03862116
 0.03832839 0.03804144 0.03775511 0.03746925 0.03717978 0.03688904 0.03660028 0.03631567 0.03604075 0.03577461
 0.03551883 0.03527074 0.03502746 0.03479188 0.0345624 0.03435081 0.03416101 0.03400123 0.0338783 0.03377238
 0.03368548 0.03356731 0.03341371 0.03318263 0.03287181 0.03249008 0.03204216 0.03158728 0.03113156 0.03074238
 0.03041683 0.03018613 0.0300318 0.02993193 0.02985865 0.02975666 0.02961267 0.02938233 0.0290899 0.02873222
 0.02835758 0.02799219 0.02766109 0.0273849 0.02714592 0.02694407 0.02675882 0.02658325 0.02643509 0.02631401
 0.026258 0.02626904 0.02635092 0.02649912 0.02665918 0.02682257 0.02691006 0.02692187 0.02681049 0.02659526
 0.02629205 0.02593181 0.0255728 0.02523044 0.02495124 0.02471741 0.02453319 0.02436998 0.02420903 0.0240499
 0.02388431 0.02373519 0.02360951 0.02350778 0.02343436 0.0233589 0.02327815 0.02318026 0.02306441 0.02296386
 0.0228804 0.02284879 0.02286404 0.02291531 0.02299402 0.02306167 0.02311909 0.02314677 0.02315518 0.02315357
 0.02314819 0.02315347 0.02316056 0.02317117 0.02316368 0.02312795 0.02304556 0.02290315 0.02271067 0.02246154
 0.02220376 0.0219415 0.02173042 0.02157818 0.02149536 0.02148306 0.02148927 0.02150973 0.02147282 0.02138016
 0.02120103 0.02094857 0.02065137 0.02032506 0.02002262 0.01974794 0.01953432 0.01937019 0.01925707 0.01917766
 0.0191188 0.01906876 0.01901655 0.0189611 0.01889786 0.01883627 0.01877709 0.01873236 0.0187054 0.01869432
 0.01870058 0.01870191 0.01869712 0.0186678 0.01861521 0.01855271 0.01848433 0.01844321 0.01842802 0.01845281
 0.018511 0.0185901 0.0186942 0.01881834 0.01898492 0.0192157 0.0195341 0.01996765 0.02052313 0.0212115
 0.02203297 0.02298689 0.02408589 0.02533196 0.02674077 0.02831856 0.03005041 0.03193966 0.03391775 0.03598134
 0.0380156 0.04001318 0.04184834 0.0435168 0.04492648 0.04608196 0.04694897 0.0475384 0.04785882 0.04792021
 0.04774093 0.04733282 0.04670944 0.04590068 0.04492335 0.04383615 0.04266571 0.04148788 0.04033212 0.03926631
 0.03831189 0.03751347 0.03688103 0.03644148 0.03619773 0.03617585 0.03637744 0.03683045 0.03753492 0.03849889
 0.03971608 0.0411535 0.04279974 0.04459467 0.04653142 0.04856144 0.05068759 0.0528927 0.05518262 0.05755879
 0.06002256 0.06257594 0.06521805 0.06794947 0.0707676 0.07367593 0.07665376 0.07970443 0.08276936 0.08584575
 0.08884384 0.09175623 0.09449473 0.09705367 0.09937317 0.1014517 0.1032587 0.1047955 0.1060509 0.1070331
 0.1077572 0.1082498 0.1085718 0.1087738 0.1089609 0.1091902 0.1095717 0.1101358 0.11095 0.1120018
 0.1133071 0.1148287 0.1165573 0.1184581 0.1205225 0.1227191 0.125045 0.1274555 0.1299483 0.1324607
 0.1349891 0.1374603 0.1398699 0.1421425 0.1442731 0.1461911 0.1478914 0.1493172 0.1504633 0.1512905
 0.1517927 0.1519432 0.1517356 0.1511505 0.1501885 0.1488383 0.1471209 0.1450358 0.1426334 0.1399219
 0.1369837 0.133831 0.1305768 0.1272353 0.1239315 0.1206789 0.1175746 0.1146257 0.1118654 0.1092923
 0.1068831 0.1046336 0.1025057 0.1004971 0.09858113 0.0967527 0.09498862 0.09327679 0.09158594 0.08990696
 0.08821238 0.08651086 0.08479557 0.08309256 0.0814124 0.07978331 0.07821698 0.07673808 0.07535166 0.07409101
 0.07295839 0.07200612 0.07123779 0.07071703 0.07044803 0.07047977 0.07081149 0.07143696 0.07234202 0.07343361
 0.07468519 0.07594121 0.07718759 0.07829566 0.0792984 0.08017694 0.08101697 0.08190676 0.08294001 0.08423238
 0.08581749 0.08776601 0.09001158 0.09256529 0.09527662 0.09812418 0.1009145 0.1036226 0.1060375 0.1081406
 0.1097115 0.1107358 0.111005 0.1105113 0.1091146 0.1068272 0.1036488 0.09962816 0.09493778 0.0896626
 0.08409673 0.07833132 0.07266199 0.06714186 0.06196128 0.05711491 0.0526678 0.04857719 0.04483879 0.04140387
 0.03825475 0.03534722 0.03266923 0.03017723 0.02786332 0.02568913 0.02364976 0.02171885 0.01989435 0.01815994
 0.01651503 0.01494965 0.01346365 0.01205125 0.01071193 0.009440348 0.008235917 0.007093619 0.006015026 0.00500092
 0.004052198 0.00317356 0.002355466 0.001595176 0.0008720513 0.0001725624 -0.0005152933 -0.001204077 -0.001879562 -0.002542888
 -0.003166942 -0.003745315 -0.00427078 -0.004739448 -0.005176115 -0.00558189 -0.005988879 -0.006397633 -0.006815947 -0.007240986
 -0.007654561 -0.008055853 -0.008429082 -0.008781463 -0.009123015 -0.00946364 -0.009828626 -0.01021719 -0.01064278 -0.01108929
 -0.01154954 -0.01200261 -0.01243355 -0.01283031 -0.0131828 -0.01349246 -0.01375533 -0.01398711 -0.01418791 -0.01438487
 -0.01458077 -0.01479891 -0.01504146 -0.01530864 -0.01559955 -0.01589363 -0.01618943 -0.01646655 -0.01672513 -0.01695517
 -0.01715714 -0.01732618 -0.01746533 -0.01757506 -0.01766576 -0.01774997 -0.01783855 -0.01794941 -0.0180757 -0.01822346
 -0.01836615 -0.0184935 -0.01858884 -0.01863985 -0.01866717 -0.01866933 -0.01868829 -0.01872971 -0.01881327 -0.01894163
 -0.01909368 -0.01926767 -0.01942617 -0.01956905 -0.01967693 -0.01975406 -0.01980765 -0.01984266 -0.01987725 -0.01991185
 -0.0199573 -0.02000785 -0.0200606 -0.02010984 -0.02014671 -0.02017661 -0.02019701 -0.02022534 -0.02026835 -0.02033848
 -0.02044329 -0.02057563 -0.02073696 -0.02090903 -0.02108976 -0.02126715 -0.02144006 -0.02160608 -0.02176515 -0.02191659
 -0.02206046 -0.0221964 -0.02232521 -0.02245028 -0.02257234 -0.02269613 -0.02281979 -0.022943 -0.02306115 -0.02316802
 -0.02326039 -0.02333168 -0.02338527 -0.02341945 -0.02344455 -0.02346411 -0.02348747 -0.02351929 -0.02355867 -0.02360743
 -0.02365499 -0.02370043 -0.02373441 -0.023756 -0.02376555 -0.0237632 -0.02375395 -0.02373753 -0.02371377 -0.02368208
 -0.02363834 -0.02358525 -0.02352648 -0.02346903 -0.02342837 -0.02340857 -0.02342378 -0.02346828 -0.02354335 -0.02363805
 -0.02374525 -0.02385952 -0.02397599 -0.02409588 -0.02421886 -0.02434526 -0.02447551 -0.02460703 -0.02473949 -0.02487172
 -0.02500356 -0.02513593 -0.0252688 -0.02540125 -0.02553301 -0.02566111 -0.0257857 -0.02590557 -0.02602187 -0.02613727
 -0.02625265 -0.02637162 -0.02649279 -0.02661637 -0.02673919 -0.02685793 -0.02697169 -0.02707821 -0.02717995 -0.0272778
 -0.02737229 -0.02746449 -0.02755065 -0.02762985 -0.02770144 -0.02776449 -0.02782641 -0.02788764 -0.02795549 -0.02803
 -0.02810754 -0.02818724 -0.02825927 -0.0283246 -0.02838124 -0.02843328 -0.02849143 -0.02855913 -0.02864968 -0.0287605
 -0.0288954 -0.02904566 -0.02920484 -0.02936484 -0.02951764 -0.0296619 -0.02979454 -0.02991856 -0.03003473 -0.03014328
 -0.03024479 -0.03033629 -0.03041723 -0.0304875 -0.03054681 -0.03060113 -0.03065084 -0.03070414 -0.03076115 -0.03082692
 -0.03090036 -0.03097967 -0.03106271 -0.03114251 -0.03121717 -0.03127879 -0.03132894 -0.03136497 -0.0313935 -0.03141873
 -0.03144952 -0.03149351 -0.03155408 -0.03163655 -0.03173373 -0.03184607 -0.0319596 -0.03207159 -0.03217224 -0.03225923
 -0.03233404 -0.03239632 -0.03245467 -0.03250949 -0.03256829 -0.03263102 -0.03270047 -0.03277617 -0.03285776 -0.03294425
 -0.03303289 -0.03312201 -0.03320676 -0.03328647 -0.03335755 -0.0334218 -0.03347966 -0.03353284 -0.03358317 -0.03362974
 -0.03367243 -0.03371085 -0.03374398 -0.03377592 -0.03380714 -0.03384218 -0.03388222 -0.03392506 -0.03397084 -0.03401282
 -0.03405077 -0.03408241 -0.0341083 -0.03413273 -0.03415619 -0.03418368 -0.03421436 -0.03424865 -0.03428464 -0.03431854
 -0.03434932 -0.03437311 -0.03439192 -0.03440557 -0.03441833 -0.03443309 -0.03445255 -0.03447964 -0.03451178 -0.0345496
 -0.03458664 -0.03462176 -0.03464981 -0.03466947 -0.0346821 -0.03468735 -0.03469415 -0.03470298 -0.03472377 -0.03475622
 -0.03480176 -0.03485901 -0.03492167 -0.03498961 -0.03505853 -0.0351303 -0.03520737 -0.03528973 -0.0353798 -0.0354732
 -0.03556691 -0.03565608 -0.03573538 -0.03580588 -0.03586546 -0.03592104 -0.03597421 -0.03603101 -0.03609344 -0.03616222
 -0.03623802 -0.03631764 -0.03640096 -0.0364835 -0.03656501 -0.03664046 -0.03670987 -0.03677081 -0.03682443 -0.0368748
 -0.03692352 -0.03697832 -0.03703849 -0.03710724 -0.0371808 -0.03725492 -0.03732719 -0.0373924 -0.03745345 -0.03750997
 -0.03756746 -0.03762891 -0.0376961 -0.03777124 -0.03784977 -0.03793133 -0.0380106 -0.03808638 -0.0381592 -0.03822886
 -0.03829965 -0.03837169 -0.038444 -0.03851597 -0.03858032 -0.03863739 -0.03868414 -0.03872318 -0.03876147 -0.0388004
 -0.03884739 -0.0388996 -0.03895619 -0.03901402 -0.03906834 -0.03912112 -0.03917163 -0.03922434 -0.03928195 -0.03934447
 -0.03941349 -0.03948334 -0.03955329 -0.03961766 -0.0396752 -0.03972554 -0.03976832 -0.03980828 -0.03984567 -0.0398858
 -0.03992871 -0.0399767 -0.0400295 -0.04008693 -0.04014859 -0.04021337 -0.04028046 -0.04034792 -0.04041416 -0.04047608
 -0.04053242 -0.04058044 -0.04062052 -0.04065154 -0.04067599 -0.0406942 -0.04071034 -0.04072569 -0.04074391 -0.04076614
 -0.04079384 -0.04082745 -0.04086671 -0.04091167 -0.04096167 -0.04101662 -0.04107353 -0.0411319 -0.04118527 -0.04123342
 -0.04127118 -0.04130007 -0.04132167 -0.04133875 -0.04135833 -0.04138163 -0.04141443 -0.04145402 -0.04150066 -0.04154883
 -0.04159465 -0.04163451 -0.04166474 -0.04168746 -0.04170169 -0.04171409 -0.04172559 -0.04174323 -0.04176819 -0.04180481
 -0.04185384 -0.04191316 -0.04198257 -0.042052 -0.04212093 -0.04217928 -0.04222889 -0.042273 -0.04231634 -0.04237609
 -0.04245546 -0.04257091 -0.04272042 -0.04290868 -0.04313098 -0.04338294 -0.0436644 -0.04397092 -0.04431348 -0.04469286
 -0.04513132 -0.04563501 -0.04622627 -0.04691338 -0.0476978 -0.04858565 -0.04953492 -0.05054557 -0.05153228 -0.05249044
 -0.05333291 -0.05405949 -0.05463963 -0.05507782 -0.05538996 -0.05556419 -0.0555751 -0.05539646 -0.05493651 -0.05423295
 -0.05327408 -0.05218393 -0.05109147 -0.05008245 -0.0492717 -0.04865877 -0.04827637 -0.04809147 -0.04810338 -0.04826775
 -0.048583 -0.04896835 -0.04941786 -0.04982162 -0.05016786 -0.05040623 -0.0505342 -0.05058219 -0.05055285 -0.05048553
 -0.05037989 -0.05025464 -0.05010667 -0.04993518 -0.0497384 -0.04950847 -0.0492541 -0.04898377 -0.04870947 -0.04845114
 -0.04820418 -0.047975 -0.04774522 -0.04750498 -0.04724956 -0.04697129 -0.04668766 -0.04640006 -0.0461299 -0.04588095
 -0.0456639 -0.04548058 -0.04532912 -0.04520943 -0.0451083 -0.04502479 -0.04494351 -0.04486473 -0.04478192 -0.04469633
 -0.04460911 -0.04452045 -0.04443113 -0.04434142 -0.04425123 -0.04416324 -0.04407976 -0.04400458 -0.04394159 -0.04389194
 -0.043858 -0.0438368 -0.04382868 -0.04382724 -0.04383156 -0.04383398 -0.04383294 -0.04382567 -0.04381138 -0.04379521
 -0.04377741 -0.04376564 -0.04375983 -0.04376158 -0.04376985 -0.0437794 -0.04378967 -0.04379551 -0.04379812 -0.0437974
 -0.0437952 -0.04379476 -0.04379635 -0.04380191 -0.04380983 -0.04381953 -0.0438295 -0.04383869 -0.04384667 -0.04385322
 -0.04385732 -0.04385891 -0.04385588 -0.04384774 -0.0438344 -0.04381563 -0.04379427 -0.04377048 -0.04374805 -0.04372722
 -0.04371189 -0.04370219 -0.04370129 -0.04370834 -0.04372287 -0.0437422 -0.04376 -0.04377393 -0.04377657 -0.04376936
 -0.0437497 -0.04372376 -0.04369466 -0.0436697 -0.04365406 -0.04365011 -0.04366128 -0.04368151 -0.04371089 -0.04373903
 -0.04376418 -0.04378047 -0.04378676 -0.04378602 -0.04377834 -0.04377061 -0.04376295 -0.04375871 -0.0437572 -0.0437562
 -0.04375479 -0.04374836 -0.0437368 -0.04371709 -0.04369076 -0.0436584 -0.04362298 -0.04358779 -0.04355582 -0.0435307
 -0.04351326 -0.04350572 -0.04350484 -0.0435105 -0.04351745 -0.04352426 -0.04352811 -0.04352801 -0.04352542 -0.04352035
 -0.04351495 -0.04350933 -0.04350311 -0.04349623 -0.04348765 -0.04347754 -0.0434663 -0.04345407 -0.04344173 -0.0434288
 -0.04341453 -0.04339851 -0.04337918 -0.04335796 -0.04333507 -0.04331424 -0.04329829 -0.04329045 -0.04329426 -0.04330743
 -0.04333122 -0.04335736 -0.04338436 -0.04340445 -0.04341573 -0.043417 -0.04340765 -0.04339159 -0.043369 -0.04334395
 -0.0433166 -0.04328954 -0.04326271 -0.04323715 -0.0432125 -0.04318796 -0.04316347 -0.04313814 -0.043113 -0.04308925
 -0.04306829 -0.0430526 -0.04304177 -0.04303687 -0.04303535 -0.04303634 -0.04303708 -0.04303612 -0.04303287 -0.04302648
 -0.04301921 -0.043011 -0.04300605 -0.04300478 -0.04301009 -0.04302216 -0.04303907 -0.04306044 -0.04308025 -0.04309827
 -0.04310971 -0.04311547 -0.04311631 -0.04311331 -0.04311009 -0.04310592 -0.04310146 -0.04309488 -0.04308351 -0.04306835
 -0.04304826 -0.04302794 -0.04300983 -0.04299666 -0.04299117 -0.04298929 -0.04299107 -0.04298985 -0.04298415 -0.04297221
 -0.04295324 -0.04293264 -0.04291065 -0.04289465 -0.04288468 -0.04288278 -0.04288785 -0.04289395 -0.04289992 -0.04289749
 -0.04288786 -0.04286906 -0.04284449 -0.0428195 -0.04279531 -0.04277685 -0.04276013 -0.04274416 -0.04272341 -0.04269357
 -0.04265478 -0.04260491 -0.04255039 -0.04249218 -0.04243689 -0.04238603 -0.04234174 -0.04230447 -0.04227382 -0.04224976
 -0.04223224 -0.04222117 -0.04221559 -0.04221498 -0.04221566 -0.04221697 -0.04221422 -0.04220751 -0.04219437 -0.04217596
 -0.04215306 -0.042127 -0.04209989 -0.04207194 -0.04204433 -0.04201585 -0.04198576 -0.0419546 -0.04192161 -0.04189096
 -0.04186359 -0.04184267 -0.04182957 -0.0418209 -0.04181676 -0.04181004 -0.0418003 -0.04178455 -0.04176292 -0.04173753
 -0.04170854 -0.04167803 -0.041646 -0.04161318 -0.0415802 -0.04154881 -0.0415201 -0.04149716 -0.04147954 -0.04146882
 -0.04146152 -0.04145615 -0.04144711 -0.04143061 -0.04140374 -0.04136317 -0.04131345 -0.04125415 -0.04119473 -0.0411368
 -0.04108663 -0.04104539 -0.04101223 -0.04098721 -0.0409665 -0.04095 -0.0409356 -0.04092332 -0.04091242 -0.0409027
 -0.0408929 -0.04088266 -0.04087018 -0.04085565 -0.04083826 -0.04081926 -0.04079966 -0.04078112 -0.04076542 -0.04075336
 -0.04074591 -0.04074324 -0.04074575 -0.04075286 -0.04076501 -0.04077908 -0.04079502 -0.0408074 -0.04081551 -0.0408171
 -0.04081191 -0.0408041 -0.04079393 -0.04078637 -0.04078105 -0.04077793 -0.04077621 -0.04077237 -0.04076649 -0.04075654
 -0.04074408 -0.04073068 -0.04071832 -0.04071049 -0.04070706 -0.04071013 -0.04071571 -0.0407226 -0.04072565 -0.04072213
 -0.04071057 -0.04068954 -0.04066153 -0.04062664 -0.04058781 -0.04054533 -0.04050169 -0.04045705 -0.04041449 -0.04037411
 -0.04033753 -0.04030449 -0.04027398 -0.04024567 -0.0402175 -0.04018962 -0.04016134 -0.04013297 -0.04010473 -0.04007708
 -0.04005055 -0.04002592 -0.04000381 -0.03998547 -0.0399721 -0.03996326 -0.03995996 -0.03995758 -0.03995569 -0.03994722
 -0.03993045 -0.03990321 -0.03986437 -0.03982136 -0.03977448 -0.03973465 -0.03970212 -0.03968161 -0.03967205 -0.03966854
 -0.03966917 -0.03966339 -0.0396504 -0.03962142 -0.0395796 -0.0395253 -0.0394652 -0.03940812 -0.03935808 -0.03932335
 -0.03929972 -0.03928808 -0.0392802 -0.03927233 -0.03926129 -0.03924484 -0.03922522 -0.03920245 -0.03917892 -0.03915496
 -0.03913158 -0.03910889 -0.0390869 -0.03906569 -0.039046 -0.03902838 -0.03901691 -0.03901242 -0.03902139 -0.03904255
 -0.03907718 -0.03912051 -0.03916489 -0.03920522 -0.03923113 -0.03924196 -0.03923212 -0.03920719 -0.03916758 -0.03912307
 -0.0390776 -0.03903865 -0.03901001 -0.03899088 -0.03898255 -0.03897721 -0.03897414 -0.03896697 -0.03895506 -0.03893958
 -0.03892079 -0.03890471 -0.03889145 -0.03888486 -0.03888401 -0.03888724 -0.03889339 -0.03889813 -0.03890182 -0.03890295
 -0.03890265 -0.03890265 -0.03890117 -0.03889785 -0.03888914 -0.03887164 -0.03884713 -0.03881416 -0.03878063 -0.03874872
 -0.03872285 -0.03870498 -0.03869198 -0.03868383 -0.0386766 -0.03866997 -0.03866293 -0.03865545 -0.03864782 -0.0386402
 -0.03863404 -0.03862952 -0.03862883 -0.03863053 -0.03863271 -0.0386318 -0.03861952 -0.03859513 -0.03855241 -0.0384975
 -0.03843328 -0.03836656 -0.03830332 -0.03824426 -0.03819159 -0.03814255 -0.0380966 -0.03805257 -0.03801007 -0.03796936
 -0.03793063 -0.03789183 -0.03785281 -0.03781242 -0.03777082 -0.0377332 -0.03769974 -0.0376758 -0.0376586 -0.03763961
 -0.03761461 -0.03756529 -0.03749445 -0.03739682 -0.03728186 -0.03716094 -0.03703832 -0.03692282 -0.03681283 -0.03670932
 -0.03661189 -0.03652045 -0.0364353 -0.03635742 -0.03628232 -0.03620996 -0.03613234 -0.03604848 -0.03595284 -0.03584482
 -0.03572417 -0.03559109 -0.03545134 -0.03530551 -0.03516142 -0.03501858 -0.03487921 -0.03474189 -0.03460301 -0.03446337
 -0.03432265 -0.03418235 -0.03404592 -0.03390963 -0.03377218 -0.03362723 -0.03346894 -0.03329857 -0.03311425 -0.03292238
 -0.03272529 -0.03252327 -0.03231724 -0.0321031 -0.03188001 -0.03164976 -0.03141233 -0.03117258 -0.03093036 -0.03068001
 -0.03041961 -0.03013009 -0.02981077 -0.02944576 -0.02904125 -0.02860581 -0.02814735 -0.02768809 -0.02722526 -0.02676676
 -0.02630088 -0.02581859 -0.02531364 -0.02477652 -0.02421494 -0.02363028 -0.0230287 -0.02241798 -0.02177404 -0.0211014
 -0.02032891 -0.01945248 -0.01837593 -0.01709051 -0.01556435 -0.01379852 -0.01185902 -0.009744341 -0.007479667 -0.005039704
 -0.002324677 0.0006941704 0.004163404 0.008068816 0.01247772 0.01729699 0.02244962 0.02779385 0.03317222 0.03847965
 0.04359467 0.04849399 0.05314147 0.05752953 0.06167139 0.0654542 0.06887095 0.07174785 0.07405413 0.07575282
 0.07683439 0.07740037 0.07745656 0.07712037 0.07639787 0.07539105 0.07410213 0.07259834 0.07087338 0.06892984
 0.06679374 0.06448893 0.062117 0.05983143 0.05769764 0.0558603 0.0542587 0.0529008 0.051706 0.05063384
 0.04965524 0.04875221 0.047919 0.04715259 0.04644484 0.04579194 0.0452115 0.04470306 0.04432274 0.04407186
 0.04395318 0.04395716 0.04399673 0.04406572 0.04408798 0.04406802 0.04397799 0.04382908 0.04362565 0.04338973
 0.04314914 0.04293383 0.04277897 0.04271542 0.04277233 0.04297271 0.04334195 0.04385861 0.04453345 0.04528474
 0.0461 0.04690451 0.04768466 0.04841615 0.04909471 0.04973625 0.05034263 0.0509694 0.05162402 0.05240397
 0.05330462 0.0543718 0.05556224 0.0567617 0.05795101 0.05901999 0.06001124 0.06094003 0.06184376 0.06277113
 0.0637248 0.06472153 0.06575474 0.06682298 0.06793015 0.06908224 0.07025699 0.07145416 0.07263342 0.07378586
 0.07491946 0.07603356 0.07715481 0.07828289 0.07937423 0.08042246 0.08134535 0.08214705 0.08280246 0.08332536
 0.08374611 0.08407153 0.08433241 0.08452411 0.08465052 0.08471281 0.08470916 0.08465469 0.08455721 0.08443439
 0.08429851 0.08415157 0.08400125 0.08382412 0.08361878 0.08335263 0.08302005 0.08260722 0.08211038 0.08156916
 0.08098599 0.08042648 0.07988797 0.07937098 0.07886586 0.07832278 0.07773988 0.07708146 0.07636023 0.07558059
 0.07476776 0.0739617 0.07317559 0.07244419 0.07174981 0.07109242 0.07044917 0.06980241 0.06916498 0.06853139
 0.0679443 0.06741468 0.06695549 0.06657372 0.06623845 0.065948 0.0656713 0.06540723 0.06515534 0.06491823
 0.06472135 0.06456748 0.06448408 0.06447151 0.0645458 0.06470479 0.06495307 0.06528482 0.06569549 0.06617462
 0.06671208 0.06729382 0.06790812 0.0685425 0.0691866 0.06983994 0.07049792 0.07117394 0.07187092 0.0725949
 0.07334998 0.07411254 0.07488156 0.07562532 0.07634276 0.07704009 0.07772063 0.07842574 0.07915104 0.07990055
 0.08065678 0.08135909 0.08201042 0.08257825 0.08309635 0.08360353 0.08411933 0.08468891 0.08528672 0.08591237
 0.08652867 0.08711317 0.08765902 0.08815671 0.08861936 0.08905069 0.08944748 0.08981337 0.09011125 0.090338
 0.09047238 0.09051349 0.09046747 0.0903332 0.09010281 0.08977073 0.08930525 0.08869887 0.08791474 0.08693992
 0.08573288 0.08427439 0.08249299 0.0804501 0.07813357 0.07575612 0.07348675 0.07140081 0.06962115 0.06799332
 0.06648769 0.06499481 0.06347191 0.06193665 0.06038302 0.05886344 0.0573841 0.05594232 0.05453775 0.05312963
 0.05171768 0.05028274 0.04883125 0.04738676 0.04595693 0.04458246 0.04325931 0.04200235 0.04079492 0.03961826
 0.03845901 0.03729693 0.03612202 0.03492659 0.03368554 0.03238204 0.03100843 0.0295325 0.02807784 0.02665666
 0.02542862 0.0244372 0.02361931 0.02297809 0.02236638 0.0217773 0.02115673 0.02050993 0.01987965 0.01927171
 0.0187427 0.01828551 0.01790305 0.01759303 0.01734446 0.01717672 0.01711357 0.01717438 0.01739452 0.01776636
 0.01829573 0.01897121 0.01978291 0.0207445 0.02185 0.02314807 0.02462779 0.02644271 0.02858582 0.03141301
 0.0349542 0.03952172 0.04512771 0.05134996 0.05811684 0.06443311 0.07029139 0.0751278 0.07902293 0.08194518
 0.08397925 0.08527862 0.08594424 0.08619262 0.08610375 0.08585629 0.08545059 0.08494725 0.08430848 0.08351514
 0.08259427 0.08154113 0.08042555 0.07926244 0.07810067 0.07694628 0.07585593 0.0748344 0.07393706 0.07316676
 0.07251712 0.07198279 0.0714986 0.07105794 0.07059116 0.0700957 0.0695227 0.06888084 0.06815922 0.06738398
 0.06659058 0.06580105 0.0650529 0.06435782 0.06372795 0.06319612 0.06277591 0.06251334 0.06243082 0.06254089
 0.06285419 0.06335149 0.06403251 0.0648747 0.06587954 0.06698007 0.06817239 0.06930078 0.07035815 0.0712067
 0.07185785 0.07230341 0.07256501 0.07271227 0.07275914 0.07277385 0.0727549 0.07273633 0.07269299 0.07261688
 0.07246488 0.07220326 0.0717978 0.07121734 0.07046203 0.06951678 0.06842589 0.06718656 0.06589384 0.06455579
 0.06328963 0.06210777 0.06107789 0.06020416 0.05949162 0.05894008 0.05854756 0.05831624 0.05826097 0.05837907
 0.05867654 0.05913274 0.05971515 0.06037505 0.06103367 0.06161742 0.06201691 0.06217742 0.06200251 0.06153513
 0.06074371 0.05978616 0.05870274 0.05765088 0.05668585 0.05584499 0.05515113 0.05453736 0.05400098 0.05346475
 0.05292423 0.05235903 0.05177236 0.0512032 0.05065523 0.05017214 0.04974872 0.04939028 0.04908824 0.04882464
 0.04859489 0.04838442 0.04818941 0.04800122 0.04781443 0.04762197 0.04742126 0.04720874 0.04698515 0.0467505
 0.04650353 0.04624413 0.04597009 0.04567999 0.04538047 0.04507098 0.04477201 0.04448465 0.04423308 0.04401818
 0.04385635 0.04374822 0.04370552 0.04372968 0.04383318 0.04401473 0.0442805 0.04462085 0.04502595 0.04547885
 0.04595831 0.0464469 0.04692515 0.04737995 0.04779935 0.04817648 0.0485051 0.0487879 0.0490231 0.04922153
 0.04938452 0.04952097 0.04963207 0.04972037 0.04978605 0.04983452 0.04986654 0.04989465 0.04991884 0.04994682
 0.04997521 0.0499959 0.05000542 0.04998914 0.0499511 0.04988849 0.04981434 0.04974156 0.04968327 0.04965465
 0.04966137 0.04971009 0.04980408 0.04994426 0.0501398 0.05039304 0.05071132 0.05109832 0.05154214 0.05204374
 0.05256925 0.05311686 0.05364822 0.05416205 0.054633 0.05506192 0.05544055 0.05577141 0.05605832 0.05630553
 0.05652336 0.05671936 0.05690875 0.05710241 0.05731891 0.05756497 0.05785472 0.05818142 0.05854764 0.05893695
 0.05934347 0.05975687 0.0601722 0.06059126 0.06101369 0.06144182 0.06187645 0.06231095 0.06274497 0.06317139
 0.06359062 0.06400779 0.0644246 0.06485553 0.06529969 0.06576384 0.06624062 0.06671725 0.0671826 0.06761248
 0.06799836 0.06832059 0.06857582 0.06875493 0.06885771 0.06888091 0.06882837 0.0686992 0.06850385 0.06824324
 0.06793327 0.06757575 0.06718877 0.06677402 0.06634836 0.0659129 0.06547966 0.06504896 0.06462686 0.06421351
 0.06381284 0.06342529 0.06305506 0.06270166 0.06236637 0.06204754 0.0617423 0.06145116 0.06117168 0.06091057
 0.0606709 0.06046329 0.0602951 0.06017109 0.0600972 0.0600642 0.06007194 0.06010626 0.06016341 0.06024369
 0.06034558 0.06048599 0.06066589 0.06089687 0.06117844 0.06150329 0.06186984 0.06226382 0.06268518 0.06312651
 0.06358795 0.0640665 0.06456138 0.06506914 0.06559139 0.0661269 0.06668292 0.06726341 0.06787944 0.06853826
 0.06924745 0.07001356 0.07083171 0.0717041 0.07261352 0.07355791 0.0745206 0.07549935 0.0764871 0.07748334
 0.07848196 0.07948202 0.08046744 0.08143623 0.08236693 0.08325845 0.08409508 0.08487702 0.0855975 0.08625574
 0.08684887 0.08737204 0.08781997 0.08818362 0.08845362 0.08862413 0.08868695 0.08864798 0.08850505 0.08827527
 0.08796056 0.08758465 0.08715013 0.08668582 0.08619435 0.08570416 0.0852173 0.08474979 0.0843014 0.08386897
 0.0834494 0.08302161 0.08258022 0.08209209 0.08155503 0.08094168 0.08026441 0.07952532 0.07875641 0.07799182
 0.07727417 0.07664718 0.07615079 0.07581896 0.07567804 0.07574828 0.0760328 0.07654074 0.07724638 0.07815178
 0.07920073 0.08039162 0.08163488 0.08292565 0.08415228 0.08530989 0.08630884 0.08715232 0.08781609 0.08831285
 0.08867791 0.08892673 0.08911493 0.08925754 0.08940498 0.08957018 0.08978928 0.09006831 0.09042527 0.09085861
 0.09137367 0.09196221 0.09262545 0.09334252 0.09411176 0.09489849 0.09569819 0.09647431 0.09722294 0.09791315
 0.09854268 0.099089 0.09955196 0.09993012 0.1002267 0.1004645 0.1006457 0.100793 0.1009022 0.1009746
 0.1010036 0.1009767 0.1008909 0.1007359 0.1005152 0.1002257 0.09987958 0.09948056 0.09904635 0.09858408
 0.09810917 0.09762628 0.09714916 0.09667946 0.09623653 0.09582255 0.09545356 0.09513109 0.09485254 0.09461707
 0.0944073 0.09422191 0.09404352 0.09387121 0.09369159 0.09350494 0.09330371 0.09309179 0.09287301 0.09265018
 0.09243133 0.09220932 0.09198322 0.09173828 0.09146541 0.09115436 0.09079757 0.09039502 0.0899439 0.08945283
 0.08892222 0.08836413 0.08778034 0.08717578 0.08655114 0.08589981 0.08522146 0.08450953 0.08376487 0.08299114
 0.08218967 0.08136823 0.08052696 0.07967024 0.07879752 0.07790938 0.0770063 0.07608696 0.07515835 0.0742225
 0.07329706 0.07239279 0.07152406 0.07070335 0.06992145 0.06918088 0.06845812 0.06774838 0.06704072 0.06633287
 0.06562484 0.06491693 0.06419465 0.06345654 0.06267183 0.06183948 0.06093595 0.05996431 0.05892353 0.05782063
 0.05667283 0.05548875 0.05429153 0.05308927 0.05190094 0.05073392 0.04960107 0.0485069 0.04745994 0.04645376
 0.04549094 0.04455147 0.04363097 0.04271077 0.04178553 0.04085151 0.03990699 0.03895819 0.03800531 0.037057
 0.03611392 0.03518905 0.03428335 0.03341057 0.03257053 0.0317693 0.03100704 0.03028643 0.02960976 0.02898351
 0.0284071 0.02788453 0.02740842 0.02697453 0.02657342 0.02619872 0.02584167 0.0254985 0.02515803 0.02481697
 0.02446487 0.02409873 0.02371536 0.02331357 0.02289676 0.02246487 0.02202688 0.02158352 0.02115052 0.02072836
 0.02032888 0.01995018 0.01958957 0.01924583 0.01891277 0.01859346 0.01829142 0.0180084 0.01774991 0.01751165
 0.01729112 0.01708613 0.01689288 0.01671642 0.01655902 0.01642072 0.0163043 0.0161972 0.01609786 0.01599357
 0.01588169 0.01576302 0.0156371 0.01551509 0.01539749 0.01529325 0.01520186 0.01512264 0.01505486 0.01499403
 0.01494191 0.01490088 0.01487361 0.01486791 0.01488164 0.01491639 0.01496594 0.0150245 0.01508917 0.01515575
 0.01522556 0.01529854 0.01537459 0.01545347 0.01553607 0.01562164 0.01571719 0.01582361 0.01594552 0.01608376
 0.01622988 0.01638323 0.01652825 0.01666484 0.01678473 0.01688976 0.01698369 0.01706892 0.01715454 0.01724159
 0.01733704 0.01743919 0.01754943 0.0176634 0.01777803 0.01788813 0.01798931 0.01807873 0.01815316 0.01821529
 0.01826471 0.01830687 0.01834318 0.01837492 0.01840254 0.01842499 0.01844194 0.01846028 0.01848051 0.01851475
 0.01856261 0.01862636 0.01870372 0.01878462 0.01886846 0.01894742 0.01902408 0.01910024 0.0191775 0.01925956
 0.01934508 0.01943383 0.01952536 0.01961856 0.0197159 0.01981848 0.01992721 0.02004419 0.02016173 0.02027979
 0.02038471 0.02047446 0.02054238 0.02058746 0.02061502 0.02062527 0.02062257 0.02060623 0.02057089 0.02051702
 0.02044261 0.02035182 0.0202561 0.02015878 0.02007305 0.01999756 0.01993558 0.01988614 0.01984821 0.01982496
 0.01981878 0.01982984 0.01986082 0.01990294 0.01995502 0.02000548 0.02005129 0.02008771 0.02011318 0.02013092
 0.02014095 0.02014844 0.02015367 0.02016123 0.02017173 0.02019288 0.02022498 0.02027512 0.02034 0.0204141
 0.02049247 0.02055951 0.02061956 0.02066835 0.02072212 0.02079573 0.02089991 0.02105078 0.02123764 0.0214628
 0.02170261 0.02195052 0.02218804 0.02240937 0.022609 0.02278433 0.0229439 0.02308752 0.02323606 0.02339067
 0.0235746 0.02378784 0.02404089 0.02433055 0.0246473 0.02498721 0.02533157 0.02568235 0.02603312 0.02639095
 0.02676613 0.02715571 0.02756545 0.02797564 0.02837432 0.02874792 0.02908221 0.02939057 0.02967195 0.02995022
 0.03023109 0.0305254 0.03083601 0.03116251 0.03150547 0.03185681 0.03221587 0.03256332 0.03289859 0.03320742
 0.03349285 0.03376317 0.03402077 0.03427937 0.03453474 0.0347838 0.03502423 0.03524714 0.03546391 0.03567881
 0.03591388 0.03618358 0.03650985 0.03690711 0.03738611 0.03795656 0.03860687 0.03933936 0.04012376 0.04095691
 0.0418111 0.0426835 0.04356137 0.04444427 0.04533542 0.04623723 0.04717361 0.04814897 0.04919967 0.05032505
 0.05154512 0.05285 0.05423108 0.05567292 0.05715305 0.05864964 0.06013869 0.06158583 0.0629687 0.06423493
 0.06536468 0.06628238 0.06696346 0.06733885 0.06737856 0.06710639 0.06650753 0.06573701 0.06480305 0.0638882
 0.06300109 0.0622344 0.0615851 0.06105667 0.06064138 0.06030484 0.06003775 0.05979275 0.05956481 0.05931675
 0.05905717 0.0587822 0.05850306 0.05823449 0.05796966 0.05771074 0.05744206 0.05715426 0.05684578 0.05651181
 0.05616452 0.05580486 0.05544761 0.05509439 0.05476055 0.05444783 0.05416136 0.05390126 0.05365673 0.05342704
 0.05320151 0.05297932 0.05275265 0.05251756 0.0522547 0.05196664 0.05164332 0.05130489 0.05097791 0.05067641
 0.05043171 0.05022879 0.0500676 0.04992995 0.04980334 0.04969028 0.04959084 0.04950065 0.04942154 0.04933216
 0.04922734 0.04911371 0.04899094 0.04887541 0.04876763 0.04865383 0.04853189 0.04837104 0.04817474 0.04794152
 0.0476847 0.0474463 0.04723832 0.04711255 0.047061 0.0471032 0.0472016 0.04732668 0.04744026 0.04749684
 0.04750464 0.04744814 0.04737294 0.047292 0.04723492 0.04721275 0.04722896 0.0472859 0.04738093 0.04751528
 0.04766648 0.04783307 0.04796208 0.04805119 0.04805562 0.04797862 0.04781288 0.04756601 0.04725436 0.04689428
 0.04652286 0.04616981 0.04590038 0.04572371 0.04568878 0.04574789 0.04588686 0.04604698 0.04618674 0.04630265
 0.04637713 0.04645216 0.04653228 0.04666312 0.04685488 0.04711463 0.04744731 0.04779521 0.04815542 0.04846912
 0.04874003 0.04899499 0.04924155 0.0495428 0.04988668 0.05026846 0.05066646 0.05102473 0.05134152 0.05158496
 0.0517731 0.05190969 0.05202283 0.05213143 0.05226556 0.05245093 0.05268298 0.05297603 0.05327246 0.05356313
 0.05379456 0.05395291 0.05404424 0.05406618 0.05405542 0.0540138 0.05396397 0.05390612 0.05384986 0.05379332
 0.05373257 0.05366319 0.05356514 0.05344195 0.05328899 0.05311835 0.05295087 0.05278458 0.05262702 0.05246849
 0.05229641 0.05212991 0.0519727 0.05185154 0.05178473 0.05175138 0.05175449 0.05174682 0.05171941 0.05165794
 0.05155901 0.05143597 0.05128939 0.05113032 0.05095986 0.05079362 0.05063436 0.05050631 0.05041096 0.050368
 0.05037351 0.0504342 0.05053035 0.05064126 0.05072936 0.05074243 0.05066432 0.05045347 0.05014959 0.04975753
 0.04933046 0.04889212 0.0484586 0.04803719 0.04763702 0.04725795 0.04692753 0.04664978 0.04642324 0.04624795
 0.04607574 0.0459048 0.04569881 0.04546079 0.04519079 0.04489106 0.0445676 0.04422436 0.04386977 0.0435158
 0.04318553 0.04288704 0.0426415 0.04244192 0.0422944 0.04217537 0.04208063 0.04196713 0.04181851 0.04160536
 0.04130751 0.04096765 0.0405831 0.04024463 0.03996272 0.03976774 0.03966188</values></Ydata></AB><ScSm><Ydata ylabel="Single channel"><values byteorder="INTEL" format="FLOAT32" numvalues="1814"> 0.07060981 0.0706289 0.07071292 0.07087743 0.07109089 0.07129356 0.07143848 0.0715197 0.0715543 0.07154594
 0.07149649 0.07145217 0.07149346 0.07165559 0.07187912 0.07205211 0.07210152 0.07205924 0.07204354 0.07214178
 0.07228769 0.07228372 0.07198611 0.07146999 0.07097928 0.07070236 0.07065522 0.07082586 0.07129562 0.07201414
 0.07254467 0.07237835 0.07157773 0.07080398 0.07058267 0.07079978 0.07101059 0.07094638 0.07059919 0.07013404
 0.06993556 0.07049261 0.07191766 0.07356673 0.07427651 0.07309062 0.06993535 0.0658484 0.06261037 0.06179132
 0.06363566 0.06673308 0.069079 0.06967786 0.06902321 0.06808797 0.06728543 0.06658512 0.06616895 0.06646519
 0.06754641 0.06872995 0.06892146 0.06753762 0.06520221 0.06332135 0.06280952 0.06350602 0.06490819 0.06672032
 0.06809536 0.06720581 0.06303989 0.05767029 0.05532638 0.05837198 0.06478436 0.07014617 0.07158048 0.06933531
 0.06547277 0.06216208 0.06089532 0.06208562 0.06496005 0.06820701 0.07078564 0.07198635 0.07125735 0.0686768
 0.06541391 0.06315584 0.06307006 0.06535651 0.06920886 0.07287303 0.07444032 0.07326527 0.07039954 0.06747255
 0.0656129 0.06545572 0.067301 0.07078867 0.07488748 0.07850721 0.08094844 0.0819475 0.08171247 0.08079534
 0.07967668 0.0786991 0.0783723 0.07905166 0.0801198 0.08022739 0.07876945 0.07669185 0.07551131 0.07574439
 0.07649852 0.07655917 0.07561842 0.07405651 0.07172734 0.06796573 0.06309443 0.05880116 0.05644844 0.05604666
 0.05726816 0.05997334 0.06302095 0.06419373 0.06262019 0.06032136 0.06019348 0.06292433 0.06664848 0.06924623
 0.07030536 0.07097796 0.07248441 0.07485457 0.07675922 0.07650371 0.0737086 0.07026049 0.06898003 0.07085687
 0.07410581 0.07637279 0.07721946 0.07786378 0.07904836 0.07988895 0.0787882 0.07532388 0.07128721 0.06959245
 0.07174237 0.07632222 0.08001935 0.08007592 0.07614937 0.07040346 0.06581836 0.06412294 0.06531433 0.06878108
 0.07397927 0.07985853 0.08459096 0.08659074 0.08567463 0.08296724 0.07962348 0.07576348 0.07108331 0.06662442
 0.06498537 0.06785269 0.07383285 0.07961593 0.08293195 0.0836798 0.08262664 0.07999264 0.07566728 0.07057665
 0.06713585 0.06737404 0.07049602 0.07333485 0.07367488 0.0722703 0.07120653 0.07128163 0.07171604 0.07177572
 0.07180935 0.07265642 0.07446238 0.07636753 0.07735325 0.07717393 0.07639121 0.07570869 0.07533361 0.07483543
 0.07375278 0.07251953 0.07241066 0.07414984 0.07691559 0.0791862 0.08026328 0.08051978 0.08039066 0.07961141
 0.07761467 0.07461682 0.07205145 0.07150564 0.07318467 0.07578875 0.07786494 0.07884909 0.07891507 0.07844341
 0.0777669 0.07706589 0.07642594 0.07607405 0.0763223 0.07712609 0.07798102 0.07842849 0.07843187 0.07815751
 0.07765227 0.0768967 0.07602891 0.07535936 0.07515313 0.07542975 0.07598832 0.07658616 0.07703056 0.07716051
 0.07690734 0.0763976 0.07586459 0.07543544 0.07510827 0.0749141 0.0749466 0.0752037 0.07552224 0.07572298
 0.07575262 0.07565427 0.07546736 0.07520454 0.0748909 0.07458649 0.07437481 0.07431807 0.07439245 0.07448894
 0.07452532 0.0745281 0.0745496 0.0745503 0.07444371 0.07423005 0.07401049 0.07387906 0.07384895 0.07387073
 0.07387435 0.07378471 0.07353552 0.07312715 0.07269087 0.07243806 0.07249101 0.07278875 0.07317656 0.07352756
 0.07376067 0.07383694 0.07379408 0.07372092 0.07365537 0.07355055 0.07336298 0.07314146 0.07301277 0.07307889
 0.07331888 0.07359907 0.07379204 0.07386582 0.07386063 0.07383569 0.07384922 0.07392204 0.07399702 0.07398868
 0.07389022 0.07378976 0.0737727 0.07383543 0.07389715 0.07388611 0.07381769 0.07378059 0.07383797 0.07396313
 0.07408636 0.07417728 0.07425858 0.07435323 0.0744352 0.07444017 0.0743381 0.07418631 0.07407974 0.07405197
 0.07406469 0.07408995 0.07415086 0.07426621 0.07439674 0.07447643 0.0744856 0.07446908 0.07447593 0.07449655
 0.07447764 0.07439242 0.07427356 0.07417779 0.07413784 0.07414792 0.07417637 0.07418717 0.07416065 0.07410017
 0.07402155 0.07393818 0.07385497 0.07377639 0.07372274 0.07372767 0.07379979 0.07388706 0.07390377 0.07380778
 0.07364364 0.07349947 0.07342285 0.07338473 0.07332383 0.07321392 0.07308096 0.0729657 0.07288753 0.07284072
 0.07280706 0.07277109 0.07273996 0.07275119 0.07283981 0.07298613 0.07311306 0.07315481 0.07312088 0.07307813
 0.07308017 0.0731308 0.07320426 0.07327808 0.07335186 0.07344719 0.07357989 0.07372618 0.07383858 0.07390377
 0.07396071 0.0740554 0.07420436 0.07440025 0.07461518 0.07479554 0.07489679 0.07493823 0.07499342 0.07511324
 0.07528105 0.07544988 0.07559882 0.0757404 0.07589237 0.07606342 0.07626185 0.07650028 0.0767836 0.07709419
 0.07739308 0.0776418 0.07783426 0.07801151 0.07823647 0.07854314 0.07890798 0.07927113 0.07958607 0.07985273
 0.08010641 0.08037633 0.08066221 0.08095668 0.08127476 0.08163869 0.08203943 0.08243904 0.08281226 0.08316603
 0.0835181 0.08387446 0.0842327 0.08459663 0.08498188 0.08540213 0.08584394 0.08626137 0.08661203 0.08689947
 0.08717087 0.08747664 0.08783729 0.08823141 0.08860199 0.08889618 0.089123 0.08935575 0.08965135 0.08998352
 0.09028602 0.09054836 0.09082974 0.09117673 0.09156232 0.09192078 0.09222203 0.09249306 0.09277332 0.09306309
 0.0933206 0.09350879 0.09363966 0.09376496 0.0939258 0.09412722 0.09436582 0.09465548 0.09500206 0.09536844
 0.09569422 0.09594668 0.09613405 0.09627919 0.09640278 0.09652282 0.09664756 0.09677227 0.09689397 0.09701499
 0.09712583 0.09721102 0.09728669 0.09740341 0.09759282 0.09783724 0.0981091 0.09840922 0.0987393 0.09906614
 0.09935544 0.09962918 0.09994315 0.1002981 0.1006131 0.1008078 0.1008842 0.1009 0.1008939 0.1008731
 0.1008539 0.1008626 0.1008904 0.1008804 0.1007675 0.1005159 0.1001229 0.09960699 0.09900295 0.09835991
 0.09774137 0.09722444 0.0968922 0.0968179 0.09704441 0.09756052 0.09828644 0.09909154 0.09984156 0.100433
 0.1007942 0.100886 0.1007242 0.1003834 0.09994014 0.09940153 0.09870487 0.09778717 0.09663956 0.09529325
 0.09377834 0.09211798 0.09035885 0.08859217 0.08693603 0.08549645 0.08434665 0.08353931 0.08311789 0.08308973
 0.08338055 0.08383238 0.08425721 0.08448911 0.08439866 0.0839034 0.08300148 0.08178613 0.08040135 0.07897773
 0.07760516 0.07633808 0.07520394 0.07422475 0.0734604 0.07303124 0.07308196 0.07371438 0.07494171 0.07667734
 0.07874878 0.08093958 0.08305593 0.08498517 0.08670719 0.08825769 0.08968289 0.09102216 0.09231006 0.09356831
 0.09479244 0.09596314 0.09707467 0.0981373 0.09914862 0.1000738 0.1008535 0.1014234 0.1017334 0.1017698
 0.1015638 0.1011812 0.1007067 0.1002204 0.09974906 0.09922449 0.09851134 0.09750273 0.09619905 0.0947167
 0.09326088 0.0921042 0.0915588 0.09191113 0.09332471 0.09576079 0.09897478 0.1026001 0.1062637 0.1096662
 0.1126192 0.1150638 0.1170621 0.1187417 0.1202227 0.1215813 0.1228562 0.1240616 0.1251936 0.1262409
 0.1272026 0.1280946 0.1289399 0.1297503 0.1305177 0.1312263 0.1318743 0.132484 0.1330895 0.133712
 0.1343429 0.1349541 0.1355317 0.1360918 0.136651 0.1371922 0.137685 0.1381317 0.1385705 0.1390361
 0.1395359 0.1400567 0.1405707 0.1410411 0.141447 0.1418041 0.1421487 0.1425036 0.1428663 0.143225
 0.1435748 0.1439181 0.1442577 0.1445942 0.1449297 0.145265 0.1455917 0.1458943 0.1461653 0.1464157
 0.1466633 0.1469158 0.1471676 0.1474104 0.1476476 0.1479003 0.1481955 0.1485387 0.1489007 0.1492383
 0.14953 0.1497893 0.1500466 0.150323 0.1506198 0.1509275 0.1512347 0.1515326 0.1518166 0.1520886
 0.1523553 0.1526198 0.1528794 0.1531303 0.1533719 0.1536061 0.1538349 0.1540602 0.1542849 0.1545153
 0.15476 0.155022 0.1552894 0.155542 0.1557717 0.1559913 0.1562218 0.1564739 0.1567444 0.1570268
 0.1573183 0.157618 0.1579221 0.1582254 0.1585263 0.1588274 0.1591306 0.1594333 0.159732 0.1600272
 0.1603233 0.1606228 0.1609218 0.1612129 0.161493 0.1617656 0.1620351 0.1623024 0.1625691 0.1628401
 0.1631185 0.1634018 0.1636881 0.1639794 0.1642765 0.1645741 0.1648629 0.1651371 0.165397 0.1656493
 0.1659024 0.1661619 0.1664258 0.1666882 0.1669433 0.16719 0.1674328 0.1676788 0.1679353 0.1682061
 0.1684876 0.1687686 0.1690385 0.1692962 0.1695496 0.1698069 0.170073 0.1703485 0.1706281 0.1709014
 0.1711591 0.1713994 0.1716298 0.1718633 0.1721087 0.1723623 0.1726138 0.1728591 0.1731029 0.1733503
 0.1736035 0.1738629 0.1741244 0.1743807 0.1746282 0.1748703 0.1751139 0.1753645 0.1756217 0.175879
 0.1761334 0.1763926 0.1766657 0.1769473 0.1772241 0.1774905 0.1777495 0.1780025 0.1782469 0.1784815
 0.1787116 0.1789472 0.1791944 0.1794502 0.1797093 0.1799707 0.1802322 0.1804903 0.1807498 0.1810226
 0.1813111 0.1816027 0.1818839 0.1821519 0.1824128 0.1826777 0.1829537 0.1832357 0.183516 0.1837951
 0.1840764 0.1843571 0.1846345 0.1849096 0.1851801 0.1854432 0.185705 0.1859749 0.1862541 0.1865379
 0.1868203 0.1870928 0.1873532 0.1876124 0.1878811 0.1881573 0.1884355 0.1887148 0.1889917 0.1892605
 0.1895223 0.1897798 0.1900327 0.1902846 0.1905428 0.1908085 0.1910817 0.1913648 0.19165 0.1919207
 0.1921743 0.1924243 0.1926782 0.1929354 0.1931984 0.1934649 0.1937248 0.1939763 0.1942245 0.1944585
 0.1946328 0.1946237 0.1941238 0.1925311 0.1889361 0.1822927 0.1718249 0.1575124 0.1402748 0.1216522
 0.1032337 0.08623736 0.07138515 0.05899491 0.04913355 0.04171639 0.03657426 0.03356386 0.03267661 0.03414577
 0.0385692 0.04655948 0.05739845 0.06783515 0.07334454 0.07169955 0.06510203 0.0581784 0.05413757 0.05321737
 0.0540549 0.05547844 0.05710998 0.05915465 0.06197599 0.06568511 0.07011684 0.0752636 0.08148842 0.08905604
 0.0975714 0.1061446 0.1141544 0.1217316 0.1294532 0.137639 0.1460066 0.1539412 0.1609831 0.1670555
 0.1723642 0.1771776 0.1816791 0.1859508 0.1900282 0.193902 0.1974348 0.2003242 0.2022441 0.2030916
 0.203109 0.2027503 0.2024146 0.2022909 0.202402 0.2027168 0.2032009 0.2038198 0.2045451 0.2053559
 0.2062254 0.2071217 0.20802 0.208904 0.2097593 0.2105719 0.211328 0.2120151 0.2126302 0.2131857
 0.2136976 0.2141736 0.2146144 0.2150211 0.215399 0.2157617 0.2161237 0.2164844 0.2168259 0.2171319
 0.2174004 0.2176393 0.21786 0.2180745 0.2182909 0.2185097 0.2187304 0.2189552 0.2191834 0.2194112
 0.2196364 0.2198597 0.2200805 0.2202977 0.2205096 0.2207127 0.220907 0.2211024 0.2213113 0.2215332
 0.2217569 0.2219735 0.22218 0.2223751 0.2225596 0.2227407 0.222929 0.2231319 0.2233481 0.2235687
 0.2237871 0.2240067 0.2242336 0.2244641 0.2246895 0.2249101 0.2251341 0.2253668 0.2256089 0.2258569
 0.2260965 0.2263077 0.226484 0.2266425 0.2268113 0.2270105 0.2272381 0.2274738 0.2276989 0.2279123
 0.2281228 0.2283326 0.2285342 0.2287192 0.2288903 0.2290724 0.2292973 0.2295656 0.2298405 0.2300893
 0.2303124 0.2305253 0.2307401 0.2309653 0.2311951 0.231398 0.2315476 0.2316664 0.2318244 0.2320849
 0.2324464 0.2328348 0.2331661 0.2334184 0.2336316 0.233856 0.23412 0.2344058 0.2346231 0.2346703
 0.2345856 0.2345768 0.2348296 0.2353255 0.2358911 0.2363788 0.2367544 0.2370548 0.2373141 0.2375253
 0.2376487 0.2376597 0.2376123 0.2376532 0.2379232 0.2384134 0.2389587 0.2394054 0.2397301 0.239977
 0.2401747 0.240342 0.2404559 0.2403909 0.2400511 0.2396292 0.2395645 0.2401182 0.2410754 0.241971
 0.2425489 0.2428969 0.2431893 0.2434714 0.2437047 0.2437997 0.2435109 0.2425832 0.2412488 0.2403549
 0.2406585 0.2420648 0.2437814 0.2451094 0.2458795 0.2462723 0.2465128 0.2467222 0.2468262 0.2465643
 0.2457821 0.2448123 0.2443865 0.2449571 0.2461882 0.2473177 0.2479354 0.2481942 0.2483974 0.2486595
 0.2488322 0.2484649 0.2470586 0.244804 0.2429564 0.2429575 0.2450255 0.2478897 0.2500491 0.251067
 0.2514534 0.2515574 0.2510617 0.2495623 0.2471633 0.2444224 0.2422094 0.2416212 0.2432473 0.2462302
 0.2487509 0.2498331 0.2501653 0.2509262 0.252367 0.253808 0.2545366 0.2543627 0.2534973 0.2521631
 0.2504888 0.2488836 0.2482587 0.2493806 0.2519423 0.2546731 0.2565166 0.2574365 0.257857 0.2574164
 0.2547225 0.2490301 0.2423234 0.2387552 0.2409742 0.247353 0.2537358 0.2575215 0.2590804 0.2597985
 0.2602306 0.2599465 0.2577617 0.2523711 0.2443839 0.2376273 0.2365658 0.2418793 0.2496904 0.2551924
 0.2559522 0.2521805 0.2458352 0.2400118 0.2376844 0.2399055 0.2453545 0.2516413 0.2567425 0.2595342
 0.2597612 0.2579317 0.2552763 0.2534423 0.2533071 0.2536782 0.2521906 0.248297 0.2441894 0.2415709
 0.2389912 0.234503 0.2299372 0.2296807 0.2349827 0.2418815 0.2456674 0.2456433 0.2442542 0.2426065
 0.2385474 0.2297383 0.2180223 0.2094635 0.208976 0.215166 0.2215353 0.2227599 0.218831 0.2132109
 0.208329 0.203448 0.1963206 0.1865572 0.1771921 0.1722305 0.1724958 0.174941 0.1761999 0.1751821
 0.1718909 0.1664317 0.1609988 0.1605172 0.1683528 0.1820404 0.1951675 0.2025794 0.2021635 0.1936819
 0.1796332 0.1668909 0.1633434 0.1708145 0.1828852 0.1908498 0.1906294 0.1834202 0.1719713 0.1587725
 0.1473476 0.1424989 0.1473625 0.1602901 0.1749749 0.1835686 0.1809654 0.1687818 0.1557784 0.151537
 0.157705 0.1668703 0.1709151 0.1684177 0.1633967 0.1601027 0.1605739 0.1644336 0.1692946 0.1729434
 0.1750964 0.1749278 0.1686678 0.1541736 0.137063 0.127066 0.1279145 0.1353567 0.1449597 0.1560962
 0.1669618 0.1718257 0.1674972 0.1594354 0.1571615 0.1641548 0.1748416 0.1814046 0.1815274 0.1788545
 0.1773076 0.1768525 0.1755113 0.1739963 0.1758316 0.1825205 0.1909217 0.1967484 0.1990086 0.1996074
 0.2000845 0.2004387 0.2002358 0.1993268 0.1977857 0.1960077 0.1945849 0.1936645 0.1928301 0.191749
 0.1901712 0.1869732 0.180388 0.1705043 0.1608941 0.155827 0.1557574 0.1575319 0.1590333 0.1604443
 0.1599896 0.1527146 0.1370714 0.1202987 0.113167 0.1195985 0.1337696 0.1467377 0.1532978 0.1524197
 0.1445145 0.131563 0.1193443 0.1157169 0.1241942 0.1405082 0.1571333 0.1697635 0.1778383 0.1809607
 0.1781199 0.1703517 0.1618753 0.1577313 0.1606865 0.1699485 0.1814234 0.1887684 0.186447 0.1752114
 0.1646942 0.1663696 0.1814746 0.1989456 0.2078438 0.2084945 0.2081901 0.2098466 0.2104618 0.2090266
 0.2097973 0.2163493 0.2262191 0.233292 0.233157 0.2248268 0.210058 0.1936595 0.182366 0.1797385
 0.1826176 0.1850482 0.184345 0.1806354 0.173181 0.1622825 0.1535438 0.1543677 0.1652424 0.1786174
 0.1874223 0.1914766 0.1944824 0.1975313 0.1977392 0.1926847 0.1846039 0.1790639 0.1794727 0.1840642
 0.1887689 0.1914152 0.1917847 0.1892751 0.1832768 0.175872 0.1718156 0.1744764 0.1824433 0.1909055
 0.1959679 0.1970758 0.1959294 0.1942675 0.1927169 0.19086 0.1882845 0.1860378 0.1864705 0.1906436
 0.1964611 0.2007154 0.2026919 0.2044154 0.2074501 0.2107967 0.2122707 0.2110877 0.2087084 0.2075619
 0.2090921 0.2126205 0.2158193 0.2165966 0.2150211 0.2134502 0.2143924 0.2181415 0.2227739 0.2263154
 0.2283442 0.2295721 0.2306676 0.2316833 0.232029 0.2309294 0.228519 0.2264714 0.2267988 0.2298305
 0.2338702 0.2369136 0.2382467 0.2383445 0.2377977 0.2367295 0.2350911 0.2331614 0.2315558 0.2307623
 0.2307975 0.2313378 0.2320432 0.232697 0.2331882 0.2335091 0.2337322 0.2339219 0.2340892 0.23423
 0.2343348 0.2343408 0.2341587 0.233792 0.2333698 0.2330119 0.2327059 0.2323595 0.2319203 0.2313698
 0.230642 0.229647 0.2283767 0.226903 0.225258 0.2234146 0.2214726 0.2198251 0.2190223 0.219378
 0.2206925 0.2223738 0.2238241 0.2247306 0.2250855 0.2250494 0.224826 0.2245896 0.2244429 0.2244074
 0.2244526 0.2245395 0.2246435 0.2247501 0.2248503 0.2249492 0.2250672 0.2252149 0.2253685 0.2254763
 0.2254897 0.2253842 0.2251616 0.2248386 0.2244318 0.2239402 0.2233361 0.2225777 0.2216434 0.2205622
 0.219409 0.2182588 0.2171398 0.2160275 0.2148786 0.2136607 0.2123355 0.2108416 0.2091447 0.2073208
 0.205539 0.2039264 0.202472 0.2010786 0.1996714 0.1982361 0.196794 0.1953821 0.1940474 0.1928327
 0.1917606 0.190828 0.1900082 0.1892582 0.1885289 0.1877723 0.1869483 0.1860383 0.1850626 0.1840764
 0.1831278 0.1821942 0.1811498 0.1797944 0.1779142 0.1753307 0.1719452 0.1677918 0.1630599 0.1580535
 0.1531065 0.1485024 0.1444215 0.1409343 0.1380389 0.135708 0.1339145 0.1326351 0.1318505 0.1315481
 0.1317258 0.1323893 0.1335294 0.1350956 0.1369945 0.1391041 0.141283 0.1433924 0.1453476 0.147159
 0.1489059 0.1506567 0.1524113 0.1541145 0.1557125 0.1571789 0.158491 0.1596135 0.1605271 0.1612567
 0.1618535 0.1623626 0.1628135 0.1632243 0.163603 0.1639578 0.1643098 0.1646872 0.165112 0.1655964
 0.166145 0.1667581 0.1674403 0.1682064 0.1690725 0.1700427 0.171104 0.1722329 0.1734075 0.1746156
 0.1758461 0.1770825 0.1783271 0.1796239 0.1810318 0.1825773 0.1842498 0.1860319 0.1879102 0.1898568
 0.1918118 0.1936894 0.1954041 0.1968972 0.1981424 0.1991412 0.1999294 0.2005722 0.2011299 0.201629
 0.202069 0.2024405 0.2027303 0.2029257 0.2030181 0.2029962 0.2028514 0.2026034 0.2023056 0.2020093
 0.2017347 0.2014824 0.2012542 0.2010561 0.2008873 0.2007279 0.2005448 0.2003216 0.2000729 0.1998161
 0.1995392 0.199208 0.1987886 0.1982539 0.1975904 0.1968098 0.1959379 0.1949862 0.1939464 0.1928088
 0.1915739 0.1902468 0.1888297 0.1873218 0.1857268 0.1840524 0.1822913 0.1804176 0.1784303 0.176394
 0.1744102 0.1725498 0.1708261 0.1692167 0.1676921 0.1662329 0.1648369 0.1635065 0.1622358 0.1610216
 0.1598781 0.1588227 0.1578529 0.15695 0.1561037 0.1553236 0.1546216 0.1539902 0.1534074 0.152867
 0.1523877 0.1519873 0.1516705 0.1514502 0.1513456 0.1513406 0.1513683 0.1513553 0.1512716 0.151134
 0.1509808 0.1508456 0.1507427 0.1506727 0.1506298 0.1505876 0.1504804 0.1502149 0.1496999 0.1488716
 0.1477138 0.1462673 0.1446152 0.1428618 0.1411238 0.1395151 0.1381186 0.1369772 0.136102 0.1354622
 0.1349793 0.1345682 0.1342002 0.1339213 0.1338058 0.1338691 0.1340088 0.1340649 0.1339742 0.1338386
 0.133825 0.1340304 0.1344427 0.1349694 0.135483 0.1358843 0.1361425 0.1362713 0.1362938 0.1362351
 0.1361098 0.1359035 0.1355998 0.1352175 0.1347947 0.1343493 0.1338707 0.1333304 0.1327045 0.1319999
 0.131238 0.1304028 0.1294428 0.1283187 0.127009 0.1255104 0.1239081 0.1224141 0.1212656 0.1205875
 0.1203466 0.1203891 0.1205346 0.1206866 0.1208103 0.1207988 0.1205302 0.1201826 0.1203379 0.121548
 0.1237781 0.1263778 0.1286039 0.1301024 0.1309077 0.1311558 0.1309292 0.1302756 0.1291978 0.1276511
 0.1256499 0.1233181 0.1207918 0.1181852 0.1156587 0.113382 0.1114424 0.1098707 0.1086863 0.1079376
 0.1077312 0.1077064 0.1061552 0.1009162 0.09269468 0.08654808 0.08765112 0.09548254 0.1041694 0.1086905
 0.1088926 0.1074504 0.1062143 0.1054463 0.1050196 0.1050504 0.105681 0.1068211 0.1081285 0.1092159
 0.1099089 0.1102298 0.1101367 0.1093215 0.1071637 0.1029346 0.09638864 0.088297 0.08018622 0.07344453
 0.06870916 0.06588934 0.06444889 0.06370872 0.06319083 0.06284981 0.06297383 0.06384771 0.06551141 0.06780824
 0.07055406 0.07353859 0.07642456 0.07886106 0.08074358 0.08221104 0.0833704 0.08417263 0.08455518 0.08455392
 0.0842566 0.08374717 0.08310685 0.08240004 0.08162791 0.08072773 0.07968505 0.07866485 0.07793982 0.07762625
 0.07757589 0.07757817 0.07756097 0.07755108 0.07756333 0.07758619 0.07760569 0.07763419 0.07774535 0.07802245
 0.07844144 0.07887322 0.07921319 0.07945068 0.07962538 0.07974108 0.0796925 0.07933609 0.07872795 0.07816572
 0.07781342 0.07741947 0.07664768 0.07559407 0.07474025 0.07443982 0.07462442 0.0749698 0.07519348 0.07520285
 0.07510398 0.07513355 0.07548134 0.07605965</values></Ydata></ScSm><ScRf><Ydata ylabel="Single channel"><values byteorder="INTEL" format="FLOAT32" numvalues="1820"> 0.0604536 0.06060351 0.06069745 0.06073689 0.06074306 0.06075557 0.06082053 0.06096144 0.0611563 0.06134601
 0.0614766 0.0615388 0.06155661 0.06154278 0.06149703 0.06145254 0.06147999 0.06161771 0.061817 0.06197555
 0.06202373 0.0619859 0.06196275 0.06203019 0.06213602 0.06211628 0.06184876 0.06139515 0.06096379 0.06072
 0.06068247 0.06084358 0.06127232 0.0619193 0.06239659 0.06225423 0.06154559 0.06085338 0.06064434 0.06082202
 0.0609962 0.06093201 0.0606258 0.06022155 0.06004746 0.06052245 0.06174649 0.06316863 0.06378407 0.06275994
 0.0600252 0.05647537 0.05365502 0.05292971 0.05451789 0.05720274 0.05924688 0.05978173 0.05923019 0.0584358
 0.05775662 0.05716044 0.05679866 0.05704439 0.05796891 0.05898592 0.05914551 0.05793916 0.05590817 0.0542739
 0.05382802 0.054426 0.05562969 0.05719005 0.05838389 0.0576271 0.05402818 0.04937095 0.0473262 0.04996012
 0.05552995 0.06019955 0.06145772 0.05950955 0.05615058 0.05327833 0.05219251 0.05323988 0.05573542 0.05853887
 0.06075568 0.06178126 0.06114545 0.05891781 0.05610414 0.05415608 0.05408275 0.0560629 0.05940141 0.06257661
 0.06393297 0.06291211 0.06042542 0.05788364 0.0562657 0.05612574 0.05772742 0.06076068 0.06433256 0.06749646
 0.06963846 0.07051775 0.07030924 0.06950197 0.06852988 0.06769423 0.06742355 0.06801227 0.06892604 0.06900617
 0.06773596 0.06593451 0.06491284 0.06511904 0.06578279 0.06585036 0.06504668 0.06369404 0.06166627 0.05839161
 0.05415318 0.05041692 0.04836901 0.04802414 0.04910238 0.05148432 0.05417553 0.05523876 0.05390004 0.05190281
 0.05176595 0.05410418 0.05731542 0.05956485 0.0604882 0.06107736 0.06238954 0.06445381 0.06611811 0.06590763
 0.06348827 0.06050105 0.05940476 0.06106264 0.06391674 0.06591444 0.06667753 0.06727204 0.06834395 0.06911836
 0.06820436 0.06524228 0.06179609 0.0603916 0.06231704 0.06633349 0.0695674 0.06962784 0.06621632 0.06121794
 0.05723718 0.05578929 0.05687866 0.05998209 0.06463313 0.06991035 0.0742002 0.07609372 0.07540855 0.07312016
 0.07024969 0.0669133 0.06284441 0.05896612 0.05759647 0.06025437 0.0657119 0.07101689 0.07413166 0.07495216
 0.07415027 0.07190438 0.06810208 0.06359155 0.06059242 0.06097022 0.06399804 0.06677071 0.06724845 0.06611229
 0.06527421 0.06547663 0.06601258 0.06621243 0.06640597 0.06737641 0.06925528 0.07123233 0.07234611 0.07235578
 0.07178319 0.07129997 0.07111526 0.07082311 0.06998321 0.06901618 0.06914353 0.07104369 0.0739093 0.07627403
 0.0774772 0.07789554 0.07796098 0.07741205 0.0756758 0.07294562 0.07062757 0.07029808 0.07217445 0.07497443
 0.0772496 0.0784321 0.07869783 0.07843286 0.0779704 0.07749018 0.07708025 0.0769643 0.07743877 0.07844284
 0.07947107 0.08007915 0.08024359 0.08012792 0.07976571 0.07913591 0.07839659 0.0778809 0.0778542 0.07831493
 0.07904509 0.07980635 0.08041811 0.08071226 0.08059436 0.08018256 0.07974131 0.07944117 0.07929425 0.07931156
 0.07955927 0.08001769 0.08051427 0.08086574 0.08102381 0.08104769 0.08099266 0.08086996 0.08068974 0.08051258
 0.08044741 0.08057009 0.08082905 0.0810819 0.0812628 0.08144934 0.08170442 0.08192728 0.0819588 0.08179343
 0.08159408 0.08151306 0.08156815 0.08168319 0.08177555 0.0817754 0.08161577 0.08128852 0.08092567 0.08075403
 0.08091886 0.08138278 0.08199918 0.08261183 0.08307998 0.08331791 0.0833612 0.08332705 0.08328032 0.08318978
 0.08302456 0.08284554 0.08278641 0.08295271 0.08332776 0.08377685 0.08415271 0.08438564 0.08448695 0.08452781
 0.08461551 0.08480553 0.08501542 0.08510031 0.08503503 0.08495373 0.08498713 0.08511487 0.08520484 0.08517173
 0.08507256 0.08504518 0.08516423 0.08537588 0.08557615 0.08572807 0.0858834 0.08609415 0.08631547 0.08641924
 0.08632915 0.08612356 0.08595837 0.08590174 0.08590677 0.08593787 0.08603698 0.08623317 0.0864546 0.08658884
 0.08661011 0.08660088 0.08664336 0.08672025 0.08674053 0.08664677 0.08647481 0.08631581 0.08624251 0.08626829
 0.08635043 0.08642051 0.08642532 0.08635623 0.08624513 0.08613178 0.08603844 0.08598213 0.08600205 0.08614268
 0.0863836 0.08660213 0.08664764 0.08647609 0.08620137 0.08599604 0.08593651 0.08594876 0.08590081 0.0857325
 0.08549009 0.08525746 0.08508118 0.08495717 0.08486004 0.08477382 0.08471288 0.08472253 0.08483435 0.08499905
 0.08508636 0.08499113 0.08473855 0.08445954 0.08427052 0.0841985 0.08420035 0.08421619 0.08421706 0.08422907
 0.08429434 0.08439177 0.0844344 0.08437066 0.08425197 0.08418064 0.08422597 0.08439456 0.08462581 0.08480369
 0.08483195 0.0847276 0.08460699 0.08456768 0.0846137 0.08469696 0.08478718 0.08488149 0.08497803 0.08507311
 0.08518104 0.08533491 0.08555567 0.08582197 0.08607399 0.08625379 0.08635354 0.08643147 0.08657339 0.08682516
 0.08715591 0.08748569 0.08775046 0.08794635 0.088117 0.0883007 0.08849879 0.08870207 0.08892892 0.08920828
 0.08953148 0.08985332 0.09014381 0.09041394 0.09068789 0.09097297 0.09126417 0.0915677 0.0919106 0.09231545
 0.0927534 0.09313665 0.09338729 0.09351641 0.09362146 0.09380896 0.09412146 0.0945088 0.09485306 0.09505776
 0.09514583 0.09524477 0.09544684 0.09571563 0.09596485 0.09619569 0.09649918 0.09692627 0.09740341 0.0977959
 0.09803616 0.09817629 0.09832075 0.09851544 0.09871127 0.09883996 0.09890783 0.09898704 0.0991232 0.09929909
 0.09950191 0.09977157 0.1001401 0.1005578 0.100928 0.1012012 0.1013971 0.101553 0.1016848 0.1017878
 0.1018488 0.1018682 0.1018832 0.1019441 0.1020511 0.1021452 0.1021851 0.1022011 0.1022562 0.1023829
 0.1025829 0.1028529 0.1031727 0.1034897 0.1037631 0.1040234 0.1043396 0.1047117 0.1050369 0.1052173
 0.1052668 0.1052741 0.1052902 0.105313 0.1053622 0.1054994 0.1057562 0.1060919 0.1064428 0.1067831
 0.1071229 0.1074673 0.1077894 0.1080365 0.1081624 0.1081687 0.1081197 0.1081107 0.1082143 0.108444
 0.1087545 0.1090761 0.1093528 0.1095534 0.1096542 0.109645 0.1095697 0.1095331 0.1096214 0.1098071
 0.1099588 0.1099532 0.1097558 0.1093963 0.1089035 0.1082958 0.1076178 0.1069524 0.1063871 0.1059756
 0.1057398 0.1057044 0.1059085 0.1063633 0.1070015 0.1076987 0.1083455 0.1088718 0.1091991 0.1092273
 0.1089095 0.108316 0.1075913 0.1068593 0.1061817 0.1055685 0.1049942 0.1044315 0.1039186 0.1035943
 0.1036402 0.1041773 0.1052037 0.1065935 0.1081324 0.1095882 0.1108062 0.1117664 0.1125512 0.1132548
 0.1139269 0.1145877 0.1152563 0.1159329 0.1165747 0.1171277 0.1175879 0.1180013 0.118405 0.1187925
 0.1191349 0.1194151 0.119643 0.1198517 0.1200657 0.1202567 0.1203558 0.1203282 0.1202178 0.1200966
 0.1199877 0.1198493 0.1196177 0.1192595 0.1188118 0.1183999 0.1182119 0.1184199 0.1190873 0.1201308
 0.1213806 0.1226857 0.1239546 0.1251087 0.1260535 0.1267325 0.1271829 0.1275049 0.1277857 0.1280678
 0.1283655 0.1286778 0.1289916 0.1292907 0.1295701 0.1298427 0.1301344 0.1304605 0.1307996 0.1311044
 0.131352 0.1315773 0.1318448 0.132186 0.1325677 0.1329287 0.1332473 0.133559 0.1338944 0.1342211
 0.1344768 0.1346516 0.1348053 0.1350073 0.1352884 0.1356388 0.1360141 0.1363477 0.1365925 0.1367629
 0.1369168 0.1370994 0.1373208 0.1375743 0.1378502 0.138127 0.1383805 0.1386135 0.1388628 0.1391552
 0.139463 0.1397232 0.1399047 0.14004 0.140188 0.1403773 0.1405925 0.1408027 0.1409988 0.1412081
 0.1414688 0.1417817 0.1420946 0.1423466 0.1425225 0.1426562 0.1427921 0.1429539 0.1431441 0.1433535
 0.1435669 0.1437707 0.1439632 0.1441575 0.1443697 0.1446006 0.1448331 0.1450491 0.1452472 0.1454411
 0.145644 0.1458581 0.1460809 0.1463188 0.1465834 0.1468691 0.1471408 0.1473601 0.1475225 0.1476583
 0.1477994 0.1479565 0.1481266 0.1483063 0.1484946 0.1486898 0.1488897 0.1490927 0.1492984 0.1495053
 0.1497107 0.1499134 0.1501166 0.1503241 0.1505376 0.1507582 0.1509866 0.1512169 0.1514376 0.1516435
 0.1518432 0.1520488 0.1522624 0.1524723 0.1526632 0.1528311 0.1529903 0.1531608 0.1533498 0.1535496
 0.1537511 0.1539522 0.1541535 0.1543535 0.1545501 0.1547424 0.1549319 0.1551237 0.1553234 0.155531
 0.1557377 0.1559317 0.1561099 0.1562839 0.1564695 0.1566708 0.1568772 0.1570772 0.1572685 0.157455
 0.1576422 0.1578353 0.158037 0.1582427 0.1584422 0.1586302 0.1588143 0.1590071 0.1592113 0.1594175
 0.1596184 0.1598184 0.1600247 0.1602363 0.160449 0.1606635 0.1608823 0.1611041 0.1613233 0.161535
 0.1617395 0.1619441 0.1621575 0.1623814 0.1626114 0.1628434 0.1630727 0.163293 0.1635002 0.1636943
 0.1638747 0.164041 0.1641993 0.1643601 0.1645293 0.1647065 0.1648873 0.165067 0.1652448 0.1654257
 0.1656148 0.1658114 0.1660132 0.1662205 0.1664324 0.1666458 0.1668571 0.1670607 0.1672529 0.1674395
 0.1676323 0.1678344 0.1680387 0.1682406 0.1684448 0.1686582 0.168881 0.1691034 0.169313 0.1695104
 0.1697093 0.1699172 0.1701275 0.1703346 0.1705406 0.1707464 0.1709511 0.1711585 0.171371 0.1715833
 0.1717907 0.1719948 0.1721961 0.1723959 0.1726004 0.1728132 0.1730299 0.1732468 0.1734638 0.1736793
 0.1738932 0.1741088 0.1743238 0.1745323 0.1747388 0.1749517 0.1751655 0.1753708 0.1755728 0.1757811
 0.1759956 0.176213 0.1764281 0.1766196 0.1767393 0.176678 0.176171 0.1746858 0.1713901 0.1653094
 0.1557223 0.1426198 0.126862 0.1098631 0.0930642 0.07756004 0.06400129 0.05268387 0.04368358 0.03693385
 0.03227606 0.02955882 0.02875132 0.03006046 0.03404718 0.0412899 0.05114122 0.06063637 0.06565306 0.06416614
 0.05817841 0.05189142 0.04821592 0.04736824 0.04811752 0.04940612 0.05089131 0.05275767 0.05533415 0.05871689
 0.06274889 0.06742345 0.07307944 0.07996517 0.08772129 0.09553235 0.1028242 0.1097089 0.116713 0.1241372
 0.1317336 0.138947 0.1453608 0.1509036 0.155754 0.1601444 0.1642348 0.1681012 0.1717846 0.1752882
 0.1784928 0.1811182 0.182859 0.1836198 0.1836275 0.1833003 0.1829982 0.1828858 0.1829807 0.1832573
 0.1836878 0.1842425 0.1848978 0.1856379 0.1864393 0.1872689 0.1880981 0.188906 0.1896751 0.1903948
 0.1910656 0.1916893 0.192265 0.1927907 0.1932635 0.1936825 0.1940567 0.1944042 0.1947405 0.1950741
 0.1954077 0.1957356 0.1960458 0.1963313 0.196595 0.1968409 0.19707 0.1972833 0.1974836 0.1976764
 0.1978709 0.1980744 0.1982852 0.1984962 0.1987061 0.1989168 0.1991272 0.199335 0.1995404 0.1997423
 0.1999376 0.2001257 0.2003084 0.2004878 0.200668 0.2008553 0.2010505 0.2012466 0.2014375 0.2016253
 0.2018182 0.2020238 0.2022422 0.2024619 0.2026716 0.2028736 0.2030783 0.2032885 0.2034984 0.2037049
 0.2039082 0.2041083 0.2043092 0.2045176 0.2047282 0.204921 0.2050841 0.2052328 0.2053978 0.2055966
 0.2058177 0.2060354 0.2062386 0.2064381 0.2066457 0.2068548 0.2070468 0.2072111 0.2073611 0.2075332
 0.2077576 0.2080235 0.2082888 0.2085309 0.2087637 0.209004 0.2092519 0.2095023 0.2097449 0.2099515
 0.2100981 0.2102075 0.21035 0.2105917 0.2109352 0.2113109 0.2116375 0.2118928 0.2121151 0.2123491
 0.2126132 0.2128848 0.2130871 0.2131397 0.2130827 0.2131014 0.2133611 0.2138428 0.214385 0.2148471
 0.215197 0.2154767 0.2157318 0.2159651 0.2161337 0.2161976 0.2161935 0.2162553 0.2165174 0.2169757
 0.2174817 0.2178981 0.2182071 0.2184496 0.2186481 0.2188141 0.2189234 0.2188605 0.2185391 0.2181406
 0.2180746 0.2185831 0.2194636 0.2202843 0.2208126 0.2211347 0.2214123 0.2216818 0.2218998 0.2219821
 0.2217138 0.2208749 0.2196819 0.2189022 0.2192198 0.220544 0.2221478 0.2233912 0.2241218 0.2245077
 0.2247553 0.2249741 0.2250945 0.2248761 0.2241744 0.223293 0.2229083 0.2234472 0.2246084 0.2256841
 0.2262802 0.226528 0.2267143 0.2269651 0.2271605 0.2268835 0.225653 0.2236233 0.2219457 0.2219554
 0.2238617 0.2265013 0.2284985 0.2294518 0.2298264 0.2299393 0.2294917 0.228103 0.2258698 0.2233233
 0.2212835 0.2207624 0.2222891 0.2250582 0.2273889 0.2283868 0.2286947 0.2294023 0.2307378 0.2320689
 0.2327373 0.2325729 0.2317775 0.2305573 0.2290272 0.2275653 0.2270142 0.2280734 0.2304473 0.232963
 0.2346582 0.2355068 0.2358992 0.235504 0.2330443 0.2278353 0.2216995 0.2184538 0.2205323 0.2264359
 0.2323426 0.2358631 0.2373389 0.2380414 0.2384786 0.2382596 0.2363 0.2313927 0.2240885 0.2179164
 0.2170045 0.2219851 0.229278 0.2344479 0.2352515 0.2318771 0.2261204 0.2208366 0.2187783 0.2209291
 0.2260793 0.2320208 0.2368745 0.2395969 0.239955 0.2384137 0.2361021 0.2345524 0.2345969 0.2351354
 0.2339624 0.2305628 0.2269739 0.2247764 0.2226162 0.2186892 0.2147314 0.2148676 0.2202679 0.2271997
 0.2312299 0.2317135 0.2309632 0.230007 0.2267829 0.2190847 0.2087521 0.2017165 0.2028154 0.2107734
 0.2193536 0.2234735 0.2232337 0.2220464 0.2220889 0.2220993 0.219161 0.2125257 0.2055174 0.202719
 0.2050593 0.2089647 0.2105559 0.2087196 0.2036807 0.1957562 0.1876308 0.1851303 0.1922736 0.2063168
 0.2199274 0.2272247 0.2258674 0.2156656 0.1994522 0.1848961 0.1807604 0.1890126 0.2024207 0.2112255
 0.2108599 0.2026845 0.1898409 0.1751824 0.1626584 0.1575969 0.163476 0.1784558 0.1954735 0.2056939
 0.2033328 0.1902022 0.1762378 0.1723209 0.1802852 0.1916297 0.1970732 0.1950053 0.1900432 0.187108
 0.1886251 0.1941836 0.2009485 0.2063005 0.2099115 0.2106835 0.2038853 0.186826 0.1663547 0.1543709
 0.1554651 0.1644898 0.1760754 0.1894849 0.2025322 0.2082297 0.2026752 0.1924983 0.1892709 0.1972191
 0.2095823 0.2168947 0.2163664 0.2124243 0.2098441 0.2086431 0.2064626 0.2040965 0.2056823 0.2130186
 0.2224483 0.2289379 0.2312961 0.2317493 0.2321396 0.2325211 0.2324227 0.2316759 0.2303428 0.2288395
 0.2278072 0.2273823 0.2270705 0.2265028 0.225392 0.2223545 0.2152092 0.2040387 0.1931568 0.1876992
 0.1881713 0.1907694 0.1930254 0.195243 0.1952283 0.1868246 0.1680517 0.1477662 0.1392249 0.1472805
 0.1647635 0.1806341 0.188443 0.1868852 0.1764719 0.1596864 0.1436217 0.1378102 0.1464704 0.1644419
 0.1826724 0.1960234 0.2039434 0.2061667 0.2016625 0.1916603 0.1809572 0.1752076 0.1774325 0.1866409
 0.1982132 0.205171 0.2015583 0.1882993 0.1758489 0.1765578 0.1917556 0.2096021 0.2183956 0.2184575
 0.2175516 0.2188223 0.2191405 0.2174548 0.2182615 0.2253713 0.2362708 0.2445939 0.2457155 0.2385838
 0.2251675 0.2109679 0.203596 0.2066309 0.2154907 0.2223761 0.2238108 0.2201873 0.2111549 0.1975806
 0.1864775 0.1867829 0.1989957 0.2139988 0.2234142 0.2272287 0.2300048 0.2330384 0.2328136 0.2263674
 0.2162759 0.2090828 0.2088245 0.2134805 0.2183648 0.2210672 0.2214654 0.2189068 0.2126286 0.2049462
 0.2012587 0.205327 0.215352 0.2256478 0.2317127 0.2330163 0.2316279 0.2295487 0.2273917 0.2245605
 0.2205648 0.2167331 0.2159711 0.2196674 0.2254943 0.2298008 0.2318014 0.2338551 0.2377575 0.2422711
 0.244636 0.2435797 0.2405157 0.2382957 0.2389161 0.2419398 0.2448296 0.2451157 0.2427456 0.2403518
 0.2408269 0.2445643 0.2494042 0.2530966 0.255137 0.2562957 0.2572948 0.2581795 0.2582914 0.2567678
 0.25376 0.2511447 0.2511915 0.2543061 0.2586442 0.262022 0.2636828 0.2641585 0.2640593 0.2634395
 0.2621612 0.2604766 0.2590459 0.2584198 0.2586432 0.2593753 0.2602434 0.261017 0.2615975 0.2619899
 0.2622544 0.262432 0.2625387 0.2626197 0.2627213 0.2628037 0.2627819 0.2626823 0.2626669 0.2628457
 0.2631319 0.2633378 0.263347 0.2631204 0.2625946 0.2616987 0.2604725 0.2590574 0.2575287 0.2558462
 0.2540824 0.2526588 0.2522099 0.2531066 0.2551132 0.2575372 0.2596987 0.2612625 0.262225 0.2627297
 0.2629412 0.2630017 0.2630006 0.2629542 0.2628344 0.2626207 0.2623226 0.2619659 0.2615788 0.2611948
 0.2608516 0.2605711 0.2603344 0.2600838 0.2597562 0.2593232 0.2588072 0.2582614 0.257723 0.2571731
 0.2565484 0.2557987 0.254931 0.2540002 0.2530759 0.2522137 0.251429 0.2506849 0.249924 0.2491104
 0.2482213 0.2472174 0.24608 0.2448888 0.2438058 0.2429463 0.2422818 0.2416829 0.2410262 0.2402502
 0.2393478 0.238349 0.2373024 0.2362416 0.2351646 0.2340474 0.2328679 0.2316123 0.2302733 0.2288531
 0.2273595 0.2258011 0.2241948 0.2225637 0.2209013 0.2191365 0.217149 0.2148154 0.2120314 0.2087102
 0.2048024 0.2003451 0.1954942 0.1904903 0.185573 0.1809132 0.1766154 0.1727591 0.1694224 0.1666794
 0.1645918 0.1632 0.1625164 0.1625346 0.1632455 0.1646306 0.1666336 0.1691425 0.1719964 0.1750078
 0.1779934 0.1808067 0.1833693 0.1856906 0.1878436 0.1898927 0.1918357 0.1936248 0.1952285 0.1966469
 0.1978807 0.1989214 0.199774 0.200468 0.2010399 0.2015159 0.2019095 0.2022319 0.202502 0.2027426
 0.2029666 0.2031735 0.2033624 0.2035427 0.2037333 0.2039544 0.2042201 0.2045379 0.2049163 0.2053652
 0.2058815 0.2064431 0.2070246 0.2076129 0.2082128 0.2088489 0.2095625 0.2103961 0.2113772 0.2125123
 0.2137831 0.215141 0.2165144 0.2178278 0.2190122 0.2200084 0.2207761 0.2213028 0.2216017 0.2217009
 0.2216353 0.2214398 0.221143 0.2207641 0.2203131 0.2197973 0.2192278 0.2186165 0.2179672 0.2172759
 0.2165464 0.215804 0.2150864 0.2144207 0.2138036 0.21321 0.2126194 0.2120305 0.2114477 0.2108666
 0.2102798 0.2096891 0.209105 0.2085366 0.207979 0.2074054 0.2067727 0.2060456 0.2052179 0.2043029
 0.2033065 0.2022179 0.2010286 0.1997462 0.1983851 0.1969494 0.1954353 0.1938474 0.1922019 0.1905054
 0.188734 0.1868503 0.1848529 0.1828081 0.1808228 0.1789802 0.1773002 0.1757475 0.1742697 0.1728362
 0.1714516 0.1701334 0.1688858 0.1677055 0.1665978 0.1655691 0.1646097 0.1637029 0.1628461 0.1620517
 0.1613323 0.160689 0.160114 0.1596026 0.1591607 0.158797 0.1585201 0.1583488 0.1583028 0.1583643
 0.1584667 0.1585353 0.1585283 0.158445 0.1583161 0.1581824 0.1580637 0.1579548 0.1578494 0.1577375
 0.1575697 0.1572531 0.1566922 0.1558257 0.1546374 0.1531579 0.1514573 0.1496375 0.1478241 0.146143
 0.1446872 0.1435111 0.1426328 0.1420107 0.1415438 0.1411447 0.1408136 0.140624 0.1406459 0.1408652
 0.1411481 0.1413168 0.1413133 0.1412693 0.1413878 0.1417825 0.1424294 0.1432089 0.1439807 0.144653
 0.1451922 0.1455808 0.1458158 0.1459354 0.1459855 0.1459666 0.1458617 0.1456806 0.1454412 0.1451475
 0.1447984 0.1443783 0.1438561 0.1432318 0.1425467 0.1418235 0.1410451 0.1401874 0.1392132 0.1380802
 0.1368456 0.135727 0.1349943 0.13482 0.1352149 0.1360327 0.1370579 0.1381416 0.139189 0.1400039
 0.1403503 0.140318 0.1404887 0.1415223 0.1435398 0.1459879 0.1481251 0.1495605 0.150295 0.1504231
 0.1499931 0.1490605 0.1476522 0.1457145 0.1432426 0.140374 0.1372799 0.1341094 0.1310614 0.128332
 0.1260065 0.1241061 0.1226406 0.1216442 0.1212322 0.1210358 0.1191737 0.1132161 0.1039361 0.09700216
 0.0982025 0.1069266 0.1165922 0.121593 0.1217517 0.1200376 0.1185256 0.1175559 0.1170391 0.1171119
 0.117878 0.1191692 0.1205944 0.1217676 0.1225325 0.1229237 0.1228918 0.1220678 0.1197046 0.1149475
 0.1075292 0.09835187 0.0891749 0.0815983 0.07634106 0.07325628 0.07169668 0.0708973 0.07035013 0.07003295
 0.07027277 0.0713592 0.0733089 0.07596438 0.0791578 0.08264992 0.08602016 0.08884631 0.0910175 0.09272058
 0.09411217 0.09514093 0.09569018 0.09575248 0.09542628 0.09483357 0.09408513 0.09326138 0.09235939 0.09129389
 0.09004909 0.08883035 0.08794996 0.08753006 0.08741713 0.08739699 0.08737679 0.08735262 0.08732805 0.08729781
 0.0872549 0.08722572 0.08731127 0.08761908 0.08812212 0.08864616 0.08901604 0.08918382 0.08921982 0.0891766
 0.08895779 0.08841453 0.08762971 0.08693317 0.08647384 0.08594684 0.08497951 0.08368601 0.08261079 0.08216459
 0.08228685 0.08261802 0.08282706 0.08277581 0.0825556 0.08245263 0.08273451 0.08332903 0.08379836 0.08376312
</values></Ydata></ScRf><Data_Parameters_AB><parameter name="DPF">1</parameter><parameter name="NPT">3497</parameter><parameter name="FXV">3996</parameter><parameter name="LXV">500</parameter><parameter name="CSF">1</parameter><parameter name="MXY">0.151943236589432</parameter><parameter name="MNY">-0.067809633910656</parameter><parameter name="DAT">27/05/2022</parameter><parameter name="TIM">11:37:21.677 (GMT+2)</parameter><parameter name="DXU">WN</parameter></Data_Parameters_AB><AB__Qtest><MainReport name="Quality Test Report"><Header><Line><Legend>Test result ok/not ok [1/0]: </Legend><Value>0</Value></Line><Line><Legend>Method file: </Legend><Value>C:\Users\Public\Documents\Bruker\OPUS_8.2.28\QT\IRBT_v3_default.QT</Value></Line></Header><Matrix><Line><Legend></Legend><Legend>min</Legend><Legend>max</Legend><Legend>measured</Legend></Line><Line><Value>Absorption (X-Range 1):</Value><Value>0.400000</Value><Value>2.000000</Value><Value>0.127055</Value></Line><Line><Value>Noise (X-Range 4):</Value><Value></Value><Value>0.000300</Value><Value>0.000062</Value></Line><Line><Value>Signal/Noise (X-Range 2):</Value><Value>200.000000</Value><Value></Value><Value>30.918565</Value></Line><Line><Value>Signal/Noise (X-Range 3):</Value><Value>40.000000</Value><Value></Value><Value>37.667219</Value></Line><Line><Value>Water vapour (X-Range 5):</Value><Value></Value><Value>0.000300</Value><Value>0.000076</Value></Line><Line><Value>Signal/Water (X-Range 2):</Value><Value>100.000000</Value><Value></Value><Value>25.416631</Value></Line><Line><Value>Signal/Water (X-Range 3):</Value><Value>20.000000</Value><Value></Value><Value>30.964367</Value></Line><Line><Value>Fringes (X-Range 6):</Value><Value></Value><Value>0.000100</Value><Value>0.000068</Value></Line></Matrix></MainReport></AB__Qtest><Data_Parameters_ScSm><parameter name="DPF">1</parameter><parameter name="NPT">1814</parameter><parameter name="FXV">3996.33169228125</parameter><parameter name="LXV">499.541461535156</parameter><parameter name="CSF">1</parameter><parameter name="MXY">0.260230630636215</parameter><parameter name="MNY">0.0326766073703766</parameter><parameter name="DAT">27/05/2022</parameter><parameter name="TIM">11:37:21.677 (GMT+2)</parameter><parameter name="DXU">WN</parameter></Data_Parameters_ScSm><Data_Parameters_ScRf><parameter name="DPF">1</parameter><parameter name="NPT">1820</parameter><parameter name="FXV">4004.04661832813</parameter><parameter name="LXV">495.683998511719</parameter><parameter name="CSF">1</parameter><parameter name="MXY">0.264158487319946</parameter><parameter name="MNY">0.0287513248622417</parameter><parameter name="DAT">27/05/2022</parameter><parameter name="TIM">11:36:55.828 (GMT+2)</parameter><parameter name="DXU">WN</parameter></Data_Parameters_ScRf><Optic_Parameters_Rf><parameter name="APR">0</parameter><parameter name="APT">Open</parameter><parameter name="BMS">KBr</parameter><parameter name="DTC">RT-DLaTGS_IR-Biotyper [Microplate reader]</parameter><parameter name="HPF">0</parameter><parameter name="LPF">10.0</parameter><parameter name="LPV">4000</parameter><parameter name="PGR">0</parameter><parameter name="RCH">Module port</parameter><parameter name="RDX">0</parameter><parameter name="SRC">MIR</parameter><parameter name="VEL">10.0</parameter><parameter name="SON">Off</parameter></Optic_Parameters_Rf><Acquisition_Parameters_Rf><parameter name="ADT">1</parameter><parameter name="AQM">DD</parameter><parameter name="CFE">0</parameter><parameter name="COR">0</parameter><parameter name="DEL">0</parameter><parameter name="DLY">0</parameter><parameter name="HFW">8000</parameter><parameter name="LFW">0</parameter><parameter name="NSR">32</parameter><parameter name="PLF">AB</parameter><parameter name="RES">6</parameter><parameter name="RGN">-1</parameter><parameter name="STR">0</parameter><parameter name="TCL">MakeCompatibleScalar (0, {WSV=1.000000, ARV=0});</parameter><parameter name="TDL">37</parameter><parameter name="RPO">0</parameter></Acquisition_Parameters_Rf><FT_-_Parameters_Rf><parameter name="APF">B3</parameter><parameter name="HFQ">500</parameter><parameter name="LFQ">4000</parameter><parameter name="NLI">0</parameter><parameter name="PHR">24</parameter><parameter name="PHZ">ML</parameter><parameter name="SPZ">NO</parameter><parameter name="ZFF">1</parameter></FT_-_Parameters_Rf><Optic_Parameters_><parameter name="APR">0</parameter><parameter name="APT">Open</parameter><parameter name="BMS">KBr</parameter><parameter name="CHN">Module port</parameter><parameter name="DTC">RT-DLaTGS_IR-Biotyper [Microplate reader]</parameter><parameter name="HPF">0</parameter><parameter name="LPF">10.0</parameter><parameter name="LPV">4000</parameter><parameter name="PGN">0</parameter><parameter name="RDX">0</parameter><parameter name="SRC">MIR</parameter><parameter name="VEL">10.0</parameter><parameter name="SON">Off</parameter></Optic_Parameters_><FT_-_Parameters_><parameter name="APF">B3</parameter><parameter name="HFQ">500</parameter><parameter name="LFQ">4000</parameter><parameter name="NLI">0</parameter><parameter name="PHR">24</parameter><parameter name="PHZ">ML</parameter><parameter name="SPZ">NO</parameter><parameter name="ZFF">1</parameter></FT_-_Parameters_><Acquisition_Parameters_><parameter name="ADT">1</parameter><parameter name="AQM">DD</parameter><parameter name="CFE">0</parameter><parameter name="COR">0</parameter><parameter name="DEL">0</parameter><parameter name="DLY">0</parameter><parameter name="HFW">8000</parameter><parameter name="LFW">0</parameter><parameter name="NSS">32</parameter><parameter name="PLF">AB</parameter><parameter name="RES">6</parameter><parameter name="SOT">0</parameter><parameter name="TCL">MakeCompatibleScalar (0, {WSV=1.000000, ARV=0});</parameter><parameter name="TDL">37</parameter><parameter name="SPO">0</parameter><parameter name="SGN">-1</parameter></Acquisition_Parameters_><Instrument_Parameters_Rf><parameter name="HFL">15800.168544</parameter><parameter name="LFL">0</parameter><parameter name="LWN">15800.168544</parameter><parameter name="ABP">32197</parameter><parameter name="SSP">1</parameter><parameter name="ARG">2</parameter><parameter name="ASG">2</parameter><parameter name="ASS">32</parameter><parameter name="GFW">16</parameter><parameter name="GBW">16</parameter><parameter name="BFW">0</parameter><parameter name="BBW">0</parameter><parameter name="PKA">7264</parameter><parameter name="PKL">4996</parameter><parameter name="PRA">7446</parameter><parameter name="PRL">5001</parameter><parameter name="P2A">1</parameter><parameter name="P2L">1</parameter><parameter name="P2R">1</parameter><parameter name="P2K">1</parameter><parameter name="DAQ">0</parameter><parameter name="AG2">1</parameter><parameter name="SSM">1</parameter><parameter name="RSN">24868</parameter><parameter name="CRR">0</parameter><parameter name="SRT">1653651415.828</parameter><parameter name="DUR">19.6349945068359</parameter><parameter name="TSC">27.8</parameter><parameter name="MVD">0.302998155355453</parameter><parameter name="AN1">0.225810349316316</parameter><parameter name="AN2">0</parameter><parameter name="VSN">2.485 Apr  4 2017</parameter><parameter name="SRN">0085</parameter><parameter name="CAM">0</parameter><parameter name="INS">IR-Biotyper</parameter><parameter name="FOC">69</parameter><parameter name="RDY">1</parameter><parameter name="ARS">32</parameter></Instrument_Parameters_Rf><Sample_Parameters_><parameter name="BLD"></parameter><parameter name="CNM">Admin</parameter><parameter name="CPY"></parameter><parameter name="DPM"></parameter><parameter name="EXP">IRBT_v3_32Scans.XPM</parameter><parameter name="LCT"></parameter><parameter name="SFM">Microplate, HTS-XT</parameter><parameter name="SNM">220527-1039(v.2)_GFG29M (D_4)_B5_424c703c-8010-4853-87cc-3ffdcac60d49.0</parameter><parameter name="XPP">C:\Users\Public\Documents\Bruker\OPUS_8.2.28\XPM</parameter><parameter name="IST">OK</parameter><parameter name="CPG">1252</parameter><parameter name="UID">6da4f3e3-2eaa-4719-a864-ba5012afd68c</parameter></Sample_Parameters_><Instrument_Parameters_><parameter name="HFL">15800.168544</parameter><parameter name="LFL">0</parameter><parameter name="LWN">15800.168544</parameter><parameter name="ABP">32197</parameter><parameter name="SSP">1</parameter><parameter name="ASG">2</parameter><parameter name="ARG">2</parameter><parameter name="ASS">32</parameter><parameter name="GFW">16</parameter><parameter name="GBW">16</parameter><parameter name="BFW">0</parameter><parameter name="BBW">0</parameter><parameter name="PKA">7124</parameter><parameter name="PKL">4988</parameter><parameter name="PRA">7444</parameter><parameter name="PRL">4993</parameter><parameter name="P2A">1</parameter><parameter name="P2L">1</parameter><parameter name="P2R">1</parameter><parameter name="P2K">1</parameter><parameter name="DAQ">0</parameter><parameter name="AG2">1</parameter><parameter name="SSM">1</parameter><parameter name="RSN">13060</parameter><parameter name="CRR">0</parameter><parameter name="SRT">1653651441.677</parameter><parameter name="DUR">19.635986328125</parameter><parameter name="TSC">27.8</parameter><parameter name="MVD">0.249180093407631</parameter><parameter name="AN1">0.225800524658901</parameter><parameter name="AN2">0</parameter><parameter name="VSN">2.485 Apr  4 2017</parameter><parameter name="SRN">0085</parameter><parameter name="CAM">0</parameter><parameter name="INS">IR-Biotyper</parameter><parameter name="FOC">69</parameter><parameter name="RDY">1</parameter></Instrument_Parameters_><History/></OPUSDataFile>
