<?xml version="1.0" encoding="UTF-8" ?>
<OPUSDataFile><AB><Ydata ylabel="Absorbance Units"><values byteorder="INTEL" format="FLOAT32" numvalues="3497"> -0.06643106 -0.06644327 -0.06646631 -0.06650211 -0.06652209 -0.06652481 -0.06649135 -0.06642337 -0.06633569 -0.06623324
 -0.06615371 -0.06609693 -0.06608511 -0.06610864 -0.06615663 -0.06621981 -0.06627592 -0.06632743 -0.06636717 -0.06640374
 -0.06644301 -0.06648615 -0.06653741 -0.06658823 -0.06663654 -0.06667549 -0.06670196 -0.06671838 -0.06672408 -0.06672685
 -0.0667274 -0.06673054 -0.06673654 -0.06674343 -0.06675102 -0.066756 -0.06675907 -0.06676252 -0.06676745 -0.0667797
 -0.06679826 -0.06682387 -0.06685464 -0.06688698 -0.06692201 -0.06695951 -0.06700111 -0.06705069 -0.06710015 -0.06714927
 -0.06718004 -0.06718496 -0.06715595 -0.06708556 -0.066994 -0.06688078 -0.0667835 -0.06670581 -0.06667282 -0.06668612
 -0.06674292 -0.06684142 -0.06695727 -0.06708761 -0.06720272 -0.06730204 -0.06736664 -0.06740043 -0.06740101 -0.06737762
 -0.06734236 -0.06730745 -0.0672927 -0.06730156 -0.06734823 -0.06741494 -0.06749963 -0.06757343 -0.06762329 -0.06763937
 -0.06761247 -0.06756461 -0.067496 -0.06743992 -0.06739953 -0.06739872 -0.06743902 -0.06753109 -0.06767397 -0.0678597
 -0.06808179 -0.0682995 -0.06850193 -0.06862309 -0.06866736 -0.0686037 -0.06846268 -0.06827985 -0.06808308 -0.06792245
 -0.06780042 -0.0677402 -0.06771989 -0.06773675 -0.06776085 -0.06777816 -0.06777973 -0.06775661 -0.06773053 -0.0677029
 -0.06769832 -0.06772079 -0.06776666 -0.06783605 -0.06790083 -0.06796032 -0.06799816 -0.068018 -0.06803412 -0.06805078
 -0.06809317 -0.06815849 -0.06825551 -0.0683724 -0.06849454 -0.06860916 -0.06869435 -0.06874697 -0.0687561 -0.06872644
 -0.06865451 -0.06855695 -0.06843337 -0.06832186 -0.06822935 -0.06819666 -0.0682333 -0.06835272 -0.06856097 -0.06881732
 -0.06912048 -0.06934307 -0.06948058 -0.06943229 -0.06921944 -0.0689306 -0.06858494 -0.06830499 -0.06808473 -0.06797018
 -0.06794883 -0.06802495 -0.06817438 -0.06837785 -0.06859456 -0.06878578 -0.0689233 -0.06897137 -0.06895432 -0.06886724
 -0.06876155 -0.06865224 -0.0685589 -0.06848893 -0.06843524 -0.06839711 -0.06837745 -0.06837629 -0.06840651 -0.06846759
 -0.0685546 -0.06866328 -0.06876305 -0.06885128 -0.06889921 -0.06891253 -0.06889078 -0.06884032 -0.06877273 -0.06868945
 -0.06859347 -0.06849479 -0.06839861 -0.06832513 -0.06828768 -0.06829703 -0.06836519 -0.06847533 -0.06863027 -0.06878818
 -0.06894305 -0.06906049 -0.06913494 -0.06916284 -0.06914353 -0.06908881 -0.06899916 -0.06888271 -0.06874011 -0.06857819
 -0.06840003 -0.06821974 -0.06804294 -0.0678909 -0.06776717 -0.06768981 -0.06765343 -0.06766227 -0.0676994 -0.06775392
 -0.0678076 -0.06784549 -0.06786322 -0.06785342 -0.06782622 -0.06778158 -0.06773493 -0.06768795 -0.06765804 -0.06764714
 -0.06766854 -0.06772341 -0.06780659 -0.06791629 -0.0680216 -0.06812004 -0.06817674 -0.0681968 -0.06817926 -0.06813541
 -0.06809513 -0.06806234 -0.06806014 -0.06808102 -0.06812592 -0.06818422 -0.0682454 -0.06830865 -0.0683671 -0.06843533
 -0.06851713 -0.06862576 -0.0687695 -0.0689347 -0.06912442 -0.06929584 -0.06944546 -0.06953326 -0.06955644 -0.06948999
 -0.06933426 -0.06909106 -0.06876913 -0.06842774 -0.06807863 -0.06780154 -0.06759789 -0.06751628 -0.06754119 -0.06767832
 -0.06788258 -0.06810407 -0.06829957 -0.06840376 -0.06843276 -0.06837157 -0.06826507 -0.06812898 -0.06799012 -0.06786072
 -0.06774387 -0.0676431 -0.06754839 -0.06745886 -0.06736827 -0.06727596 -0.067189 -0.06710823 -0.06704956 -0.06701316
 -0.06701054 -0.06703629 -0.06707838 -0.06712398 -0.06713001 -0.06709597 -0.06699335 -0.06684763 -0.06667963 -0.06650899
 -0.06636437 -0.06624074 -0.06614593 -0.06606139 -0.06598105 -0.06589278 -0.06578965 -0.06567836 -0.06555831 -0.06544189
 -0.06533179 -0.06522126 -0.06511061 -0.06496619 -0.06478707 -0.06455225 -0.06426895 -0.06397991 -0.06369217 -0.06346235
 -0.06328088 -0.06315102 -0.06306179 -0.06299356 -0.06294283 -0.06290051 -0.06285625 -0.06280255 -0.06271747 -0.06258361
 -0.06239552 -0.06214291 -0.06184368 -0.06150389 -0.0611209 -0.06069659 -0.06021562 -0.05967394 -0.05908988 -0.05846377
 -0.05783848 -0.05721615 -0.05663422 -0.05609375 -0.0556216 -0.05521526 -0.05488271 -0.0546127 -0.05438087 -0.05417436
 -0.05395656 -0.05372522 -0.05346536 -0.05317061 -0.0528365 -0.05243893 -0.05195599 -0.05139464 -0.05073996 -0.05005657
 -0.04936022 -0.0486945 -0.04807363 -0.04749527 -0.04696179 -0.04645565 -0.04597592 -0.045506 -0.04504547 -0.04458834
 -0.04413519 -0.04369039 -0.0432496 -0.04280145 -0.04233138 -0.04178979 -0.04117638 -0.04045375 -0.03966468 -0.03884861
 -0.03804193 -0.03729897 -0.03661229 -0.03599709 -0.03542424 -0.03488736 -0.0343546 -0.03381452 -0.03325322 -0.03266384
 -0.0320582 -0.03143714 -0.03080878 -0.03017427 -0.02951811 -0.02883974 -0.02812645 -0.02738163 -0.02662566 -0.02586253
 -0.02512162 -0.02440057 -0.02370769 -0.02303963 -0.02239357 -0.02176809 -0.0211617 -0.02056918 -0.01998604 -0.01940629
 -0.01882409 -0.01823934 -0.01765299 -0.01705618 -0.01645034 -0.01580864 -0.01512475 -0.01438877 -0.01359444 -0.01278555
 -0.01196407 -0.01118795 -0.0104585 -0.009789798 -0.00917757 -0.008596233 -0.008039716 -0.00746766 -0.006878715 -0.006244152
 -0.005575948 -0.00488048 -0.004176585 -0.003494832 -0.002838436 -0.002228011 -0.001638742 -0.001065375 -0.0004718965 0.0001624892
 0.000843375 0.001582702 0.002346874 0.00313271 0.003904838 0.004657447 0.005380116 0.006071102 0.006744147 0.007400138
 0.008057759 0.008717249 0.009388198 0.0100709 0.01077216 0.01149159 0.01223418 0.01299328 0.01376012 0.01452466
 0.01526803 0.01598954 0.01667999 0.01734773 0.01799562 0.01862959 0.01925275 0.01986904 0.02047971 0.02108957
 0.02170047 0.02231046 0.02291993 0.02352208 0.02411615 0.02470571 0.02529121 0.02588469 0.02648551 0.02709432
 0.02770833 0.02831422 0.02891255 0.0294957 0.03007131 0.03064993 0.03123985 0.03186008 0.03250489 0.03318113
 0.03386439 0.03454173 0.03519298 0.03580059 0.03637727 0.03691973 0.03745918 0.03800311 0.03856068 0.03913566
 0.03971302 0.04029181 0.04086404 0.04142962 0.04199239 0.04255185 0.0431053 0.04365136 0.04418134 0.04469647
 0.04519504 0.04568062 0.04615939 0.04663403 0.0471114 0.0475907 0.04807466 0.04855841 0.04903923 0.04951479
 0.04998187 0.05044604 0.05090892 0.05137219 0.05183804 0.05229583 0.05274386 0.05317982 0.05360256 0.05403439
 0.05447634 0.05494883 0.05544921 0.05596436 0.05648836 0.05698571 0.05745526 0.0578726 0.05824598 0.05857756
 0.0588822 0.05918138 0.05948523 0.05981511 0.06016223 0.06053025 0.06089867 0.06125722 0.06159966 0.06191893
 0.062229 0.06253106 0.06283944 0.06315656 0.06348722 0.06383219 0.06418949 0.06455879 0.06492954 0.06530085
 0.06565864 0.06600537 0.06634392 0.06667987 0.06703334 0.06740319 0.06779974 0.06821169 0.06862795 0.06903829
 0.06942736 0.06979419 0.07013279 0.07044769 0.07073911 0.07101252 0.07126921 0.07151519 0.07175215 0.07198217
 0.07220624 0.07241956 0.07262179 0.07280938 0.07298254 0.07315142 0.07331757 0.07350037 0.07369916 0.07392297
 0.074166 0.07441603 0.07466715 0.07489944 0.07511549 0.07530802 0.07548849 0.07566493 0.07584797 0.07604923
 0.07626729 0.07650797 0.07675336 0.07700082 0.07722803 0.07742821 0.07759787 0.07773351 0.07785708 0.07797006
 0.07808927 0.07821487 0.0783312 0.07843626 0.07850247 0.07853324 0.07852867 0.0784978 0.07846841 0.07844634
 0.07845879 0.07850222 0.07858565 0.07869649 0.07882708 0.07896268 0.0790884 0.07920435 0.07930146 0.07940504
 0.07952028 0.07967164 0.07987066 0.08009788 0.0803569 0.08058508 0.08077786 0.08088495 0.08090493 0.08084928
 0.08072366 0.08058786 0.08044469 0.08034196 0.08027265 0.08023942 0.08023633 0.08024929 0.08028337 0.08034142
 0.08042455 0.08054151 0.08067126 0.08080439 0.08091657 0.08098825 0.08102812 0.08102917 0.08102995 0.08103776
 0.0810792 0.08116172 0.08127428 0.08141789 0.08155572 0.08168587 0.08177221 0.08181499 0.0818007 0.0817349
 0.08163583 0.08151292 0.08140493 0.0813177 0.08128519 0.0813008 0.08137432 0.0814835 0.08161242 0.08173432
 0.0818227 0.08187225 0.08186651 0.08183643 0.0817845 0.08175544 0.08176071 0.08182114 0.08194312 0.08211792
 0.08234552 0.08261462 0.08292471 0.08327396 0.08366048 0.08406858 0.08448943 0.08487153 0.08520404 0.08542068
 0.08552802 0.08549763 0.08536695 0.08517224 0.08496348 0.08480988 0.08472798 0.08476388 0.08487217 0.08505267
 0.08522578 0.08536501 0.08541827 0.08536304 0.08521163 0.08495814 0.08466047 0.0843225 0.08399572 0.08368249
 0.08339804 0.08314141 0.08290747 0.08269642 0.08250738 0.08234084 0.08219969 0.0820804 0.08197942 0.08188659
 0.08178936 0.08166842 0.08150217 0.08126823 0.08094046 0.0805188 0.07998732 0.07938803 0.07872567 0.07806025
 0.07740648 0.07679965 0.07624846 0.07575669 0.07532606 0.07494606 0.07461597 0.07430807 0.07401944 0.07370692
 0.07337194 0.07299554 0.07258922 0.07218196 0.07178007 0.07141792 0.07107965 0.07075801 0.07043263 0.07007246
 0.06968644 0.06926384 0.06884173 0.06843495 0.06807309 0.06777398 0.06753183 0.06735396 0.0671986 0.06706394
 0.06689056 0.06667301 0.0663704 0.06598093 0.0655181 0.064987 0.06444892 0.06390807 0.0634217 0.06298394
 0.06260744 0.06228023 0.06198139 0.06170394 0.06142729 0.06115118 0.06086853 0.0605785 0.06027915 0.05996764
 0.05964058 0.05930234 0.05895153 0.05860236 0.05825787 0.05792794 0.0576159 0.05731473 0.05702459 0.05673082
 0.05643268 0.05612322 0.05580265 0.05547134 0.05512962 0.05477854 0.05441996 0.05405961 0.05370137 0.05335791
 0.05302892 0.0527226 0.05242826 0.05213903 0.05184137 0.0515212 0.05117707 0.05080117 0.0504087 0.05000161
 0.04959936 0.04920771 0.04883402 0.04848162 0.04814138 0.04781331 0.04748069 0.04714264 0.04678736 0.04641521
 0.04602605 0.04562198 0.045214 0.04480447 0.04440797 0.0440236 0.04365818 0.04330532 0.04295867 0.0426111
 0.04225013 0.04187889 0.04149132 0.0411067 0.04073031 0.04038819 0.04009277 0.03985072 0.03967219 0.03952114
 0.03939828 0.03923549 0.03902658 0.03872233 0.03832006 0.03783594 0.03727591 0.03671614 0.03616358 0.0357001
 0.03532071 0.03505858 0.03488963 0.03478073 0.0346983 0.03457215 0.03438853 0.03409502 0.03372306 0.0332715
 0.03279766 0.03233488 0.0319062 0.03153564 0.03119048 0.03086694 0.03053745 0.03019073 0.02986422 0.02955807
 0.02934109 0.02921693 0.02919577 0.02927106 0.02936346 0.02946258 0.02946383 0.02937164 0.02913918 0.0287921
 0.02836334 0.0278824 0.02741531 0.02696738 0.02657605 0.02621793 0.025886 0.0255631 0.02523077 0.02490895
 0.02459871 0.02432743 0.0241082 0.02392243 0.02377332 0.02360753 0.02341889 0.02318994 0.02291944 0.02265191
 0.02239023 0.02218575 0.02203424 0.02193848 0.0218886 0.02185014 0.02181916 0.02176778 0.0217005 0.02161314
 0.02150876 0.02139295 0.02125617 0.02109667 0.02089385 0.02063543 0.02031104 0.01990748 0.01945088 0.0189383
 0.01843066 0.01793575 0.01750831 0.01715694 0.01688069 0.01668004 0.01649294 0.0163154 0.01607645 0.0157801
 0.01540991 0.01498169 0.01454297 0.01410629 0.01372988 0.01340585 0.01315182 0.01294389 0.01276179 0.01258657
 0.01239419 0.01218346 0.01194458 0.01169137 0.01142468 0.01116522 0.01091865 0.0106972 0.01050687 0.01032912
 0.01016484 0.009967519 0.009734525 0.009437806 0.009079894 0.008690314 0.008275472 0.00789336 0.007539529 0.007232741
 0.006955573 0.006673152 0.006378027 0.006034958 0.005663434 0.005269076 0.004879633 0.00452253 0.00420368 0.003937165
 0.003708606 0.003514866 0.003347819 0.003203148 0.003086492 0.002998925 0.00294013 0.002911751 0.002891793 0.00287921
 0.002835943 0.002760215 0.002618136 0.002411688 0.002132922 0.001790972 0.001412229 0.001010435 0.0006318219 0.0002853393
 8.822511E-06 -0.0002010098 -0.0003306032 -0.0003942295 -0.0003970676 -0.0003568389 -0.0002839733 -0.0001921807 -8.867186E-05 1.829135E-05
 0.000125558 0.0002276133 0.0003225374 0.0004110487 0.0004917564 0.0005822416 0.000683273 0.0008304976 0.001025384 0.00129768
 0.001643919 0.002059201 0.002534712 0.003034594 0.003553675 0.004059007 0.004555532 0.005036042 0.005508833 0.005983001
 0.0064582 0.006938995 0.00741754 0.007889497 0.00835348 0.008805668 0.009256691 0.009709006 0.01016876 0.01064009
 0.01110543 0.0115649 0.01198441 0.01236191 0.01267646 0.01292844 0.01312238 0.0132591 0.01334719 0.01338377
 0.01336007 0.01327768 0.01312848 0.0129341 0.01272103 0.01252593 0.01240462 0.0123756 0.01248104 0.01269788
 0.01303008 0.0134345 0.0138937 0.01438594 0.01489916 0.01544074 0.01600936 0.0166194 0.01727251 0.01797529
 0.01872837 0.01952738 0.02037072 0.02123355 0.02211131 0.02296025 0.02377956 0.02453828 0.02524815 0.0259219
 0.02657354 0.02724312 0.02791106 0.02859176 0.02919731 0.02968262 0.02990598 0.02977826 0.02919531 0.02807376
 0.02645981 0.02431897 0.02187106 0.01913169 0.01638641 0.01366643 0.01117329 0.008922543 0.006963145 0.005291726
 0.00385027 0.002631238 0.001557243 0.0006254576 -0.0002141396 -0.0009641994 -0.001653855 -0.002291041 -0.002902325 -0.003494105
 -0.004087728 -0.004676155 -0.005264044 -0.005832319 -0.006371426 -0.0068672 -0.007310008 -0.007700525 -0.008035888 -0.008325463
 -0.008570178 -0.008779231 -0.00895399 -0.009097385 -0.009209849 -0.009282855 -0.009316104 -0.009301 -0.009241469 -0.009157424
 -0.009059046 -0.00899855 -0.008980356 -0.009047898 -0.009186656 -0.009395631 -0.009647126 -0.009908241 -0.01015425 -0.01035389
 -0.01049117 -0.01054889 -0.01051813 -0.01039174 -0.01016551 -0.009838085 -0.009401876 -0.008855025 -0.008192061 -0.007407136
 -0.006551212 -0.005624413 -0.00480138 -0.004096163 -0.003771574 -0.003832921 -0.004462292 -0.00561901 -0.007257074 -0.009292188
 -0.01148764 -0.01376968 -0.01588846 -0.01783551 -0.01948669 -0.02090076 -0.0220805 -0.02310014 -0.02400752 -0.0248395
 -0.02562617 -0.0263645 -0.02705957 -0.0277015 -0.02828777 -0.02882155 -0.02930222 -0.02974072 -0.03013763 -0.0305045
 -0.03084209 -0.03116384 -0.03147074 -0.03177696 -0.03208177 -0.03239138 -0.03270092 -0.03300176 -0.0332872 -0.03353948
 -0.03375909 -0.03393512 -0.03408326 -0.03420999 -0.03433935 -0.03448898 -0.03466889 -0.03489272 -0.03514016 -0.03541207
 -0.03567084 -0.03590893 -0.036106 -0.03625651 -0.03637676 -0.03646697 -0.03656171 -0.0366619 -0.03678362 -0.03692421
 -0.03707083 -0.03722199 -0.03736246 -0.03749797 -0.03763581 -0.0377827 -0.03795769 -0.03815532 -0.03837985 -0.0386144
 -0.03884526 -0.03906114 -0.03924862 -0.03941225 -0.03954912 -0.03967189 -0.03978305 -0.03989416 -0.04000737 -0.0401325
 -0.04027116 -0.04042744 -0.04060201 -0.04078642 -0.04097989 -0.0411664 -0.04134584 -0.04150939 -0.0416587 -0.04179632
 -0.04192313 -0.04204322 -0.04215554 -0.04225972 -0.04235534 -0.04244106 -0.04251862 -0.0425889 -0.04265403 -0.04271589
 -0.04277442 -0.04282987 -0.04288228 -0.04293021 -0.04298125 -0.04303519 -0.0431077 -0.04320074 -0.04332425 -0.04347954
 -0.04365551 -0.04385099 -0.0440402 -0.04422247 -0.04437991 -0.04451544 -0.0446315 -0.04473231 -0.04483147 -0.04492957
 -0.04503579 -0.04514454 -0.04525329 -0.04535406 -0.0454374 -0.0455026 -0.04554329 -0.04557229 -0.04559144 -0.04561946
 -0.04566272 -0.04573017 -0.04582591 -0.04594462 -0.04608672 -0.04624136 -0.04640782 -0.04657789 -0.04675115 -0.04692111
 -0.04708724 -0.04724223 -0.04738587 -0.0475123 -0.04762374 -0.04772244 -0.04781283 -0.04790474 -0.04800018 -0.04810767
 -0.04822202 -0.04834237 -0.04846102 -0.04857162 -0.04867379 -0.04876405 -0.0488511 -0.04893655 -0.04902838 -0.0491291
 -0.0492387 -0.04935799 -0.04948054 -0.04960605 -0.04972646 -0.04984137 -0.04994423 -0.05003507 -0.05011104 -0.05017314
 -0.05022338 -0.05026427 -0.050303 -0.05034347 -0.05039652 -0.05046451 -0.05055656 -0.05066878 -0.05080279 -0.05094817
 -0.05109927 -0.05124694 -0.05138454 -0.0515126 -0.05162853 -0.05174168 -0.05185331 -0.05197163 -0.05209853 -0.05223173
 -0.05237155 -0.05250542 -0.05263276 -0.05274268 -0.05283608 -0.05291509 -0.05298224 -0.05305052 -0.05312064 -0.05320252
 -0.05329281 -0.05339022 -0.05349017 -0.05358515 -0.05367445 -0.05375381 -0.0538268 -0.05389447 -0.0539599 -0.05402507
 -0.05409018 -0.05415522 -0.05422218 -0.05429073 -0.05436726 -0.05445258 -0.05455074 -0.05466239 -0.05478232 -0.05491011
 -0.05503492 -0.05515652 -0.05526793 -0.05537015 -0.0554636 -0.05555023 -0.05563571 -0.05572179 -0.05581516 -0.05591498
 -0.0560241 -0.05613753 -0.05625198 -0.05636202 -0.05646214 -0.05655283 -0.056632 -0.05670513 -0.05677365 -0.05684084
 -0.05690804 -0.05697397 -0.05703861 -0.05710082 -0.05716042 -0.05721926 -0.05727746 -0.05733796 -0.05740064 -0.05746574
 -0.05753269 -0.05759894 -0.05766434 -0.05772655 -0.05778699 -0.0578468 -0.05790883 -0.05797809 -0.05805477 -0.05814256
 -0.05823531 -0.05833148 -0.05842123 -0.05849915 -0.05856139 -0.05860376 -0.05863457 -0.0586536 -0.0586757 -0.05870284
 -0.05874465 -0.05880238 -0.0588731 -0.05895641 -0.05903952 -0.0591217 -0.05919035 -0.05924683 -0.05928983 -0.05932337
 -0.0593588 -0.05939879 -0.05945579 -0.05952606 -0.05961107 -0.05970241 -0.05979203 -0.0598752 -0.05994475 -0.06000448
 -0.0600534 -0.0600994 -0.06014501 -0.06019444 -0.06024978 -0.06030795 -0.06036933 -0.06042608 -0.06047759 -0.06051847
 -0.06054863 -0.06057128 -0.06058732 -0.06060653 -0.0606293 -0.06066315 -0.06070661 -0.06075955 -0.06081961 -0.0608818
 -0.06094489 -0.06100484 -0.06106189 -0.06111494 -0.06116425 -0.06120988 -0.06125131 -0.06128809 -0.06132083 -0.06134904
 -0.06137622 -0.06140303 -0.06143215 -0.06146452 -0.0614969 -0.06152926 -0.06155492 -0.06157367 -0.06158525 -0.06159068
 -0.06159961 -0.06161299 -0.06164121 -0.06168263 -0.06173838 -0.06180485 -0.06187505 -0.06194663 -0.06201273 -0.06207404
 -0.06212849 -0.06217824 -0.06222439 -0.06226782 -0.06230954 -0.06234859 -0.06238474 -0.06241763 -0.06244676 -0.06247426
 -0.06250006 -0.06252845 -0.06255979 -0.06259698 -0.06264012 -0.06268979 -0.06274589 -0.06280805 -0.06287604 -0.062949
 -0.06302579 -0.06310296 -0.06317832 -0.0632453 -0.06330341 -0.063348 -0.06338268 -0.06340872 -0.06343126 -0.06345468
 -0.06348049 -0.06351114 -0.06354416 -0.06357905 -0.0636147 -0.06365023 -0.06368888 -0.06373086 -0.06378011 -0.06383719
 -0.06390079 -0.06397075 -0.0640396 -0.06410684 -0.06416456 -0.06421322 -0.06425075 -0.06427856 -0.06429986 -0.06431585
 -0.06433046 -0.06434452 -0.06436074 -0.06438004 -0.06440464 -0.06443405 -0.06446929 -0.06450726 -0.06454699 -0.06458513
 -0.06462026 -0.064651 -0.06467658 -0.06469782 -0.06471439 -0.06473024 -0.06474549 -0.06476704 -0.06479519 -0.06483249
 -0.06487811 -0.06492436 -0.06497036 -0.0650066 -0.06503505 -0.06505658 -0.06507432 -0.06509658 -0.0651222 -0.06515407
 -0.06518742 -0.0652177 -0.06524369 -0.06526177 -0.06527676 -0.06528994 -0.06530582 -0.06532697 -0.06535229 -0.06538225
 -0.06541351 -0.06544542 -0.06547769 -0.06551017 -0.0655446 -0.06558103 -0.06561819 -0.06565572 -0.06568903 -0.06571812
 -0.06574026 -0.06575651 -0.06576904 -0.06577859 -0.06578824 -0.06579726 -0.06580574 -0.06581339 -0.06581909 -0.06582548
 -0.06583382 -0.06584702 -0.06586771 -0.06589396 -0.06592654 -0.06595929 -0.06599074 -0.06601781 -0.06603924 -0.06605924
 -0.06607793 -0.06610139 -0.06612988 -0.06616344 -0.06620159 -0.06623867 -0.06627476 -0.06630659 -0.06633641 -0.06636894
 -0.06640812 -0.06646453 -0.06654144 -0.06664852 -0.06678686 -0.06696094 -0.0671714 -0.06741924 -0.06770739 -0.06803742
 -0.0684118 -0.06883316 -0.06929578 -0.06979963 -0.07033496 -0.07089977 -0.07149324 -0.07211553 -0.07276286 -0.07343452
 -0.07408012 -0.07469314 -0.0751821 -0.07554545 -0.07572459 -0.07572944 -0.07556244 -0.07523226 -0.07475106 -0.0741443
 -0.0734424 -0.07270387 -0.07200227 -0.07137701 -0.07088523 -0.07052523 -0.07031174 -0.07023063 -0.07028186 -0.07044627
 -0.07072664 -0.0710683 -0.07147077 -0.07183234 -0.0721436 -0.07233757 -0.07241099 -0.07238785 -0.07227261 -0.07212445
 -0.07194515 -0.07177626 -0.07161311 -0.07146294 -0.07131858 -0.0711651 -0.0710042 -0.0708293 -0.07065149 -0.07048179
 -0.07032379 -0.07018771 -0.07006002 -0.06993794 -0.06980479 -0.06965201 -0.06947942 -0.06928302 -0.06907964 -0.06887068
 -0.06867347 -0.06849007 -0.06832591 -0.06818129 -0.06805132 -0.06793571 -0.06782959 -0.0677333 -0.06764644 -0.06756912
 -0.06750172 -0.06744379 -0.06739447 -0.06735354 -0.06732063 -0.06729461 -0.067275 -0.06725812 -0.06724133 -0.06722106
 -0.06719425 -0.06716107 -0.0671204 -0.06707551 -0.0670267 -0.06697805 -0.0669301 -0.06688663 -0.06684811 -0.06681602
 -0.06679042 -0.06676929 -0.06675252 -0.06673828 -0.06672692 -0.06672002 -0.0667175 -0.06672046 -0.06672723 -0.06673457
 -0.06674097 -0.06674186 -0.06673869 -0.06673083 -0.06672135 -0.06671271 -0.06670602 -0.06670301 -0.06670202 -0.06670288
 -0.066704 -0.06670465 -0.06670565 -0.06670687 -0.06671043 -0.06671659 -0.06672601 -0.06673873 -0.06675326 -0.06676934
 -0.0667835 -0.06679508 -0.06679845 -0.06679336 -0.06677476 -0.06674543 -0.06670804 -0.06666826 -0.06663729 -0.06661651
 -0.0666143 -0.06662226 -0.06663769 -0.06664986 -0.06665067 -0.06664009 -0.06661432 -0.06658448 -0.06655219 -0.066528
 -0.06651434 -0.06651341 -0.06652609 -0.06654687 -0.06657548 -0.06660218 -0.06662653 -0.06663982 -0.06664263 -0.0666334
 -0.06661406 -0.06659038 -0.06656406 -0.06654231 -0.06652495 -0.06651538 -0.0665113 -0.06651175 -0.06651384 -0.06651486
 -0.0665135 -0.06650788 -0.06649929 -0.06648774 -0.06647471 -0.06646067 -0.06644566 -0.0664296 -0.06641363 -0.06639763
 -0.06638595 -0.06637882 -0.06638046 -0.06639065 -0.06640778 -0.0664309 -0.0664534 -0.06647496 -0.06649045 -0.0665014
 -0.06650865 -0.06651443 -0.0665231 -0.06653524 -0.06655403 -0.06657687 -0.06660336 -0.06662922 -0.06665204 -0.06666891
 -0.06667781 -0.06667924 -0.06667261 -0.06666082 -0.06664413 -0.06662567 -0.06660569 -0.06658708 -0.06656998 -0.06655791
 -0.06655105 -0.0665527 -0.06656259 -0.06658117 -0.06660736 -0.0666378 -0.06667094 -0.06670131 -0.06672819 -0.06674744
 -0.0667605 -0.06676687 -0.06676966 -0.06677133 -0.06677349 -0.06677824 -0.06678409 -0.06679095 -0.06679743 -0.0668027
 -0.06680866 -0.06681544 -0.06682522 -0.06683845 -0.06685327 -0.0668696 -0.06688416 -0.06689693 -0.06690727 -0.0669154
 -0.06692254 -0.06692854 -0.06693353 -0.0669372 -0.06693892 -0.06693855 -0.06693537 -0.06692984 -0.06692156 -0.06691298
 -0.06690501 -0.06690253 -0.06690867 -0.06692588 -0.06695738 -0.06699695 -0.06704496 -0.06708865 -0.06712592 -0.06714807
 -0.06715331 -0.0671456 -0.06712501 -0.0671044 -0.06708428 -0.06707455 -0.06707443 -0.06708376 -0.06710118 -0.06712139
 -0.06714395 -0.06716518 -0.06718506 -0.06720216 -0.06721602 -0.06722511 -0.06723046 -0.0672316 -0.0672323 -0.06723443
 -0.06724115 -0.06725494 -0.06727363 -0.06729791 -0.06732127 -0.06734267 -0.06735785 -0.06736594 -0.06736886 -0.06736664
 -0.06736541 -0.06736535 -0.06737025 -0.06737965 -0.06739232 -0.06740778 -0.06742323 -0.06743915 -0.06745528 -0.06747235
 -0.06749184 -0.06751335 -0.06753735 -0.06756245 -0.06758771 -0.06761193 -0.06763408 -0.06765375 -0.06767046 -0.06768449
 -0.06769574 -0.06770521 -0.06771306 -0.06772018 -0.0677267 -0.06773292 -0.06773888 -0.06774466 -0.0677503 -0.06775588
 -0.06776132 -0.06776617 -0.06777035 -0.06777319 -0.0677752 -0.06777712 -0.06778004 -0.06778628 -0.06779652 -0.06781328
 -0.0678346 -0.06786044 -0.06788641 -0.06790984 -0.06792838 -0.06793953 -0.06794675 -0.0679501 -0.0679547 -0.067962
 -0.06797147 -0.06798359 -0.06799249 -0.06799778 -0.06799629 -0.06798825 -0.06797745 -0.06796454 -0.06795587 -0.06795128
 -0.06795359 -0.06796181 -0.06797469 -0.06799164 -0.06801099 -0.06803282 -0.06805711 -0.06808244 -0.06810834 -0.06813124
 -0.06814857 -0.06815939 -0.06816155 -0.06816029 -0.06815615 -0.06815572 -0.06816083 -0.06817116 -0.06818728 -0.06820302
 -0.06821799 -0.06822833 -0.06823417 -0.06823776 -0.06823952 -0.06824368 -0.06824985 -0.06825895 -0.06826977 -0.06827944
 -0.06828764 -0.06829206 -0.06829392 -0.06829395 -0.06829289 -0.06829233 -0.06829029 -0.06828616 -0.06827787 -0.0682638
 -0.0682457 -0.0682231 -0.06820109 -0.06818034 -0.06816574 -0.06815807 -0.06815862 -0.06816764 -0.06818004 -0.06819527
 -0.06820277 -0.06820237 -0.06818691 -0.06815835 -0.06812029 -0.0680756 -0.06803421 -0.06799655 -0.06796849 -0.06794792
 -0.06793447 -0.06792636 -0.06792175 -0.06792016 -0.06792093 -0.06792346 -0.06792762 -0.06793188 -0.06793608 -0.06793781
 -0.06793686 -0.06792989 -0.06791656 -0.06789362 -0.06786074 -0.06781787 -0.06776524 -0.06770787 -0.06764644 -0.06758848
 -0.06753391 -0.06748666 -0.06744563 -0.06740952 -0.06737834 -0.06735101 -0.06732927 -0.06731559 -0.06730925 -0.06731217
 -0.06731778 -0.06732348 -0.06732155 -0.06730685 -0.06728046 -0.06724005 -0.06719626 -0.06715042 -0.0671121 -0.06708316
 -0.06706233 -0.06704986 -0.06703517 -0.06701785 -0.06699011 -0.06695302 -0.06691056 -0.06686441 -0.06682418 -0.0667896
 -0.06676545 -0.06674945 -0.06674009 -0.06673431 -0.06672816 -0.06671791 -0.06669877 -0.06666907 -0.066625 -0.06657161
 -0.06650919 -0.06644579 -0.06638418 -0.06632706 -0.06627576 -0.0662284 -0.06618486 -0.06614436 -0.06610687 -0.06607186
 -0.06603919 -0.06600577 -0.06597146 -0.06593327 -0.06589161 -0.06584644 -0.06579836 -0.06574888 -0.0656987 -0.06564991
 -0.06560277 -0.06555922 -0.06551704 -0.0654753 -0.06543095 -0.06538082 -0.06532666 -0.06526753 -0.06520932 -0.06515401
 -0.06510311 -0.06505799 -0.06501383 -0.06497039 -0.0649222 -0.06486881 -0.0648083 -0.06474086 -0.06467085 -0.06459957
 -0.06453906 -0.06449039 -0.06446645 -0.06446346 -0.06448064 -0.06450701 -0.06452163 -0.06451619 -0.06446683 -0.06438322
 -0.06426239 -0.06412536 -0.063985 -0.06385342 -0.06374114 -0.06364392 -0.06356379 -0.06348933 -0.06341825 -0.06334528
 -0.06326892 -0.06319303 -0.0631177 -0.06304862 -0.06298599 -0.06293298 -0.0628892 -0.06285381 -0.06282487 -0.0627939
 -0.06275832 -0.06270501 -0.06263644 -0.06254967 -0.06245185 -0.06235181 -0.06225318 -0.06216309 -0.06208062 -0.06200722
 -0.06194134 -0.06188319 -0.06182929 -0.06177993 -0.06172622 -0.06166702 -0.06159237 -0.06150039 -0.06139017 -0.06126119
 -0.06112343 -0.06097752 -0.0608363 -0.06069985 -0.06057501 -0.06046041 -0.06035376 -0.06025378 -0.06015531 -0.06005894
 -0.05996369 -0.0598696 -0.05977733 -0.05968389 -0.05958643 -0.05948372 -0.05937256 -0.05925834 -0.05914234 -0.05903003
 -0.05892424 -0.05882333 -0.05872805 -0.05863222 -0.05853516 -0.05843243 -0.05832356 -0.05820857 -0.05808744 -0.05796038
 -0.05782669 -0.05768044 -0.05752086 -0.05733921 -0.05713962 -0.05692801 -0.05671177 -0.05651026 -0.05632254 -0.05615827
 -0.05600603 -0.05585867 -0.05570667 -0.05553894 -0.05536068 -0.05516929 -0.05497961 -0.05479607 -0.05462686 -0.0544764
 -0.05433569 -0.05420616 -0.0540591 -0.05389256 -0.05368248 -0.05342885 -0.05314798 -0.05284257 -0.05254481 -0.05225219
 -0.05197077 -0.05169487 -0.05141034 -0.05111533 -0.05079859 -0.05046288 -0.05010647 -0.04973477 -0.04935125 -0.04896338
 -0.04857842 -0.04819592 -0.04782189 -0.04743584 -0.04703414 -0.04659426 -0.04610764 -0.04558344 -0.04502057 -0.04444111
 -0.04384712 -0.0432399 -0.04261968 -0.04198918 -0.0413507 -0.04072778 -0.04011947 -0.03953774 -0.03897152 -0.03839374
 -0.03779657 -0.03714451 -0.03645356 -0.03572851 -0.03499219 -0.03427418 -0.03357012 -0.0328889 -0.03221217 -0.03153213
 -0.03084217 -0.0301374 -0.02942236 -0.02870023 -0.02795659 -0.02719454 -0.02635587 -0.02543616 -0.02439223 -0.0232249
 -0.0220078 -0.02074718 -0.01953662 -0.01836431 -0.01722269 -0.01609766 -0.01494074 -0.01375152 -0.01250725 -0.01120942
 -0.009858854 -0.008433103 -0.006921963 -0.005271899 -0.003442297 -0.001404196 0.0008920096 0.003348941 0.005966642 0.00856627
 0.0111059 0.01349893 0.0157223 0.01779411 0.01971216 0.02153435 0.02326486 0.0249999 0.02674875 0.02864813
 0.03068515 0.03289244 0.03520603 0.0374326 0.0395616 0.04145581 0.04319069 0.04481988 0.04639689 0.04800342
 0.04963798 0.0513248 0.05304839 0.05480427 0.05659248 0.05841883 0.06025098 0.06208761 0.06387458 0.06560022
 0.06727198 0.06888901 0.07047751 0.07203686 0.07351082 0.07489285 0.07609458 0.07712021 0.07794518 0.07857639
 0.0790222 0.07928634 0.07936977 0.07930219 0.07912334 0.07886536 0.07858179 0.07826765 0.07793131 0.07757762
 0.07720653 0.07683864 0.07648737 0.07613328 0.07578287 0.07536606 0.07487622 0.07424118 0.0734511 0.0725292
 0.07147864 0.0704356 0.06940042 0.06843394 0.0675175 0.06658742 0.06563284 0.06458062 0.06344577 0.06221452
 0.06093045 0.0596496 0.05840832 0.05727164 0.05623265 0.05530716 0.05447809 0.05373291 0.05309212 0.05255554
 0.05216103 0.05192104 0.0518334 0.05190245 0.05209396 0.05240568 0.05280878 0.05330187 0.05386829 0.05450781
 0.05521191 0.05598074 0.05681079 0.05770164 0.05865029 0.05965594 0.06071521 0.0618282 0.06299368 0.06421173
 0.0654819 0.06680466 0.06817953 0.06960938 0.07109515 0.07264023 0.07424644 0.07591382 0.07764496 0.07942628
 0.08125972 0.08310348 0.0849551 0.08676542 0.08853254 0.09025452 0.09193495 0.09361745 0.0952941 0.09695383
 0.09857079 0.1000466 0.1013857 0.1025404 0.1035505 0.10446 0.1052847 0.1060644 0.1067797 0.1074294
 0.1079929 0.1084672 0.1088107 0.1090281 0.1089975 0.108694 0.1080165 0.1069213 0.1055907 0.1040336
 0.1024541 0.10086 0.09920415 0.09748202 0.09562494 0.0936438 0.09156334 0.08939286 0.08718937 0.08492295
 0.08257542 0.08006848 0.07724955 0.0741428 0.07063115 0.06702653 0.06353266 0.06032133 0.05759966 0.05515638
 0.0529648 0.05083938 0.04871497 0.04659465 0.04446473 0.04239865 0.04040434 0.03848497 0.0366403 0.03481297
 0.03300209 0.03117551 0.02934164 0.02752755 0.02574351 0.02404044 0.02241551 0.02089145 0.01945095 0.01807906
 0.01675721 0.01546395 0.0141761 0.01288119 0.01152744 0.01008794 0.008519446 0.006765516 0.004975121 0.003148534
 0.001554175 0.0002548707 -0.0007802536 -0.001539472 -0.002227392 -0.002853727 -0.003535738 -0.004268833 -0.005039535 -0.005836731
 -0.006589044 -0.007301582 -0.007954549 -0.008557383 -0.009129635 -0.009656432 -0.01012735 -0.01051707 -0.01078737 -0.01094489
 -0.01097679 -0.01091322 -0.01076793 -0.01055562 -0.01028811 -0.009954446 -0.009558839 -0.009063829 -0.008468581 -0.007708509
 -0.006776007 -0.005647619 -0.0043231 -0.002945215 -0.001527371 -0.0002783393 0.0008091842 0.001666365 0.002315013 0.00279186
 0.003112064 0.003324679 0.003442562 0.003501786 0.003523201 0.003534045 0.003574277 0.003681267 0.003882383 0.004218268
 0.004632626 0.005120803 0.005606907 0.006065542 0.006489359 0.006870254 0.00724114 0.007603923 0.007989952 0.008400856
 0.008840272 0.009306553 0.00977934 0.01025911 0.0107349 0.01121538 0.01172182 0.01226748 0.0128956 0.01360723
 0.01442552 0.01533994 0.01634272 0.01744012 0.01863115 0.01993275 0.02135941 0.02289873 0.02455579 0.02628887
 0.02808637 0.02993402 0.03182277 0.03379307 0.03584855 0.03801469 0.04029258 0.04258713 0.04488774 0.04703166
 0.04901935 0.05077119 0.05229582 0.0535873 0.05463822 0.05543159 0.05595082 0.05615785 0.05605382 0.05561922
 0.05487907 0.05384296 0.0525417 0.05099248 0.04921924 0.04722959 0.04505612 0.04269638 0.04023665 0.03768031
 0.03516798 0.03271408 0.0304034 0.02824107 0.02619066 0.0242476 0.02233948 0.02047124 0.01863277 0.01683823
 0.01513647 0.01352714 0.01203932 0.01065262 0.009347681 0.008105633 0.006895793 0.005714049 0.004544926 0.003398132
 0.002271911 0.001186232 0.0001468719 -0.0008274594 -0.001728797 -0.002559683 -0.003316687 -0.004026446 -0.004691016 -0.005333582
 -0.00595555 -0.006546049 -0.007102418 -0.007585243 -0.007993988 -0.008303242 -0.008519658 -0.008652894 -0.008710428 -0.008714813
 -0.00866957 -0.008590069 -0.008477885 -0.008339645 -0.008178442 -0.007996308 -0.007803217 -0.007601615 -0.00741115 -0.007237579
 -0.007102489 -0.007012322 -0.006979535 -0.007007828 -0.007097545 -0.007249804 -0.007453441 -0.007707908 -0.007995266 -0.008314657
 -0.00865125 -0.009004133 -0.009361967 -0.009721087 -0.01006372 -0.01038359 -0.01065616 -0.01087952 -0.01103691 -0.01113672
 -0.01117988 -0.01118098 -0.01115137 -0.01110256 -0.01104462 -0.01098009 -0.01091229 -0.0108402 -0.01076315 -0.01068547
 -0.01060676 -0.01053811 -0.01048049 -0.01044278 -0.01042557 -0.01043135 -0.01046007 -0.01051188 -0.01058632 -0.01068157
 -0.01079573 -0.01092093 -0.01105564 -0.01119111 -0.01132974 -0.01147093 -0.01161915 -0.01178044 -0.01195474 -0.01214556
 -0.01234666 -0.01255619 -0.01276697 -0.01297573 -0.01317891 -0.01337495 -0.0135626 -0.01374179 -0.01390931 -0.0140652
 -0.01420189 -0.01431894 -0.0144092 -0.0144728 -0.01451019 -0.01452245 -0.01451681 -0.01449336 -0.01445699 -0.01440564
 -0.01433699 -0.01424846 -0.01413401 -0.0139938 -0.0138246 -0.01363054 -0.0134134 -0.0131782 -0.01292885 -0.01266584
 -0.01239066 -0.01210078 -0.01179482 -0.01147627 -0.01114425 -0.0108113 -0.01047839 -0.01015755 -0.009849574 -0.009557595
 -0.009281432 -0.009018472 -0.008768658 -0.008530023 -0.008303512 -0.00809114 -0.007894938 -0.007720752 -0.00757042 -0.007449898
 -0.007359496 -0.007301999 -0.007276805 -0.007284529 -0.007323802 -0.007394731 -0.007493606 -0.007619382 -0.007767969 -0.007937883
 -0.008128069 -0.008338313 -0.008567294 -0.008815425 -0.009074212 -0.0093432 -0.009612313 -0.009881695 -0.01015221 -0.01042549
 -0.01071298 -0.01101528 -0.01134172 -0.01168957 -0.01205779 -0.01244096 -0.01282998 -0.01321913 -0.01359837 -0.01396328
 -0.01430736 -0.01462712 -0.01491884 -0.01518095 -0.01541062 -0.01561346 -0.01578854 -0.01595067 -0.01610216 -0.01625426
 -0.01640927 -0.01656276 -0.01671472 -0.01685163 -0.0169732 -0.01707363 -0.01715373 -0.017217 -0.01726298 -0.01729287
 -0.01730325 -0.01728652 -0.01723866 -0.01714819 -0.01701581 -0.01683613 -0.01661598 -0.01635938 -0.01607131 -0.01575779
 -0.01541372 -0.01503939 -0.01462605 -0.0141703 -0.0136725 -0.01313133 -0.01255447 -0.01194262 -0.01130075 -0.01062918
 -0.009932792 -0.00921225 -0.008479122 -0.007734368 -0.006990874 -0.006247718 -0.005508862 -0.004771307 -0.004029615 -0.00328092
 -0.002516991 -0.001738306 -0.0009403729 -0.0001299753 0.0006903904 0.001509622 0.002320798 0.003116093 0.00389016 0.004642084
 0.005370415 0.006076867 0.006761693 0.007425062 0.008066994 0.00868743 0.009286254 0.009868791 0.01043601 0.01100472
 0.01157715 0.01217766 0.01280653 0.01347922 0.01419179 0.0149423 0.01572592 0.01653288 0.01736097 0.01820385
 0.01906004 0.01992697 0.02080147 0.02168181 0.02256313 0.02344399 0.02431741 0.02518176 0.02602961 0.02685911
 0.02766773 0.02845478 0.02922154 0.02996804 0.03069581 0.03140515 0.03210152 0.03278567 0.03346667 0.03414337
 0.03481627 0.03548295 0.03613535 0.03677661 0.03740743 0.03803482 0.03867032 0.03931139 0.03996272 0.04061105
 0.0412496 0.04186948 0.04246397 0.04303513 0.04358083 0.04411107 0.04462544 0.04514452 0.04566956 0.04622728
 0.04681965 0.04745915 0.04814507 0.0488624 0.04960766 0.05034911 0.05108387 0.05178323 0.05244679 0.05305972
 0.05362082 0.05412346 0.05456065 0.05492224 0.05519933 0.05537873 0.05546192 0.05544316 0.05533638 0.05514431
 0.05488419 0.0545589 0.05419192 0.05378516 0.05337418 0.05296278 0.05258096 0.05223137 0.0519168 0.05163667
 0.05137704 0.05113736 0.05090816 0.0506888 0.05047293 0.05025739 0.05003038 0.04978959 0.04952411 0.04923638
 0.0489243 0.04859309 0.04824667 0.04788884 0.04752365 0.04715063 0.0467709 0.04638151 0.04598083 0.04557185
 0.04515413 0.04473608 0.04431931 0.04390211 0.04348477 0.04305332 0.04260746 0.04214238 0.04166002 0.04117361
 0.04068443 0.0402058 0.03973554 0.03927512 0.03882048 0.03836578 0.03790526 0.03742948 0.03693357 0.03640776
 0.03585677 0.03527943 0.03468533 0.03408119 0.03346108 0.03282782 0.03215852 0.03144882 0.03068541 0.02986451
 0.02899765 0.02808494 0.02715042 0.02619524 0.02523984 0.02428465 0.02334193 0.02241223 0.02150344 0.02061829
 0.0197677 0.01895541 0.01819484 0.01748471 0.01683085 0.01622479 0.01566193 0.0151322 0.01462894 0.01414264
 0.01366884 0.0131974 0.0127242 0.01224499 0.01175741 0.01126632 0.01077232 0.01027627 0.009778524 0.009271061
 0.008753762 0.00822548 0.007687651 0.007151695 0.006618307 0.006096639 0.00558607 0.0050885 0.00460557 0.004141355
 0.003697108 0.003278274 0.002878981 0.002497102 0.002123336 0.001750431 0.001375305 0.0009936346 0.000610136 0.0002250389
 -0.0001559485 -0.0005311913 -0.0009002934 -0.001262631 -0.001623108 -0.001982256 -0.002337833 -0.002689138 -0.003017891 -0.003322948
 -0.003585239 -0.003807526 -0.003991216 -0.004141294 -0.00427363 -0.004388917 -0.004496395 -0.004593774 -0.004680839 -0.004758094
 -0.004826014 -0.004884822 -0.004936533 -0.004974875 -0.004999109 -0.004998239 -0.004969058 -0.004903208 -0.004797404 -0.004654157
 -0.004471996 -0.004268045 -0.004043114 -0.003819297 -0.00359748 -0.003390309 -0.003197907 -0.003025713 -0.002875568 -0.002759014
 -0.002677485 -0.00264369 -0.002651746 -0.002698513 -0.002772101 -0.002855066 -0.002939121 -0.003009529 -0.003065106 -0.003101422
 -0.003117465 -0.0031128 -0.003082895 -0.003026115 -0.002940277 -0.002823376 -0.002683036 -0.002519183 -0.002346044 -0.002164774
 -0.00198301 -0.001800709 -0.001611141 -0.001412892 -0.001190535 -0.0009439255 -0.0006629098 -0.0003511216 -1.234811E-05 0.0003464488
 0.0007096204 0.001072757 0.001421377 0.001759546 0.002085182 0.002405451 0.002726715 0.003045729 0.003364711 0.003671266
 0.003961149 0.004230201 0.004475283 0.004705603 0.00492172 0.005133088 0.005340528 0.00554815 0.005756257 0.005971025
 0.006192702 0.006427614 0.006673348 0.00692326 0.007172224 0.007400361 0.007607413 0.007779642 0.007928858 0.008063628
 0.008200118 0.00835984 0.008543657 0.008763756 0.008998511 0.0092424 0.009473281 0.009680264 0.009864759 0.01002319
 0.01017339 0.01031764 0.01046536 0.01061797 0.01076833 0.01091605 0.01105187 0.01117656 0.01129297 0.01140312
 0.01151906 0.0116402 0.01177221 0.01191089 0.01204964 0.01218731 0.01231686 0.01244629 0.0125799 0.01272744
 0.01289887 0.01309251 0.01331297 0.01354519 0.01378678 0.01401968 0.01423931 0.01443679 0.01460905 0.01476427
 0.01490237 0.01504146 0.01518227 0.01533386 0.01549536 0.01566153 0.01583235 0.01600442 0.01617976 0.01636408
 0.0165561 0.01675744 0.01696216 0.01716197 0.0173539 0.01753056 0.01769555 0.01784925 0.01799453 0.01813332
 0.01826519 0.01838892 0.01851082 0.01862945 0.01876606 0.01892282 0.01912028 0.01936119 0.01963923 0.01995355
 0.02027133 0.02059142 0.02088873 0.02116633 0.02142641 0.02167202 0.02191413 0.02215258 0.02239133 0.02263171
 0.02287752 0.02312903 0.02339055 0.02365326 0.02391319 0.02416085 0.02438804 0.02460037 0.02479612 0.02498984
 0.02518466 0.02538854 0.02560324 0.02583068 0.02607139 0.0263223 0.02658303 0.02683922 0.02708976 0.0273175
 0.02752344 0.02770324 0.02785936 0.02799687 0.02811804 0.0282285 0.0283335 0.02844257 0.02856053 0.02869851
 0.02884977 0.0290156 0.02918066 0.02933704 0.0294781 0.0295979 0.02970413 0.029796 0.02988907 0.02998477
 0.03009964 0.03023537 0.0303985 0.03058919 0.03079995 0.03103058 0.0312758 0.03153691 0.03181939 0.03212154
 0.03244208 0.03277577 0.0331095 0.03344299 0.03376874 0.03409214 0.03441608 0.03474461 0.03508142 0.03542907
 0.03579148 0.03616285 0.03654699 0.03691545 0.03726473 0.03756086 0.03779587 0.0379728 0.03808952 0.03818526
 0.03826198 0.03835491 0.03846445 0.03860757 0.03878324 0.03899705 0.03924467 0.03951713 0.0398066 0.04009191
 0.04036796 0.04061765 0.04084035 0.04102899 0.04118525 0.04130703 0.04140031 0.04146685 0.04151358 0.04154404
 0.04155784 0.04155464 0.04153806 0.04150644 0.04148158 0.0414648 0.04147976 0.04152755 0.04161492 0.04174121
 0.04190347 0.04209884 0.04231376 0.0425407 0.04274654 0.04292957 0.04306484 0.04316721 0.0432478 0.04332108
 0.04340802 0.04351177 0.04363575 0.043798 0.04400371 0.0442839 0.0446625 0.04509976 0.04560104 0.04606799
 0.04648065 0.04683097 0.04711452 0.04737116 0.0476025 0.04781411 0.04800548 0.0481707 0.0483131 0.04844915
 0.04858005 0.04872125 0.0488655 0.04900495 0.0491314 0.04923001 0.04929271 0.04930558 0.04926394 0.04915503
 0.04899523 0.04878443 0.04855599 0.04832091 0.04810261 0.04790818 0.04775126 0.04763458 0.04756898 0.04755726
 0.04757969 0.04763494 0.0476651 0.04766777 0.04759552 0.04745214 0.04723234 0.04694397 0.04660697 0.0462338
 0.04585898 0.04549758 0.0451927 0.04493842 0.04474954 0.04460125 0.04447354 0.04437032 0.04428715 0.04423594
 0.04423177 0.04422601 0.04421253 0.04413695 0.0439794 0.04379923 0.04359487 0.04350511 0.04353683 0.043756
 0.04415507 0.04466916 0.04528094 0.04586014 0.04640076 0.04680445 0.04709677 0.04727983 0.04739736 0.04752346
 0.04767341 0.04790094 0.04817899 0.04850594 0.0488506 0.04919313 0.0495271 0.04984349 0.05015387 0.05045789
 0.05077468 0.05110849 0.05146184 0.05183775 0.05219586 0.05253412 0.05281387 0.05303842 0.05323719 0.05341664
 0.05363381 0.05388021 0.0541572 0.05445248 0.05473311 0.05500587 0.05526694 0.05552521 0.0557936 0.0560637
 0.05633362 0.05659467 0.05684296 0.0570691 0.05727368 0.05742862 0.05752661 0.05755243 0.05749816 0.05739453
 0.05724256 0.05708315 0.05691851 0.05676579 0.05662541 0.05650764 0.05641202 0.05634359 0.05629744 0.05625783
 0.05622343 0.05618108 0.05613736 0.05610011 0.05606622 0.05603896 0.05600313 0.05594708 0.05586388 0.05574708
 0.05559335 0.05540264 0.05516173 0.05486593 0.05451483 0.05410494 0.05366094 0.05318495 0.05269338 0.05218722
 0.05166293 0.05112095 0.05056589 0.04999966 0.04943624 0.04887632 0.04832746 0.04779419 0.04728993 0.04682054
 0.04640633 0.04603642 0.04571003 0.04540565 0.04510348 0.04479928 0.04448308 0.04416524 0.04384809 0.04353664
 0.04323231 0.04293896 0.04265693 0.04239315 0.0421491 0.0419167 0.04169558</values></Ydata></AB><ScSm><Ydata ylabel="Single channel"><values byteorder="INTEL" format="FLOAT32" numvalues="1814"> 0.07104787 0.07105755 0.07113896 0.07130317 0.07151347 0.07171021 0.07185015 0.07192801 0.07195614 0.07193357
 0.0718652 0.07180861 0.07185507 0.07204046 0.0722948 0.07249145 0.07254566 0.07248612 0.07244027 0.07251216
 0.07264374 0.07262558 0.07229307 0.0717178 0.07116622 0.07085258 0.07079816 0.070985 0.07149725 0.07228094
 0.07285903 0.0726693 0.07177522 0.0709049 0.07064226 0.07086406 0.07108029 0.07100067 0.07062533 0.07013313
 0.06992988 0.07053894 0.07208598 0.07387507 0.07464084 0.07334945 0.06993793 0.06554252 0.0620755 0.06120112
 0.06316619 0.06646572 0.06896959 0.06961997 0.06893927 0.06795528 0.06709448 0.066315 0.06582084 0.06609568
 0.06723377 0.06849584 0.06869508 0.06721198 0.06473125 0.0627542 0.06222976 0.06296198 0.06441879 0.06631359
 0.0677828 0.06691412 0.06262683 0.05705895 0.05461614 0.05778056 0.06446181 0.07004432 0.07149564 0.06906512
 0.06494401 0.06145079 0.06015942 0.06147101 0.06453469 0.06795402 0.07063915 0.07186171 0.0710599 0.06832352
 0.0648828 0.06251932 0.06247234 0.06494758 0.06907034 0.07296823 0.07462546 0.07337008 0.07031651 0.06718585
 0.06517582 0.0649683 0.06689372 0.07058711 0.07496596 0.07886019 0.08149123 0.0825507 0.08226377 0.08124423
 0.08002627 0.07897957 0.07863868 0.07937182 0.0805141 0.08062105 0.07904144 0.07678564 0.075487 0.07571582
 0.07652321 0.07659471 0.07558014 0.07389168 0.0714118 0.06746057 0.06236468 0.05787992 0.05543801 0.05505243
 0.05636121 0.05919237 0.06234461 0.06351498 0.06182551 0.05943264 0.05939161 0.0623946 0.06641275 0.06916304
 0.07021995 0.070852 0.07238957 0.07486554 0.07685429 0.07655255 0.07356769 0.06991526 0.06859407 0.07064536
 0.07415275 0.07659799 0.07751536 0.07821274 0.07948266 0.08036919 0.07916246 0.07542844 0.07109728 0.06927155
 0.07152706 0.07633861 0.08018818 0.08017135 0.07595211 0.06983452 0.06496358 0.06315067 0.06438494 0.06802405
 0.07349725 0.07969108 0.08466813 0.08675125 0.08574746 0.08284134 0.07924695 0.07509162 0.07006473 0.06527875
 0.06348488 0.06646752 0.07275961 0.07886858 0.08239144 0.08320773 0.08211707 0.07935555 0.07482013 0.06949139
 0.06589487 0.06613747 0.06936981 0.07227488 0.07254323 0.07097214 0.06974998 0.06972829 0.07011773 0.07016575
 0.07022686 0.07115383 0.07307712 0.07508523 0.07610591 0.07588253 0.07501556 0.07426253 0.07385166 0.07332115
 0.07216825 0.07084589 0.07070862 0.07252759 0.07543164 0.07780692 0.07891599 0.07915945 0.07900041 0.07815433
 0.07601306 0.07280624 0.07006388 0.06947894 0.07126915 0.07404843 0.07626738 0.07731973 0.07738344 0.07686201
 0.07611486 0.07533933 0.07463012 0.07423314 0.07448087 0.07531698 0.07619582 0.07663353 0.07660183 0.07627816
 0.07570259 0.07485081 0.07387865 0.07312712 0.07287993 0.07315087 0.07371818 0.07432058 0.07475362 0.07484479
 0.07451836 0.07391359 0.07329407 0.07281068 0.07246275 0.07226841 0.07230996 0.07257964 0.07290923 0.07311143
 0.07312681 0.07300302 0.07279194 0.07251132 0.07217969 0.07185595 0.07163753 0.0715967 0.07169555 0.07180373
 0.07184479 0.07187574 0.07195926 0.07201932 0.07192022 0.07165429 0.07136022 0.07116912 0.07109993 0.07109241
 0.07107335 0.07096976 0.07070982 0.07028494 0.06982714 0.06956028 0.06962182 0.0699591 0.07041256 0.07083571
 0.07112236 0.07121773 0.07115911 0.07104453 0.07092364 0.07076222 0.07052906 0.07028121 0.07014734 0.07022792
 0.07050185 0.07083642 0.07109822 0.07123596 0.07126682 0.0712447 0.07124746 0.07131903 0.07140419 0.07140239
 0.07130039 0.07119757 0.07118911 0.07126272 0.0713217 0.07129455 0.07121537 0.07118787 0.07126995 0.07141812
 0.07155408 0.07165331 0.07174825 0.07186383 0.07196712 0.07198664 0.07189218 0.07174623 0.07164563 0.07162024
 0.07163018 0.07165453 0.07172611 0.0718652 0.07202351 0.07212365 0.07214105 0.07212415 0.0721284 0.0721454
 0.07211736 0.07201581 0.07188094 0.07177972 0.07174623 0.07176651 0.07180101 0.07181302 0.07178608 0.07172492
 0.07164293 0.07154901 0.07144585 0.07134257 0.07126953 0.07126665 0.0713377 0.07142 0.07142346 0.07131188
 0.07113876 0.07099555 0.07092554 0.07089243 0.07083118 0.07071874 0.07058758 0.07048169 0.07041779 0.07038558
 0.07036515 0.07034308 0.07033074 0.0703707 0.07050264 0.07070742 0.07089978 0.07099782 0.07099742 0.07096632
 0.0709727 0.07103477 0.0711306 0.07123566 0.07135043 0.07149817 0.07168689 0.07187539 0.07200301 0.07205956
 0.07209937 0.07218316 0.07233381 0.07254402 0.07278327 0.07299379 0.07312609 0.07319472 0.07326819 0.07339381
 0.07355814 0.07372545 0.07388464 0.07404633 0.07421827 0.07440352 0.0746136 0.07486688 0.07517032 0.07550441
 0.07582532 0.07608992 0.07629363 0.07648665 0.07673959 0.07708372 0.07748592 0.07788153 0.07822755 0.07852872
 0.07881826 0.07911564 0.07941179 0.07970242 0.08001909 0.08040075 0.08084065 0.0812882 0.08170354 0.08208862
 0.08246644 0.08285238 0.08324938 0.08365853 0.08408725 0.08454309 0.08501324 0.08545762 0.08583967 0.08616377
 0.08647192 0.08680865 0.08719388 0.08761074 0.08800529 0.08832236 0.08856803 0.08881858 0.08913952 0.08951037
 0.08986034 0.09016743 0.09048325 0.09085757 0.09127381 0.09167503 0.09203131 0.09236179 0.09269905 0.09304572
 0.09336647 0.09362152 0.09381023 0.09397695 0.09416947 0.09440592 0.09469248 0.09504662 0.09547053 0.09591611
 0.09631206 0.09662341 0.09686357 0.0970628 0.09725106 0.09745567 0.09768564 0.09792545 0.09815814 0.09837779
 0.0985736 0.09873395 0.09888051 0.09906432 0.09930986 0.09959506 0.09990197 0.1002499 0.1006512 0.101069
 0.101458 0.1018325 0.1022464 0.1027043 0.1031326 0.103458 0.1036814 0.1038524 0.1040082 0.1041742
 0.1043956 0.1047174 0.105133 0.1055849 0.1060202 0.1064246 0.1068062 0.1071677 0.107497 0.107775
 0.1079918 0.1081585 0.1083068 0.1084763 0.1087006 0.1089877 0.1093064 0.1096017 0.1098307 0.1099757
 0.1100258 0.1099735 0.1098483 0.109724 0.1096578 0.1096224 0.1095207 0.1092669 0.1088378 0.1082536
 0.1075386 0.1067165 0.1058312 0.104956 0.1041761 0.1035623 0.1031614 0.1030103 0.1031437 0.1035686
 0.1042256 0.1049884 0.1057075 0.106248 0.1064962 0.1063712 0.1058633 0.1050532 0.1040721 0.10304
 0.1020315 0.1010711 0.1001441 0.09923854 0.09840639 0.09777896 0.09751625 0.097751 0.09857629 0.1000355
 0.1020691 0.1044671 0.1069172 0.1091425 0.1110153 0.1125552 0.1138476 0.114981 0.1160298 0.1170381
 0.1180009 0.1188844 0.1196745 0.1203874 0.1210363 0.1216103 0.1220872 0.1224551 0.1227231 0.1229231
 0.1230887 0.1232269 0.1233232 0.1233787 0.1234185 0.1234507 0.123432 0.1232836 0.1229361 0.1223624
 0.1215968 0.120762 0.1201008 0.119959 0.1206552 0.1222817 0.1246108 0.1272136 0.1296874 0.1317946
 0.1334589 0.1347122 0.1356506 0.1363911 0.1370273 0.137613 0.1381733 0.1387157 0.1392381 0.1397391
 0.1402229 0.1406967 0.1411669 0.1416378 0.142104 0.1425497 0.1429651 0.1433655 0.1437862 0.1442518
 0.1447497 0.1452401 0.1456978 0.1461357 0.1465752 0.1470058 0.1473967 0.1477428 0.1480775 0.1484404
 0.1488492 0.1492991 0.1497629 0.1501975 0.1505702 0.1508875 0.1511868 0.1515007 0.1518359 0.1521829
 0.1525328 0.1528806 0.1532234 0.1535655 0.1539207 0.1542951 0.1546672 0.1550003 0.1552819 0.1555394
 0.1558111 0.1561091 0.1564166 0.1567145 0.1570055 0.157315 0.1576672 0.1580565 0.1584412 0.1587756
 0.1590483 0.1592911 0.1595486 0.1598442 0.160171 0.1605067 0.1608328 0.1611427 0.1614427 0.1617454
 0.1620582 0.1623767 0.1626917 0.1630006 0.1633078 0.1636176 0.1639293 0.16424 0.1645513 0.1648745
 0.1652245 0.1656014 0.1659799 0.1663259 0.166622 0.1668757 0.167108 0.1673414 0.1675944 0.1678764
 0.1681824 0.1684961 0.1688019 0.1690954 0.169384 0.1696765 0.1699743 0.1702733 0.1705703 0.170868
 0.1711727 0.1714911 0.1718233 0.1721599 0.1724862 0.1727932 0.1730831 0.1733658 0.1736506 0.1739391
 0.1742252 0.1745042 0.1747807 0.1750646 0.1753571 0.1756494 0.1759324 0.1762055 0.1764745 0.176746
 0.1770233 0.1773045 0.1775849 0.1778631 0.1781427 0.1784289 0.1787222 0.1790146 0.179293 0.179551
 0.1797976 0.1800502 0.1803211 0.1806101 0.180907 0.1811999 0.1814826 0.1817563 0.1820253 0.1822924
 0.1825588 0.182825 0.1830908 0.1833573 0.1836251 0.1838925 0.1841565 0.1844186 0.1846838 0.1849556
 0.1852359 0.1855238 0.1858146 0.1861028 0.1863871 0.186667 0.1869403 0.1872092 0.187483 0.1877651
 0.188046 0.1883156 0.1885752 0.1888353 0.1891031 0.1893739 0.189635 0.1898807 0.1901202 0.1903648
 0.1906156 0.1908687 0.1911234 0.1913788 0.1916328 0.191887 0.1921447 0.1924053 0.1926695 0.1929426
 0.1932255 0.1935107 0.19379 0.1940608 0.1943255 0.1945913 0.1948636 0.1951397 0.195416 0.1956951
 0.1959779 0.1962582 0.196533 0.1968059 0.1970777 0.1973478 0.1976207 0.1978985 0.1981743 0.1984438
 0.1987088 0.1989668 0.1992178 0.1994745 0.1997478 0.2000294 0.2003049 0.2005718 0.2008342 0.2010943
 0.2013549 0.2016177 0.2018823 0.2021521 0.2024304 0.2027106 0.2029863 0.2032613 0.2035365 0.203805
 0.2040684 0.2043368 0.2046089 0.2048764 0.2051409 0.205407 0.2056729 0.2059381 0.2061989 0.2064328
 0.2065893 0.2065441 0.2059764 0.2042457 0.2003854 0.1933004 0.1822006 0.1670941 0.1489592 0.1294036
 0.1100767 0.0922382 0.07663089 0.06358255 0.05317118 0.04532119 0.03986187 0.03664585 0.03567493 0.03721293
 0.04190253 0.05038694 0.0618916 0.07296473 0.07881887 0.07711037 0.07018037 0.06291778 0.05869439 0.05774039
 0.05861102 0.06008065 0.06176618 0.06389241 0.06683913 0.07071181 0.07532864 0.08068836 0.0871901 0.09512162
 0.1040578 0.1130439 0.1214164 0.1293182 0.1373693 0.1459205 0.154688 0.1630339 0.1704733 0.1769128
 0.1825512 0.1876573 0.1924181 0.1969202 0.2012045 0.2052664 0.2089693 0.2120055 0.2140401 0.214964
 0.2150217 0.2146799 0.2143533 0.2142388 0.2143579 0.2146778 0.2151683 0.2158026 0.2165576 0.2174126
 0.2183362 0.21929 0.220245 0.2211804 0.2220724 0.2229007 0.2236596 0.2243552 0.2249939 0.2255782
 0.2261095 0.226595 0.2270502 0.2274896 0.2279147 0.2283188 0.2286984 0.2290532 0.229383 0.2296905
 0.2299806 0.2302542 0.2305111 0.2307575 0.2310015 0.2312425 0.2314731 0.2316915 0.2319083 0.23214
 0.2323952 0.2326647 0.2329288 0.2331773 0.2334152 0.2336491 0.2338798 0.2341093 0.2343436 0.2345849
 0.2348276 0.2350648 0.2352923 0.2355111 0.2357276 0.2359512 0.2361879 0.2364368 0.23669 0.2369362
 0.2371713 0.2374079 0.2376612 0.2379293 0.2381988 0.2384632 0.2387224 0.2389734 0.2392178 0.2394659
 0.2397174 0.2399498 0.2401454 0.24032 0.2405142 0.2407565 0.2410383 0.2413257 0.2415931 0.241841
 0.2420797 0.2423128 0.2425395 0.2427598 0.2429778 0.2432129 0.243492 0.2438133 0.2441384 0.2444388
 0.2447204 0.2449958 0.2452664 0.245539 0.2458184 0.2460764 0.2462725 0.246418 0.2465959 0.2468974
 0.2473328 0.2478107 0.2482198 0.2485288 0.2487877 0.2490589 0.2493729 0.2497053 0.2499527 0.2500042
 0.2499138 0.2499303 0.2502677 0.2508885 0.2515727 0.2521443 0.2525771 0.2529301 0.2532507 0.253529
 0.2537099 0.2537533 0.2537144 0.2537647 0.2540764 0.2546463 0.2552845 0.2558098 0.2561938 0.2564921
 0.2567436 0.2569669 0.2571194 0.2570332 0.256589 0.2560293 0.2558985 0.25652 0.2576339 0.2586763
 0.2593383 0.2597277 0.2600557 0.2603757 0.2606372 0.2607315 0.2603722 0.2592631 0.2576773 0.2566101
 0.2569587 0.2586216 0.2606621 0.2622383 0.2631363 0.2635742 0.2638336 0.2640663 0.2641826 0.2638702
 0.2629426 0.2617897 0.2612759 0.2619395 0.2633835 0.2646974 0.2653879 0.2656427 0.265837 0.2661156
 0.2662997 0.2658512 0.264182 0.2615206 0.2593424 0.2593307 0.2617305 0.2650532 0.2675526 0.2687207
 0.2691407 0.2692066 0.268544 0.2666912 0.2638013 0.26057 0.258024 0.2573902 0.2592805 0.2626663
 0.2654598 0.2665752 0.2668502 0.2676682 0.2693074 0.2709462 0.271732 0.2714432 0.2703415 0.2687036
 0.2666889 0.264771 0.2639985 0.2652528 0.268177 0.2713006 0.2733979 0.274416 0.2748373 0.2742534
 0.2710811 0.2644733 0.2567023 0.2525268 0.2549891 0.2622315 0.2694923 0.273789 0.2755429 0.2763342
 0.2767829 0.2763861 0.2738108 0.267622 0.2585546 0.2509359 0.2497565 0.2557344 0.2645038 0.2706884
 0.2715589 0.2673182 0.260137 0.2535073 0.2508162 0.2532959 0.2594881 0.2666878 0.2725636 0.2757979
 0.2760848 0.2740092 0.2709918 0.2689371 0.2688597 0.2693851 0.2677891 0.2634391 0.2588505 0.2559937
 0.2532457 0.2483956 0.2434988 0.2435094 0.2498378 0.2579933 0.2626316 0.2629637 0.2617849 0.260383
 0.2563388 0.2470179 0.2345709 0.2260085 0.2270659 0.2362545 0.2461929 0.2508223 0.2502146 0.2484117
 0.2480311 0.2476063 0.243678 0.2353164 0.2263932 0.2223304 0.2243438 0.2283542 0.2298131 0.2273549
 0.2212292 0.2117939 0.2020436 0.1985528 0.2059298 0.2211541 0.2359413 0.2435685 0.2413471 0.2291304
 0.2101783 0.1930274 0.1873367 0.195263 0.2088508 0.2173569 0.2157834 0.2057537 0.1908752 0.1742453
 0.1598516 0.1530386 0.1572902 0.1706748 0.1860036 0.1944809 0.1905611 0.1761995 0.1610868 0.1556726
 0.1617247 0.1711812 0.1751892 0.1721079 0.1662194 0.162153 0.1621919 0.1659663 0.1708814 0.1745209
 0.1765791 0.1762337 0.1695608 0.1543269 0.1364163 0.1259685 0.1268248 0.1345788 0.1447518 0.1567556
 0.1685297 0.173828 0.169283 0.1608495 0.1587445 0.1666152 0.1784019 0.1857032 0.1860753 0.1834787
 0.1821307 0.1819473 0.1807334 0.1792046 0.1811335 0.1881291 0.196794 0.2025116 0.2042558 0.2041478
 0.203905 0.2035624 0.2026755 0.2010908 0.198874 0.1964235 0.1943435 0.1927597 0.1912091 0.1893401
 0.1869077 0.1827883 0.1752401 0.164434 0.1540257 0.148299 0.147672 0.148976 0.1501271 0.1513609
 0.1509406 0.143924 0.1287433 0.1125812 0.1061462 0.1133617 0.1284809 0.1426052 0.1504067 0.1505619
 0.143193 0.1302634 0.1179389 0.1146211 0.1240413 0.141662 0.1595623 0.1732701 0.18218 0.1857367
 0.1827744 0.1744503 0.1653726 0.1609799 0.1642598 0.1744062 0.1870109 0.1951151 0.1926126 0.1803893
 0.1691389 0.1714523 0.1884929 0.2079273 0.2177846 0.2186149 0.2185009 0.220512 0.2212358 0.2197041
 0.2209084 0.2289492 0.2409793 0.2499946 0.2509634 0.2427922 0.2276576 0.211503 0.2025177 0.2046259
 0.2131181 0.2198394 0.2211003 0.2172263 0.2077759 0.1935879 0.1818881 0.1819199 0.1942276 0.2094285
 0.2188868 0.2225746 0.2251672 0.2279755 0.2273768 0.2203326 0.2094676 0.2014289 0.2002967 0.2040041
 0.2077797 0.2091539 0.2080263 0.2038646 0.1960288 0.1867982 0.1813738 0.1833976 0.1912471 0.1996199
 0.2043346 0.2049796 0.2035967 0.202104 0.2010255 0.1996906 0.1975388 0.1957954 0.197229 0.2030971
 0.2109881 0.2172341 0.2210937 0.2249741 0.2306485 0.2367761 0.24049 0.2405009 0.238337 0.2370476
 0.2387664 0.2429938 0.2469506 0.2479512 0.2459648 0.2438843 0.244861 0.2492938 0.2547858 0.2588616
 0.2609882 0.2620469 0.262866 0.2635309 0.2633542 0.2614175 0.2579281 0.2550257 0.2552822 0.2591451
 0.2644865 0.2687608 0.2710258 0.2718244 0.2718358 0.2711472 0.2696412 0.2676441 0.2659338 0.2651453
 0.2653319 0.266124 0.2671255 0.2680867 0.2688838 0.2694961 0.2699677 0.2703352 0.2706243 0.270897
 0.2712071 0.2715063 0.2716946 0.2717955 0.271984 0.2723767 0.2728599 0.2732019 0.2732681 0.2730301
 0.2724269 0.2713702 0.2698952 0.2681698 0.2663056 0.2642783 0.2621531 0.2603468 0.2595149 0.2600681
 0.261794 0.263987 0.2659385 0.2672956 0.2680559 0.2683805 0.2684591 0.2684555 0.268468 0.2685095
 0.2685418 0.2685376 0.2685048 0.2684579 0.2683926 0.2683132 0.2682659 0.2683096 0.2684495 0.2686182
 0.2687237 0.2687081 0.268568 0.2683356 0.268041 0.2676843 0.2672341 0.266651 0.2659191 0.2650697
 0.264177 0.2633134 0.2624916 0.2616529 0.2607203 0.2596561 0.2584479 0.2570581 0.2554514 0.2536916
 0.2519476 0.2503551 0.2489013 0.2474771 0.2459932 0.2444133 0.2427246 0.2409336 0.2390725 0.237176
 0.2352569 0.2333143 0.2313501 0.2293663 0.2273586 0.2253194 0.2232425 0.2211245 0.2189635 0.2167535
 0.2144673 0.2120385 0.209366 0.2063432 0.2028816 0.1989195 0.1944419 0.1895172 0.1843064 0.1790174
 0.1738435 0.1689334 0.1643949 0.1603124 0.1567588 0.1537912 0.1514425 0.1497295 0.1486683 0.1482705
 0.1485269 0.1493978 0.1508074 0.1526357 0.1547275 0.15692 0.1590702 0.1610739 0.1628897 0.1645568
 0.1661722 0.167821 0.1695139 0.1711939 0.1728012 0.1743086 0.1756909 0.1769025 0.1779158 0.1787579
 0.179482 0.1801222 0.1806947 0.1812201 0.1817215 0.1822092 0.1826804 0.1831343 0.1835878 0.1840722
 0.1846049 0.1851764 0.1857741 0.186409 0.1871062 0.1878791 0.1887205 0.1896107 0.1905355 0.1915002
 0.1925204 0.1936044 0.1947678 0.1960654 0.1975754 0.1993402 0.201334 0.2034792 0.205672 0.207799
 0.2097549 0.2114587 0.2128656 0.213968 0.2147858 0.2153571 0.2157376 0.2159903 0.216158 0.2162555
 0.2162931 0.2162846 0.2162284 0.2161092 0.2159259 0.2156949 0.2154313 0.2151464 0.2148547 0.2145627
 0.2142633 0.2139528 0.2136446 0.2133544 0.2130816 0.2128048 0.212494 0.212131 0.2117184 0.2112692
 0.2107906 0.2102748 0.2096912 0.2089913 0.2081417 0.2071467 0.2060224 0.2047688 0.2033854 0.2018965
 0.2003391 0.1987437 0.197135 0.1955293 0.193919 0.1922688 0.1905281 0.1886521 0.1866348 0.1845336
 0.1824474 0.1804582 0.1785959 0.1768435 0.1751647 0.1735326 0.1719454 0.1704149 0.1689471 0.1675415
 0.166199 0.1649194 0.1637002 0.1625432 0.16146 0.1604695 0.1595892 0.1588189 0.1581334 0.1575074
 0.1569447 0.1564689 0.1560961 0.1558289 0.1556623 0.1555704 0.155501 0.155396 0.1552195 0.1549753
 0.1547092 0.1544804 0.1543142 0.1541874 0.1540588 0.1538905 0.1536359 0.1532254 0.1525744 0.1516096
 0.1503061 0.1487051 0.1468941 0.1449818 0.1430937 0.1413573 0.1398626 0.1386436 0.1376937 0.136972
 0.1364045 0.1359225 0.1355129 0.1352215 0.1351073 0.1351728 0.1353123 0.1353604 0.1352436 0.1350708
 0.1350399 0.1352729 0.1357504 0.1363555 0.1369473 0.1374258 0.1377578 0.1379537 0.1380393 0.1380455
 0.1379869 0.1378439 0.1375953 0.1372578 0.1368729 0.1364707 0.1360553 0.1355999 0.1350594 0.1344109
 0.1336695 0.132858 0.1319929 0.1310859 0.1301115 0.1290101 0.1278004 0.126667 0.1258719 0.1255876
 0.125812 0.1263909 0.1271281 0.1279109 0.1286784 0.1292574 0.1294104 0.1291993 0.1291748 0.129982
 0.1317419 0.1339211 0.1358085 0.1370229 0.1375547 0.1375067 0.1369553 0.135967 0.1345664 0.1327184
 0.1304418 0.1278647 0.1251196 0.1223093 0.1195915 0.1171435 0.1150481 0.1133079 0.1119144 0.1109196
 0.1104652 0.1102195 0.1084595 0.1029816 0.09448248 0.08806788 0.08895919 0.09662092 0.1051327 0.109459
 0.1094685 0.107847 0.1064381 0.1055174 0.1049953 0.1050064 0.1056708 0.1068611 0.1082146 0.1093431
 0.1100758 0.1104352 0.1103807 0.1096094 0.1074993 0.1033013 0.09674408 0.0885987 0.08042456 0.07364492
 0.06890033 0.06607551 0.06462014 0.06387962 0.06342076 0.06321028 0.06348499 0.06444871 0.06610171 0.06832586
 0.07101776 0.0740144 0.07695109 0.0794122 0.08126802 0.08269677 0.08385103 0.08466787 0.0850218 0.08490848
 0.08444417 0.08378184 0.08304435 0.08227533 0.08142459 0.08040541 0.07922278 0.07806982 0.0772254 0.07680014
 0.07665307 0.07659359 0.07655788 0.07655243 0.07655636 0.07653868 0.07649814 0.07647656 0.07656862 0.07685889
 0.07730319 0.07773605 0.07802369 0.07816513 0.0782477 0.07831712 0.07826827 0.07793414 0.07736837 0.07689172
 0.07666894 0.07639924 0.07569799 0.07468424 0.07391527 0.07377481 0.07413457 0.07458828 0.07482828 0.07478942
 0.07461537 0.07458244 0.07492293 0.07556211</values></Ydata></ScSm><ScRf><Ydata ylabel="Single channel"><values byteorder="INTEL" format="FLOAT32" numvalues="1820"> 0.06070381 0.06085363 0.06094337 0.06097465 0.06097082 0.06097549 0.06103689 0.06117778 0.06137547 0.06157079
 0.06170752 0.06177085 0.06177923 0.06174516 0.06167606 0.06161632 0.06164222 0.06178878 0.06200017 0.06216715
 0.06221326 0.06216061 0.06211931 0.06217998 0.06229145 0.06227124 0.06197818 0.06147575 0.06099225 0.06071008
 0.060652 0.06081336 0.06127216 0.0619733 0.06248875 0.06232251 0.06153056 0.06075064 0.06049835 0.06067681
 0.06086592 0.06080728 0.06048672 0.06005044 0.05985498 0.06036555 0.06169766 0.06324676 0.06391209 0.06279463
 0.05983741 0.05602388 0.05301287 0.05225099 0.05395578 0.05682249 0.05900025 0.059568 0.05898055 0.05813546
 0.05740478 0.05674344 0.0563147 0.05653353 0.0574922 0.05856524 0.05873089 0.05744783 0.05530053 0.0535834
 0.05311928 0.0537461 0.0550094 0.05665729 0.05793236 0.05717731 0.05346505 0.04865067 0.04654066 0.049277
 0.05505452 0.05988479 0.06114032 0.05903073 0.0554563 0.05243409 0.05132653 0.05246671 0.05510716 0.05804445
 0.06034774 0.06139198 0.0606913 0.0583276 0.05536844 0.05334611 0.05331555 0.05544687 0.05899211 0.06234524
 0.06376702 0.06267212 0.06002299 0.05731346 0.05558147 0.05540887 0.05707282 0.06026092 0.06404857 0.06742863
 0.06971958 0.07064281 0.0703899 0.0695007 0.0684495 0.06755859 0.06728015 0.06792028 0.0688998 0.06897475
 0.06759214 0.06563511 0.06451719 0.06472296 0.06542332 0.06548116 0.06459888 0.06313831 0.06100248 0.05760417
 0.05321794 0.04935083 0.04723953 0.04690719 0.04805423 0.05053657 0.05330873 0.05436296 0.0529197 0.05083154
 0.05074917 0.05329831 0.05675024 0.0591361 0.06007344 0.06064124 0.06198209 0.06412803 0.06585464 0.06560725
 0.06304383 0.05990244 0.05877586 0.06056802 0.06362312 0.06576067 0.06657517 0.0671989 0.06832175 0.06912018
 0.06811598 0.06493652 0.06125664 0.05975598 0.06177957 0.06599228 0.06935192 0.06935519 0.06571773 0.06044251
 0.05626514 0.05475971 0.0559168 0.05919134 0.06410828 0.06970231 0.0742587 0.07626931 0.07552715 0.07306073
 0.06995769 0.06635593 0.06199023 0.05784872 0.05638713 0.05921005 0.06501307 0.07066399 0.07399534 0.07488863
 0.07405881 0.07171258 0.06774707 0.06305249 0.05994602 0.06037082 0.0635502 0.06642299 0.0668473 0.06555557
 0.06458308 0.06473276 0.06527407 0.06550386 0.06575882 0.06684582 0.06888466 0.07100605 0.07218779 0.0721788
 0.07154422 0.07100916 0.07079943 0.07047525 0.06955703 0.06849301 0.06860073 0.07061958 0.07368557 0.07621598
 0.07749636 0.07793795 0.07800865 0.07741372 0.07551669 0.07252397 0.06997256 0.06958863 0.07161778 0.07466903
 0.07716259 0.07846823 0.07876323 0.07846232 0.07793499 0.07738622 0.07691468 0.07676612 0.07727309 0.07837687
 0.07951801 0.08019572 0.08038026 0.08025797 0.07986775 0.07917789 0.0783536 0.0777635 0.07771161 0.07820863
 0.07901782 0.07987088 0.08056251 0.08090468 0.08079092 0.08034842 0.07986739 0.07953367 0.07935556 0.07934593
 0.07959142 0.08008702 0.0806463 0.08105651 0.08125015 0.08128434 0.0812217 0.08108265 0.08088364 0.08068775
 0.08060807 0.0807282 0.08100019 0.08127612 0.08148322 0.08169802 0.08198193 0.08222374 0.08225206 0.08206269
 0.08183532 0.08173874 0.08179293 0.0819127 0.08200634 0.08199756 0.08181313 0.08144625 0.08104783 0.0808708
 0.08106788 0.0815828 0.08224475 0.08288832 0.08337669 0.08362908 0.08368253 0.08365388 0.0836059 0.08350304
 0.08331016 0.08309165 0.08299793 0.08315551 0.08355281 0.08403798 0.08444239 0.08468957 0.08479619 0.08483738
 0.08491901 0.08509564 0.0852886 0.08536011 0.08528988 0.08521056 0.08524705 0.08537437 0.08545906 0.08541779
 0.08531395 0.08529294 0.08542865 0.08565696 0.08586651 0.08602367 0.08618564 0.08640215 0.08662196 0.08671553
 0.08661106 0.08639234 0.08621842 0.08615841 0.08616547 0.08620466 0.08631823 0.08653302 0.08677179 0.08691617
 0.08693817 0.08692401 0.08696188 0.08703572 0.08705011 0.0869451 0.08676092 0.08659449 0.08651843 0.08654184
 0.08661938 0.08668248 0.08667805 0.08659914 0.08648326 0.08637657 0.0863009 0.08626343 0.08629321 0.08643566
 0.08668107 0.0869125 0.08697095 0.08679936 0.08651032 0.08629002 0.08622988 0.08625727 0.08622652 0.08606178
 0.08580583 0.08555165 0.08535622 0.08521888 0.08511287 0.08502128 0.08495875 0.08497082 0.08508866 0.08526082
 0.08535402 0.08526222 0.08501202 0.08473293 0.08453636 0.08444899 0.08443694 0.08445074 0.08446184 0.0844873
 0.08455896 0.08465071 0.08467939 0.08460578 0.08449379 0.08444514 0.08451463 0.08469376 0.08491804 0.08507757
 0.0850859 0.08497023 0.08485357 0.08483008 0.08489074 0.084976 0.08505506 0.08513294 0.08521539 0.0853027
 0.08541077 0.08557104 0.08579914 0.08606866 0.08631968 0.08649803 0.08659878 0.08668055 0.08682884 0.08708882
 0.08742687 0.087759 0.08801982 0.08820918 0.08837532 0.08855622 0.08874896 0.08894307 0.08916177 0.08943966
 0.08976911 0.09010255 0.09040711 0.09068911 0.09096623 0.09124354 0.09152353 0.09182467 0.09218024 0.09260766
 0.0930668 0.09346142 0.0937133 0.09384009 0.09394759 0.09414759 0.09448245 0.09489517 0.09525575 0.09545797
 0.09552751 0.09560613 0.09579638 0.09605568 0.09628563 0.0964895 0.09677424 0.0971994 0.09768304 0.09808004
 0.09832467 0.09847571 0.09863505 0.09883931 0.09903574 0.09916155 0.09922972 0.0993118 0.09944618 0.0996103
 0.09979589 0.1000554 0.1004307 0.1008716 0.1012727 0.1015722 0.1017808 0.1019331 0.1020503 0.1021372
 0.1021887 0.102209 0.1022336 0.1023048 0.1024124 0.1024937 0.102514 0.1025165 0.1025721 0.1027103
 0.1029228 0.1031995 0.1035208 0.103838 0.1041155 0.1043882 0.1047239 0.1051123 0.1054394 0.105608
 0.1056455 0.1056512 0.1056752 0.1057072 0.1057627 0.105904 0.1061634 0.1064999 0.1068505 0.1071921
 0.1075364 0.1078856 0.108208 0.1084503 0.108573 0.108583 0.108542 0.1085394 0.1086488 0.1088891
 0.1092153 0.109549 0.1098287 0.1100253 0.1101215 0.1101102 0.1100371 0.110008 0.1101055 0.1102953
 0.110444 0.1104328 0.1102318 0.1098714 0.1093786 0.1087689 0.1080834 0.1074059 0.10683 0.1064139
 0.1061782 0.1061435 0.1063495 0.1068099 0.107456 0.1081568 0.1087993 0.1093189 0.1096491 0.1096947
 0.1093981 0.1088118 0.1080718 0.107313 0.1066184 0.1060081 0.105443 0.1048724 0.1043278 0.1039668
 0.1039959 0.1045452 0.1056028 0.1070262 0.1085906 0.1100637 0.1112963 0.1122712 0.1130678 0.1137756
 0.1144414 0.1150864 0.1157365 0.1164027 0.117048 0.1176153 0.1180927 0.1185204 0.1189334 0.1193247
 0.119665 0.1199336 0.120137 0.1203141 0.1205038 0.1206882 0.1207976 0.1207906 0.120704 0.1205992
 0.1204885 0.1203303 0.1200745 0.1197014 0.1192512 0.118845 0.1186654 0.1188815 0.1195555 0.120605
 0.1218601 0.1231694 0.1244439 0.1256102 0.1265724 0.1272629 0.1277107 0.1280193 0.1282865 0.1285614
 0.1288566 0.1291665 0.1294744 0.1297641 0.1300347 0.1303059 0.1306061 0.130948 0.1313046 0.1316223
 0.131871 0.1320838 0.1323363 0.1326765 0.133078 0.1334682 0.1338074 0.1341205 0.134442 0.1347508
 0.1349961 0.1351748 0.1353461 0.1355702 0.1358634 0.1362062 0.136559 0.1368697 0.1371037 0.1372762
 0.137439 0.1376314 0.1378564 0.138101 0.1383575 0.1386229 0.1388918 0.1391645 0.1394526 0.1397612
 0.1400619 0.1403032 0.140462 0.1405757 0.140708 0.1408895 0.141101 0.1413078 0.1415025 0.1417154
 0.1419853 0.1423129 0.1426452 0.1429147 0.1430972 0.1432252 0.1433515 0.1435075 0.143695 0.1439033
 0.1441217 0.1443396 0.1445479 0.1447475 0.1449503 0.1451659 0.1453898 0.1456093 0.1458175 0.1460171
 0.1462146 0.1464175 0.1466351 0.1468808 0.1471641 0.1474734 0.1477698 0.1480103 0.1481821 0.148309
 0.1484267 0.1485576 0.1487073 0.1488733 0.1490535 0.1492479 0.1494553 0.1496685 0.1498773 0.1500777
 0.1502751 0.1504778 0.1506892 0.1509074 0.1511328 0.1513697 0.1516155 0.1518538 0.1520666 0.1522521
 0.1524255 0.152604 0.1527945 0.1529899 0.1531754 0.1533447 0.153511 0.1536944 0.1538983 0.154108
 0.1543105 0.1545059 0.1547006 0.1548983 0.1550983 0.1552988 0.1554992 0.1557006 0.155903 0.1561027
 0.1562967 0.1564873 0.15668 0.1568777 0.1570786 0.1572784 0.1574747 0.1576703 0.1578728 0.1580873
 0.1583084 0.1585198 0.1587085 0.1588788 0.1590497 0.1592351 0.1594326 0.1596315 0.1598252 0.1600152
 0.1602091 0.1604151 0.160633 0.1608532 0.1610675 0.1612766 0.1614843 0.1616928 0.1619029 0.1621145
 0.1623262 0.1625395 0.1627574 0.162979 0.1632003 0.1634205 0.1636405 0.1638564 0.164061 0.16425
 0.1644245 0.1645911 0.1647605 0.1649395 0.1651268 0.1653202 0.1655195 0.1657211 0.1659174 0.1661058
 0.1662879 0.166464 0.1666366 0.1668167 0.1670156 0.167233 0.1674563 0.1676722 0.1678775 0.168081
 0.168289 0.1684951 0.1686909 0.1688803 0.1690744 0.1692787 0.1694929 0.1697148 0.1699384 0.1701578
 0.1703729 0.1705848 0.1707928 0.1709994 0.1712088 0.1714182 0.1716219 0.1718214 0.1720233 0.1722311
 0.1724451 0.1726602 0.1728674 0.1730661 0.1732686 0.1734818 0.1736985 0.1739135 0.1741297 0.174346
 0.1745578 0.1747662 0.1749741 0.1751819 0.1753945 0.175617 0.1758436 0.1760672 0.1762898 0.1765104
 0.1767213 0.1769237 0.1771238 0.1773077 0.1774266 0.1773654 0.1768487 0.1753348 0.1719975 0.1658886
 0.1563148 0.1432754 0.127617 0.1107332 0.09405053 0.07865805 0.06520093 0.05396252 0.04500183 0.0382452
 0.03354803 0.03078966 0.02996792 0.03129881 0.03533082 0.04262136 0.05250805 0.0620228 0.06704923 0.0655724
 0.05960308 0.05334342 0.04969745 0.04887264 0.04963161 0.0509146 0.05238108 0.05421948 0.05675995 0.06009579
 0.06406619 0.06866499 0.07423945 0.08104978 0.08874144 0.09649295 0.1037232 0.1105449 0.1174885 0.1248564
 0.132405 0.1395864 0.1459843 0.1515183 0.15636 0.1607465 0.1648458 0.1687341 0.1724422 0.1759602
 0.1791646 0.1817886 0.1835475 0.1843493 0.1844016 0.1841039 0.1838184 0.1837213 0.1838306 0.1841113
 0.1845339 0.1850771 0.1857241 0.1864559 0.1872426 0.1880502 0.1888562 0.1896486 0.1904164 0.1911487
 0.1918326 0.1924509 0.1929962 0.1934852 0.1939437 0.194383 0.1947993 0.1951864 0.1955403 0.1958636
 0.1961688 0.1964695 0.196767 0.197053 0.1973184 0.1975588 0.197778 0.1979894 0.1982046 0.1984219
 0.1986323 0.1988338 0.1990331 0.1992377 0.1994486 0.1996606 0.1998683 0.2000706 0.2002691 0.2004603
 0.2006397 0.2008131 0.2009957 0.2011965 0.2014114 0.2016297 0.2018423 0.2020448 0.2022366 0.2024206
 0.2026018 0.2027863 0.2029782 0.2031751 0.2033727 0.2035739 0.2037864 0.2040102 0.2042364 0.2044563
 0.2046666 0.2048674 0.2050653 0.2052702 0.20548 0.2056756 0.2058429 0.2059967 0.206171 0.2063839
 0.2066162 0.2068317 0.2070183 0.2071992 0.2073993 0.2076161 0.2078277 0.2080178 0.2081904 0.2083717
 0.208592 0.2088531 0.209125 0.2093814 0.2096191 0.2098409 0.2100506 0.2102653 0.2104971 0.2107192
 0.2108868 0.2110032 0.2111418 0.2113851 0.2117421 0.2121318 0.2124588 0.2126998 0.2129013 0.2131183
 0.2133766 0.2136537 0.2138591 0.2138975 0.2138148 0.2138238 0.2141083 0.2146372 0.2152201 0.215701
 0.2160528 0.2163299 0.2165833 0.2168115 0.2169624 0.2169923 0.2169482 0.2169867 0.2172601 0.217759
 0.2183098 0.2187527 0.2190659 0.2193008 0.2194915 0.2196585 0.2197742 0.2196992 0.2193224 0.2188382
 0.2187115 0.2192287 0.2201745 0.221063 0.221623 0.2219456 0.2222174 0.2224879 0.2227119 0.2227937
 0.2224922 0.2215595 0.220226 0.2193327 0.2196374 0.2210506 0.2227813 0.2241285 0.2249216 0.2253385
 0.2255992 0.2258218 0.225932 0.2256681 0.2248734 0.2238833 0.2234404 0.2240101 0.2252596 0.2264165
 0.2270589 0.2273377 0.2275594 0.2278412 0.228032 0.2276723 0.2262528 0.2239693 0.222101 0.222109
 0.2242047 0.2270952 0.2292655 0.2302809 0.2306595 0.2307524 0.2302302 0.2286782 0.2262191 0.2234553
 0.2212799 0.2207597 0.2224279 0.2253951 0.2278532 0.2288622 0.2291425 0.2298833 0.2313252 0.2327685
 0.2334861 0.2332869 0.2323916 0.2310327 0.229344 0.227738 0.2271256 0.2282642 0.2308362 0.2335719
 0.2354241 0.2363573 0.23679 0.2363601 0.2336781 0.2279907 0.2212691 0.2176672 0.2198555 0.2262291
 0.2326346 0.2364567 0.2380553 0.2388152 0.2392836 0.2390194 0.236858 0.2315507 0.2237361 0.2171771
 0.2162174 0.2214845 0.2291806 0.2346295 0.2354579 0.2318395 0.2256624 0.2199725 0.2177282 0.2200055
 0.2255277 0.2319254 0.2371581 0.2400809 0.2404344 0.238727 0.2361954 0.2345085 0.234558 0.2351362
 0.2338517 0.230151 0.2262408 0.2238523 0.2215684 0.217454 0.2133164 0.2135102 0.2192677 0.2266197
 0.2308555 0.2313006 0.2304394 0.2293995 0.2260167 0.2179432 0.207085 0.1996777 0.2008345 0.2092396
 0.2183254 0.2227055 0.2224541 0.2211733 0.2211924 0.2211922 0.2180546 0.2109262 0.2032997 0.2000886
 0.2024055 0.2065678 0.2084598 0.2068126 0.2017864 0.1936711 0.1852412 0.1825879 0.189988 0.2046797
 0.2190252 0.2267928 0.2254315 0.2147131 0.1976341 0.1822577 0.1777922 0.186343 0.2003565 0.2095669
 0.2091426 0.2005557 0.1872054 0.1720945 0.1592243 0.1540342 0.1601554 0.1757283 0.1933982 0.2039473
 0.2013949 0.1876801 0.1731246 0.1690075 0.1772679 0.1891359 0.194944 0.1928974 0.1877107 0.1845604
 0.1861078 0.1919875 0.1991889 0.2048987 0.2087488 0.2096226 0.2026314 0.1849831 0.1637486 0.1512012
 0.1520786 0.161163 0.1730815 0.187127 0.200867 0.2068433 0.2009761 0.1902931 0.1869479 0.1953224
 0.2082783 0.2158872 0.2152567 0.2110647 0.2083444 0.2071288 0.2049384 0.2025648 0.2042925 0.2119833
 0.2218253 0.2285862 0.231055 0.2315812 0.2320852 0.2325983 0.2326032 0.2319069 0.2305699 0.2290424
 0.2280274 0.2276864 0.2274877 0.2270108 0.2259231 0.2227596 0.2152439 0.2034912 0.1920349 0.186232
 0.1865846 0.1891245 0.1913171 0.1935322 0.1935226 0.1848786 0.1654859 0.1444667 0.135542 0.1437748
 0.1617978 0.1782155 0.1863368 0.1847592 0.1739712 0.1565522 0.1398787 0.1338097 0.1426486 0.1610202
 0.1796179 0.1932169 0.2012526 0.2033764 0.1984913 0.1879295 0.176708 0.1706536 0.1728608 0.1823427
 0.1943577 0.2016219 0.1978737 0.1841002 0.1712768 0.1722649 0.1883226 0.2070191 0.2162117 0.2163355
 0.2154681 0.2167569 0.2168721 0.214851 0.21562 0.2232541 0.234993 0.2439663 0.245223 0.2376798
 0.223481 0.2084961 0.2007933 0.2041391 0.2136577 0.2210802 0.2227128 0.2189595 0.2094687 0.1951858
 0.1835079 0.1838353 0.1966956 0.2125146 0.2224901 0.2266091 0.2296678 0.2330096 0.2328914 0.2261588
 0.2155182 0.207875 0.2075088 0.2123365 0.2174575 0.2203248 0.2207746 0.218101 0.2114979 0.2033951
 0.1994818 0.2037603 0.2143801 0.2253357 0.2318093 0.2331819 0.2316421 0.2293473 0.2269637 0.2238337
 0.2194262 0.2152093 0.214357 0.2183622 0.224672 0.2293182 0.2314568 0.2336421 0.2378015 0.2425807
 0.245001 0.2437145 0.240281 0.2378041 0.2384451 0.2417128 0.2448285 0.2450945 0.2424621 0.2398204
 0.2403349 0.244428 0.2497237 0.253749 0.2559451 0.2571543 0.2581722 0.2590523 0.2590648 0.2572477
 0.2537725 0.2507451 0.2507173 0.2541556 0.2589922 0.2627602 0.2645918 0.2650876 0.2649522 0.2642553
 0.262832 0.2609551 0.259367 0.2586862 0.2589559 0.2597924 0.2607894 0.2616964 0.2623918 0.2628615
 0.2631675 0.2633649 0.2634767 0.2635458 0.2636188 0.2636637 0.2636041 0.2634747 0.2634502 0.2636507
 0.2639825 0.2642366 0.2642812 0.2640737 0.2635455 0.2626183 0.2613407 0.2598797 0.2583311 0.2566542
 0.2549065 0.253497 0.2530586 0.2539706 0.2560051 0.258468 0.2606701 0.2622668 0.2632471 0.2637517
 0.2639499 0.2639947 0.2639819 0.2639278 0.2638046 0.2635964 0.2633153 0.2629796 0.2626036 0.2622119
 0.2618469 0.2615411 0.2612805 0.2610064 0.2606579 0.2602123 0.2596917 0.2591433 0.2586038 0.2580611
 0.2574525 0.2567146 0.2558398 0.2548848 0.2539327 0.2530469 0.2522398 0.2514753 0.2507066 0.2499057
 0.2490418 0.2480601 0.2469327 0.2457386 0.2446417 0.2437586 0.2430662 0.2424467 0.2417883 0.2410293
 0.2401499 0.2391693 0.2381374 0.2370939 0.2360335 0.2349232 0.2337407 0.2324822 0.2311458 0.2297248
 0.2282143 0.2266227 0.2249812 0.2233287 0.2216628 0.2199053 0.2179252 0.2155909 0.2127951 0.209457
 0.2055425 0.2011034 0.1962927 0.191326 0.1864134 0.1817213 0.1773793 0.1734957 0.1701539 0.1674117
 0.1653159 0.16391 0.1632189 0.1632395 0.163949 0.1653083 0.1672516 0.1696792 0.1724597 0.1754334
 0.1784214 0.1812586 0.1838501 0.1862095 0.1884255 0.1905643 0.1926034 0.1944675 0.1961085 0.1975267
 0.1987361 0.199747 0.2005806 0.2012762 0.2018733 0.2023938 0.2028423 0.2032187 0.2035289 0.2037835
 0.2039916 0.2041643 0.2043224 0.2044957 0.2047079 0.2049616 0.2052403 0.2055345 0.2058649 0.2062681
 0.2067576 0.2073121 0.2078998 0.2085018 0.2091132 0.2097462 0.2104363 0.2112343 0.2121819 0.2132953
 0.2145603 0.2159325 0.2173369 0.2186782 0.219865 0.2208405 0.2215897 0.2221163 0.2224236 0.2225237
 0.2224488 0.2222402 0.2219313 0.2215447 0.2210926 0.220577 0.2199958 0.2193546 0.2186695 0.217963
 0.2172597 0.2165792 0.2159228 0.2152718 0.2146068 0.2139309 0.213268 0.2126356 0.2120259 0.2114226
 0.2108274 0.2102525 0.2096951 0.2091377 0.2085699 0.2079839 0.2073479 0.2066131 0.2057586 0.20481
 0.2037997 0.2027237 0.2015523 0.2002722 0.1988979 0.1974483 0.1959284 0.1943374 0.192683 0.1909722
 0.1891896 0.1873032 0.1853108 0.1832766 0.1813014 0.1794548 0.177745 0.1761442 0.1746263 0.173186
 0.1718337 0.1705706 0.1693744 0.1682214 0.1671129 0.1660624 0.1650653 0.1641059 0.1631884 0.1623435
 0.1616023 0.1609716 0.1604346 0.1599722 0.1595765 0.1592437 0.1589759 0.1587991 0.1587496 0.1588151
 0.1589131 0.1589479 0.158879 0.1587316 0.1585658 0.1584344 0.1583527 0.1583014 0.1582538 0.1581767
 0.1580119 0.1576803 0.1571079 0.1562394 0.1550502 0.1535611 0.1518359 0.1499733 0.1481127 0.1464078
 0.1449627 0.1438076 0.1429332 0.1423039 0.1418423 0.141464 0.141145 0.1409355 0.1409019 0.1410477
 0.1412708 0.1414237 0.1414533 0.1414661 0.141633 0.1420545 0.1427141 0.1435029 0.1442794 0.1449436
 0.145463 0.145835 0.1460697 0.1462035 0.1462694 0.1462583 0.1461506 0.1459595 0.1457113 0.1454182
 0.1450799 0.1446755 0.1441675 0.1435477 0.1428474 0.1420846 0.1412543 0.1403564 0.1393708 0.1382522
 0.1370399 0.1359386 0.1352222 0.1350719 0.135492 0.1363147 0.137313 0.1383577 0.1393895 0.140229
 0.1406229 0.1406297 0.1408136 0.1418373 0.1438351 0.146268 0.1484022 0.1498428 0.1505841 0.1507212
 0.1503034 0.1493746 0.1479496 0.1459892 0.1435232 0.1407039 0.13768 0.1345706 0.1315734 0.1289079
 0.1266707 0.1248592 0.1234455 0.1224511 0.1220115 0.1217813 0.1198872 0.1139027 0.1046095 0.09767734
 0.09888001 0.1075888 0.1172161 0.122166 0.1222814 0.1205489 0.1190443 0.1180896 0.1175739 0.1176275
 0.1183649 0.1196292 0.1210281 0.1221657 0.1228829 0.1232242 0.1231563 0.1223206 0.1199654 0.1152126
 0.1077693 0.09853752 0.08930106 0.08167268 0.07635367 0.07318506 0.07155008 0.07072808 0.07021102 0.06993014
 0.07017811 0.07125615 0.0732058 0.07586569 0.07904521 0.08249973 0.08582719 0.08862676 0.09079964 0.09253336
 0.09396651 0.0950148 0.0955425 0.09555776 0.09519131 0.09458443 0.09384874 0.09305699 0.09219304 0.09115602
 0.08992523 0.08871862 0.08786406 0.08748361 0.08740935 0.0874152 0.08740645 0.08737779 0.08732529 0.08724257
 0.08714218 0.08707944 0.08716413 0.08748045 0.08796924 0.08844796 0.08876297 0.0888973 0.08893992 0.0889378
 0.0887612 0.08822064 0.08739574 0.08666226 0.08620424 0.08568639 0.084689 0.08335569 0.08232103 0.08202277
 0.08230753 0.08269995 0.08284944 0.08269054 0.08238764 0.08224931 0.08253527 0.08315766 0.08365129 0.0836106
</values></Ydata></ScRf><Data_Parameters_AB><parameter name="DPF">1</parameter><parameter name="NPT">3497</parameter><parameter name="FXV">3996</parameter><parameter name="LXV">500</parameter><parameter name="CSF">1</parameter><parameter name="MXY">0.109028145670891</parameter><parameter name="MNY">-0.0757294371724129</parameter><parameter name="DAT">02/06/2022</parameter><parameter name="TIM">12:30:05.855 (GMT+2)</parameter><parameter name="DXU">WN</parameter></Data_Parameters_AB><AB__Qtest><MainReport name="Quality Test Report"><Header><Line><Legend>Test result ok/not ok [1/0]: </Legend><Value>0</Value></Line><Line><Legend>Method file: </Legend><Value>C:\Users\Public\Documents\Bruker\OPUS_8.2.28\QT\IRBT_v3_default.QT</Value></Line></Header><Matrix><Line><Legend></Legend><Legend>min</Legend><Legend>max</Legend><Legend>measured</Legend></Line><Line><Value>Absorption (X-Range 1):</Value><Value>0.400000</Value><Value>2.000000</Value><Value>0.147664</Value></Line><Line><Value>Noise (X-Range 4):</Value><Value></Value><Value>0.000300</Value><Value>0.000030</Value></Line><Line><Value>Signal/Noise (X-Range 2):</Value><Value>200.000000</Value><Value></Value><Value>121.803167</Value></Line><Line><Value>Signal/Noise (X-Range 3):</Value><Value>40.000000</Value><Value></Value><Value>60.574724</Value></Line><Line><Value>Water vapour (X-Range 5):</Value><Value></Value><Value>0.000300</Value><Value>0.000046</Value></Line><Line><Value>Signal/Water (X-Range 2):</Value><Value>100.000000</Value><Value></Value><Value>78.989600</Value></Line><Line><Value>Signal/Water (X-Range 3):</Value><Value>20.000000</Value><Value></Value><Value>39.282831</Value></Line><Line><Value>Fringes (X-Range 6):</Value><Value></Value><Value>0.000100</Value><Value>0.000051</Value></Line></Matrix></MainReport></AB__Qtest><Data_Parameters_ScSm><parameter name="DPF">1</parameter><parameter name="NPT">1814</parameter><parameter name="FXV">3996.33169228125</parameter><parameter name="LXV">499.541461535156</parameter><parameter name="CSF">1</parameter><parameter name="MXY">0.276782900094986</parameter><parameter name="MNY">0.0356749296188354</parameter><parameter name="DAT">02/06/2022</parameter><parameter name="TIM">12:30:05.855 (GMT+2)</parameter><parameter name="DXU">WN</parameter></Data_Parameters_ScSm><Data_Parameters_ScRf><parameter name="DPF">1</parameter><parameter name="NPT">1820</parameter><parameter name="FXV">4004.04661832813</parameter><parameter name="LXV">495.683998511719</parameter><parameter name="CSF">1</parameter><parameter name="MXY">0.265087604522705</parameter><parameter name="MNY">0.0299679189920425</parameter><parameter name="DAT">02/06/2022</parameter><parameter name="TIM">12:29:39.127 (GMT+2)</parameter><parameter name="DXU">WN</parameter></Data_Parameters_ScRf><Optic_Parameters_Rf><parameter name="APR">0</parameter><parameter name="APT">Open</parameter><parameter name="BMS">KBr</parameter><parameter name="DTC">RT-DLaTGS_IR-Biotyper [Microplate reader]</parameter><parameter name="HPF">0</parameter><parameter name="LPF">10.0</parameter><parameter name="LPV">4000</parameter><parameter name="PGR">0</parameter><parameter name="RCH">Module port</parameter><parameter name="RDX">0</parameter><parameter name="SRC">MIR</parameter><parameter name="VEL">10.0</parameter><parameter name="SON">Off</parameter></Optic_Parameters_Rf><Acquisition_Parameters_Rf><parameter name="ADT">1</parameter><parameter name="AQM">DD</parameter><parameter name="CFE">0</parameter><parameter name="COR">0</parameter><parameter name="DEL">0</parameter><parameter name="DLY">0</parameter><parameter name="HFW">8000</parameter><parameter name="LFW">0</parameter><parameter name="NSR">32</parameter><parameter name="PLF">AB</parameter><parameter name="RES">6</parameter><parameter name="RGN">-1</parameter><parameter name="STR">0</parameter><parameter name="TCL">MakeCompatibleScalar (0, {WSV=1.000000, ARV=0});</parameter><parameter name="TDL">37</parameter><parameter name="RPO">0</parameter></Acquisition_Parameters_Rf><FT_-_Parameters_Rf><parameter name="APF">B3</parameter><parameter name="HFQ">500</parameter><parameter name="LFQ">4000</parameter><parameter name="NLI">0</parameter><parameter name="PHR">24</parameter><parameter name="PHZ">ML</parameter><parameter name="SPZ">NO</parameter><parameter name="ZFF">1</parameter></FT_-_Parameters_Rf><Optic_Parameters_><parameter name="APR">0</parameter><parameter name="APT">Open</parameter><parameter name="BMS">KBr</parameter><parameter name="CHN">Module port</parameter><parameter name="DTC">RT-DLaTGS_IR-Biotyper [Microplate reader]</parameter><parameter name="HPF">0</parameter><parameter name="LPF">10.0</parameter><parameter name="LPV">4000</parameter><parameter name="PGN">0</parameter><parameter name="RDX">0</parameter><parameter name="SRC">MIR</parameter><parameter name="VEL">10.0</parameter><parameter name="SON">Off</parameter></Optic_Parameters_><FT_-_Parameters_><parameter name="APF">B3</parameter><parameter name="HFQ">500</parameter><parameter name="LFQ">4000</parameter><parameter name="NLI">0</parameter><parameter name="PHR">24</parameter><parameter name="PHZ">ML</parameter><parameter name="SPZ">NO</parameter><parameter name="ZFF">1</parameter></FT_-_Parameters_><Acquisition_Parameters_><parameter name="ADT">1</parameter><parameter name="AQM">DD</parameter><parameter name="CFE">0</parameter><parameter name="COR">0</parameter><parameter name="DEL">0</parameter><parameter name="DLY">0</parameter><parameter name="HFW">8000</parameter><parameter name="LFW">0</parameter><parameter name="NSS">32</parameter><parameter name="PLF">AB</parameter><parameter name="RES">6</parameter><parameter name="SOT">0</parameter><parameter name="TCL">MakeCompatibleScalar (0, {WSV=1.000000, ARV=0});</parameter><parameter name="TDL">37</parameter><parameter name="SPO">0</parameter><parameter name="SGN">-1</parameter></Acquisition_Parameters_><Instrument_Parameters_Rf><parameter name="HFL">15800.168544</parameter><parameter name="LFL">0</parameter><parameter name="LWN">15800.168544</parameter><parameter name="ABP">32197</parameter><parameter name="SSP">1</parameter><parameter name="ARG">2</parameter><parameter name="ASG">2</parameter><parameter name="ASS">32</parameter><parameter name="GFW">16</parameter><parameter name="GBW">16</parameter><parameter name="BFW">0</parameter><parameter name="BBW">0</parameter><parameter name="PKA">7262</parameter><parameter name="PKL">4996</parameter><parameter name="PRA">7451</parameter><parameter name="PRL">5001</parameter><parameter name="P2A">1</parameter><parameter name="P2L">1</parameter><parameter name="P2R">1</parameter><parameter name="P2K">1</parameter><parameter name="DAQ">0</parameter><parameter name="AG2">1</parameter><parameter name="SSM">1</parameter><parameter name="RSN">26187</parameter><parameter name="CRR">0</parameter><parameter name="SRT">1654172979.127</parameter><parameter name="DUR">19.6379852294922</parameter><parameter name="TSC">28.9</parameter><parameter name="MVD">0.33777517080307</parameter><parameter name="AN1">0.225802092897904</parameter><parameter name="AN2">0</parameter><parameter name="VSN">2.485 Apr  4 2017</parameter><parameter name="SRN">0085</parameter><parameter name="CAM">0</parameter><parameter name="INS">IR-Biotyper</parameter><parameter name="FOC">69</parameter><parameter name="RDY">1</parameter><parameter name="ARS">32</parameter></Instrument_Parameters_Rf><Sample_Parameters_><parameter name="BLD"></parameter><parameter name="CNM">Admin</parameter><parameter name="CPY"></parameter><parameter name="DPM"></parameter><parameter name="EXP">IRBT_v3_32Scans.XPM</parameter><parameter name="LCT"></parameter><parameter name="SFM">Microplate, HTS-XT</parameter><parameter name="SNM">220602-1054_GFG29M (D_16)_G11_f22c2019-bc59-4ad4-9d8d-e7c6d1c3aa73.0</parameter><parameter name="XPP">C:\Users\Public\Documents\Bruker\OPUS_8.2.28\XPM</parameter><parameter name="IST">OK</parameter><parameter name="CPG">1252</parameter><parameter name="UID">127d2b12-dd28-4d48-a766-1c2f2de06033</parameter></Sample_Parameters_><Instrument_Parameters_><parameter name="HFL">15800.168544</parameter><parameter name="LFL">0</parameter><parameter name="LWN">15800.168544</parameter><parameter name="ABP">32197</parameter><parameter name="SSP">1</parameter><parameter name="ASG">2</parameter><parameter name="ARG">2</parameter><parameter name="ASS">32</parameter><parameter name="GFW">16</parameter><parameter name="GBW">16</parameter><parameter name="BFW">0</parameter><parameter name="BBW">0</parameter><parameter name="PKA">7588</parameter><parameter name="PKL">4988</parameter><parameter name="PRA">7866</parameter><parameter name="PRL">4993</parameter><parameter name="P2A">1</parameter><parameter name="P2L">1</parameter><parameter name="P2R">1</parameter><parameter name="P2K">1</parameter><parameter name="DAQ">0</parameter><parameter name="AG2">1</parameter><parameter name="SSM">1</parameter><parameter name="RSN">13719</parameter><parameter name="CRR">0</parameter><parameter name="SRT">1654173005.855</parameter><parameter name="DUR">19.6369934082031</parameter><parameter name="TSC">28.9</parameter><parameter name="MVD">0.336533516645432</parameter><parameter name="AN1">0.225842945078022</parameter><parameter name="AN2">0</parameter><parameter name="VSN">2.485 Apr  4 2017</parameter><parameter name="SRN">0085</parameter><parameter name="CAM">0</parameter><parameter name="INS">IR-Biotyper</parameter><parameter name="FOC">69</parameter><parameter name="RDY">1</parameter></Instrument_Parameters_><History/></OPUSDataFile>
